NAME :  X-n195-kX-w77-c11.cctp
COMMENT : 	Adapted by Maziero, Usberti and Cavellucci from the Uchoa, Pecin, Pessoa, Poggi, Subramanian, and Vidal (2013)
TYPE :  CCTP
DIMENSION :    182
EDGE_WEIGHT_TYPE : 	EUC_2D	
CAPACITY : 	181
VERTICES_WITHIN_COVERAGE :  11
VERTICES_WITH_DEMAND : 	77
NODE_COORD_SECTION
1 500 500
2 691 729
3 978 828
4 427 367
5 777 543
6 190 596
7 773 750
8 234 727
9 851 358
10 140 69
11 891 285
12 467 13
13 537 162
14 636 355
15 213 284
16 75 877
17 384 814
18 606 173
19 76 236
20 86 733
21 642 61
22 303 261
23 771 775
24 107 264
25 763 43
26 811 873
27 38 170
28 822 920
29 907 792
30 539 273
31 576 836
32 491 411
33 430 725
34 727 248
35 532 825
36 457 218
37 398 153
38 942 597
39 8 330
40 637 85
41 75 781
42 578 635
43 560 188
44 27 523
45 432 198
46 359 691
47 695 372
48 203 307
49 641 389
50 836 612
51 375 499
52 818 980
53 577 226
54 889 259
55 516 324
56 102 346
57 318 976
58 223 11
59 484 245
60 365 982
61 648 790
62 878 261
63 600 800
64 493 722
65 549 214
66 714 918
67 638 166
68 452 172
69 711 687
70 924 905
71 326 662
72 786 203
73 24 32
74 529 661
75 843 248
76 115 449
77 82 971
78 876 644
79 322 24
80 642 810
81 685 607
82 141 824
83 351 732
84 641 954
85 330 941
86 830 188
87 469 250
88 970 812
89 723 360
90 274 238
91 668 103
92 562 82
93 269 147
94 135 493
95 895 953
96 930 729
97 579 972
98 901 987
99 546 102
100 967 393
101 388 767
102 977 995
103 968 434
104 517 382
105 974 455
106 537 160
107 457 1
108 995 969
109 768 432
110 991 1000
111 295 704
112 802 446
113 785 358
114 576 108
115 592 694
116 527 109
117 607 347
118 693 470
119 690 10
120 843 955
121 767 401
122 854 524
123 325 778
124 465 885
125 415 721
126 889 993
127 955 943
128 394 769
129 496 700
130 888 436
131 980 290
132 958 475
133 444 754
134 583 835
135 435 761
136 887 925
137 919 932
138 997 371
139 710 300
140 597 547
141 253 971
142 372 794
143 648 450
144 438 871
145 758 513
146 638 469
147 313 682
148 728 143
149 852 970
150 458 787
151 635 24
152 752 463
153 944 381
154 524 482
155 550 133
156 625 799
157 660 428
158 575 120
159 433 847
160 516 12
161 766 270
162 355 615
163 265 183
164 984 952
165 361 749
166 464 642
167 919 380
168 699 633
169 773 599
170 492 754
171 559 108
172 231 773
173 250 657
174 275 755
175 381 870
176 989 455
177 654 377
178 365 726
179 646 438
180 349 696
181 490 876
182 211 808
DEMAND_SECTION
2 79
3 84
4 100
5 23
6 32
7 90
8 8
9 50
10 29
11 96
12 26
13 17
14 92
15 41
16 16
17 95
18 41
19 69
20 30
21 83
22 11
23 84
24 38
25 29
26 88
27 33
28 77
29 76
30 74
31 16
32 31
33 33
34 76
35 16
36 28
37 67
38 22
39 61
40 72
41 27
42 96
43 2
44 88
45 88
46 6
47 22
48 7
49 20
50 69
51 72
52 58
53 87
54 32
55 25
56 4
57 61
58 1
59 61
60 84
61 75
62 16
63 75
64 100
65 87
66 30
67 6
68 8
69 79
70 31
71 2
72 53
73 75
74 76
75 94
76 16
77 87
78 58
COVERAGE_SECTION
2 11 69 61 7 23 80 156 168 115 63 81 42 
3 11 88 29 70 96 127 137 164 136 108 95 102 
4 11 32 104 55 87 59 51 30 154 36 22 45 
5 10 145 169 122 152 50 112 109 118 81 168 
6 11 173 94 8 147 71 111 76 162 20 44 174 
7 11 23 2 69 26 61 168 29 80 78 169 50 
8 11 172 174 111 173 182 147 123 71 83 180 165 
9 11 113 167 11 130 121 153 62 112 54 75 109 
10 11 58 73 27 93 163 19 79 24 90 15 48 
11 11 54 62 75 9 131 167 153 86 161 113 100 
12 7 107 160 116 92 99 171 79 
13 10 106 155 43 65 116 158 171 99 114 18 
14 11 177 117 49 47 157 179 89 139 143 146 104 
15 11 48 90 22 24 163 56 19 93 76 27 39 
16 11 82 77 41 20 182 172 141 8 174 57 85 
17 11 142 128 101 175 159 123 165 135 144 150 133 
18 11 67 43 53 158 155 13 65 106 114 171 40 
19 11 24 27 56 39 15 48 10 163 90 73 93 
20 11 41 82 16 182 8 172 6 173 174 111 44 
21 8 40 151 91 119 114 92 158 171 
22 11 90 163 15 48 93 37 45 36 4 87 68 
23 11 7 2 26 69 61 80 29 156 28 66 168 
24 11 19 56 48 15 27 39 90 163 76 22 10 
25 10 119 148 91 21 151 40 86 72 67 114 
26 11 28 120 136 149 23 52 66 95 70 137 29 
27 11 19 24 73 10 39 56 15 48 163 93 58 
28 11 120 26 149 52 136 95 137 126 70 98 66 
29 11 88 96 3 70 26 136 23 7 137 78 28 
30 11 55 53 65 59 87 43 36 117 13 104 106 
31 11 134 63 35 156 80 61 181 170 124 150 84 
32 9 104 4 154 55 117 30 51 49 14 
33 11 125 133 135 128 101 64 178 150 170 129 165 
34 11 161 139 72 148 89 75 86 67 113 47 14 
35 11 31 134 181 63 170 150 124 156 159 144 64 
36 11 45 87 59 68 37 65 13 30 106 43 53 
37 10 45 68 36 87 59 93 116 163 13 106 
38 10 78 50 122 132 96 105 176 103 169 130 
39 11 56 19 24 76 27 44 48 94 15 90 10 
40 9 21 91 151 114 158 92 67 171 119 
41 11 20 82 16 182 172 8 77 174 173 6 111 
42 8 74 115 140 129 81 166 168 64 
43 11 65 13 106 53 18 155 158 171 67 114 116 
44 11 94 76 6 56 39 20 173 41 24 48 8 
45 11 36 68 37 87 59 13 106 65 43 116 30 
46 11 180 178 83 71 147 165 125 111 162 33 101 
47 11 89 177 49 14 157 139 121 179 113 117 143 
48 11 15 90 24 56 22 163 19 76 93 39 94 
49 10 177 14 157 179 117 47 143 146 89 118 
50 11 78 169 122 5 38 145 168 69 96 81 7 
51 11 162 4 32 154 166 71 104 46 147 180 173 
52 10 120 149 28 126 95 98 136 26 137 66 
53 11 65 43 18 30 13 106 67 59 155 158 87 
54 11 62 11 75 86 131 9 72 161 167 153 113 
55 11 30 104 59 87 32 117 4 53 65 36 14 
56 11 24 39 76 48 19 15 94 27 44 90 22 
57 11 85 60 141 175 144 124 159 17 142 123 181 
58 11 79 10 93 163 73 37 90 107 12 27 22 
59 11 87 36 30 45 65 68 55 43 53 13 106 
60 11 57 85 141 175 144 124 159 181 17 142 123 
61 11 80 156 63 2 134 31 115 35 69 23 7 
62 11 54 11 75 86 9 131 72 161 167 113 153 
63 11 156 134 31 80 61 35 115 2 170 64 181 
64 11 129 170 133 33 135 74 150 125 166 115 35 
65 11 43 53 13 106 30 18 59 155 87 36 158 
66 11 84 26 28 52 80 120 61 97 149 156 23 
67 11 18 91 158 40 43 114 53 148 155 171 13 
68 11 45 36 37 59 87 13 106 116 155 65 43 
69 11 2 168 81 7 23 169 115 61 80 156 42 
70 9 137 136 127 95 164 98 3 120 126 
71 11 147 180 46 111 162 83 178 173 165 174 125 
72 11 86 161 75 34 148 62 54 139 11 67 91 
73 11 10 27 58 19 24 93 163 39 79 15 56 
74 11 129 42 166 64 115 170 33 133 125 140 135 
75 11 62 54 11 86 72 161 9 34 113 131 139 
76 11 94 56 44 39 6 48 24 15 19 173 90 
77 11 16 82 141 41 182 57 20 172 85 60 8 
78 11 50 38 96 169 122 5 7 29 23 69 145 
79 10 58 93 107 12 37 163 10 160 68 45 
80 11 156 61 63 134 31 2 35 115 66 23 69 
81 8 168 69 169 140 42 5 145 2 
82 11 182 41 16 172 20 8 174 77 141 123 111 
83 11 178 165 180 46 101 123 128 111 147 125 142 
84 11 97 66 134 31 80 156 63 61 35 181 52 
85 11 57 60 141 175 144 17 159 124 142 123 181 
86 11 72 75 62 54 161 148 11 34 25 139 9 
87 11 59 36 45 30 68 55 65 43 13 53 106 
88 11 3 29 96 70 137 127 136 164 108 95 26 
89 11 47 121 139 113 177 109 14 49 157 161 152 
90 11 22 163 15 93 48 37 45 24 36 68 87 
91 11 40 21 67 148 151 114 18 158 119 92 171 
92 7 99 171 114 158 116 155 40 
93 11 163 90 22 37 79 58 15 10 45 48 68 
94 11 76 44 6 56 48 173 39 15 24 51 20 
95 9 136 137 98 126 149 120 70 127 28 
96 11 29 88 78 3 38 50 7 23 70 26 136 
97 11 84 181 31 134 124 66 35 63 144 80 156 
98 9 126 95 149 137 136 120 127 102 52 
99 8 171 116 92 114 155 158 106 13 
100 10 153 138 103 167 105 176 132 130 131 9 
101 11 128 142 165 17 135 178 83 125 133 33 123 
102 9 110 108 164 127 98 137 126 95 70 
103 10 105 176 100 132 153 138 167 130 9 131 
104 9 32 55 4 117 154 30 14 49 177 
105 10 176 103 132 100 153 138 130 167 122 38 
106 10 13 155 43 116 65 158 171 99 114 18 
107 7 12 160 116 92 99 79 171 
108 9 164 110 102 127 137 70 98 95 126 
109 11 121 152 112 113 145 118 89 47 157 5 9 
110 9 102 108 164 127 98 137 126 95 70 
111 11 147 71 174 180 83 8 46 173 178 123 165 
112 11 109 152 121 145 130 113 122 5 9 118 89 
113 11 121 89 9 109 112 161 47 139 152 34 75 
114 8 158 171 92 99 155 116 40 106 
115 11 42 74 129 64 2 63 156 61 170 69 168 
116 8 99 171 155 92 114 158 106 13 
117 11 14 49 177 47 55 104 157 179 30 143 139 
118 8 143 157 146 179 152 145 109 49 
119 8 151 21 25 40 91 148 92 114 
120 10 149 52 28 95 136 126 98 137 26 70 
121 11 109 113 112 89 152 47 9 118 157 145 139 
122 11 5 50 112 130 145 169 38 132 152 78 109 
123 11 165 142 83 174 101 178 17 128 111 180 46 
124 11 181 144 159 175 35 150 17 31 134 135 142 
125 11 33 133 135 178 128 101 165 46 83 180 64 
126 9 98 95 149 120 136 137 52 127 102 
127 9 164 137 108 70 102 95 110 98 136 
128 11 101 142 165 135 17 125 133 178 33 83 150 
129 11 64 74 170 166 33 133 125 135 150 115 42 
130 10 167 153 103 132 9 112 105 100 122 176 
131 10 138 11 54 153 100 62 167 75 103 9 
132 10 105 176 103 130 100 153 167 138 122 38 
133 11 135 33 150 125 170 128 101 64 129 142 165 
134 11 31 63 35 156 80 61 181 170 124 84 150 
135 11 133 150 33 128 125 101 170 64 142 17 165 
136 10 95 137 70 120 149 98 28 126 127 52 
137 9 70 95 136 127 98 126 164 149 120 
138 10 100 153 103 167 131 176 105 132 130 11 
139 11 34 89 161 47 14 113 177 49 117 121 72 
140 5 146 42 154 81 143 
141 11 57 85 60 175 182 77 82 172 16 17 123 
142 11 17 101 128 165 123 83 178 135 175 159 133 
143 6 179 146 157 118 49 177 
144 11 159 124 181 175 17 150 142 35 135 128 101 
145 9 5 152 118 112 109 169 122 121 81 
146 5 143 179 157 118 49 
147 11 71 111 180 46 83 173 178 162 165 174 8 
148 11 91 72 67 34 25 40 86 21 18 161 119 
149 9 120 52 126 95 98 136 28 137 70 
150 11 135 133 170 159 128 33 101 64 17 125 35 
151 8 21 119 40 91 92 114 158 171 
152 10 109 145 112 118 121 5 157 143 47 89 
153 10 167 100 138 103 130 105 176 132 9 131 
154 6 32 140 104 146 143 179 
155 9 171 158 106 99 13 116 114 92 43 
156 11 80 61 63 134 31 2 35 115 170 69 23 
157 8 179 143 49 146 177 118 47 14 
158 9 114 171 155 99 92 116 106 13 18 
159 11 144 124 175 17 181 150 142 135 128 101 133 
160 7 12 107 92 99 116 171 114 
161 11 34 139 72 75 113 89 86 62 9 54 47 
162 11 71 46 147 180 111 178 166 173 83 51 125 
163 11 93 90 22 15 37 48 45 10 79 58 24 
164 9 108 127 102 110 137 70 95 98 136 
165 11 83 178 101 128 123 142 180 46 125 17 33 
166 11 129 74 64 33 125 162 42 133 170 46 135 
167 10 153 100 130 9 103 138 105 11 132 176 
168 9 81 69 169 2 5 42 115 140 145 
169 10 5 50 168 145 81 69 122 78 152 7 
170 11 64 150 133 129 135 33 35 125 128 74 101 
171 8 99 114 158 92 155 116 106 13 
172 11 182 8 174 111 123 82 173 147 83 165 180 
173 11 111 147 8 71 6 174 180 162 46 172 83 
174 11 172 8 111 123 83 147 182 165 178 180 173 
175 11 17 144 159 142 124 85 128 101 123 181 60 
176 10 105 103 132 100 138 153 130 167 38 122 
177 11 49 14 47 157 117 179 89 143 146 139 118 
178 11 83 165 180 46 101 125 128 33 123 142 147 
179 7 143 157 146 49 118 177 47 
180 11 46 178 83 147 71 165 111 125 101 162 123 
181 11 124 144 159 35 31 150 134 175 170 17 135 
182 11 172 82 174 8 123 111 41 20 16 173 83 
DEPOT_SECTION
   1
   -1
EOF
