NAME :  X-n129-kX-w25-c7.cctp
COMMENT : 	Adapted by Maziero, Usberti and Cavellucci from the Uchoa, Pecin, Pessoa, Poggi, Subramanian, and Vidal (2013)
TYPE :  CCTP
DIMENSION :    103
EDGE_WEIGHT_TYPE : 	EUC_2D	
CAPACITY : 	39
VERTICES_WITHIN_COVERAGE :  7
VERTICES_WITH_DEMAND : 	25
NODE_COORD_SECTION
1 0 0
2 51 570
3 691 985
4 66 119
5 502 415
6 434 289
7 427 584
8 342 576
9 790 87
10 312 475
11 908 531
12 840 566
13 863 232
14 284 833
15 515 175
16 9 243
17 768 209
18 777 582
19 84 508
20 380 523
21 255 267
22 544 961
23 408 661
24 57 588
25 278 44
26 168 722
27 223 385
28 495 70
29 560 632
30 235 655
31 765 267
32 459 976
33 585 962
34 154 796
35 931 52
36 377 19
37 178 633
38 871 677
39 208 651
40 35 437
41 503 680
42 462 870
43 322 123
44 677 829
45 223 251
46 218 351
47 375 220
48 367 567
49 986 869
50 236 769
51 202 998
52 761 712
53 75 520
54 14 737
55 895 632
56 224 725
57 328 387
58 36 300
59 817 531
60 31 283
61 209 574
62 490 395
63 410 207
64 439 179
65 51 269
66 886 558
67 151 752
68 208 186
69 897 547
70 469 396
71 607 437
72 202 433
73 180 703
74 873 595
75 103 184
76 466 416
77 8 357
78 51 200
79 899 471
80 67 236
81 482 432
82 991 388
83 933 309
84 497 404
85 776 626
86 55 288
87 877 515
88 821 533
89 456 317
90 733 533
91 499 470
92 206 385
93 822 285
94 934 461
95 533 242
96 442 24
97 303 249
98 467 432
99 385 239
100 272 512
101 567 124
102 379 165
103 610 408
DEMAND_SECTION
2 9
3 8
4 8
5 4
6 4
7 3
8 6
9 10
10 8
11 8
12 3
13 2
14 8
15 4
16 9
17 4
18 6
19 5
20 1
21 2
22 2
23 4
24 2
25 3
26 6
COVERAGE_SECTION
2 7 24 53 19 40 37 61 54 
3 6 33 22 44 32 42 52 
4 7 75 78 80 16 65 68 60 
5 7 84 62 81 76 70 98 91 
6 7 89 99 63 47 64 95 70 
7 7 48 20 23 8 41 91 29 
8 7 48 20 7 100 10 23 30 
9 2 17 35 
10 7 100 20 57 8 48 72 27 
11 7 69 66 87 79 74 94 12 
12 7 88 59 74 66 69 87 18 
13 4 93 17 31 83 
14 7 50 56 34 67 26 73 42 
15 6 95 101 64 28 63 102 
16 6 60 65 80 78 58 86 
17 4 31 93 13 9 
18 7 85 12 59 88 90 74 66 
19 7 53 2 24 40 72 61 37 
20 7 48 8 7 10 100 98 91 
21 7 45 97 46 68 27 92 47 
22 7 33 32 42 3 44 41 14 
23 7 7 41 48 8 20 29 30 
24 7 2 53 19 37 40 61 54 
25 7 43 36 68 102 96 47 97 
26 7 73 67 56 34 39 50 37 
27 6 92 46 72 57 21 10 
28 6 96 101 15 64 36 102 
29 7 41 7 23 91 90 71 48 
30 7 39 37 56 73 61 26 50 
31 3 17 93 13 
32 7 22 42 33 14 3 51 44 
33 7 22 3 32 42 44 41 52 
34 7 67 26 50 73 56 14 54 
35 5 9 13 17 83 93 
36 7 96 25 43 28 102 64 63 
37 7 39 30 61 73 26 56 67 
38 7 55 74 85 12 52 66 69 
39 7 30 37 73 56 61 26 67 
40 6 77 19 53 2 58 86 
41 7 29 23 7 48 8 42 20 
42 7 32 22 33 14 41 23 44 
43 7 102 25 47 36 63 97 64 
44 7 52 3 33 22 42 85 29 
45 6 21 68 97 46 27 92 
46 6 27 92 72 21 45 57 
47 7 99 63 102 64 97 6 43 
48 7 8 20 7 23 10 100 61 
49 6 38 55 52 74 44 3 
50 7 56 14 26 34 67 73 30 
51 7 14 34 50 67 32 56 26 
52 7 85 38 18 44 55 74 12 
53 7 19 2 24 40 61 37 72 
54 7 67 34 24 26 73 2 37 
55 7 74 38 66 69 12 11 87 
56 7 50 73 26 30 39 67 34 
57 7 10 27 46 92 72 100 21 
58 6 60 86 65 16 77 80 
59 7 88 12 87 18 66 69 90 
60 6 58 65 86 16 80 77 
61 7 37 39 30 100 73 8 19 
62 7 84 70 5 76 81 98 91 
63 7 47 64 99 102 6 15 97 
64 7 63 102 15 47 99 6 95 
65 6 86 60 58 80 16 78 
66 7 69 11 74 87 12 88 59 
67 7 26 34 73 56 50 39 37 
68 6 45 21 75 97 43 80 
69 7 66 11 87 74 12 79 88 
70 7 76 62 84 98 5 81 89 
71 4 103 5 91 84 
72 7 92 27 46 100 10 57 19 
73 7 26 56 67 39 37 30 50 
74 7 66 55 12 69 11 87 88 
75 7 78 80 4 65 68 16 86 
76 7 98 70 81 62 84 5 91 
77 6 58 60 86 40 65 16 
78 7 80 75 16 65 4 60 86 
79 6 94 87 11 69 66 88 
80 7 65 78 86 16 60 75 58 
81 7 98 76 5 84 62 70 91 
82 5 94 83 79 11 87 
83 4 82 13 93 94 
84 7 62 5 70 81 76 98 91 
85 7 18 52 12 74 90 59 88 
86 5 65 58 60 80 16 
87 7 11 69 66 79 88 59 12 
88 7 59 12 87 18 66 69 74 
89 7 6 70 62 84 76 99 95 
90 5 18 59 88 85 12 
91 7 81 98 5 76 84 62 70 
92 6 27 46 72 57 21 45 
93 3 31 13 17 
94 6 79 11 87 82 69 66 
95 3 15 89 6 
96 7 36 28 102 64 43 101 25 
97 7 21 47 45 99 102 68 63 
98 7 81 76 70 5 84 62 91 
99 7 47 63 6 102 64 97 89 
100 7 10 61 8 72 20 48 27 
101 2 15 28 
102 7 63 47 64 43 99 97 6 
103 3 71 5 84 
DEPOT_SECTION
   1
   -1
EOF
