NAME :  X-n139-kX-w27-c7.cctp
COMMENT : 	Adapted by Maziero, Usberti and Cavellucci from the Uchoa, Pecin, Pessoa, Poggi, Subramanian, and Vidal (2013)
TYPE :  CCTP
DIMENSION :    109
EDGE_WEIGHT_TYPE : 	EUC_2D	
CAPACITY : 	106
VERTICES_WITHIN_COVERAGE :  7
VERTICES_WITH_DEMAND : 	27
NODE_COORD_SECTION
1 500 500
2 645 7
3 720 867
4 513 499
5 208 766
6 976 884
7 991 864
8 596 532
9 765 632
10 270 818
11 223 552
12 871 193
13 825 816
14 128 518
15 802 281
16 786 635
17 435 675
18 976 204
19 563 43
20 870 774
21 348 458
22 566 113
23 295 969
24 229 790
25 515 805
26 482 998
27 241 830
28 47 633
29 635 626
30 597 538
31 86 516
32 444 697
33 763 281
34 12 649
35 187 417
36 630 975
37 934 263
38 88 855
39 768 582
40 916 277
41 771 700
42 308 482
43 397 30
44 934 7
45 869 723
46 788 896
47 100 591
48 746 587
49 584 721
50 859 990
51 403 428
52 493 63
53 496 458
54 728 641
55 174 440
56 986 511
57 887 589
58 931 743
59 234 663
60 832 704
61 857 776
62 828 438
63 744 105
64 122 949
65 270 596
66 790 753
67 323 417
68 152 585
69 391 452
70 87 413
71 638 532
72 507 797
73 720 264
74 326 566
75 847 833
76 576 429
77 141 976
78 564 716
79 946 889
80 100 526
81 503 496
82 684 811
83 800 409
84 794 190
85 784 339
86 603 208
87 177 924
88 300 515
89 275 468
90 343 995
91 889 853
92 455 846
93 20 645
94 760 141
95 763 785
96 494 727
97 889 11
98 254 378
99 381 438
100 70 637
101 361 611
102 529 957
103 570 727
104 813 135
105 820 999
106 5 787
107 881 333
108 767 284
109 427 864
DEMAND_SECTION
2 10
3 10
4 5
5 9
6 8
7 5
8 5
9 8
10 6
11 8
12 10
13 9
14 9
15 8
16 9
17 5
18 10
19 7
20 6
21 9
22 10
23 6
24 10
25 5
26 8
27 6
28 8
COVERAGE_SECTION
2 5 19 22 63 52 94 
3 7 82 46 95 13 75 66 36 
4 7 81 53 8 30 76 71 51 
5 7 24 27 10 59 38 87 65 
6 7 7 79 91 75 58 20 50 
7 7 6 79 91 58 75 20 61 
8 7 30 71 4 81 29 76 53 
9 7 16 54 48 39 41 60 66 
10 7 27 24 5 87 23 59 109 
11 7 65 68 88 89 14 74 42 
12 7 84 104 37 40 18 15 94 
13 7 75 61 20 95 66 91 46 
14 7 80 31 68 47 55 11 70 
15 7 108 33 85 73 84 107 12 
16 7 9 39 54 48 41 60 57 
17 7 32 96 101 78 72 103 25 
18 7 37 40 12 107 104 84 15 
19 6 22 52 2 43 86 63 
20 7 61 45 13 75 58 60 91 
21 7 99 69 42 67 51 89 88 
22 4 19 52 86 2 
23 7 90 87 27 10 77 109 64 
24 7 5 27 10 59 87 38 23 
25 7 72 92 96 103 78 109 49 
26 7 102 90 109 36 92 23 25 
27 7 10 24 5 87 23 38 59 
28 7 100 93 34 47 68 80 31 
29 6 54 71 30 8 49 78 
30 7 8 71 4 29 81 76 53 
31 7 80 14 47 68 70 55 100 
32 7 17 96 72 101 78 25 103 
33 5 108 15 73 85 84 
34 7 93 28 100 47 106 80 31 
35 6 55 98 70 89 14 67 
36 7 102 3 26 82 46 105 25 
37 7 40 18 107 12 15 84 85 
38 7 64 106 87 77 5 24 27 
39 7 48 9 16 54 41 57 60 
40 7 37 107 18 12 15 85 108 
41 7 66 60 16 9 54 95 45 
42 7 88 89 21 67 99 74 69 
43 2 52 19 
44 7 97 104 12 18 63 94 84 
45 7 60 20 61 58 66 41 13 
46 7 3 75 13 105 91 95 50 
47 7 68 100 80 28 31 14 93 
48 7 39 9 54 16 41 29 71 
49 6 103 78 96 29 72 25 
50 7 105 46 79 91 75 6 13 
51 7 99 69 21 67 53 42 81 
52 4 19 22 43 2 
53 7 81 4 76 51 69 99 8 
54 7 9 48 16 39 41 29 60 
55 6 35 14 70 98 89 80 
56 6 57 62 107 83 39 16 
57 6 16 39 56 60 9 45 
58 7 45 20 61 60 91 75 13 
59 7 65 5 11 68 24 74 101 
60 7 45 41 66 61 20 16 9 
61 7 20 13 45 75 66 60 58 
62 5 83 85 107 39 15 
63 5 94 104 84 2 12 
64 7 77 87 38 27 23 24 10 
65 7 11 74 59 88 101 68 42 
66 7 95 41 60 61 13 20 45 
67 7 21 99 42 89 69 98 51 
68 7 47 14 11 80 31 100 59 
69 7 99 51 21 67 42 53 88 
70 5 55 35 31 14 80 
71 7 30 8 29 76 48 4 39 
72 7 25 92 96 103 78 109 49 
73 5 33 108 15 85 84 
74 7 88 101 65 42 11 21 89 
75 7 13 91 61 20 46 95 66 
76 5 53 4 81 8 30 
77 7 64 87 38 23 27 90 10 
78 6 103 49 96 72 25 29 
79 7 6 7 91 75 50 20 13 
80 7 31 14 47 68 55 70 100 
81 7 4 53 76 8 30 69 51 
82 6 3 95 66 46 49 13 
83 5 62 85 107 15 108 
84 6 104 94 12 15 33 108 
85 7 108 15 33 83 107 73 62 
86 1 22 
87 7 64 77 38 27 23 10 24 
88 7 42 89 74 21 11 65 67 
89 7 42 88 67 21 98 11 35 
90 7 23 26 109 87 92 102 10 
91 7 75 79 13 20 61 6 7 
92 7 109 72 25 96 102 32 26 
93 7 34 28 100 47 80 106 31 
94 5 63 104 84 12 73 
95 7 66 13 82 41 3 61 75 
96 7 32 72 78 103 17 25 49 
97 6 44 104 63 12 94 84 
98 6 35 67 89 55 42 21 
99 7 69 51 21 67 42 89 88 
100 7 28 93 47 34 68 80 31 
101 7 74 65 17 88 32 59 42 
102 7 26 36 92 109 25 72 90 
103 6 78 49 96 72 25 29 
104 5 94 84 63 12 97 
105 7 50 46 91 3 79 75 13 
106 7 38 34 93 28 100 64 5 
107 7 40 37 15 85 83 62 108 
108 5 33 15 73 85 84 
109 7 92 72 25 102 26 96 90 
DEPOT_SECTION
   1
   -1
EOF
