NAME :  X-n106-kX-w10-c9.cctp
COMMENT : 	Adapted by Maziero, Usberti and Cavellucci from the Uchoa, Pecin, Pessoa, Poggi, Subramanian, and Vidal (2013)
TYPE :  CCTP
DIMENSION :    76
EDGE_WEIGHT_TYPE : 	EUC_2D	
CAPACITY : 	600
VERTICES_WITHIN_COVERAGE :  9
VERTICES_WITH_DEMAND : 	10
NODE_COORD_SECTION
1 0 0
2 615 190
3 890 200
4 983 684
5 959 743
6 569 146
7 969 841
8 607 256
9 936 274
10 650 221
11 943 547
12 632 209
13 618 147
14 925 627
15 925 192
16 903 460
17 666 368
18 906 622
19 411 136
20 989 691
21 601 221
22 429 500
23 522 218
24 674 183
25 951 705
26 898 154
27 953 661
28 425 212
29 943 290
30 927 705
31 865 817
32 872 161
33 966 478
34 974 694
35 603 140
36 598 122
37 715 230
38 890 231
39 908 849
40 490 185
41 849 183
42 998 675
43 861 276
44 869 766
45 495 244
46 976 143
47 921 783
48 688 211
49 857 199
50 990 213
51 973 806
52 616 250
53 867 199
54 544 327
55 711 277
56 893 778
57 992 868
58 869 204
59 646 260
60 849 185
61 918 400
62 923 339
63 931 686
64 582 212
65 1000 309
66 572 192
67 676 183
68 989 59
69 582 39
70 686 188
71 995 720
72 603 126
73 657 185
74 574 195
75 614 195
76 961 162
DEMAND_SECTION
2 81
3 64
4 51
5 61
6 71
7 83
8 92
9 66
10 92
11 78
COVERAGE_SECTION
2 8 75 12 21 64 74 73 13 66 
3 9 58 53 38 49 15 32 41 60 26 
4 8 20 34 42 25 27 71 63 30 
5 9 25 71 30 34 47 20 4 63 51 
6 8 35 36 72 66 13 74 2 64 
7 9 51 57 39 47 5 56 31 71 44 
8 9 52 21 59 64 12 10 75 2 74 
9 9 29 38 62 65 43 50 15 3 58 
10 9 12 73 48 59 75 24 52 67 2 
11 7 33 14 18 16 27 42 63 
12 7 10 75 2 21 73 52 24 
13 4 35 72 36 2 
14 6 18 27 63 30 4 11 
15 9 3 26 76 38 58 53 32 49 50 
16 8 61 33 11 62 18 14 29 65 
17 6 55 59 8 52 54 37 
18 6 14 27 63 11 30 25 
19 9 28 40 45 23 6 66 74 64 36 
20 8 4 34 42 71 25 27 63 5 
21 9 64 75 12 52 2 8 74 66 10 
22 8 54 45 17 28 23 8 52 40 
23 9 45 40 66 74 64 21 6 8 75 
24 6 67 70 73 48 10 12 
25 8 30 34 63 4 5 20 27 71 
26 8 32 3 15 53 41 58 60 49 
27 8 63 4 34 14 25 20 42 30 
28 9 40 19 45 23 66 74 64 6 54 
29 9 9 62 65 38 43 50 15 3 58 
30 6 63 25 34 5 27 4 
31 9 56 44 39 47 7 51 5 30 57 
32 7 26 41 60 53 49 3 58 
33 8 16 11 61 62 14 18 65 27 
34 9 4 20 25 42 71 27 63 30 5 
35 4 72 13 36 6 
36 4 72 35 13 6 
37 7 48 55 70 67 24 10 73 
38 9 3 58 53 49 15 43 60 9 41 
39 9 31 7 47 56 51 57 44 5 30 
40 9 23 45 28 66 74 6 19 64 21 
41 6 60 49 53 58 32 3 
42 8 4 20 34 71 27 25 63 30 
43 8 38 58 9 49 53 3 29 62 
44 8 56 31 47 30 39 5 63 25 
45 9 23 40 28 64 66 74 54 21 8 
46 9 76 15 50 26 68 3 32 38 53 
47 9 56 5 44 51 31 39 7 30 25 
48 7 70 67 24 37 10 73 12 
49 7 53 58 60 41 3 32 38 
50 9 76 15 46 9 29 65 3 38 26 
51 9 7 47 5 57 39 56 71 25 31 
52 9 8 59 21 12 10 64 75 2 74 
53 7 58 49 3 60 41 32 38 
54 9 8 45 52 23 21 64 59 17 74 
55 5 37 59 48 10 70 
56 9 44 47 31 39 5 30 51 25 7 
57 9 7 51 39 47 5 56 31 71 44 
58 7 53 49 3 60 41 38 32 
59 9 52 8 10 12 21 48 55 75 37 
60 6 41 49 53 58 32 3 
61 8 62 16 33 29 65 9 43 11 
62 8 29 61 9 65 43 38 16 3 
63 6 30 25 27 34 4 20 
64 9 74 21 66 75 2 12 8 52 23 
65 9 29 9 62 50 61 38 15 43 76 
66 9 74 64 21 75 2 6 23 35 12 
67 5 24 70 73 48 10 
68 7 46 76 26 15 50 32 3 
69 5 36 72 35 6 13 
70 6 67 24 48 73 10 37 
71 9 20 34 4 5 42 25 30 27 63 
72 4 36 35 13 6 
73 6 24 67 70 12 10 48 
74 9 66 64 21 75 2 6 23 12 35 
75 8 2 12 21 64 74 66 10 73 
76 9 46 15 50 26 3 32 38 53 58 
DEPOT_SECTION
   1
   -1
EOF
