NAME :  X-n167-kX-w33-c7.cctp
COMMENT : 	Adapted by Maziero, Usberti and Cavellucci from the Uchoa, Pecin, Pessoa, Poggi, Subramanian, and Vidal (2013)
TYPE :  CCTP
DIMENSION :    142
EDGE_WEIGHT_TYPE : 	EUC_2D	
CAPACITY : 	133
VERTICES_WITHIN_COVERAGE :  7
VERTICES_WITH_DEMAND : 	33
NODE_COORD_SECTION
1 0 0
2 832 885
3 777 632
4 406 257
5 620 467
6 58 70
7 116 423
8 104 445
9 714 722
10 188 503
11 856 594
12 932 448
13 749 982
14 818 889
15 377 493
16 337 419
17 772 605
18 373 448
19 519 112
20 849 274
21 533 839
22 610 417
23 69 583
24 573 195
25 988 324
26 110 550
27 271 676
28 694 130
29 791 590
30 785 614
31 321 305
32 974 292
33 804 556
34 372 893
35 252 660
36 588 34
37 939 685
38 948 479
39 912 227
40 380 807
41 309 141
42 558 759
43 241 225
44 269 351
45 251 512
46 608 874
47 853 269
48 897 572
49 316 461
50 825 529
51 474 152
52 510 453
53 778 928
54 804 492
55 630 294
56 254 539
57 167 28
58 508 759
59 64 165
60 249 525
61 49 605
62 990 375
63 539 272
64 833 561
65 84 571
66 378 847
67 713 485
68 489 204
69 815 905
70 307 774
71 286 204
72 517 61
73 864 397
74 35 597
75 918 632
76 395 570
77 87 97
78 893 805
79 82 392
80 471 899
81 567 895
82 349 360
83 138 560
84 459 962
85 795 461
86 398 467
87 92 22
88 853 188
89 643 80
90 801 227
91 127 74
92 727 975
93 552 48
94 311 959
95 647 876
96 742 168
97 755 589
98 741 8
99 975 954
100 820 502
101 552 300
102 802 744
103 573 793
104 159 669
105 248 369
106 868 476
107 275 194
108 930 933
109 233 587
110 198 35
111 184 822
112 312 573
113 694 813
114 446 264
115 586 483
116 648 274
117 967 362
118 194 330
119 846 717
120 32 487
121 358 728
122 608 182
123 250 367
124 989 392
125 820 307
126 473 274
127 408 84
128 762 800
129 917 560
130 586 830
131 606 445
132 627 249
133 427 571
134 168 479
135 679 371
136 354 415
137 638 444
138 535 918
139 243 535
140 796 796
141 272 699
142 421 935
DEMAND_SECTION
2 6
3 9
4 7
5 5
6 9
7 5
8 9
9 7
10 10
11 8
12 6
13 5
14 9
15 8
16 9
17 10
18 5
19 7
20 8
21 5
22 9
23 9
24 7
25 5
26 7
27 8
28 5
29 10
30 9
31 9
32 9
33 9
34 7
COVERAGE_SECTION
2 7 14 69 53 140 78 108 128 
3 7 30 17 29 97 33 11 64 
4 7 114 126 31 68 82 51 71 
5 6 131 137 115 22 67 52 
6 6 77 87 91 59 57 110 
7 7 8 79 134 120 10 118 26 
8 7 7 79 134 120 10 26 83 
9 7 102 128 113 3 140 30 17 
10 7 134 45 139 60 56 83 26 
11 7 64 48 33 29 129 50 75 
12 7 38 106 124 73 62 117 129 
13 6 92 53 69 14 2 95 
14 7 2 69 53 140 128 78 13 
15 7 86 18 49 76 136 16 133 
16 7 136 18 49 82 86 15 44 
17 7 30 97 29 3 33 64 11 
18 7 86 136 15 16 49 82 76 
19 7 72 51 93 68 24 36 122 
20 7 47 125 90 39 88 73 32 
21 7 130 103 81 138 46 42 58 
22 7 131 137 5 115 135 52 67 
23 7 65 61 74 26 83 120 104 
24 7 122 132 63 68 19 101 51 
25 7 32 117 62 124 39 12 73 
26 7 83 65 23 61 74 10 134 
27 7 141 35 109 121 70 112 104 
28 7 96 89 122 98 24 132 36 
29 7 17 30 33 97 3 64 11 
30 7 17 3 29 97 33 64 11 
31 7 82 44 123 105 4 71 43 
32 7 25 117 62 39 124 47 20 
33 7 64 50 29 100 17 97 30 
34 7 66 142 40 94 80 84 70 
35 7 27 141 109 104 112 56 139 
36 7 93 89 72 19 28 122 98 
37 7 75 119 48 11 129 78 102 
38 7 12 106 129 124 48 62 73 
39 5 88 47 20 32 90 
40 7 66 70 121 34 80 142 58 
41 5 107 71 43 127 4 
42 6 103 58 130 21 46 81 
43 6 107 71 41 31 118 44 
44 7 123 105 31 118 82 16 136 
45 7 60 139 56 10 109 49 112 
46 6 95 81 130 21 138 103 
47 7 20 125 90 39 88 32 73 
48 7 129 11 75 64 50 33 106 
49 7 16 18 136 15 86 45 60 
50 7 100 64 33 54 106 29 11 
51 7 68 19 127 72 24 114 126 
52 5 115 131 22 5 86 
53 7 69 14 13 2 92 128 140 
54 7 100 85 50 33 106 64 67 
55 7 116 132 101 135 63 24 122 
56 7 139 60 45 109 112 10 49 
57 5 110 91 87 77 6 
58 6 42 103 21 130 40 80 
59 6 77 6 91 87 57 43 
60 7 139 45 56 109 10 112 49 
61 7 74 23 65 26 83 120 104 
62 7 124 117 25 32 12 38 73 
63 7 101 126 24 68 132 114 55 
64 7 33 50 11 29 100 48 30 
65 7 23 26 61 74 83 120 104 
66 7 40 34 142 70 80 121 94 
67 7 85 137 54 5 100 97 131 
68 7 51 126 114 24 63 19 4 
69 7 14 2 53 13 140 92 108 
70 7 121 40 141 66 27 35 111 
71 5 107 43 41 31 4 
72 7 93 19 36 51 127 89 24 
73 7 106 12 85 125 117 54 100 
74 7 61 23 65 26 83 120 104 
75 7 37 48 129 11 64 119 29 
76 5 133 15 112 86 18 
77 6 6 91 59 87 57 110 
78 7 140 119 2 102 14 69 37 
79 7 7 8 120 134 118 10 26 
80 7 142 84 138 21 81 34 66 
81 6 138 46 21 130 95 80 
82 7 136 16 31 44 18 123 105 
83 7 26 65 23 10 134 109 61 
84 7 142 80 138 34 81 66 21 
85 7 54 100 50 106 67 73 33 
86 7 18 15 136 16 49 76 133 
87 6 6 91 57 77 110 59 
88 5 90 39 47 20 96 
89 7 28 36 93 122 98 72 19 
90 7 88 20 47 125 96 39 28 
91 6 77 57 87 6 110 59 
92 6 13 53 69 14 95 2 
93 7 72 36 19 89 51 122 24 
94 7 34 142 66 84 40 80 70 
95 6 46 130 113 81 103 21 
96 7 28 90 88 89 122 132 116 
97 7 17 29 30 3 33 64 50 
98 4 89 28 36 96 
99 7 108 2 69 14 78 53 13 
100 7 54 50 85 106 33 64 29 
101 7 63 55 126 132 116 24 114 
102 7 119 140 128 9 78 3 113 
103 7 42 130 21 58 46 81 95 
104 6 35 109 83 27 141 65 
105 7 123 44 118 31 82 16 49 
106 7 100 54 50 12 85 73 38 
107 5 71 43 41 31 4 
108 7 99 2 69 14 78 53 13 
109 7 56 139 60 35 45 112 10 
110 5 57 91 87 77 6 
111 4 70 141 104 27 
112 7 56 60 139 109 76 45 15 
113 6 128 95 9 140 46 130 
114 7 126 4 68 63 101 51 31 
115 5 5 131 137 22 52 
116 7 55 132 101 122 135 24 63 
117 7 62 124 25 32 12 73 38 
118 7 105 123 44 43 7 79 31 
119 7 102 140 37 78 3 75 128 
120 7 8 65 26 23 7 79 74 
121 6 70 40 141 27 66 35 
122 7 24 132 28 116 89 19 63 
123 7 105 44 118 31 82 16 49 
124 7 62 117 25 12 38 32 73 
125 7 20 47 90 73 39 88 32 
126 7 114 63 4 68 101 51 24 
127 6 51 72 19 41 68 93 
128 7 140 102 113 9 14 2 69 
129 7 48 11 75 64 38 50 106 
130 6 103 46 21 81 42 95 
131 6 5 22 137 115 52 135 
132 7 116 55 122 24 63 101 135 
133 4 76 15 86 112 
134 7 10 8 7 83 45 26 60 
135 7 22 137 55 116 131 5 67 
136 7 16 18 82 49 86 15 44 
137 6 5 131 22 115 135 67 
138 7 81 80 21 46 84 130 142 
139 7 56 60 45 109 10 112 134 
140 7 128 102 119 2 14 78 113 
141 7 27 35 70 121 104 109 112 
142 7 84 80 34 66 94 138 40 
DEPOT_SECTION
   1
   -1
EOF
