NAME :  X-n115-kX-w11-c7.cctp
COMMENT : 	Adapted by Maziero, Usberti and Cavellucci from the Uchoa, Pecin, Pessoa, Poggi, Subramanian, and Vidal (2013)
TYPE :  CCTP
DIMENSION :    72
EDGE_WEIGHT_TYPE : 	EUC_2D	
CAPACITY : 	169
VERTICES_WITHIN_COVERAGE :  7
VERTICES_WITH_DEMAND : 	11
NODE_COORD_SECTION
1 500 500
2 865 693
3 633 220
4 173 361
5 89 714
6 350 102
7 301 24
8 834 663
9 841 997
10 394 790
11 276 488
12 779 312
13 940 964
14 128 439
15 401 22
16 69 887
17 633 46
18 713 182
19 540 169
20 298 725
21 512 889
22 756 352
23 405 407
24 850 365
25 691 383
26 926 631
27 998 736
28 921 854
29 532 257
30 238 513
31 976 912
32 99 355
33 294 39
34 520 109
35 409 682
36 296 843
37 717 390
38 152 711
39 257 539
40 270 31
41 823 409
42 770 627
43 786 186
44 973 847
45 985 975
46 910 568
47 181 186
48 814 694
49 702 927
50 385 696
51 48 323
52 813 293
53 729 923
54 719 883
55 167 14
56 98 159
57 911 734
58 590 230
59 122 698
60 154 418
61 217 599
62 766 21
63 831 607
64 70 494
65 220 740
66 19 855
67 818 409
68 254 282
69 331 57
70 118 404
71 893 182
72 435 1000
DEMAND_SECTION
2 86
3 98
4 89
5 91
6 74
7 87
8 65
9 62
10 60
11 99
12 96
COVERAGE_SECTION
2 7 8 48 57 26 63 42 46 
3 6 58 18 19 29 43 34 
4 6 60 70 32 14 68 51 
5 5 59 38 65 66 61 
6 7 69 33 7 15 40 34 47 
7 7 33 40 69 6 15 55 47 
8 7 48 2 63 42 26 57 46 
9 7 13 53 45 49 31 28 54 
10 4 50 35 36 20 
11 6 30 39 61 60 23 14 
12 7 52 22 24 37 67 41 25 
13 7 45 31 9 28 44 53 57 
14 5 60 70 64 32 4 
15 7 69 6 7 33 40 34 19 
16 5 66 5 38 59 65 
17 7 34 62 19 18 3 58 43 
18 7 43 3 58 12 52 17 62 
19 5 34 58 29 3 17 
20 6 65 50 10 36 35 38 
21 3 72 10 49 
22 7 12 37 25 52 67 41 24 
23 1 11 
24 5 41 67 52 12 22 
25 4 37 22 12 67 
26 7 46 2 8 63 57 27 48 
27 7 57 44 26 2 28 31 8 
28 7 44 31 13 57 45 27 9 
29 4 58 19 3 34 
30 5 39 11 61 60 14 
31 7 13 45 44 28 9 27 57 
32 6 70 51 4 60 14 64 
33 7 7 40 69 6 15 55 47 
34 7 19 17 58 15 29 3 6 
35 2 50 10 
36 6 10 20 65 50 38 35 
37 5 25 22 12 67 41 
38 5 59 5 65 61 20 
39 5 30 11 61 60 14 
40 7 33 7 69 55 6 15 47 
41 5 67 24 22 12 37 
42 3 63 8 48 
43 5 18 71 52 12 3 
44 7 28 31 27 13 45 57 2 
45 7 13 31 44 28 9 27 57 
46 3 26 63 8 
47 7 56 68 55 4 40 33 32 
48 6 8 2 42 63 57 26 
49 4 53 54 9 21 
50 3 35 20 10 
51 6 32 70 4 14 60 56 
52 6 12 24 22 43 41 67 
53 4 49 54 9 28 
54 3 53 49 9 
55 7 40 33 7 56 69 47 6 
56 7 47 55 51 32 68 40 4 
57 7 2 27 26 8 48 28 44 
58 5 3 29 19 18 34 
59 4 38 5 65 61 
60 6 14 70 4 32 64 30 
61 5 39 30 11 38 59 
62 5 17 43 18 71 3 
63 6 8 42 46 48 2 26 
64 5 14 70 60 32 4 
65 5 38 20 59 36 5 
66 5 16 5 59 38 65 
67 5 41 24 22 37 12 
68 4 4 47 60 32 
69 7 33 7 6 40 15 55 34 
70 6 14 60 32 4 64 51 
71 3 43 52 12 
72 3 21 36 10 
DEPOT_SECTION
   1
   -1
EOF
