NAME :  X-n1001-kX-w100-c9.cctp
COMMENT : 	Adapted by Maziero, Usberti and Cavellucci from the Uchoa, Pecin, Pessoa, Poggi, Subramanian, and Vidal (2013)
TYPE :  CCTP
DIMENSION :    620
EDGE_WEIGHT_TYPE : 	EUC_2D	
CAPACITY : 	131
VERTICES_WITHIN_COVERAGE :  9
VERTICES_WITH_DEMAND : 	100
NODE_COORD_SECTION
1 2 857
2 407 102
3 915 965
4 797 45
5 997 241
6 650 683
7 748 248
8 99 174
9 2 545
10 277 689
11 568 771
12 76 105
13 117 973
14 171 971
15 327 183
16 277 697
17 269 246
18 670 18
19 51 901
20 951 696
21 710 102
22 61 465
23 348 606
24 551 243
25 524 793
26 89 582
27 900 748
28 235 368
29 122 587
30 449 781
31 970 38
32 362 490
33 742 267
34 289 115
35 898 957
36 996 922
37 951 633
38 713 779
39 603 247
40 402 363
41 143 0
42 274 608
43 81 422
44 550 408
45 43 699
46 482 575
47 909 254
48 613 37
49 202 575
50 297 297
51 736 288
52 464 127
53 499 491
54 635 531
55 796 328
56 184 941
57 641 824
58 863 673
59 396 950
60 555 631
61 664 966
62 301 260
63 425 990
64 559 746
65 431 827
66 724 472
67 847 51
68 888 721
69 136 331
70 859 627
71 206 5
72 429 381
73 798 918
74 886 684
75 123 488
76 779 445
77 764 43
78 938 743
79 800 398
80 734 20
81 211 678
82 601 545
83 512 403
84 796 106
85 644 810
86 416 973
87 115 435
88 667 91
89 395 941
90 374 546
91 546 191
92 754 255
93 124 588
94 423 929
95 314 637
96 668 268
97 321 786
98 960 423
99 11 499
100 721 692
101 803 584
102 337 475
103 214 547
104 361 166
105 944 218
106 12 468
107 527 255
108 545 806
109 832 12
110 628 495
111 194 884
112 395 309
113 655 39
114 558 175
115 247 947
116 599 724
117 83 489
118 754 703
119 889 230
120 248 220
121 642 549
122 747 86
123 201 643
124 400 574
125 653 798
126 500 726
127 585 586
128 285 769
129 239 951
130 335 815
131 911 708
132 602 984
133 816 435
134 617 639
135 793 584
136 803 561
137 479 831
138 838 111
139 989 451
140 581 757
141 294 174
142 350 909
143 920 675
144 493 469
145 678 127
146 316 319
147 73 608
148 884 613
149 809 556
150 705 769
151 520 413
152 960 936
153 376 144
154 88 626
155 540 206
156 474 559
157 241 949
158 583 602
159 215 48
160 585 234
161 788 392
162 621 498
163 788 277
164 678 560
165 351 354
166 156 507
167 617 486
168 213 23
169 884 616
170 285 153
171 176 928
172 507 183
173 995 412
174 649 933
175 131 560
176 502 640
177 462 970
178 465 114
179 192 569
180 547 473
181 557 408
182 480 579
183 775 395
184 962 95
185 627 629
186 775 894
187 109 935
188 478 480
189 511 488
190 785 899
191 487 121
192 453 440
193 470 598
194 756 89
195 647 753
196 973 391
197 842 559
198 948 485
199 999 268
200 471 517
201 381 534
202 973 212
203 164 485
204 429 565
205 838 897
206 779 143
207 532 586
208 915 772
209 204 585
210 343 558
211 877 720
212 730 272
213 364 617
214 210 569
215 202 695
216 376 83
217 483 578
218 639 101
219 774 925
220 528 192
221 660 561
222 888 7
223 710 665
224 939 390
225 156 683
226 62 737
227 952 915
228 14 440
229 890 951
230 478 956
231 782 216
232 822 370
233 73 108
234 7 981
235 987 382
236 397 439
237 986 513
238 871 661
239 154 39
240 70 100
241 75 647
242 86 692
243 263 570
244 76 883
245 648 837
246 713 447
247 316 688
248 470 613
249 499 223
250 482 100
251 280 692
252 54 122
253 455 989
254 923 705
255 41 665
256 829 426
257 57 114
258 445 135
259 126 154
260 543 422
261 395 335
262 947 675
263 127 46
264 895 216
265 590 641
266 721 116
267 323 319
268 495 158
269 534 496
270 784 89
271 582 263
272 498 412
273 737 749
274 262 566
275 669 65
276 280 605
277 163 577
278 7 891
279 156 301
280 144 312
281 112 407
282 232 344
283 889 916
284 952 677
285 644 925
286 982 797
287 328 995
288 954 103
289 534 176
290 769 423
291 537 183
292 263 242
293 301 278
294 813 997
295 522 400
296 342 979
297 121 219
298 282 213
299 495 110
300 974 643
301 567 187
302 588 289
303 415 542
304 711 288
305 634 955
306 836 650
307 640 675
308 179 319
309 526 587
310 15 596
311 979 645
312 647 323
313 184 38
314 302 219
315 991 649
316 887 717
317 331 231
318 822 365
319 359 963
320 60 730
321 481 728
322 192 598
323 121 520
324 854 951
325 916 240
326 889 765
327 608 852
328 250 676
329 385 490
330 977 120
331 695 732
332 168 907
333 487 552
334 379 518
335 741 69
336 741 665
337 542 145
338 785 260
339 943 254
340 183 988
341 597 257
342 227 435
343 257 337
344 100 996
345 909 704
346 169 906
347 399 812
348 802 150
349 451 192
350 979 779
351 342 445
352 692 472
353 9 452
354 128 106
355 791 248
356 836 385
357 315 98
358 895 755
359 363 154
360 373 633
361 42 430
362 592 274
363 95 712
364 565 82
365 307 97
366 808 903
367 630 96
368 694 101
369 714 65
370 380 514
371 581 60
372 452 330
373 986 414
374 645 986
375 258 620
376 159 382
377 594 3
378 575 648
379 505 396
380 259 278
381 839 329
382 796 265
383 184 633
384 110 901
385 612 243
386 471 610
387 651 691
388 788 451
389 999 602
390 290 179
391 511 279
392 409 840
393 726 723
394 198 57
395 330 143
396 112 165
397 564 379
398 841 919
399 736 821
400 772 252
401 956 386
402 29 477
403 440 322
404 300 683
405 804 616
406 139 376
407 177 425
408 52 153
409 681 294
410 806 403
411 238 416
412 930 935
413 220 643
414 224 959
415 1 880
416 530 411
417 205 696
418 1 975
419 463 461
420 12 909
421 960 395
422 808 103
423 555 364
424 312 251
425 874 740
426 135 158
427 904 910
428 102 78
429 926 747
430 133 610
431 712 498
432 801 94
433 744 492
434 49 160
435 892 299
436 623 197
437 280 296
438 390 873
439 569 740
440 382 176
441 22 899
442 976 106
443 643 937
444 286 733
445 343 347
446 768 396
447 281 2
448 113 496
449 449 469
450 146 512
451 541 265
452 108 218
453 909 962
454 873 616
455 891 741
456 632 229
457 254 413
458 174 367
459 801 148
460 94 483
461 70 736
462 396 630
463 722 757
464 524 473
465 390 532
466 865 278
467 739 441
468 522 405
469 315 92
470 367 807
471 174 702
472 245 335
473 849 644
474 188 955
475 898 25
476 369 346
477 795 493
478 774 620
479 512 482
480 67 510
481 527 626
482 777 242
483 622 844
484 285 224
485 652 328
486 358 274
487 824 571
488 228 251
489 166 573
490 5 941
491 74 80
492 668 777
493 773 7
494 94 533
495 895 963
496 744 131
497 710 940
498 790 311
499 778 994
500 425 873
501 880 251
502 319 503
503 678 661
504 756 147
505 752 792
506 833 41
507 570 210
508 237 533
509 484 801
510 281 735
511 126 383
512 765 621
513 340 504
514 483 824
515 450 572
516 504 708
517 379 894
518 415 846
519 794 896
520 981 897
521 307 810
522 193 59
523 718 704
524 635 865
525 44 81
526 677 455
527 365 89
528 993 748
529 264 253
530 837 673
531 625 578
532 726 948
533 529 813
534 493 88
535 977 476
536 926 415
537 370 421
538 960 959
539 56 666
540 568 361
541 418 120
542 830 947
543 447 171
544 136 12
545 510 511
546 610 786
547 155 680
548 710 998
549 443 869
550 243 357
551 736 125
552 323 814
553 526 532
554 54 930
555 76 619
556 938 393
557 518 361
558 114 189
559 398 156
560 666 975
561 976 884
562 362 501
563 799 452
564 791 71
565 957 214
566 547 416
567 747 223
568 686 750
569 520 508
570 86 411
571 790 247
572 754 899
573 387 843
574 682 525
575 156 967
576 553 756
577 525 768
578 739 419
579 74 407
580 783 958
581 651 110
582 551 459
583 980 868
584 46 872
585 130 202
586 374 795
587 751 788
588 792 917
589 746 768
590 124 298
591 280 13
592 636 512
593 146 305
594 423 798
595 477 717
596 504 648
597 951 766
598 647 246
599 970 492
600 260 138
601 394 642
602 657 44
603 263 655
604 776 212
605 436 346
606 982 977
607 99 1000
608 927 947
609 714 685
610 858 581
611 988 225
612 576 24
613 520 801
614 86 528
615 671 77
616 944 270
617 951 622
618 412 813
619 732 304
620 532 201
DEMAND_SECTION
2 6
3 1
4 10
5 7
6 6
7 2
8 8
9 7
10 3
11 5
12 1
13 4
14 10
15 4
16 10
17 3
18 6
19 4
20 3
21 10
22 8
23 6
24 7
25 7
26 4
27 1
28 5
29 3
30 6
31 8
32 5
33 9
34 6
35 9
36 9
37 4
38 1
39 9
40 10
41 2
42 4
43 1
44 10
45 1
46 10
47 2
48 10
49 1
50 4
51 5
52 5
53 6
54 6
55 9
56 4
57 4
58 9
59 3
60 7
61 6
62 8
63 5
64 9
65 3
66 9
67 1
68 1
69 5
70 7
71 6
72 6
73 9
74 3
75 8
76 5
77 9
78 10
79 9
80 5
81 9
82 5
83 10
84 1
85 2
86 9
87 3
88 8
89 2
90 6
91 1
92 3
93 1
94 8
95 8
96 6
97 9
98 5
99 5
100 9
101 1
COVERAGE_SECTION
2 8 541 216 527 258 153 559 178 52 
3 9 453 35 495 608 229 412 538 152 283 
4 9 564 77 506 493 270 109 432 67 422 
5 7 611 199 202 565 339 105 616 
6 8 387 307 503 134 185 223 609 116 
7 9 92 33 400 567 212 482 338 51 571 
8 9 396 558 259 426 585 452 297 408 434 
9 9 99 310 402 480 106 614 353 494 26 
10 9 251 16 404 328 603 247 444 510 95 
11 9 140 576 64 439 108 577 546 25 116 
12 9 233 240 257 491 252 428 525 354 408 
13 9 344 607 187 575 14 340 384 474 56 
14 9 575 340 474 56 171 13 414 332 346 
15 9 141 390 104 395 314 359 317 170 298 
16 9 251 10 404 328 444 510 247 603 81 
17 9 292 529 484 120 380 62 298 488 314 
18 9 113 602 275 615 48 80 369 88 377 
19 9 441 554 584 244 420 278 415 384 490 
20 9 284 262 254 143 131 345 78 429 300 
21 9 368 266 551 369 122 145 88 335 496 
22 9 117 402 460 361 480 43 106 228 353 
23 9 213 360 95 210 462 601 124 90 276 
24 9 451 107 160 271 507 155 620 341 362 
25 9 613 533 108 577 509 576 11 514 64 
26 9 147 29 93 555 154 175 494 430 614 
27 9 358 455 326 429 425 208 68 316 211 
28 8 550 282 472 343 411 457 458 342 
29 9 93 430 175 26 277 489 154 147 555 
30 9 594 509 65 618 514 137 347 321 595 
31 6 184 288 442 475 330 222 
32 9 562 329 513 102 370 334 502 201 351 
33 9 212 92 7 51 400 304 619 482 338 
34 7 365 357 469 600 170 395 141 
35 8 495 229 453 3 608 412 283 324 
36 8 520 152 561 227 538 583 606 412 
37 9 617 300 311 262 315 284 143 389 20 
38 9 150 463 589 273 587 568 505 492 399 
39 9 385 341 160 271 362 456 598 302 507 
40 9 261 72 476 605 165 112 403 372 445 
41 5 544 239 263 313 71 
42 8 276 375 243 274 603 95 413 328 
43 6 570 579 281 87 361 22 
44 9 181 566 260 416 468 295 151 397 83 
45 8 255 320 539 226 242 461 363 241 
46 9 217 182 156 333 193 515 386 248 309 
47 9 325 501 119 339 616 264 435 105 466 
48 9 371 377 612 113 602 18 367 275 364 
49 7 209 214 179 322 103 489 277 
50 9 437 293 146 267 62 380 424 529 343 
51 9 619 212 33 304 92 7 400 163 409 
52 9 178 258 191 250 299 268 541 543 534 
53 9 189 479 144 545 188 569 464 269 200 
54 8 121 592 162 82 110 221 574 167 
55 7 498 381 318 232 163 382 161 
56 9 171 474 14 332 346 575 414 340 129 
57 8 85 245 483 125 524 327 546 492 
58 9 238 74 530 473 306 70 211 316 68 
59 8 89 86 94 319 63 517 296 142 
60 9 378 481 265 158 207 309 127 176 596 
61 8 560 374 305 174 443 285 497 548 
62 9 424 293 17 50 529 484 314 292 317 
63 8 86 253 177 59 89 94 230 319 
64 9 439 576 140 11 577 116 25 108 126 
65 9 618 518 392 594 347 549 500 573 137 
66 7 246 433 431 352 467 526 578 
67 9 506 109 4 475 564 222 138 432 422 
68 9 316 211 455 425 131 345 27 358 74 
69 8 280 593 590 279 308 406 458 511 
70 9 454 473 169 148 306 238 58 610 530 
71 8 168 313 159 394 522 239 41 544 
72 9 40 605 372 261 403 192 236 476 537 
73 8 588 366 519 190 219 186 398 542 
74 9 58 238 345 316 131 143 68 211 254 
75 9 448 460 323 450 166 117 203 87 494 
76 9 388 563 290 133 467 578 183 410 446 
77 9 4 335 493 80 564 122 194 270 369 
78 9 429 597 208 27 254 131 358 455 20 
79 9 410 161 183 446 232 356 133 256 290 
80 9 77 493 335 369 18 122 4 194 564 
81 7 215 417 123 413 328 471 383 
82 9 54 121 531 127 592 162 110 158 167 
83 9 295 379 468 151 272 416 260 566 44 
84 9 422 432 270 564 206 138 459 194 348 
85 9 57 125 245 483 492 546 327 524 195 
86 9 63 59 89 253 94 177 319 230 296 
87 9 281 43 570 579 460 511 75 448 22 
88 8 615 581 275 368 218 367 145 21 
89 8 59 94 86 319 517 142 63 296 
90 9 201 465 334 210 370 124 303 562 513 
91 9 291 155 620 220 289 114 301 507 172 
92 9 7 33 400 482 212 338 567 571 51 
93 9 29 430 175 26 277 489 154 147 555 
94 9 89 59 86 500 517 177 63 230 549 
95 9 23 276 404 42 247 213 603 360 375 
96 9 409 598 304 456 312 385 212 485 39 
97 7 521 552 130 128 470 586 444 
98 9 373 421 196 536 173 401 556 224 139 
99 9 402 106 9 353 480 228 22 117 361 
100 7 609 523 223 393 336 118 331 
101 7 135 136 487 149 405 197 478 
102 5 32 513 351 502 562 
103 7 214 508 49 179 209 274 243 
104 8 359 440 153 15 559 395 141 317 
105 7 565 202 325 339 611 264 47 
106 9 353 402 228 99 361 22 480 117 9 
107 7 451 24 391 249 155 620 271 
108 9 533 25 613 11 577 576 140 509 64 
109 9 506 67 4 222 493 475 564 77 432 
110 4 162 167 592 54 
111 4 346 332 171 56 
112 6 261 476 403 486 40 605 
113 9 602 18 275 615 48 88 367 218 369 
114 9 301 91 291 289 220 337 155 507 620 
115 6 157 129 414 474 56 171 
116 9 439 140 64 11 195 576 387 546 307 
117 9 460 480 448 22 614 75 494 323 402 
118 4 393 100 523 336 
119 6 264 501 325 47 466 105 
120 6 292 17 298 484 488 529 
121 7 54 221 531 592 164 82 574 
122 9 194 335 270 369 21 266 551 496 77 
123 4 413 383 81 322 
124 8 204 303 90 465 201 515 213 462 
125 9 85 492 57 245 195 546 483 568 150 
126 7 516 321 595 577 576 64 439 
127 8 158 531 82 207 60 265 309 185 
128 5 510 444 97 521 552 
129 7 157 115 414 474 56 171 340 
130 5 552 521 97 470 586 
131 9 345 254 68 316 143 74 211 455 27 
132 5 305 374 443 61 560 
133 9 256 563 388 410 76 79 290 161 356 
134 8 185 265 307 378 158 6 127 387 
135 7 101 136 149 405 487 478 512 
136 5 149 101 487 135 197 
137 6 514 509 65 613 549 533 
138 8 422 432 84 459 348 270 67 564 
139 9 535 373 173 98 599 198 196 237 421 
140 9 11 439 64 576 116 546 577 108 195 
141 7 390 170 15 298 314 395 600 
142 4 517 438 89 319 
143 9 262 254 345 284 131 74 20 238 37 
144 9 188 53 479 189 419 464 449 545 569 
145 4 368 581 88 21 
146 9 267 50 445 437 293 165 476 62 343 
147 8 555 154 26 241 29 93 310 430 
148 7 169 454 70 610 473 238 306 
149 5 136 487 101 135 197 
150 9 38 463 568 273 331 492 589 587 393 
151 9 468 416 83 295 272 379 260 566 44 
152 9 227 538 412 608 36 520 606 3 561 
153 8 359 559 104 440 395 541 2 527 
154 7 555 147 241 26 430 539 29 
155 9 620 91 220 291 507 289 301 114 24 
156 9 333 46 182 217 515 193 200 204 386 
157 7 129 115 414 474 56 171 340 
158 8 127 60 265 378 531 134 185 207 
159 7 394 168 522 313 71 239 591 
160 9 39 341 385 507 271 24 362 456 301 
161 9 79 183 446 410 290 232 318 356 133 
162 4 110 167 592 54 
163 9 382 338 355 400 571 498 482 92 33 
164 4 221 574 121 54 
165 8 445 476 267 261 146 40 112 537 
166 6 450 203 323 75 448 175 
167 4 162 110 592 54 
168 8 71 159 313 394 522 239 591 447 
169 7 148 454 70 610 473 238 306 
170 5 141 390 600 34 395 
171 9 56 332 346 474 14 575 111 414 340 
172 7 220 268 289 291 620 91 155 
173 9 373 196 235 98 139 421 401 224 556 
174 6 443 285 305 61 560 374 
175 8 29 93 277 489 323 494 26 430 
176 6 596 481 248 386 193 60 
177 6 253 230 63 86 94 59 
178 9 52 250 191 258 299 534 541 268 2 
179 7 49 214 209 489 322 277 103 
180 9 582 464 269 479 189 569 53 260 545 
181 9 44 566 260 416 397 468 295 151 423 
182 9 217 46 156 193 333 515 386 248 309 
183 7 446 161 79 290 410 578 76 
184 4 288 442 330 31 
185 8 134 265 307 531 158 378 6 127 
186 6 190 519 572 588 219 73 
187 9 384 13 554 575 244 344 332 607 19 
188 8 144 53 419 449 189 479 200 545 
189 9 479 53 464 569 545 269 144 188 180 
190 7 519 186 588 73 366 219 572 
191 7 299 250 178 52 534 268 258 
192 7 419 449 188 144 272 236 72 
193 8 386 248 182 217 46 515 156 333 
194 9 122 335 270 564 551 84 266 496 432 
195 9 492 568 125 546 331 116 85 150 387 
196 8 421 235 401 373 173 224 98 556 
197 5 487 610 149 136 101 
198 6 599 535 237 139 98 536 
199 5 5 611 616 339 202 
200 8 53 188 333 545 156 189 569 144 
201 8 465 90 334 370 303 562 124 329 
202 7 565 611 105 5 339 199 325 
203 6 166 450 75 448 323 407 
204 8 515 303 124 156 465 182 193 46 
205 4 398 366 519 73 
206 8 459 504 348 496 84 551 422 270 
207 9 309 481 217 46 60 182 127 158 553 
208 9 358 326 429 27 597 78 455 425 68 
209 7 49 214 322 179 103 489 277 
210 9 90 201 23 334 465 513 370 124 502 
211 9 316 68 425 455 27 131 345 74 358 
212 9 33 51 304 92 7 619 400 567 409 
213 7 360 23 462 601 95 124 210 
214 8 49 209 179 103 322 489 508 277 
215 8 417 81 471 225 547 123 328 413 
216 6 527 2 541 153 469 357 
217 9 46 182 156 193 333 386 515 248 309 
218 4 367 581 88 615 
219 8 588 73 190 186 572 580 519 366 
220 8 620 291 289 91 155 172 114 301 
221 6 164 121 54 531 574 592 
222 8 475 109 67 506 31 4 138 184 
223 5 609 100 336 503 523 
224 6 556 401 421 536 196 98 
225 6 547 471 215 417 81 383 
226 5 320 461 363 45 242 
227 9 152 412 520 561 608 36 538 427 583 
228 8 353 106 361 402 22 99 579 43 
229 8 35 495 453 3 283 324 608 412 
230 5 177 253 94 63 86 
231 8 604 482 571 355 567 400 338 7 
232 6 318 356 79 410 161 381 
233 8 12 240 257 252 491 525 428 408 
234 9 418 490 554 420 441 278 19 344 607 
235 8 196 421 173 401 373 98 224 556 
236 6 537 329 351 192 449 32 
237 6 599 535 198 139 389 98 
238 9 58 74 473 70 530 306 454 169 148 
239 6 263 313 544 41 522 394 
240 7 12 233 257 491 252 525 428 
241 7 154 539 555 255 147 242 45 
242 6 363 539 45 241 320 461 
243 8 274 276 42 508 375 214 103 49 
244 6 19 584 384 554 441 187 
245 6 57 85 483 524 125 327 
246 6 66 467 352 526 578 431 
247 8 404 251 10 16 95 444 510 603 
248 6 386 193 182 217 46 176 
249 7 620 172 220 107 155 291 24 
250 7 299 534 178 191 52 258 268 
251 9 10 16 404 328 247 444 603 510 95 
252 7 257 233 240 12 408 434 525 
253 7 177 63 230 86 94 59 89 
254 9 131 345 20 143 68 262 316 284 78 
255 8 539 45 241 242 555 154 147 320 
256 8 133 410 79 563 356 388 76 161 
257 8 252 233 240 12 525 491 408 434 
258 9 52 178 541 543 191 2 250 559 268 
259 6 426 396 8 558 354 585 
260 9 566 44 416 181 151 468 295 83 582 
261 7 112 476 40 605 403 165 445 
262 9 284 20 143 254 37 300 311 345 131 
263 5 239 544 428 41 313 
264 4 119 325 501 47 
265 8 378 134 60 185 158 127 307 481 
266 9 551 21 496 368 122 145 194 504 335 
267 9 146 50 445 165 293 437 476 486 62 
268 6 172 191 289 52 220 299 
269 9 569 189 464 180 479 545 53 553 582 
270 9 432 564 84 194 422 122 4 335 77 
271 9 362 341 39 302 160 385 24 451 507 
272 9 83 379 151 468 295 416 260 566 44 
273 7 463 589 393 38 150 587 331 
274 8 243 508 276 42 103 214 375 49 
275 9 615 602 88 113 368 369 18 218 581 
276 8 42 375 243 274 95 603 23 413 
277 8 489 179 175 322 49 93 29 209 
278 7 415 441 420 584 19 490 554 
279 5 593 280 308 590 69 
280 5 593 279 69 590 308 
281 7 570 87 511 43 579 406 376 
282 8 472 550 28 343 308 458 437 380 
283 4 427 229 35 412 
284 9 262 20 143 254 300 311 37 315 131 
285 5 174 443 305 61 560 
286 5 350 597 528 78 583 
287 4 296 319 59 89 
288 4 184 442 330 31 
289 7 291 220 91 114 620 172 155 
290 9 76 446 183 578 388 467 161 79 410 
291 8 289 91 220 620 114 155 172 301 
292 8 17 529 120 484 298 380 488 62 
293 9 62 50 437 424 380 146 17 529 267 
294 8 499 580 542 324 73 219 398 588 
295 9 468 83 151 416 379 272 44 260 566 
296 4 287 319 59 89 
297 4 452 585 558 8 
298 7 484 314 17 120 292 390 141 
299 7 191 250 534 178 52 268 258 
300 9 311 315 37 617 284 262 389 20 143 
301 9 114 91 507 291 155 289 620 220 337 
302 8 362 271 341 39 385 451 160 24 
303 8 204 465 124 201 90 334 370 515 
304 9 51 212 619 409 33 96 7 92 400 
305 7 443 174 61 285 374 560 132 
306 9 473 530 70 58 238 405 454 169 74 
307 8 6 387 503 134 185 265 116 378 
308 5 279 280 593 69 458 
309 9 207 481 217 46 182 333 60 553 193 
310 8 9 147 555 255 26 154 241 539 
311 9 300 315 37 617 284 262 389 20 143 
312 4 485 409 96 302 
313 7 522 394 239 159 168 71 544 
314 9 484 298 317 424 62 390 17 15 292 
315 9 311 300 37 284 389 617 262 20 143 
316 9 68 211 455 131 345 425 74 27 254 
317 8 424 314 62 484 15 486 298 293 
318 6 232 356 79 381 410 161 
319 6 296 59 89 287 142 86 
320 5 226 461 45 363 242 
321 6 595 126 516 577 30 509 
322 5 209 49 179 214 277 
323 8 448 450 494 75 614 166 175 460 
324 8 542 398 229 495 35 283 205 453 
325 8 47 119 339 264 105 501 616 565 
326 7 358 27 455 208 425 429 68 
327 4 483 524 57 245 
328 9 603 10 16 251 81 413 417 404 215 
329 7 32 370 562 334 465 201 513 
330 4 442 184 288 31 
331 9 568 393 523 463 150 273 100 38 609 
332 7 346 171 111 56 474 384 575 
333 9 156 46 217 182 200 515 553 545 193 
334 8 370 201 465 562 90 329 32 513 
335 9 122 194 369 77 21 270 80 564 266 
336 5 223 100 609 118 523 
337 4 289 114 291 91 
338 9 382 355 571 400 163 482 92 7 33 
339 6 616 325 47 105 565 202 
340 9 14 474 575 56 414 171 129 13 157 
341 9 39 271 362 385 160 302 456 24 598 
342 4 411 457 407 28 
343 9 472 550 282 28 437 50 380 146 267 
344 9 607 13 187 575 14 554 340 234 384 
345 9 131 254 316 68 74 143 211 455 20 
346 7 332 171 111 56 474 384 575 
347 7 618 594 392 586 470 573 65 
348 6 459 206 84 504 422 138 
349 7 543 268 172 249 258 559 52 
350 6 286 597 528 78 429 208 
351 3 102 537 32 
352 4 526 66 246 431 
353 8 228 106 402 361 99 22 43 579 
354 7 428 259 12 426 233 240 263 
355 9 571 338 482 382 400 163 231 92 604 
356 5 232 318 410 79 256 
357 7 469 365 34 395 527 170 216 
358 9 27 326 455 208 425 429 68 211 316 
359 8 104 153 440 395 559 15 527 541 
360 5 213 462 601 23 95 
361 8 228 579 22 43 353 106 570 402 
362 8 271 302 341 39 385 160 24 451 
363 5 242 461 320 226 45 
364 4 371 612 48 367 
365 7 357 469 34 395 527 170 600 
366 7 519 73 588 190 205 186 398 
367 4 218 581 88 615 
368 8 21 88 145 266 615 369 275 581 
369 9 335 21 122 368 275 615 194 80 266 
370 8 334 201 465 562 329 32 90 513 
371 5 364 612 48 377 367 
372 4 403 605 72 261 
373 9 173 196 98 235 421 139 401 556 224 
374 8 560 61 305 132 443 174 285 548 
375 8 42 276 603 413 243 274 328 95 
376 8 406 458 511 407 281 69 308 87 
377 7 612 48 371 113 602 18 364 
378 8 265 60 134 158 481 185 127 307 
379 8 83 272 295 468 151 416 557 260 
380 8 529 437 17 292 488 50 293 62 
381 4 318 55 232 498 
382 9 338 163 355 571 400 482 92 498 7 
383 4 123 322 413 81 
384 7 187 244 332 19 346 554 584 
385 9 39 341 456 160 598 271 362 436 302 
386 7 248 193 182 217 46 176 515 
387 9 6 307 503 331 116 134 195 609 223 
388 9 76 563 133 290 477 256 467 410 79 
389 8 311 300 315 617 37 284 237 262 
390 6 141 170 298 15 314 484 
391 3 107 451 24 
392 8 518 573 65 618 347 500 438 594 
393 8 523 273 100 331 118 463 609 568 
394 6 522 159 313 168 239 71 
395 8 359 104 15 153 170 357 141 34 
396 8 8 259 426 558 585 452 297 354 
397 7 423 540 181 44 566 295 416 
398 6 205 542 324 366 73 283 
399 4 505 587 38 589 
400 9 482 338 92 355 571 7 382 163 33 
401 7 421 224 196 556 235 98 373 
402 9 106 99 353 22 228 361 480 117 460 
403 5 372 605 112 261 40 
404 9 247 251 10 16 603 95 328 444 510 
405 8 478 101 135 512 306 487 473 136 
406 7 511 376 458 281 69 407 87 
407 7 376 342 458 203 406 411 87 
408 5 434 252 257 233 8 
409 9 96 304 312 485 619 212 51 598 33 
410 9 79 161 183 256 133 356 232 446 318 
411 4 457 342 28 550 
412 9 608 152 227 3 453 427 538 35 229 
413 6 123 81 383 375 328 603 
414 9 129 157 115 474 56 340 14 171 575 
415 6 278 441 420 584 19 490 
416 9 151 468 295 260 566 44 83 181 379 
417 8 215 81 471 328 225 547 123 413 
418 9 234 490 420 554 441 278 19 415 344 
419 7 449 192 188 144 53 479 189 
420 9 441 278 415 490 19 554 584 418 244 
421 8 401 196 224 556 98 235 373 173 
422 9 432 84 270 138 564 459 348 206 194 
423 6 540 397 557 44 181 295 
424 9 62 317 293 314 484 17 50 298 529 
425 7 455 211 68 316 358 27 326 
426 6 259 396 558 8 585 354 
427 5 283 412 229 608 35 
428 5 491 12 354 240 263 
429 9 78 27 208 597 358 455 326 131 254 
430 7 93 29 277 154 175 489 26 
431 6 66 352 433 574 246 526 
432 9 422 84 270 564 138 194 4 206 459 
433 5 66 431 467 477 246 
434 4 408 252 257 8 
435 3 466 47 501 
436 7 456 385 160 39 507 598 301 
437 9 50 293 380 62 146 529 343 267 17 
438 8 517 573 500 518 392 549 142 65 
439 9 64 140 576 11 116 577 546 25 108 
440 8 104 559 359 153 15 395 543 541 
441 8 420 278 415 19 584 490 554 244 
442 4 330 184 288 31 
443 6 174 285 305 61 560 374 
444 8 510 128 16 251 10 404 247 97 
445 8 165 476 267 146 261 40 112 50 
446 7 183 161 290 79 578 410 76 
447 3 591 168 71 
448 9 75 460 323 117 450 494 614 166 480 
449 6 419 192 188 144 200 53 
450 7 166 323 203 75 448 175 494 
451 7 107 24 391 271 362 302 160 
452 5 297 585 558 8 396 
453 9 3 35 495 229 608 412 283 538 427 
454 8 148 169 70 473 610 238 306 58 
455 9 27 358 425 68 316 326 211 429 131 
456 9 598 385 436 39 341 160 96 271 362 
457 4 411 342 28 550 
458 8 376 406 308 511 69 407 28 282 
459 6 348 206 84 504 422 138 
460 9 117 448 75 22 480 323 614 494 87 
461 5 226 320 363 45 242 
462 5 601 360 213 23 124 
463 9 273 150 38 589 393 331 568 587 505 
464 9 479 189 180 269 582 53 144 569 545 
465 8 201 334 90 370 303 329 562 124 
466 5 501 435 47 119 381 
467 7 578 246 66 290 76 388 433 
468 9 295 151 83 416 379 272 260 566 44 
469 6 357 365 34 527 395 216 
470 7 586 347 130 573 552 618 97 
471 5 225 215 547 417 81 
472 8 343 282 550 28 437 380 50 308 
473 9 306 70 238 530 58 454 169 148 405 
474 9 56 14 171 340 575 414 129 332 157 
475 8 222 67 109 506 31 184 288 4 
476 7 165 445 261 40 112 267 146 
477 3 563 388 76 
478 5 512 405 135 101 336 
479 9 189 464 53 144 269 569 545 188 180 
480 9 117 614 494 460 22 448 402 323 99 
481 8 60 176 596 309 207 378 248 386 
482 9 400 571 355 338 92 231 7 382 604 
483 5 327 524 245 57 85 
484 8 298 314 17 292 529 120 424 62 
485 3 312 409 96 
486 6 112 317 424 267 293 62 
487 7 149 197 136 101 135 610 405 
488 5 292 529 120 17 380 
489 8 277 179 49 322 175 209 214 93 
490 9 420 418 234 441 278 554 19 415 584 
491 6 240 12 233 428 525 257 
492 9 125 195 568 150 85 38 331 57 463 
493 9 77 80 4 109 564 506 335 122 270 
494 9 614 323 480 448 117 175 26 460 75 
495 8 35 229 453 3 608 324 412 283 
496 8 551 504 266 206 194 21 122 84 
497 6 532 61 560 548 572 174 
498 9 55 163 382 338 381 619 51 400 318 
499 8 294 580 548 219 532 542 588 73 
500 8 549 518 438 392 65 573 517 94 
501 7 119 47 466 264 325 435 339 
502 4 513 102 562 32 
503 6 223 6 307 387 609 100 
504 8 496 206 551 459 348 266 84 194 
505 7 587 589 399 38 273 463 150 
506 9 67 109 4 564 432 222 422 475 77 
507 9 301 160 155 91 114 24 620 291 220 
508 6 103 274 214 243 49 179 
509 8 514 137 613 30 25 533 577 65 
510 7 444 128 16 251 10 404 247 
511 7 406 281 376 570 458 69 87 
512 5 478 405 135 336 101 
513 6 502 562 32 102 334 370 
514 6 137 509 613 533 25 65 
515 8 204 156 182 46 193 217 333 386 
516 6 126 595 321 596 577 64 
517 7 438 142 89 500 573 94 59 
518 9 392 65 573 500 618 549 438 347 594 
519 5 190 366 186 588 73 
520 7 561 36 583 227 152 412 538 
521 5 552 97 130 128 470 
522 6 394 313 159 168 239 71 
523 8 100 609 393 118 331 223 336 273 
524 4 483 327 245 57 
525 4 491 240 257 12 
526 3 352 246 66 
527 7 216 2 469 357 153 365 541 
528 8 350 597 286 78 20 429 208 254 
529 9 17 292 380 484 488 120 62 298 293 
530 7 306 58 473 238 74 70 211 
531 7 121 221 82 127 54 158 185 
532 6 497 548 219 572 580 61 
533 7 613 108 25 577 509 514 137 
534 5 250 299 191 178 52 
535 9 599 139 198 237 98 373 173 536 421 
536 5 556 224 98 421 401 
537 6 236 351 102 40 32 165 
538 9 152 606 608 412 3 227 453 36 35 
539 8 255 241 45 242 154 555 147 363 
540 5 423 397 181 44 557 
541 9 2 258 559 52 178 153 216 543 527 
542 8 324 398 73 580 588 366 205 294 
543 8 349 258 52 268 559 541 178 172 
544 5 41 239 263 313 71 
545 9 569 53 189 553 269 479 200 464 144 
546 9 140 85 11 125 57 195 483 492 439 
547 6 225 471 215 417 383 81 
548 7 560 532 61 497 374 499 580 
549 6 500 518 65 392 137 438 
550 8 28 282 472 343 457 411 458 437 
551 9 496 266 504 21 122 194 206 368 335 
552 5 130 521 97 470 586 
553 9 569 545 269 333 189 53 479 207 309 
554 9 19 441 420 490 244 187 584 278 384 
555 8 147 154 241 26 539 29 93 255 
556 6 224 401 421 536 196 98 
557 4 379 423 295 83 
558 7 8 585 396 452 297 259 426 
559 8 153 440 359 104 541 258 543 2 
560 9 61 374 305 443 174 548 285 497 132 
561 5 520 583 227 36 152 
562 9 32 370 513 334 329 102 201 465 502 
563 7 388 76 133 256 477 290 410 
564 9 270 432 4 84 422 77 194 122 335 
565 7 105 202 611 339 5 325 616 
566 9 260 44 181 416 151 468 295 83 397 
567 9 7 604 92 231 482 400 33 571 355 
568 9 331 150 492 463 195 38 393 273 523 
569 9 545 269 189 553 53 479 464 180 144 
570 6 43 579 281 87 361 511 
571 9 355 338 482 382 400 163 231 92 604 
572 6 186 190 219 519 588 73 
573 7 392 518 438 347 618 470 65 
574 7 164 431 221 54 121 592 352 
575 9 14 340 474 56 13 171 187 332 346 
576 9 64 11 439 140 577 25 108 116 613 
577 9 25 576 613 64 11 108 533 126 439 
578 6 467 290 446 246 183 76 
579 4 570 43 281 361 
580 8 219 499 588 73 542 294 532 190 
581 4 218 88 367 145 
582 9 180 464 260 269 566 479 189 44 181 
583 4 561 520 227 36 
584 6 19 244 441 278 415 420 
585 6 297 558 452 396 8 426 
586 7 470 347 618 130 594 573 97 
587 7 505 589 399 38 273 463 150 
588 8 73 190 219 366 519 186 572 580 
589 8 273 587 505 463 38 150 393 399 
590 4 593 280 279 69 
591 4 447 168 71 159 
592 5 54 110 162 167 121 
593 5 280 279 590 69 308 
594 7 618 347 65 30 392 518 586 
595 5 321 126 516 30 577 
596 5 176 481 248 386 60 
597 8 78 350 429 208 286 528 27 358 
598 9 456 96 385 39 341 436 409 362 160 
599 7 535 198 237 139 98 373 173 
600 2 170 34 
601 4 462 360 213 23 
602 9 113 275 18 615 48 88 367 218 369 
603 9 328 375 10 251 16 413 404 42 276 
604 9 231 482 567 571 355 400 7 92 338 
605 6 372 403 72 40 261 112 
606 9 538 152 36 608 412 3 227 453 520 
607 9 344 13 187 575 14 554 340 234 384 
608 9 412 3 453 35 152 538 495 229 227 
609 8 100 523 223 336 393 503 118 331 
610 6 197 487 454 148 169 70 
611 8 5 202 565 199 105 339 616 325 
612 6 377 371 48 364 113 602 
613 9 25 533 108 577 509 514 137 576 11 
614 9 494 480 323 117 448 460 26 75 175 
615 9 275 88 368 602 581 218 113 367 369 
616 5 339 47 325 105 199 
617 9 37 300 311 315 389 262 284 143 169 
618 7 347 594 65 392 518 573 586 
619 8 51 304 212 33 409 92 7 498 
620 9 155 220 91 291 289 172 114 301 507 
DEPOT_SECTION
   1
   -1
EOF
