NAME :  X-n101-kX-w20-c7.cctp
COMMENT : 	Adapted by Maziero, Usberti and Cavellucci from the Uchoa, Pecin, Pessoa, Poggi, Subramanian, and Vidal (2013)
TYPE :  CCTP
DIMENSION :    69
EDGE_WEIGHT_TYPE : 	EUC_2D	
CAPACITY : 	206
VERTICES_WITHIN_COVERAGE :  7
VERTICES_WITH_DEMAND : 	20
NODE_COORD_SECTION
1 365 689
2 146 180
3 792 5
4 658 510
5 461 270
6 299 531
7 812 228
8 643 90
9 615 630
10 258 42
11 616 299
12 475 957
13 425 473
14 406 64
15 656 369
16 202 467
17 318 21
18 579 587
19 458 354
20 575 871
21 47 512
22 568 742
23 128 436
24 546 806
25 197 696
26 615 300
27 678 342
28 916 176
29 390 949
30 584 572
31 134 554
32 912 173
33 827 233
34 598 322
35 627 472
36 94 442
37 688 274
38 977 176
39 597 461
40 931 23
41 170 640
42 797 95
43 451 816
44 260 107
45 332 45
46 685 613
47 728 372
48 487 497
49 635 794
50 635 356
51 634 540
52 658 261
53 346 29
54 75 79
55 729 372
56 356 39
57 664 396
58 704 236
59 415 837
60 576 587
61 726 363
62 415 989
63 199 135
64 679 426
65 268 97
66 688 588
67 708 522
68 679 864
69 615 750
DEMAND_SECTION
2 38
3 51
4 73
5 70
6 58
7 54
8 1
9 98
10 62
11 98
12 25
13 86
14 46
15 27
16 17
17 97
18 74
19 81
20 62
21 59
COVERAGE_SECTION
2 4 63 54 44 65 
3 7 42 40 8 32 28 7 33 
4 6 51 35 67 39 66 64 
5 6 19 34 26 11 50 52 
6 7 16 13 31 41 48 25 23 
7 7 33 58 32 28 37 42 52 
8 7 42 58 3 52 37 11 26 
9 7 18 60 30 46 66 51 69 
10 5 65 17 44 45 53 
11 7 26 34 52 50 27 37 15 
12 6 62 29 20 59 43 24 
13 7 48 19 6 39 30 60 18 
14 4 56 53 45 17 
15 6 50 57 27 64 61 47 
16 7 23 31 36 6 21 41 13 
17 5 45 53 56 10 65 
18 7 60 30 9 51 46 66 4 
19 7 5 13 34 48 26 11 39 
20 7 24 49 68 69 22 12 43 
21 7 36 31 23 16 41 25 6 
22 7 69 24 49 9 20 43 18 
23 7 36 16 21 31 6 41 2 
24 7 22 20 69 49 43 59 68 
25 4 41 31 6 16 
26 7 11 34 52 50 27 37 15 
27 7 15 50 61 57 47 55 37 
28 7 32 38 33 7 42 40 3 
29 6 62 12 59 43 20 24 
30 7 18 60 51 9 4 66 35 
31 7 41 21 16 23 36 25 6 
32 7 28 38 33 7 42 40 3 
33 7 7 32 28 58 42 37 38 
34 7 26 11 50 15 27 52 57 
35 6 39 4 51 64 57 67 
36 7 23 21 16 31 41 6 2 
37 7 52 58 27 11 26 61 50 
38 7 28 32 33 40 7 42 3 
39 6 35 4 51 64 57 15 
40 7 3 32 42 28 38 33 7 
41 5 25 31 6 16 21 
42 7 3 7 32 33 28 40 8 
43 7 59 24 20 22 12 29 62 
44 3 65 10 63 
45 5 53 56 17 10 14 
46 7 66 9 51 67 4 18 30 
47 5 55 61 27 57 15 
48 7 13 39 30 60 18 35 19 
49 5 69 68 22 24 20 
50 7 15 27 57 34 26 11 64 
51 7 4 30 35 18 66 60 67 
52 7 37 58 11 26 27 34 50 
53 5 56 45 17 14 10 
54 5 2 63 10 44 65 
55 5 47 61 27 57 15 
56 5 53 45 17 14 10 
57 4 15 64 50 27 
58 7 37 52 7 11 27 26 33 
59 6 43 29 12 24 62 20 
60 7 18 30 9 51 4 46 66 
61 5 47 55 27 15 57 
62 6 29 12 59 43 20 24 
63 4 44 2 65 10 
64 4 57 15 35 47 
65 2 44 10 
66 7 46 67 51 4 9 30 18 
67 6 4 66 51 46 35 64 
68 4 49 20 69 24 
69 7 22 49 24 9 20 68 46 
DEPOT_SECTION
   1
   -1
EOF
