NAME :  X-n176-kX-w17-c11.cctp
COMMENT : 	Adapted by Maziero, Usberti and Cavellucci from the Uchoa, Pecin, Pessoa, Poggi, Subramanian, and Vidal (2013)
TYPE :  CCTP
DIMENSION :    157
EDGE_WEIGHT_TYPE : 	EUC_2D	
CAPACITY : 	142
VERTICES_WITHIN_COVERAGE :  11
VERTICES_WITH_DEMAND : 	17
NODE_COORD_SECTION
1 0 0
2 628 103
3 291 573
4 129 447
5 973 643
6 830 868
7 398 563
8 731 423
9 201 995
10 167 174
11 13 605
12 446 262
13 229 774
14 740 231
15 21 546
16 224 615
17 605 837
18 473 759
19 758 880
20 93 900
21 580 935
22 622 494
23 513 236
24 659 797
25 606 204
26 267 688
27 606 754
28 841 676
29 823 611
30 1 247
31 195 486
32 644 771
33 524 45
34 769 471
35 940 790
36 867 441
37 243 453
38 410 464
39 465 161
40 417 304
41 616 944
42 609 356
43 822 489
44 738 932
45 462 718
46 847 459
47 792 940
48 434 318
49 1000 647
50 492 83
51 764 550
52 145 182
53 540 249
54 208 760
55 759 988
56 66 221
57 520 521
58 260 508
59 307 468
60 747 308
61 421 505
62 373 597
63 876 881
64 502 242
65 343 764
66 275 610
67 434 161
68 698 364
69 600 881
70 875 724
71 728 253
72 502 969
73 867 464
74 237 907
75 868 263
76 680 306
77 534 615
78 450 898
79 126 415
80 565 260
81 172 126
82 137 674
83 789 958
84 853 147
85 762 111
86 416 626
87 63 237
88 194 75
89 616 133
90 104 804
91 304 699
92 758 40
93 249 141
94 848 770
95 316 426
96 791 803
97 884 980
98 618 107
99 858 644
100 116 388
101 939 880
102 217 912
103 138 217
104 542 965
105 775 294
106 839 459
107 21 751
108 248 883
109 34 101
110 274 824
111 408 641
112 838 846
113 83 772
114 938 432
115 913 766
116 758 816
117 481 156
118 548 809
119 660 393
120 380 849
121 433 893
122 312 347
123 295 480
124 277 519
125 833 970
126 760 470
127 33 455
128 289 176
129 283 845
130 953 937
131 2 939
132 164 71
133 539 756
134 679 880
135 857 842
136 184 455
137 181 70
138 136 928
139 23 17
140 127 710
141 657 422
142 248 593
143 525 519
144 109 805
145 754 487
146 484 90
147 923 157
148 195 38
149 74 961
150 261 663
151 984 135
152 281 227
153 673 176
154 78 322
155 177 543
156 590 199
157 9 343
DEMAND_SECTION
2 94
3 65
4 69
5 89
6 74
7 95
8 87
9 96
10 56
11 94
12 79
13 91
14 75
15 54
16 97
17 93
18 81
COVERAGE_SECTION
2 11 98 89 153 25 156 33 85 50 92 146 117 
3 11 66 142 124 58 16 62 123 150 59 7 26 
4 11 79 136 100 31 127 155 37 154 58 15 157 
5 10 49 99 70 28 115 35 29 94 73 114 
6 11 112 135 63 19 96 47 116 83 94 125 101 
7 11 62 61 86 111 38 3 57 124 59 66 123 
8 11 126 34 68 145 141 119 43 106 60 46 76 
9 10 102 138 74 108 149 20 129 110 131 144 
10 10 52 81 103 93 88 132 137 56 87 128 
11 10 15 82 107 127 140 155 113 4 16 31 
12 10 40 48 64 23 53 67 39 117 80 156 
13 11 54 110 129 26 91 108 65 150 140 144 90 
14 11 71 105 60 153 76 85 75 25 68 84 156 
15 11 11 127 4 155 79 82 31 100 136 140 157 
16 11 142 66 150 3 26 155 82 124 58 91 31 
17 11 69 118 24 32 27 134 21 133 41 104 18 
18 11 45 133 118 120 65 27 111 121 78 86 17 
19 11 44 116 47 6 134 83 96 112 135 55 125 
20 8 138 149 144 90 131 102 113 9 
21 11 41 104 69 72 17 134 118 78 121 44 24 
22 6 141 143 57 119 8 145 
23 11 64 53 80 12 156 117 39 25 67 48 40 
24 10 32 17 27 134 116 69 118 133 19 96 
25 11 156 80 89 153 53 23 98 2 64 76 71 
26 11 150 91 66 16 54 13 142 65 3 82 110 
27 9 32 133 24 118 17 69 18 134 45 
28 8 99 70 29 94 115 5 96 51 
29 8 99 28 51 43 70 145 34 5 
30 11 87 56 157 154 103 109 52 10 100 79 81 
31 11 136 37 155 58 4 124 79 123 59 142 100 
32 9 24 27 17 118 133 134 69 116 96 
33 10 50 146 98 2 117 89 39 67 156 25 
34 10 126 145 43 8 106 46 51 73 36 141 
35 11 115 101 70 94 135 63 112 6 130 96 5 
36 10 73 46 106 43 114 34 126 145 8 51 
37 11 31 58 123 136 59 124 95 155 4 79 122 
38 11 61 7 95 59 123 57 143 62 124 48 122 
39 9 117 67 146 50 23 64 12 53 33 
40 11 48 12 64 122 23 53 67 39 80 152 95 
41 11 21 69 104 134 17 72 44 55 118 24 19 
42 9 119 141 76 68 80 53 8 22 60 
43 10 106 46 73 34 126 36 145 51 8 29 
44 11 47 19 83 55 134 125 6 116 41 112 96 
45 9 18 133 111 86 118 77 65 27 62 
46 10 106 73 36 43 34 126 114 145 8 51 
47 11 83 125 44 55 19 6 97 63 112 135 134 
48 10 40 12 64 23 122 53 80 38 67 39 
49 10 5 99 70 115 35 28 29 94 114 73 
50 9 146 33 117 39 67 98 89 2 156 
51 8 145 34 126 43 29 106 46 8 
52 11 10 103 81 56 87 93 132 88 137 109 152 
53 10 80 23 64 156 25 12 117 39 48 42 
54 11 13 110 26 140 144 150 82 90 129 91 113 
55 11 83 47 44 125 19 97 134 6 41 63 112 
56 11 87 30 103 52 154 10 109 157 81 100 132 
57 7 143 77 61 22 38 7 86 
58 11 124 123 37 59 31 3 142 155 136 95 66 
59 11 123 95 124 58 37 38 3 31 61 122 136 
60 11 105 71 76 68 14 8 119 75 141 42 153 
61 11 38 7 57 62 143 59 86 123 95 111 124 
62 11 7 86 111 3 66 61 91 124 142 150 38 
63 11 135 6 112 101 130 97 125 47 35 94 96 
64 11 23 53 12 80 39 117 156 48 40 67 25 
65 11 91 110 120 129 26 13 45 18 150 54 111 
66 11 142 3 16 150 26 124 91 62 58 155 7 
67 7 39 117 146 50 12 64 23 
68 10 119 76 8 141 60 42 105 71 126 34 
69 11 17 21 41 134 118 104 24 32 27 72 133 
70 10 94 115 28 99 35 96 135 29 5 112 
71 11 14 60 105 76 153 68 25 75 85 156 119 
72 11 104 21 78 121 41 69 118 17 120 134 18 
73 10 46 36 106 43 114 34 126 145 51 8 
74 11 102 108 129 110 9 138 13 20 54 120 144 
75 10 105 84 147 60 14 71 151 36 114 85 
76 10 68 60 71 42 119 14 105 141 80 25 
77 8 57 143 86 45 111 133 7 22 
78 11 121 120 72 104 118 21 18 69 17 133 65 
79 11 100 4 136 31 127 154 37 157 155 58 15 
80 10 53 23 64 156 25 42 12 76 117 89 
81 9 10 88 132 137 52 93 148 103 128 
82 11 140 16 54 113 150 26 90 144 13 142 155 
83 11 47 55 125 44 19 97 6 63 112 135 134 
84 10 147 85 75 151 14 92 71 105 153 60 
85 11 92 84 153 14 2 98 71 89 147 25 105 
86 10 111 62 7 45 77 61 91 3 66 18 
87 11 56 30 103 154 52 157 10 109 81 100 79 
88 7 137 132 148 81 93 10 52 
89 11 98 2 153 156 25 33 50 80 117 53 146 
90 8 144 113 20 140 107 54 138 13 
91 11 26 150 65 66 13 54 16 111 142 62 3 
92 11 85 84 2 98 153 89 14 147 71 25 156 
93 8 128 81 88 10 152 137 132 52 
94 11 70 115 96 135 112 28 35 6 116 63 99 
95 11 59 123 37 122 58 38 124 61 31 136 3 
96 10 116 112 94 6 135 19 63 70 115 24 
97 11 125 130 83 63 47 101 6 55 135 112 44 
98 11 2 89 153 156 25 33 50 146 85 117 92 
99 8 28 29 70 5 94 51 115 49 
100 11 79 4 154 136 127 157 31 37 87 155 103 
101 11 130 63 35 135 112 6 97 115 125 94 47 
102 11 74 108 138 9 129 110 20 13 149 54 144 
103 11 52 10 56 87 81 154 93 30 152 132 88 
104 11 72 21 41 69 78 121 17 118 134 44 120 
105 10 60 71 14 76 75 68 8 119 153 84 
106 10 46 73 36 43 34 126 145 114 8 51 
107 8 113 90 144 140 82 11 20 54 
108 11 74 102 129 110 13 9 138 54 120 65 20 
109 11 139 56 132 52 87 81 30 137 10 103 88 
110 11 129 108 13 65 74 54 102 120 91 26 150 
111 11 86 62 7 45 91 77 3 18 61 66 65 
112 11 135 6 63 96 94 116 19 47 101 115 35 
113 8 90 144 107 140 82 54 20 13 
114 10 36 73 46 106 43 34 126 75 145 8 
115 11 35 70 94 135 112 28 101 63 96 6 99 
116 11 96 19 112 6 24 94 134 135 44 32 47 
117 9 39 67 146 50 23 64 53 12 156 
118 11 133 17 27 69 18 32 24 45 21 78 121 
119 9 141 68 42 8 76 22 60 126 145 
120 11 121 78 65 129 110 18 108 74 45 91 13 
121 11 78 120 72 104 18 118 21 65 129 69 110 
122 11 95 40 59 152 48 37 123 38 12 136 58 
123 11 59 124 58 95 37 3 31 136 38 142 61 
124 11 58 123 3 59 37 142 31 66 95 155 16 
125 11 83 47 97 55 63 6 44 19 112 130 135 
126 10 34 145 8 43 51 106 46 73 36 141 
127 11 15 4 79 100 157 154 11 136 31 155 30 
128 6 152 93 10 81 88 52 
129 11 110 108 74 13 102 120 65 54 91 121 26 
130 11 101 97 63 125 135 6 112 35 47 83 115 
131 8 149 20 138 90 144 113 107 9 
132 9 137 88 148 81 10 93 52 109 103 
133 9 118 18 27 45 17 32 24 69 77 
134 11 19 44 69 24 17 41 116 21 32 47 55 
135 11 112 6 63 94 96 101 115 35 116 19 47 
136 11 31 4 37 79 155 58 100 124 123 59 95 
137 7 88 132 148 81 93 10 52 
138 9 20 149 102 9 74 108 144 90 131 
139 11 109 132 137 148 88 81 52 56 10 87 30 
140 10 82 113 54 90 144 107 13 16 26 150 
141 9 119 68 8 22 42 126 145 76 34 
142 11 66 16 3 150 124 58 155 26 31 91 123 
143 7 57 77 22 61 38 7 86 
144 8 90 113 20 140 107 54 13 138 
145 10 126 34 51 8 43 106 46 73 141 36 
146 9 50 33 117 39 67 98 89 2 23 
147 10 151 84 75 85 14 92 105 71 60 153 
148 7 137 88 132 81 93 10 52 
149 8 20 138 131 9 102 90 144 74 
150 11 26 66 91 16 142 3 54 13 82 62 65 
151 10 147 84 75 85 92 14 105 71 60 114 
152 7 128 93 122 10 52 103 81 
153 11 89 25 2 156 14 98 71 85 76 80 60 
154 11 157 100 87 56 79 30 103 4 127 52 136 
155 11 31 16 142 136 58 124 4 37 3 66 123 
156 11 25 80 53 89 23 153 98 64 2 117 39 
157 11 154 30 127 100 87 56 79 4 103 15 136 
DEPOT_SECTION
   1
   -1
EOF
