NAME :  X-n101-kX-w40-c7.cctp
COMMENT : 	Adapted by Maziero, Usberti and Cavellucci from the Uchoa, Pecin, Pessoa, Poggi, Subramanian, and Vidal (2013)
TYPE :  CCTP
DIMENSION :    86
EDGE_WEIGHT_TYPE : 	EUC_2D	
CAPACITY : 	206
VERTICES_WITHIN_COVERAGE :  7
VERTICES_WITH_DEMAND : 	40
NODE_COORD_SECTION
1 365 689
2 146 180
3 792 5
4 658 510
5 461 270
6 299 531
7 812 228
8 643 90
9 615 630
10 258 42
11 616 299
12 475 957
13 425 473
14 406 64
15 656 369
16 202 467
17 318 21
18 579 587
19 458 354
20 575 871
21 47 512
22 568 742
23 128 436
24 546 806
25 197 696
26 615 300
27 852 563
28 772 803
29 678 342
30 916 176
31 390 949
32 113 782
33 226 736
34 119 923
35 584 572
36 134 554
37 912 173
38 827 233
39 851 677
40 598 322
41 627 472
42 94 442
43 688 274
44 977 176
45 597 461
46 931 23
47 170 640
48 941 601
49 873 487
50 797 95
51 451 816
52 833 912
53 106 913
54 260 107
55 332 45
56 685 613
57 728 372
58 487 497
59 635 794
60 635 356
61 634 540
62 658 261
63 346 29
64 75 79
65 729 372
66 29 910
67 356 39
68 274 943
69 664 396
70 704 236
71 415 837
72 576 587
73 750 977
74 726 363
75 415 989
76 199 135
77 679 426
78 994 804
79 739 898
80 268 97
81 176 991
82 688 588
83 107 836
84 708 522
85 679 864
86 615 750
DEMAND_SECTION
2 38
3 51
4 73
5 70
6 58
7 54
8 1
9 98
10 62
11 98
12 25
13 86
14 46
15 27
16 17
17 97
18 74
19 81
20 62
21 59
22 23
23 62
24 66
25 35
26 53
27 18
28 87
29 32
30 4
31 61
32 95
33 23
34 15
35 5
36 53
37 97
38 70
39 32
40 27
41 42
COVERAGE_SECTION
2 4 76 64 54 80 
3 7 50 46 8 37 30 7 38 
4 6 61 41 84 45 82 77 
5 6 19 40 26 11 60 62 
6 7 16 13 36 47 58 25 23 
7 7 38 70 37 30 43 50 62 
8 7 50 70 3 62 43 11 26 
9 7 18 72 35 56 82 61 86 
10 5 80 17 54 55 63 
11 7 26 40 62 60 29 43 15 
12 7 75 31 20 71 51 24 68 
13 7 58 19 6 45 35 72 18 
14 4 67 63 55 17 
15 6 60 69 29 77 74 57 
16 7 23 36 42 6 21 47 13 
17 5 55 63 67 10 80 
18 7 72 35 9 61 56 82 4 
19 7 5 13 40 58 26 11 45 
20 7 24 59 85 86 22 12 51 
21 7 42 36 23 16 47 25 6 
22 7 86 24 59 9 20 51 18 
23 7 42 16 21 36 6 47 2 
24 7 22 20 86 59 51 71 85 
25 7 33 47 32 36 83 6 16 
26 7 11 40 62 60 29 43 15 
27 6 49 48 39 84 82 56 
28 6 79 85 52 59 39 86 
29 7 15 60 74 69 57 65 43 
30 7 37 44 38 7 50 46 3 
31 7 75 12 71 68 51 20 24 
32 7 83 25 33 53 34 47 66 
33 7 25 47 32 83 36 68 53 
34 7 53 83 81 66 32 68 33 
35 7 18 72 61 9 4 82 41 
36 7 47 21 16 23 42 25 6 
37 7 30 44 38 7 50 46 3 
38 7 7 37 30 70 50 43 44 
39 7 27 48 28 56 82 49 78 
40 7 26 11 60 15 29 62 69 
41 6 45 4 61 77 69 84 
42 7 23 21 16 36 47 6 2 
43 7 62 70 29 11 26 74 60 
44 7 30 37 38 46 7 50 3 
45 6 41 4 61 77 69 15 
46 7 3 37 50 30 44 38 7 
47 7 25 36 33 32 6 16 21 
48 6 27 39 49 78 84 82 
49 3 27 48 84 
50 7 3 7 37 38 30 46 8 
51 7 71 24 20 22 12 31 75 
52 3 79 73 28 
53 7 34 66 83 81 32 68 33 
54 3 80 10 76 
55 5 63 67 17 10 14 
56 7 82 9 61 84 4 18 35 
57 5 65 74 29 69 15 
58 7 13 45 35 72 18 41 19 
59 7 86 85 22 24 20 28 79 
60 7 15 29 69 40 26 11 77 
61 7 4 35 41 18 82 72 84 
62 7 43 70 11 26 29 40 60 
63 5 67 55 17 14 10 
64 5 2 76 10 54 80 
65 5 57 74 29 69 15 
66 7 53 34 83 32 81 68 33 
67 5 63 55 17 14 10 
68 7 81 31 75 34 53 71 83 
69 4 15 77 60 29 
70 7 43 62 7 11 29 26 38 
71 7 51 31 12 24 75 20 68 
72 7 18 35 9 61 4 56 82 
73 4 79 52 85 28 
74 5 57 65 29 15 69 
75 7 31 12 68 71 51 20 24 
76 4 54 2 80 10 
77 4 69 15 41 57 
78 2 39 52 
79 5 85 73 52 28 59 
80 2 54 10 
81 7 34 53 68 66 83 31 32 
82 7 56 84 61 4 9 35 18 
83 7 32 53 34 66 33 25 81 
84 6 4 82 61 56 41 77 
85 7 79 59 20 28 86 73 24 
86 7 22 59 24 9 20 85 56 
DEPOT_SECTION
   1
   -1
EOF
