NAME :  X-n101-kX-w40-c9.cctp
COMMENT : 	Adapted by Maziero, Usberti and Cavellucci from the Uchoa, Pecin, Pessoa, Poggi, Subramanian, and Vidal (2013)
TYPE :  CCTP
DIMENSION :    97
EDGE_WEIGHT_TYPE : 	EUC_2D	
CAPACITY : 	206
VERTICES_WITHIN_COVERAGE :  9
VERTICES_WITH_DEMAND : 	40
NODE_COORD_SECTION
1 365 689
2 146 180
3 792 5
4 658 510
5 461 270
6 299 531
7 812 228
8 643 90
9 615 630
10 258 42
11 616 299
12 475 957
13 425 473
14 406 64
15 656 369
16 202 467
17 318 21
18 579 587
19 458 354
20 575 871
21 47 512
22 568 742
23 128 436
24 546 806
25 197 696
26 615 300
27 852 563
28 772 803
29 678 342
30 916 176
31 390 949
32 113 782
33 226 736
34 119 923
35 584 572
36 134 554
37 912 173
38 827 233
39 851 677
40 598 322
41 627 472
42 94 442
43 688 274
44 977 176
45 597 461
46 931 23
47 170 640
48 941 601
49 873 487
50 797 95
51 451 816
52 866 970
53 833 912
54 106 913
55 260 107
56 332 45
57 685 613
58 728 372
59 487 497
60 702 440
61 717 412
62 635 794
63 635 356
64 634 540
65 658 261
66 303 168
67 707 410
68 254 135
69 346 29
70 75 79
71 729 372
72 29 910
73 356 39
74 274 943
75 322 96
76 664 396
77 704 236
78 415 837
79 576 587
80 750 977
81 726 363
82 861 948
83 302 129
84 415 989
85 199 135
86 679 426
87 994 804
88 311 116
89 739 898
90 268 97
91 176 991
92 688 588
93 107 836
94 708 522
95 679 864
96 985 877
97 615 750
DEMAND_SECTION
2 38
3 51
4 73
5 70
6 58
7 54
8 1
9 98
10 62
11 98
12 25
13 86
14 46
15 27
16 17
17 97
18 74
19 81
20 62
21 59
22 23
23 62
24 66
25 35
26 53
27 18
28 87
29 32
30 4
31 61
32 95
33 23
34 15
35 5
36 53
37 97
38 70
39 32
40 27
41 42
COVERAGE_SECTION
2 9 85 68 70 55 90 66 83 88 10 
3 9 50 46 8 37 30 7 38 77 44 
4 9 64 41 94 45 60 92 86 35 57 
5 9 19 40 26 11 66 63 65 13 14 
6 9 16 13 36 47 59 25 23 33 42 
7 9 38 77 37 30 43 50 65 81 71 
8 9 50 77 3 65 43 11 26 7 38 
9 9 18 79 35 57 92 64 97 22 4 
10 9 90 17 55 56 75 69 88 68 83 
11 9 26 40 65 63 29 43 15 76 77 
12 9 84 31 20 78 51 24 74 95 62 
13 9 59 19 6 45 35 79 18 41 5 
14 9 73 69 56 75 17 88 83 90 66 
15 9 63 76 29 86 67 81 58 71 40 
16 9 23 36 42 6 21 47 13 25 33 
17 9 56 69 73 10 75 90 88 14 55 
18 9 79 35 9 64 57 92 4 41 45 
19 9 5 13 40 59 26 11 45 63 15 
20 9 24 62 95 97 22 12 51 78 89 
21 9 42 36 23 16 47 25 6 32 33 
22 9 97 24 62 9 20 51 18 79 95 
23 9 42 16 21 36 6 47 2 25 13 
24 9 22 20 97 62 51 78 95 12 9 
25 9 33 47 32 36 93 6 16 54 21 
26 9 11 40 65 63 29 43 15 76 77 
27 8 49 48 39 94 92 57 60 4 
28 9 89 95 53 62 39 97 82 80 52 
29 9 15 63 81 76 58 71 43 67 11 
30 9 37 44 38 7 50 46 3 77 43 
31 9 84 12 78 74 51 20 24 91 33 
32 9 93 25 33 54 34 47 72 91 74 
33 9 25 47 32 93 36 74 54 78 34 
34 9 54 93 91 72 32 74 33 25 31 
35 9 18 79 64 9 4 92 41 57 45 
36 9 47 21 16 23 42 25 6 33 32 
37 9 30 44 38 7 50 46 3 77 43 
38 9 7 37 30 77 50 43 44 81 71 
39 9 27 48 28 57 92 49 87 94 53 
40 9 26 11 63 15 29 65 76 43 86 
41 9 45 4 64 86 60 76 94 67 15 
42 9 23 21 16 36 47 6 2 25 33 
43 9 65 77 29 11 26 81 63 15 40 
44 8 30 37 38 46 7 50 3 77 
45 9 41 4 64 86 76 60 15 35 63 
46 9 3 37 50 30 44 38 7 8 77 
47 9 25 36 33 32 6 16 21 93 23 
48 8 27 39 49 87 94 92 57 28 
49 8 27 48 94 61 60 67 71 58 
50 9 3 7 37 38 30 46 8 77 44 
51 9 78 24 20 22 12 31 84 97 62 
52 6 82 53 80 89 96 28 
53 6 82 52 89 80 28 96 
54 9 34 72 93 91 32 74 33 25 47 
55 9 90 68 83 88 75 10 85 66 56 
56 9 69 73 17 75 10 88 14 90 83 
57 9 92 9 64 94 4 18 35 79 41 
58 9 71 81 61 67 29 76 15 60 86 
59 9 13 45 35 79 18 41 19 64 4 
60 9 86 67 61 76 58 71 81 41 94 
61 9 67 60 86 58 71 81 76 15 29 
62 9 97 95 22 24 20 28 89 9 51 
63 9 15 29 76 40 26 11 86 67 81 
64 9 4 35 41 18 92 79 94 45 57 
65 9 43 77 11 26 29 40 63 15 81 
66 9 83 88 68 75 55 90 85 56 10 
67 9 61 60 86 58 71 76 81 15 29 
68 9 55 90 83 85 66 88 75 10 2 
69 9 73 56 17 14 75 10 88 90 83 
70 9 2 85 10 55 68 90 83 88 66 
71 9 58 81 61 67 29 76 15 60 86 
72 9 54 34 93 32 91 74 33 25 47 
73 9 69 56 17 14 75 88 10 83 90 
74 9 91 31 84 34 54 78 93 12 33 
75 9 88 83 56 90 55 73 69 66 17 
76 9 15 86 67 63 61 29 60 58 71 
77 9 43 65 7 11 29 26 38 81 40 
78 9 51 31 12 24 84 20 74 22 33 
79 9 18 35 9 64 4 57 92 41 59 
80 7 89 53 82 52 95 28 20 
81 9 58 71 61 67 29 15 76 86 60 
82 6 52 53 80 89 96 28 
83 9 88 66 75 55 90 68 56 10 85 
84 9 31 12 74 78 51 20 24 91 22 
85 9 68 55 2 90 83 66 10 88 75 
86 9 60 67 76 61 15 41 58 71 81 
87 6 96 39 53 82 48 52 
88 9 83 75 90 55 66 68 56 73 10 
89 8 95 80 53 28 82 52 62 20 
90 9 55 68 83 88 75 10 66 85 56 
91 9 34 54 74 72 93 31 32 84 33 
92 9 57 94 64 4 9 35 18 79 41 
93 9 32 54 34 72 33 25 91 74 47 
94 9 4 92 64 60 57 41 86 61 67 
95 9 89 62 20 28 97 80 24 53 22 
96 6 87 82 52 53 28 39 
97 9 22 62 24 9 20 95 57 28 18 
DEPOT_SECTION
   1
   -1
EOF
