NAME :  X-n106-kX-w42-c11.cctp
COMMENT : 	Adapted by Maziero, Usberti and Cavellucci from the Uchoa, Pecin, Pessoa, Poggi, Subramanian, and Vidal (2013)
TYPE :  CCTP
DIMENSION :    106
EDGE_WEIGHT_TYPE : 	EUC_2D	
CAPACITY : 	600
VERTICES_WITHIN_COVERAGE :  11
VERTICES_WITH_DEMAND : 	42
NODE_COORD_SECTION
1 0 0
2 615 190
3 890 200
4 983 684
5 959 743
6 569 146
7 969 841
8 607 256
9 936 274
10 650 221
11 943 547
12 789 172
13 632 209
14 849 163
15 829 283
16 618 147
17 925 627
18 925 192
19 903 460
20 666 368
21 906 622
22 833 185
23 411 136
24 989 691
25 601 221
26 429 500
27 522 218
28 760 346
29 674 183
30 720 99
31 951 705
32 898 154
33 953 661
34 425 212
35 775 159
36 900 649
37 943 290
38 724 315
39 927 705
40 865 817
41 872 161
42 966 478
43 974 694
44 669 159
45 603 140
46 598 122
47 715 230
48 777 693
49 890 231
50 775 230
51 908 849
52 625 138
53 490 185
54 643 163
55 849 183
56 998 675
57 619 495
58 844 67
59 861 276
60 888 679
61 641 141
62 869 766
63 495 244
64 852 110
65 976 143
66 921 783
67 688 211
68 857 199
69 758 636
70 990 213
71 973 806
72 748 240
73 737 95
74 933 664
75 770 172
76 616 250
77 641 146
78 867 199
79 544 327
80 711 277
81 893 778
82 992 868
83 685 11
84 869 204
85 646 260
86 849 185
87 918 400
88 645 144
89 923 339
90 931 686
91 582 212
92 1000 309
93 572 192
94 676 183
95 989 59
96 798 642
97 582 39
98 686 188
99 995 720
100 802 185
101 603 126
102 657 185
103 574 195
104 661 174
105 614 195
106 961 162
DEMAND_SECTION
2 81
3 64
4 51
5 61
6 71
7 83
8 92
9 66
10 92
11 78
12 98
13 88
14 70
15 72
16 92
17 84
18 51
19 81
20 71
21 98
22 70
23 53
24 76
25 83
26 83
27 77
28 82
29 88
30 58
31 97
32 53
33 52
34 89
35 87
36 50
37 73
38 58
39 100
40 59
41 67
42 75
43 65
COVERAGE_SECTION
2 11 105 13 25 54 91 103 102 16 93 10 104 
3 11 84 78 49 68 18 41 55 86 32 14 22 
4 11 24 43 56 31 33 99 90 74 39 5 17 
5 11 31 99 39 43 66 24 4 90 71 81 56 
6 11 45 46 101 93 16 103 52 2 91 105 61 
7 11 71 82 51 66 5 81 40 99 62 31 39 
8 11 76 25 85 91 13 10 105 2 103 93 102 
9 11 37 49 89 92 59 70 18 3 84 78 15 
10 11 13 102 67 85 105 29 76 94 2 104 25 
11 11 42 17 21 19 36 33 74 56 90 4 60 
12 11 100 35 75 22 50 14 55 86 68 72 78 
13 11 10 105 2 25 102 76 104 54 29 91 94 
14 11 55 86 41 22 68 78 84 32 100 64 3 
15 11 59 50 49 68 84 72 78 28 22 86 55 
16 11 52 45 77 61 101 88 54 46 2 105 6 
17 11 21 36 74 33 90 60 39 4 11 31 43 
18 11 3 32 106 49 84 78 41 68 70 65 86 
19 11 87 42 11 89 21 17 37 92 28 9 36 
20 11 38 28 80 85 8 76 79 57 47 10 72 
21 11 17 36 74 60 33 90 11 39 31 4 43 
22 11 55 86 14 68 100 78 84 12 41 3 35 
23 11 34 53 63 27 6 93 103 91 46 45 101 
24 11 4 43 56 99 31 33 90 5 74 39 17 
25 11 91 105 13 76 2 8 103 93 10 85 102 
26 11 57 79 63 20 34 27 8 76 53 85 91 
27 11 63 53 93 103 91 25 6 8 105 2 34 
28 11 38 80 15 20 72 50 59 47 85 67 89 
29 11 94 98 104 102 44 67 54 10 13 88 77 
30 11 73 44 35 88 75 61 77 83 94 98 104 
31 11 39 43 90 4 5 24 33 74 99 56 60 
32 11 41 3 18 14 78 55 84 86 68 64 106 
33 11 74 90 4 43 17 31 24 56 39 36 21 
34 11 53 23 63 27 93 103 91 6 79 25 8 
35 11 75 12 100 22 50 14 73 55 86 30 72 
36 11 21 60 17 74 90 33 39 31 43 4 24 
37 11 9 89 92 49 59 70 18 3 84 87 15 
38 11 80 28 20 72 47 85 50 15 67 10 76 
39 11 90 31 74 60 43 5 33 4 36 24 99 
40 11 81 62 51 66 7 71 5 39 82 60 31 
41 11 14 32 55 86 78 68 3 84 22 64 18 
42 11 19 11 87 89 17 21 92 33 36 37 74 
43 11 4 24 31 56 99 33 90 39 5 74 17 
44 11 104 29 94 54 88 102 77 61 98 52 16 
45 11 101 16 46 52 6 61 77 88 54 2 105 
46 11 101 45 52 16 6 61 77 88 54 2 93 
47 11 67 72 80 98 50 94 29 10 102 85 104 
48 11 96 69 60 62 36 81 21 39 40 90 74 
49 11 3 84 78 68 18 59 86 9 55 41 22 
50 11 72 100 75 12 47 35 22 15 80 86 55 
51 11 40 7 66 81 71 82 62 5 39 31 99 
52 11 16 61 77 88 45 101 46 54 44 104 2 
53 11 27 63 34 93 103 6 23 91 25 45 105 
54 11 77 88 104 61 44 102 16 52 29 2 94 
55 11 86 22 68 14 78 84 41 3 100 32 12 
56 11 4 24 43 99 33 31 74 90 39 5 17 
57 11 20 79 26 69 28 38 96 80 85 8 76 
58 11 64 14 41 32 73 35 55 86 12 22 100 
59 11 15 49 84 9 68 78 3 37 89 86 55 
60 11 36 90 39 74 21 17 33 31 43 62 4 
61 11 77 88 52 54 16 44 45 104 101 46 102 
62 11 81 40 66 39 60 51 5 90 31 71 48 
63 11 27 53 34 91 93 103 79 25 8 76 6 
64 11 58 14 41 32 55 86 22 12 68 78 100 
65 11 106 18 70 32 95 3 41 49 78 84 64 
66 11 81 5 62 71 40 51 7 39 31 99 90 
67 11 98 94 29 47 10 102 104 44 13 85 54 
68 11 78 84 86 55 22 3 14 41 49 100 32 
69 11 96 48 60 36 21 17 62 74 90 39 81 
70 11 106 18 65 9 37 92 3 49 32 84 78 
71 11 7 66 5 82 51 81 99 31 40 39 62 
72 11 50 47 80 67 75 100 12 38 98 35 15 
73 11 30 35 75 12 44 83 88 61 98 94 29 
74 11 33 90 36 17 39 31 60 21 43 4 24 
75 11 35 12 100 50 22 72 14 47 55 86 73 
76 11 8 85 25 13 10 91 105 2 103 93 102 
77 11 88 61 54 52 16 44 104 45 102 101 46 
78 11 84 68 3 86 55 22 41 49 14 32 18 
79 11 8 63 76 27 25 91 85 20 103 93 13 
80 11 38 47 72 85 67 50 10 28 98 76 94 
81 11 62 66 40 51 5 39 71 31 7 60 90 
82 11 7 71 51 66 5 81 40 99 62 31 39 
83 11 30 73 97 61 88 52 46 101 77 44 16 
84 11 78 68 3 86 55 49 22 41 14 18 32 
85 11 76 8 10 13 25 67 80 105 47 102 2 
86 11 55 22 68 14 78 84 41 3 100 32 12 
87 11 89 19 42 37 92 9 59 15 11 28 49 
88 11 77 61 54 52 16 44 104 45 102 101 29 
89 11 37 87 9 92 59 15 49 19 3 70 42 
90 11 39 74 31 33 43 60 36 4 24 17 5 
91 11 103 25 93 105 2 13 8 76 27 6 10 
92 11 37 9 89 70 87 49 18 59 106 3 65 
93 11 103 91 25 105 2 6 27 45 13 16 8 
94 11 29 98 104 102 44 67 54 10 88 13 77 
95 11 65 106 32 58 64 18 70 41 3 14 78 
96 11 69 48 60 36 21 17 74 90 62 39 33 
97 11 46 101 45 83 6 52 16 61 77 88 54 
98 11 94 29 67 102 104 44 10 54 47 13 88 
99 11 24 43 4 5 56 31 39 33 90 74 71 
100 11 12 22 75 35 55 86 14 50 68 78 84 
101 11 46 45 52 16 6 61 77 88 54 2 105 
102 11 104 29 94 54 44 98 13 10 67 2 77 
103 11 93 91 25 105 2 6 27 13 45 16 8 
104 11 102 29 44 94 54 98 77 88 61 13 67 
105 11 2 13 25 91 103 93 54 10 102 16 104 
106 11 65 18 70 32 3 41 49 78 84 95 68 
DEPOT_SECTION
   1
   -1
EOF
