NAME :  X-n120-kX-w47-c11.cctp
COMMENT : 	Adapted by Maziero, Usberti and Cavellucci from the Uchoa, Pecin, Pessoa, Poggi, Subramanian, and Vidal (2013)
TYPE :  CCTP
DIMENSION :    120
EDGE_WEIGHT_TYPE : 	EUC_2D	
CAPACITY : 	21
VERTICES_WITHIN_COVERAGE :  11
VERTICES_WITH_DEMAND : 	47
NODE_COORD_SECTION
1 0 0
2 927 318
3 319 475
4 471 281
5 894 615
6 712 832
7 677 210
8 336 967
9 490 360
10 367 685
11 153 169
12 799 63
13 247 455
14 492 585
15 131 701
16 309 721
17 210 256
18 511 753
19 447 796
20 394 856
21 131 13
22 181 425
23 892 585
24 161 651
25 964 365
26 82 353
27 706 842
28 793 53
29 364 841
30 126 306
31 86 477
32 51 277
33 192 360
34 52 568
35 682 45
36 778 300
37 10 737
38 928 438
39 95 240
40 391 368
41 586 170
42 645 731
43 381 396
44 387 491
45 388 753
46 429 276
47 547 989
48 840 945
49 88 969
50 331 421
51 55 132
52 904 771
53 63 190
54 731 528
55 320 84
56 308 276
57 891 182
58 836 473
59 209 741
60 864 533
61 852 600
62 180 150
63 544 140
64 956 881
65 432 487
66 129 968
67 597 962
68 51 423
69 827 605
70 776 619
71 354 297
72 311 129
73 552 106
74 24 318
75 148 944
76 502 869
77 396 492
78 815 500
79 425 338
80 178 511
81 168 274
82 775 603
83 481 465
84 281 777
85 216 211
86 784 740
87 127 992
88 544 117
89 92 170
90 846 755
91 614 326
92 180 372
93 720 252
94 262 291
95 171 186
96 868 613
97 291 119
98 427 974
99 481 557
100 403 645
101 819 502
102 915 919
103 581 85
104 527 743
105 953 893
106 955 912
107 269 924
108 216 84
109 601 952
110 441 439
111 170 949
112 614 92
113 439 212
114 413 509
115 545 336
116 50 806
117 166 86
118 658 870
119 122 511
120 178 170
DEMAND_SECTION
2 1
3 1
4 1
5 1
6 1
7 1
8 1
9 1
10 1
11 1
12 1
13 1
14 1
15 1
16 1
17 1
18 1
19 1
20 1
21 1
22 1
23 1
24 1
25 1
26 1
27 1
28 1
29 1
30 1
31 1
32 1
33 1
34 1
35 1
36 1
37 1
38 1
39 1
40 1
41 1
42 1
43 1
44 1
45 1
46 1
47 1
48 1
COVERAGE_SECTION
2 11 25 38 57 36 58 101 78 93 60 23 7 
3 11 50 44 13 77 43 114 65 110 40 80 22 
4 11 46 79 113 9 115 40 71 43 91 63 41 
5 11 96 23 61 69 60 70 82 101 78 90 58 
6 11 27 118 86 42 90 109 48 67 52 104 76 
7 11 93 41 91 112 36 63 103 88 73 35 115 
8 11 107 98 20 29 111 75 76 84 19 66 87 
9 11 115 79 4 110 40 46 83 43 91 65 71 
10 11 100 16 45 84 19 29 18 14 59 104 99 
11 11 95 120 62 89 85 117 39 53 17 51 81 
12 11 28 35 57 112 7 93 103 36 41 73 88 
13 11 22 3 80 50 92 33 119 44 43 77 31 
14 11 99 100 114 65 83 77 44 110 10 104 18 
15 11 24 59 37 116 34 84 16 119 80 31 10 
16 11 84 10 45 59 100 29 19 20 24 15 18 
17 11 85 81 94 95 120 30 56 11 33 62 39 
18 11 104 19 76 45 42 100 20 10 14 29 118 
19 11 45 18 20 76 29 104 10 16 100 84 98 
20 11 29 19 45 76 98 8 84 107 18 16 10 
21 11 117 108 51 62 11 89 120 95 53 97 55 
22 11 92 33 13 80 119 31 26 68 30 3 50 
23 11 5 96 61 60 69 101 78 82 70 58 38 
24 11 15 59 34 80 119 16 37 84 31 116 10 
25 11 2 38 58 60 36 57 101 78 23 5 61 
26 11 30 74 68 32 92 33 39 81 22 31 17 
27 11 6 118 42 86 109 67 90 48 104 76 52 
28 11 12 35 57 112 7 93 103 41 36 73 88 
29 11 20 45 19 84 107 8 16 76 98 10 18 
30 11 81 26 39 32 33 92 17 74 95 22 85 
31 11 119 68 34 80 22 26 92 33 13 74 30 
32 11 74 39 30 26 53 89 81 51 68 11 95 
33 11 92 22 30 81 94 17 13 26 56 85 50 
34 11 119 31 24 80 68 15 37 22 26 13 59 
35 11 112 103 28 12 73 88 41 7 63 93 57 
36 11 93 7 2 57 91 58 25 78 38 101 41 
37 11 116 15 24 34 59 49 75 119 66 111 31 
38 11 25 58 60 2 101 78 23 61 5 96 69 
39 11 32 53 89 30 81 11 95 74 120 26 51 
40 11 43 79 50 71 110 9 46 4 44 56 77 
41 11 63 88 73 112 103 7 113 93 35 91 4 
42 11 104 6 27 18 86 118 70 82 76 90 19 
43 11 40 50 79 110 44 77 3 71 65 9 114 
44 11 77 114 65 3 110 50 43 83 99 40 14 
45 11 10 19 16 29 20 100 84 18 104 76 59 
46 11 4 79 113 71 40 9 56 43 115 110 94 
47 11 67 109 98 76 118 20 8 19 27 6 29 
48 11 102 106 105 64 27 6 52 90 118 86 109 
49 11 66 87 75 111 116 107 37 8 59 15 84 
50 11 3 43 40 44 13 77 110 114 65 79 71 
51 11 89 53 11 39 117 62 95 120 21 32 108 
52 11 90 64 86 105 102 106 5 96 61 69 48 
53 11 89 39 51 32 11 95 120 62 30 74 81 
54 11 82 78 101 70 58 69 60 61 96 23 5 
55 11 97 72 108 117 62 85 120 113 95 11 56 
56 11 94 71 17 85 46 40 79 43 81 33 113 
57 11 2 12 28 36 93 25 7 35 38 112 58 
58 11 78 101 60 38 54 23 61 69 82 96 5 
59 11 84 15 16 24 10 116 45 29 107 37 75 
60 11 101 23 78 58 61 96 69 5 82 38 70 
61 11 96 69 23 5 60 82 70 101 78 58 54 
62 11 120 11 95 117 85 108 89 17 97 39 53 
63 11 88 73 41 103 112 113 7 4 35 46 115 
64 11 105 106 102 52 48 90 86 6 27 5 96 
65 11 114 77 44 110 83 99 43 3 14 50 40 
66 11 87 75 49 111 107 116 8 59 84 37 15 
67 11 109 47 118 76 27 98 6 19 18 20 104 
68 11 31 26 74 119 22 30 92 34 32 33 80 
69 11 61 96 82 70 5 23 60 101 78 54 58 
70 11 82 69 61 96 54 5 23 86 60 78 101 
71 11 56 46 40 79 94 43 4 113 50 9 17 
72 11 97 55 108 85 62 120 56 95 117 113 17 
73 11 88 63 103 112 41 35 113 7 4 46 93 
74 11 32 26 30 39 68 53 81 89 92 31 33 
75 11 111 66 87 49 107 116 8 59 84 29 15 
76 11 19 20 18 47 104 98 109 67 29 118 45 
77 11 44 114 65 110 3 83 50 43 99 40 14 
78 11 101 58 60 54 69 61 82 23 70 96 38 
79 11 40 46 9 4 43 71 110 115 50 113 56 
80 11 119 22 13 31 34 92 24 3 33 68 50 
81 11 17 30 85 39 95 33 94 92 120 11 26 
82 11 70 69 61 54 96 78 101 60 23 5 86 
83 11 110 65 114 77 99 44 9 14 43 40 79 
84 11 16 59 29 45 10 20 107 19 15 24 100 
85 11 17 95 120 62 11 81 94 56 97 39 72 
86 11 90 6 70 52 27 82 42 69 96 61 5 
87 11 66 49 75 111 107 116 8 59 84 29 37 
88 11 73 63 103 41 112 113 35 7 4 46 115 
89 11 53 51 11 39 95 120 62 117 32 81 85 
90 11 52 86 96 5 69 70 6 61 27 64 82 
91 11 115 9 93 7 4 41 36 79 46 83 63 
92 11 33 22 30 81 26 13 94 17 68 80 31 
93 11 7 36 91 41 57 112 115 12 63 35 28 
94 11 56 17 71 85 81 33 92 30 95 50 120 
95 11 120 11 62 85 17 89 81 39 117 53 108 
96 11 61 5 23 69 60 70 82 101 78 58 90 
97 11 72 55 108 62 85 120 117 95 11 56 17 
98 11 8 47 20 76 29 107 67 109 19 45 18 
99 11 14 114 65 83 77 44 100 110 10 3 43 
100 11 10 14 45 99 16 114 18 77 44 19 104 
101 11 78 58 60 54 61 69 82 23 96 70 38 
102 11 106 105 64 48 52 90 6 86 27 118 5 
103 11 112 73 88 63 41 35 7 113 28 93 12 
104 11 18 19 42 76 45 100 14 10 20 118 29 
105 11 64 106 102 48 52 90 86 6 27 5 96 
106 11 105 64 102 48 52 90 86 6 27 118 5 
107 11 8 111 75 29 20 66 84 87 98 49 59 
108 11 117 62 97 120 55 72 11 21 95 85 89 
109 11 67 47 118 76 27 6 98 18 19 104 42 
110 11 83 65 77 43 44 114 40 9 79 50 99 
111 11 75 66 87 49 107 8 116 84 59 29 20 
112 11 103 73 88 35 41 63 7 28 12 93 113 
113 11 46 4 71 63 79 88 56 41 72 73 9 
114 11 77 65 44 110 83 99 3 14 43 50 100 
115 11 9 91 4 79 46 83 110 40 113 41 43 
116 11 37 15 49 75 59 66 111 24 87 84 34 
117 11 108 62 21 11 120 95 89 51 97 85 53 
118 11 27 6 109 67 42 76 47 86 104 18 48 
119 11 31 80 34 22 68 13 24 92 26 33 15 
120 11 95 62 11 85 117 89 17 108 81 39 53 
DEPOT_SECTION
   1
   -1
EOF
