NAME :  X-n101-kX-w40-c11.cctp
COMMENT : 	Adapted by Maziero, Usberti and Cavellucci from the Uchoa, Pecin, Pessoa, Poggi, Subramanian, and Vidal (2013)
TYPE :  CCTP
DIMENSION :    101
EDGE_WEIGHT_TYPE : 	EUC_2D	
CAPACITY : 	206
VERTICES_WITHIN_COVERAGE :  11
VERTICES_WITH_DEMAND : 	40
NODE_COORD_SECTION
1 365 689
2 146 180
3 792 5
4 658 510
5 461 270
6 299 531
7 812 228
8 643 90
9 615 630
10 258 42
11 616 299
12 475 957
13 425 473
14 406 64
15 656 369
16 202 467
17 318 21
18 579 587
19 458 354
20 575 871
21 47 512
22 568 742
23 128 436
24 546 806
25 197 696
26 615 300
27 852 563
28 772 803
29 678 342
30 916 176
31 390 949
32 113 782
33 226 736
34 119 923
35 584 572
36 134 554
37 912 173
38 827 233
39 851 677
40 598 322
41 627 472
42 94 442
43 688 274
44 977 176
45 597 461
46 931 23
47 170 640
48 941 601
49 873 487
50 797 95
51 451 816
52 866 970
53 833 912
54 106 913
55 260 107
56 332 45
57 685 613
58 728 372
59 487 497
60 702 440
61 717 412
62 635 794
63 927 972
64 635 356
65 634 540
66 658 261
67 303 168
68 707 410
69 254 135
70 346 29
71 75 79
72 893 987
73 729 372
74 29 910
75 356 39
76 274 943
77 322 96
78 664 396
79 704 236
80 415 837
81 576 587
82 750 977
83 726 363
84 861 948
85 302 129
86 415 989
87 199 135
88 801 405
89 679 426
90 994 804
91 311 116
92 739 898
93 268 97
94 176 991
95 688 588
96 107 836
97 708 522
98 679 864
99 985 877
100 954 950
101 615 750
DEMAND_SECTION
2 38
3 51
4 73
5 70
6 58
7 54
8 1
9 98
10 62
11 98
12 25
13 86
14 46
15 27
16 17
17 97
18 74
19 81
20 62
21 59
22 23
23 62
24 66
25 35
26 53
27 18
28 87
29 32
30 4
31 61
32 95
33 23
34 15
35 5
36 53
37 97
38 70
39 32
40 27
41 42
COVERAGE_SECTION
2 11 87 69 71 55 93 67 85 91 10 77 56 
3 11 50 46 8 37 30 7 38 79 44 43 66 
4 11 65 41 97 45 60 95 89 35 57 18 68 
5 11 19 40 26 11 67 64 66 13 14 85 91 
6 11 16 13 36 47 59 25 23 33 42 19 21 
7 11 38 79 37 30 43 50 66 83 73 58 44 
8 11 50 79 3 66 43 11 26 7 38 40 14 
9 11 18 81 35 57 95 65 101 22 4 97 41 
10 11 93 17 55 56 77 70 91 69 85 75 87 
11 11 26 40 66 64 29 43 15 78 79 83 58 
12 11 86 31 20 80 51 24 76 98 62 22 101 
13 11 59 19 6 45 35 81 18 41 5 65 16 
14 11 75 70 56 77 17 91 85 93 67 10 55 
15 11 64 78 29 89 68 83 58 73 40 61 26 
16 11 23 36 42 6 21 47 13 25 33 19 59 
17 11 56 70 75 10 77 93 91 14 55 85 69 
18 11 81 35 9 65 57 95 4 41 45 59 97 
19 11 5 13 40 59 26 11 45 64 15 41 78 
20 11 24 62 98 101 22 12 51 80 92 86 31 
21 11 42 36 23 16 47 25 6 32 33 96 2 
22 11 101 24 62 9 20 51 18 81 98 35 57 
23 11 42 16 21 36 6 47 2 25 13 87 33 
24 11 22 20 101 62 51 80 98 12 9 31 92 
25 11 33 47 32 36 96 6 16 54 21 34 76 
26 11 11 40 66 64 29 43 15 78 79 83 58 
27 11 49 48 39 97 88 95 57 60 4 61 68 
28 11 92 98 53 62 39 101 84 82 52 20 57 
29 11 15 64 83 78 58 73 43 68 11 26 61 
30 11 37 44 38 7 50 46 3 79 43 88 83 
31 11 86 12 80 76 51 20 24 94 33 34 22 
32 11 96 25 33 54 34 47 74 94 76 36 21 
33 11 25 47 32 96 36 76 54 80 34 6 51 
34 11 54 96 94 74 32 76 33 25 31 47 86 
35 11 18 81 65 9 4 95 41 57 45 59 97 
36 11 47 21 16 23 42 25 6 33 32 96 13 
37 11 30 44 38 7 50 46 3 79 43 88 83 
38 11 7 37 30 79 50 43 44 83 73 58 66 
39 11 27 48 28 57 95 49 90 97 53 9 99 
40 11 26 11 64 15 29 66 78 43 89 83 79 
41 11 45 4 65 89 60 78 97 68 15 61 35 
42 11 23 21 16 36 47 6 2 25 33 87 13 
43 11 66 79 29 11 26 83 64 15 40 58 73 
44 11 30 37 38 46 7 50 3 79 88 43 83 
45 11 41 4 65 89 78 60 15 35 64 59 68 
46 11 3 37 50 30 44 38 7 8 79 43 66 
47 11 25 36 33 32 6 16 21 96 23 42 54 
48 11 27 39 49 90 88 97 95 57 28 99 60 
49 11 27 88 48 97 61 60 68 73 58 39 83 
50 11 3 7 37 38 30 46 8 79 44 43 66 
51 11 80 24 20 22 12 31 86 101 62 76 98 
52 11 84 72 63 53 100 82 92 99 28 90 98 
53 11 84 52 92 72 82 63 28 100 99 98 90 
54 11 34 74 96 94 32 76 33 25 47 31 80 
55 11 93 69 85 91 77 10 87 67 56 17 70 
56 11 70 75 17 77 10 91 14 93 85 55 69 
57 11 95 9 65 97 4 18 35 81 41 101 22 
58 11 73 83 61 68 29 78 15 60 89 88 64 
59 11 13 45 35 81 18 41 19 65 4 9 6 
60 11 89 68 61 78 58 73 83 41 97 4 15 
61 11 68 60 89 58 73 83 78 15 29 88 64 
62 11 101 98 22 24 20 28 92 9 51 57 95 
63 11 100 72 52 84 99 53 82 90 92 28 98 
64 11 15 29 78 40 26 11 89 68 83 58 73 
65 11 4 35 41 18 95 81 97 45 57 9 60 
66 11 43 79 11 26 29 40 64 15 83 58 73 
67 11 85 91 69 77 55 93 87 56 10 75 70 
68 11 61 60 89 58 73 78 83 15 29 64 88 
69 11 55 93 85 87 67 91 77 10 2 56 17 
70 11 75 56 17 14 77 10 91 93 85 55 69 
71 11 2 87 10 55 69 93 85 91 67 77 17 
72 11 52 63 84 100 53 82 99 92 90 28 98 
73 11 58 83 61 68 29 78 15 60 89 88 64 
74 11 54 34 96 32 94 76 33 25 47 31 36 
75 11 70 56 17 14 77 91 10 85 93 55 67 
76 11 94 31 86 34 54 80 96 12 33 51 32 
77 11 91 85 56 93 55 75 70 67 17 69 10 
78 11 15 89 68 64 61 29 60 58 73 83 41 
79 11 43 66 7 11 29 26 38 83 40 58 64 
80 11 51 31 12 24 86 20 76 22 33 101 62 
81 11 18 35 9 65 4 57 95 41 59 45 97 
82 11 92 53 84 52 98 72 28 63 20 100 62 
83 11 58 73 61 68 29 15 78 89 60 88 64 
84 11 52 53 72 63 100 82 92 99 28 90 98 
85 11 91 67 77 55 93 69 56 10 87 75 17 
86 11 31 12 76 80 51 20 24 94 22 98 62 
87 11 69 55 2 93 85 67 10 91 77 71 56 
88 11 73 58 61 83 68 60 49 89 78 29 15 
89 11 60 68 78 61 15 41 58 73 83 64 29 
90 11 99 100 63 39 53 84 72 48 52 28 92 
91 11 85 77 93 55 67 69 56 75 10 70 17 
92 11 98 82 53 28 84 52 62 20 72 101 63 
93 11 55 69 85 91 77 10 67 87 56 17 70 
94 11 34 54 76 74 96 31 32 86 33 80 25 
95 11 57 97 65 4 9 35 18 81 41 60 45 
96 11 32 54 34 74 33 25 94 76 47 36 31 
97 11 4 95 65 60 57 41 89 61 68 45 78 
98 11 92 62 20 28 101 82 24 53 22 84 52 
99 11 90 100 63 72 84 52 53 28 39 92 82 
100 11 63 72 99 52 84 53 90 82 92 28 98 
101 11 22 62 24 9 20 98 57 28 18 81 51 
DEPOT_SECTION
   1
   -1
EOF
