NAME :  X-n129-kX-w51-c7.cctp
COMMENT : 	Adapted by Maziero, Usberti and Cavellucci from the Uchoa, Pecin, Pessoa, Poggi, Subramanian, and Vidal (2013)
TYPE :  CCTP
DIMENSION :    125
EDGE_WEIGHT_TYPE : 	EUC_2D	
CAPACITY : 	39
VERTICES_WITHIN_COVERAGE :  7
VERTICES_WITH_DEMAND : 	51
NODE_COORD_SECTION
1 0 0
2 51 570
3 691 985
4 66 119
5 502 415
6 434 289
7 427 584
8 342 576
9 790 87
10 312 475
11 908 531
12 840 566
13 863 232
14 284 833
15 515 175
16 9 243
17 768 209
18 777 582
19 84 508
20 380 523
21 255 267
22 544 961
23 408 661
24 57 588
25 278 44
26 168 722
27 726 406
28 223 385
29 495 70
30 560 632
31 235 655
32 643 127
33 765 267
34 459 976
35 585 962
36 154 796
37 650 444
38 931 52
39 377 19
40 178 633
41 917 803
42 871 677
43 667 164
44 208 651
45 35 437
46 503 680
47 462 870
48 322 123
49 677 829
50 878 407
51 223 251
52 671 94
53 218 351
54 375 220
55 367 567
56 986 869
57 236 769
58 202 998
59 761 712
60 75 520
61 14 737
62 895 632
63 224 725
64 328 387
65 36 300
66 817 531
67 31 283
68 209 574
69 490 395
70 659 121
71 410 207
72 761 450
73 768 348
74 873 349
75 439 179
76 51 269
77 886 558
78 151 752
79 208 186
80 897 547
81 469 396
82 607 437
83 202 433
84 642 100
85 180 703
86 873 595
87 103 184
88 466 416
89 8 357
90 51 200
91 899 471
92 67 236
93 482 432
94 991 388
95 933 309
96 649 131
97 497 404
98 626 195
99 807 375
100 776 626
101 624 275
102 55 288
103 877 515
104 821 533
105 456 317
106 625 410
107 783 403
108 662 97
109 733 533
110 499 470
111 766 340
112 206 385
113 822 285
114 934 461
115 533 242
116 442 24
117 303 249
118 675 92
119 467 432
120 385 239
121 272 512
122 567 124
123 738 447
124 379 165
125 610 408
DEMAND_SECTION
2 9
3 8
4 8
5 4
6 4
7 3
8 6
9 10
10 8
11 8
12 3
13 2
14 8
15 4
16 9
17 4
18 6
19 5
20 1
21 2
22 2
23 4
24 2
25 3
26 6
27 7
28 8
29 9
30 8
31 7
32 9
33 5
34 4
35 8
36 2
37 8
38 8
39 9
40 10
41 9
42 5
43 1
44 3
45 10
46 10
47 2
48 10
49 4
50 6
51 7
52 3
COVERAGE_SECTION
2 7 24 60 19 45 40 68 61 
3 7 35 22 49 34 47 59 41 
4 7 87 90 92 16 76 79 67 
5 7 97 69 93 88 81 119 110 
6 7 105 120 71 54 75 115 81 
7 7 55 20 23 8 46 110 30 
8 7 55 20 7 121 10 23 31 
9 7 118 52 17 108 70 38 43 
10 7 121 20 64 8 55 83 28 
11 7 80 77 103 91 86 114 12 
12 7 104 66 86 77 80 103 18 
13 7 113 17 33 95 74 111 73 
14 7 57 63 36 78 26 85 47 
15 7 115 122 75 29 71 98 124 
16 6 67 76 92 90 65 102 
17 7 33 113 13 43 9 111 73 
18 7 100 12 66 104 109 86 77 
19 7 60 2 24 45 83 68 40 
20 7 55 8 7 10 121 119 110 
21 7 51 117 53 79 28 112 54 
22 7 35 34 47 3 49 46 14 
23 7 7 46 55 8 20 30 31 
24 7 2 60 19 40 45 68 61 
25 7 48 39 79 124 116 54 117 
26 7 85 78 63 36 44 57 40 
27 7 123 72 107 73 111 37 99 
28 6 112 53 83 64 21 10 
29 7 116 122 15 75 39 84 124 
30 7 46 7 23 110 109 82 55 
31 7 44 40 63 85 68 26 57 
32 7 96 70 84 108 52 43 118 
33 7 17 113 111 73 13 99 74 
34 7 22 47 35 14 3 58 49 
35 7 22 3 34 47 49 46 59 
36 7 78 26 57 85 63 14 61 
37 7 106 82 125 27 123 72 109 
38 7 9 13 17 95 113 118 52 
39 7 116 25 48 29 124 75 71 
40 7 44 31 68 85 26 63 78 
41 7 56 42 62 59 86 100 49 
42 7 62 86 100 12 59 77 80 
43 7 96 32 70 98 108 84 52 
44 7 31 40 85 63 68 26 78 
45 6 89 19 60 2 65 102 
46 7 30 23 7 55 8 47 20 
47 7 34 22 35 14 46 23 49 
48 7 124 25 54 39 71 117 75 
49 7 59 3 35 22 47 100 30 
50 7 74 91 99 114 107 103 95 
51 6 21 79 117 53 28 112 
52 7 118 108 70 84 32 96 43 
53 6 28 112 83 21 51 64 
54 7 120 71 124 75 117 6 48 
55 7 8 20 7 23 10 121 68 
56 7 41 42 62 59 86 49 3 
57 7 63 14 26 36 78 85 31 
58 7 14 36 57 78 34 63 26 
59 7 100 42 18 49 62 86 12 
60 7 19 2 24 45 68 40 83 
61 7 78 36 24 26 85 2 40 
62 7 86 42 77 80 12 11 103 
63 7 57 85 26 31 44 78 36 
64 7 10 28 53 112 83 121 21 
65 6 67 102 76 16 89 92 
66 7 104 12 103 18 77 80 109 
67 6 65 76 102 16 92 89 
68 7 40 44 31 121 85 8 19 
69 7 97 81 5 88 93 119 110 
70 7 96 32 108 84 52 118 43 
71 7 54 75 120 124 6 15 117 
72 7 123 107 27 99 109 66 73 
73 7 111 99 107 27 33 113 72 
74 7 50 99 95 113 73 107 111 
75 7 71 124 15 54 120 6 115 
76 6 102 67 65 92 16 90 
77 7 80 11 86 103 12 104 66 
78 7 26 36 85 63 57 44 40 
79 6 51 21 87 117 48 92 
80 7 77 11 103 86 12 91 104 
81 7 88 69 97 119 5 93 105 
82 6 125 106 37 5 110 97 
83 7 112 28 53 121 10 64 19 
84 7 108 32 70 52 96 118 43 
85 7 26 63 78 44 40 31 57 
86 7 77 62 12 80 11 103 104 
87 7 90 92 4 76 79 16 102 
88 7 119 81 93 69 97 5 110 
89 6 65 67 102 45 76 16 
90 7 92 87 16 76 4 67 102 
91 7 114 103 11 50 80 77 104 
92 7 76 90 102 16 67 87 65 
93 7 119 88 5 97 69 81 110 
94 7 114 95 50 74 91 11 103 
95 7 74 94 13 50 113 99 114 
96 7 32 70 84 108 43 52 118 
97 7 69 5 81 93 88 119 110 
98 7 43 96 32 101 70 122 84 
99 7 107 73 111 74 50 27 72 
100 7 18 59 12 86 109 66 104 
101 5 98 115 43 125 106 
102 5 76 65 67 92 16 
103 7 11 80 77 91 104 66 12 
104 7 66 12 103 18 77 80 86 
105 7 6 81 69 97 88 120 115 
106 5 125 82 37 27 123 
107 7 99 72 27 73 123 111 50 
108 7 52 118 84 70 32 96 43 
109 7 18 66 123 72 104 100 12 
110 7 93 119 5 88 97 69 81 
111 7 73 99 107 33 27 113 74 
112 6 28 53 83 64 21 51 
113 7 33 13 111 74 73 99 17 
114 7 91 11 50 103 94 80 77 
115 5 15 101 98 105 6 
116 7 39 29 124 75 48 122 25 
117 7 21 54 51 120 124 79 71 
118 7 52 108 70 84 32 96 43 
119 7 93 88 81 5 97 69 110 
120 7 54 71 6 124 75 117 105 
121 7 10 68 8 83 20 55 28 
122 7 15 32 84 96 29 70 98 
123 7 72 27 107 109 37 99 73 
124 7 71 54 75 48 120 117 6 
125 5 106 82 37 5 97 
DEPOT_SECTION
   1
   -1
EOF
