NAME :  X-n153-kX-w30-c7.cctp
COMMENT : 	Adapted by Maziero, Usberti and Cavellucci from the Uchoa, Pecin, Pessoa, Poggi, Subramanian, and Vidal (2013)
TYPE :  CCTP
DIMENSION :    128
EDGE_WEIGHT_TYPE : 	EUC_2D	
CAPACITY : 	144
VERTICES_WITHIN_COVERAGE :  7
VERTICES_WITH_DEMAND : 	30
NODE_COORD_SECTION
1 500 500
2 238 446
3 749 750
4 960 879
5 955 866
6 202 336
7 720 788
8 695 743
9 739 603
10 217 419
11 922 870
12 703 733
13 843 856
14 233 682
15 259 459
16 226 305
17 732 722
18 747 858
19 949 784
20 904 891
21 880 795
22 591 661
23 984 926
24 246 438
25 183 501
26 546 966
27 742 771
28 110 698
29 193 441
30 215 388
31 232 516
32 133 526
33 750 680
34 103 488
35 663 731
36 754 821
37 280 456
38 236 424
39 287 454
40 598 728
41 996 821
42 744 473
43 887 907
44 286 422
45 272 484
46 939 892
47 769 768
48 977 840
49 727 765
50 950 896
51 206 433
52 207 535
53 164 586
54 754 691
55 662 768
56 348 308
57 254 455
58 130 482
59 764 726
60 713 758
61 965 934
62 693 734
63 890 801
64 727 808
65 955 756
66 249 552
67 188 479
68 187 506
69 901 767
70 664 770
71 558 530
72 714 742
73 979 683
74 200 416
75 294 391
76 240 449
77 735 633
78 944 952
79 157 421
80 768 750
81 813 936
82 534 720
83 986 914
84 963 798
85 175 397
86 972 940
87 184 561
88 859 770
89 661 762
90 298 469
91 14 438
92 275 561
93 856 919
94 219 453
95 272 465
96 294 296
97 754 775
98 229 467
99 946 778
100 711 803
101 858 879
102 665 347
103 981 802
104 267 545
105 760 764
106 942 894
107 219 465
108 665 756
109 92 212
110 937 814
111 281 489
112 669 647
113 308 309
114 998 876
115 900 910
116 753 900
117 209 467
118 991 966
119 766 729
120 224 368
121 707 703
122 280 450
123 252 462
124 717 683
125 278 356
126 144 446
127 991 818
128 831 812
DEMAND_SECTION
2 92
3 90
4 65
5 80
6 69
7 64
8 73
9 96
10 74
11 81
12 67
13 58
14 79
15 85
16 57
17 90
18 84
19 84
20 92
21 87
22 95
23 66
24 86
25 90
26 94
27 84
28 98
29 65
30 68
31 73
COVERAGE_SECTION
2 7 76 24 57 94 123 38 98 
3 7 105 80 27 97 47 49 119 
4 7 5 50 106 46 114 11 48 
5 7 4 50 46 106 11 48 114 
6 7 16 120 30 85 125 74 10 
7 7 100 64 49 27 60 97 72 
8 7 62 12 72 60 108 35 49 
9 5 77 33 112 124 54 
10 7 74 51 38 30 29 2 94 
11 7 20 46 106 5 50 4 115 
12 7 62 8 72 60 121 17 35 
13 7 101 128 93 43 20 21 63 
14 7 53 28 92 66 87 104 52 
15 7 57 123 95 37 76 122 2 
16 7 6 120 96 125 113 30 85 
17 7 72 12 121 59 3 119 54 
18 7 36 116 64 100 7 97 27 
19 7 99 84 65 110 103 69 127 
20 7 115 43 11 46 106 50 101 
21 7 63 88 69 128 110 99 19 
22 5 40 112 82 35 108 
23 7 83 86 61 118 50 78 114 
24 7 2 76 38 57 15 123 94 
25 7 68 67 52 117 31 107 32 
26 7 116 18 55 70 100 89 64 
27 7 97 49 105 3 47 7 60 
28 7 14 53 87 32 52 66 68 
29 7 51 74 94 117 10 107 67 
30 7 120 10 74 85 38 51 6 
31 7 52 66 104 68 98 25 45 
32 7 58 34 25 68 87 53 67 
33 6 54 124 17 59 77 121 
34 7 58 32 126 25 67 68 79 
35 5 108 62 89 8 55 
36 7 64 18 97 7 100 27 47 
37 7 122 39 95 15 90 57 45 
38 7 24 10 2 76 51 94 57 
39 7 37 122 90 95 15 44 57 
40 5 82 35 22 89 108 
41 7 127 103 48 84 114 110 19 
42 5 9 102 77 112 71 
43 5 115 20 93 101 11 
44 7 122 39 75 37 24 95 15 
45 7 111 95 15 37 90 123 39 
46 7 106 50 4 11 5 20 115 
47 7 105 97 80 3 27 119 49 
48 7 127 41 5 103 114 4 84 
49 7 27 60 7 72 3 97 105 
50 7 106 46 4 5 11 83 61 
51 7 29 10 74 94 38 117 2 
52 7 31 68 87 25 66 67 104 
53 7 87 52 32 68 25 66 31 
54 6 33 59 17 124 119 121 
55 6 70 89 108 35 8 62 
56 6 113 96 125 75 16 44 
57 7 15 123 76 2 24 95 37 
58 7 34 126 32 25 67 68 79 
59 7 119 80 3 17 54 105 47 
60 7 49 72 8 12 7 62 27 
61 6 86 23 78 83 50 118 
62 7 8 12 72 35 60 121 108 
63 7 21 69 88 110 128 19 99 
64 7 100 7 36 27 49 97 60 
65 7 99 19 84 103 69 110 127 
66 7 104 92 31 52 87 111 45 
67 7 25 117 68 107 29 94 98 
68 7 25 67 52 117 31 107 87 
69 7 21 63 88 99 19 65 110 
70 6 55 89 108 35 8 62 
71 5 22 112 82 9 42 
72 7 12 60 8 62 49 17 3 
73 5 65 99 19 69 84 
74 7 10 51 29 85 30 38 94 
75 6 44 125 122 39 37 24 
76 7 2 24 57 123 15 94 98 
77 5 9 33 124 54 112 
78 3 61 86 23 
79 7 126 85 29 74 51 10 67 
80 7 105 47 3 119 59 97 27 
81 6 93 116 101 43 13 115 
82 5 40 22 35 89 108 
83 7 23 61 86 50 114 4 106 
84 7 103 19 99 110 127 41 65 
85 7 79 74 30 10 29 51 120 
86 6 61 23 78 83 118 50 
87 7 53 52 68 25 32 31 66 
88 4 21 69 63 128 
89 6 55 108 70 35 8 62 
90 7 39 37 95 111 122 45 15 
91 7 34 58 126 79 32 85 29 
92 7 104 66 31 111 52 45 87 
93 5 43 101 115 81 20 
94 7 107 98 117 2 76 51 29 
95 7 37 15 122 39 45 123 57 
96 7 113 56 125 16 75 6 120 
97 7 27 105 47 3 49 80 7 
98 7 107 94 117 76 2 123 57 
99 7 19 65 84 110 103 69 127 
100 7 7 64 49 27 60 36 97 
101 7 13 43 93 20 115 11 128 
102 5 42 71 9 77 112 
103 7 84 127 41 19 48 99 110 
104 7 92 66 31 111 45 52 95 
105 7 47 97 80 3 27 49 119 
106 7 46 50 4 5 11 20 115 
107 7 98 117 94 76 2 123 67 
108 6 89 55 70 35 8 62 
109 7 16 6 85 120 30 79 96 
110 7 84 19 99 103 48 63 127 
111 7 45 90 95 37 39 15 122 
112 6 124 77 121 22 9 35 
113 6 96 56 125 16 75 120 
114 7 4 83 48 5 23 50 41 
115 5 43 20 46 93 106 
116 7 18 81 36 64 13 93 100 
117 7 107 94 98 67 29 51 2 
118 5 86 23 61 78 83 
119 7 59 80 3 17 105 47 54 
120 7 30 6 10 74 125 38 85 
121 7 124 12 17 62 72 8 33 
122 7 37 39 95 15 57 90 44 
123 7 57 15 76 95 2 98 24 
124 7 121 33 54 17 12 77 62 
125 7 75 120 113 96 44 30 16 
126 7 79 58 29 67 85 34 51 
127 7 41 103 48 84 19 110 114 
128 7 13 88 21 63 101 47 36 
DEPOT_SECTION
   1
   -1
EOF
