NAME :  X-n186-kX-w74-c9.cctp
COMMENT : 	Adapted by Maziero, Usberti and Cavellucci from the Uchoa, Pecin, Pessoa, Poggi, Subramanian, and Vidal (2013)
TYPE :  CCTP
DIMENSION :    186
EDGE_WEIGHT_TYPE : 	EUC_2D	
CAPACITY : 	974
VERTICES_WITHIN_COVERAGE :  9
VERTICES_WITH_DEMAND : 	74
NODE_COORD_SECTION
1 159 917
2 635 200
3 278 907
4 875 93
5 10 732
6 586 657
7 482 75
8 526 176
9 153 622
10 452 945
11 456 137
12 884 968
13 688 793
14 117 915
15 149 746
16 495 325
17 539 967
18 917 58
19 590 316
20 611 998
21 963 878
22 141 5
23 383 531
24 685 124
25 39 781
26 534 29
27 213 837
28 874 734
29 180 943
30 789 541
31 343 949
32 537 248
33 626 147
34 56 596
35 112 344
36 738 977
37 941 193
38 437 386
39 440 770
40 743 623
41 521 398
42 488 747
43 321 734
44 521 778
45 90 89
46 716 652
47 333 12
48 244 424
49 199 115
50 83 719
51 126 148
52 789 437
53 728 336
54 504 704
55 933 949
56 232 78
57 382 130
58 346 2
59 61 985
60 357 505
61 199 892
62 930 154
63 400 95
64 148 261
65 41 527
66 29 335
67 913 885
68 293 784
69 102 962
70 372 866
71 144 223
72 684 899
73 402 636
74 138 705
75 715 745
76 914 323
77 287 3
78 461 953
79 826 351
80 780 165
81 935 38
82 927 350
83 754 709
84 784 423
85 849 726
86 74 778
87 354 750
88 628 487
89 362 568
90 898 759
91 563 171
92 721 637
93 136 83
94 341 955
95 892 938
96 671 542
97 659 306
98 805 670
99 930 778
100 791 763
101 747 285
102 641 347
103 846 685
104 598 253
105 45 585
106 654 70
107 887 421
108 310 854
109 527 787
110 602 66
111 878 10
112 351 797
113 995 987
114 697 200
115 722 246
116 847 208
117 577 295
118 102 478
119 899 185
120 123 601
121 230 342
122 438 547
123 968 649
124 214 379
125 242 769
126 273 194
127 66 727
128 354 338
129 725 735
130 632 849
131 411 272
132 481 165
133 121 414
134 492 78
135 794 406
136 736 937
137 701 496
138 282 94
139 87 12
140 963 619
141 61 688
142 387 244
143 740 242
144 209 571
145 631 208
146 643 521
147 280 11
148 226 40
149 161 296
150 839 54
151 814 504
152 967 668
153 236 704
154 218 618
155 526 667
156 87 981
157 768 197
158 976 122
159 177 712
160 449 902
161 492 63
162 761 122
163 609 621
164 614 240
165 478 599
166 175 312
167 239 636
168 347 199
169 619 620
170 275 24
171 565 769
172 120 871
173 140 957
174 68 736
175 661 294
176 604 737
177 91 956
178 16 561
179 680 254
180 173 171
181 852 978
182 533 757
183 352 957
184 409 939
185 630 902
186 487 220
DEMAND_SECTION
2 74
3 74
4 80
5 85
6 99
7 81
8 85
9 100
10 74
11 57
12 60
13 74
14 60
15 77
16 72
17 87
18 89
19 53
20 72
21 62
22 53
23 54
24 98
25 65
26 72
27 81
28 84
29 64
30 52
31 60
32 95
33 55
34 79
35 97
36 51
37 93
38 50
39 93
40 95
41 90
42 95
43 71
44 89
45 77
46 81
47 74
48 53
49 79
50 58
51 61
52 97
53 93
54 95
55 80
56 72
57 92
58 88
59 90
60 85
61 83
62 83
63 59
64 75
65 80
66 55
67 66
68 99
69 89
70 53
71 64
72 85
73 52
74 60
75 63
COVERAGE_SECTION
2 9 145 164 33 114 104 179 91 24 115 
3 9 108 31 94 61 183 27 70 29 68 
4 9 150 18 81 62 111 119 158 116 162 
5 9 127 25 174 141 50 86 74 15 34 
6 9 163 169 155 176 54 182 171 165 46 
7 9 134 161 11 26 63 132 8 57 110 
8 9 91 132 186 32 11 33 134 104 164 
9 9 120 154 144 74 167 159 34 141 105 
10 9 78 160 184 17 183 31 94 70 20 
11 9 132 7 134 63 57 8 161 186 91 
12 9 95 181 55 67 113 21 36 136 99 
13 9 75 129 130 176 72 83 100 185 171 
14 9 172 173 69 177 29 156 61 59 27 
15 9 74 159 50 86 174 127 125 153 141 
16 9 41 38 117 32 19 131 186 104 142 
17 9 20 78 10 160 185 184 130 72 109 
18 9 81 4 111 150 158 62 119 37 116 
19 9 117 102 104 97 175 164 32 16 41 
20 9 17 185 72 36 136 130 78 10 160 
21 9 67 55 95 99 113 12 90 181 28 
22 9 139 93 148 45 56 49 170 147 51 
23 9 60 89 122 73 165 38 48 167 144 
24 9 106 33 162 114 2 145 110 80 157 
25 9 86 174 5 127 50 141 15 172 74 
26 9 161 134 7 110 106 11 91 132 8 
27 9 61 125 3 68 108 172 15 29 14 
28 9 85 90 103 99 100 98 152 83 123 
29 9 173 61 14 69 177 172 156 3 27 
30 9 151 40 137 52 84 92 96 98 46 
31 9 94 183 184 3 70 108 10 160 78 
32 9 186 104 117 8 164 91 19 16 132 
33 9 2 145 24 91 106 110 114 164 8 
34 9 105 178 120 65 141 9 50 118 127 
35 9 149 133 166 66 64 124 121 71 118 
36 9 136 72 181 20 185 12 95 130 13 
37 9 62 119 158 116 4 76 18 81 82 
38 9 16 41 128 131 60 142 23 122 117 
39 9 42 44 87 109 54 112 182 70 43 
40 9 92 46 98 83 30 96 129 103 169 
41 9 16 38 19 117 102 88 32 104 97 
42 9 44 54 182 39 109 171 155 176 6 
43 9 87 68 112 125 153 108 39 73 167 
44 9 109 182 42 171 54 39 176 155 130 
45 9 93 51 139 22 49 180 56 71 148 
46 9 92 40 83 129 98 75 169 163 96 
47 9 58 77 147 170 138 63 148 56 57 
48 9 124 121 133 166 60 128 144 118 149 
49 9 56 180 93 51 148 138 126 45 170 
50 9 127 174 141 74 86 15 5 25 159 
51 9 180 93 45 71 49 64 56 139 22 
52 9 84 135 151 79 107 30 137 53 96 
53 9 101 97 175 102 115 143 179 135 79 
54 9 155 42 182 44 109 171 39 6 176 
55 9 95 12 67 113 21 181 99 90 36 
56 9 148 49 138 170 147 77 93 180 22 
57 9 63 11 168 132 138 7 142 134 126 
58 9 47 77 147 170 63 138 148 57 56 
59 9 156 177 69 173 14 29 172 61 25 
60 9 23 89 122 48 73 38 165 144 128 
61 9 29 27 3 172 14 173 108 69 177 
62 9 37 119 158 4 18 116 81 150 80 
63 9 57 11 7 134 161 47 132 58 168 
64 9 149 71 166 35 180 51 121 124 66 
65 9 178 105 34 118 120 133 9 141 144 
66 9 35 133 149 64 166 71 118 124 65 
67 9 21 95 55 12 99 181 90 113 28 
68 9 125 43 112 87 108 27 153 70 3 
69 9 177 156 173 59 14 29 172 61 27 
70 9 108 112 184 160 31 183 94 3 10 
71 9 64 180 149 51 166 49 35 126 93 
72 9 185 136 130 36 13 20 75 17 129 
73 9 89 165 122 23 54 87 43 155 39 
74 9 159 15 50 127 174 141 9 86 153 
75 9 129 83 13 100 46 92 176 98 40 
76 9 82 79 107 37 116 119 135 84 52 
77 9 147 170 47 58 148 138 56 49 22 
78 9 10 160 184 17 183 31 94 70 20 
79 9 135 84 76 107 52 53 82 101 143 
80 9 157 162 116 143 114 115 24 4 119 
81 9 18 111 4 158 150 62 119 37 116 
82 9 76 107 79 135 37 84 52 116 119 
83 9 129 75 98 100 46 92 40 103 85 
84 9 52 135 79 151 53 107 137 30 101 
85 9 28 103 90 100 98 99 83 129 152 
86 9 25 174 127 50 5 15 141 74 172 
87 9 43 112 68 39 108 125 70 73 153 
88 9 146 96 137 169 163 41 102 52 84 
89 9 23 60 73 122 165 167 154 144 43 
90 9 28 99 85 103 100 152 67 98 123 
91 9 8 33 145 2 32 132 164 104 186 
92 9 46 40 83 98 129 169 96 75 163 
93 9 45 51 49 22 139 180 56 148 71 
94 9 31 183 184 3 70 108 10 78 160 
95 9 12 55 67 181 21 113 136 36 99 
96 9 146 137 88 169 163 92 40 30 46 
97 9 175 102 179 19 53 164 104 117 115 
98 9 103 83 85 40 92 46 28 100 129 
99 9 90 28 85 21 67 152 103 123 100 
100 9 83 85 129 75 28 98 103 13 90 
101 9 143 115 53 179 175 97 157 114 79 
102 9 97 175 19 117 53 179 104 164 101 
103 9 85 98 28 90 83 100 40 152 99 
104 9 164 117 145 32 19 2 175 97 179 
105 9 34 178 65 120 141 9 118 50 127 
106 9 110 24 33 162 26 2 91 114 145 
107 9 82 79 135 52 76 84 151 30 53 
108 9 3 70 112 68 27 31 94 125 183 
109 9 44 182 171 42 54 39 176 155 130 
110 9 106 26 33 24 161 134 91 7 8 
111 9 150 18 81 4 158 62 162 119 80 
112 9 87 68 43 108 70 39 125 3 27 
113 9 55 12 21 95 67 181 99 90 36 
114 9 115 179 143 2 145 157 24 33 80 
115 9 143 179 101 114 157 175 97 53 2 
116 9 119 80 157 37 62 143 4 162 101 
117 9 19 104 32 164 102 97 175 16 145 
118 9 133 65 178 105 120 34 35 144 124 
119 9 37 62 116 4 158 80 18 157 76 
120 9 9 34 105 144 154 74 141 65 178 
121 9 124 166 48 149 64 35 128 133 71 
122 9 23 165 89 60 73 155 38 54 41 
123 9 152 140 28 103 90 99 85 98 30 
124 9 121 48 166 149 133 35 64 128 118 
125 9 68 153 27 43 159 15 108 112 87 
126 9 168 138 180 49 56 142 57 71 64 
127 9 174 50 141 86 5 25 74 15 159 
128 9 131 38 142 121 168 48 16 124 126 
129 9 75 83 13 100 46 92 98 40 176 
130 9 185 72 13 171 176 109 44 75 182 
131 9 142 128 186 168 16 38 32 132 11 
132 9 11 8 186 91 134 7 32 161 57 
133 9 118 35 124 166 66 48 149 121 65 
134 9 7 161 26 11 132 63 8 110 91 
135 9 84 52 79 107 53 151 137 101 30 
136 9 36 72 185 181 130 20 12 13 95 
137 9 96 146 88 30 52 84 151 135 40 
138 9 56 170 148 147 49 77 47 126 57 
139 9 22 45 93 51 148 49 56 180 170 
140 9 123 152 103 28 90 85 99 98 151 
141 9 50 127 174 5 74 86 34 25 105 
142 9 131 168 128 186 57 132 126 11 16 
143 9 115 101 157 114 179 80 53 175 97 
144 9 154 167 9 120 153 118 159 48 74 
145 9 2 164 104 33 114 179 91 175 115 
146 9 96 88 137 169 163 92 40 6 30 
147 9 77 170 47 148 58 56 138 49 22 
148 9 56 170 147 77 138 49 22 93 47 
149 9 166 64 35 71 121 124 133 180 66 
150 9 4 111 18 81 162 80 62 119 158 
151 9 30 52 84 135 107 137 40 96 79 
152 9 123 140 28 90 99 103 85 98 100 
153 9 159 125 167 154 43 15 68 74 9 
154 9 167 144 9 153 120 159 74 15 89 
155 9 54 6 165 42 182 163 169 176 171 
156 9 69 177 59 173 14 29 172 61 27 
157 9 80 143 115 114 162 116 101 179 24 
158 9 62 37 18 81 119 4 111 150 116 
159 9 74 15 153 125 9 50 167 154 127 
160 9 10 78 184 70 17 183 31 94 39 
161 9 134 7 26 11 63 132 110 8 57 
162 9 80 157 24 114 150 4 106 116 143 
163 9 169 6 155 96 146 46 92 176 165 
164 9 104 145 2 117 179 175 32 19 97 
165 9 122 155 73 54 23 89 6 163 169 
166 9 149 64 121 35 124 71 133 48 180 
167 9 154 153 144 9 159 120 74 43 125 
168 9 142 126 57 131 63 138 11 132 128 
169 9 163 6 96 46 146 92 155 176 40 
170 9 147 77 148 47 56 138 58 49 22 
171 9 182 109 44 176 42 54 130 155 6 
172 9 14 61 173 177 69 29 27 86 156 
173 9 69 29 14 177 156 59 61 172 27 
174 9 127 50 86 141 25 5 74 15 159 
175 9 97 179 102 164 19 104 115 53 117 
176 9 171 182 6 109 44 13 54 155 75 
177 9 69 156 59 14 173 29 172 61 27 
178 9 105 65 34 120 118 141 9 5 50 
179 9 115 175 97 114 143 145 164 2 101 
180 9 51 71 49 64 93 126 56 45 149 
181 9 12 95 55 67 36 136 113 21 72 
182 9 44 109 171 42 54 176 155 39 6 
183 9 94 31 184 3 70 10 78 108 160 
184 9 10 78 160 183 31 94 70 108 17 
185 9 130 72 20 17 136 13 36 171 109 
186 9 132 32 8 11 91 131 142 16 104 
DEPOT_SECTION
   1
   -1
EOF
