NAME :  X-n134-kX-w26-c7.cctp
COMMENT : 	Adapted by Maziero, Usberti and Cavellucci from the Uchoa, Pecin, Pessoa, Poggi, Subramanian, and Vidal (2013)
TYPE :  CCTP
DIMENSION :    125
EDGE_WEIGHT_TYPE : 	EUC_2D	
CAPACITY : 	643
VERTICES_WITHIN_COVERAGE :  7
VERTICES_WITH_DEMAND : 	26
NODE_COORD_SECTION
1 113 195
2 377 239
3 364 39
4 306 316
5 795 18
6 560 115
7 501 147
8 704 68
9 762 62
10 357 33
11 359 353
12 314 186
13 338 303
14 522 80
15 291 58
16 735 15
17 324 12
18 275 278
19 409 32
20 279 297
21 844 27
22 447 303
23 796 4
24 735 111
25 373 461
26 385 100
27 281 378
28 793 7
29 965 64
30 347 256
31 742 75
32 339 244
33 334 391
34 323 314
35 345 69
36 295 370
37 426 446
38 286 335
39 374 34
40 356 74
41 767 236
42 789 61
43 467 332
44 437 293
45 357 21
46 386 207
47 389 234
48 281 344
49 312 3
50 317 163
51 582 186
52 301 411
53 822 6
54 197 437
55 386 268
56 294 74
57 425 55
58 279 81
59 382 251
60 351 385
61 701 32
62 384 214
63 866 243
64 546 186
65 815 29
66 734 57
67 377 235
68 793 31
69 392 248
70 308 314
71 396 27
72 250 345
73 903 66
74 266 264
75 580 142
76 191 288
77 297 283
78 733 38
79 312 293
80 180 250
81 764 45
82 351 284
83 321 318
84 208 348
85 451 423
86 365 142
87 487 175
88 267 51
89 346 248
90 575 294
91 585 346
92 485 24
93 542 109
94 813 117
95 442 280
96 344 170
97 574 426
98 325 343
99 426 272
100 349 90
101 389 302
102 769 51
103 489 165
104 174 288
105 285 419
106 376 210
107 400 124
108 320 191
109 304 260
110 339 138
111 390 222
112 129 47
113 376 262
114 688 80
115 289 193
116 270 418
117 322 311
118 303 228
119 829 13
120 315 212
121 266 239
122 326 136
123 287 298
124 319 176
125 323 291
DEMAND_SECTION
2 53
3 73
4 60
5 20
6 23
7 3
8 46
9 28
10 84
11 72
12 64
13 100
14 10
15 74
16 29
17 87
18 95
19 51
20 67
21 17
22 51
23 33
24 12
25 85
26 54
27 79
COVERAGE_SECTION
2 7 67 47 59 69 111 113 62 
3 7 10 39 45 71 35 40 19 
4 7 70 83 34 117 79 123 38 
5 7 28 68 23 65 53 119 81 
6 7 93 75 14 7 64 51 103 
7 7 103 87 93 64 6 14 75 
8 7 114 66 61 31 78 24 9 
9 7 102 81 31 42 66 78 68 
10 7 3 45 39 35 17 71 40 
11 7 60 98 33 83 34 13 117 
12 7 108 124 50 115 120 96 118 
13 7 117 34 125 82 83 79 70 
14 7 93 6 92 7 75 103 57 
15 7 56 88 58 35 17 49 100 
16 7 78 61 66 81 102 9 28 
17 7 49 45 10 3 39 15 35 
18 7 74 20 77 123 109 79 121 
19 7 71 57 39 3 10 45 40 
20 7 123 18 77 4 79 70 74 
21 7 119 65 53 5 68 23 28 
22 5 44 95 43 99 101 
23 7 28 5 53 68 65 119 81 
24 7 31 8 66 9 114 102 81 
25 7 37 60 33 85 52 105 11 
26 7 107 100 40 86 35 57 110 
27 7 36 48 52 105 116 38 72 
28 7 23 5 68 53 65 119 81 
29 7 73 21 119 53 65 94 68 
30 7 89 32 82 113 2 59 67 
31 7 66 9 102 24 81 78 8 
32 7 89 30 2 109 67 118 120 
33 7 60 52 36 11 98 27 105 
34 7 117 83 70 4 13 125 79 
35 7 40 100 3 10 39 45 26 
36 7 27 48 38 98 52 33 105 
37 7 85 25 60 33 11 43 52 
38 7 48 4 70 36 72 123 20 
39 7 3 10 45 71 19 40 35 
40 7 35 100 3 26 10 39 45 
41 7 63 94 24 31 9 114 42 
42 7 102 9 68 81 65 5 31 
43 5 22 44 95 99 101 
44 6 22 95 99 43 101 55 
45 7 10 3 39 17 71 49 35 
46 6 62 106 111 47 67 2 
47 6 67 111 2 69 59 62 
48 7 38 36 72 27 4 70 98 
49 7 17 45 10 15 3 88 39 
50 7 124 12 96 108 122 110 115 
51 7 64 75 6 93 7 103 87 
52 7 105 116 27 33 36 60 48 
53 7 119 65 23 28 5 21 68 
54 7 116 84 105 27 72 52 36 
55 7 113 59 69 2 47 67 101 
56 7 15 58 88 35 100 40 17 
57 7 19 71 39 26 3 92 10 
58 7 56 15 88 35 100 122 40 
59 7 69 2 113 55 67 47 111 
60 7 33 11 98 52 36 27 83 
61 7 78 8 16 66 114 31 81 
62 6 46 106 111 47 67 2 
63 7 41 94 73 24 42 29 9 
64 7 51 75 7 87 103 6 93 
65 7 119 68 5 53 21 23 28 
66 7 78 31 9 8 81 102 61 
67 7 2 47 59 111 69 62 106 
68 7 5 65 28 23 42 102 81 
69 6 59 47 2 67 55 113 
70 7 4 83 117 34 79 123 125 
71 7 19 39 3 10 45 57 40 
72 7 48 38 84 27 36 20 123 
73 7 29 21 119 65 53 94 42 
74 7 18 121 20 77 109 123 118 
75 7 6 51 93 64 7 14 103 
76 7 104 80 84 74 72 18 20 
77 7 79 123 18 20 109 125 70 
78 7 66 16 81 61 9 31 102 
79 7 125 77 70 117 4 34 123 
80 5 104 76 74 121 18 
81 7 102 9 42 66 68 78 31 
82 7 13 30 125 113 89 55 79 
83 7 34 117 70 4 13 98 79 
84 7 72 76 104 48 27 38 20 
85 7 37 25 43 60 11 22 33 
86 7 110 96 107 122 26 50 100 
87 4 103 7 64 93 
88 7 15 58 56 49 17 35 100 
89 7 30 32 2 113 67 59 82 
90 6 91 51 64 43 22 97 
91 7 90 97 43 22 85 44 95 
92 7 14 57 19 71 93 39 6 
93 7 6 14 75 7 64 103 87 
94 7 42 9 24 102 31 81 65 
95 4 44 99 22 55 
96 7 124 50 108 110 12 86 122 
97 7 91 85 90 43 37 22 44 
98 7 83 34 117 4 70 11 36 
99 5 95 44 22 55 69 
100 7 40 35 26 110 122 3 86 
101 7 55 82 113 99 44 13 59 
102 7 81 9 42 68 31 66 78 
103 5 87 7 64 93 6 
104 6 76 80 84 72 74 18 
105 7 116 52 27 36 33 60 48 
106 6 62 46 111 67 47 2 
107 7 26 86 100 110 40 96 57 
108 7 12 124 120 50 115 96 118 
109 7 77 118 18 79 125 32 74 
110 7 122 86 96 50 124 100 12 
111 6 62 47 46 67 106 2 
112 4 88 58 15 56 
113 7 55 59 69 2 67 30 47 
114 7 8 61 66 31 24 78 9 
115 7 12 108 120 124 118 50 121 
116 7 105 52 27 36 33 48 54 
117 7 34 83 70 4 13 125 79 
118 7 120 109 115 32 121 108 12 
119 7 53 21 65 5 23 28 68 
120 7 118 108 12 115 124 32 89 
121 7 74 118 18 109 115 77 120 
122 7 110 50 96 86 124 12 100 
123 7 20 77 18 79 4 70 38 
124 7 12 50 108 96 115 120 122 
125 7 79 13 117 34 70 77 83 
DEPOT_SECTION
   1
   -1
EOF
