NAME :  X-n195-kX-w77-c9.cctp
COMMENT : 	Adapted by Maziero, Usberti and Cavellucci from the Uchoa, Pecin, Pessoa, Poggi, Subramanian, and Vidal (2013)
TYPE :  CCTP
DIMENSION :    165
EDGE_WEIGHT_TYPE : 	EUC_2D	
CAPACITY : 	181
VERTICES_WITHIN_COVERAGE :  9
VERTICES_WITH_DEMAND : 	77
NODE_COORD_SECTION
1 500 500
2 691 729
3 978 828
4 427 367
5 777 543
6 190 596
7 773 750
8 234 727
9 851 358
10 140 69
11 891 285
12 467 13
13 537 162
14 636 355
15 213 284
16 75 877
17 384 814
18 606 173
19 76 236
20 86 733
21 642 61
22 303 261
23 771 775
24 107 264
25 763 43
26 811 873
27 38 170
28 822 920
29 907 792
30 539 273
31 576 836
32 491 411
33 430 725
34 727 248
35 532 825
36 457 218
37 398 153
38 942 597
39 8 330
40 637 85
41 75 781
42 578 635
43 560 188
44 27 523
45 432 198
46 359 691
47 695 372
48 203 307
49 641 389
50 836 612
51 375 499
52 818 980
53 577 226
54 889 259
55 516 324
56 102 346
57 318 976
58 223 11
59 484 245
60 365 982
61 648 790
62 878 261
63 600 800
64 493 722
65 549 214
66 714 918
67 638 166
68 452 172
69 711 687
70 924 905
71 326 662
72 786 203
73 24 32
74 529 661
75 843 248
76 115 449
77 82 971
78 876 644
79 322 24
80 642 810
81 685 607
82 141 824
83 351 732
84 641 954
85 330 941
86 830 188
87 469 250
88 970 812
89 723 360
90 274 238
91 668 103
92 269 147
93 135 493
94 895 953
95 930 729
96 579 972
97 388 767
98 517 382
99 537 160
100 457 1
101 995 969
102 768 432
103 295 704
104 802 446
105 785 358
106 592 694
107 607 347
108 690 10
109 843 955
110 767 401
111 854 524
112 325 778
113 465 885
114 415 721
115 889 993
116 955 943
117 394 769
118 496 700
119 888 436
120 980 290
121 444 754
122 583 835
123 435 761
124 887 925
125 919 932
126 710 300
127 597 547
128 253 971
129 372 794
130 648 450
131 438 871
132 758 513
133 313 682
134 728 143
135 852 970
136 458 787
137 635 24
138 752 463
139 524 482
140 550 133
141 625 799
142 660 428
143 575 120
144 433 847
145 516 12
146 766 270
147 355 615
148 265 183
149 984 952
150 361 749
151 464 642
152 919 380
153 699 633
154 773 599
155 492 754
156 231 773
157 250 657
158 275 755
159 381 870
160 654 377
161 365 726
162 646 438
163 349 696
164 490 876
165 211 808
DEMAND_SECTION
2 79
3 84
4 100
5 23
6 32
7 90
8 8
9 50
10 29
11 96
12 26
13 17
14 92
15 41
16 16
17 95
18 41
19 69
20 30
21 83
22 11
23 84
24 38
25 29
26 88
27 33
28 77
29 76
30 74
31 16
32 31
33 33
34 76
35 16
36 28
37 67
38 22
39 61
40 72
41 27
42 96
43 2
44 88
45 88
46 6
47 22
48 7
49 20
50 69
51 72
52 58
53 87
54 32
55 25
56 4
57 61
58 1
59 61
60 84
61 75
62 16
63 75
64 100
65 87
66 30
67 6
68 8
69 79
70 31
71 2
72 53
73 75
74 76
75 94
76 16
77 87
78 58
COVERAGE_SECTION
2 9 69 61 7 23 80 141 153 106 63 
3 9 88 29 70 95 116 125 149 124 101 
4 9 32 98 55 87 59 51 30 139 36 
5 8 132 154 111 138 50 104 102 81 
6 9 157 93 8 133 71 103 76 147 20 
7 9 23 2 69 26 61 153 29 80 78 
8 9 156 158 103 157 165 133 112 71 83 
9 8 105 152 11 119 110 62 104 54 
10 9 58 73 27 92 148 19 79 24 90 
11 8 54 62 75 9 120 152 86 146 
12 2 100 145 
13 5 99 140 43 65 143 
14 9 160 107 49 47 142 162 89 126 130 
15 9 48 90 22 24 148 56 19 92 76 
16 9 82 77 41 20 165 156 128 8 158 
17 9 129 117 97 159 144 112 150 123 131 
18 8 67 43 53 143 140 13 65 99 
19 9 24 27 56 39 15 48 10 148 90 
20 9 41 82 16 165 8 156 6 157 158 
21 5 40 137 91 108 143 
22 9 90 148 15 48 92 37 45 36 4 
23 9 7 2 26 69 61 80 29 141 28 
24 9 19 56 48 15 27 39 90 148 76 
25 9 108 134 91 21 137 40 86 72 67 
26 9 28 109 124 135 23 52 66 94 70 
27 9 19 24 73 10 39 56 15 48 148 
28 9 109 26 135 52 124 94 125 115 70 
29 9 88 95 3 70 26 124 23 7 125 
30 9 55 53 65 59 87 43 36 107 13 
31 9 122 63 35 141 80 61 164 155 113 
32 7 98 4 139 55 107 30 51 
33 9 114 121 123 117 97 64 161 136 155 
34 9 146 126 72 134 89 75 86 67 105 
35 9 31 122 164 63 155 136 113 141 144 
36 9 45 87 59 68 37 65 13 30 99 
37 8 45 68 36 87 59 92 148 13 
38 4 78 50 111 95 
39 9 56 19 24 76 27 44 48 93 15 
40 5 21 91 137 143 67 
41 9 20 82 16 165 156 8 77 158 157 
42 8 74 106 127 118 81 151 153 64 
43 8 65 13 99 53 18 140 143 67 
44 9 93 76 6 56 39 20 157 41 24 
45 9 36 68 37 87 59 13 99 65 43 
46 9 163 161 83 71 133 150 114 103 147 
47 9 89 160 49 14 142 126 110 162 105 
48 9 15 90 24 56 22 148 19 76 92 
49 8 160 14 142 162 107 47 130 89 
50 9 78 154 111 5 38 132 153 69 95 
51 9 147 4 32 139 151 71 98 46 133 
52 8 109 135 28 115 94 124 26 125 
53 9 65 43 18 30 13 99 67 59 140 
54 9 62 11 75 86 120 9 72 146 152 
55 9 30 98 59 87 32 107 4 53 65 
56 9 24 39 76 48 19 15 93 27 44 
57 9 85 60 128 159 131 113 144 17 129 
58 9 79 10 92 148 73 37 90 100 12 
59 9 87 36 30 45 65 68 55 43 53 
60 9 57 85 128 159 131 113 144 164 17 
61 9 80 141 63 2 122 31 106 35 69 
62 9 54 11 75 86 9 120 72 146 152 
63 9 141 122 31 80 61 35 106 2 155 
64 9 118 155 121 33 123 74 136 114 151 
65 9 43 53 13 99 30 18 59 140 87 
66 9 84 26 28 52 80 109 61 96 135 
67 8 18 91 143 40 43 53 134 140 
68 8 45 36 37 59 87 13 99 140 
69 9 2 153 81 7 23 154 106 61 80 
70 6 125 124 116 94 149 3 
71 9 133 163 46 103 147 83 161 157 150 
72 9 86 146 75 34 134 62 54 126 11 
73 9 10 27 58 19 24 92 148 39 79 
74 9 118 42 151 64 106 155 33 121 114 
75 9 62 54 11 86 72 146 9 34 105 
76 9 93 56 44 39 6 48 24 15 19 
77 9 16 82 128 41 165 57 20 156 85 
78 9 50 38 95 154 111 5 7 29 23 
79 9 58 92 100 12 37 148 10 145 68 
80 9 141 61 63 122 31 2 35 106 66 
81 6 153 69 154 127 42 5 
82 9 165 41 16 156 20 8 158 77 128 
83 9 161 150 163 46 97 112 117 103 133 
84 9 96 66 122 31 80 141 63 61 35 
85 9 57 60 128 159 131 17 144 113 129 
86 9 72 75 62 54 146 134 11 34 25 
87 9 59 36 45 30 68 55 65 43 13 
88 9 3 29 95 70 125 116 124 149 101 
89 9 47 110 126 105 160 102 14 49 142 
90 9 22 148 15 92 48 37 45 24 36 
91 8 40 21 67 134 137 18 143 108 
92 9 148 90 22 37 79 58 15 10 45 
93 9 76 44 6 56 48 157 39 15 24 
94 7 124 125 115 135 109 70 116 
95 9 29 88 78 3 38 50 7 23 70 
96 9 84 164 31 122 113 66 35 63 131 
97 9 117 129 150 17 123 161 83 114 121 
98 7 32 55 4 107 139 30 14 
99 5 13 140 43 65 143 
100 2 12 145 
101 4 149 116 125 70 
102 8 110 138 104 105 132 89 47 142 
103 9 133 71 158 163 83 8 46 157 161 
104 9 102 138 110 132 119 105 111 5 9 
105 9 110 89 9 102 104 146 47 126 138 
106 9 42 74 118 64 2 63 141 61 155 
107 9 14 49 160 47 55 98 142 162 30 
108 6 137 21 25 40 91 134 
109 8 135 52 28 94 124 115 125 26 
110 8 102 105 104 89 138 47 9 142 
111 8 5 50 104 119 132 154 38 138 
112 9 150 129 83 158 97 161 17 117 103 
113 9 164 131 144 159 35 136 17 31 122 
114 9 33 121 123 161 117 97 150 46 83 
115 6 94 135 109 124 125 52 
116 5 149 125 101 70 94 
117 9 97 129 150 123 17 114 121 161 33 
118 9 64 74 155 151 33 121 114 123 136 
119 4 152 9 104 111 
120 5 11 54 62 152 75 
121 9 123 33 136 114 155 117 97 64 118 
122 9 31 63 35 141 80 61 164 155 113 
123 9 121 136 33 117 114 97 155 64 129 
124 8 94 125 70 109 135 28 115 116 
125 6 70 94 124 116 115 149 
126 9 34 89 146 47 14 105 160 49 107 
127 2 42 139 
128 9 57 85 60 159 165 77 82 156 16 
129 9 17 97 117 150 112 83 161 123 159 
130 3 162 142 49 
131 9 144 113 164 159 17 136 129 35 123 
132 6 5 138 104 102 154 111 
133 9 71 103 163 46 83 157 161 147 150 
134 9 91 72 67 34 25 40 86 21 18 
135 7 109 52 115 94 124 28 125 
136 9 123 121 155 144 117 33 97 64 17 
137 4 21 108 40 91 
138 7 102 132 104 110 5 142 130 
139 4 32 127 98 130 
140 3 143 99 13 
141 9 80 61 63 122 31 2 35 106 155 
142 6 162 130 49 160 47 14 
143 3 140 99 13 
144 9 131 113 159 17 164 136 129 123 117 
145 2 12 100 
146 9 34 126 72 75 105 89 86 62 9 
147 9 71 46 133 163 103 161 151 157 83 
148 9 92 90 22 15 37 48 45 10 79 
149 5 101 116 125 70 94 
150 9 83 161 97 117 112 129 163 46 114 
151 9 118 74 64 33 114 147 42 121 155 
152 3 119 9 11 
153 7 81 69 154 2 5 42 106 
154 9 5 50 153 132 81 69 111 78 138 
155 9 64 136 121 118 123 33 35 114 117 
156 9 165 8 158 103 112 82 157 133 83 
157 9 103 133 8 71 6 158 163 147 46 
158 9 156 8 103 112 83 133 165 150 161 
159 9 17 131 144 129 113 85 117 97 112 
160 8 49 14 47 142 107 162 89 130 
161 9 83 150 163 46 97 114 117 33 112 
162 4 130 142 49 160 
163 9 46 161 83 133 71 150 103 114 97 
164 9 113 131 144 35 31 136 122 159 155 
165 9 156 82 158 8 112 103 41 20 16 
DEPOT_SECTION
   1
   -1
EOF
