NAME :  X-n120-kX-w11-c9.cctp
COMMENT : 	Adapted by Maziero, Usberti and Cavellucci from the Uchoa, Pecin, Pessoa, Poggi, Subramanian, and Vidal (2013)
TYPE :  CCTP
DIMENSION :    94
EDGE_WEIGHT_TYPE : 	EUC_2D	
CAPACITY : 	21
VERTICES_WITHIN_COVERAGE :  9
VERTICES_WITH_DEMAND : 	11
NODE_COORD_SECTION
1 0 0
2 927 318
3 319 475
4 471 281
5 894 615
6 712 832
7 677 210
8 336 967
9 490 360
10 367 685
11 153 169
12 799 63
13 247 455
14 492 585
15 309 721
16 210 256
17 511 753
18 447 796
19 394 856
20 131 13
21 892 585
22 964 365
23 706 842
24 793 53
25 364 841
26 682 45
27 778 300
28 928 438
29 95 240
30 391 368
31 586 170
32 645 731
33 381 396
34 387 491
35 388 753
36 429 276
37 547 989
38 840 945
39 88 969
40 331 421
41 55 132
42 904 771
43 63 190
44 891 182
45 209 741
46 864 533
47 852 600
48 180 150
49 544 140
50 956 881
51 432 487
52 129 968
53 597 962
54 827 605
55 776 619
56 354 297
57 552 106
58 148 944
59 396 492
60 425 338
61 178 511
62 481 465
63 281 777
64 216 211
65 784 740
66 127 992
67 544 117
68 92 170
69 846 755
70 614 326
71 720 252
72 171 186
73 868 613
74 291 119
75 427 974
76 481 557
77 403 645
78 915 919
79 581 85
80 527 743
81 953 893
82 955 912
83 269 924
84 216 84
85 601 952
86 441 439
87 170 949
88 614 92
89 439 212
90 413 509
91 545 336
92 166 86
93 658 870
94 178 170
DEMAND_SECTION
2 1
3 1
4 1
5 1
6 1
7 1
8 1
9 1
10 1
11 1
12 1
COVERAGE_SECTION
2 6 22 28 44 27 71 46 
3 9 40 34 13 59 33 90 51 86 30 
4 9 36 60 89 9 91 30 56 33 70 
5 6 73 21 47 54 46 55 
6 9 23 93 65 32 69 85 38 53 42 
7 9 71 31 70 88 27 49 79 67 57 
8 8 83 75 19 25 87 58 63 18 
9 9 91 60 4 86 30 36 62 33 70 
10 9 77 15 35 63 18 25 17 14 45 
11 9 72 94 48 68 64 92 29 43 16 
12 9 24 26 44 88 7 71 79 27 31 
13 5 3 61 40 34 33 
14 9 76 77 90 51 62 59 34 86 10 
15 8 63 10 35 45 77 25 18 19 
16 4 64 72 94 11 
17 8 80 18 35 32 77 19 10 14 
18 8 35 17 19 25 80 10 15 77 
19 8 25 18 35 75 8 63 83 17 
20 9 92 84 41 48 11 68 94 72 43 
21 6 5 73 47 46 54 55 
22 6 2 28 46 27 44 21 
23 9 6 93 32 65 85 53 69 38 80 
24 9 12 26 44 88 7 71 79 31 27 
25 8 19 35 18 63 83 8 15 75 
26 9 88 79 24 12 57 67 31 7 49 
27 7 71 7 2 44 70 22 28 
28 6 22 46 2 21 47 5 
29 5 43 68 11 72 94 
30 9 33 60 40 56 86 9 36 4 34 
31 9 49 67 57 88 79 7 89 71 26 
32 7 80 6 23 17 65 93 55 
33 9 30 40 60 86 34 59 3 56 51 
34 9 59 90 51 3 86 40 33 62 76 
35 9 10 18 15 25 19 77 63 17 80 
36 8 4 60 89 56 30 9 33 91 
37 8 53 85 75 93 19 8 18 23 
38 9 78 82 81 50 23 6 42 69 93 
39 7 52 66 58 87 83 8 45 
40 9 3 33 30 34 13 59 86 90 51 
41 9 68 43 11 29 92 48 72 94 20 
42 9 69 50 65 81 78 82 5 73 47 
43 7 68 29 41 11 72 94 48 
44 9 2 12 24 27 71 22 7 26 28 
45 6 63 15 10 35 25 83 
46 5 21 47 73 54 5 
47 6 73 54 21 5 46 55 
48 9 94 11 72 92 64 84 68 16 74 
49 9 67 57 31 79 88 89 7 4 26 
50 9 81 82 78 42 38 69 65 6 23 
51 9 90 59 34 86 62 76 33 3 14 
52 8 66 58 39 87 83 8 45 63 
53 8 85 37 93 23 75 6 18 17 
54 6 47 73 55 5 21 46 
55 7 54 47 73 5 21 65 46 
56 7 36 30 60 33 4 89 40 
57 9 67 49 79 88 31 26 89 7 4 
58 8 87 52 66 39 83 8 45 63 
59 9 34 90 51 86 3 62 40 33 76 
60 9 30 36 9 4 33 56 86 91 40 
61 2 13 3 
62 9 86 51 90 59 76 34 9 14 33 
63 8 15 45 25 35 10 19 83 18 
64 6 16 72 94 48 11 74 
65 8 69 6 55 42 23 32 54 73 
66 8 52 39 58 87 83 8 45 63 
67 9 57 49 79 31 88 89 26 7 4 
68 8 43 41 11 29 72 94 48 92 
69 9 42 65 73 5 54 55 6 47 23 
70 9 91 9 71 7 4 31 27 60 36 
71 9 7 27 70 31 44 88 91 12 49 
72 8 94 11 48 64 16 68 29 92 
73 6 47 5 21 54 46 55 
74 7 84 48 64 94 92 72 11 
75 8 8 37 19 25 83 53 85 18 
76 9 14 90 51 62 59 34 77 86 10 
77 9 10 14 35 76 15 90 17 59 34 
78 9 82 81 50 38 42 69 6 65 23 
79 9 88 57 67 49 31 26 7 89 24 
80 8 17 18 32 35 77 14 10 19 
81 9 50 82 78 38 42 69 65 6 23 
82 9 81 50 78 38 42 69 65 6 23 
83 9 8 87 58 25 19 52 63 66 75 
84 7 92 48 74 94 11 20 72 
85 8 53 37 93 23 6 75 17 18 
86 9 62 51 59 33 34 90 30 9 60 
87 8 58 52 66 39 83 8 63 45 
88 9 79 57 67 26 31 49 7 24 12 
89 7 36 4 56 49 60 67 31 
90 9 59 51 34 86 62 76 3 14 33 
91 9 9 70 4 60 36 62 86 30 89 
92 9 84 48 20 11 94 72 68 41 74 
93 8 23 6 85 53 32 37 65 80 
94 8 72 48 11 64 92 68 16 84 
DEPOT_SECTION
   1
   -1
EOF
