NAME :  X-n148-kX-w29-c9.cctp
COMMENT : 	Adapted by Maziero, Usberti and Cavellucci from the Uchoa, Pecin, Pessoa, Poggi, Subramanian, and Vidal (2013)
TYPE :  CCTP
DIMENSION :    119
EDGE_WEIGHT_TYPE : 	EUC_2D	
CAPACITY : 	18
VERTICES_WITHIN_COVERAGE :  9
VERTICES_WITH_DEMAND : 	29
NODE_COORD_SECTION
1 707 633
2 405 122
3 811 419
4 11 667
5 336 612
6 366 50
7 98 836
8 414 996
9 243 713
10 100 232
11 891 946
12 132 204
13 25 642
14 994 18
15 636 897
16 214 651
17 108 619
18 882 399
19 863 607
20 409 585
21 247 882
22 553 507
23 677 258
24 673 644
25 25 182
26 251 111
27 263 799
28 660 359
29 351 288
30 172 127
31 231 650
32 966 485
33 964 107
34 949 328
35 936 70
36 229 744
37 161 214
38 581 594
39 154 860
40 23 374
41 736 600
42 594 542
43 846 684
44 355 471
45 675 597
46 663 653
47 61 889
48 685 150
49 129 248
50 161 301
51 180 836
52 427 670
53 833 860
54 669 251
55 450 926
56 591 505
57 468 157
58 288 484
59 574 955
60 41 65
61 175 486
62 907 13
63 579 912
64 765 835
65 176 189
66 972 351
67 470 22
68 577 469
69 561 672
70 110 670
71 811 614
72 22 369
73 89 934
74 89 973
75 896 544
76 765 469
77 827 627
78 541 599
79 111 694
80 884 324
81 555 436
82 186 502
83 367 339
84 572 872
85 715 620
86 134 794
87 85 912
88 191 561
89 79 911
90 132 871
91 962 682
92 170 677
93 847 462
94 732 383
95 904 368
96 980 376
97 281 669
98 84 809
99 114 715
100 83 648
101 45 944
102 84 965
103 779 427
104 854 305
105 518 500
106 216 721
107 597 643
108 954 764
109 339 814
110 142 552
111 400 366
112 21 341
113 67 772
114 897 552
115 189 530
116 92 325
117 877 475
118 712 100
119 100 342
DEMAND_SECTION
2 10
3 4
4 7
5 4
6 8
7 1
8 4
9 1
10 5
11 5
12 1
13 4
14 4
15 4
16 2
17 5
18 3
19 10
20 1
21 2
22 9
23 5
24 5
25 2
26 1
27 7
28 10
29 5
30 10
COVERAGE_SECTION
2 6 57 6 67 26 29 83 
3 6 103 93 76 18 94 117 
4 9 13 100 70 79 17 99 113 92 98 
5 9 20 97 52 31 16 9 58 44 88 
6 9 2 67 26 57 30 65 29 37 12 
7 9 98 90 86 39 47 113 87 89 51 
8 9 55 59 63 109 84 21 15 27 51 
9 9 106 36 97 31 16 92 27 99 79 
10 9 49 12 37 65 25 50 116 119 30 
11 9 53 64 108 15 43 91 63 59 77 
12 9 37 10 49 65 30 50 25 116 119 
13 9 4 100 17 70 79 99 113 110 92 
14 3 35 62 33 
15 9 63 84 59 64 55 53 69 8 46 
16 9 31 92 9 97 106 88 36 70 17 
17 9 100 70 79 110 92 13 99 88 4 
18 8 95 93 3 80 117 34 104 96 
19 5 77 71 114 75 43 
20 8 5 52 44 78 105 97 58 22 
21 9 51 27 39 109 90 36 86 7 106 
22 7 105 56 68 42 81 38 78 
23 6 54 28 48 94 118 104 
24 9 46 45 85 107 41 38 69 42 78 
25 9 10 12 60 49 37 65 30 116 112 
26 9 30 65 6 37 12 2 49 10 29 
27 9 36 109 21 9 51 106 39 86 97 
28 7 94 23 54 81 103 68 76 
29 2 83 111 
30 9 65 26 12 37 10 49 60 25 50 
31 9 16 97 9 92 106 36 88 5 70 
32 6 117 75 114 96 18 93 
33 3 35 14 62 
34 6 66 96 95 80 18 104 
35 4 33 62 14 118 
36 9 106 9 27 92 97 16 31 51 86 
37 9 65 12 49 10 50 30 116 26 25 
38 9 78 107 42 69 56 22 45 46 24 
39 9 90 51 7 86 87 98 89 21 47 
40 7 72 112 119 116 50 10 49 
41 6 85 45 71 24 46 77 
42 9 56 22 38 68 78 105 45 107 81 
43 8 77 71 19 91 108 41 114 85 
44 4 58 111 20 83 
45 8 85 24 46 41 107 38 42 56 
46 9 24 45 85 107 41 38 69 42 78 
47 9 89 87 73 101 7 90 102 98 74 
48 5 118 54 23 28 57 
49 9 10 12 37 50 65 116 119 25 30 
50 9 49 116 119 37 10 12 65 112 72 
51 9 39 90 86 21 7 27 98 36 106 
52 9 20 5 69 78 97 109 38 107 9 
53 9 64 11 108 43 15 91 77 71 19 
54 6 23 48 28 94 118 104 
55 9 8 59 63 84 109 15 21 27 52 
56 8 42 22 68 105 81 38 78 45 
57 5 2 67 6 29 83 
58 7 44 82 115 61 88 5 20 
59 9 63 84 15 55 8 64 109 53 69 
60 9 25 30 12 10 65 37 49 26 50 
61 8 82 115 110 88 58 17 119 16 
62 4 35 14 33 118 
63 9 84 59 15 55 8 64 69 53 109 
64 9 53 15 11 43 84 63 108 46 24 
65 9 37 12 30 49 10 26 50 25 116 
66 6 96 34 95 80 18 104 
67 7 6 2 57 26 48 118 29 
68 6 56 81 22 105 42 38 
69 9 107 78 38 46 24 42 52 45 85 
70 9 79 100 99 17 92 13 4 16 113 
71 5 77 19 41 43 85 
72 7 40 112 116 119 50 10 49 
73 9 87 89 102 74 101 47 90 7 39 
74 9 102 73 101 87 89 47 90 39 7 
75 3 114 19 117 
76 3 103 3 93 
77 6 71 19 43 41 114 75 
78 9 38 107 69 42 22 105 56 20 46 
79 9 99 70 100 92 17 113 13 86 4 
80 5 104 95 34 18 66 
81 5 68 22 105 56 42 
82 8 61 115 88 110 58 17 16 31 
83 2 111 29 
84 9 63 15 59 55 64 69 8 107 46 
85 7 41 45 24 46 71 77 107 
86 9 98 7 51 39 113 90 99 79 36 
87 9 89 73 47 101 102 74 90 7 39 
88 9 115 110 82 61 16 31 17 92 58 
89 9 87 73 47 101 102 74 90 7 39 
90 9 39 7 51 87 89 47 73 86 98 
91 7 108 43 19 114 77 75 71 
92 9 16 70 79 106 31 99 9 17 36 
93 4 117 3 18 103 
94 6 103 28 3 76 23 93 
95 6 18 80 34 66 96 104 
96 7 66 34 95 18 80 32 117 
97 9 31 9 16 5 106 36 92 27 88 
98 9 7 113 86 90 47 39 99 51 89 
99 9 79 70 92 100 113 86 17 98 106 
100 9 70 17 79 13 4 99 92 110 113 
101 9 102 73 89 87 74 47 90 7 39 
102 9 74 73 101 87 89 47 90 39 7 
103 4 3 76 94 93 
104 4 80 95 18 34 
105 7 22 68 56 81 42 78 38 
106 9 36 9 92 16 31 97 27 99 79 
107 9 69 38 46 78 24 45 42 85 56 
108 9 91 43 53 19 77 11 64 71 114 
109 9 27 21 36 9 106 97 55 51 52 
110 9 88 115 82 61 17 100 16 70 92 
111 2 83 29 
112 7 72 40 116 119 10 49 50 
113 9 98 7 86 99 79 70 47 90 4 
114 3 75 19 117 
115 9 82 88 61 110 58 17 16 31 92 
116 8 119 50 112 72 40 49 10 12 
117 3 93 75 18 
118 5 48 54 23 62 35 
119 7 116 50 112 40 72 49 10 
DEPOT_SECTION
   1
   -1
EOF
