NAME :  X-n172-kX-w68-c7.cctp
COMMENT : 	Adapted by Maziero, Usberti and Cavellucci from the Uchoa, Pecin, Pessoa, Poggi, Subramanian, and Vidal (2013)
TYPE :  CCTP
DIMENSION :    147
EDGE_WEIGHT_TYPE : 	EUC_2D	
CAPACITY : 	161
VERTICES_WITHIN_COVERAGE :  7
VERTICES_WITH_DEMAND : 	68
NODE_COORD_SECTION
1 500 500
2 363 697
3 120 259
4 555 718
5 522 918
6 239 935
7 304 517
8 856 96
9 38 904
10 174 951
11 294 935
12 942 324
13 402 176
14 766 450
15 473 862
16 262 550
17 661 92
18 440 655
19 678 291
20 345 691
21 564 903
22 952 802
23 698 352
24 297 930
25 66 244
26 882 642
27 777 818
28 302 212
29 824 647
30 143 946
31 108 600
32 121 755
33 697 32
34 473 995
35 342 252
36 596 534
37 248 211
38 940 88
39 81 468
40 144 796
41 244 385
42 437 42
43 381 583
44 263 549
45 153 646
46 187 688
47 248 71
48 27 70
49 649 477
50 244 370
51 145 49
52 589 402
53 105 251
54 986 452
55 486 773
56 679 851
57 102 734
58 619 809
59 139 138
60 107 489
61 921 579
62 681 336
63 925 185
64 260 655
65 46 832
66 534 440
67 117 590
68 604 453
69 667 428
70 871 548
71 943 171
72 181 252
73 172 696
74 211 597
75 82 390
76 114 189
77 659 852
78 404 544
79 169 845
80 101 663
81 124 861
82 289 778
83 923 842
84 464 148
85 377 32
86 933 156
87 241 242
88 802 86
89 944 185
90 964 77
91 244 244
92 89 157
93 953 76
94 347 358
95 941 146
96 391 594
97 904 106
98 649 92
99 951 94
100 917 77
101 134 331
102 948 183
103 389 254
104 796 197
105 965 174
106 304 381
107 914 661
108 198 245
109 207 258
110 926 85
111 881 145
112 849 115
113 577 535
114 266 216
115 160 154
116 890 105
117 368 725
118 563 538
119 509 502
120 921 174
121 819 266
122 324 181
123 435 652
124 460 344
125 917 630
126 843 747
127 355 700
128 956 76
129 470 464
130 215 222
131 354 552
132 884 204
133 439 345
134 472 663
135 980 116
136 51 27
137 934 44
138 930 835
139 216 30
140 862 251
141 267 215
142 212 71
143 941 68
144 554 709
145 602 591
146 405 594
147 629 450
DEMAND_SECTION
2 30
3 82
4 70
5 92
6 25
7 23
8 11
9 41
10 15
11 5
12 17
13 70
14 36
15 47
16 24
17 11
18 6
19 23
20 5
21 54
22 74
23 6
24 9
25 58
26 96
27 80
28 100
29 65
30 3
31 46
32 16
33 47
34 33
35 84
36 73
37 75
38 27
39 99
40 50
41 65
42 79
43 42
44 46
45 9
46 13
47 97
48 79
49 6
50 63
51 65
52 14
53 91
54 6
55 6
56 69
57 13
58 55
59 69
60 67
61 53
62 35
63 19
64 49
65 47
66 36
67 24
68 15
69 15
COVERAGE_SECTION
2 7 127 20 117 123 18 96 82 
3 7 53 25 72 76 101 108 109 
4 7 144 55 134 58 18 145 123 
5 7 21 15 34 58 55 77 56 
6 7 11 24 10 30 79 81 82 
7 5 44 16 131 43 78 
8 7 112 116 97 88 111 100 110 
9 7 65 81 30 10 79 40 32 
10 7 30 6 81 79 11 24 9 
11 7 24 6 10 30 79 82 81 
12 7 140 132 54 121 89 63 102 
13 7 84 122 103 35 28 42 141 
14 7 69 23 49 147 62 70 68 
15 7 5 55 21 34 58 4 117 
16 7 44 7 74 131 64 43 96 
17 7 98 33 88 104 112 8 19 
18 6 123 134 146 96 2 43 
19 7 62 23 69 52 121 104 147 
20 7 127 2 117 64 123 18 82 
21 7 5 15 77 58 56 34 55 
22 2 138 83 
23 7 62 19 69 14 52 147 49 
24 7 11 6 10 82 79 30 81 
25 7 53 3 76 92 101 72 59 
26 4 107 125 29 61 
27 6 126 56 77 83 138 58 
28 7 141 114 122 37 35 91 87 
29 6 26 107 125 126 70 61 
30 7 10 81 6 79 9 40 65 
31 7 67 80 45 74 60 73 46 
32 7 57 40 73 46 80 79 81 
33 7 17 98 88 8 112 104 116 
34 7 5 21 15 24 11 55 77 
35 7 103 28 122 114 141 13 91 
36 7 113 118 145 49 68 147 119 
37 7 114 141 87 91 130 28 108 
38 7 99 110 93 128 143 100 90 
39 7 60 75 67 31 101 41 74 
40 7 32 79 81 57 65 73 46 
41 6 50 106 94 101 109 91 
42 7 85 84 13 122 47 28 103 
43 5 96 146 131 78 123 
44 7 16 7 74 131 64 43 96 
45 7 73 46 80 31 67 74 57 
46 7 73 45 64 80 32 74 57 
47 7 142 139 51 115 59 122 85 
48 7 136 92 51 59 76 115 25 
49 7 147 68 69 36 113 52 118 
50 6 41 106 94 101 109 91 
51 7 142 139 59 136 47 115 48 
52 7 68 147 66 69 49 62 23 
53 7 3 25 76 72 101 108 92 
54 6 12 61 70 125 26 14 
55 7 4 15 144 134 18 117 123 
56 7 77 58 27 21 5 4 144 
57 7 32 80 40 73 46 45 65 
58 7 77 56 21 4 144 55 5 
59 7 115 92 76 51 142 130 53 
60 7 39 67 75 31 74 101 45 
61 4 125 70 26 107 
62 7 23 19 69 52 147 68 14 
63 7 120 89 71 102 86 105 95 
64 7 74 46 20 73 16 127 44 
65 7 9 81 40 32 57 79 30 
66 6 52 119 129 68 147 118 
67 7 31 45 80 74 60 73 46 
68 7 147 49 52 69 66 36 113 
69 7 147 49 68 23 52 62 14 
70 6 61 125 26 29 107 14 
71 7 102 89 86 105 120 63 95 
72 6 108 109 130 3 87 91 
73 7 46 45 32 80 57 64 40 
74 7 16 44 45 64 46 67 31 
75 7 39 101 60 3 53 25 41 
76 7 92 59 115 53 3 25 72 
77 7 56 58 21 27 5 4 144 
78 4 43 146 131 96 
79 7 81 40 32 30 10 6 65 
80 7 45 31 57 67 73 46 32 
81 7 79 40 65 30 9 10 32 
82 7 117 127 20 2 64 46 79 
83 3 138 22 126 
84 7 13 42 103 122 85 35 28 
85 7 42 47 84 13 122 139 142 
86 7 95 71 120 63 89 102 105 
87 6 91 37 130 114 141 109 
88 7 8 112 116 111 97 104 100 
89 7 102 71 63 105 120 86 95 
90 5 128 93 99 143 38 
91 6 87 37 114 130 141 109 
92 7 76 59 115 25 53 3 48 
93 6 128 90 143 38 99 110 
94 7 106 133 50 35 41 103 124 
95 7 86 71 120 105 102 89 63 
96 6 146 43 78 131 123 18 
97 7 116 110 100 38 111 8 99 
98 7 17 33 88 104 84 19 112 
99 7 38 93 128 90 110 143 135 
100 7 110 38 143 97 93 137 99 
101 7 3 75 53 72 109 108 25 
102 7 89 71 105 63 120 86 95 
103 7 35 13 28 122 133 94 124 
104 7 121 140 132 112 111 88 8 
105 7 102 71 89 86 95 63 120 
106 6 94 41 50 35 7 133 
107 2 125 26 
108 6 109 72 130 87 91 37 
109 6 108 72 130 87 91 37 
110 7 100 38 143 99 93 97 128 
111 7 116 112 97 120 86 8 63 
112 7 8 116 111 88 97 100 110 
113 5 118 36 145 119 68 
114 7 141 37 28 87 91 130 122 
115 7 59 76 92 130 142 108 72 
116 7 97 8 100 110 111 112 38 
117 7 2 127 20 82 123 18 134 
118 4 113 36 119 145 
119 4 129 118 66 113 
120 7 63 71 86 89 102 95 105 
121 7 140 104 132 63 12 111 120 
122 7 28 141 114 35 13 37 103 
123 7 18 134 146 96 2 43 127 
124 6 133 94 103 129 66 52 
125 3 107 26 61 
126 3 27 29 26 
127 7 2 20 117 123 18 82 64 
128 6 93 90 143 99 38 110 
129 2 119 66 
130 7 108 87 37 91 109 72 114 
131 5 43 78 96 7 146 
132 7 63 120 140 111 89 102 71 
133 6 124 94 103 129 35 66 
134 4 18 123 144 146 
135 6 99 90 128 93 38 95 
136 7 48 51 92 59 139 115 142 
137 6 143 93 100 128 110 38 
138 3 83 22 126 
139 7 142 47 51 59 115 85 136 
140 7 121 132 104 63 120 89 12 
141 7 114 37 28 87 91 130 122 
142 7 47 139 51 115 59 37 92 
143 7 93 128 38 110 90 137 100 
144 7 4 55 134 58 18 145 123 
145 4 36 113 118 49 
146 6 96 43 78 123 131 18 
147 7 68 49 69 52 36 66 113 
DEPOT_SECTION
   1
   -1
EOF
