NAME :  X-n157-kX-w31-c11.cctp
COMMENT : 	Adapted by Maziero, Usberti and Cavellucci from the Uchoa, Pecin, Pessoa, Poggi, Subramanian, and Vidal (2013)
TYPE :  CCTP
DIMENSION :    151
EDGE_WEIGHT_TYPE : 	EUC_2D	
CAPACITY : 	12
VERTICES_WITHIN_COVERAGE :  11
VERTICES_WITH_DEMAND : 	31
NODE_COORD_SECTION
1 769 259
2 91 377
3 108 338
4 816 567
5 725 520
6 117 357
7 766 559
8 90 417
9 255 430
10 63 384
11 35 276
12 122 318
13 85 322
14 267 348
15 937 546
16 865 461
17 863 547
18 724 431
19 148 144
20 243 571
21 871 512
22 782 596
23 77 272
24 776 650
25 166 371
26 69 239
27 972 607
28 320 521
29 91 434
30 20 305
31 81 271
32 776 669
33 830 553
34 148 243
35 160 202
36 741 527
37 877 561
38 587 551
39 808 435
40 26 278
41 58 394
42 755 444
43 817 557
44 165 367
45 216 510
46 124 330
47 132 369
48 915 492
49 753 657
50 161 319
51 37 227
52 898 747
53 770 524
54 745 582
55 695 469
56 124 355
57 11 283
58 258 406
59 72 335
60 713 399
61 214 344
62 213 349
63 864 577
64 98 440
65 701 512
66 884 559
67 842 518
68 125 379
69 352 410
70 206 228
71 825 592
72 93 252
73 863 511
74 98 347
75 115 326
76 71 392
77 96 248
78 65 404
79 75 342
80 140 300
81 129 340
82 129 273
83 846 696
84 109 463
85 863 586
86 139 356
87 77 351
88 154 322
89 231 323
90 115 394
91 844 558
92 98 454
93 739 568
94 179 443
95 862 618
96 764 764
97 844 554
98 703 319
99 151 453
100 863 569
101 72 473
102 632 575
103 823 578
104 26 42
105 47 381
106 71 336
107 754 484
108 137 465
109 80 355
110 172 296
111 28 310
112 754 579
113 87 382
114 866 481
115 93 337
116 942 567
117 788 567
118 824 451
119 926 901
120 182 500
121 98 384
122 104 370
123 48 462
124 952 629
125 239 324
126 747 605
127 136 460
128 748 624
129 43 268
130 792 597
131 95 352
132 109 413
133 67 224
134 104 386
135 817 672
136 183 360
137 922 652
138 779 419
139 863 721
140 40 456
141 66 395
142 862 465
143 383 357
144 307 434
145 233 421
146 329 280
147 623 554
148 103 349
149 736 688
150 75 266
151 174 406
DEMAND_SECTION
2 1
3 1
4 1
5 1
6 1
7 1
8 1
9 1
10 1
11 1
12 1
13 1
14 1
15 1
16 1
17 1
18 1
19 1
20 1
21 1
22 1
23 1
24 1
25 1
26 1
27 1
28 1
29 1
30 1
31 1
32 1
COVERAGE_SECTION
2 11 113 121 122 134 76 109 131 10 90 87 148 
3 11 148 74 75 115 46 131 6 81 56 12 13 
4 11 43 103 33 71 117 91 97 130 22 100 63 
5 11 36 65 53 107 93 7 55 54 112 117 42 
6 11 56 148 122 47 3 74 81 86 68 131 46 
7 11 112 117 93 54 53 22 36 130 126 4 43 
8 11 29 132 64 78 76 141 90 121 134 113 92 
9 11 58 145 144 94 14 151 45 62 61 69 136 
10 11 41 76 141 105 78 113 2 109 121 87 134 
11 11 40 129 57 30 111 150 23 31 51 26 133 
12 11 75 46 81 3 80 88 115 148 13 56 74 
13 11 115 59 106 79 3 74 75 87 131 148 109 
14 10 125 89 61 62 58 145 9 136 146 144 
15 11 116 66 48 37 27 17 21 100 63 73 85 
16 11 142 114 118 73 21 48 67 39 17 97 138 
17 11 37 97 91 100 66 63 33 21 67 73 85 
18 11 42 60 55 138 107 39 65 5 36 118 53 
19 10 35 34 70 133 77 72 26 82 51 150 
20 9 45 28 120 9 94 99 108 145 144 
21 11 73 67 114 17 48 142 37 66 97 16 91 
22 11 130 117 112 126 7 54 71 128 4 103 93 
23 11 31 150 72 77 26 129 11 133 13 40 82 
24 11 32 49 128 135 22 126 130 149 112 54 71 
25 11 44 136 86 47 151 68 56 81 88 6 50 
26 11 133 72 77 150 23 31 51 129 11 40 82 
27 10 124 116 137 15 66 37 85 95 63 100 
28 11 144 20 45 9 69 58 145 120 94 143 14 
29 11 64 8 92 132 84 78 101 141 76 90 121 
30 11 111 57 40 11 129 59 106 23 79 13 150 
31 11 23 150 72 77 26 129 11 82 133 13 40 
32 11 24 49 135 149 128 126 22 130 83 71 54 
33 11 43 97 91 4 103 17 67 100 71 63 117 
34 10 82 35 77 72 80 110 70 31 23 50 
35 10 34 70 19 82 77 72 110 133 26 80 
36 11 5 53 7 93 65 107 112 54 117 55 126 
37 11 66 100 17 63 85 91 97 33 21 73 67 
38 10 147 102 65 55 5 93 36 54 112 126 
39 11 118 138 42 142 16 107 114 18 67 73 53 
40 11 11 57 129 30 111 150 23 51 31 26 133 
41 11 141 10 78 76 105 113 2 8 121 109 87 
42 11 18 138 107 39 60 55 118 53 5 36 65 
43 11 4 33 103 91 97 117 71 67 17 130 100 
44 11 25 136 86 47 151 68 56 81 88 50 6 
45 10 120 20 94 99 9 108 145 127 28 58 
46 11 75 81 12 3 56 6 148 86 74 88 115 
47 11 68 86 56 6 122 81 90 44 134 25 148 
48 11 21 114 73 15 16 142 66 17 67 37 116 
49 11 24 32 128 149 126 135 22 130 54 112 93 
50 10 88 110 80 81 12 46 86 75 136 44 
51 11 133 26 129 11 40 150 23 72 31 57 77 
52 10 139 83 137 135 124 95 96 32 24 119 
53 11 36 7 107 5 117 93 43 112 4 54 33 
54 11 112 93 126 7 22 128 117 130 36 53 5 
55 11 65 18 5 107 42 60 36 53 138 93 147 
56 11 6 86 47 81 148 3 68 46 122 74 131 
57 11 40 30 11 111 129 51 150 23 31 26 59 
58 11 9 145 144 14 62 61 125 151 89 94 136 
59 11 106 79 87 13 115 109 74 131 148 3 75 
60 11 18 42 138 55 98 107 39 65 5 118 36 
61 10 62 89 125 136 14 44 25 50 88 110 
62 10 61 89 136 125 44 25 14 50 88 110 
63 11 100 85 37 66 91 17 97 95 103 33 71 
64 11 29 92 8 84 132 101 127 108 78 90 134 
65 11 5 36 55 107 93 53 7 54 18 112 42 
66 11 37 100 17 63 85 91 97 21 73 33 15 
67 11 73 21 17 97 33 91 114 43 4 37 100 
68 11 47 90 134 6 122 56 86 121 2 148 113 
69 11 144 143 58 9 14 28 145 146 125 89 62 
70 9 35 34 110 82 80 89 19 50 125 
71 11 103 4 130 43 85 33 91 63 97 22 100 
72 11 77 31 150 23 26 133 82 129 34 51 11 
73 11 21 67 114 17 142 97 16 91 37 66 33 
74 11 148 131 115 3 109 6 87 79 122 56 75 
75 11 46 12 3 81 115 148 74 13 56 6 131 
76 11 141 10 41 78 113 2 105 121 8 134 109 
77 11 72 31 26 150 23 133 82 34 129 51 11 
78 11 141 41 76 10 8 105 113 2 121 29 134 
79 11 106 59 87 109 115 13 131 74 148 3 2 
80 10 12 88 50 82 110 46 75 81 3 86 
81 11 46 56 86 75 3 6 12 148 47 88 74 
82 10 80 34 77 72 12 31 110 23 150 75 
83 10 139 135 52 32 95 24 137 49 71 96 
84 10 92 64 127 108 29 101 99 8 132 123 
85 10 63 100 37 95 66 91 97 71 17 103 
86 11 47 56 81 6 68 44 46 25 3 88 148 
87 11 109 79 106 59 131 74 115 148 2 13 113 
88 10 50 80 46 81 12 110 86 75 56 44 
89 10 125 61 62 14 136 110 50 88 44 25 
90 11 134 68 121 132 122 2 47 113 8 6 56 
91 11 97 33 17 100 43 63 4 103 37 85 71 
92 11 64 84 29 101 8 127 108 132 123 99 140 
93 11 54 112 7 126 36 117 5 22 53 128 130 
94 11 99 151 127 108 120 145 25 84 132 9 44 
95 10 85 63 71 100 103 37 66 91 97 4 
96 11 149 32 135 83 49 139 24 52 128 126 22 
97 11 91 33 17 100 43 63 4 103 37 67 85 
98 11 60 18 138 42 55 39 107 118 65 5 36 
99 10 127 108 94 84 151 92 64 120 132 29 
100 11 63 37 85 17 91 66 97 33 103 71 4 
101 11 123 92 140 84 64 29 8 108 127 78 132 
102 11 147 38 65 93 5 54 36 126 112 55 128 
103 11 4 71 43 33 91 97 130 117 63 85 100 
104 11 19 51 133 26 35 77 72 129 150 11 34 
105 11 10 41 141 76 78 113 87 109 2 79 106 
106 11 59 79 87 13 109 115 74 131 148 3 75 
107 11 42 53 36 5 65 18 55 138 39 7 118 
108 10 127 99 84 92 64 94 29 120 132 101 
109 11 87 79 131 74 106 59 115 148 2 113 122 
110 9 50 80 88 82 12 34 46 81 61 
111 11 30 40 57 11 129 106 59 79 13 23 87 
112 11 54 93 7 126 22 117 130 128 36 53 4 
113 11 2 121 134 76 122 10 141 109 90 41 78 
114 11 142 16 73 21 67 48 118 17 39 97 33 
115 11 74 3 131 148 13 79 59 87 106 109 75 
116 11 15 27 66 124 37 63 100 48 17 85 137 
117 11 7 4 22 130 43 112 103 33 71 54 53 
118 11 39 142 16 114 138 42 67 73 21 107 53 
119 10 52 139 96 83 137 135 124 32 149 95 
120 10 45 99 94 108 127 84 20 145 151 92 
121 11 134 2 113 122 90 68 76 132 131 6 8 
122 11 2 121 134 6 131 113 148 68 74 56 90 
123 11 140 101 29 92 64 78 84 8 41 141 76 
124 10 27 137 116 15 95 66 85 37 63 100 
125 10 89 61 62 14 136 110 50 58 88 44 
126 11 128 54 112 22 93 130 7 49 24 117 32 
127 10 108 99 84 92 64 94 29 132 120 8 
128 11 126 49 24 54 22 112 130 32 93 149 7 
129 11 11 40 150 23 57 31 26 51 30 111 133 
130 11 22 117 71 103 4 112 7 126 43 54 128 
131 11 74 148 109 115 87 3 122 79 6 2 56 
132 11 8 90 134 29 64 121 68 113 2 92 76 
133 11 26 51 72 77 150 23 31 129 11 40 82 
134 11 121 90 2 122 113 68 132 6 47 8 76 
135 10 83 32 24 49 139 95 130 71 149 22 
136 10 44 25 62 61 86 50 151 88 47 81 
137 10 124 27 95 116 83 85 139 63 52 66 
138 11 39 42 118 18 60 107 142 16 55 53 114 
139 10 83 52 135 137 32 95 96 24 49 124 
140 11 123 101 29 78 92 64 8 41 141 84 76 
141 11 76 41 78 10 105 113 2 8 121 134 109 
142 11 16 114 118 73 21 67 48 39 17 97 33 
143 11 69 146 144 14 58 9 125 89 145 61 62 
144 11 69 9 58 145 28 14 143 45 62 94 61 
145 11 9 58 94 151 62 144 61 136 14 25 44 
146 11 14 143 125 89 61 69 70 62 58 144 110 
147 10 102 38 65 5 55 93 36 54 112 126 
148 11 74 131 3 6 115 122 56 109 75 87 46 
149 11 49 32 24 128 96 135 126 22 54 130 83 
150 11 23 31 72 26 77 129 11 133 40 51 82 
151 11 25 94 44 136 99 47 68 90 86 145 132 
DEPOT_SECTION
   1
   -1
EOF
