NAME :  X-n195-kX-w77-c7.cctp
COMMENT : 	Adapted by Maziero, Usberti and Cavellucci from the Uchoa, Pecin, Pessoa, Poggi, Subramanian, and Vidal (2013)
TYPE :  CCTP
DIMENSION :    158
EDGE_WEIGHT_TYPE : 	EUC_2D	
CAPACITY : 	181
VERTICES_WITHIN_COVERAGE :  7
VERTICES_WITH_DEMAND : 	77
NODE_COORD_SECTION
1 500 500
2 691 729
3 978 828
4 427 367
5 777 543
6 190 596
7 773 750
8 234 727
9 851 358
10 140 69
11 891 285
12 467 13
13 537 162
14 636 355
15 213 284
16 75 877
17 384 814
18 606 173
19 76 236
20 86 733
21 642 61
22 303 261
23 771 775
24 107 264
25 763 43
26 811 873
27 38 170
28 822 920
29 907 792
30 539 273
31 576 836
32 491 411
33 430 725
34 727 248
35 532 825
36 457 218
37 398 153
38 942 597
39 8 330
40 637 85
41 75 781
42 578 635
43 560 188
44 27 523
45 432 198
46 359 691
47 695 372
48 203 307
49 641 389
50 836 612
51 375 499
52 818 980
53 577 226
54 889 259
55 516 324
56 102 346
57 318 976
58 223 11
59 484 245
60 365 982
61 648 790
62 878 261
63 600 800
64 493 722
65 549 214
66 714 918
67 638 166
68 452 172
69 711 687
70 924 905
71 326 662
72 786 203
73 24 32
74 529 661
75 843 248
76 115 449
77 82 971
78 876 644
79 322 24
80 642 810
81 685 607
82 141 824
83 351 732
84 641 954
85 330 941
86 830 188
87 469 250
88 970 812
89 723 360
90 274 238
91 668 103
92 269 147
93 135 493
94 895 953
95 930 729
96 579 972
97 388 767
98 517 382
99 537 160
100 457 1
101 295 704
102 785 358
103 592 694
104 607 347
105 690 10
106 843 955
107 767 401
108 854 524
109 325 778
110 465 885
111 415 721
112 955 943
113 394 769
114 496 700
115 888 436
116 980 290
117 444 754
118 583 835
119 435 761
120 887 925
121 919 932
122 710 300
123 597 547
124 253 971
125 372 794
126 648 450
127 438 871
128 758 513
129 313 682
130 728 143
131 852 970
132 458 787
133 635 24
134 752 463
135 524 482
136 550 133
137 625 799
138 660 428
139 433 847
140 516 12
141 766 270
142 355 615
143 265 183
144 464 642
145 919 380
146 699 633
147 773 599
148 492 754
149 231 773
150 250 657
151 275 755
152 381 870
153 654 377
154 365 726
155 646 438
156 349 696
157 490 876
158 211 808
DEMAND_SECTION
2 79
3 84
4 100
5 23
6 32
7 90
8 8
9 50
10 29
11 96
12 26
13 17
14 92
15 41
16 16
17 95
18 41
19 69
20 30
21 83
22 11
23 84
24 38
25 29
26 88
27 33
28 77
29 76
30 74
31 16
32 31
33 33
34 76
35 16
36 28
37 67
38 22
39 61
40 72
41 27
42 96
43 2
44 88
45 88
46 6
47 22
48 7
49 20
50 69
51 72
52 58
53 87
54 32
55 25
56 4
57 61
58 1
59 61
60 84
61 75
62 16
63 75
64 100
65 87
66 30
67 6
68 8
69 79
70 31
71 2
72 53
73 75
74 76
75 94
76 16
77 87
78 58
COVERAGE_SECTION
2 7 69 61 7 23 80 137 146 
3 6 88 29 70 95 112 121 
4 7 32 98 55 87 59 51 30 
5 5 128 147 108 134 50 
6 7 150 93 8 129 71 101 76 
7 7 23 2 69 26 61 146 29 
8 7 149 151 101 150 158 129 109 
9 6 102 145 11 115 107 62 
10 7 58 73 27 92 143 19 79 
11 6 54 62 75 9 116 145 
12 2 100 140 
13 4 99 136 43 65 
14 7 153 104 49 47 138 155 89 
15 7 48 90 22 24 143 56 19 
16 7 82 77 41 20 158 149 124 
17 6 125 113 97 152 139 109 
18 6 67 43 53 136 13 65 
19 7 24 27 56 39 15 48 10 
20 7 41 82 16 158 8 149 6 
21 4 40 133 91 105 
22 7 90 143 15 48 92 37 45 
23 7 7 2 26 69 61 80 29 
24 7 19 56 48 15 27 39 90 
25 7 105 130 91 21 133 40 86 
26 7 28 106 120 131 23 52 66 
27 7 19 24 73 10 39 56 15 
28 7 106 26 131 52 120 94 121 
29 7 88 95 3 70 26 120 23 
30 7 55 53 65 59 87 43 36 
31 7 118 63 35 137 80 61 157 
32 5 98 4 135 55 104 
33 7 111 117 119 113 97 64 154 
34 7 141 122 72 130 89 75 86 
35 7 31 118 157 63 148 132 110 
36 7 45 87 59 68 37 65 13 
37 6 45 68 36 87 59 92 
38 4 78 50 108 95 
39 7 56 19 24 76 27 44 48 
40 4 21 91 133 67 
41 7 20 82 16 158 149 8 77 
42 6 74 103 123 114 81 144 
43 6 65 13 99 53 18 136 
44 7 93 76 6 56 39 20 150 
45 7 36 68 37 87 59 13 99 
46 6 156 154 83 71 129 111 
47 7 89 153 49 14 138 122 107 
48 7 15 90 24 56 22 143 19 
49 7 153 14 138 155 104 47 126 
50 7 78 147 108 5 38 128 146 
51 7 142 4 32 135 144 71 98 
52 5 106 131 28 94 120 
53 7 65 43 18 30 13 99 67 
54 7 62 11 75 86 116 9 72 
55 7 30 98 59 87 32 104 4 
56 7 24 39 76 48 19 15 93 
57 7 85 60 124 152 127 110 139 
58 7 79 10 92 143 73 37 90 
59 7 87 36 30 45 65 68 55 
60 7 57 85 124 152 127 110 139 
61 7 80 137 63 2 118 31 103 
62 7 54 11 75 86 9 116 72 
63 7 137 118 31 80 61 35 103 
64 7 114 148 117 33 119 74 132 
65 7 43 53 13 99 30 18 59 
66 7 84 26 28 52 80 106 61 
67 5 18 91 40 43 53 
68 7 45 36 37 59 87 13 99 
69 7 2 146 81 7 23 147 103 
70 4 121 120 112 94 
71 7 129 156 46 101 142 83 154 
72 7 86 141 75 34 130 62 54 
73 7 10 27 58 19 24 92 143 
74 7 114 42 144 64 103 148 33 
75 7 62 54 11 86 72 141 9 
76 7 93 56 44 39 6 48 24 
77 7 16 82 124 41 158 57 20 
78 7 50 38 95 147 108 5 7 
79 7 58 92 100 12 37 143 10 
80 7 137 61 63 118 31 2 35 
81 4 146 69 147 123 
82 7 158 41 16 149 20 8 151 
83 6 154 156 46 97 109 113 
84 7 96 66 118 31 80 137 63 
85 7 57 60 124 152 127 17 139 
86 7 72 75 62 54 141 130 11 
87 7 59 36 45 30 68 55 65 
88 7 3 29 95 70 121 112 120 
89 6 47 107 122 102 153 14 
90 7 22 143 15 92 48 37 45 
91 6 40 21 67 130 133 18 
92 7 143 90 22 37 79 58 15 
93 7 76 44 6 56 48 150 39 
94 5 120 121 131 106 70 
95 7 29 88 78 3 38 50 7 
96 7 84 157 31 118 110 66 35 
97 6 113 125 17 119 154 83 
98 6 32 55 4 104 135 30 
99 4 13 136 43 65 
100 2 12 140 
101 7 129 71 151 156 83 8 46 
102 5 107 89 9 141 47 
103 7 42 74 114 64 2 63 137 
104 7 14 49 153 47 55 98 138 
105 6 133 21 25 40 91 130 
106 5 131 52 28 94 120 
107 5 102 89 134 47 9 
108 6 5 50 115 128 147 38 
109 6 125 83 151 97 154 17 
110 7 157 127 139 152 35 132 17 
111 6 33 117 119 154 113 97 
112 2 121 70 
113 6 97 125 119 17 111 117 
114 7 64 74 148 144 33 117 111 
115 2 145 9 
116 4 11 54 62 145 
117 7 119 33 132 111 148 113 97 
118 7 31 63 35 137 80 61 157 
119 7 117 132 33 113 111 97 148 
120 6 94 121 70 106 131 28 
121 4 70 94 120 112 
122 7 34 89 141 47 14 102 153 
123 1 42 
124 7 57 85 60 152 158 77 82 
125 6 17 97 113 109 83 154 
126 3 155 138 49 
127 7 139 110 157 152 17 132 125 
128 4 5 134 147 108 
129 7 71 101 156 46 83 150 154 
130 7 91 72 67 34 25 40 86 
131 5 106 52 94 120 28 
132 7 119 117 148 139 113 33 97 
133 4 21 105 40 91 
134 3 128 107 5 
135 3 32 123 98 
136 2 99 13 
137 7 80 61 63 118 31 2 35 
138 4 155 126 49 153 
139 7 127 110 152 17 157 132 125 
140 2 12 100 
141 7 34 122 72 75 102 89 86 
142 7 71 46 129 156 101 154 144 
143 7 92 90 22 15 37 48 45 
144 7 114 74 64 33 111 142 42 
145 2 115 9 
146 6 81 69 147 2 5 42 
147 7 5 50 146 128 81 69 108 
148 7 64 132 117 114 119 33 35 
149 7 158 8 151 101 109 82 150 
150 7 101 129 8 71 6 151 156 
151 7 149 8 101 109 83 129 158 
152 7 17 127 139 125 110 85 113 
153 7 49 14 47 138 104 155 89 
154 6 83 156 46 97 111 113 
155 4 126 138 49 153 
156 6 46 154 83 129 71 101 
157 7 110 127 139 35 31 132 118 
158 7 149 82 151 8 109 101 41 
DEPOT_SECTION
   1
   -1
EOF
