NAME :  X-n120-kX-w47-c9.cctp
COMMENT : 	Adapted by Maziero, Usberti and Cavellucci from the Uchoa, Pecin, Pessoa, Poggi, Subramanian, and Vidal (2013)
TYPE :  CCTP
DIMENSION :    117
EDGE_WEIGHT_TYPE : 	EUC_2D	
CAPACITY : 	21
VERTICES_WITHIN_COVERAGE :  9
VERTICES_WITH_DEMAND : 	47
NODE_COORD_SECTION
1 0 0
2 927 318
3 319 475
4 471 281
5 894 615
6 712 832
7 677 210
8 336 967
9 490 360
10 367 685
11 153 169
12 799 63
13 247 455
14 492 585
15 131 701
16 309 721
17 210 256
18 511 753
19 447 796
20 394 856
21 131 13
22 181 425
23 892 585
24 161 651
25 964 365
26 82 353
27 706 842
28 793 53
29 364 841
30 126 306
31 86 477
32 51 277
33 192 360
34 52 568
35 682 45
36 778 300
37 10 737
38 928 438
39 95 240
40 391 368
41 586 170
42 645 731
43 381 396
44 387 491
45 388 753
46 429 276
47 547 989
48 840 945
49 88 969
50 331 421
51 55 132
52 904 771
53 63 190
54 308 276
55 891 182
56 836 473
57 209 741
58 864 533
59 852 600
60 180 150
61 544 140
62 956 881
63 432 487
64 129 968
65 597 962
66 51 423
67 827 605
68 776 619
69 354 297
70 552 106
71 24 318
72 148 944
73 502 869
74 396 492
75 815 500
76 425 338
77 178 511
78 168 274
79 775 603
80 481 465
81 281 777
82 216 211
83 784 740
84 127 992
85 544 117
86 92 170
87 846 755
88 614 326
89 180 372
90 720 252
91 262 291
92 171 186
93 868 613
94 291 119
95 427 974
96 481 557
97 403 645
98 819 502
99 915 919
100 581 85
101 527 743
102 953 893
103 955 912
104 269 924
105 216 84
106 601 952
107 441 439
108 170 949
109 614 92
110 439 212
111 413 509
112 545 336
113 50 806
114 166 86
115 658 870
116 122 511
117 178 170
DEMAND_SECTION
2 1
3 1
4 1
5 1
6 1
7 1
8 1
9 1
10 1
11 1
12 1
13 1
14 1
15 1
16 1
17 1
18 1
19 1
20 1
21 1
22 1
23 1
24 1
25 1
26 1
27 1
28 1
29 1
30 1
31 1
32 1
33 1
34 1
35 1
36 1
37 1
38 1
39 1
40 1
41 1
42 1
43 1
44 1
45 1
46 1
47 1
48 1
COVERAGE_SECTION
2 9 25 38 55 36 56 98 75 90 58 
3 9 50 44 13 74 43 111 63 107 40 
4 9 46 76 110 9 112 40 69 43 88 
5 9 93 23 59 67 58 68 79 98 75 
6 9 27 115 83 42 87 106 48 65 52 
7 9 90 41 88 109 36 61 100 85 70 
8 9 104 95 20 29 108 72 73 81 19 
9 9 112 76 4 107 40 46 80 43 88 
10 9 97 16 45 81 19 29 18 14 57 
11 9 92 117 60 86 82 114 39 53 17 
12 9 28 35 55 109 7 90 100 36 41 
13 9 22 3 77 50 89 33 116 44 43 
14 9 96 97 111 63 80 74 44 107 10 
15 9 24 57 37 113 34 81 16 116 77 
16 9 81 10 45 57 97 29 19 20 24 
17 9 82 78 91 92 117 30 54 11 33 
18 9 101 19 73 45 42 97 20 10 14 
19 9 45 18 20 73 29 101 10 16 97 
20 9 29 19 45 73 95 8 81 104 18 
21 9 114 105 51 60 11 86 117 92 53 
22 9 89 33 13 77 116 31 26 66 30 
23 9 5 93 59 58 67 98 75 79 68 
24 9 15 57 34 77 116 16 37 81 31 
25 9 2 38 56 58 36 55 98 75 23 
26 9 30 71 66 32 89 33 39 78 22 
27 9 6 115 42 83 106 65 87 48 101 
28 9 12 35 55 109 7 90 100 41 36 
29 9 20 45 19 81 104 8 16 73 95 
30 9 78 26 39 32 33 89 17 71 92 
31 9 116 66 34 77 22 26 89 33 13 
32 9 71 39 30 26 53 86 78 51 66 
33 9 89 22 30 78 91 17 13 26 54 
34 9 116 31 24 77 66 15 37 22 26 
35 9 109 100 28 12 70 85 41 7 61 
36 9 90 7 2 55 88 56 25 75 38 
37 9 113 15 24 34 57 49 72 116 64 
38 9 25 56 58 2 98 75 23 59 5 
39 9 32 53 86 30 78 11 92 71 117 
40 9 43 76 50 69 107 9 46 4 44 
41 9 61 85 70 109 100 7 110 90 35 
42 9 101 6 27 18 83 115 68 79 73 
43 9 40 50 76 107 44 74 3 69 63 
44 9 74 111 63 3 107 50 43 80 96 
45 9 10 19 16 29 20 97 81 18 101 
46 9 4 76 110 69 40 9 54 43 112 
47 9 65 106 95 73 115 20 8 19 27 
48 9 99 103 102 62 27 6 52 87 115 
49 9 64 84 72 108 113 104 37 8 57 
50 9 3 43 40 44 13 74 107 111 63 
51 9 86 53 11 39 114 60 92 117 21 
52 9 87 62 83 102 99 103 5 93 59 
53 9 86 39 51 32 11 92 117 60 30 
54 9 91 69 17 82 46 40 76 43 78 
55 9 2 12 28 36 90 25 7 35 38 
56 8 75 98 58 38 23 59 67 79 
57 9 81 15 16 24 10 113 45 29 104 
58 9 98 23 75 56 59 93 67 5 79 
59 9 93 67 23 5 58 79 68 98 75 
60 9 117 11 92 114 82 105 86 17 94 
61 9 85 70 41 100 109 110 7 4 35 
62 9 102 103 99 52 48 87 83 6 27 
63 9 111 74 44 107 80 96 43 3 14 
64 9 84 72 49 108 104 113 8 57 81 
65 9 106 47 115 73 27 95 6 19 18 
66 9 31 26 71 116 22 30 89 34 32 
67 9 59 93 79 68 5 23 58 98 75 
68 8 79 67 59 93 5 23 83 58 
69 9 54 46 40 76 91 43 4 110 50 
70 9 85 61 100 109 41 35 110 7 4 
71 9 32 26 30 39 66 53 78 86 89 
72 9 108 64 84 49 104 113 8 57 81 
73 9 19 20 18 47 101 95 106 65 29 
74 9 44 111 63 107 3 80 50 43 96 
75 8 98 56 58 67 59 79 23 68 
76 9 40 46 9 4 43 69 107 112 50 
77 9 116 22 13 31 34 89 24 3 33 
78 9 17 30 82 39 92 33 91 89 117 
79 8 68 67 59 93 75 98 58 23 
80 9 107 63 111 74 96 44 9 14 43 
81 9 16 57 29 45 10 20 104 19 15 
82 9 17 92 117 60 11 78 91 54 94 
83 9 87 6 68 52 27 79 42 67 93 
84 9 64 49 72 108 104 113 8 57 81 
85 9 70 61 100 41 109 110 35 7 4 
86 9 53 51 11 39 92 117 60 114 32 
87 9 52 83 93 5 67 68 6 59 27 
88 9 112 9 90 7 4 41 36 76 46 
89 9 33 22 30 78 26 13 91 17 66 
90 9 7 36 88 41 55 109 112 12 61 
91 9 54 17 69 82 78 33 89 30 92 
92 9 117 11 60 82 17 86 78 39 114 
93 9 59 5 23 67 58 68 79 98 75 
94 7 105 60 82 117 114 92 11 
95 9 8 47 20 73 29 104 65 106 19 
96 9 14 111 63 80 74 44 97 107 10 
97 9 10 14 45 96 16 111 18 74 44 
98 8 75 56 58 59 67 79 23 93 
99 9 103 102 62 48 52 87 6 83 27 
100 9 109 70 85 61 41 35 7 110 28 
101 9 18 19 42 73 45 97 14 10 20 
102 9 62 103 99 48 52 87 83 6 27 
103 9 102 62 99 48 52 87 83 6 27 
104 9 8 108 72 29 20 64 81 84 95 
105 7 114 60 94 117 11 21 92 
106 9 65 47 115 73 27 6 95 18 19 
107 9 80 63 74 43 44 111 40 9 76 
108 9 72 64 84 49 104 8 113 81 57 
109 9 100 70 85 35 41 61 7 28 12 
110 8 46 4 69 61 76 85 54 41 
111 9 74 63 44 107 80 96 3 14 43 
112 9 9 88 4 76 46 80 107 40 110 
113 9 37 15 49 72 57 64 108 24 84 
114 9 105 60 21 11 117 92 86 51 94 
115 9 27 6 106 65 42 73 47 83 101 
116 9 31 77 34 22 66 13 24 89 26 
117 9 92 60 11 82 114 86 17 105 78 
DEPOT_SECTION
   1
   -1
EOF
