NAME :  X-n120-kX-w23-c11.cctp
COMMENT : 	Adapted by Maziero, Usberti and Cavellucci from the Uchoa, Pecin, Pessoa, Poggi, Subramanian, and Vidal (2013)
TYPE :  CCTP
DIMENSION :    119
EDGE_WEIGHT_TYPE : 	EUC_2D	
CAPACITY : 	21
VERTICES_WITHIN_COVERAGE :  11
VERTICES_WITH_DEMAND : 	23
NODE_COORD_SECTION
1 0 0
2 927 318
3 319 475
4 471 281
5 894 615
6 712 832
7 677 210
8 336 967
9 490 360
10 367 685
11 153 169
12 799 63
13 247 455
14 492 585
15 131 701
16 309 721
17 210 256
18 511 753
19 447 796
20 394 856
21 131 13
22 181 425
23 892 585
24 161 651
25 964 365
26 82 353
27 706 842
28 793 53
29 364 841
30 126 306
31 86 477
32 51 277
33 192 360
34 52 568
35 682 45
36 778 300
37 10 737
38 928 438
39 95 240
40 391 368
41 586 170
42 645 731
43 381 396
44 387 491
45 388 753
46 429 276
47 547 989
48 840 945
49 88 969
50 331 421
51 55 132
52 904 771
53 63 190
54 731 528
55 320 84
56 308 276
57 891 182
58 836 473
59 209 741
60 864 533
61 852 600
62 180 150
63 544 140
64 956 881
65 432 487
66 129 968
67 597 962
68 51 423
69 827 605
70 776 619
71 354 297
72 311 129
73 552 106
74 148 944
75 502 869
76 396 492
77 815 500
78 425 338
79 178 511
80 168 274
81 775 603
82 481 465
83 281 777
84 216 211
85 784 740
86 127 992
87 544 117
88 92 170
89 846 755
90 614 326
91 180 372
92 720 252
93 262 291
94 171 186
95 868 613
96 291 119
97 427 974
98 481 557
99 403 645
100 819 502
101 915 919
102 581 85
103 527 743
104 953 893
105 955 912
106 269 924
107 216 84
108 601 952
109 441 439
110 170 949
111 614 92
112 439 212
113 413 509
114 545 336
115 50 806
116 166 86
117 658 870
118 122 511
119 178 170
DEMAND_SECTION
2 1
3 1
4 1
5 1
6 1
7 1
8 1
9 1
10 1
11 1
12 1
13 1
14 1
15 1
16 1
17 1
18 1
19 1
20 1
21 1
22 1
23 1
24 1
COVERAGE_SECTION
2 11 25 38 57 36 58 100 77 92 60 23 7 
3 11 50 44 13 76 43 113 65 109 40 79 22 
4 11 46 78 112 9 114 40 71 43 90 63 41 
5 11 95 23 61 69 60 70 81 100 77 89 58 
6 11 27 117 85 42 89 108 48 67 52 103 75 
7 11 92 41 90 111 36 63 102 87 73 35 114 
8 11 106 97 20 29 110 74 75 83 19 66 86 
9 11 114 78 4 109 40 46 82 43 90 65 71 
10 11 99 16 45 83 19 29 18 14 59 103 98 
11 11 94 119 62 88 84 116 39 53 17 51 80 
12 11 28 35 57 111 7 92 102 36 41 73 87 
13 11 22 3 79 50 91 33 118 44 43 76 31 
14 11 98 99 113 65 82 76 44 109 10 103 18 
15 11 24 59 37 115 34 83 16 118 79 31 10 
16 11 83 10 45 59 99 29 19 20 24 15 18 
17 11 84 80 93 94 119 30 56 11 33 62 39 
18 11 103 19 75 45 42 99 20 10 14 29 117 
19 11 45 18 20 75 29 103 10 16 99 83 97 
20 11 29 19 45 75 97 8 83 106 18 16 10 
21 11 116 107 51 62 11 88 119 94 53 96 55 
22 11 91 33 13 79 118 31 26 68 30 3 50 
23 11 5 95 61 60 69 100 77 81 70 58 38 
24 11 15 59 34 79 118 16 37 83 31 115 10 
25 11 2 38 58 60 36 57 100 77 23 5 61 
26 10 30 68 32 91 33 39 80 22 31 17 
27 11 6 117 42 85 108 67 89 48 103 75 52 
28 11 12 35 57 111 7 92 102 41 36 73 87 
29 11 20 45 19 83 106 8 16 75 97 10 18 
30 10 80 26 39 32 33 91 17 94 22 84 
31 10 118 68 34 79 22 26 91 33 13 30 
32 10 39 30 26 53 88 80 51 68 11 94 
33 11 91 22 30 80 93 17 13 26 56 84 50 
34 11 118 31 24 79 68 15 37 22 26 13 59 
35 11 111 102 28 12 73 87 41 7 63 92 57 
36 11 92 7 2 57 90 58 25 77 38 100 41 
37 11 115 15 24 34 59 49 74 118 66 110 31 
38 11 25 58 60 2 100 77 23 61 5 95 69 
39 10 32 53 88 30 80 11 94 119 26 51 
40 11 43 78 50 71 109 9 46 4 44 56 76 
41 11 63 87 73 111 102 7 112 92 35 90 4 
42 11 103 6 27 18 85 117 70 81 75 89 19 
43 11 40 50 78 109 44 76 3 71 65 9 113 
44 11 76 113 65 3 109 50 43 82 98 40 14 
45 11 10 19 16 29 20 99 83 18 103 75 59 
46 11 4 78 112 71 40 9 56 43 114 109 93 
47 11 67 108 97 75 117 20 8 19 27 6 29 
48 11 101 105 104 64 27 6 52 89 117 85 108 
49 11 66 86 74 110 115 106 37 8 59 15 83 
50 11 3 43 40 44 13 76 109 113 65 78 71 
51 11 88 53 11 39 116 62 94 119 21 32 107 
52 11 89 64 85 104 101 105 5 95 61 69 48 
53 10 88 39 51 32 11 94 119 62 30 80 
54 11 81 77 100 70 58 69 60 61 95 23 5 
55 11 96 72 107 116 62 84 119 112 94 11 56 
56 11 93 71 17 84 46 40 78 43 80 33 112 
57 11 2 12 28 36 92 25 7 35 38 111 58 
58 11 77 100 60 38 54 23 61 69 81 95 5 
59 11 83 15 16 24 10 115 45 29 106 37 74 
60 11 100 23 77 58 61 95 69 5 81 38 70 
61 11 95 69 23 5 60 81 70 100 77 58 54 
62 11 119 11 94 116 84 107 88 17 96 39 53 
63 11 87 73 41 102 111 112 7 4 35 46 114 
64 11 104 105 101 52 48 89 85 6 27 5 95 
65 11 113 76 44 109 82 98 43 3 14 50 40 
66 11 86 74 49 110 106 115 8 59 83 37 15 
67 11 108 47 117 75 27 97 6 19 18 20 103 
68 10 31 26 118 22 30 91 34 32 33 79 
69 11 61 95 81 70 5 23 60 100 77 54 58 
70 11 81 69 61 95 54 5 23 85 60 77 100 
71 11 56 46 40 78 93 43 4 112 50 9 17 
72 11 96 55 107 84 62 119 56 94 116 112 17 
73 11 87 63 102 111 41 35 112 7 4 46 92 
74 11 110 66 86 49 106 115 8 59 83 29 15 
75 11 19 20 18 47 103 97 108 67 29 117 45 
76 11 44 113 65 109 3 82 50 43 98 40 14 
77 11 100 58 60 54 69 61 81 23 70 95 38 
78 11 40 46 9 4 43 71 109 114 50 112 56 
79 11 118 22 13 31 34 91 24 3 33 68 50 
80 11 17 30 84 39 94 33 93 91 119 11 26 
81 11 70 69 61 54 95 77 100 60 23 5 85 
82 11 109 65 113 76 98 44 9 14 43 40 78 
83 11 16 59 29 45 10 20 106 19 15 24 99 
84 11 17 94 119 62 11 80 93 56 96 39 72 
85 11 89 6 70 52 27 81 42 69 95 61 5 
86 11 66 49 74 110 106 115 8 59 83 29 37 
87 11 73 63 102 41 111 112 35 7 4 46 114 
88 11 53 51 11 39 94 119 62 116 32 80 84 
89 11 52 85 95 5 69 70 6 61 27 64 81 
90 11 114 9 92 7 4 41 36 78 46 82 63 
91 11 33 22 30 80 26 13 93 17 68 79 31 
92 11 7 36 90 41 57 111 114 12 63 35 28 
93 11 56 17 71 84 80 33 91 30 94 50 119 
94 11 119 11 62 84 17 88 80 39 116 53 107 
95 11 61 5 23 69 60 70 81 100 77 58 89 
96 11 72 55 107 62 84 119 116 94 11 56 17 
97 11 8 47 20 75 29 106 67 108 19 45 18 
98 11 14 113 65 82 76 44 99 109 10 3 43 
99 11 10 14 45 98 16 113 18 76 44 19 103 
100 11 77 58 60 54 61 69 81 23 95 70 38 
101 11 105 104 64 48 52 89 6 85 27 117 5 
102 11 111 73 87 63 41 35 7 112 28 92 12 
103 11 18 19 42 75 45 99 14 10 20 117 29 
104 11 64 105 101 48 52 89 85 6 27 5 95 
105 11 104 64 101 48 52 89 85 6 27 117 5 
106 11 8 110 74 29 20 66 83 86 97 49 59 
107 11 116 62 96 119 55 72 11 21 94 84 88 
108 11 67 47 117 75 27 6 97 18 19 103 42 
109 11 82 65 76 43 44 113 40 9 78 50 98 
110 11 74 66 86 49 106 8 115 83 59 29 20 
111 11 102 73 87 35 41 63 7 28 12 92 112 
112 11 46 4 71 63 78 87 56 41 72 73 9 
113 11 76 65 44 109 82 98 3 14 43 50 99 
114 11 9 90 4 78 46 82 109 40 112 41 43 
115 11 37 15 49 74 59 66 110 24 86 83 34 
116 11 107 62 21 11 119 94 88 51 96 84 53 
117 11 27 6 108 67 42 75 47 85 103 18 48 
118 11 31 79 34 22 68 13 24 91 26 33 15 
119 11 94 62 11 84 116 88 17 107 80 39 53 
DEPOT_SECTION
   1
   -1
EOF
