NAME :  X-n148-kX-w14-c7.cctp
COMMENT : 	Adapted by Maziero, Usberti and Cavellucci from the Uchoa, Pecin, Pessoa, Poggi, Subramanian, and Vidal (2013)
TYPE :  CCTP
DIMENSION :    64
EDGE_WEIGHT_TYPE : 	EUC_2D	
CAPACITY : 	18
VERTICES_WITHIN_COVERAGE :  7
VERTICES_WITH_DEMAND : 	14
NODE_COORD_SECTION
1 707 633
2 405 122
3 811 419
4 11 667
5 336 612
6 366 50
7 98 836
8 414 996
9 243 713
10 100 232
11 891 946
12 132 204
13 25 642
14 994 18
15 636 897
16 214 651
17 108 619
18 882 399
19 409 585
20 25 182
21 251 111
22 263 799
23 172 127
24 231 650
25 964 107
26 936 70
27 229 744
28 161 214
29 154 860
30 61 889
31 129 248
32 161 301
33 180 836
34 427 670
35 833 860
36 450 926
37 468 157
38 288 484
39 574 955
40 41 65
41 907 13
42 579 912
43 765 835
44 176 189
45 470 22
46 110 670
47 765 469
48 111 694
49 572 872
50 134 794
51 132 871
52 170 677
53 847 462
54 732 383
55 281 669
56 84 809
57 83 648
58 779 427
59 216 721
60 954 764
61 339 814
62 21 341
63 67 772
64 92 325
DEMAND_SECTION
2 10
3 4
4 7
5 4
6 8
7 1
8 4
9 1
10 5
11 5
12 1
13 4
14 4
15 4
COVERAGE_SECTION
2 4 37 6 45 21 
3 5 58 53 47 18 54 
4 6 13 57 46 48 17 63 
5 7 19 55 34 24 16 9 38 
6 6 2 45 21 37 23 44 
7 6 56 51 50 29 30 63 
8 6 36 39 42 61 49 15 
9 7 59 27 55 24 16 52 22 
10 7 31 12 28 44 20 32 64 
11 5 35 43 60 15 42 
12 7 28 10 31 44 23 32 20 
13 6 4 57 17 46 48 63 
14 3 26 41 25 
15 6 42 49 39 43 36 35 
16 6 24 52 9 55 59 27 
17 5 57 46 48 52 13 
18 2 53 3 
19 3 5 34 55 
20 7 10 12 40 31 28 44 23 
21 7 23 44 6 28 12 2 31 
22 6 27 61 9 33 59 29 
23 7 44 21 12 28 10 31 40 
24 6 16 55 9 52 59 27 
25 3 26 14 41 
26 3 25 41 14 
27 7 59 9 22 52 55 16 24 
28 7 44 12 31 10 32 23 64 
29 5 51 33 7 50 56 
30 2 7 51 
31 6 10 12 28 32 44 64 
32 6 31 64 28 10 12 44 
33 6 29 51 50 7 22 56 
34 4 19 5 55 61 
35 4 43 11 60 15 
36 6 8 39 42 49 61 15 
37 3 2 45 6 
38 1 5 
39 7 42 49 15 36 8 43 61 
40 7 20 23 12 10 44 28 31 
41 3 26 14 25 
42 6 49 39 15 36 8 43 
43 6 35 15 11 49 42 60 
44 7 28 12 23 31 10 21 32 
45 4 6 2 37 21 
46 6 48 57 17 52 13 4 
47 2 58 3 
48 6 46 57 52 17 63 13 
49 6 42 15 39 36 43 8 
50 6 56 7 33 29 63 51 
51 4 29 7 33 30 
52 6 16 46 48 59 24 9 
53 2 3 18 
54 3 58 3 47 
55 7 24 9 16 5 59 27 52 
56 6 7 63 50 51 30 29 
57 6 46 17 48 13 4 52 
58 4 3 47 54 53 
59 7 27 9 52 16 24 55 22 
60 3 35 11 43 
61 6 22 27 9 59 55 36 
62 2 64 10 
63 6 56 7 50 48 46 30 
64 4 32 62 31 10 
DEPOT_SECTION
   1
   -1
EOF
