NAME :  X-n157-kX-w15-c9.cctp
COMMENT : 	Adapted by Maziero, Usberti and Cavellucci from the Uchoa, Pecin, Pessoa, Poggi, Subramanian, and Vidal (2013)
TYPE :  CCTP
DIMENSION :    114
EDGE_WEIGHT_TYPE : 	EUC_2D	
CAPACITY : 	12
VERTICES_WITHIN_COVERAGE :  9
VERTICES_WITH_DEMAND : 	15
NODE_COORD_SECTION
1 769 259
2 91 377
3 108 338
4 816 567
5 725 520
6 117 357
7 766 559
8 90 417
9 255 430
10 63 384
11 35 276
12 122 318
13 85 322
14 267 348
15 937 546
16 865 461
17 724 431
18 243 571
19 782 596
20 77 272
21 69 239
22 972 607
23 320 521
24 91 434
25 20 305
26 81 271
27 830 553
28 741 527
29 587 551
30 808 435
31 26 278
32 58 394
33 755 444
34 817 557
35 216 510
36 124 330
37 132 369
38 915 492
39 161 319
40 37 227
41 770 524
42 745 582
43 695 469
44 124 355
45 11 283
46 258 406
47 72 335
48 713 399
49 214 344
50 213 349
51 98 440
52 701 512
53 842 518
54 125 379
55 352 410
56 825 592
57 863 511
58 98 347
59 115 326
60 71 392
61 65 404
62 75 342
63 140 300
64 129 340
65 129 273
66 109 463
67 139 356
68 77 351
69 154 322
70 231 323
71 115 394
72 844 558
73 98 454
74 739 568
75 844 554
76 72 473
77 632 575
78 823 578
79 47 381
80 71 336
81 754 484
82 80 355
83 172 296
84 28 310
85 754 579
86 87 382
87 866 481
88 93 337
89 942 567
90 788 567
91 824 451
92 98 384
93 104 370
94 48 462
95 952 629
96 239 324
97 747 605
98 43 268
99 792 597
100 95 352
101 109 413
102 67 224
103 104 386
104 779 419
105 40 456
106 66 395
107 862 465
108 383 357
109 307 434
110 233 421
111 329 280
112 623 554
113 103 349
114 75 266
DEMAND_SECTION
2 1
3 1
4 1
5 1
6 1
7 1
8 1
9 1
10 1
11 1
12 1
13 1
14 1
15 1
16 1
COVERAGE_SECTION
2 9 86 92 93 103 60 82 100 10 71 
3 9 113 58 59 88 36 100 6 64 44 
4 9 34 78 27 56 90 72 75 99 19 
5 9 28 52 41 81 74 7 43 42 85 
6 9 44 113 93 37 3 58 64 67 54 
7 9 85 90 74 42 41 19 28 99 97 
8 9 24 101 51 61 60 106 71 92 103 
9 7 46 110 109 14 35 50 49 
10 9 32 60 106 79 61 86 2 82 92 
11 9 31 98 45 25 84 114 20 26 40 
12 9 59 36 64 3 63 69 88 113 13 
13 9 88 47 80 62 3 58 59 68 100 
14 8 96 70 49 50 46 110 9 111 
15 3 89 38 22 
16 7 107 87 91 57 38 53 30 
17 9 33 48 43 104 81 30 52 5 28 
18 3 35 23 9 
19 8 99 90 85 97 7 42 56 4 
20 7 26 114 21 98 11 102 13 
21 7 102 114 20 26 40 98 11 
22 3 95 89 15 
23 7 109 18 35 9 55 46 110 
24 9 51 8 73 101 66 61 76 106 60 
25 9 84 45 31 11 98 47 80 20 62 
26 7 20 114 21 98 11 65 102 
27 7 34 75 72 4 78 53 56 
28 9 5 41 7 74 52 81 85 42 90 
29 8 112 77 52 43 5 74 28 42 
30 9 91 104 33 107 16 81 87 17 53 
31 9 11 45 98 25 84 114 20 40 26 
32 9 106 10 61 60 79 86 2 8 92 
33 9 17 104 81 30 48 43 91 41 5 
34 8 4 27 78 72 75 90 56 53 
35 3 18 9 110 
36 9 59 64 12 3 44 6 113 67 58 
37 8 54 67 44 6 93 64 71 103 
38 6 87 57 15 16 107 53 
39 8 69 83 63 64 12 36 67 59 
40 8 102 21 98 11 31 114 20 26 
41 9 28 7 81 5 90 74 34 85 4 
42 8 85 74 97 7 19 90 99 28 
43 9 52 17 5 81 33 48 28 41 104 
44 9 6 67 37 64 113 3 54 36 93 
45 9 31 25 11 84 98 40 114 20 26 
46 8 9 110 109 14 50 49 96 70 
47 9 80 62 68 13 88 82 58 100 113 
48 8 17 33 104 43 81 30 52 5 
49 5 50 70 96 14 39 
50 5 49 70 96 14 39 
51 7 24 73 8 66 101 76 61 
52 9 5 28 43 81 74 41 7 42 17 
53 7 57 75 27 72 87 34 4 
54 9 37 71 103 6 93 44 67 92 2 
55 9 109 108 46 9 14 23 110 111 96 
56 7 78 4 99 34 27 72 75 
57 6 53 87 107 75 16 72 
58 9 113 100 88 3 82 6 68 62 93 
59 9 36 12 3 64 88 113 58 13 44 
60 9 106 10 32 61 86 2 79 92 8 
61 9 106 32 60 10 8 79 86 2 92 
62 9 80 47 68 82 88 13 100 58 113 
63 8 12 69 39 65 83 36 59 64 
64 9 36 44 67 59 3 6 12 113 37 
65 5 63 12 26 83 20 
66 6 73 51 24 76 8 101 
67 7 37 44 64 6 54 36 3 
68 9 82 62 80 47 100 58 88 113 2 
69 8 39 63 36 64 12 83 67 59 
70 7 96 49 50 14 83 39 69 
71 9 103 54 92 101 93 2 37 86 8 
72 5 75 27 34 4 78 
73 7 51 66 24 76 8 101 94 
74 9 42 85 7 97 28 90 5 19 41 
75 5 72 27 34 4 78 
76 7 94 73 105 66 51 24 8 
77 9 112 29 52 74 5 42 28 97 85 
78 8 4 56 34 27 72 75 99 90 
79 9 10 32 106 60 61 86 68 82 2 
80 9 47 62 68 13 82 88 58 100 113 
81 9 33 41 28 5 52 17 43 104 30 
82 9 68 62 100 58 80 47 88 113 2 
83 7 39 63 69 65 12 36 64 
84 9 25 31 45 11 98 80 47 62 13 
85 8 42 74 7 97 19 90 99 28 
86 9 2 92 103 60 93 10 106 82 71 
87 7 107 16 57 53 38 91 30 
88 9 58 3 100 113 13 62 47 68 80 
89 4 15 22 95 38 
90 9 7 4 19 99 34 85 78 27 56 
91 8 30 107 16 87 104 33 53 57 
92 9 103 2 86 93 71 54 60 101 100 
93 9 2 92 103 6 100 86 113 54 58 
94 9 105 76 24 73 51 61 66 8 32 
95 3 22 89 15 
96 7 70 49 50 14 83 39 46 
97 6 42 85 19 74 99 7 
98 9 11 31 114 20 45 26 21 40 25 
99 9 19 90 56 78 4 85 7 97 34 
100 9 58 113 82 88 68 3 93 62 6 
101 9 8 71 103 24 51 92 54 86 2 
102 7 21 40 114 20 26 98 11 
103 9 92 71 2 93 86 54 101 6 37 
104 9 30 33 91 17 48 81 107 16 43 
105 9 94 76 24 61 73 51 8 32 106 
106 9 60 32 61 10 79 86 2 8 92 
107 7 16 87 91 57 53 38 30 
108 9 55 111 109 14 46 9 96 70 110 
109 9 55 9 46 110 23 14 108 35 50 
110 6 9 46 50 109 49 14 
111 8 14 108 96 70 49 55 50 46 
112 9 77 29 52 5 43 74 28 42 85 
113 9 58 100 3 6 88 93 44 82 59 
114 7 20 26 21 98 11 102 31 
DEPOT_SECTION
   1
   -1
EOF
