NAME :  X-n195-kX-w19-c9.cctp
COMMENT : 	Adapted by Maziero, Usberti and Cavellucci from the Uchoa, Pecin, Pessoa, Poggi, Subramanian, and Vidal (2013)
TYPE :  CCTP
DIMENSION :    115
EDGE_WEIGHT_TYPE : 	EUC_2D	
CAPACITY : 	181
VERTICES_WITHIN_COVERAGE :  9
VERTICES_WITH_DEMAND : 	19
NODE_COORD_SECTION
1 500 500
2 691 729
3 978 828
4 427 367
5 777 543
6 190 596
7 773 750
8 234 727
9 851 358
10 140 69
11 891 285
12 467 13
13 537 162
14 636 355
15 213 284
16 75 877
17 384 814
18 606 173
19 76 236
20 86 733
21 303 261
22 771 775
23 107 264
24 38 170
25 907 792
26 539 273
27 491 411
28 457 218
29 398 153
30 8 330
31 75 781
32 560 188
33 27 523
34 432 198
35 695 372
36 203 307
37 641 389
38 836 612
39 375 499
40 577 226
41 889 259
42 516 324
43 102 346
44 318 976
45 223 11
46 365 982
47 648 790
48 878 261
49 600 800
50 549 214
51 638 166
52 452 172
53 711 687
54 924 905
55 786 203
56 24 32
57 843 248
58 115 449
59 82 971
60 876 644
61 322 24
62 642 810
63 685 607
64 141 824
65 330 941
66 830 188
67 469 250
68 970 812
69 723 360
70 274 238
71 668 103
72 269 147
73 135 493
74 930 729
75 388 767
76 517 382
77 537 160
78 457 1
79 295 704
80 802 446
81 785 358
82 592 694
83 607 347
84 767 401
85 854 524
86 325 778
87 465 885
88 394 769
89 888 436
90 980 290
91 710 300
92 253 971
93 372 794
94 438 871
95 758 513
96 728 143
97 458 787
98 752 463
99 550 133
100 625 799
101 660 428
102 575 120
103 433 847
104 516 12
105 766 270
106 265 183
107 919 380
108 699 633
109 773 599
110 231 773
111 250 657
112 275 755
113 381 870
114 654 377
115 211 808
DEMAND_SECTION
2 79
3 84
4 100
5 23
6 32
7 90
8 8
9 50
10 29
11 96
12 26
13 17
14 92
15 41
16 16
17 95
18 41
19 69
20 30
COVERAGE_SECTION
2 9 53 47 7 22 62 100 108 82 49 
3 4 68 25 54 74 
4 7 27 76 42 67 39 26 28 
5 7 95 109 85 98 38 80 63 
6 6 111 73 8 79 58 20 
7 8 22 2 53 47 108 25 62 60 
8 6 110 112 79 111 115 86 
9 8 81 107 11 89 84 48 80 41 
10 9 45 56 24 72 106 19 61 23 70 
11 8 41 48 57 9 90 107 66 105 
12 2 78 104 
13 5 77 99 32 50 102 
14 7 114 83 37 35 101 69 91 
15 9 36 70 21 23 106 43 19 72 58 
16 9 64 59 31 20 115 110 92 8 112 
17 7 93 88 75 113 103 86 94 
18 8 51 32 40 102 99 13 50 77 
19 9 23 24 43 30 15 36 10 106 70 
20 9 31 64 16 115 8 110 6 111 112 
21 9 70 106 15 36 72 29 34 28 4 
22 7 7 2 53 47 62 25 100 
23 9 19 43 36 15 24 30 70 106 58 
24 9 19 23 56 10 30 43 15 36 106 
25 6 68 74 3 54 22 7 
26 8 42 40 50 67 32 28 83 13 
27 6 76 4 42 83 26 39 
28 8 34 67 52 29 50 13 26 77 
29 7 34 52 28 67 72 106 13 
30 9 43 19 23 58 24 33 36 73 15 
31 9 20 64 16 115 110 8 59 112 111 
32 8 50 13 77 40 18 99 102 51 
33 9 73 58 6 43 30 20 111 31 23 
34 8 28 52 29 67 13 77 50 32 
35 8 69 114 37 14 101 91 84 81 
36 9 15 70 23 43 21 106 19 58 72 
37 6 114 14 101 83 35 69 
38 8 60 109 85 5 95 108 53 74 
39 3 4 27 76 
40 8 50 32 18 26 13 77 51 99 
41 9 48 11 57 66 90 9 55 105 107 
42 8 26 76 67 27 83 4 40 50 
43 9 23 30 58 36 19 15 73 24 33 
44 9 65 46 92 113 94 87 103 17 93 
45 9 61 10 72 106 56 29 70 78 12 
46 8 44 65 92 113 94 87 103 17 
47 6 62 100 49 2 82 53 
48 9 41 11 57 66 9 90 55 105 107 
49 5 100 62 47 82 2 
50 8 32 40 13 77 26 18 99 67 
51 7 18 71 102 32 40 96 99 
52 7 34 28 29 67 13 77 99 
53 9 2 108 63 7 22 109 82 47 62 
54 1 3 
55 8 66 105 57 96 48 41 91 11 
56 9 10 24 45 19 23 72 106 30 61 
57 8 48 41 11 66 55 105 9 81 
58 9 73 43 33 30 6 36 23 15 19 
59 9 16 64 92 31 115 44 20 110 65 
60 8 38 74 109 85 5 7 25 22 
61 9 45 72 78 12 29 106 10 104 52 
62 5 100 47 49 2 82 
63 4 108 53 109 5 
64 9 115 31 16 110 20 8 112 59 92 
65 9 44 46 92 113 94 17 103 87 93 
66 7 55 57 48 41 105 96 11 
67 8 28 34 26 52 42 50 32 13 
68 4 3 25 74 54 
69 8 35 84 91 81 114 14 37 101 
70 9 21 106 15 72 36 29 34 23 28 
71 4 51 96 18 102 
72 9 106 70 21 29 61 45 15 10 34 
73 9 58 33 6 43 36 111 30 15 23 
74 8 25 68 60 3 38 7 22 54 
75 3 88 93 17 
76 6 27 42 4 83 26 14 
77 5 13 99 32 50 102 
78 2 12 104 
79 3 112 8 111 
80 8 98 84 95 89 81 85 5 9 
81 8 84 69 9 80 105 35 91 98 
82 4 2 49 100 47 
83 8 14 37 114 35 42 76 101 26 
84 7 81 80 69 98 35 9 101 
85 7 5 38 80 89 95 109 98 
86 6 93 112 75 17 88 79 
87 5 94 103 113 97 17 
88 3 75 93 17 
89 4 107 9 80 85 
90 5 11 41 48 107 57 
91 8 69 105 35 14 81 114 37 83 
92 9 44 65 46 113 115 59 64 110 16 
93 5 17 75 88 86 113 
94 6 103 87 113 17 97 93 
95 5 5 98 80 109 85 
96 5 71 55 51 66 18 
97 4 103 88 75 17 
98 5 95 80 84 5 101 
99 3 102 77 13 
100 5 62 47 49 2 82 
101 4 37 114 35 14 
102 3 99 77 13 
103 7 94 87 113 17 97 93 88 
104 2 12 78 
105 8 91 55 57 81 69 66 48 9 
106 9 72 70 21 15 29 36 34 10 61 
107 3 89 9 11 
108 6 63 53 109 2 5 82 
109 9 5 38 108 95 63 53 85 60 98 
110 7 115 8 112 79 86 64 111 
111 4 79 8 6 112 
112 5 110 8 79 86 115 
113 9 17 94 103 93 87 65 88 75 86 
114 6 37 14 35 101 83 69 
115 9 110 64 112 8 86 79 31 20 16 
DEPOT_SECTION
   1
   -1
EOF
