NAME :  X-n129-kX-w51-c9.cctp
COMMENT : 	Adapted by Maziero, Usberti and Cavellucci from the Uchoa, Pecin, Pessoa, Poggi, Subramanian, and Vidal (2013)
TYPE :  CCTP
DIMENSION :    128
EDGE_WEIGHT_TYPE : 	EUC_2D	
CAPACITY : 	39
VERTICES_WITHIN_COVERAGE :  9
VERTICES_WITH_DEMAND : 	51
NODE_COORD_SECTION
1 0 0
2 51 570
3 691 985
4 66 119
5 502 415
6 434 289
7 427 584
8 342 576
9 790 87
10 312 475
11 908 531
12 840 566
13 863 232
14 284 833
15 515 175
16 9 243
17 768 209
18 777 582
19 84 508
20 380 523
21 255 267
22 544 961
23 408 661
24 57 588
25 278 44
26 168 722
27 726 406
28 223 385
29 495 70
30 560 632
31 235 655
32 643 127
33 765 267
34 459 976
35 585 962
36 154 796
37 650 444
38 931 52
39 377 19
40 178 633
41 917 803
42 871 677
43 667 164
44 208 651
45 35 437
46 503 680
47 462 870
48 322 123
49 677 829
50 878 407
51 223 251
52 671 94
53 218 351
54 375 220
55 367 567
56 986 869
57 236 769
58 202 998
59 761 712
60 75 520
61 14 737
62 895 632
63 224 725
64 328 387
65 36 300
66 817 531
67 31 283
68 209 574
69 490 395
70 659 121
71 410 207
72 761 450
73 768 348
74 873 349
75 439 179
76 51 269
77 886 558
78 151 752
79 208 186
80 897 547
81 469 396
82 607 437
83 202 433
84 642 100
85 180 703
86 873 595
87 103 184
88 466 416
89 124 311
90 71 321
91 8 357
92 51 200
93 899 471
94 67 236
95 482 432
96 991 388
97 933 309
98 649 131
99 497 404
100 626 195
101 807 375
102 776 626
103 624 275
104 55 288
105 877 515
106 821 533
107 456 317
108 625 410
109 783 403
110 662 97
111 733 533
112 499 470
113 766 340
114 206 385
115 822 285
116 934 461
117 533 242
118 442 24
119 303 249
120 675 92
121 467 432
122 575 338
123 385 239
124 272 512
125 567 124
126 738 447
127 379 165
128 610 408
DEMAND_SECTION
2 9
3 8
4 8
5 4
6 4
7 3
8 6
9 10
10 8
11 8
12 3
13 2
14 8
15 4
16 9
17 4
18 6
19 5
20 1
21 2
22 2
23 4
24 2
25 3
26 6
27 7
28 8
29 9
30 8
31 7
32 9
33 5
34 4
35 8
36 2
37 8
38 8
39 9
40 10
41 9
42 5
43 1
44 3
45 10
46 10
47 2
48 10
49 4
50 6
51 7
52 3
COVERAGE_SECTION
2 9 24 60 19 45 40 68 61 44 85 
3 9 35 22 49 34 47 59 41 56 42 
4 9 87 92 94 16 76 79 67 104 65 
5 9 99 69 95 88 81 121 112 122 82 
6 9 107 123 71 54 75 117 81 69 88 
7 9 55 20 23 8 46 112 30 121 10 
8 9 55 20 7 124 10 23 31 68 44 
9 9 120 52 17 110 70 38 43 98 84 
10 9 124 20 64 8 55 83 28 114 68 
11 9 80 77 105 93 86 116 12 106 66 
12 9 106 66 86 77 80 105 18 11 62 
13 9 115 17 33 97 74 113 73 101 9 
14 9 57 63 36 78 26 85 47 58 31 
15 9 117 125 75 29 71 100 127 32 6 
16 9 67 76 94 92 65 104 90 87 91 
17 9 33 115 13 43 9 113 73 70 98 
18 9 102 12 66 106 111 86 77 105 80 
19 9 60 2 24 45 83 68 40 91 114 
20 9 55 8 7 10 124 121 112 88 95 
21 9 51 119 53 79 28 114 54 123 89 
22 9 35 34 47 3 49 46 14 23 30 
23 9 7 46 55 8 20 30 31 63 44 
24 9 2 60 19 40 45 68 61 44 85 
25 9 48 39 79 127 118 54 119 71 75 
26 9 85 78 63 36 44 57 40 31 68 
27 9 126 72 109 73 113 37 101 108 128 
28 9 114 53 83 64 21 89 10 51 124 
29 9 118 125 15 75 39 84 127 32 71 
30 9 46 7 23 112 111 82 55 37 20 
31 9 44 40 63 85 68 26 57 78 8 
32 9 98 70 84 110 52 43 120 100 125 
33 9 17 115 113 73 13 101 74 109 103 
34 9 22 47 35 14 3 58 49 46 57 
35 9 22 3 34 47 49 46 59 14 30 
36 9 78 26 57 85 63 14 61 44 31 
37 9 108 82 128 27 126 72 111 122 109 
38 9 9 13 17 97 115 120 52 33 110 
39 9 118 25 48 29 127 75 71 54 15 
40 9 44 31 68 85 26 63 78 24 2 
41 9 56 42 62 59 86 102 49 77 12 
42 9 62 86 102 12 59 77 80 18 41 
43 9 98 32 70 100 110 84 52 120 125 
44 9 31 40 85 63 68 26 78 57 124 
45 9 91 19 60 90 2 65 104 24 67 
46 9 30 23 7 55 8 47 20 112 49 
47 9 34 22 35 14 46 23 49 57 3 
48 9 127 25 54 39 71 119 75 79 123 
49 9 59 3 35 22 47 102 30 46 41 
50 9 74 93 101 116 109 105 97 96 72 
51 9 21 79 119 53 89 28 114 87 54 
52 9 120 110 70 84 32 98 43 125 100 
53 9 28 114 83 21 51 89 64 119 90 
54 9 123 71 127 75 119 6 48 107 21 
55 9 8 20 7 23 10 124 68 31 112 
56 9 41 42 62 59 86 49 3 102 77 
57 9 63 14 26 36 78 85 31 44 40 
58 9 14 36 57 78 34 63 26 47 85 
59 9 102 42 18 49 62 86 12 41 111 
60 9 19 2 24 45 68 40 83 91 44 
61 9 78 36 24 26 85 2 40 63 44 
62 9 86 42 77 80 12 11 105 102 106 
63 9 57 85 26 31 44 78 36 40 14 
64 9 10 28 53 114 83 124 21 119 81 
65 9 67 104 76 90 16 91 94 89 92 
66 9 106 12 105 18 77 80 111 86 11 
67 9 65 76 104 16 90 94 91 92 89 
68 9 40 44 31 124 85 8 19 83 10 
69 9 99 81 5 88 95 121 112 107 122 
70 9 98 32 110 84 52 120 43 100 125 
71 9 54 75 123 127 6 15 119 107 48 
72 9 126 109 27 101 111 66 73 106 113 
73 9 113 101 109 27 33 115 72 126 74 
74 9 50 101 97 115 73 109 113 13 96 
75 9 71 127 15 54 123 6 117 29 48 
76 9 104 67 65 94 16 90 92 89 91 
77 9 80 11 86 105 12 106 66 62 93 
78 9 26 36 85 63 57 44 40 31 61 
79 9 51 21 87 119 48 94 89 4 25 
80 9 77 11 105 86 12 93 106 66 62 
81 9 88 69 99 121 5 95 107 112 6 
82 9 128 108 37 122 5 112 99 27 69 
83 9 114 28 53 124 10 64 19 68 89 
84 9 110 32 70 52 98 120 43 125 100 
85 9 26 63 78 44 40 31 57 36 68 
86 9 77 62 12 80 11 105 106 42 66 
87 9 92 94 4 76 79 16 104 67 89 
88 9 121 81 95 69 99 5 112 107 6 
89 9 90 104 76 65 94 67 53 114 51 
90 9 104 65 89 67 76 91 94 16 45 
91 9 65 90 67 104 45 76 16 89 94 
92 9 94 87 16 76 4 67 104 65 90 
93 9 116 105 11 50 80 77 106 66 12 
94 9 76 92 104 16 67 87 65 90 89 
95 9 121 88 5 99 69 81 112 107 82 
96 9 116 97 50 74 93 11 105 101 80 
97 9 74 96 13 50 115 101 116 93 73 
98 9 32 70 84 110 43 52 120 100 125 
99 9 69 5 81 95 88 121 112 107 122 
100 9 43 98 32 103 70 125 84 110 117 
101 9 109 73 113 74 50 27 72 115 126 
102 9 18 59 12 86 111 66 106 42 62 
103 8 100 122 117 43 128 108 33 98 
104 9 76 65 67 90 94 16 89 91 92 
105 9 11 80 77 93 106 66 12 116 86 
106 9 66 12 105 18 77 80 86 11 111 
107 8 6 81 69 99 88 123 117 5 
108 8 128 82 37 122 27 126 5 99 
109 9 101 72 27 73 126 113 50 74 115 
110 9 52 120 84 70 32 98 43 125 100 
111 9 18 66 126 72 106 102 12 37 27 
112 9 95 121 5 88 99 69 81 82 128 
113 9 73 101 109 33 27 115 74 72 126 
114 9 28 53 83 89 64 21 51 10 124 
115 9 33 13 113 74 73 101 17 97 109 
116 9 93 11 50 105 96 80 77 74 106 
117 8 15 103 100 122 107 6 75 125 
118 9 39 29 127 75 48 125 25 15 71 
119 9 21 54 51 123 127 79 71 48 53 
120 9 52 110 70 84 32 98 43 125 100 
121 9 95 88 81 5 99 69 112 107 20 
122 8 128 103 108 69 99 82 117 5 
123 9 54 71 6 127 75 119 107 48 21 
124 9 10 68 8 83 20 55 28 64 114 
125 9 15 32 84 98 29 70 100 110 43 
126 9 72 27 109 111 37 101 73 113 66 
127 9 71 54 75 48 123 119 6 15 39 
128 8 108 82 37 122 5 99 27 69 
DEPOT_SECTION
   1
   -1
EOF
