NAME :  X-n101-kX-w20-c11.cctp
COMMENT : 	Adapted by Maziero, Usberti and Cavellucci from the Uchoa, Pecin, Pessoa, Poggi, Subramanian, and Vidal (2013)
TYPE :  CCTP
DIMENSION :    86
EDGE_WEIGHT_TYPE : 	EUC_2D	
CAPACITY : 	206
VERTICES_WITHIN_COVERAGE :  11
VERTICES_WITH_DEMAND : 	20
NODE_COORD_SECTION
1 365 689
2 146 180
3 792 5
4 658 510
5 461 270
6 299 531
7 812 228
8 643 90
9 615 630
10 258 42
11 616 299
12 475 957
13 425 473
14 406 64
15 656 369
16 202 467
17 318 21
18 579 587
19 458 354
20 575 871
21 47 512
22 568 742
23 128 436
24 546 806
25 197 696
26 615 300
27 852 563
28 772 803
29 678 342
30 916 176
31 390 949
32 113 782
33 226 736
34 584 572
35 134 554
36 912 173
37 827 233
38 851 677
39 598 322
40 627 472
41 94 442
42 688 274
43 977 176
44 597 461
45 931 23
46 170 640
47 797 95
48 451 816
49 260 107
50 332 45
51 685 613
52 728 372
53 487 497
54 702 440
55 717 412
56 635 794
57 635 356
58 634 540
59 658 261
60 303 168
61 707 410
62 254 135
63 346 29
64 75 79
65 729 372
66 356 39
67 274 943
68 322 96
69 664 396
70 704 236
71 415 837
72 576 587
73 750 977
74 726 363
75 302 129
76 415 989
77 199 135
78 801 405
79 679 426
80 311 116
81 739 898
82 268 97
83 688 588
84 708 522
85 679 864
86 615 750
DEMAND_SECTION
2 38
3 51
4 73
5 70
6 58
7 54
8 1
9 98
10 62
11 98
12 25
13 86
14 46
15 27
16 17
17 97
18 74
19 81
20 62
21 59
COVERAGE_SECTION
2 11 77 62 64 49 82 60 75 80 10 68 50 
3 11 47 45 8 36 30 7 37 70 43 42 59 
4 11 58 40 84 44 54 83 79 34 51 18 61 
5 11 19 39 26 11 60 57 59 13 14 75 80 
6 11 16 13 35 46 53 25 23 33 41 19 21 
7 11 37 70 36 30 42 47 59 74 65 52 43 
8 11 47 70 3 59 42 11 26 7 37 39 14 
9 11 18 72 34 51 83 58 86 22 4 84 40 
10 11 82 17 49 50 68 63 80 62 75 66 77 
11 11 26 39 59 57 29 42 15 69 70 74 52 
12 11 76 31 20 71 48 24 67 85 56 22 86 
13 11 53 19 6 44 34 72 18 40 5 58 16 
14 11 66 63 50 68 17 80 75 82 60 10 49 
15 11 57 69 29 79 61 74 52 65 39 55 26 
16 11 23 35 41 6 21 46 13 25 33 19 53 
17 11 50 63 66 10 68 82 80 14 49 75 62 
18 11 72 34 9 58 51 83 4 40 44 53 84 
19 11 5 13 39 53 26 11 44 57 15 40 69 
20 11 24 56 85 86 22 12 48 71 81 76 31 
21 10 41 35 23 16 46 25 6 32 33 2 
22 11 86 24 56 9 20 48 18 72 85 34 51 
23 11 41 16 21 35 6 46 2 25 13 77 33 
24 11 22 20 86 56 48 71 85 12 9 31 81 
25 8 33 46 32 35 6 16 21 67 
26 11 11 39 59 57 29 42 15 69 70 74 52 
27 9 38 84 78 83 51 54 4 55 61 
28 8 81 85 56 38 86 73 20 51 
29 11 15 57 74 69 52 65 42 61 11 26 55 
30 11 36 43 37 7 47 45 3 70 42 78 74 
31 9 76 12 71 67 48 20 24 33 22 
32 6 25 33 46 67 35 21 
33 8 25 46 32 35 67 71 6 48 
34 11 18 72 58 9 4 83 40 51 44 53 84 
35 10 46 21 16 23 41 25 6 33 32 13 
36 11 30 43 37 7 47 45 3 70 42 78 74 
37 11 7 36 30 70 47 42 43 74 65 52 59 
38 6 27 28 51 83 84 9 
39 11 26 11 57 15 29 59 69 42 79 74 70 
40 11 44 4 58 79 54 69 84 61 15 55 34 
41 11 23 21 16 35 46 6 2 25 33 77 13 
42 11 59 70 29 11 26 74 57 15 39 52 65 
43 11 30 36 37 45 7 47 3 70 78 42 74 
44 11 40 4 58 79 69 54 15 34 57 53 61 
45 11 3 36 47 30 43 37 7 8 70 42 59 
46 9 25 35 33 32 6 16 21 23 41 
47 11 3 7 36 37 30 45 8 70 43 42 59 
48 11 71 24 20 22 12 31 76 86 56 67 85 
49 11 82 62 75 80 68 10 77 60 50 17 63 
50 11 63 66 17 68 10 80 14 82 75 49 62 
51 11 83 9 58 84 4 18 34 72 40 86 22 
52 11 65 74 55 61 29 69 15 54 79 78 57 
53 11 13 44 34 72 18 40 19 58 4 9 6 
54 11 79 61 55 69 52 65 74 40 84 4 15 
55 11 61 54 79 52 65 74 69 15 29 78 57 
56 11 86 85 22 24 20 28 81 9 48 51 83 
57 11 15 29 69 39 26 11 79 61 74 52 65 
58 11 4 34 40 18 83 72 84 44 51 9 54 
59 11 42 70 11 26 29 39 57 15 74 52 65 
60 11 75 80 62 68 49 82 77 50 10 66 63 
61 11 55 54 79 52 65 69 74 15 29 57 78 
62 11 49 82 75 77 60 80 68 10 2 50 17 
63 11 66 50 17 14 68 10 80 82 75 49 62 
64 11 2 77 10 49 62 82 75 80 60 68 17 
65 11 52 74 55 61 29 69 15 54 79 78 57 
66 11 63 50 17 14 68 80 10 75 82 49 60 
67 7 31 76 71 12 33 48 32 
68 11 80 75 50 82 49 66 63 60 17 62 10 
69 11 15 79 61 57 55 29 54 52 65 74 40 
70 11 42 59 7 11 29 26 37 74 39 52 57 
71 11 48 31 12 24 76 20 67 22 33 86 56 
72 11 18 34 9 58 4 51 83 40 53 44 84 
73 5 81 85 28 20 56 
74 11 52 65 55 61 29 15 69 79 54 78 57 
75 11 80 60 68 49 82 62 50 10 77 66 17 
76 10 31 12 67 71 48 20 24 22 85 56 
77 11 62 49 2 82 75 60 10 80 68 64 50 
78 10 65 52 55 74 61 54 79 69 29 15 
79 11 54 61 69 55 15 40 52 65 74 57 29 
80 11 75 68 82 49 60 62 50 66 10 63 17 
81 6 85 73 28 56 20 86 
82 11 49 62 75 80 68 10 60 77 50 17 63 
83 11 51 84 58 4 9 34 18 72 40 54 44 
84 11 4 83 58 54 51 40 79 55 61 44 69 
85 8 81 56 20 28 86 73 24 22 
86 11 22 56 24 9 20 85 51 28 18 72 48 
DEPOT_SECTION
   1
   -1
EOF
