NAME :  X-n157-kX-w15-c7.cctp
COMMENT : 	Adapted by Maziero, Usberti and Cavellucci from the Uchoa, Pecin, Pessoa, Poggi, Subramanian, and Vidal (2013)
TYPE :  CCTP
DIMENSION :    102
EDGE_WEIGHT_TYPE : 	EUC_2D	
CAPACITY : 	12
VERTICES_WITHIN_COVERAGE :  7
VERTICES_WITH_DEMAND : 	15
NODE_COORD_SECTION
1 769 259
2 91 377
3 108 338
4 816 567
5 725 520
6 117 357
7 766 559
8 90 417
9 255 430
10 63 384
11 35 276
12 122 318
13 85 322
14 267 348
15 937 546
16 865 461
17 243 571
18 782 596
19 77 272
20 972 607
21 320 521
22 91 434
23 20 305
24 81 271
25 830 553
26 741 527
27 587 551
28 808 435
29 26 278
30 58 394
31 817 557
32 216 510
33 124 330
34 132 369
35 915 492
36 161 319
37 37 227
38 770 524
39 745 582
40 695 469
41 124 355
42 11 283
43 258 406
44 72 335
45 214 344
46 98 440
47 701 512
48 125 379
49 352 410
50 825 592
51 863 511
52 98 347
53 115 326
54 71 392
55 65 404
56 75 342
57 140 300
58 129 340
59 129 273
60 139 356
61 154 322
62 231 323
63 115 394
64 844 558
65 98 454
66 739 568
67 844 554
68 72 473
69 632 575
70 823 578
71 47 381
72 71 336
73 754 484
74 172 296
75 28 310
76 754 579
77 87 382
78 866 481
79 93 337
80 942 567
81 788 567
82 824 451
83 98 384
84 104 370
85 952 629
86 239 324
87 747 605
88 43 268
89 792 597
90 95 352
91 109 413
92 104 386
93 40 456
94 66 395
95 862 465
96 383 357
97 307 434
98 233 421
99 329 280
100 623 554
101 103 349
102 75 266
DEMAND_SECTION
2 1
3 1
4 1
5 1
6 1
7 1
8 1
9 1
10 1
11 1
12 1
13 1
14 1
15 1
16 1
COVERAGE_SECTION
2 6 77 83 84 92 54 90 
3 7 101 52 53 79 33 90 6 
4 7 31 70 25 50 81 64 67 
5 7 26 47 38 73 66 7 40 
6 7 41 101 84 34 3 52 58 
7 7 76 81 66 39 38 18 26 
8 7 22 91 46 55 54 94 63 
9 5 43 98 97 14 32 
10 7 30 54 94 71 55 77 2 
11 7 29 88 42 23 75 102 19 
12 7 53 33 58 3 57 61 79 
13 7 79 44 72 56 3 52 53 
14 6 86 62 45 43 98 9 
15 3 80 35 20 
16 5 95 78 82 51 35 
17 3 32 21 9 
18 7 89 81 76 87 7 39 50 
19 4 24 102 88 11 
20 3 85 80 15 
21 7 97 17 32 9 49 43 98 
22 6 46 8 65 91 55 68 
23 7 75 42 29 11 88 44 72 
24 4 19 102 88 11 
25 5 31 67 64 4 70 
26 7 5 38 7 66 47 73 76 
27 6 100 69 47 40 5 66 
28 5 82 95 16 73 78 
29 7 11 42 88 23 75 102 19 
30 7 94 10 55 54 71 77 2 
31 7 4 25 70 64 67 81 50 
32 2 17 9 
33 7 53 58 12 3 41 6 101 
34 7 48 60 41 6 84 58 63 
35 5 78 51 15 16 95 
36 6 61 74 57 58 12 33 
37 5 88 11 29 102 19 
38 7 26 7 73 5 81 66 31 
39 6 76 66 87 7 18 81 
40 4 47 5 73 26 
41 7 6 60 34 58 101 3 48 
42 7 29 23 11 75 88 37 102 
43 6 9 98 97 14 45 86 
44 5 72 56 13 79 52 
45 3 62 86 14 
46 5 22 65 8 91 68 
47 7 5 26 40 73 66 38 7 
48 7 34 63 92 6 84 41 60 
49 7 97 96 43 9 14 21 98 
50 6 70 4 89 31 25 64 
51 4 78 95 67 16 
52 5 101 90 79 3 6 
53 7 33 12 3 58 79 101 52 
54 7 94 10 30 55 77 2 71 
55 7 94 30 54 10 8 71 77 
56 5 72 44 79 13 90 
57 7 12 61 36 59 74 33 53 
58 7 33 41 60 53 3 6 12 
59 4 57 12 24 74 
60 6 34 41 58 6 48 33 
61 6 36 57 33 58 12 74 
62 4 86 45 14 74 
63 7 92 48 83 91 84 2 34 
64 4 67 25 31 4 
65 4 46 22 68 8 
66 7 39 76 7 87 26 81 5 
67 4 64 25 31 4 
68 5 65 93 46 22 8 
69 7 100 27 47 66 5 39 26 
70 7 4 50 31 25 64 67 89 
71 6 10 30 94 54 55 77 
72 5 44 56 13 79 52 
73 5 38 26 5 47 40 
74 5 36 57 61 59 12 
75 7 23 29 42 11 88 72 44 
76 7 39 66 7 87 18 81 89 
77 7 2 83 92 54 84 10 94 
78 5 95 16 51 35 82 
79 7 52 3 90 101 13 56 44 
80 3 15 20 85 
81 7 7 4 18 89 31 76 70 
82 4 28 95 16 78 
83 7 92 2 77 84 63 48 54 
84 7 2 83 92 6 90 77 101 
85 3 20 80 15 
86 4 62 45 14 74 
87 6 39 76 18 66 89 7 
88 6 11 29 102 19 42 24 
89 7 18 81 50 70 4 76 7 
90 5 52 101 79 3 84 
91 7 8 63 92 22 46 83 48 
92 7 83 63 2 84 77 48 91 
93 6 68 22 55 65 46 8 
94 7 54 30 55 10 71 77 2 
95 5 16 78 82 51 35 
96 7 49 99 97 14 43 9 86 
97 7 49 9 43 98 21 14 96 
98 4 9 43 97 45 
99 6 14 96 86 62 45 49 
100 7 69 27 47 5 40 66 26 
101 7 52 90 3 6 79 84 41 
102 4 19 24 88 11 
DEPOT_SECTION
   1
   -1
EOF
