NAME :  X-n110-kX-w21-c9.cctp
COMMENT : 	Adapted by Maziero, Usberti and Cavellucci from the Uchoa, Pecin, Pessoa, Poggi, Subramanian, and Vidal (2013)
TYPE :  CCTP
DIMENSION :    103
EDGE_WEIGHT_TYPE : 	EUC_2D	
CAPACITY : 	66
VERTICES_WITHIN_COVERAGE :  9
VERTICES_WITH_DEMAND : 	21
NODE_COORD_SECTION
1 500 500
2 740 442
3 261 710
4 578 522
5 482 914
6 628 644
7 551 651
8 828 54
9 541 270
10 450 1000
11 521 127
12 738 809
13 323 289
14 803 214
15 556 488
16 758 937
17 875 326
18 113 509
19 491 726
20 415 355
21 946 632
22 136 120
23 817 246
24 491 845
25 454 801
26 676 995
27 145 557
28 166 494
29 977 318
30 363 711
31 164 501
32 833 501
33 444 958
34 828 672
35 714 57
36 51 676
37 922 16
38 673 571
39 211 471
40 590 220
41 305 311
42 953 745
43 154 753
44 918 227
45 819 671
46 675 667
47 617 176
48 706 179
49 512 443
50 302 453
51 753 786
52 331 450
53 765 990
54 249 360
55 292 887
56 371 804
57 786 186
58 382 284
59 44 552
60 523 264
61 397 120
62 98 623
63 946 978
64 815 696
65 314 361
66 447 695
67 878 243
68 341 648
69 363 0
70 675 83
71 998 520
72 98 111
73 628 746
74 940 409
75 786 488
76 323 674
77 986 151
78 790 150
79 533 816
80 750 789
81 589 125
82 640 911
83 99 216
84 754 659
85 828 357
86 597 587
87 929 655
88 159 781
89 955 6
90 63 435
91 130 302
92 954 687
93 866 879
94 131 686
95 519 220
96 454 928
97 415 916
98 468 833
99 806 568
100 907 703
101 821 135
102 622 561
103 482 689
DEMAND_SECTION
2 8
3 10
4 8
5 5
6 10
7 5
8 9
9 10
10 6
11 5
12 10
13 5
14 9
15 10
16 7
17 9
18 7
19 8
20 5
21 8
22 10
COVERAGE_SECTION
2 9 75 32 85 99 38 102 17 4 15 
3 9 76 68 30 43 88 94 56 55 62 
4 9 15 102 86 49 38 6 7 46 2 
5 9 96 33 97 24 98 10 79 25 56 
6 9 46 86 7 102 38 73 84 4 103 
7 9 6 86 103 19 66 102 73 46 4 
8 9 101 37 78 35 89 57 70 14 48 
9 9 60 95 40 47 11 20 81 58 49 
10 9 33 96 97 5 24 98 55 25 79 
11 9 81 95 47 40 61 60 9 70 48 
12 9 80 51 73 16 64 82 93 84 46 
13 9 41 58 65 54 20 52 50 61 91 
14 9 57 23 78 67 101 48 44 17 85 
15 9 4 49 102 86 38 7 6 2 20 
16 9 53 26 82 93 12 80 51 63 73 
17 9 85 67 23 29 74 44 14 57 2 
18 9 31 28 27 59 90 39 62 36 94 
19 9 103 66 25 7 79 98 24 30 73 
20 9 58 65 13 41 52 49 60 50 9 
21 9 87 92 100 42 71 34 45 64 99 
22 9 72 83 91 13 41 69 61 54 58 
23 9 14 67 57 17 78 44 101 85 48 
24 9 98 79 25 5 96 97 19 33 56 
25 9 98 24 79 56 19 66 103 5 97 
26 9 53 82 16 12 5 80 51 93 10 
27 9 18 31 28 62 59 39 94 90 36 
28 9 31 39 18 27 90 59 50 62 54 
29 9 74 17 44 67 85 77 23 14 71 
30 9 76 68 66 56 3 103 25 19 98 
31 9 28 18 39 27 90 59 62 50 54 
32 9 75 99 2 74 85 71 34 45 21 
33 9 96 10 97 5 24 98 25 55 79 
34 9 45 64 84 100 87 99 21 92 51 
35 9 70 8 78 48 101 81 57 47 14 
36 7 62 94 59 43 88 27 18 
37 9 89 8 77 101 78 44 35 57 14 
38 9 102 86 6 46 4 84 99 75 15 
39 9 28 31 50 18 27 54 52 65 90 
40 9 47 9 95 60 81 11 48 70 57 
41 9 13 65 54 58 20 52 50 91 39 
42 9 92 100 87 21 34 64 45 93 51 
43 5 88 94 3 36 62 
44 9 67 77 23 17 29 14 101 57 78 
45 9 34 64 84 100 99 87 21 51 92 
46 9 6 84 73 38 86 102 7 51 64 
47 9 40 81 48 95 11 70 9 60 35 
48 9 57 47 78 70 14 35 40 101 81 
49 9 15 4 20 102 86 9 60 52 58 
50 9 52 39 65 54 28 41 31 20 13 
51 9 80 12 64 84 73 45 34 46 93 
52 9 50 65 39 54 20 41 13 28 58 
53 9 16 26 82 93 63 12 80 51 73 
54 9 65 41 13 50 39 52 91 58 28 
55 7 56 97 96 33 88 3 25 
56 9 25 30 98 55 97 24 66 76 19 
57 9 14 78 101 23 48 67 44 8 35 
58 9 13 20 41 65 60 95 54 9 61 
59 9 18 62 27 90 36 31 28 94 39 
60 9 9 95 40 47 11 20 58 81 49 
61 9 11 69 95 58 13 60 81 9 41 
62 8 36 94 27 59 18 31 43 28 
63 9 93 53 16 42 12 26 51 80 100 
64 9 45 34 84 100 51 80 87 99 12 
65 9 41 54 13 52 50 20 58 39 91 
66 9 103 19 30 25 7 68 76 56 98 
67 9 44 23 14 17 57 101 29 85 78 
68 9 76 30 3 66 103 56 19 25 52 
69 9 61 11 22 81 95 58 72 13 47 
70 9 35 81 48 47 78 57 101 8 11 
71 9 21 74 87 32 92 99 29 100 75 
72 9 22 83 91 13 69 41 54 61 90 
73 9 46 6 79 7 12 80 51 19 84 
74 9 29 17 85 71 32 75 67 44 2 
75 9 32 2 99 85 38 74 84 102 17 
76 9 68 30 3 66 56 103 19 25 43 
77 9 44 67 89 37 101 29 8 14 23 
78 9 101 57 14 48 23 8 35 67 70 
79 9 24 98 25 19 5 73 96 103 82 
80 9 51 12 64 73 84 45 34 46 93 
81 9 47 11 40 70 95 48 35 9 60 
82 9 26 16 12 79 53 5 24 80 73 
83 9 91 22 72 54 90 41 13 65 39 
84 9 45 64 34 46 99 38 6 51 80 
85 9 17 23 2 74 67 75 32 14 29 
86 9 102 6 4 38 7 15 46 103 73 
87 9 21 92 100 42 34 45 64 99 71 
88 4 43 94 3 36 
89 9 37 8 77 101 78 44 35 57 67 
90 9 18 28 59 31 27 91 39 62 54 
91 9 83 54 90 41 22 39 13 65 72 
92 9 87 100 21 42 34 45 64 71 99 
93 9 16 63 12 51 80 53 42 100 64 
94 7 43 62 36 88 27 3 59 
95 9 60 9 40 11 47 81 58 61 20 
96 9 5 33 97 10 24 98 25 79 56 
97 9 96 33 5 10 98 24 56 25 55 
98 9 24 25 79 5 96 97 56 19 33 
99 9 32 75 45 84 34 64 38 2 87 
100 9 92 87 42 21 34 64 45 84 99 
101 9 78 57 8 14 23 67 48 35 44 
102 9 86 38 4 6 15 7 46 49 84 
103 9 66 19 7 25 30 79 98 68 6 
DEPOT_SECTION
   1
   -1
EOF
