NAME :  X-n172-kX-w17-c9.cctp
COMMENT : 	Adapted by Maziero, Usberti and Cavellucci from the Uchoa, Pecin, Pessoa, Poggi, Subramanian, and Vidal (2013)
TYPE :  CCTP
DIMENSION :    78
EDGE_WEIGHT_TYPE : 	EUC_2D	
CAPACITY : 	161
VERTICES_WITHIN_COVERAGE :  9
VERTICES_WITH_DEMAND : 	17
NODE_COORD_SECTION
1 500 500
2 363 697
3 120 259
4 555 718
5 522 918
6 239 935
7 304 517
8 856 96
9 38 904
10 174 951
11 294 935
12 942 324
13 402 176
14 766 450
15 473 862
16 262 550
17 661 92
18 440 655
19 678 291
20 345 691
21 564 903
22 698 352
23 297 930
24 66 244
25 143 946
26 697 32
27 473 995
28 342 252
29 244 385
30 437 42
31 381 583
32 263 549
33 649 477
34 105 251
35 986 452
36 486 773
37 679 851
38 619 809
39 139 138
40 107 489
41 681 336
42 260 655
43 46 832
44 667 428
45 871 548
46 181 252
47 211 597
48 82 390
49 114 189
50 659 852
51 169 845
52 124 861
53 289 778
54 464 148
55 377 32
56 802 86
57 89 157
58 391 594
59 904 106
60 649 92
61 134 331
62 389 254
63 796 197
64 304 381
65 881 145
66 849 115
67 890 105
68 368 725
69 819 266
70 324 181
71 500 580
72 435 652
73 355 700
74 354 552
75 472 663
76 862 251
77 554 709
78 405 594
DEMAND_SECTION
2 30
3 82
4 70
5 92
6 25
7 23
8 11
9 41
10 15
11 5
12 17
13 70
14 36
15 47
16 24
17 11
18 6
COVERAGE_SECTION
2 9 73 20 68 72 18 58 53 42 78 
3 6 34 24 46 49 61 57 
4 7 77 36 75 38 18 72 71 
5 9 21 15 27 38 36 50 37 4 77 
6 8 11 23 10 25 51 52 53 9 
7 5 32 16 74 31 58 
8 5 66 67 59 56 65 
9 6 43 52 25 10 51 6 
10 8 25 6 52 51 11 23 9 43 
11 9 23 6 10 25 51 53 52 27 15 
12 3 76 35 69 
13 6 54 70 62 28 30 55 
14 6 44 22 33 41 45 19 
15 9 5 36 21 27 38 4 68 77 50 
16 7 32 7 47 74 42 31 58 
17 9 60 26 56 63 66 8 19 54 65 
18 8 72 75 78 58 2 31 71 73 
19 6 41 22 44 69 63 14 
20 9 73 2 68 42 72 18 53 58 31 
21 9 5 15 50 38 37 27 36 4 77 
22 6 41 19 44 14 33 69 
23 9 11 6 10 53 51 25 52 27 15 
24 7 34 3 49 57 61 46 39 
25 8 10 52 6 51 9 43 11 23 
26 9 17 60 56 8 66 63 67 65 59 
27 9 5 21 15 23 11 36 50 38 6 
28 3 62 70 13 
29 3 64 61 7 
30 6 55 54 13 70 62 60 
31 5 58 78 74 72 18 
32 7 16 7 47 74 42 31 58 
33 2 44 14 
34 6 3 24 49 46 61 57 
35 3 12 45 14 
36 9 4 15 77 75 18 68 72 38 2 
37 7 50 38 21 5 4 77 15 
38 8 50 37 21 4 77 36 5 15 
39 5 57 49 34 46 3 
40 5 48 47 61 16 32 
41 6 22 19 44 14 33 69 
42 6 47 20 16 73 32 2 
43 5 9 52 51 25 10 
44 4 33 22 41 14 
45 2 14 35 
46 2 3 34 
47 4 16 32 42 7 
48 7 61 40 3 34 24 29 46 
49 6 57 39 34 3 24 46 
50 8 37 38 21 5 4 77 15 36 
51 6 52 25 10 6 43 53 
52 6 51 43 25 9 10 6 
53 6 68 73 20 2 42 51 
54 7 13 30 62 70 55 28 60 
55 4 30 54 13 70 
56 7 8 66 67 65 59 63 26 
57 6 49 39 24 34 3 46 
58 5 78 31 74 72 18 
59 3 67 65 8 
60 9 17 26 56 63 54 19 66 8 30 
61 5 3 48 34 46 24 
62 3 28 13 70 
63 6 69 76 66 65 56 8 
64 3 29 28 7 
65 4 67 66 59 8 
66 5 8 67 65 56 59 
67 4 59 8 65 66 
68 9 2 73 20 53 72 18 75 36 42 
69 6 76 63 12 65 19 22 
70 3 28 13 62 
71 2 75 18 
72 8 18 75 78 58 2 31 73 71 
73 9 2 20 68 72 18 53 42 58 78 
74 4 31 58 7 78 
75 7 18 72 71 77 78 4 58 
76 4 69 63 12 65 
77 7 4 36 75 38 18 72 71 
78 5 58 31 72 74 18 
DEPOT_SECTION
   1
   -1
EOF
