NAME :  X-n176-kX-w70-c11.cctp
COMMENT : 	Adapted by Maziero, Usberti and Cavellucci from the Uchoa, Pecin, Pessoa, Poggi, Subramanian, and Vidal (2013)
TYPE :  CCTP
DIMENSION :    176
EDGE_WEIGHT_TYPE : 	EUC_2D	
CAPACITY : 	142
VERTICES_WITHIN_COVERAGE :  11
VERTICES_WITH_DEMAND : 	70
NODE_COORD_SECTION
1 0 0
2 628 103
3 291 573
4 129 447
5 973 643
6 830 868
7 398 563
8 731 423
9 201 995
10 167 174
11 13 605
12 446 262
13 229 774
14 740 231
15 21 546
16 224 615
17 605 837
18 473 759
19 758 880
20 93 900
21 580 935
22 622 494
23 513 236
24 659 797
25 606 204
26 267 688
27 28 888
28 606 754
29 841 676
30 823 611
31 1 247
32 195 486
33 644 771
34 524 45
35 581 366
36 769 471
37 78 800
38 940 790
39 867 441
40 243 453
41 410 464
42 465 161
43 417 304
44 616 944
45 609 356
46 822 489
47 738 932
48 462 718
49 847 459
50 563 619
51 792 940
52 434 318
53 1000 647
54 566 413
55 492 83
56 764 550
57 145 182
58 540 249
59 208 760
60 759 988
61 66 221
62 520 521
63 260 508
64 307 468
65 747 308
66 370 136
67 421 505
68 373 597
69 876 881
70 281 18
71 419 69
72 502 242
73 343 764
74 275 610
75 434 161
76 314 40
77 744 675
78 698 364
79 600 881
80 9 893
81 875 724
82 728 253
83 502 969
84 867 464
85 237 907
86 868 263
87 680 306
88 740 688
89 534 615
90 450 898
91 126 415
92 565 260
93 172 126
94 137 674
95 789 958
96 853 147
97 762 111
98 416 626
99 63 237
100 194 75
101 616 133
102 104 804
103 304 699
104 758 40
105 249 141
106 848 770
107 316 426
108 791 803
109 884 980
110 618 107
111 858 644
112 116 388
113 939 880
114 217 912
115 138 217
116 639 588
117 542 965
118 775 294
119 325 154
120 839 459
121 21 751
122 248 883
123 34 101
124 274 824
125 408 641
126 923 320
127 838 846
128 83 772
129 938 432
130 913 766
131 758 816
132 481 156
133 548 809
134 660 393
135 773 579
136 261 97
137 380 849
138 433 893
139 312 347
140 295 480
141 277 519
142 833 970
143 760 470
144 33 455
145 289 176
146 283 845
147 953 937
148 2 939
149 164 71
150 539 756
151 679 880
152 309 113
153 857 842
154 184 455
155 181 70
156 136 928
157 23 17
158 127 710
159 657 422
160 248 593
161 525 519
162 109 805
163 754 487
164 484 90
165 923 157
166 195 38
167 74 961
168 261 663
169 984 135
170 281 227
171 673 176
172 78 322
173 177 543
174 590 199
175 559 609
176 9 343
DEMAND_SECTION
2 94
3 65
4 69
5 89
6 74
7 95
8 87
9 96
10 56
11 94
12 79
13 91
14 75
15 54
16 97
17 93
18 81
19 100
20 75
21 56
22 71
23 100
24 54
25 100
26 62
27 51
28 58
29 79
30 65
31 52
32 65
33 65
34 59
35 77
36 89
37 66
38 71
39 10
40 10
41 1
42 9
43 4
44 9
45 8
46 4
47 8
48 7
49 9
50 10
51 6
52 2
53 6
54 9
55 5
56 3
57 4
58 5
59 6
60 6
61 6
62 1
63 8
64 9
65 6
66 5
67 8
68 5
69 9
70 2
71 3
COVERAGE_SECTION
2 11 110 101 171 25 174 34 97 55 104 164 132 
3 11 74 160 141 63 16 68 140 168 64 7 26 
4 11 91 154 112 32 144 173 40 172 63 15 176 
5 11 53 111 81 29 130 38 30 106 84 135 129 
6 11 127 153 69 19 108 51 131 95 106 142 113 
7 11 68 67 98 125 41 3 62 141 64 74 140 
8 11 143 36 78 163 159 134 46 120 65 49 87 
9 11 114 156 85 122 167 20 146 124 27 148 162 
10 11 57 93 115 105 100 149 155 61 99 136 145 
11 11 15 94 121 144 158 173 128 4 37 16 32 
12 11 43 52 72 23 58 75 42 132 92 66 174 
13 11 59 124 146 26 103 122 73 168 158 162 102 
14 11 82 118 65 171 87 97 86 25 78 96 174 
15 11 11 144 4 173 91 94 32 112 154 158 176 
16 11 160 74 168 3 26 173 94 141 63 103 32 
17 11 79 133 24 33 28 151 21 150 44 117 18 
18 11 48 150 133 137 73 28 125 138 90 98 17 
19 11 47 131 51 6 151 95 108 127 153 60 142 
20 11 156 167 27 80 162 102 148 37 114 128 9 
21 11 44 117 79 83 17 151 133 90 138 47 24 
22 11 159 116 54 161 62 134 8 175 163 35 50 
23 11 72 58 92 12 174 132 42 25 75 52 43 
24 11 33 17 28 151 131 79 133 150 19 108 88 
25 11 174 92 101 171 58 23 110 2 72 87 82 
26 11 168 103 74 16 59 13 160 73 3 94 124 
27 11 80 148 20 167 37 102 156 162 128 121 114 
28 11 33 150 24 133 17 79 18 50 151 48 88 
29 11 111 81 30 106 77 88 130 135 5 108 56 
30 11 111 135 29 56 77 88 46 81 163 36 5 
31 11 99 61 176 172 115 123 57 10 112 91 93 
32 11 154 40 173 63 4 141 91 140 64 160 112 
33 11 24 28 17 133 150 151 79 131 88 77 108 
34 11 55 164 71 110 2 132 101 42 75 174 25 
35 11 45 54 134 159 92 87 78 58 22 23 72 
36 11 143 163 46 8 120 49 56 84 39 135 159 
37 11 102 128 162 121 20 27 158 80 59 94 156 
38 11 130 113 81 106 153 69 127 6 147 108 5 
39 11 84 49 120 46 129 36 143 163 126 8 56 
40 11 32 63 140 154 64 141 107 173 4 91 139 
41 11 67 7 107 64 140 62 161 68 141 52 139 
42 11 132 75 164 55 23 72 66 12 71 58 34 
43 11 52 12 72 139 23 58 75 42 92 170 107 
44 11 21 79 117 151 17 83 47 60 133 24 19 
45 11 35 134 54 159 87 78 92 58 8 22 65 
46 11 120 49 84 36 143 39 163 56 135 8 30 
47 11 51 19 95 60 151 142 6 131 44 127 108 
48 11 18 150 125 98 133 89 73 50 175 28 68 
49 11 120 84 39 46 36 143 129 163 8 56 135 
50 11 175 89 116 62 161 22 150 48 28 98 125 
51 11 95 142 47 60 19 6 109 69 127 153 151 
52 11 43 12 72 23 139 58 92 41 35 75 42 
53 11 5 111 81 130 38 29 30 106 129 84 135 
54 11 35 45 159 134 22 161 62 78 92 87 52 
55 11 164 34 71 132 42 75 110 66 101 2 174 
56 11 135 163 36 143 46 30 120 49 77 8 116 
57 11 10 115 93 61 99 105 149 100 155 123 170 
58 11 92 23 72 174 25 12 132 42 35 52 45 
59 11 13 124 26 158 162 168 94 102 146 103 128 
60 11 95 51 47 142 19 109 151 6 44 69 127 
61 11 99 31 115 57 172 10 123 176 93 112 149 
62 11 161 89 175 67 22 50 54 41 7 116 98 
63 11 141 140 40 64 32 3 160 173 154 107 74 
64 11 140 107 141 63 40 41 3 32 67 139 154 
65 11 118 82 87 78 14 8 134 86 159 45 171 
66 11 119 152 75 71 145 42 76 132 136 105 164 
67 11 41 7 62 68 161 64 98 140 107 125 141 
68 11 7 98 125 3 74 67 103 141 160 168 41 
69 11 153 6 127 113 147 109 142 51 38 106 108 
70 11 76 136 166 152 100 155 105 149 119 71 66 
71 11 164 55 66 75 42 132 34 76 152 119 70 
72 11 23 58 12 92 42 132 174 52 43 75 25 
73 11 103 124 137 146 26 13 48 18 168 59 125 
74 11 160 3 16 168 26 141 103 68 63 173 7 
75 11 42 132 66 164 71 55 12 72 23 119 152 
76 11 70 152 136 71 66 119 166 105 100 155 145 
77 11 88 29 135 30 111 56 108 116 33 81 106 
78 11 134 87 8 159 65 45 118 82 35 143 36 
79 11 17 21 44 151 133 117 24 33 28 83 150 
80 11 27 148 20 167 37 102 156 162 128 121 114 
81 11 106 130 29 111 38 108 153 30 5 127 77 
82 11 14 65 118 87 171 78 25 86 97 174 134 
83 11 117 21 90 138 44 79 133 17 137 151 18 
84 11 49 39 120 46 129 36 143 163 56 8 135 
85 11 114 122 146 124 9 156 13 20 59 137 162 
86 11 126 118 96 165 65 14 82 169 39 129 97 
87 11 78 65 82 45 134 14 118 35 159 92 25 
88 11 77 29 30 135 108 111 33 131 24 106 56 
89 11 175 50 62 161 116 98 48 125 150 7 22 
90 11 138 137 83 117 133 21 18 79 17 150 73 
91 11 112 4 154 32 144 172 40 176 173 63 15 
92 11 58 23 72 174 25 45 35 12 87 132 101 
93 11 10 100 149 155 57 105 166 136 115 145 152 
94 11 158 16 59 128 168 26 102 162 13 160 173 
95 11 51 60 142 47 19 109 6 69 127 153 151 
96 11 165 97 86 169 14 104 82 118 171 126 65 
97 11 104 96 171 14 2 110 82 101 165 25 118 
98 11 125 68 7 48 89 67 103 3 74 175 18 
99 11 61 31 115 172 57 176 10 123 93 112 91 
100 11 155 149 166 93 136 105 10 70 57 152 76 
101 11 110 2 171 174 25 34 55 92 132 58 164 
102 11 162 37 128 20 158 121 27 59 156 13 80 
103 11 26 168 73 74 13 59 16 125 160 68 3 
104 11 97 96 2 110 171 101 14 165 82 25 174 
105 11 136 145 152 119 93 100 10 170 155 149 57 
106 11 81 130 108 153 127 29 38 6 131 69 111 
107 11 64 140 40 139 63 41 141 67 32 154 3 
108 11 131 127 106 6 153 19 69 81 88 130 24 
109 11 142 147 95 69 51 113 6 60 153 127 47 
110 11 2 101 171 174 25 34 55 164 97 132 104 
111 11 29 30 81 135 5 77 88 106 56 130 53 
112 11 91 4 172 154 144 176 32 40 99 173 115 
113 11 147 69 38 153 127 6 109 130 142 106 51 
114 11 85 122 156 9 146 124 20 13 167 59 162 
115 11 57 10 61 99 93 172 105 31 170 149 100 
116 11 50 175 22 89 56 161 135 77 62 88 163 
117 11 83 21 44 79 90 138 17 133 151 47 137 
118 11 65 82 14 87 86 78 8 126 134 171 96 
119 11 145 152 66 105 170 136 75 76 71 42 70 
120 11 49 84 39 46 36 143 163 129 8 56 135 
121 11 128 37 102 162 158 27 94 80 11 20 59 
122 11 85 114 146 124 13 9 156 59 137 73 20 
123 11 157 61 149 57 99 93 31 155 10 115 100 
124 11 146 122 13 73 85 59 114 137 103 26 168 
125 11 98 68 7 48 103 89 3 18 67 74 73 
126 11 86 129 39 118 84 49 120 165 65 96 169 
127 11 153 6 69 108 106 131 19 51 113 130 38 
128 11 37 102 162 121 158 94 59 20 27 80 13 
129 11 39 84 49 120 126 46 36 143 86 163 8 
130 11 38 81 106 153 127 29 113 69 108 6 111 
131 11 108 19 127 6 24 106 151 153 47 33 51 
132 11 42 75 164 55 23 72 71 58 12 66 174 
133 11 150 17 28 79 18 33 24 48 21 90 138 
134 11 159 78 45 8 35 87 54 22 65 143 163 
135 11 56 30 163 77 46 111 36 143 88 29 116 
136 11 105 152 100 76 70 145 155 119 166 93 149 
137 11 138 90 73 146 124 18 122 85 48 103 13 
138 11 90 137 83 117 18 133 21 73 146 79 124 
139 11 107 43 64 170 52 40 140 41 12 154 63 
140 11 64 141 63 107 40 3 32 154 41 160 67 
141 11 63 140 3 64 40 160 32 74 107 173 16 
142 11 95 51 109 60 69 6 47 19 127 147 153 
143 11 36 163 8 46 56 120 49 84 135 39 159 
144 11 15 4 91 112 176 172 11 154 32 173 31 
145 11 119 170 105 152 136 66 10 93 76 100 57 
146 11 124 122 85 13 114 137 73 59 103 138 26 
147 11 113 109 69 142 153 6 127 38 51 95 130 
148 11 80 27 167 20 156 37 102 162 128 121 9 
149 11 155 100 166 93 136 10 105 57 70 123 115 
150 11 133 18 28 48 17 33 24 50 79 89 175 
151 11 19 47 79 24 17 44 131 21 33 51 60 
152 11 119 136 66 105 145 76 70 170 71 100 75 
153 11 127 6 69 106 108 113 130 38 131 19 51 
154 11 32 4 40 91 173 63 112 141 140 64 107 
155 11 100 149 166 93 136 105 10 70 57 152 76 
156 11 20 167 114 9 85 27 122 162 102 80 148 
157 11 123 149 155 166 100 93 57 61 10 99 31 
158 11 94 128 59 102 162 37 121 13 16 26 168 
159 11 134 78 8 22 45 54 35 143 163 87 36 
160 11 74 16 3 168 141 63 173 26 32 103 140 
161 11 62 89 175 22 67 50 54 41 116 7 98 
162 11 102 37 128 20 158 121 59 27 13 156 80 
163 11 143 36 56 8 46 120 135 49 84 159 39 
164 11 55 34 132 71 42 75 66 110 101 2 23 
165 11 169 96 86 126 97 14 104 118 82 65 171 
166 11 155 100 149 70 136 93 105 76 152 10 57 
167 11 20 156 148 27 80 9 114 102 162 37 85 
168 11 26 74 103 16 160 3 59 13 94 68 73 
169 11 165 96 86 126 97 104 14 118 82 65 129 
170 11 145 119 105 152 139 10 66 136 57 115 93 
171 11 101 25 2 174 14 110 82 97 87 92 65 
172 11 176 112 99 61 91 31 115 4 144 57 154 
173 11 32 16 160 154 63 141 4 40 3 74 140 
174 11 25 92 58 101 23 171 110 72 2 132 42 
175 11 50 89 116 62 161 22 98 48 150 28 125 
176 11 172 31 144 112 99 61 91 4 115 15 154 
DEPOT_SECTION
   1
   -1
EOF
