NAME :  X-n186-kX-w18-c9.cctp
COMMENT : 	Adapted by Maziero, Usberti and Cavellucci from the Uchoa, Pecin, Pessoa, Poggi, Subramanian, and Vidal (2013)
TYPE :  CCTP
DIMENSION :    120
EDGE_WEIGHT_TYPE : 	EUC_2D	
CAPACITY : 	974
VERTICES_WITHIN_COVERAGE :  9
VERTICES_WITH_DEMAND : 	18
NODE_COORD_SECTION
1 159 917
2 635 200
3 278 907
4 875 93
5 10 732
6 586 657
7 482 75
8 526 176
9 153 622
10 452 945
11 456 137
12 884 968
13 688 793
14 117 915
15 149 746
16 495 325
17 539 967
18 917 58
19 590 316
20 611 998
21 963 878
22 685 124
23 39 781
24 534 29
25 213 837
26 180 943
27 343 949
28 537 248
29 626 147
30 56 596
31 738 977
32 941 193
33 437 386
34 521 398
35 488 747
36 83 719
37 504 704
38 933 949
39 382 130
40 61 985
41 199 892
42 930 154
43 400 95
44 41 527
45 913 885
46 293 784
47 102 962
48 372 866
49 684 899
50 138 705
51 715 745
52 461 953
53 780 165
54 935 38
55 74 778
56 563 171
57 341 955
58 892 938
59 659 306
60 791 763
61 641 347
62 598 253
63 45 585
64 654 70
65 310 854
66 602 66
67 878 10
68 351 797
69 995 987
70 697 200
71 722 246
72 847 208
73 577 295
74 899 185
75 123 601
76 242 769
77 66 727
78 354 338
79 725 735
80 632 849
81 411 272
82 481 165
83 492 78
84 736 937
85 61 688
86 387 244
87 209 571
88 631 208
89 643 521
90 839 54
91 236 704
92 218 618
93 526 667
94 87 981
95 976 122
96 177 712
97 449 902
98 492 63
99 761 122
100 609 621
101 614 240
102 478 599
103 239 636
104 347 199
105 619 620
106 565 769
107 120 871
108 140 957
109 68 736
110 661 294
111 604 737
112 91 956
113 16 561
114 680 254
115 852 978
116 533 757
117 352 957
118 409 939
119 630 902
120 487 220
DEMAND_SECTION
2 74
3 74
4 80
5 85
6 99
7 81
8 85
9 100
10 74
11 57
12 60
13 74
14 60
15 77
16 72
17 87
18 89
19 53
COVERAGE_SECTION
2 9 88 101 29 70 62 114 56 22 71 
3 9 65 27 57 41 117 25 48 26 46 
4 9 90 18 54 42 67 74 95 72 99 
5 9 77 23 109 85 36 55 50 15 30 
6 8 100 105 93 111 37 116 106 102 
7 9 83 98 11 24 43 82 8 39 66 
8 9 56 82 120 28 11 29 83 62 101 
9 9 75 92 87 50 103 96 30 85 63 
10 9 52 97 118 17 117 27 57 48 20 
11 9 82 7 83 43 39 8 98 120 56 
12 8 58 115 38 45 69 21 31 84 
13 8 51 79 80 111 49 60 119 106 
14 9 107 108 47 112 26 94 41 40 25 
15 9 50 96 36 55 109 77 76 91 85 
16 9 34 33 73 28 19 81 120 62 86 
17 8 20 52 10 97 119 118 80 49 
18 9 54 4 67 90 95 42 74 32 72 
19 9 73 61 62 59 110 101 28 16 34 
20 9 17 119 49 31 84 80 52 10 97 
21 6 45 38 58 69 12 115 
22 8 64 29 99 70 2 88 66 53 
23 9 55 109 5 77 36 85 15 107 50 
24 9 98 83 7 66 64 11 56 82 8 
25 9 41 76 3 46 65 107 15 26 14 
26 9 108 41 14 47 112 107 94 3 25 
27 9 57 117 118 3 48 65 10 97 52 
28 9 120 62 73 8 101 56 19 16 82 
29 9 2 88 22 56 64 66 70 101 8 
30 8 63 113 75 44 85 9 36 77 
31 9 84 49 115 20 119 12 58 80 13 
32 7 42 74 95 72 4 18 54 
33 6 16 34 78 81 86 73 
34 8 16 33 19 73 61 28 62 59 
35 6 37 116 106 93 111 6 
36 9 77 109 85 50 55 15 5 23 96 
37 6 93 35 116 106 6 111 
38 7 58 12 45 69 21 115 31 
39 7 43 11 104 82 7 86 83 
40 9 94 112 47 108 14 26 107 41 23 
41 9 26 25 3 107 14 108 65 47 112 
42 9 32 74 95 4 18 72 54 90 53 
43 7 39 11 7 83 98 82 104 
44 7 113 63 30 75 9 85 87 
45 6 21 58 38 12 115 69 
46 7 76 68 65 25 91 48 3 
47 9 112 94 108 40 14 26 107 41 25 
48 9 65 68 118 97 27 117 57 3 10 
49 9 119 84 80 31 13 20 51 17 79 
50 9 96 15 36 77 109 85 9 55 91 
51 4 79 13 60 111 
52 9 10 97 118 17 117 27 57 48 20 
53 7 99 72 70 71 22 4 74 
54 9 18 67 4 95 90 42 74 32 72 
55 9 23 109 77 36 5 15 85 50 107 
56 9 8 29 88 2 28 82 101 62 120 
57 9 27 117 118 3 48 65 10 52 97 
58 8 12 38 45 115 21 69 84 31 
59 8 110 61 114 19 101 62 73 71 
60 3 79 51 13 
61 7 59 110 19 73 114 62 101 
62 9 101 73 88 28 19 2 110 59 114 
63 8 30 113 44 75 85 9 36 77 
64 9 66 22 29 99 24 2 56 70 88 
65 9 3 48 68 46 25 27 57 76 117 
66 9 64 24 29 22 98 83 56 7 8 
67 9 90 18 54 4 95 42 99 74 53 
68 6 46 65 48 76 3 25 
69 7 38 12 21 58 45 115 31 
70 7 71 114 2 88 22 29 53 
71 5 114 70 110 59 2 
72 6 74 53 32 42 4 99 
73 9 19 62 28 101 61 59 110 16 88 
74 7 32 42 72 4 95 53 18 
75 9 9 30 63 87 92 50 85 44 113 
76 7 46 91 25 96 15 65 68 
77 9 109 36 85 55 5 23 50 15 96 
78 5 81 33 86 104 16 
79 4 51 13 60 111 
80 7 119 49 13 106 111 51 116 
81 9 86 78 120 104 16 33 28 82 11 
82 9 11 8 120 56 83 7 28 98 39 
83 9 7 98 24 11 82 43 8 66 56 
84 9 31 49 119 115 80 20 12 13 58 
85 9 36 77 109 5 50 55 30 23 63 
86 8 81 104 78 120 39 82 11 16 
87 7 92 103 9 75 91 96 50 
88 9 2 101 62 29 70 114 56 110 71 
89 3 105 100 6 
90 9 4 67 18 54 99 53 42 74 95 
91 8 96 76 103 92 15 46 50 9 
92 8 103 87 9 91 75 96 50 15 
93 9 37 6 102 35 116 100 105 111 106 
94 9 47 112 40 108 14 26 107 41 25 
95 9 42 32 18 54 74 4 67 90 72 
96 9 50 15 91 76 9 36 103 92 77 
97 8 10 52 118 48 17 117 27 57 
98 9 83 7 24 11 43 82 66 8 39 
99 7 53 22 70 90 4 64 72 
100 6 105 6 93 89 111 102 
101 9 62 88 2 73 114 110 28 19 59 
102 5 93 37 6 100 105 
103 8 92 91 87 9 96 75 50 76 
104 7 86 39 81 43 11 82 78 
105 5 100 6 89 93 111 
106 7 116 111 35 37 80 93 6 
107 9 14 41 108 112 47 26 25 55 94 
108 9 47 26 14 112 94 40 41 107 25 
109 9 77 36 55 85 23 5 50 15 96 
110 8 59 114 61 101 19 62 71 73 
111 7 106 116 6 13 37 93 51 
112 9 47 94 40 14 108 26 107 41 25 
113 8 63 44 30 75 85 9 5 36 
114 7 71 110 59 70 88 101 2 
115 9 12 58 38 45 31 84 69 21 49 
116 6 106 35 37 111 93 6 
117 9 57 27 118 3 48 10 52 65 97 
118 9 10 52 97 117 27 57 48 65 17 
119 8 80 49 20 17 84 13 31 106 
120 9 82 28 8 11 56 81 86 16 62 
DEPOT_SECTION
   1
   -1
EOF
