NAME :  X-n190-kX-w75-c9.cctp
COMMENT : 	Adapted by Maziero, Usberti and Cavellucci from the Uchoa, Pecin, Pessoa, Poggi, Subramanian, and Vidal (2013)
TYPE :  CCTP
DIMENSION :    190
EDGE_WEIGHT_TYPE : 	EUC_2D	
CAPACITY : 	138
VERTICES_WITHIN_COVERAGE :  9
VERTICES_WITH_DEMAND : 	75
NODE_COORD_SECTION
1 0 0
2 425 323
3 806 514
4 853 637
5 564 311
6 871 502
7 803 526
8 822 680
9 827 577
10 834 646
11 636 403
12 699 724
13 830 479
14 486 257
15 411 384
16 881 642
17 424 422
18 807 718
19 949 612
20 362 135
21 836 662
22 791 570
23 822 508
24 794 622
25 823 464
26 803 367
27 390 502
28 868 651
29 732 456
30 356 253
31 794 481
32 356 312
33 994 676
34 817 658
35 591 333
36 776 532
37 811 509
38 298 246
39 813 517
40 793 488
41 944 655
42 901 555
43 847 594
44 696 429
45 454 303
46 369 330
47 721 539
48 874 502
49 860 564
50 381 508
51 773 575
52 671 571
53 901 482
54 852 672
55 887 576
56 805 608
57 828 575
58 434 177
59 715 450
60 827 622
61 757 746
62 977 648
63 826 595
64 439 212
65 514 184
66 836 661
67 503 227
68 499 447
69 792 564
70 791 599
71 932 582
72 904 484
73 453 362
74 636 374
75 781 639
76 723 590
77 911 613
78 834 510
79 786 449
80 772 732
81 776 461
82 749 533
83 825 882
84 401 275
85 965 597
86 760 479
87 841 501
88 901 531
89 443 318
90 771 511
91 854 615
92 821 631
93 734 539
94 705 577
95 773 573
96 646 327
97 842 630
98 806 436
99 960 576
100 350 337
101 828 580
102 876 502
103 532 332
104 518 383
105 770 509
106 251 3
107 264 445
108 817 655
109 493 395
110 777 522
111 525 263
112 793 632
113 713 403
114 810 633
115 837 649
116 757 561
117 766 750
118 411 544
119 315 293
120 362 490
121 484 275
122 754 590
123 736 784
124 911 461
125 882 671
126 845 506
127 895 582
128 453 298
129 581 300
130 472 372
131 828 569
132 296 298
133 766 642
134 461 360
135 771 657
136 727 553
137 883 400
138 853 527
139 748 466
140 447 363
141 884 716
142 953 573
143 748 499
144 818 424
145 761 559
146 754 551
147 915 521
148 802 462
149 997 502
150 411 333
151 797 466
152 873 543
153 902 534
154 981 614
155 843 695
156 796 701
157 459 378
158 681 627
159 781 616
160 726 474
161 407 302
162 782 644
163 832 667
164 575 296
165 788 619
166 430 313
167 593 548
168 945 400
169 490 287
170 772 449
171 419 448
172 499 256
173 427 245
174 720 625
175 871 555
176 701 703
177 859 496
178 925 476
179 790 585
180 811 591
181 991 637
182 902 569
183 405 298
184 861 389
185 394 306
186 942 611
187 912 528
188 876 663
189 399 126
190 850 696
DEMAND_SECTION
2 3
3 7
4 2
5 4
6 3
7 2
8 4
9 1
10 6
11 6
12 9
13 2
14 4
15 1
16 8
17 4
18 2
19 5
20 4
21 9
22 10
23 8
24 1
25 8
26 5
27 7
28 10
29 3
30 3
31 9
32 1
33 3
34 9
35 6
36 5
37 7
38 8
39 6
40 5
41 4
42 10
43 8
44 5
45 7
46 5
47 6
48 2
49 1
50 3
51 6
52 2
53 3
54 4
55 1
56 7
57 3
58 5
59 10
60 5
61 9
62 1
63 8
64 6
65 3
66 2
67 8
68 1
69 4
70 4
71 9
72 5
73 4
74 4
75 5
76 4
COVERAGE_SECTION
2 9 166 150 89 161 183 45 185 128 140 
3 9 37 39 7 23 78 40 110 31 36 
4 9 97 115 10 28 91 16 66 21 60 
5 9 164 129 35 103 111 169 96 104 172 
6 9 48 102 177 126 87 138 53 72 78 
7 9 3 39 37 23 110 36 78 90 105 
8 9 163 21 34 66 108 155 54 190 156 
9 9 57 101 131 63 180 43 49 22 69 
10 9 115 66 21 97 108 92 4 34 163 
11 9 74 44 96 113 35 59 29 160 5 
12 9 176 61 123 117 80 135 158 156 174 
13 9 25 87 23 78 126 148 177 151 31 
14 9 172 121 169 67 111 128 45 173 64 
15 9 17 140 73 157 150 134 130 2 171 
16 9 28 188 4 125 91 97 54 77 115 
17 9 171 15 157 140 73 130 134 109 68 
18 9 156 80 8 155 190 117 61 163 34 
19 9 186 85 154 71 77 99 142 41 62 
20 9 189 58 64 30 38 173 84 65 119 
21 9 66 163 115 10 34 54 108 8 4 
22 9 69 179 95 51 70 180 145 116 9 
23 9 37 78 39 3 87 126 7 13 40 
24 9 165 112 159 56 114 75 70 162 92 
25 9 13 148 151 98 31 40 79 144 87 
26 9 144 184 98 79 137 170 148 113 81 
27 9 50 120 118 171 17 15 68 107 157 
28 9 188 16 4 125 54 115 97 10 21 
29 9 59 139 160 86 170 81 44 143 79 
30 9 84 119 38 32 185 183 161 173 132 
31 9 40 151 148 81 37 79 25 86 3 
32 9 46 100 185 119 183 161 84 30 150 
33 9 62 181 41 154 19 186 85 77 99 
34 9 108 163 21 66 10 115 8 114 92 
35 9 129 5 164 96 103 74 11 104 111 
36 9 110 90 105 82 7 146 145 3 116 
37 9 3 39 23 7 78 40 87 31 126 
38 9 119 132 30 32 100 84 46 185 183 
39 9 3 37 7 23 78 87 126 40 110 
40 9 31 151 37 148 3 105 81 90 86 
41 9 62 19 186 181 77 33 154 85 16 
42 9 182 153 88 55 127 187 152 175 147 
43 9 63 91 101 9 57 131 49 60 97 
44 9 59 113 29 160 139 11 170 74 86 
45 9 128 89 166 2 169 121 161 183 150 
46 9 100 32 185 150 161 183 2 166 84 
47 9 93 136 82 146 94 116 145 143 76 
48 9 102 6 177 126 87 138 53 72 88 
49 9 175 152 55 131 43 57 9 101 138 
50 9 27 120 118 171 17 15 68 107 157 
51 9 95 22 145 179 116 69 122 70 146 
52 9 94 76 158 47 136 93 174 167 122 
53 9 72 124 178 102 48 6 147 177 187 
54 9 21 66 163 190 155 28 188 115 125 
55 9 127 182 42 175 49 152 43 77 71 
56 9 70 24 180 165 63 114 159 60 112 
57 9 9 101 131 63 180 43 49 22 69 
58 9 64 189 173 65 20 67 14 172 84 
59 9 29 160 44 139 113 86 170 143 81 
60 9 92 97 114 10 56 63 91 115 4 
61 9 117 80 123 18 156 12 176 135 8 
62 9 181 33 41 154 19 186 85 99 77 
63 9 101 180 9 57 43 56 131 60 91 
64 9 58 173 14 67 84 172 121 65 128 
65 9 67 172 14 58 64 111 121 169 173 
66 9 21 163 115 10 34 54 108 8 4 
67 9 172 14 111 65 121 169 64 173 58 
68 9 109 104 17 130 157 171 134 73 140 
69 9 22 95 179 51 145 180 70 116 36 
70 9 179 56 159 165 180 24 22 51 95 
71 9 142 99 186 182 19 85 77 127 42 
72 9 53 178 124 102 48 6 147 187 88 
73 9 140 134 157 130 89 15 2 150 109 
74 9 11 96 35 44 113 129 5 164 59 
75 9 162 112 133 24 135 165 159 114 56 
76 9 94 122 174 136 116 145 146 47 51 
77 9 186 127 71 19 16 55 182 41 85 
78 9 87 23 126 39 37 138 3 177 13 
79 9 170 81 151 148 98 31 25 40 86 
80 9 117 61 18 156 123 8 12 135 176 
81 9 170 79 151 86 148 31 139 40 98 
82 9 93 146 36 47 116 145 110 136 90 
83 9 123 117 61 80 18 141 156 155 190 
84 9 183 161 185 173 166 30 2 128 32 
85 9 19 99 154 142 186 71 181 62 77 
86 9 139 143 81 105 170 31 40 90 160 
87 9 126 78 177 23 13 138 6 37 39 
88 9 153 187 147 42 152 102 175 182 48 
89 9 166 2 45 128 150 161 183 73 140 
90 9 105 110 36 143 82 40 86 3 7 
91 9 97 4 43 60 63 10 92 16 115 
92 9 60 114 10 97 108 115 34 24 56 
93 9 47 82 136 146 116 145 143 36 90 
94 9 76 136 52 47 93 174 122 116 146 
95 9 51 22 145 116 69 179 122 146 70 
96 9 74 35 129 11 164 5 113 44 103 
97 9 4 60 10 91 115 92 66 114 21 
98 9 144 79 148 151 25 170 81 31 13 
99 9 142 85 71 19 186 154 182 77 42 
100 9 46 32 185 119 150 132 161 183 2 
101 9 9 57 131 63 180 43 49 56 22 
102 9 48 6 177 126 53 72 138 87 88 
103 9 5 104 164 35 129 169 111 130 109 
104 9 109 130 103 157 134 68 73 140 5 
105 9 90 110 36 143 40 82 86 3 7 
106 9 20 189 38 58 30 64 119 132 173 
107 9 120 50 27 100 132 171 46 15 119 
108 9 34 10 163 21 66 115 114 92 8 
109 9 104 130 157 134 68 73 140 17 103 
110 9 36 90 105 7 3 82 37 39 143 
111 9 172 14 67 169 121 164 5 129 103 
112 9 24 75 165 162 114 159 56 92 133 
113 9 44 59 29 139 160 170 11 74 79 
114 9 92 112 24 60 108 56 34 165 10 
115 9 10 66 21 163 4 97 108 34 92 
116 9 145 146 95 51 82 122 136 93 22 
117 9 61 80 123 18 156 12 176 8 135 
118 9 27 50 120 171 17 68 15 109 157 
119 9 132 32 38 100 30 46 185 84 183 
120 9 50 27 171 118 17 107 15 68 157 
121 9 169 14 172 128 45 111 67 89 173 
122 9 51 95 116 76 145 179 159 70 146 
123 9 61 117 80 12 176 18 156 83 135 
124 9 178 53 72 102 48 6 147 177 137 
125 9 188 28 16 54 190 4 141 155 21 
126 9 87 78 177 138 23 6 48 13 102 
127 9 55 182 42 77 175 71 49 152 43 
128 9 45 89 166 2 121 169 161 183 14 
129 9 164 5 35 103 111 96 74 169 172 
130 9 157 134 73 140 109 104 89 15 2 
131 9 57 9 101 63 180 43 49 69 22 
132 9 119 38 32 100 30 46 185 84 183 
133 9 75 135 162 112 159 165 24 114 174 
134 9 73 140 130 157 89 109 2 15 166 
135 9 133 162 75 112 24 159 165 34 108 
136 9 47 93 146 82 116 94 145 76 122 
137 9 184 168 124 144 53 98 26 72 178 
138 9 126 78 152 87 6 177 48 175 102 
139 9 86 29 160 81 170 143 59 79 31 
140 9 73 134 157 130 15 89 2 150 166 
141 9 190 125 155 54 188 28 163 8 21 
142 9 99 71 85 19 186 154 182 42 77 
143 9 86 105 90 139 160 82 110 93 36 
144 9 98 25 79 148 151 170 184 13 81 
145 9 116 146 95 51 82 36 69 22 122 
146 9 116 145 82 93 136 36 95 51 47 
147 9 187 88 153 42 72 53 102 48 178 
148 9 151 25 31 79 81 98 40 13 170 
149 9 178 99 142 147 187 72 124 53 85 
150 9 2 166 161 185 89 183 46 140 15 
151 9 148 31 79 40 81 25 170 98 13 
152 9 175 49 138 42 88 153 55 182 6 
153 9 88 187 147 42 152 182 175 102 48 
154 9 85 181 19 62 186 99 142 41 71 
155 9 190 54 8 163 21 66 18 34 115 
156 9 18 8 80 155 34 163 108 135 190 
157 9 130 73 134 140 109 15 17 104 89 
158 9 174 94 76 52 176 122 133 136 135 
159 9 165 24 70 112 75 56 162 133 179 
160 9 29 139 59 143 86 81 170 44 105 
161 9 183 185 166 2 84 150 89 128 45 
162 9 75 112 133 135 24 165 159 114 108 
163 9 21 66 8 34 108 115 10 54 155 
164 9 129 5 35 103 111 96 169 172 121 
165 9 24 159 112 56 70 75 114 162 133 
166 9 2 89 161 45 128 150 183 185 84 
167 9 52 94 158 47 136 76 68 93 174 
168 9 137 124 178 184 53 72 149 102 48 
169 9 121 14 172 45 128 111 89 67 103 
170 9 81 79 139 151 86 148 98 31 29 
171 9 17 27 15 50 120 68 157 140 109 
172 9 14 121 111 67 169 128 45 173 64 
173 9 64 84 183 128 14 161 45 121 58 
174 9 76 158 122 133 94 135 159 75 162 
175 9 152 49 55 42 138 182 127 153 88 
176 9 12 61 80 158 117 174 135 123 133 
177 9 6 48 126 102 87 78 138 13 23 
178 9 124 72 53 147 187 102 48 6 88 
179 9 70 22 51 69 95 180 56 159 165 
180 9 63 56 101 9 70 179 57 131 22 
181 9 62 154 33 85 19 41 186 99 142 
182 9 42 127 55 71 175 153 88 152 49 
183 9 161 185 84 166 2 150 89 46 128 
184 9 137 144 26 98 25 168 124 148 13 
185 9 161 183 84 150 2 46 166 32 89 
186 9 19 85 71 77 99 154 142 41 62 
187 9 147 88 153 42 152 182 102 72 48 
188 9 125 28 16 54 4 21 66 115 190 
189 9 20 58 64 173 65 30 67 84 14 
190 9 155 54 8 163 21 66 141 125 188 
DEPOT_SECTION
   1
   -1
EOF
