NAME :  X-n134-kX-w13-c11.cctp
COMMENT : 	Adapted by Maziero, Usberti and Cavellucci from the Uchoa, Pecin, Pessoa, Poggi, Subramanian, and Vidal (2013)
TYPE :  CCTP
DIMENSION :    111
EDGE_WEIGHT_TYPE : 	EUC_2D	
CAPACITY : 	643
VERTICES_WITHIN_COVERAGE :  11
VERTICES_WITH_DEMAND : 	13
NODE_COORD_SECTION
1 113 195
2 377 239
3 364 39
4 306 316
5 795 18
6 560 115
7 501 147
8 704 68
9 762 62
10 357 33
11 359 353
12 314 186
13 338 303
14 522 80
15 291 58
16 735 15
17 324 12
18 275 278
19 409 32
20 279 297
21 844 27
22 796 4
23 735 111
24 373 461
25 385 100
26 281 378
27 793 7
28 965 64
29 347 256
30 742 75
31 339 244
32 334 391
33 323 314
34 345 69
35 295 370
36 426 446
37 286 335
38 374 34
39 201 153
40 356 74
41 767 236
42 789 61
43 467 332
44 357 21
45 386 207
46 389 234
47 281 344
48 312 3
49 317 163
50 582 186
51 301 411
52 822 6
53 386 268
54 294 74
55 425 55
56 382 251
57 351 385
58 701 32
59 384 214
60 866 243
61 546 186
62 815 29
63 734 57
64 377 235
65 793 31
66 392 248
67 308 314
68 396 27
69 250 345
70 903 66
71 266 264
72 580 142
73 408 225
74 297 283
75 733 38
76 312 293
77 764 45
78 351 284
79 321 318
80 451 423
81 365 142
82 487 175
83 267 51
84 346 248
85 485 24
86 542 109
87 813 117
88 212 192
89 344 170
90 325 343
91 349 90
92 389 302
93 769 51
94 489 165
95 376 210
96 320 191
97 339 138
98 390 222
99 376 262
100 416 240
101 688 80
102 289 193
103 322 311
104 303 228
105 829 13
106 315 212
107 266 239
108 326 136
109 287 298
110 319 176
111 323 291
DEMAND_SECTION
2 53
3 73
4 60
5 20
6 23
7 3
8 46
9 28
10 84
11 72
12 64
13 100
14 10
COVERAGE_SECTION
2 11 64 46 56 66 98 99 59 95 53 84 45 
3 11 10 38 44 68 34 40 19 17 91 48 55 
4 11 67 79 33 103 76 109 37 111 20 90 74 
5 11 27 65 22 62 52 105 77 93 42 21 9 
6 11 86 72 14 7 61 50 94 82 85 101 55 
7 8 94 82 86 61 6 14 72 50 
8 11 101 63 58 30 75 23 9 16 77 93 42 
9 11 93 77 30 42 63 75 65 16 5 23 8 
10 11 3 44 38 34 17 68 40 19 48 91 15 
11 11 57 90 32 79 33 13 103 92 67 4 35 
12 11 96 110 49 102 106 89 104 108 97 31 95 
13 11 103 33 111 78 79 76 67 4 90 74 29 
14 11 86 6 85 7 72 94 55 82 61 50 19 
15 10 54 83 34 17 48 91 40 10 3 44 
16 11 75 58 63 77 93 9 27 5 30 65 8 
17 11 48 44 10 3 38 15 34 54 83 40 68 
18 10 71 20 74 109 76 107 4 67 111 103 
19 11 68 55 38 3 10 44 40 25 34 85 91 
20 10 109 18 74 4 76 67 71 37 111 103 
21 11 105 62 52 5 65 22 27 42 70 93 77 
22 11 27 5 52 65 62 105 77 21 93 42 16 
23 11 30 8 63 9 101 93 77 75 42 87 58 
24 9 36 57 32 80 51 11 35 26 90 
25 10 91 40 81 34 55 97 3 38 108 19 
26 9 35 47 51 37 69 32 90 4 67 
27 11 22 5 65 52 62 105 77 93 42 21 16 
28 11 70 21 105 52 62 87 65 5 42 22 27 
29 10 84 31 78 99 2 56 64 53 111 66 
30 11 63 9 93 23 77 75 8 42 101 58 16 
31 10 84 29 2 64 104 106 99 78 56 95 
32 9 57 51 35 11 90 26 47 37 79 
33 11 103 79 67 4 13 111 76 90 109 74 78 
34 11 40 91 3 10 38 44 25 54 15 17 68 
35 9 26 47 37 90 51 32 69 4 67 
36 8 80 24 57 32 11 43 51 90 
37 11 47 4 67 35 69 109 20 79 90 26 33 
38 11 3 10 44 68 19 40 34 17 55 91 25 
39 8 88 102 107 49 12 110 83 54 
40 11 34 91 3 25 10 38 44 54 68 97 15 
41 11 60 87 23 30 9 101 42 8 63 93 77 
42 11 93 9 65 77 62 5 30 27 63 22 75 
43 5 92 80 53 100 11 
44 11 10 3 38 17 68 48 34 19 40 91 15 
45 11 59 95 98 46 73 64 2 66 56 100 89 
46 11 64 98 2 66 56 59 73 45 95 100 99 
47 11 37 35 69 26 4 67 90 109 20 79 33 
48 10 17 44 10 15 3 83 38 54 34 40 
49 11 110 12 89 96 108 97 102 106 81 104 95 
50 8 61 72 6 86 7 94 82 14 
51 9 26 32 35 57 47 90 37 11 69 
52 11 105 62 22 27 5 21 65 42 77 93 9 
53 10 99 56 66 2 46 64 92 78 29 100 
54 10 15 83 34 91 40 17 108 48 10 3 
55 10 19 68 38 25 3 85 10 40 44 34 
56 11 66 2 99 53 64 46 98 29 84 100 59 
57 10 32 11 90 51 35 26 79 33 24 103 
58 11 75 8 16 63 101 30 77 9 93 23 65 
59 11 45 95 98 46 64 2 73 66 56 100 99 
60 11 41 87 70 23 42 28 9 30 93 21 62 
61 8 50 72 7 82 94 6 86 14 
62 11 105 65 5 52 21 22 27 42 93 77 9 
63 11 75 30 9 8 77 93 58 16 101 23 42 
64 11 2 46 56 98 66 59 95 99 45 73 53 
65 11 5 62 27 22 42 93 77 52 105 9 21 
66 11 56 46 2 64 53 99 100 98 73 59 45 
67 11 4 79 103 33 76 109 111 37 13 74 20 
68 11 19 38 3 10 44 55 40 34 17 25 91 
69 10 47 37 26 35 20 109 4 67 18 90 
70 11 28 21 105 62 52 87 42 65 5 22 27 
71 10 18 107 20 74 109 104 76 111 67 4 
72 10 6 50 86 61 7 14 94 82 101 8 
73 10 100 98 46 59 45 66 64 2 95 56 
74 10 76 109 18 20 111 67 4 71 103 33 
75 11 63 16 77 58 9 30 93 8 65 42 101 
76 10 111 74 67 103 4 33 109 79 13 20 
77 11 93 9 42 63 65 75 30 5 16 27 22 
78 11 13 29 111 99 84 53 76 103 33 31 92 
79 11 33 103 67 4 13 90 76 111 37 109 74 
80 7 36 24 43 57 11 32 92 
81 10 97 89 108 25 49 91 110 12 96 45 
82 8 94 7 61 86 73 6 50 100 
83 10 15 54 48 17 34 91 10 40 44 3 
84 10 29 31 2 99 64 56 78 46 53 66 
85 11 14 55 19 68 86 38 6 3 7 25 10 
86 10 6 14 72 7 61 94 82 50 85 55 
87 11 42 9 23 93 30 77 62 65 21 63 5 
88 7 39 107 102 71 104 12 106 
89 11 110 49 96 97 12 81 108 95 106 45 59 
90 11 79 33 103 4 67 11 35 37 13 47 32 
91 10 40 34 25 97 108 3 81 54 10 38 
92 7 53 78 99 13 56 66 11 
93 11 77 9 42 65 30 63 75 5 16 27 62 
94 8 82 7 61 86 6 14 72 50 
95 11 59 45 98 64 46 2 73 56 66 84 31 
96 11 12 110 106 49 102 89 104 108 31 97 95 
97 10 108 81 89 49 110 91 12 96 25 40 
98 11 59 46 45 64 73 95 2 66 56 100 99 
99 11 53 56 66 2 64 29 46 78 84 31 92 
100 8 73 66 46 98 56 2 64 53 
101 11 8 58 63 30 23 75 9 16 77 93 42 
102 10 12 96 106 110 104 49 107 89 108 31 
103 11 33 79 67 4 13 111 76 90 109 74 78 
104 10 106 102 31 107 96 12 84 29 71 110 
105 11 52 21 62 5 22 27 65 42 93 77 9 
106 10 104 96 12 102 110 31 84 49 89 29 
107 10 71 104 18 102 74 106 20 109 76 12 
108 11 97 49 89 81 110 12 91 96 102 25 40 
109 11 20 74 18 76 4 67 37 103 111 33 79 
110 11 12 49 96 89 102 106 108 97 104 81 95 
111 10 76 13 103 33 67 74 79 78 4 109 
DEPOT_SECTION
   1
   -1
EOF
