NAME :  X-n186-kX-w37-c9.cctp
COMMENT : 	Adapted by Maziero, Usberti and Cavellucci from the Uchoa, Pecin, Pessoa, Poggi, Subramanian, and Vidal (2013)
TYPE :  CCTP
DIMENSION :    166
EDGE_WEIGHT_TYPE : 	EUC_2D	
CAPACITY : 	974
VERTICES_WITHIN_COVERAGE :  9
VERTICES_WITH_DEMAND : 	37
NODE_COORD_SECTION
1 159 917
2 635 200
3 278 907
4 875 93
5 10 732
6 586 657
7 482 75
8 526 176
9 153 622
10 452 945
11 456 137
12 884 968
13 688 793
14 117 915
15 149 746
16 495 325
17 539 967
18 917 58
19 590 316
20 611 998
21 963 878
22 141 5
23 383 531
24 685 124
25 39 781
26 534 29
27 213 837
28 874 734
29 180 943
30 789 541
31 343 949
32 537 248
33 626 147
34 56 596
35 112 344
36 738 977
37 941 193
38 437 386
39 743 623
40 521 398
41 488 747
42 90 89
43 83 719
44 126 148
45 789 437
46 504 704
47 933 949
48 232 78
49 382 130
50 61 985
51 357 505
52 199 892
53 930 154
54 400 95
55 148 261
56 41 527
57 29 335
58 913 885
59 293 784
60 102 962
61 372 866
62 144 223
63 684 899
64 402 636
65 138 705
66 715 745
67 914 323
68 287 3
69 461 953
70 780 165
71 935 38
72 927 350
73 784 423
74 849 726
75 74 778
76 362 568
77 898 759
78 563 171
79 136 83
80 341 955
81 892 938
82 671 542
83 659 306
84 805 670
85 930 778
86 791 763
87 641 347
88 846 685
89 598 253
90 45 585
91 654 70
92 887 421
93 310 854
94 602 66
95 878 10
96 351 797
97 995 987
98 697 200
99 722 246
100 847 208
101 577 295
102 102 478
103 899 185
104 123 601
105 230 342
106 438 547
107 968 649
108 214 379
109 242 769
110 66 727
111 354 338
112 725 735
113 632 849
114 411 272
115 481 165
116 121 414
117 492 78
118 794 406
119 736 937
120 701 496
121 87 12
122 963 619
123 61 688
124 387 244
125 209 571
126 631 208
127 643 521
128 280 11
129 226 40
130 161 296
131 839 54
132 814 504
133 967 668
134 236 704
135 218 618
136 526 667
137 87 981
138 768 197
139 976 122
140 177 712
141 449 902
142 492 63
143 761 122
144 609 621
145 614 240
146 478 599
147 175 312
148 239 636
149 347 199
150 619 620
151 275 24
152 565 769
153 120 871
154 140 957
155 68 736
156 661 294
157 604 737
158 91 956
159 16 561
160 680 254
161 852 978
162 533 757
163 352 957
164 409 939
165 630 902
166 487 220
DEMAND_SECTION
2 74
3 74
4 80
5 85
6 99
7 81
8 85
9 100
10 74
11 57
12 60
13 74
14 60
15 77
16 72
17 87
18 89
19 53
20 72
21 62
22 53
23 54
24 98
25 65
26 72
27 81
28 84
29 64
30 52
31 60
32 95
33 55
34 79
35 97
36 51
37 93
38 50
COVERAGE_SECTION
2 9 126 145 33 98 89 160 78 24 99 
3 9 93 31 80 52 163 27 61 29 59 
4 9 131 18 71 53 95 103 139 100 143 
5 9 110 25 155 123 43 75 65 15 34 
6 8 144 150 136 157 46 162 152 146 
7 9 117 142 11 26 54 115 8 49 94 
8 9 78 115 166 32 11 33 117 89 145 
9 9 104 135 125 65 148 140 34 123 90 
10 9 69 141 164 17 163 31 80 61 20 
11 9 115 7 117 54 49 8 142 166 78 
12 9 81 161 47 58 97 21 36 119 85 
13 8 66 112 113 157 63 86 165 152 
14 9 153 154 60 158 29 137 52 50 27 
15 9 65 140 43 75 155 110 109 134 123 
16 9 40 38 101 32 19 114 166 89 124 
17 8 20 69 10 141 165 164 113 63 
18 9 71 4 95 131 139 53 103 37 100 
19 9 101 87 89 83 156 145 32 16 40 
20 9 17 165 63 36 119 113 69 10 141 
21 9 58 47 81 85 97 12 77 161 28 
22 8 121 79 129 42 48 151 128 44 
23 8 51 76 106 64 146 38 148 125 
24 9 91 33 143 98 2 126 94 70 138 
25 9 75 155 5 110 43 123 15 153 65 
26 9 142 117 7 94 91 11 78 115 8 
27 9 52 109 3 59 93 153 15 29 14 
28 8 74 77 88 85 86 84 133 107 
29 9 154 52 14 60 158 153 137 3 27 
30 7 132 39 120 45 73 82 84 
31 9 80 163 164 3 61 93 10 141 69 
32 9 166 89 101 8 145 78 19 16 115 
33 9 2 126 24 78 91 94 98 145 8 
34 9 90 159 104 56 123 9 43 102 110 
35 9 130 116 147 57 55 108 105 62 102 
36 9 119 63 161 20 165 12 81 113 13 
37 9 53 103 139 100 4 67 18 71 72 
38 9 16 40 111 114 51 124 23 106 101 
39 6 84 30 82 112 88 150 
40 8 16 38 19 101 87 32 89 83 
41 6 46 162 152 136 157 6 
42 7 79 44 121 22 48 62 129 
43 9 110 155 123 65 75 15 5 25 140 
44 7 79 42 62 55 48 121 22 
45 7 73 118 132 92 30 120 82 
46 6 136 41 162 152 6 157 
47 9 81 12 58 97 21 161 85 77 36 
48 6 129 151 128 68 79 22 
49 7 54 11 149 115 7 124 117 
50 9 137 158 60 154 14 29 153 52 25 
51 8 23 76 106 64 38 146 125 111 
52 9 29 27 3 153 14 154 93 60 158 
53 9 37 103 139 4 18 100 71 131 70 
54 7 49 11 7 117 142 115 149 
55 8 130 62 147 35 44 105 108 57 
56 9 159 90 34 102 104 116 9 123 125 
57 9 35 116 130 55 147 62 102 108 56 
58 9 21 81 47 12 85 161 77 97 28 
59 7 109 96 93 27 134 61 3 
60 9 158 137 154 50 14 29 153 52 27 
61 9 93 96 164 141 31 163 80 3 10 
62 6 55 130 44 147 35 79 
63 9 165 119 113 36 13 20 66 17 112 
64 6 76 146 106 23 46 136 
65 9 140 15 43 110 155 123 9 75 134 
66 6 112 13 86 157 84 39 
67 8 72 92 37 100 103 118 73 45 
68 5 128 151 129 48 22 
69 9 10 141 164 17 163 31 80 61 20 
70 8 138 143 100 98 99 24 4 103 
71 9 18 95 4 139 131 53 103 37 100 
72 8 67 92 118 37 73 45 100 103 
73 6 45 118 132 92 120 30 
74 8 28 88 77 86 84 85 112 133 
75 9 25 155 110 43 5 15 123 65 153 
76 8 23 51 64 106 146 148 135 125 
77 9 28 85 74 88 86 133 58 84 107 
78 9 8 33 126 2 32 115 145 89 166 
79 7 42 44 22 121 48 129 62 
80 9 31 163 164 3 61 93 10 69 141 
81 9 12 47 58 161 21 97 119 36 85 
82 6 127 120 150 144 39 30 
83 8 156 87 160 19 145 89 101 99 
84 6 88 74 39 28 86 112 
85 9 77 28 74 21 58 133 88 107 86 
86 8 74 112 66 28 84 88 13 77 
87 7 83 156 19 101 160 89 145 
88 8 74 84 28 77 86 39 133 85 
89 9 145 101 126 32 19 2 156 83 160 
90 9 34 159 56 104 123 9 102 43 110 
91 9 94 24 33 143 26 2 78 98 126 
92 7 72 118 45 67 73 132 30 
93 9 3 61 96 59 27 31 80 109 163 
94 9 91 26 33 24 142 117 78 7 8 
95 9 131 18 71 4 139 53 143 103 70 
96 6 59 93 61 109 3 27 
97 9 47 12 21 81 58 161 85 77 36 
98 8 99 160 2 126 138 24 33 70 
99 6 160 98 138 156 83 2 
100 7 103 70 138 37 53 4 143 
101 9 19 89 32 145 87 83 156 16 126 
102 9 116 56 159 90 104 34 35 125 108 
103 9 37 53 100 4 139 70 18 138 67 
104 9 9 34 90 125 135 65 123 56 159 
105 8 108 147 130 55 35 111 116 62 
106 9 23 146 76 51 64 136 38 46 40 
107 9 133 122 28 88 77 85 74 84 30 
108 8 105 147 130 116 35 55 111 102 
109 7 59 134 27 140 15 93 96 
110 9 155 43 123 75 5 25 65 15 140 
111 7 114 38 124 105 149 16 108 
112 6 66 13 86 84 39 157 
113 7 165 63 13 152 157 66 162 
114 9 124 111 166 149 16 38 32 115 11 
115 9 11 8 166 78 117 7 32 142 49 
116 8 102 35 108 147 57 130 105 56 
117 9 7 142 26 11 115 54 8 94 78 
118 6 73 45 92 132 120 30 
119 9 36 63 165 161 113 20 12 13 81 
120 8 82 127 30 45 73 132 118 39 
121 7 22 42 79 44 129 48 151 
122 9 107 133 88 28 77 74 85 84 132 
123 9 43 110 155 5 65 75 34 25 90 
124 8 114 149 111 166 49 115 11 16 
125 8 135 148 9 104 134 102 140 65 
126 9 2 145 89 33 98 160 78 156 99 
127 7 82 120 150 144 39 6 30 
128 5 68 151 129 48 22 
129 6 48 151 128 68 22 79 
130 8 147 55 35 62 105 108 116 57 
131 9 4 95 18 71 143 70 53 103 139 
132 8 30 45 73 118 92 120 39 82 
133 9 107 122 28 77 85 88 74 84 86 
134 8 140 109 148 135 15 59 65 9 
135 9 148 125 9 134 104 140 65 15 76 
136 9 46 6 146 41 162 144 150 157 152 
137 9 60 158 50 154 14 29 153 52 27 
138 7 70 99 98 143 100 160 24 
139 9 53 37 18 71 103 4 95 131 100 
140 9 65 15 134 109 9 43 148 135 110 
141 8 10 69 164 61 17 163 31 80 
142 9 117 7 26 11 54 115 94 8 49 
143 8 70 138 24 98 131 4 91 100 
144 7 150 6 136 82 127 157 146 
145 9 89 126 2 101 160 156 32 19 83 
146 9 106 136 64 46 23 76 6 144 150 
147 7 130 55 105 35 108 62 116 
148 8 135 134 125 9 140 104 65 109 
149 7 124 49 114 54 11 115 111 
150 7 144 6 82 127 136 157 39 
151 5 128 68 129 48 22 
152 7 162 157 41 46 113 136 6 
153 9 14 52 154 158 60 29 27 75 137 
154 9 60 29 14 158 137 50 52 153 27 
155 9 110 43 75 123 25 5 65 15 140 
156 8 83 160 87 145 19 89 99 101 
157 7 152 162 6 13 46 136 66 
158 9 60 137 50 14 154 29 153 52 27 
159 9 90 56 34 104 102 123 9 5 43 
160 7 99 156 83 98 126 145 2 
161 9 12 81 47 58 36 119 97 21 63 
162 6 152 41 46 157 136 6 
163 9 80 31 164 3 61 10 69 93 141 
164 9 10 69 141 163 31 80 61 93 17 
165 8 113 63 20 17 119 13 36 152 
166 9 115 32 8 11 78 114 124 16 89 
DEPOT_SECTION
   1
   -1
EOF
