NAME :  X-n181-kX-w36-c7.cctp
COMMENT : 	Adapted by Maziero, Usberti and Cavellucci from the Uchoa, Pecin, Pessoa, Poggi, Subramanian, and Vidal (2013)
TYPE :  CCTP
DIMENSION :    156
EDGE_WEIGHT_TYPE : 	EUC_2D	
CAPACITY : 	8
VERTICES_WITHIN_COVERAGE :  7
VERTICES_WITH_DEMAND : 	36
NODE_COORD_SECTION
1 894 510
2 463 887
3 704 177
4 424 368
5 420 800
6 492 610
7 607 749
8 455 819
9 343 457
10 387 275
11 466 653
12 607 348
13 428 546
14 764 848
15 403 298
16 315 738
17 457 902
18 597 584
19 219 552
20 526 359
21 414 340
22 398 401
23 579 780
24 518 563
25 531 597
26 501 827
27 687 200
28 670 234
29 488 981
30 673 222
31 359 256
32 537 675
33 788 95
34 433 820
35 397 770
36 444 799
37 367 288
38 253 774
39 379 843
40 388 736
41 565 785
42 608 193
43 430 657
44 775 142
45 721 600
46 434 876
47 683 311
48 592 740
49 500 315
50 428 915
51 710 258
52 709 272
53 426 803
54 409 639
55 535 572
56 502 916
57 528 728
58 351 371
59 657 782
60 493 265
61 751 112
62 469 594
63 720 165
64 463 624
65 751 96
66 496 833
67 471 361
68 448 969
69 361 559
70 529 582
71 515 809
72 429 879
73 483 715
74 264 574
75 793 916
76 448 386
77 325 199
78 327 370
79 484 861
80 432 873
81 641 155
82 712 163
83 456 612
84 700 165
85 690 213
86 478 811
87 430 368
88 414 943
89 709 235
90 296 297
91 380 773
92 498 910
93 464 939
94 420 381
95 554 512
96 486 614
97 584 809
98 429 336
99 461 529
100 470 360
101 407 661
102 687 711
103 454 745
104 593 471
105 537 648
106 666 111
107 452 797
108 430 742
109 481 958
110 636 741
111 405 576
112 666 234
113 603 683
114 611 739
115 342 688
116 446 280
117 711 27
118 791 198
119 414 839
120 504 592
121 665 921
122 448 320
123 550 637
124 637 758
125 743 166
126 504 869
127 708 432
128 664 343
129 499 493
130 878 706
131 728 203
132 367 739
133 444 808
134 445 864
135 597 660
136 652 240
137 344 301
138 209 369
139 571 812
140 454 353
141 497 781
142 697 220
143 296 787
144 517 506
145 518 788
146 719 99
147 607 654
148 218 312
149 533 847
150 523 938
151 598 705
152 481 772
153 375 722
154 460 681
155 524 610
156 771 752
DEMAND_SECTION
2 1
3 1
4 1
5 1
6 1
7 1
8 1
9 1
10 1
11 1
12 1
13 1
14 1
15 1
16 1
17 1
18 1
19 1
20 1
21 1
22 1
23 1
24 1
25 1
26 1
27 1
28 1
29 1
30 1
31 1
32 1
33 1
34 1
35 1
36 1
37 1
COVERAGE_SECTION
2 7 17 134 46 79 80 72 92 
3 7 84 82 63 27 131 85 125 
4 7 87 94 21 76 98 140 22 
5 7 53 34 36 133 107 35 119 
6 7 96 120 62 64 155 83 25 
7 7 114 48 110 124 23 151 41 
8 7 133 34 107 36 86 53 5 
9 6 22 58 78 69 94 4 
10 7 37 15 31 137 116 21 98 
11 7 64 154 43 83 96 6 54 
12 6 128 20 47 49 136 104 
13 7 99 111 62 69 83 64 96 
14 6 75 156 121 59 124 102 
15 7 10 37 21 98 116 122 137 
16 7 132 143 115 153 38 40 91 
17 7 2 50 46 72 80 93 134 
18 7 55 25 70 123 147 135 155 
19 7 74 69 9 115 138 111 13 
20 4 49 67 100 140 
21 7 98 4 87 122 94 140 15 
22 6 94 4 87 76 58 21 
23 7 41 97 139 7 48 114 124 
24 7 55 70 120 25 155 6 144 
25 7 70 155 55 120 24 6 123 
26 7 66 71 86 79 149 126 145 
27 7 85 142 30 3 84 28 112 
28 7 112 30 136 85 142 27 89 
29 7 109 68 93 150 56 92 88 
30 7 28 112 85 142 27 136 89 
31 7 37 10 137 15 77 90 116 
32 7 105 123 57 135 113 155 73 
33 7 65 61 44 146 125 63 82 
34 7 133 53 8 5 36 119 107 
35 7 91 40 5 108 132 53 153 
36 7 107 133 53 8 5 34 86 
37 7 10 137 31 15 21 90 98 
38 7 143 16 132 115 91 153 40 
39 3 119 5 34 
40 6 153 132 35 91 108 115 
41 7 23 139 97 145 48 7 71 
42 7 81 136 30 112 28 27 85 
43 6 101 54 11 154 64 83 
44 7 61 125 33 65 118 63 82 
45 5 102 18 147 135 113 
46 5 80 72 134 2 17 
47 6 128 52 51 136 28 112 
48 7 7 114 151 23 110 124 41 
49 7 60 20 122 67 100 140 116 
50 5 88 17 72 46 80 
51 7 52 89 142 28 85 112 30 
52 6 51 89 47 142 28 112 
53 7 5 34 36 133 107 8 119 
54 6 101 43 83 64 11 111 
55 7 70 24 25 120 155 6 18 
56 7 92 150 93 17 109 126 2 
57 6 73 32 141 145 152 48 
58 7 78 22 21 94 137 4 87 
59 6 124 110 7 114 48 102 
60 7 116 49 122 15 98 140 67 
61 7 65 146 44 33 125 63 82 
62 7 83 96 6 64 120 155 24 
63 7 82 3 84 125 131 27 85 
64 7 83 96 11 62 6 43 120 
65 7 61 146 33 44 125 63 82 
66 7 26 86 79 71 126 149 8 
67 6 100 140 76 87 122 4 
68 6 93 109 29 88 50 17 
69 7 111 13 54 74 9 99 83 
70 7 55 25 24 120 155 6 96 
71 6 145 26 66 141 86 149 
72 4 46 80 134 2 
73 6 154 103 57 152 108 11 
74 7 19 69 115 9 111 54 13 
75 5 14 121 156 59 124 
76 6 87 94 4 67 100 140 
77 7 31 10 37 90 137 15 116 
78 7 58 137 22 90 9 37 21 
79 7 126 66 2 26 134 17 86 
80 4 46 72 134 2 
81 7 42 106 84 27 3 82 30 
82 7 63 84 3 125 131 27 85 
83 7 64 62 96 6 11 43 120 
84 7 82 3 63 27 125 131 85 
85 7 142 27 30 28 89 112 3 
86 7 8 26 66 107 133 36 141 
87 7 4 94 76 140 21 98 100 
88 5 50 68 93 17 72 
89 7 142 51 85 52 131 30 28 
90 7 137 37 31 78 148 58 10 
91 7 35 132 40 5 153 53 108 
92 7 56 150 126 2 17 93 79 
93 7 109 68 17 50 56 92 29 
94 7 4 87 76 22 21 140 98 
95 6 144 104 129 24 55 70 
96 7 6 64 62 120 83 155 11 
97 5 139 23 41 7 149 
98 7 21 122 140 4 87 15 94 
99 6 13 129 144 62 24 111 
100 6 67 140 76 87 122 4 
101 6 54 43 154 11 64 83 
102 5 110 124 59 114 7 
103 6 108 152 73 107 36 141 
104 4 95 144 129 18 
105 7 123 32 155 25 6 96 135 
106 6 81 146 84 82 3 63 
107 7 36 133 8 53 34 86 5 
108 7 103 40 35 5 36 73 91 
109 7 29 93 68 56 150 92 17 
110 6 124 114 7 48 59 151 
111 7 13 69 83 54 62 99 64 
112 7 28 30 136 85 142 27 89 
113 7 151 135 147 114 48 7 32 
114 7 7 48 110 124 151 23 113 
115 6 153 16 132 40 101 54 
116 7 122 15 60 10 98 49 21 
117 6 146 65 61 106 33 44 
118 7 44 125 131 63 82 3 89 
119 5 34 39 53 80 5 
120 7 6 25 70 155 96 24 62 
121 3 14 75 97 
122 7 98 140 21 116 100 67 15 
123 7 105 155 32 25 135 70 147 
124 7 110 7 59 114 48 23 151 
125 7 63 82 44 131 3 84 61 
126 7 79 149 66 92 26 2 56 
127 5 128 104 47 12 52 
128 6 47 12 52 51 127 136 
129 4 144 99 95 24 
130 5 156 14 45 102 75 
131 7 3 142 89 63 85 125 27 
132 6 153 40 91 35 16 115 
133 7 36 107 8 34 53 5 86 
134 6 46 80 72 2 79 17 
135 7 147 113 151 123 105 32 18 
136 7 112 28 30 85 142 27 89 
137 7 37 31 90 10 15 58 78 
138 7 148 90 78 58 137 9 37 
139 5 97 41 23 149 71 
140 7 100 67 87 98 4 76 122 
141 6 152 145 71 86 26 107 
142 7 85 89 27 30 28 112 131 
143 7 38 16 91 132 39 35 153 
144 5 129 95 24 99 55 
145 6 71 141 152 26 86 41 
146 7 65 61 106 82 63 33 84 
147 7 135 113 151 123 105 18 32 
148 7 138 90 78 137 58 37 31 
149 5 126 26 66 71 79 
150 7 56 92 109 29 93 126 17 
151 7 113 48 114 7 135 110 147 
152 6 141 103 107 86 145 36 
153 6 40 132 115 91 35 108 
154 7 11 43 73 64 101 103 54 
155 7 25 120 70 6 123 96 55 
156 5 102 14 130 59 124 
DEPOT_SECTION
   1
   -1
EOF
