NAME :  X-n190-kX-w18-c11.cctp
COMMENT : 	Adapted by Maziero, Usberti and Cavellucci from the Uchoa, Pecin, Pessoa, Poggi, Subramanian, and Vidal (2013)
TYPE :  CCTP
DIMENSION :    143
EDGE_WEIGHT_TYPE : 	EUC_2D	
CAPACITY : 	138
VERTICES_WITHIN_COVERAGE :  11
VERTICES_WITH_DEMAND : 	18
NODE_COORD_SECTION
1 0 0
2 425 323
3 806 514
4 853 637
5 564 311
6 871 502
7 803 526
8 822 680
9 827 577
10 834 646
11 636 403
12 699 724
13 830 479
14 486 257
15 411 384
16 881 642
17 424 422
18 807 718
19 949 612
20 836 662
21 791 570
22 822 508
23 823 464
24 390 502
25 868 651
26 794 481
27 356 312
28 994 676
29 817 658
30 591 333
31 776 532
32 811 509
33 813 517
34 793 488
35 944 655
36 847 594
37 696 429
38 454 303
39 369 330
40 874 502
41 860 564
42 381 508
43 901 482
44 852 672
45 828 575
46 434 177
47 827 622
48 757 746
49 977 648
50 826 595
51 439 212
52 514 184
53 836 661
54 503 227
55 499 447
56 792 564
57 932 582
58 904 484
59 453 362
60 636 374
61 911 613
62 834 510
63 772 732
64 825 882
65 401 275
66 965 597
67 841 501
68 901 531
69 443 318
70 771 511
71 854 615
72 821 631
73 646 327
74 842 630
75 806 436
76 960 576
77 350 337
78 828 580
79 876 502
80 532 332
81 518 383
82 770 509
83 264 445
84 817 655
85 493 395
86 777 522
87 525 263
88 713 403
89 810 633
90 837 649
91 766 750
92 411 544
93 362 490
94 484 275
95 736 784
96 911 461
97 882 671
98 845 506
99 453 298
100 581 300
101 472 372
102 828 569
103 461 360
104 883 400
105 853 527
106 447 363
107 884 716
108 953 573
109 818 424
110 915 521
111 802 462
112 411 333
113 797 466
114 873 543
115 902 534
116 981 614
117 843 695
118 796 701
119 459 378
120 681 627
121 407 302
122 832 667
123 575 296
124 430 313
125 593 548
126 945 400
127 490 287
128 419 448
129 499 256
130 427 245
131 701 703
132 859 496
133 925 476
134 811 591
135 991 637
136 405 298
137 861 389
138 394 306
139 942 611
140 912 528
141 876 663
142 399 126
143 850 696
DEMAND_SECTION
2 3
3 7
4 2
5 4
6 3
7 2
8 4
9 1
10 6
11 6
12 9
13 2
14 4
15 1
16 8
17 4
18 2
19 5
COVERAGE_SECTION
2 11 124 112 69 121 136 38 138 99 106 59 103 
3 11 32 33 7 22 62 34 86 26 31 70 82 
4 11 74 90 10 25 71 16 53 20 47 72 44 
5 11 123 100 30 80 87 127 73 81 129 94 14 
6 11 40 79 132 98 67 105 43 58 62 114 68 
7 11 3 33 32 22 86 31 62 70 82 34 56 
8 11 122 20 29 53 84 117 44 143 118 90 10 
9 9 45 78 102 50 134 36 41 21 56 
10 11 90 53 20 74 84 72 4 29 122 47 89 
11 8 60 37 73 88 30 5 100 81 
12 8 131 48 95 91 63 120 118 18 
13 11 23 67 22 62 98 111 132 113 26 32 34 
14 11 129 94 127 54 87 99 38 130 51 69 52 
15 11 17 106 59 119 112 103 101 2 128 39 69 
16 11 25 141 4 97 71 74 44 61 90 10 20 
17 11 128 15 119 106 59 101 103 85 55 24 112 
18 11 118 63 8 117 143 91 48 122 29 20 44 
19 10 139 66 116 57 61 76 108 35 49 135 
20 11 53 122 90 10 29 44 84 8 4 74 25 
21 5 56 134 9 45 102 
22 11 32 62 33 3 67 98 7 13 34 105 26 
23 10 13 111 113 75 26 34 109 67 22 32 
24 11 42 93 92 128 17 15 55 83 119 85 106 
25 11 141 16 4 97 44 90 74 10 20 53 71 
26 8 34 113 111 32 23 3 13 82 
27 8 39 77 138 136 121 65 112 2 
28 11 49 135 35 116 19 139 66 61 76 108 97 
29 10 84 122 20 53 10 90 8 89 72 47 
30 11 100 5 123 73 80 60 11 81 87 127 85 
31 7 86 70 82 7 3 56 33 
32 11 3 33 22 7 62 34 67 26 98 13 86 
33 11 3 32 7 22 62 67 98 34 86 31 26 
34 9 26 113 32 111 3 82 70 22 33 
35 11 49 19 139 135 61 28 116 66 16 97 141 
36 11 50 71 78 9 45 102 41 47 74 134 4 
37 3 88 11 60 
38 11 99 69 124 2 127 94 121 136 112 14 103 
39 10 77 27 138 112 121 136 2 124 65 15 
40 11 79 6 132 98 67 105 43 58 68 62 114 
41 7 114 102 36 45 9 78 105 
42 11 24 93 92 128 17 15 55 83 119 85 106 
43 11 58 96 133 79 40 6 110 132 140 68 115 
44 11 20 53 122 143 117 25 141 90 97 8 10 
45 9 9 78 102 50 134 36 41 21 56 
46 9 51 142 130 52 54 14 129 65 94 
47 9 72 74 89 10 50 71 90 4 36 
48 9 91 63 95 18 118 12 131 8 117 
49 11 135 28 35 116 19 139 66 76 61 108 57 
50 9 78 134 9 45 36 102 47 71 72 
51 11 46 130 14 54 65 129 94 52 99 127 38 
52 11 54 129 14 46 51 87 94 127 130 123 99 
53 11 20 122 90 10 29 44 84 8 4 74 25 
54 11 129 14 87 52 94 127 51 130 46 99 38 
55 11 85 81 17 101 119 128 103 59 106 15 80 
56 5 21 134 31 102 9 
57 7 108 76 139 19 66 61 115 
58 11 43 133 96 79 40 6 110 140 68 132 115 
59 11 106 103 119 101 69 15 2 112 85 124 38 
60 10 11 73 30 37 88 100 5 123 80 81 
61 8 139 57 19 16 35 66 25 71 
62 11 67 22 98 33 32 105 3 132 13 7 6 
63 10 91 48 18 118 95 8 12 131 117 143 
64 11 95 91 48 63 18 107 118 117 143 8 12 
65 10 136 121 138 130 124 2 99 27 112 38 
66 10 19 76 116 108 139 57 135 49 61 35 
67 11 98 62 132 22 13 105 6 32 33 40 79 
68 7 115 140 110 114 79 40 6 
69 11 124 2 38 99 112 121 136 59 106 103 138 
70 8 82 86 31 34 3 7 26 32 
71 11 74 4 36 47 50 10 72 16 90 25 78 
72 8 47 89 10 74 84 90 29 4 
73 11 60 30 100 11 123 5 88 37 80 87 81 
74 11 4 47 10 71 90 72 53 89 20 25 84 
75 7 109 111 113 23 26 13 34 
76 8 108 66 57 19 139 116 61 135 
77 9 39 27 138 112 121 136 2 15 65 
78 9 9 45 102 50 134 36 41 21 56 
79 11 40 6 132 98 43 58 105 67 68 114 115 
80 11 5 81 123 30 100 127 87 101 85 94 103 
81 11 85 101 80 119 103 55 59 106 5 30 69 
82 8 70 86 31 34 3 7 26 32 
83 9 93 42 24 77 128 39 15 17 27 
84 10 29 10 122 20 53 90 89 72 8 47 
85 11 81 101 119 103 55 59 106 17 80 15 128 
86 8 31 70 82 7 3 32 33 34 
87 11 129 14 54 127 94 123 5 100 80 52 99 
88 3 37 11 60 
89 5 72 47 84 29 10 
90 11 10 53 20 122 4 74 84 29 72 44 47 
91 10 48 63 95 18 118 12 131 8 117 143 
92 11 24 42 93 128 17 55 15 85 119 83 101 
93 11 42 24 128 92 17 83 15 55 119 77 106 
94 11 127 14 129 99 38 87 54 69 130 124 80 
95 10 48 91 63 12 131 18 118 64 8 117 
96 11 133 43 58 79 40 6 110 132 104 140 126 
97 11 141 25 16 44 143 4 107 117 20 53 90 
98 11 67 62 132 105 22 6 40 13 79 32 33 
99 11 38 69 124 2 94 127 121 136 14 112 65 
100 11 123 5 30 80 87 73 60 127 129 94 14 
101 11 119 103 59 106 85 81 69 15 2 17 38 
102 9 45 9 78 50 134 36 41 56 21 
103 11 59 106 101 119 69 85 2 15 124 38 112 
104 10 137 126 96 109 43 75 58 133 23 13 
105 10 98 62 114 67 6 132 40 79 22 41 
106 11 59 103 119 101 15 69 2 112 124 85 38 
107 11 143 97 117 44 141 25 122 8 20 53 16 
108 8 76 57 66 19 139 116 61 140 
109 7 75 23 111 113 137 13 26 
110 10 140 68 115 58 43 79 40 133 114 6 
111 7 113 23 26 75 34 13 109 
112 11 2 124 121 138 69 136 39 106 15 59 38 
113 7 111 26 34 23 75 13 32 
114 7 41 105 68 115 6 40 79 
115 7 68 140 110 114 79 40 6 
116 11 66 135 19 49 139 76 108 35 57 28 61 
117 11 143 44 8 122 20 53 18 29 90 97 107 
118 10 18 8 63 117 29 122 84 143 20 53 
119 11 101 59 103 106 85 15 17 81 69 2 112 
120 2 131 12 
121 11 136 138 124 2 65 112 69 99 38 39 27 
122 11 20 53 8 29 84 90 10 44 117 143 4 
123 11 100 5 30 80 87 73 127 129 94 14 60 
124 11 2 69 121 38 99 112 136 138 65 106 59 
125 3 120 55 11 
126 10 104 96 133 137 43 58 79 40 110 6 
127 11 94 14 129 38 99 87 69 54 80 124 2 
128 11 17 24 15 42 93 55 119 106 85 59 101 
129 11 14 94 87 54 127 99 38 130 51 52 80 
130 11 51 65 136 99 14 121 38 94 46 124 138 
131 7 12 48 63 120 91 95 118 
132 11 6 40 98 79 67 62 105 13 22 43 58 
133 11 96 58 43 110 140 79 40 6 68 115 132 
134 7 50 78 9 45 102 21 56 
135 11 49 116 28 66 19 35 139 76 108 57 61 
136 11 121 138 65 124 2 112 69 39 99 38 27 
137 9 104 109 75 23 126 96 111 13 113 
138 11 121 136 65 112 2 39 124 27 69 77 38 
139 10 19 66 57 61 76 116 108 35 49 135 
140 9 110 68 115 114 79 58 40 43 6 
141 11 97 25 16 44 4 20 53 90 143 122 10 
142 8 46 51 130 52 54 65 14 129 
143 11 117 44 8 122 20 53 107 97 141 18 25 
DEPOT_SECTION
   1
   -1
EOF
