NAME :  X-n195-kX-w19-c7.cctp
COMMENT : 	Adapted by Maziero, Usberti and Cavellucci from the Uchoa, Pecin, Pessoa, Poggi, Subramanian, and Vidal (2013)
TYPE :  CCTP
DIMENSION :    99
EDGE_WEIGHT_TYPE : 	EUC_2D	
CAPACITY : 	181
VERTICES_WITHIN_COVERAGE :  7
VERTICES_WITH_DEMAND : 	19
NODE_COORD_SECTION
1 500 500
2 691 729
3 978 828
4 427 367
5 777 543
6 190 596
7 773 750
8 234 727
9 851 358
10 140 69
11 891 285
12 467 13
13 537 162
14 636 355
15 213 284
16 75 877
17 384 814
18 606 173
19 76 236
20 86 733
21 303 261
22 771 775
23 107 264
24 38 170
25 907 792
26 491 411
27 457 218
28 8 330
29 75 781
30 560 188
31 27 523
32 432 198
33 695 372
34 203 307
35 641 389
36 836 612
37 375 499
38 577 226
39 889 259
40 516 324
41 102 346
42 223 11
43 648 790
44 878 261
45 549 214
46 638 166
47 452 172
48 711 687
49 24 32
50 843 248
51 115 449
52 82 971
53 876 644
54 322 24
55 642 810
56 141 824
57 330 941
58 830 188
59 970 812
60 723 360
61 274 238
62 668 103
63 269 147
64 135 493
65 930 729
66 388 767
67 517 382
68 537 160
69 457 1
70 295 704
71 785 358
72 592 694
73 607 347
74 767 401
75 854 524
76 325 778
77 465 885
78 394 769
79 888 436
80 980 290
81 710 300
82 372 794
83 438 871
84 758 513
85 752 463
86 550 133
87 625 799
88 433 847
89 516 12
90 265 183
91 919 380
92 699 633
93 773 599
94 231 773
95 250 657
96 275 755
97 381 870
98 654 377
99 211 808
DEMAND_SECTION
2 79
3 84
4 100
5 23
6 32
7 90
8 8
9 50
10 29
11 96
12 26
13 17
14 92
15 41
16 16
17 95
18 41
19 69
20 30
COVERAGE_SECTION
2 7 48 43 7 22 55 87 92 
3 3 59 25 65 
4 4 26 67 40 37 
5 5 84 93 75 85 36 
6 5 95 64 8 70 51 
7 6 22 2 48 43 92 25 
8 6 94 96 70 95 99 76 
9 6 71 91 11 79 74 44 
10 7 42 49 24 63 90 19 54 
11 6 39 44 50 9 80 91 
12 2 69 89 
13 4 68 86 30 45 
14 5 98 73 35 33 60 
15 7 34 61 21 23 90 41 19 
16 6 56 52 29 20 99 94 
17 6 82 78 66 97 88 76 
18 6 46 30 38 86 13 45 
19 7 23 24 41 28 15 34 10 
20 7 29 56 16 99 8 94 6 
21 6 61 90 15 34 63 32 
22 6 7 2 48 43 55 25 
23 7 19 41 34 15 24 28 61 
24 7 19 23 49 10 28 41 15 
25 4 59 65 3 22 
26 4 67 4 40 73 
27 4 32 47 45 13 
28 7 41 19 23 51 24 31 34 
29 7 20 56 16 99 94 8 52 
30 6 45 13 68 38 18 86 
31 7 64 51 6 41 28 20 95 
32 4 27 47 13 68 
33 6 60 98 35 14 81 74 
34 7 15 61 23 41 21 90 19 
35 4 98 14 73 33 
36 6 53 93 75 5 84 92 
37 3 4 26 67 
38 6 45 30 18 13 68 46 
39 6 44 11 50 58 80 9 
40 4 67 26 73 4 
41 7 23 28 51 34 19 15 64 
42 6 54 10 63 90 49 61 
43 4 55 87 2 72 
44 6 39 11 50 58 9 80 
45 5 30 38 13 68 18 
46 4 18 62 30 38 
47 4 32 27 13 68 
48 6 2 92 7 22 93 72 
49 7 10 24 42 19 23 63 90 
50 5 44 39 11 58 9 
51 7 64 41 31 28 6 34 23 
52 5 16 56 29 99 20 
53 6 36 65 93 75 5 7 
54 6 42 63 69 12 90 10 
55 3 87 43 2 
56 7 99 29 16 94 20 8 96 
57 4 97 83 17 88 
58 4 50 44 39 11 
59 3 3 25 65 
60 6 33 74 81 71 98 14 
61 6 21 90 15 63 34 32 
62 2 46 18 
63 6 90 61 21 54 42 15 
64 7 51 31 6 41 34 95 28 
65 6 25 59 53 3 36 7 
66 3 78 82 17 
67 4 26 40 4 73 
68 4 13 86 30 45 
69 2 12 89 
70 2 96 8 
71 4 74 60 9 33 
72 2 2 87 
73 6 14 35 98 33 40 67 
74 5 71 60 85 33 9 
75 5 5 36 79 84 93 
76 4 82 96 66 17 
77 4 83 88 97 17 
78 3 66 82 17 
79 2 91 9 
80 4 11 39 44 91 
81 5 60 33 14 71 98 
82 4 17 66 78 76 
83 5 88 77 97 17 82 
84 4 5 85 93 75 
85 3 84 74 5 
86 2 68 13 
87 3 55 43 2 
88 5 83 77 97 17 82 
89 2 12 69 
90 6 63 61 21 15 34 32 
91 2 79 9 
92 4 48 93 2 5 
93 6 5 36 92 84 48 75 
94 7 99 8 96 70 76 56 95 
95 4 70 8 6 96 
96 5 94 8 70 76 99 
97 7 17 83 88 82 77 57 78 
98 5 35 14 33 73 60 
99 7 94 56 96 8 76 70 29 
DEPOT_SECTION
   1
   -1
EOF
