NAME :  X-n143-kX-w14-c9.cctp
COMMENT : 	Adapted by Maziero, Usberti and Cavellucci from the Uchoa, Pecin, Pessoa, Poggi, Subramanian, and Vidal (2013)
TYPE :  CCTP
DIMENSION :    85
EDGE_WEIGHT_TYPE : 	EUC_2D	
CAPACITY : 	1190
VERTICES_WITHIN_COVERAGE :  9
VERTICES_WITH_DEMAND : 	14
NODE_COORD_SECTION
1 0 0
2 175 821
3 62 495
4 662 959
5 109 216
6 156 748
7 178 957
8 347 184
9 89 814
10 257 265
11 662 892
12 881 69
13 478 9
14 76 79
15 898 650
16 325 163
17 42 411
18 366 190
19 907 497
20 924 738
21 954 524
22 746 971
23 234 979
24 337 173
25 289 151
26 935 667
27 659 800
28 97 623
29 30 810
30 577 83
31 265 688
32 19 913
33 415 49
34 312 683
35 177 874
36 609 113
37 701 895
38 504 95
39 161 8
40 223 393
41 329 371
42 130 888
43 857 128
44 709 966
45 642 967
46 872 705
47 0 414
48 207 911
49 883 147
50 184 48
51 114 737
52 244 783
53 522 41
54 607 806
55 144 513
56 695 974
57 343 206
58 244 929
59 976 38
60 120 988
61 691 853
62 566 975
63 166 787
64 605 798
65 209 194
66 19 892
67 169 840
68 756 913
69 666 928
70 13 829
71 103 304
72 63 384
73 949 738
74 357 228
75 912 704
76 167 348
77 5 76
78 188 65
79 229 41
80 632 968
81 75 96
82 982 492
83 600 833
84 65 277
85 508 995
DEMAND_SECTION
2 95
3 35
4 81
5 12
6 3
7 99
8 47
9 64
10 20
11 47
12 27
13 77
14 50
15 75
COVERAGE_SECTION
2 9 67 63 35 6 52 42 9 48 51 
3 8 55 17 47 72 28 76 40 71 
4 9 45 69 80 56 44 11 37 22 62 
5 9 84 71 65 81 14 76 10 78 72 
6 9 63 51 2 67 9 52 31 35 28 
7 9 48 23 60 58 35 42 67 2 32 
8 8 24 18 57 16 74 25 10 65 
9 9 29 70 51 63 67 42 2 6 66 
10 9 65 57 74 25 8 24 76 16 41 
11 9 69 37 61 4 45 80 83 44 56 
12 3 43 49 59 
13 7 53 33 38 30 36 18 24 
14 8 81 77 39 50 78 5 79 65 
15 8 26 75 46 20 73 21 19 82 
16 8 24 8 25 57 18 74 65 10 
17 9 72 47 3 71 84 76 55 40 5 
18 8 8 57 24 74 16 25 10 33 
19 4 21 82 15 26 
20 5 73 75 46 26 15 
21 6 82 19 15 26 75 46 
22 9 44 56 68 4 37 69 45 80 11 
23 8 58 7 48 60 35 42 67 2 
24 8 8 16 18 57 25 74 10 65 
25 7 16 24 8 57 18 65 74 
26 8 15 75 20 73 46 21 19 82 
27 5 54 64 61 83 11 
28 8 51 55 3 6 63 31 9 29 
29 9 70 9 66 32 51 42 63 6 67 
30 5 36 53 38 13 33 
31 6 34 52 6 63 51 2 
32 9 66 70 29 42 9 60 35 7 67 
33 8 13 38 53 16 24 18 8 25 
34 3 31 52 6 
35 9 67 48 42 2 7 58 63 9 52 
36 4 30 38 53 13 
37 9 11 61 69 68 44 4 56 22 45 
38 6 53 30 13 33 36 18 
39 7 50 78 79 14 81 77 25 
40 6 76 41 10 55 71 72 
41 2 40 10 
42 9 35 67 48 2 7 9 60 63 66 
43 3 49 12 59 
44 9 56 22 4 69 45 37 68 80 11 
45 9 80 4 69 56 44 62 11 37 22 
46 5 75 15 20 26 73 
47 9 17 72 3 71 84 55 76 40 5 
48 9 58 35 7 23 42 67 2 60 63 
49 3 43 12 59 
50 7 78 39 79 14 81 25 65 
51 9 6 63 9 2 29 28 67 70 52 
52 8 63 2 67 6 31 35 34 48 
53 6 13 38 30 33 36 18 
54 5 64 83 27 61 11 
55 6 3 28 17 40 72 76 
56 9 44 4 22 45 69 80 37 68 11 
57 8 8 74 18 24 16 25 10 65 
58 8 48 23 7 35 67 42 2 60 
59 3 12 49 43 
60 9 7 42 23 48 32 35 58 66 67 
61 8 37 11 27 69 68 83 54 64 
62 8 85 80 45 4 69 11 56 44 
63 9 2 6 67 51 52 9 35 42 48 
64 5 54 83 27 61 11 
65 8 10 25 5 16 24 78 57 8 
66 9 32 70 29 9 42 60 35 67 2 
67 9 2 35 63 42 48 9 6 52 58 
68 8 37 22 44 56 61 69 11 4 
69 9 4 11 45 37 80 56 44 61 22 
70 9 29 66 9 32 42 51 67 63 2 
71 9 84 76 5 72 17 40 47 65 10 
72 9 17 47 71 84 76 3 55 40 5 
73 5 20 75 26 46 15 
74 8 57 18 8 24 16 25 10 41 
75 6 20 46 26 73 15 21 
76 8 40 71 72 10 84 17 5 65 
77 9 14 81 39 5 50 78 84 79 65 
78 7 50 79 39 14 81 65 25 
79 7 50 78 39 25 65 16 14 
80 9 45 4 69 56 62 44 11 37 22 
81 8 14 77 78 50 39 5 79 65 
82 4 21 19 15 26 
83 6 54 64 27 11 61 69 
84 9 71 5 72 76 17 47 65 81 10 
85 7 62 80 45 4 69 11 83 
DEPOT_SECTION
   1
   -1
EOF
