NAME :  X-n106-kX-w10-c7.cctp
COMMENT : 	Adapted by Maziero, Usberti and Cavellucci from the Uchoa, Pecin, Pessoa, Poggi, Subramanian, and Vidal (2013)
TYPE :  CCTP
DIMENSION :    64
EDGE_WEIGHT_TYPE : 	EUC_2D	
CAPACITY : 	600
VERTICES_WITHIN_COVERAGE :  7
VERTICES_WITH_DEMAND : 	10
NODE_COORD_SECTION
1 0 0
2 615 190
3 890 200
4 983 684
5 959 743
6 569 146
7 969 841
8 607 256
9 936 274
10 650 221
11 943 547
12 632 209
13 925 192
14 903 460
15 666 368
16 906 622
17 411 136
18 989 691
19 601 221
20 429 500
21 522 218
22 951 705
23 898 154
24 953 661
25 943 290
26 927 705
27 865 817
28 872 161
29 966 478
30 974 694
31 603 140
32 598 122
33 890 231
34 908 849
35 490 185
36 998 675
37 861 276
38 869 766
39 976 143
40 921 783
41 688 211
42 857 199
43 990 213
44 973 806
45 616 250
46 867 199
47 544 327
48 711 277
49 893 778
50 992 868
51 869 204
52 646 260
53 918 400
54 923 339
55 582 212
56 1000 309
57 572 192
58 582 39
59 686 188
60 995 720
61 603 126
62 574 195
63 614 195
64 961 162
DEMAND_SECTION
2 81
3 64
4 51
5 61
6 71
7 83
8 92
9 66
10 92
11 78
COVERAGE_SECTION
2 5 63 12 19 55 62 
3 6 51 46 33 42 13 28 
4 6 18 30 36 22 24 60 
5 7 22 60 26 30 40 18 4 
6 5 31 32 61 57 62 
7 7 44 50 34 40 5 49 27 
8 7 45 19 52 55 12 10 63 
9 7 25 33 54 56 37 43 13 
10 5 12 41 52 63 45 
11 4 29 16 14 24 
12 5 10 63 2 19 45 
13 7 3 23 64 33 51 46 28 
14 6 53 29 11 54 16 25 
15 5 48 52 8 45 47 
16 2 24 11 
17 5 35 21 6 57 62 
18 6 4 30 36 60 22 24 
19 7 55 63 12 45 2 8 62 
20 4 47 15 21 8 
21 6 35 57 62 55 19 6 
22 6 26 30 4 5 18 24 
23 5 28 3 13 46 51 
24 4 4 30 22 18 
25 7 9 54 56 33 37 43 13 
26 4 22 30 5 24 
27 7 49 38 34 40 7 44 5 
28 4 23 46 42 3 
29 6 14 11 53 54 16 56 
30 6 4 18 22 36 60 24 
31 3 61 32 6 
32 3 61 31 6 
33 6 3 51 46 42 13 37 
34 7 27 7 40 49 44 50 38 
35 5 21 57 62 6 17 
36 6 4 18 30 60 24 22 
37 6 33 51 9 42 46 3 
38 6 49 27 40 26 34 5 
39 6 64 13 43 23 3 28 
40 7 49 5 38 44 27 34 7 
41 2 59 10 
42 3 46 51 3 
43 7 64 13 39 9 25 56 3 
44 7 7 40 5 50 34 49 60 
45 7 8 52 19 12 10 55 63 
46 4 51 42 3 28 
47 6 8 45 21 19 55 52 
48 3 52 41 10 
49 7 38 40 27 34 5 26 44 
50 7 7 44 34 40 5 49 27 
51 4 46 42 3 33 
52 7 45 8 10 12 19 41 48 
53 7 54 14 29 25 56 9 37 
54 6 25 53 9 56 37 33 
55 7 62 19 57 63 2 12 8 
56 7 25 9 54 43 53 33 13 
57 7 62 55 19 63 2 6 21 
58 4 32 61 31 6 
59 2 41 10 
60 7 18 30 4 5 36 22 26 
61 3 32 31 6 
62 7 57 55 19 63 2 6 21 
63 6 2 12 19 55 62 57 
64 7 39 13 43 23 3 28 33 
DEPOT_SECTION
   1
   -1
EOF
