NAME :  X-n190-kX-w37-c9.cctp
COMMENT : 	Adapted by Maziero, Usberti and Cavellucci from the Uchoa, Pecin, Pessoa, Poggi, Subramanian, and Vidal (2013)
TYPE :  CCTP
DIMENSION :    170
EDGE_WEIGHT_TYPE : 	EUC_2D	
CAPACITY : 	138
VERTICES_WITHIN_COVERAGE :  9
VERTICES_WITH_DEMAND : 	37
NODE_COORD_SECTION
1 0 0
2 425 323
3 806 514
4 853 637
5 564 311
6 871 502
7 803 526
8 822 680
9 827 577
10 834 646
11 636 403
12 699 724
13 830 479
14 486 257
15 411 384
16 881 642
17 424 422
18 807 718
19 949 612
20 362 135
21 836 662
22 791 570
23 822 508
24 794 622
25 823 464
26 803 367
27 390 502
28 868 651
29 732 456
30 356 253
31 794 481
32 356 312
33 994 676
34 817 658
35 591 333
36 776 532
37 811 509
38 298 246
39 813 517
40 793 488
41 944 655
42 847 594
43 696 429
44 454 303
45 369 330
46 874 502
47 860 564
48 381 508
49 773 575
50 901 482
51 852 672
52 805 608
53 828 575
54 434 177
55 715 450
56 827 622
57 757 746
58 977 648
59 826 595
60 439 212
61 514 184
62 836 661
63 503 227
64 499 447
65 792 564
66 791 599
67 932 582
68 904 484
69 453 362
70 636 374
71 781 639
72 911 613
73 834 510
74 786 449
75 772 732
76 776 461
77 749 533
78 825 882
79 401 275
80 965 597
81 760 479
82 841 501
83 443 318
84 771 511
85 854 615
86 821 631
87 734 539
88 773 573
89 646 327
90 842 630
91 806 436
92 960 576
93 350 337
94 828 580
95 876 502
96 532 332
97 518 383
98 770 509
99 251 3
100 264 445
101 817 655
102 493 395
103 777 522
104 525 263
105 793 632
106 713 403
107 810 633
108 837 649
109 757 561
110 766 750
111 411 544
112 315 293
113 362 490
114 484 275
115 736 784
116 911 461
117 882 671
118 845 506
119 453 298
120 581 300
121 472 372
122 828 569
123 296 298
124 766 642
125 461 360
126 771 657
127 883 400
128 853 527
129 748 466
130 447 363
131 884 716
132 953 573
133 748 499
134 818 424
135 761 559
136 754 551
137 802 462
138 411 333
139 797 466
140 873 543
141 981 614
142 843 695
143 796 701
144 459 378
145 781 616
146 726 474
147 407 302
148 782 644
149 832 667
150 575 296
151 788 619
152 430 313
153 490 287
154 772 449
155 419 448
156 499 256
157 427 245
158 701 703
159 859 496
160 925 476
161 790 585
162 811 591
163 991 637
164 405 298
165 861 389
166 394 306
167 942 611
168 876 663
169 399 126
170 850 696
DEMAND_SECTION
2 3
3 7
4 2
5 4
6 3
7 2
8 4
9 1
10 6
11 6
12 9
13 2
14 4
15 1
16 8
17 4
18 2
19 5
20 4
21 9
22 10
23 8
24 1
25 8
26 5
27 7
28 10
29 3
30 3
31 9
32 1
33 3
34 9
35 6
36 5
37 7
38 8
COVERAGE_SECTION
2 9 152 138 83 147 164 44 166 119 130 
3 9 37 39 7 23 73 40 103 31 36 
4 9 90 108 10 28 85 16 62 21 56 
5 9 150 120 35 96 104 153 89 97 156 
6 9 46 95 159 118 82 128 50 68 73 
7 9 3 39 37 23 103 36 73 84 98 
8 9 149 21 34 62 101 142 51 170 143 
9 9 53 94 122 59 162 42 47 22 65 
10 9 108 62 21 90 101 86 4 34 149 
11 9 70 43 89 106 35 55 29 146 5 
12 7 158 57 115 110 75 126 143 
13 9 25 82 23 73 118 137 159 139 31 
14 9 156 114 153 63 104 119 44 157 60 
15 9 17 130 69 144 138 125 121 2 155 
16 9 28 168 4 117 85 90 51 72 108 
17 9 155 15 144 130 69 121 125 102 64 
18 9 143 75 8 142 170 110 57 149 34 
19 9 167 80 141 67 72 92 132 41 58 
20 9 169 54 60 30 38 157 79 61 112 
21 9 62 149 108 10 34 51 101 8 4 
22 9 65 161 88 49 66 162 135 109 9 
23 9 37 73 39 3 82 118 7 13 40 
24 9 151 105 145 52 107 71 66 148 86 
25 9 13 137 139 91 31 40 74 134 82 
26 9 134 165 91 74 127 154 137 106 76 
27 9 48 113 111 155 17 15 64 100 144 
28 9 168 16 4 117 51 108 90 10 21 
29 9 55 129 146 81 154 76 43 133 74 
30 9 79 112 38 32 166 164 147 157 123 
31 9 40 139 137 76 37 74 25 81 3 
32 9 45 93 166 112 164 147 79 30 138 
33 9 58 163 41 141 19 167 80 72 92 
34 9 101 149 21 62 10 108 8 107 86 
35 9 120 5 150 89 96 70 11 97 104 
36 9 103 84 98 77 7 136 135 3 109 
37 9 3 39 23 7 73 40 82 31 118 
38 9 112 123 30 32 93 79 45 166 164 
39 9 3 37 7 23 73 82 118 40 103 
40 9 31 139 37 137 3 98 76 84 81 
41 9 58 19 167 163 72 33 141 80 16 
42 9 59 85 94 9 53 122 47 56 90 
43 9 55 106 29 146 129 11 154 70 81 
44 9 119 83 152 2 153 114 147 164 138 
45 9 93 32 166 138 147 164 2 152 79 
46 8 95 6 159 118 82 128 50 68 
47 7 140 122 42 53 9 94 128 
48 9 27 113 111 155 17 15 64 100 144 
49 8 88 22 135 161 109 65 66 136 
50 7 68 116 160 95 46 6 159 
51 9 21 62 149 170 142 28 168 108 117 
52 9 66 24 162 151 59 107 145 56 105 
53 9 9 94 122 59 162 42 47 22 65 
54 9 60 169 157 61 20 63 14 156 79 
55 9 29 146 43 129 106 81 154 133 76 
56 9 86 90 107 10 52 59 85 108 4 
57 9 110 75 115 18 143 12 158 126 8 
58 9 163 33 41 141 19 167 80 92 72 
59 9 94 162 9 53 42 52 122 56 85 
60 9 54 157 14 63 79 156 114 61 119 
61 9 63 156 14 54 60 104 114 153 157 
62 9 21 149 108 10 34 51 101 8 4 
63 9 156 14 104 61 114 153 60 157 54 
64 9 102 97 17 121 144 155 125 69 130 
65 9 22 88 161 49 135 162 66 109 36 
66 9 161 52 145 151 162 24 22 49 88 
67 6 132 92 167 19 80 72 
68 6 50 160 116 95 46 6 
69 9 130 125 144 121 83 15 2 138 102 
70 9 11 89 35 43 106 120 5 150 55 
71 9 148 105 124 24 126 151 145 107 52 
72 6 167 67 19 16 41 80 
73 9 82 23 118 39 37 128 3 159 13 
74 9 154 76 139 137 91 31 25 40 81 
75 9 110 57 18 143 115 8 12 126 158 
76 9 154 74 139 81 137 31 129 40 91 
77 7 87 136 36 109 135 103 84 
78 9 115 110 57 75 18 131 143 142 170 
79 9 164 147 166 157 152 30 2 119 32 
80 9 19 92 141 132 167 67 163 58 72 
81 9 129 133 76 98 154 31 40 84 146 
82 9 118 73 159 23 13 128 6 37 39 
83 9 152 2 44 119 138 147 164 69 130 
84 9 98 103 36 133 77 40 81 3 7 
85 9 90 4 42 56 59 10 86 16 108 
86 9 56 107 10 90 101 108 34 24 52 
87 7 77 136 109 135 133 36 84 
88 8 49 22 135 109 65 161 136 66 
89 9 70 35 120 11 150 5 106 43 96 
90 9 4 56 10 85 108 86 62 107 21 
91 9 134 74 137 139 25 154 76 31 13 
92 7 132 80 67 19 167 141 72 
93 9 45 32 166 112 138 123 147 164 2 
94 9 9 53 122 59 162 42 47 52 22 
95 8 46 6 159 118 50 68 128 82 
96 9 5 97 150 35 120 153 104 121 102 
97 9 102 121 96 144 125 64 69 130 5 
98 9 84 103 36 133 40 77 81 3 7 
99 9 20 169 38 54 30 60 112 123 157 
100 9 113 48 27 93 123 155 45 15 112 
101 9 34 10 149 21 62 108 107 86 8 
102 9 97 121 144 125 64 69 130 17 96 
103 9 36 84 98 7 3 77 37 39 133 
104 9 156 14 63 153 114 150 5 120 96 
105 9 24 71 151 148 107 145 52 86 124 
106 9 43 55 29 129 146 154 11 70 74 
107 9 86 105 24 56 101 52 34 151 10 
108 9 10 62 21 149 4 90 101 34 86 
109 7 135 136 88 49 77 87 22 
110 9 57 75 115 18 143 12 158 8 126 
111 9 27 48 113 155 17 64 15 102 144 
112 9 123 32 38 93 30 45 166 79 164 
113 9 48 27 155 111 17 100 15 64 144 
114 9 153 14 156 119 44 104 63 83 157 
115 9 57 110 75 12 158 18 143 78 126 
116 8 160 50 68 95 46 6 159 127 
117 9 168 28 16 51 170 4 131 142 21 
118 9 82 73 159 128 23 6 46 13 95 
119 9 44 83 152 2 114 153 147 164 14 
120 9 150 5 35 96 104 89 70 153 156 
121 9 144 125 69 130 102 97 83 15 2 
122 9 53 9 94 59 162 42 47 65 22 
123 9 112 38 32 93 30 45 166 79 164 
124 8 71 126 148 105 145 151 24 107 
125 9 69 130 121 144 83 102 2 15 152 
126 9 124 148 71 105 24 145 151 34 101 
127 8 165 116 134 50 91 26 68 160 
128 8 118 73 140 82 6 159 46 95 
129 9 81 29 146 76 154 133 55 74 31 
130 9 69 125 144 121 15 83 2 138 152 
131 9 170 117 142 51 168 28 149 8 21 
132 7 92 67 80 19 167 141 72 
133 9 81 98 84 129 146 77 103 87 36 
134 9 91 25 74 137 139 154 165 13 76 
135 8 109 136 88 49 77 36 65 22 
136 7 109 135 77 87 36 88 49 
137 9 139 25 31 74 76 91 40 13 154 
138 9 2 152 147 166 83 164 45 130 15 
139 9 137 31 74 40 76 25 154 91 13 
140 3 47 128 6 
141 9 80 163 19 58 167 92 132 41 67 
142 9 170 51 8 149 21 62 18 34 108 
143 9 18 8 75 142 34 149 101 126 170 
144 9 121 69 125 130 102 15 17 97 83 
145 9 151 24 66 105 71 52 148 124 161 
146 9 29 129 55 133 81 76 154 43 98 
147 9 164 166 152 2 79 138 83 119 44 
148 9 71 105 124 126 24 151 145 107 101 
149 9 21 62 8 34 101 108 10 51 142 
150 9 120 5 35 96 104 89 153 156 114 
151 9 24 145 105 52 66 71 107 148 124 
152 9 2 83 147 44 119 138 164 166 79 
153 9 114 14 156 44 119 104 83 63 96 
154 9 76 74 129 139 81 137 91 31 29 
155 9 17 27 15 48 113 64 144 130 102 
156 9 14 114 104 63 153 119 44 157 60 
157 9 60 79 164 119 14 147 44 114 54 
158 7 12 57 75 110 126 115 124 
159 9 6 46 118 95 82 73 128 13 23 
160 6 116 68 50 95 46 6 
161 9 66 22 49 65 88 162 52 145 151 
162 9 59 52 94 9 66 161 53 122 22 
163 9 58 141 33 80 19 41 167 92 132 
164 9 147 166 79 152 2 138 83 45 119 
165 8 127 134 26 91 25 116 137 13 
166 9 147 164 79 138 2 45 152 32 83 
167 9 19 80 67 72 92 141 132 41 58 
168 9 117 28 16 51 4 21 62 108 170 
169 9 20 54 60 157 61 30 63 79 14 
170 9 142 51 8 149 21 62 131 117 168 
DEPOT_SECTION
   1
   -1
EOF
