NAME :  X-n157-kX-w62-c11.cctp
COMMENT : 	Adapted by Maziero, Usberti and Cavellucci from the Uchoa, Pecin, Pessoa, Poggi, Subramanian, and Vidal (2013)
TYPE :  CCTP
DIMENSION :    157
EDGE_WEIGHT_TYPE : 	EUC_2D	
CAPACITY : 	12
VERTICES_WITHIN_COVERAGE :  11
VERTICES_WITH_DEMAND : 	62
NODE_COORD_SECTION
1 769 259
2 91 377
3 108 338
4 816 567
5 725 520
6 117 357
7 766 559
8 90 417
9 255 430
10 63 384
11 35 276
12 122 318
13 85 322
14 267 348
15 937 546
16 865 461
17 863 547
18 724 431
19 148 144
20 243 571
21 871 512
22 782 596
23 77 272
24 776 650
25 166 371
26 69 239
27 972 607
28 320 521
29 91 434
30 20 305
31 81 271
32 776 669
33 830 553
34 148 243
35 160 202
36 741 527
37 877 561
38 587 551
39 808 435
40 26 278
41 58 394
42 755 444
43 817 557
44 165 367
45 216 510
46 124 330
47 96 587
48 132 369
49 163 234
50 915 492
51 753 657
52 161 319
53 37 227
54 898 747
55 770 524
56 745 582
57 695 469
58 124 355
59 11 283
60 258 406
61 72 335
62 713 399
63 866 626
64 214 344
65 213 349
66 864 577
67 98 440
68 701 512
69 884 559
70 842 518
71 125 379
72 352 410
73 206 228
74 825 592
75 93 252
76 863 511
77 98 347
78 115 326
79 71 392
80 96 248
81 65 404
82 75 342
83 140 300
84 129 340
85 129 273
86 846 696
87 109 463
88 863 586
89 139 356
90 77 351
91 154 322
92 231 323
93 115 394
94 844 558
95 98 454
96 739 568
97 179 443
98 862 618
99 764 764
100 844 554
101 174 319
102 703 319
103 151 453
104 863 569
105 72 473
106 632 575
107 823 578
108 26 42
109 47 381
110 71 336
111 754 484
112 137 465
113 80 355
114 172 296
115 28 310
116 754 579
117 531 662
118 87 382
119 866 481
120 93 337
121 942 567
122 788 567
123 824 451
124 926 901
125 182 500
126 98 384
127 104 370
128 48 462
129 952 629
130 239 324
131 138 516
132 747 605
133 136 460
134 748 624
135 43 268
136 792 597
137 95 352
138 109 413
139 67 224
140 104 386
141 817 672
142 183 360
143 922 652
144 779 419
145 863 721
146 40 456
147 66 395
148 862 465
149 383 357
150 307 434
151 233 421
152 329 280
153 623 554
154 103 349
155 736 688
156 75 266
157 174 406
DEMAND_SECTION
2 1
3 1
4 1
5 1
6 1
7 1
8 1
9 1
10 1
11 1
12 1
13 1
14 1
15 1
16 1
17 1
18 1
19 1
20 1
21 1
22 1
23 1
24 1
25 1
26 1
27 1
28 1
29 1
30 1
31 1
32 1
33 1
34 1
35 1
36 1
37 1
38 1
39 1
40 1
41 1
42 1
43 1
44 1
45 1
46 1
47 1
48 1
49 1
50 1
51 1
52 1
53 1
54 1
55 1
56 1
57 1
58 1
59 1
60 1
61 1
62 1
63 1
COVERAGE_SECTION
2 11 118 126 127 140 79 113 137 10 93 90 154 
3 11 154 77 78 120 46 137 6 84 58 12 13 
4 11 43 107 33 74 122 94 100 136 22 104 66 
5 11 36 68 55 111 96 7 57 56 116 122 42 
6 11 58 154 127 48 3 77 84 89 71 137 46 
7 11 116 122 96 56 55 22 36 136 132 4 43 
8 11 29 138 67 81 79 147 93 126 140 118 95 
9 11 60 151 150 97 14 157 45 65 64 72 142 
10 11 41 79 147 109 81 118 2 113 126 90 140 
11 11 40 135 59 30 115 156 23 31 53 26 139 
12 11 78 46 84 3 83 91 120 154 13 58 77 
13 11 120 61 110 82 3 77 78 90 137 154 113 
14 11 130 92 64 65 60 151 9 142 152 150 101 
15 11 121 69 50 37 27 17 21 104 66 76 88 
16 11 148 119 123 76 21 50 70 39 17 100 144 
17 11 37 100 94 104 69 66 33 21 70 76 88 
18 11 42 62 57 144 111 39 68 5 36 123 55 
19 11 35 49 34 73 139 80 75 26 85 53 156 
20 11 45 28 125 131 9 97 47 103 112 151 150 
21 11 76 70 119 17 50 148 37 69 100 16 94 
22 11 136 122 116 132 7 56 74 134 4 107 96 
23 11 31 156 75 80 26 135 11 139 13 40 85 
24 11 32 51 134 141 22 132 136 155 116 56 74 
25 11 44 142 89 48 157 71 58 84 91 6 52 
26 11 139 75 80 156 23 31 53 135 11 40 85 
27 11 129 121 143 15 69 37 63 88 98 66 104 
28 11 150 20 45 9 72 60 151 125 97 149 14 
29 11 67 8 95 138 87 81 105 147 79 93 126 
30 11 115 59 40 11 135 61 110 23 82 13 156 
31 11 23 156 75 80 26 135 11 85 139 13 40 
32 11 24 51 141 155 134 132 22 136 86 74 56 
33 11 43 100 94 4 107 17 70 104 74 66 122 
34 11 49 85 35 80 75 83 114 73 31 23 52 
35 11 49 34 73 19 85 80 75 114 139 26 83 
36 11 5 55 7 96 68 111 116 56 122 57 132 
37 11 69 104 17 66 88 94 100 33 21 76 70 
38 11 153 106 68 117 57 5 96 36 56 116 132 
39 11 123 144 42 148 16 111 119 18 70 76 55 
40 11 11 59 135 30 115 156 23 53 31 26 139 
41 11 147 10 81 79 109 118 2 8 126 113 90 
42 11 18 144 111 39 62 57 123 55 5 36 68 
43 11 4 33 107 94 100 122 74 70 17 136 104 
44 11 25 142 89 48 157 71 58 84 91 52 6 
45 11 125 20 97 131 103 9 112 151 133 28 60 
46 11 78 84 12 3 58 6 154 89 77 91 120 
47 11 131 105 125 87 112 95 133 128 146 45 103 
48 11 71 89 58 6 127 84 93 44 140 25 154 
49 11 34 35 73 85 114 80 83 75 52 101 91 
50 11 21 119 76 15 16 148 69 17 70 37 121 
51 11 24 32 134 155 132 141 22 136 56 116 96 
52 11 91 101 114 83 84 12 46 89 78 142 44 
53 11 139 26 135 11 40 156 23 75 31 59 80 
54 11 145 86 143 141 63 129 98 99 32 24 124 
55 11 36 7 111 5 122 96 43 116 4 56 33 
56 11 116 96 132 7 22 134 122 136 36 55 5 
57 11 68 18 5 111 42 62 36 55 144 96 153 
58 11 6 89 48 84 154 3 71 46 127 77 137 
59 11 40 30 11 115 135 53 156 23 31 26 61 
60 11 9 151 150 14 65 64 130 157 92 97 142 
61 11 110 82 90 13 120 113 77 137 154 3 78 
62 11 18 42 144 57 102 111 39 68 5 123 36 
63 11 98 88 66 74 104 143 107 37 141 69 94 
64 11 65 92 130 142 101 14 44 25 52 91 114 
65 11 64 92 142 130 101 44 25 14 52 91 114 
66 11 104 88 37 69 94 17 100 98 107 33 74 
67 11 29 95 8 87 138 105 133 112 81 93 140 
68 11 5 36 57 111 96 55 7 56 18 116 42 
69 11 37 104 17 66 88 94 100 21 76 33 15 
70 11 76 21 17 100 33 94 119 43 4 37 104 
71 11 48 93 140 6 127 58 89 126 2 154 118 
72 11 150 149 60 9 14 28 151 152 130 92 65 
73 11 49 35 34 114 85 101 83 92 19 52 130 
74 11 107 4 136 43 88 33 94 66 100 22 104 
75 11 80 31 156 23 26 139 85 135 34 53 11 
76 11 21 70 119 17 148 100 16 94 37 69 33 
77 11 154 137 120 3 113 6 90 82 127 58 78 
78 11 46 12 3 84 120 154 77 13 58 6 137 
79 11 147 10 41 81 118 2 109 126 8 140 113 
80 11 75 31 26 156 23 139 85 34 135 53 11 
81 11 147 41 79 10 8 109 118 2 126 29 140 
82 11 110 61 90 113 120 13 137 77 154 3 2 
83 11 12 91 52 85 114 46 78 101 84 3 89 
84 11 46 58 89 78 3 6 12 154 48 91 77 
85 11 83 34 80 75 12 31 114 23 49 156 78 
86 11 145 141 54 63 32 98 24 143 51 74 99 
87 11 95 67 133 112 29 105 103 8 138 131 128 
88 11 66 104 37 98 69 94 100 74 17 63 107 
89 11 48 58 84 6 71 44 46 25 3 91 154 
90 11 113 82 110 61 137 77 120 154 2 13 118 
91 11 52 101 83 46 84 12 114 89 78 58 44 
92 11 130 64 65 14 101 142 114 52 91 44 25 
93 11 140 71 126 138 127 2 48 118 8 6 58 
94 11 100 33 17 104 43 66 4 107 37 88 74 
95 11 67 87 29 105 8 133 112 138 128 103 146 
96 11 56 116 7 132 36 122 5 22 55 134 136 
97 11 103 157 133 112 125 151 25 87 138 9 44 
98 11 63 88 66 74 104 107 37 69 94 100 4 
99 11 155 32 141 86 51 145 24 54 134 132 22 
100 11 94 33 17 104 43 66 4 107 37 70 88 
101 11 52 91 114 83 142 64 44 65 84 46 89 
102 11 62 18 144 42 57 39 111 123 68 5 36 
103 11 133 112 97 87 157 95 67 125 138 29 131 
104 11 66 37 88 17 94 69 100 33 107 74 4 
105 11 128 95 146 87 67 29 8 112 133 81 138 
106 11 153 38 68 96 5 56 36 132 116 57 134 
107 11 4 74 43 33 94 100 136 122 66 88 104 
108 11 19 53 139 26 35 80 75 135 156 11 34 
109 11 10 41 147 79 81 118 90 113 2 82 110 
110 11 61 82 90 13 113 120 77 137 154 3 78 
111 11 42 55 36 5 68 18 57 144 39 7 123 
112 11 133 103 87 95 67 97 131 29 125 138 105 
113 11 90 82 137 77 110 61 120 154 2 118 127 
114 11 101 52 83 91 85 12 34 46 84 49 64 
115 11 30 40 59 11 135 110 61 82 13 23 90 
116 11 56 96 7 132 22 122 136 134 36 55 4 
117 11 38 106 153 155 134 51 132 68 56 96 116 
118 11 2 126 140 79 127 10 147 113 93 41 81 
119 11 148 16 76 21 70 50 123 17 39 100 33 
120 11 77 3 137 154 13 82 61 90 110 113 78 
121 11 15 27 69 129 37 66 104 50 17 88 143 
122 11 7 4 22 136 43 116 107 33 74 56 55 
123 11 39 148 16 119 144 42 70 76 21 111 55 
124 11 54 145 99 86 143 141 129 32 63 155 98 
125 11 45 131 103 97 112 133 87 20 151 157 95 
126 11 140 2 118 127 93 71 79 138 137 6 8 
127 11 2 126 140 6 137 118 154 71 77 58 93 
128 11 146 105 29 95 67 81 87 8 41 147 79 
129 11 27 143 121 15 63 98 69 88 37 66 104 
130 11 92 64 65 14 101 142 114 52 60 91 44 
131 11 125 112 133 87 103 95 45 105 47 97 67 
132 11 134 56 116 22 96 136 7 51 24 122 32 
133 11 112 103 87 95 67 97 29 138 131 125 8 
134 11 132 51 24 56 22 116 136 32 96 155 7 
135 11 11 40 156 23 59 31 26 53 30 115 139 
136 11 22 122 74 107 4 116 7 132 43 56 134 
137 11 77 154 113 120 90 3 127 82 6 2 58 
138 11 8 93 140 29 67 126 71 118 2 95 79 
139 11 26 53 75 80 156 23 31 135 11 40 85 
140 11 126 93 2 127 118 71 138 6 48 8 79 
141 11 86 32 24 51 63 145 98 136 74 155 22 
142 11 44 25 65 64 101 89 52 157 91 48 84 
143 11 129 63 27 98 121 86 88 145 66 54 69 
144 11 39 42 123 18 62 111 148 16 57 55 119 
145 11 86 54 141 143 63 32 98 99 24 51 129 
146 11 128 105 29 81 95 67 8 41 147 87 79 
147 11 79 41 81 10 109 118 2 8 126 140 113 
148 11 16 119 123 76 21 70 50 39 17 100 33 
149 11 72 152 150 14 60 9 130 92 151 64 65 
150 11 72 9 60 151 28 14 149 45 65 97 64 
151 11 9 60 97 157 65 150 64 142 14 25 44 
152 11 14 149 130 92 64 72 73 65 60 150 114 
153 11 106 38 68 5 57 96 36 56 116 132 117 
154 11 77 137 3 6 120 127 58 113 78 90 46 
155 11 51 32 24 134 99 141 132 22 56 136 86 
156 11 23 31 75 26 80 135 11 139 40 53 85 
157 11 25 97 44 142 103 48 71 93 89 151 138 
DEPOT_SECTION
   1
   -1
EOF
