NAME :  X-n176-kX-w70-c9.cctp
COMMENT : 	Adapted by Maziero, Usberti and Cavellucci from the Uchoa, Pecin, Pessoa, Poggi, Subramanian, and Vidal (2013)
TYPE :  CCTP
DIMENSION :    176
EDGE_WEIGHT_TYPE : 	EUC_2D	
CAPACITY : 	142
VERTICES_WITHIN_COVERAGE :  9
VERTICES_WITH_DEMAND : 	70
NODE_COORD_SECTION
1 0 0
2 628 103
3 291 573
4 129 447
5 973 643
6 830 868
7 398 563
8 731 423
9 201 995
10 167 174
11 13 605
12 446 262
13 229 774
14 740 231
15 21 546
16 224 615
17 605 837
18 473 759
19 758 880
20 93 900
21 580 935
22 622 494
23 513 236
24 659 797
25 606 204
26 267 688
27 28 888
28 606 754
29 841 676
30 823 611
31 1 247
32 195 486
33 644 771
34 524 45
35 581 366
36 769 471
37 78 800
38 940 790
39 867 441
40 243 453
41 410 464
42 465 161
43 417 304
44 616 944
45 609 356
46 822 489
47 738 932
48 462 718
49 847 459
50 563 619
51 792 940
52 434 318
53 1000 647
54 566 413
55 492 83
56 764 550
57 145 182
58 540 249
59 208 760
60 759 988
61 66 221
62 520 521
63 260 508
64 307 468
65 747 308
66 370 136
67 421 505
68 373 597
69 876 881
70 281 18
71 419 69
72 502 242
73 343 764
74 275 610
75 434 161
76 314 40
77 744 675
78 698 364
79 600 881
80 9 893
81 875 724
82 728 253
83 502 969
84 867 464
85 237 907
86 868 263
87 680 306
88 740 688
89 534 615
90 450 898
91 126 415
92 565 260
93 172 126
94 137 674
95 789 958
96 853 147
97 762 111
98 416 626
99 63 237
100 194 75
101 616 133
102 104 804
103 304 699
104 758 40
105 249 141
106 848 770
107 316 426
108 791 803
109 884 980
110 618 107
111 858 644
112 116 388
113 939 880
114 217 912
115 138 217
116 639 588
117 542 965
118 775 294
119 325 154
120 839 459
121 21 751
122 248 883
123 34 101
124 274 824
125 408 641
126 923 320
127 838 846
128 83 772
129 938 432
130 913 766
131 758 816
132 481 156
133 548 809
134 660 393
135 773 579
136 261 97
137 380 849
138 433 893
139 312 347
140 295 480
141 277 519
142 833 970
143 760 470
144 33 455
145 289 176
146 283 845
147 953 937
148 2 939
149 164 71
150 539 756
151 679 880
152 309 113
153 857 842
154 184 455
155 181 70
156 136 928
157 23 17
158 127 710
159 657 422
160 248 593
161 525 519
162 109 805
163 754 487
164 484 90
165 923 157
166 195 38
167 74 961
168 261 663
169 984 135
170 281 227
171 673 176
172 78 322
173 177 543
174 590 199
175 559 609
176 9 343
DEMAND_SECTION
2 94
3 65
4 69
5 89
6 74
7 95
8 87
9 96
10 56
11 94
12 79
13 91
14 75
15 54
16 97
17 93
18 81
19 100
20 75
21 56
22 71
23 100
24 54
25 100
26 62
27 51
28 58
29 79
30 65
31 52
32 65
33 65
34 59
35 77
36 89
37 66
38 71
39 10
40 10
41 1
42 9
43 4
44 9
45 8
46 4
47 8
48 7
49 9
50 10
51 6
52 2
53 6
54 9
55 5
56 3
57 4
58 5
59 6
60 6
61 6
62 1
63 8
64 9
65 6
66 5
67 8
68 5
69 9
70 2
71 3
COVERAGE_SECTION
2 9 110 101 171 25 174 34 97 55 104 
3 9 74 160 141 63 16 68 140 168 64 
4 9 91 154 112 32 144 173 40 172 63 
5 9 53 111 81 29 130 38 30 106 84 
6 9 127 153 69 19 108 51 131 95 106 
7 9 68 67 98 125 41 3 62 141 64 
8 9 143 36 78 163 159 134 46 120 65 
9 9 114 156 85 122 167 20 146 124 27 
10 9 57 93 115 105 100 149 155 61 99 
11 9 15 94 121 144 158 173 128 4 37 
12 9 43 52 72 23 58 75 42 132 92 
13 9 59 124 146 26 103 122 73 168 158 
14 9 82 118 65 171 87 97 86 25 78 
15 9 11 144 4 173 91 94 32 112 154 
16 9 160 74 168 3 26 173 94 141 63 
17 9 79 133 24 33 28 151 21 150 44 
18 9 48 150 133 137 73 28 125 138 90 
19 9 47 131 51 6 151 95 108 127 153 
20 9 156 167 27 80 162 102 148 37 114 
21 9 44 117 79 83 17 151 133 90 138 
22 9 159 116 54 161 62 134 8 175 163 
23 9 72 58 92 12 174 132 42 25 75 
24 9 33 17 28 151 131 79 133 150 19 
25 9 174 92 101 171 58 23 110 2 72 
26 9 168 103 74 16 59 13 160 73 3 
27 9 80 148 20 167 37 102 156 162 128 
28 9 33 150 24 133 17 79 18 50 151 
29 9 111 81 30 106 77 88 130 135 5 
30 9 111 135 29 56 77 88 46 81 163 
31 9 99 61 176 172 115 123 57 10 112 
32 9 154 40 173 63 4 141 91 140 64 
33 9 24 28 17 133 150 151 79 131 88 
34 9 55 164 71 110 2 132 101 42 75 
35 9 45 54 134 159 92 87 78 58 22 
36 9 143 163 46 8 120 49 56 84 39 
37 9 102 128 162 121 20 27 158 80 59 
38 9 130 113 81 106 153 69 127 6 147 
39 9 84 49 120 46 129 36 143 163 126 
40 9 32 63 140 154 64 141 107 173 4 
41 9 67 7 107 64 140 62 161 68 141 
42 9 132 75 164 55 23 72 66 12 71 
43 9 52 12 72 139 23 58 75 42 92 
44 9 21 79 117 151 17 83 47 60 133 
45 9 35 134 54 159 87 78 92 58 8 
46 9 120 49 84 36 143 39 163 56 135 
47 9 51 19 95 60 151 142 6 131 44 
48 9 18 150 125 98 133 89 73 50 175 
49 9 120 84 39 46 36 143 129 163 8 
50 9 175 89 116 62 161 22 150 48 28 
51 9 95 142 47 60 19 6 109 69 127 
52 9 43 12 72 23 139 58 92 41 35 
53 9 5 111 81 130 38 29 30 106 129 
54 9 35 45 159 134 22 161 62 78 92 
55 9 164 34 71 132 42 75 110 66 101 
56 9 135 163 36 143 46 30 120 49 77 
57 9 10 115 93 61 99 105 149 100 155 
58 9 92 23 72 174 25 12 132 42 35 
59 9 13 124 26 158 162 168 94 102 146 
60 9 95 51 47 142 19 109 151 6 44 
61 9 99 31 115 57 172 10 123 176 93 
62 9 161 89 175 67 22 50 54 41 7 
63 9 141 140 40 64 32 3 160 173 154 
64 9 140 107 141 63 40 41 3 32 67 
65 9 118 82 87 78 14 8 134 86 159 
66 9 119 152 75 71 145 42 76 132 136 
67 9 41 7 62 68 161 64 98 140 107 
68 9 7 98 125 3 74 67 103 141 160 
69 9 153 6 127 113 147 109 142 51 38 
70 9 76 136 166 152 100 155 105 149 119 
71 9 164 55 66 75 42 132 34 76 152 
72 9 23 58 12 92 42 132 174 52 43 
73 9 103 124 137 146 26 13 48 18 168 
74 9 160 3 16 168 26 141 103 68 63 
75 9 42 132 66 164 71 55 12 72 23 
76 9 70 152 136 71 66 119 166 105 100 
77 9 88 29 135 30 111 56 108 116 33 
78 9 134 87 8 159 65 45 118 82 35 
79 9 17 21 44 151 133 117 24 33 28 
80 9 27 148 20 167 37 102 156 162 128 
81 9 106 130 29 111 38 108 153 30 5 
82 9 14 65 118 87 171 78 25 86 97 
83 9 117 21 90 138 44 79 133 17 137 
84 9 49 39 120 46 129 36 143 163 56 
85 9 114 122 146 124 9 156 13 20 59 
86 9 126 118 96 165 65 14 82 169 39 
87 9 78 65 82 45 134 14 118 35 159 
88 9 77 29 30 135 108 111 33 131 24 
89 9 175 50 62 161 116 98 48 125 150 
90 9 138 137 83 117 133 21 18 79 17 
91 9 112 4 154 32 144 172 40 176 173 
92 9 58 23 72 174 25 45 35 12 87 
93 9 10 100 149 155 57 105 166 136 115 
94 9 158 16 59 128 168 26 102 162 13 
95 9 51 60 142 47 19 109 6 69 127 
96 9 165 97 86 169 14 104 82 118 171 
97 9 104 96 171 14 2 110 82 101 165 
98 9 125 68 7 48 89 67 103 3 74 
99 9 61 31 115 172 57 176 10 123 93 
100 9 155 149 166 93 136 105 10 70 57 
101 9 110 2 171 174 25 34 55 92 132 
102 9 162 37 128 20 158 121 27 59 156 
103 9 26 168 73 74 13 59 16 125 160 
104 9 97 96 2 110 171 101 14 165 82 
105 9 136 145 152 119 93 100 10 170 155 
106 9 81 130 108 153 127 29 38 6 131 
107 9 64 140 40 139 63 41 141 67 32 
108 9 131 127 106 6 153 19 69 81 88 
109 9 142 147 95 69 51 113 6 60 153 
110 9 2 101 171 174 25 34 55 164 97 
111 9 29 30 81 135 5 77 88 106 56 
112 9 91 4 172 154 144 176 32 40 99 
113 9 147 69 38 153 127 6 109 130 142 
114 9 85 122 156 9 146 124 20 13 167 
115 9 57 10 61 99 93 172 105 31 170 
116 9 50 175 22 89 56 161 135 77 62 
117 9 83 21 44 79 90 138 17 133 151 
118 9 65 82 14 87 86 78 8 126 134 
119 9 145 152 66 105 170 136 75 76 71 
120 9 49 84 39 46 36 143 163 129 8 
121 9 128 37 102 162 158 27 94 80 11 
122 9 85 114 146 124 13 9 156 59 137 
123 9 157 61 149 57 99 93 31 155 10 
124 9 146 122 13 73 85 59 114 137 103 
125 9 98 68 7 48 103 89 3 18 67 
126 9 86 129 39 118 84 49 120 165 65 
127 9 153 6 69 108 106 131 19 51 113 
128 9 37 102 162 121 158 94 59 20 27 
129 9 39 84 49 120 126 46 36 143 86 
130 9 38 81 106 153 127 29 113 69 108 
131 9 108 19 127 6 24 106 151 153 47 
132 9 42 75 164 55 23 72 71 58 12 
133 9 150 17 28 79 18 33 24 48 21 
134 9 159 78 45 8 35 87 54 22 65 
135 9 56 30 163 77 46 111 36 143 88 
136 9 105 152 100 76 70 145 155 119 166 
137 9 138 90 73 146 124 18 122 85 48 
138 9 90 137 83 117 18 133 21 73 146 
139 9 107 43 64 170 52 40 140 41 12 
140 9 64 141 63 107 40 3 32 154 41 
141 9 63 140 3 64 40 160 32 74 107 
142 9 95 51 109 60 69 6 47 19 127 
143 9 36 163 8 46 56 120 49 84 135 
144 9 15 4 91 112 176 172 11 154 32 
145 9 119 170 105 152 136 66 10 93 76 
146 9 124 122 85 13 114 137 73 59 103 
147 9 113 109 69 142 153 6 127 38 51 
148 9 80 27 167 20 156 37 102 162 128 
149 9 155 100 166 93 136 10 105 57 70 
150 9 133 18 28 48 17 33 24 50 79 
151 9 19 47 79 24 17 44 131 21 33 
152 9 119 136 66 105 145 76 70 170 71 
153 9 127 6 69 106 108 113 130 38 131 
154 9 32 4 40 91 173 63 112 141 140 
155 9 100 149 166 93 136 105 10 70 57 
156 9 20 167 114 9 85 27 122 162 102 
157 9 123 149 155 166 100 93 57 61 10 
158 9 94 128 59 102 162 37 121 13 16 
159 9 134 78 8 22 45 54 35 143 163 
160 9 74 16 3 168 141 63 173 26 32 
161 9 62 89 175 22 67 50 54 41 116 
162 9 102 37 128 20 158 121 59 27 13 
163 9 143 36 56 8 46 120 135 49 84 
164 9 55 34 132 71 42 75 66 110 101 
165 9 169 96 86 126 97 14 104 118 82 
166 9 155 100 149 70 136 93 105 76 152 
167 9 20 156 148 27 80 9 114 102 162 
168 9 26 74 103 16 160 3 59 13 94 
169 9 165 96 86 126 97 104 14 118 82 
170 9 145 119 105 152 139 10 66 136 57 
171 9 101 25 2 174 14 110 82 97 87 
172 9 176 112 99 61 91 31 115 4 144 
173 9 32 16 160 154 63 141 4 40 3 
174 9 25 92 58 101 23 171 110 72 2 
175 9 50 89 116 62 161 22 98 48 150 
176 9 172 31 144 112 99 61 91 4 115 
DEPOT_SECTION
   1
   -1
EOF
