NAME :  X-n186-kX-w18-c7.cctp
COMMENT : 	Adapted by Maziero, Usberti and Cavellucci from the Uchoa, Pecin, Pessoa, Poggi, Subramanian, and Vidal (2013)
TYPE :  CCTP
DIMENSION :    106
EDGE_WEIGHT_TYPE : 	EUC_2D	
CAPACITY : 	974
VERTICES_WITHIN_COVERAGE :  7
VERTICES_WITH_DEMAND : 	18
NODE_COORD_SECTION
1 159 917
2 635 200
3 278 907
4 875 93
5 10 732
6 586 657
7 482 75
8 526 176
9 153 622
10 452 945
11 456 137
12 884 968
13 688 793
14 117 915
15 149 746
16 495 325
17 539 967
18 917 58
19 590 316
20 611 998
21 963 878
22 685 124
23 39 781
24 534 29
25 213 837
26 180 943
27 343 949
28 537 248
29 626 147
30 56 596
31 738 977
32 941 193
33 437 386
34 521 398
35 83 719
36 933 949
37 382 130
38 61 985
39 199 892
40 930 154
41 400 95
42 41 527
43 913 885
44 102 962
45 684 899
46 138 705
47 715 745
48 461 953
49 935 38
50 74 778
51 563 171
52 341 955
53 892 938
54 659 306
55 641 347
56 598 253
57 45 585
58 654 70
59 310 854
60 878 10
61 995 987
62 697 200
63 847 208
64 577 295
65 899 185
66 123 601
67 242 769
68 66 727
69 354 338
70 725 735
71 632 849
72 411 272
73 481 165
74 492 78
75 736 937
76 61 688
77 209 571
78 631 208
79 839 54
80 236 704
81 218 618
82 526 667
83 87 981
84 976 122
85 177 712
86 449 902
87 492 63
88 761 122
89 609 621
90 614 240
91 478 599
92 239 636
93 347 199
94 619 620
95 120 871
96 140 957
97 68 736
98 661 294
99 604 737
100 91 956
101 16 561
102 852 978
103 352 957
104 409 939
105 630 902
106 487 220
DEMAND_SECTION
2 74
3 74
4 80
5 85
6 99
7 81
8 85
9 100
10 74
11 57
12 60
13 74
14 60
15 77
16 72
17 87
18 89
19 53
COVERAGE_SECTION
2 6 78 90 29 62 56 51 
3 6 59 27 52 39 103 25 
4 7 79 18 49 40 60 65 84 
5 7 68 23 97 76 35 50 46 
6 4 89 94 82 99 
7 7 74 87 11 24 41 73 8 
8 7 51 73 106 28 11 29 74 
9 7 66 81 77 46 92 85 30 
10 7 48 86 104 17 103 27 52 
11 7 73 7 74 41 37 8 87 
12 7 53 102 36 43 61 21 31 
13 5 47 70 71 99 45 
14 7 95 96 44 100 26 83 39 
15 7 46 85 35 50 97 68 67 
16 7 34 33 64 28 19 72 106 
17 7 20 48 10 86 105 104 71 
18 7 49 4 60 79 84 40 65 
19 7 64 55 56 54 98 90 28 
20 7 17 105 45 31 75 71 48 
21 5 43 36 53 61 12 
22 6 58 29 88 62 2 78 
23 7 50 97 5 68 35 76 15 
24 6 87 74 7 58 11 51 
25 6 39 67 3 59 95 15 
26 7 96 39 14 44 100 95 83 
27 6 52 103 104 3 59 10 
28 7 106 56 64 8 90 51 19 
29 6 2 78 22 51 58 62 
30 7 57 101 66 42 76 9 35 
31 7 75 45 102 20 105 12 53 
32 6 40 65 84 63 4 18 
33 4 16 34 69 72 
34 6 16 33 19 64 55 28 
35 7 68 97 76 46 50 15 5 
36 6 53 12 43 61 21 102 
37 5 41 11 93 73 7 
38 7 83 100 44 96 14 26 95 
39 7 26 25 3 95 14 96 59 
40 7 32 65 84 4 18 63 49 
41 6 37 11 7 74 87 73 
42 5 101 57 30 66 9 
43 5 21 53 36 12 102 
44 7 100 83 96 38 14 26 95 
45 7 105 75 71 31 13 20 47 
46 7 85 15 35 68 97 76 9 
47 3 70 13 99 
48 7 10 86 104 17 103 27 52 
49 7 18 60 4 84 79 40 65 
50 7 23 97 68 35 5 15 76 
51 7 8 29 78 2 28 73 90 
52 6 27 103 104 3 59 10 
53 7 12 36 43 102 21 61 75 
54 5 98 55 19 90 56 
55 5 54 98 19 64 56 
56 7 90 64 78 28 19 2 98 
57 6 30 101 42 66 76 9 
58 6 22 29 88 24 2 51 
59 4 3 25 27 52 
60 7 79 18 49 4 84 40 88 
61 6 36 12 21 53 43 102 
62 3 2 78 22 
63 4 65 32 40 4 
64 7 19 56 28 90 55 54 98 
65 6 32 40 63 4 84 18 
66 7 9 30 57 77 81 46 76 
67 5 80 25 85 15 59 
68 7 97 35 76 50 5 23 46 
69 4 72 33 93 16 
70 2 47 13 
71 4 105 45 13 99 
72 6 69 106 93 16 33 28 
73 7 11 8 106 51 74 7 28 
74 7 7 87 24 11 73 41 8 
75 7 31 45 105 102 71 20 12 
76 7 35 68 97 5 46 50 30 
77 6 81 92 9 66 80 85 
78 6 2 90 56 29 62 51 
79 6 4 60 18 49 88 40 
80 5 85 67 92 81 15 
81 7 92 77 9 80 66 85 46 
82 4 6 91 89 94 
83 7 44 100 38 96 14 26 95 
84 7 40 32 18 49 65 4 60 
85 7 46 15 80 67 9 35 92 
86 6 10 48 104 17 103 27 
87 6 74 7 24 11 41 73 
88 5 22 62 79 4 58 
89 3 94 6 82 
90 6 56 78 2 64 98 28 
91 2 82 6 
92 7 81 80 77 9 85 66 46 
93 4 37 72 41 11 
94 3 89 6 82 
95 7 14 39 96 100 44 26 25 
96 7 44 26 14 100 83 38 39 
97 7 68 35 50 76 23 5 46 
98 5 54 55 90 19 56 
99 2 6 13 
100 7 44 83 38 14 96 26 95 
101 6 57 42 30 66 76 9 
102 7 12 53 36 43 31 75 61 
103 6 52 27 104 3 10 48 
104 6 10 48 86 103 27 52 
105 7 71 45 20 17 75 13 31 
106 6 73 28 8 11 51 72 
DEPOT_SECTION
   1
   -1
EOF
