NAME :  X-n153-kX-w60-c9.cctp
COMMENT : 	Adapted by Maziero, Usberti and Cavellucci from the Uchoa, Pecin, Pessoa, Poggi, Subramanian, and Vidal (2013)
TYPE :  CCTP
DIMENSION :    153
EDGE_WEIGHT_TYPE : 	EUC_2D	
CAPACITY : 	144
VERTICES_WITHIN_COVERAGE :  9
VERTICES_WITH_DEMAND : 	60
NODE_COORD_SECTION
1 500 500
2 238 446
3 749 750
4 960 879
5 955 866
6 202 336
7 720 788
8 695 743
9 739 603
10 217 419
11 922 870
12 703 733
13 843 856
14 233 682
15 259 459
16 226 305
17 732 722
18 747 858
19 949 784
20 904 891
21 880 795
22 591 661
23 984 926
24 246 438
25 183 501
26 546 966
27 742 771
28 110 698
29 193 441
30 215 388
31 232 516
32 907 954
33 133 526
34 750 680
35 397 553
36 103 488
37 663 731
38 784 686
39 754 821
40 280 456
41 236 424
42 287 454
43 598 728
44 996 821
45 853 710
46 744 473
47 887 907
48 286 422
49 857 633
50 272 484
51 934 625
52 939 892
53 810 732
54 631 723
55 822 694
56 769 768
57 977 840
58 639 736
59 727 765
60 950 896
61 206 433
62 207 535
63 164 586
64 754 691
65 662 768
66 348 308
67 254 455
68 130 482
69 764 726
70 713 758
71 965 934
72 693 734
73 890 801
74 808 675
75 393 484
76 727 808
77 955 756
78 854 640
79 249 552
80 188 479
81 187 506
82 901 767
83 664 770
84 558 530
85 714 742
86 979 683
87 200 416
88 294 391
89 344 471
90 240 449
91 735 633
92 944 952
93 157 421
94 768 750
95 813 936
96 534 720
97 986 914
98 963 798
99 905 579
100 175 397
101 972 940
102 184 561
103 357 399
104 859 770
105 661 762
106 298 469
107 14 438
108 275 561
109 856 919
110 219 453
111 272 465
112 294 296
113 754 775
114 229 467
115 946 778
116 711 803
117 858 879
118 665 347
119 981 802
120 924 973
121 267 545
122 760 764
123 942 894
124 219 465
125 665 756
126 92 212
127 920 940
128 937 814
129 804 654
130 281 489
131 669 647
132 308 309
133 998 876
134 900 910
135 753 900
136 873 706
137 209 467
138 991 966
139 766 729
140 341 458
141 897 957
142 224 368
143 818 679
144 707 703
145 280 450
146 252 462
147 717 683
148 458 236
149 989 489
150 278 356
151 144 446
152 991 818
153 831 812
DEMAND_SECTION
2 92
3 90
4 65
5 80
6 69
7 64
8 73
9 96
10 74
11 81
12 67
13 58
14 79
15 85
16 57
17 90
18 84
19 84
20 92
21 87
22 95
23 66
24 86
25 90
26 94
27 84
28 98
29 65
30 68
31 73
32 51
33 6
34 7
35 6
36 3
37 2
38 3
39 7
40 2
41 9
42 1
43 6
44 4
45 8
46 2
47 8
48 5
49 9
50 2
51 1
52 3
53 9
54 8
55 9
56 6
57 1
58 4
59 8
60 3
61 5
COVERAGE_SECTION
2 9 90 24 67 110 146 41 114 15 124 
3 9 122 94 27 113 56 59 139 69 17 
4 9 5 60 123 52 133 11 57 97 23 
5 9 4 60 52 123 11 57 133 128 20 
6 9 16 142 30 100 150 87 10 41 93 
7 9 116 76 59 27 70 113 85 39 122 
8 9 72 12 85 70 125 37 59 105 65 
9 9 91 34 129 131 147 64 38 74 144 
10 9 87 61 41 30 29 2 110 24 90 
11 9 20 52 123 5 60 4 134 47 128 
12 9 72 8 85 70 144 17 37 59 125 
13 9 117 153 109 47 20 21 73 134 11 
14 9 63 28 108 79 102 121 62 31 81 
15 9 67 146 111 40 90 145 2 24 42 
16 9 6 142 112 150 132 30 100 88 10 
17 9 85 12 144 69 3 139 64 70 72 
18 9 39 135 76 116 7 113 27 56 59 
19 9 115 98 77 128 119 82 152 44 73 
20 9 134 47 11 52 123 60 117 127 109 
21 9 73 104 82 153 128 115 19 13 98 
22 9 43 54 131 96 58 37 125 105 144 
23 9 97 101 71 138 60 92 133 4 123 
24 9 2 90 41 67 15 146 110 114 10 
25 9 81 80 62 137 31 124 33 68 114 
26 9 135 18 65 83 116 105 76 125 43 
27 9 113 59 122 3 56 7 70 94 76 
28 9 14 63 102 33 62 79 81 25 36 
29 9 61 87 110 137 10 124 80 93 114 
30 9 142 10 87 100 41 61 6 29 24 
31 9 62 79 121 81 114 25 50 124 137 
32 9 141 127 120 92 134 47 71 109 20 
33 9 68 36 25 81 102 63 80 62 151 
34 9 64 147 38 17 69 91 144 139 74 
35 9 75 89 140 108 106 121 130 50 42 
36 9 68 33 151 25 80 81 93 29 107 
37 9 58 125 72 105 54 8 65 83 12 
38 9 74 64 34 143 129 55 69 139 53 
39 9 76 18 113 7 116 27 56 122 59 
40 9 145 42 111 15 106 67 50 146 130 
41 9 24 10 2 90 61 110 67 87 146 
42 9 40 145 106 111 15 48 67 50 130 
43 9 54 58 96 37 22 105 125 65 83 
44 9 152 119 57 98 133 128 19 5 115 
45 9 136 55 143 53 74 104 78 38 129 
46 9 9 118 91 131 129 99 84 49 78 
47 9 134 20 109 117 127 11 32 141 52 
48 9 145 42 88 40 24 111 15 67 106 
49 9 78 129 143 74 55 99 136 45 51 
50 9 130 111 15 40 106 146 42 67 145 
51 9 99 86 49 78 136 45 143 55 77 
52 9 123 60 4 11 5 20 134 71 97 
53 9 55 139 69 94 45 38 143 56 74 
54 9 58 37 43 125 105 65 83 72 8 
55 9 143 74 45 38 53 129 136 78 69 
56 9 122 113 94 3 27 139 59 69 7 
57 9 152 44 5 119 133 4 98 128 60 
58 9 54 37 125 105 65 43 83 72 8 
59 9 27 70 7 85 3 113 122 8 12 
60 9 123 52 4 5 11 97 71 23 20 
61 9 29 10 87 110 41 137 2 124 90 
62 9 31 81 102 25 79 80 121 63 137 
63 9 102 62 33 81 25 79 31 68 80 
64 9 34 38 69 17 147 139 144 74 3 
65 9 83 105 125 37 58 8 72 70 12 
66 9 132 112 150 103 88 16 48 148 142 
67 9 15 146 90 2 24 111 40 145 114 
68 9 36 151 33 25 80 81 93 29 137 
69 9 139 94 3 17 64 122 56 38 53 
70 9 59 85 8 12 7 72 27 3 17 
71 9 101 23 92 97 60 138 127 123 52 
72 9 8 12 85 37 70 144 125 17 105 
73 9 21 82 104 128 153 19 115 13 98 
74 9 143 129 55 38 64 45 53 34 78 
75 9 89 140 35 103 106 42 130 40 145 
76 9 116 7 39 27 59 113 70 18 122 
77 9 115 19 98 119 82 128 152 44 86 
78 9 49 129 143 74 55 136 45 99 51 
79 9 121 108 31 62 102 130 50 81 25 
80 9 25 137 81 124 29 110 114 61 151 
81 9 25 80 62 137 31 124 102 114 33 
82 9 21 73 104 115 19 77 128 136 98 
83 9 65 105 125 37 8 58 72 70 12 
84 9 22 131 35 75 96 9 46 43 91 
85 9 12 70 8 72 59 17 3 27 144 
86 9 51 77 115 19 136 82 98 119 99 
87 9 10 61 29 100 30 41 110 93 2 
88 9 48 150 145 42 103 40 24 41 142 
89 9 140 106 75 42 40 130 145 111 50 
90 9 2 24 67 146 15 110 114 41 124 
91 9 9 34 147 64 131 38 129 144 74 
92 9 127 71 120 101 32 141 23 138 60 
93 9 151 100 29 87 61 10 80 30 68 
94 9 122 56 3 139 69 113 27 59 17 
95 9 109 135 117 47 13 141 134 32 18 
96 9 43 22 54 58 37 105 125 65 83 
97 9 23 71 101 60 133 4 123 52 138 
98 9 119 19 115 128 152 44 77 57 5 
99 9 51 49 78 149 129 86 136 143 74 
100 9 93 87 30 10 29 61 142 151 6 
101 9 71 23 92 97 138 60 127 123 52 
102 9 63 62 81 25 33 31 79 80 121 
103 9 140 88 89 48 42 150 66 75 106 
104 9 21 82 73 153 45 53 136 55 13 
105 9 65 125 83 37 58 8 72 54 12 
106 9 42 40 111 130 145 50 15 140 67 
107 9 36 68 151 93 33 100 29 80 25 
108 9 121 79 31 130 62 50 102 106 111 
109 9 47 117 134 95 20 141 32 13 127 
110 9 124 114 137 2 90 61 29 24 10 
111 9 40 15 145 42 50 146 67 106 130 
112 9 132 66 150 16 88 6 142 30 103 
113 9 27 122 56 3 59 94 7 76 70 
114 9 124 110 137 90 2 146 67 15 24 
115 9 19 77 98 128 119 82 152 73 44 
116 9 7 76 59 27 70 39 113 83 65 
117 9 13 47 109 20 134 11 153 95 52 
118 9 46 84 148 9 91 131 75 103 66 
119 9 98 152 44 19 57 115 128 77 5 
120 9 32 92 141 127 71 101 134 138 23 
121 9 108 79 31 130 50 62 111 106 146 
122 9 56 113 94 3 27 59 139 69 7 
123 9 52 60 4 5 11 20 134 71 97 
124 9 114 137 110 90 2 146 80 29 61 
125 9 105 65 83 37 8 58 72 12 54 
126 9 16 6 100 142 30 93 112 87 150 
127 9 32 92 141 120 134 71 47 123 20 
128 9 98 19 115 119 57 73 152 5 11 
129 9 74 143 38 55 78 49 34 64 91 
130 9 50 106 111 40 42 15 145 146 67 
131 9 147 91 144 22 9 37 54 34 72 
132 9 112 66 150 16 88 103 142 6 48 
133 9 4 97 57 5 23 60 44 152 123 
134 9 47 20 127 52 32 109 123 11 141 
135 9 18 95 39 76 13 109 116 117 7 
136 9 45 55 143 104 82 53 78 74 49 
137 9 124 110 114 80 29 61 2 90 25 
138 9 101 23 71 92 97 120 127 60 32 
139 9 69 94 3 17 122 56 64 53 38 
140 9 89 106 42 75 40 103 145 48 130 
141 9 32 127 120 92 134 47 109 20 71 
142 9 30 6 10 87 150 41 100 16 61 
143 9 74 55 129 38 45 78 53 49 136 
144 9 147 12 17 72 85 8 34 64 37 
145 9 40 42 111 15 67 106 48 146 50 
146 9 67 15 90 111 2 114 24 40 50 
147 9 144 34 64 17 12 91 72 85 131 
148 9 66 132 112 103 150 88 118 16 140 
149 9 99 51 86 49 78 46 136 129 143 
150 9 88 142 132 112 48 30 16 6 41 
151 9 93 68 29 80 100 36 61 87 25 
152 9 44 119 57 98 19 128 133 5 115 
153 9 13 104 21 73 117 56 39 53 82 
DEPOT_SECTION
   1
   -1
EOF
