NAME :  X-n129-kX-w12-c9.cctp
COMMENT : 	Adapted by Maziero, Usberti and Cavellucci from the Uchoa, Pecin, Pessoa, Poggi, Subramanian, and Vidal (2013)
TYPE :  CCTP
DIMENSION :    81
EDGE_WEIGHT_TYPE : 	EUC_2D	
CAPACITY : 	39
VERTICES_WITHIN_COVERAGE :  9
VERTICES_WITH_DEMAND : 	12
NODE_COORD_SECTION
1 0 0
2 51 570
3 691 985
4 66 119
5 502 415
6 434 289
7 427 584
8 342 576
9 790 87
10 312 475
11 908 531
12 840 566
13 863 232
14 515 175
15 768 209
16 777 582
17 84 508
18 380 523
19 544 961
20 408 661
21 57 588
22 223 385
23 560 632
24 235 655
25 765 267
26 459 976
27 585 962
28 931 52
29 178 633
30 917 803
31 871 677
32 35 437
33 503 680
34 462 870
35 677 829
36 375 220
37 367 567
38 986 869
39 761 712
40 75 520
41 14 737
42 895 632
43 328 387
44 817 531
45 209 574
46 490 395
47 410 207
48 873 349
49 439 179
50 886 558
51 208 186
52 897 547
53 469 396
54 607 437
55 202 433
56 873 595
57 103 184
58 466 416
59 51 200
60 899 471
61 482 432
62 991 388
63 933 309
64 497 404
65 776 626
66 877 515
67 821 533
68 456 317
69 625 410
70 733 533
71 499 470
72 206 385
73 822 285
74 934 461
75 533 242
76 467 432
77 575 338
78 385 239
79 272 512
80 379 165
81 610 408
DEMAND_SECTION
2 9
3 8
4 8
5 4
6 4
7 3
8 6
9 10
10 8
11 8
12 3
13 2
COVERAGE_SECTION
2 7 21 40 17 32 29 45 41 
3 9 27 19 35 26 34 39 30 38 31 
4 3 57 59 51 
5 9 64 46 61 58 53 76 71 77 54 
6 9 68 78 47 36 49 75 53 46 58 
7 9 37 18 20 8 33 71 23 76 10 
8 8 37 18 7 79 10 20 24 45 
9 2 15 28 
10 9 79 18 43 8 37 55 22 72 45 
11 9 52 50 66 60 56 74 12 67 44 
12 9 67 44 56 50 52 66 16 11 42 
13 6 73 15 25 63 48 9 
14 5 75 49 47 80 6 
15 4 25 73 13 9 
16 9 65 12 44 67 70 56 50 66 52 
17 8 40 2 21 32 55 45 29 72 
18 9 37 8 7 10 79 76 71 58 61 
19 8 27 26 34 3 35 33 20 23 
20 7 7 33 37 8 18 23 24 
21 7 2 40 17 29 32 45 41 
22 5 72 55 43 10 79 
23 8 33 7 20 71 70 54 37 18 
24 3 29 45 8 
25 4 15 73 13 48 
26 6 19 34 27 3 35 33 
27 8 19 3 26 34 35 33 39 23 
28 6 9 13 15 63 73 25 
29 4 24 45 21 2 
30 9 38 31 42 39 56 65 35 50 12 
31 9 42 56 65 12 39 50 52 16 30 
32 4 17 40 2 21 
33 9 23 20 7 37 8 34 18 71 35 
34 7 26 19 27 33 20 35 3 
35 9 39 3 27 19 34 65 23 33 30 
36 6 78 47 80 49 6 68 
37 9 8 18 7 20 10 79 45 24 71 
38 9 30 31 42 39 56 35 3 65 50 
39 9 65 31 16 35 42 56 12 30 70 
40 7 17 2 21 32 45 29 55 
41 3 21 2 29 
42 9 56 31 50 52 12 11 66 65 67 
43 6 10 22 72 55 79 53 
44 9 67 12 66 16 50 52 70 56 11 
45 7 29 24 79 8 17 55 10 
46 9 64 53 5 58 61 76 71 68 77 
47 7 36 49 78 80 6 14 68 
48 4 63 73 13 62 
49 7 47 80 14 36 78 6 75 
50 9 52 11 56 66 12 67 44 42 60 
51 2 57 4 
52 9 50 11 66 56 12 60 67 44 42 
53 9 58 46 64 76 5 61 68 71 6 
54 7 81 69 77 5 71 64 46 
55 7 72 22 79 10 43 17 45 
56 9 50 42 12 52 11 66 67 31 44 
57 3 59 4 51 
58 9 76 53 61 46 64 5 71 68 6 
59 2 57 4 
60 8 74 66 11 52 50 67 44 12 
61 9 76 58 5 64 46 53 71 68 54 
62 7 74 63 48 60 11 66 52 
63 6 48 62 13 73 74 60 
64 9 46 5 53 61 58 76 71 68 77 
65 9 16 39 12 56 70 44 67 31 42 
66 9 11 52 50 60 67 44 12 74 56 
67 9 44 12 66 16 50 52 56 11 70 
68 8 6 53 46 64 58 78 75 5 
69 5 81 54 77 5 64 
70 5 16 44 67 65 12 
71 9 61 76 5 58 64 46 53 54 81 
72 5 22 55 43 10 79 
73 5 25 13 48 15 63 
74 8 60 11 66 62 52 50 48 67 
75 5 14 77 68 6 49 
76 9 61 58 53 5 64 46 71 68 18 
77 7 81 69 46 64 54 75 5 
78 6 36 47 6 80 49 68 
79 9 10 45 8 55 18 37 22 43 72 
80 6 47 36 49 78 6 14 
81 6 69 54 77 5 64 46 
DEPOT_SECTION
   1
   -1
EOF
