NAME :  X-n115-kX-w22-c9.cctp
COMMENT : 	Adapted by Maziero, Usberti and Cavellucci from the Uchoa, Pecin, Pessoa, Poggi, Subramanian, and Vidal (2013)
TYPE :  CCTP
DIMENSION :    100
EDGE_WEIGHT_TYPE : 	EUC_2D	
CAPACITY : 	169
VERTICES_WITHIN_COVERAGE :  9
VERTICES_WITH_DEMAND : 	22
NODE_COORD_SECTION
1 500 500
2 865 693
3 633 220
4 173 361
5 89 714
6 350 102
7 301 24
8 834 663
9 841 997
10 394 790
11 276 488
12 779 312
13 939 66
14 595 462
15 940 964
16 459 459
17 432 280
18 379 338
19 128 439
20 401 22
21 69 887
22 499 657
23 633 46
24 713 182
25 540 169
26 298 725
27 410 644
28 512 889
29 756 352
30 405 407
31 850 365
32 90 553
33 691 383
34 926 631
35 998 736
36 921 854
37 532 257
38 238 513
39 976 912
40 565 912
41 893 74
42 590 548
43 99 355
44 294 39
45 58 429
46 471 573
47 520 109
48 486 611
49 409 682
50 296 843
51 717 390
52 152 711
53 934 255
54 257 539
55 270 31
56 823 409
57 203 849
58 770 627
59 630 581
60 786 186
61 380 300
62 973 847
63 985 975
64 690 428
65 910 568
66 181 186
67 814 694
68 702 927
69 385 696
70 48 323
71 813 293
72 490 676
73 729 923
74 719 883
75 167 14
76 98 159
77 476 709
78 402 339
79 911 734
80 590 230
81 122 698
82 154 418
83 165 998
84 217 599
85 766 21
86 831 607
87 70 494
88 220 740
89 19 855
90 818 409
91 503 304
92 254 282
93 205 607
94 331 57
95 118 404
96 576 658
97 558 611
98 629 732
99 893 182
100 435 1000
DEMAND_SECTION
2 86
3 98
4 89
5 91
6 74
7 87
8 65
9 62
10 60
11 99
12 96
13 79
14 6
15 10
16 3
17 8
18 8
19 10
20 1
21 9
22 6
23 4
COVERAGE_SECTION
2 8 8 67 79 34 86 58 65 35 
3 9 80 24 25 37 91 60 47 12 33 
4 9 82 95 43 19 92 70 45 11 38 
5 9 81 52 88 89 93 32 84 21 57 
6 9 94 44 7 20 55 47 66 17 61 
7 9 44 55 94 6 20 75 66 47 76 
8 7 67 2 86 58 34 79 65 
9 9 15 73 63 68 39 36 74 62 79 
10 9 69 49 50 77 26 27 72 28 22 
11 9 38 54 84 93 82 30 19 4 95 
12 9 71 29 31 51 90 56 33 60 24 
13 7 41 99 85 53 60 24 71 
14 6 42 64 33 59 16 51 
15 9 63 39 9 36 62 73 79 35 74 
16 9 30 46 78 14 18 48 42 91 61 
17 9 61 78 91 18 37 30 25 80 92 
18 9 78 61 30 17 91 92 16 37 11 
19 9 82 95 45 87 43 4 32 38 70 
20 9 94 6 7 44 55 47 25 23 75 
21 9 89 57 83 5 52 81 88 50 26 
22 9 72 48 77 97 96 46 27 49 69 
23 9 47 85 25 24 3 80 60 20 37 
24 9 60 3 80 12 71 23 85 25 29 
25 9 47 80 37 3 91 23 17 24 6 
26 9 88 69 10 50 49 27 52 84 93 
27 9 49 69 48 72 22 77 46 26 10 
28 7 40 100 10 77 68 98 74 
29 8 12 51 33 71 90 56 31 64 
30 9 78 18 16 61 17 91 11 46 92 
31 6 56 90 71 12 29 51 
32 9 87 19 93 45 84 81 82 95 38 
33 7 51 64 29 12 14 90 56 
34 8 65 2 8 86 79 35 67 58 
35 9 79 62 34 2 36 39 8 67 65 
36 9 62 39 15 79 63 35 9 2 67 
37 9 91 80 25 17 3 47 78 61 18 
38 9 54 11 84 93 82 19 32 95 4 
39 9 15 63 62 36 9 35 79 2 73 
40 7 28 68 74 100 73 98 10 
41 8 13 99 85 60 53 24 71 23 
42 6 59 97 14 96 46 48 
43 9 95 70 4 82 45 19 87 92 66 
44 9 7 55 94 6 20 75 66 76 47 
45 9 95 87 19 43 82 70 32 4 38 
46 9 48 22 27 97 72 16 42 49 96 
47 9 25 23 80 20 37 3 6 17 91 
48 9 46 22 72 97 27 77 96 49 42 
49 9 69 27 77 72 22 48 10 26 46 
50 9 57 10 26 88 69 52 49 83 100 
51 7 33 64 29 12 90 56 31 
52 9 81 5 88 93 84 26 57 32 21 
53 5 99 71 31 60 12 
54 9 38 11 84 93 82 19 32 27 26 
55 9 44 7 94 75 6 20 66 76 92 
56 6 90 31 29 12 51 71 
57 9 50 88 21 52 83 26 81 5 89 
58 4 86 8 67 2 
59 5 42 97 96 14 48 
60 9 24 99 71 12 41 3 53 85 29 
61 9 18 78 17 30 91 92 37 16 6 
62 9 36 39 35 15 63 79 2 9 34 
63 9 15 39 62 36 9 35 79 73 74 
64 5 33 51 14 29 90 
65 5 34 86 8 2 58 
66 9 76 92 75 4 55 44 43 6 70 
67 7 8 2 58 86 79 34 65 
68 7 73 74 40 9 28 98 36 
69 9 49 27 26 77 10 72 22 48 46 
70 9 43 45 95 4 19 82 76 87 66 
71 9 12 31 29 60 56 90 53 51 99 
72 9 22 77 48 49 27 96 97 46 69 
73 7 68 74 9 40 36 15 98 
74 7 73 68 40 9 98 36 28 
75 9 55 44 7 76 94 66 6 20 92 
76 9 66 75 70 43 92 55 4 44 7 
77 9 72 22 49 69 27 48 96 10 97 
78 9 18 61 17 30 91 16 37 92 11 
79 9 2 35 34 8 67 36 62 86 65 
80 9 3 37 25 91 24 47 17 33 23 
81 9 52 5 88 93 84 32 57 26 89 
82 9 19 95 4 43 45 87 38 11 70 
83 9 21 57 50 89 88 100 52 5 81 
84 9 93 54 38 11 52 32 81 88 26 
85 9 23 41 60 24 13 99 3 47 25 
86 6 8 58 65 67 2 34 
87 9 32 45 19 95 82 43 4 38 70 
88 9 52 26 81 57 50 5 93 84 69 
89 9 21 5 57 81 52 83 88 50 26 
90 6 56 31 29 51 12 71 
91 9 37 17 78 80 61 18 25 30 3 
92 9 4 66 61 18 78 82 43 17 95 
93 9 84 54 38 52 81 32 88 11 26 
94 9 44 7 6 55 20 75 47 66 25 
95 9 19 82 43 45 4 87 70 32 38 
96 8 97 22 72 98 59 48 42 77 
97 8 96 42 48 22 59 72 46 77 
98 6 96 97 22 72 59 77 
99 7 53 60 41 13 71 12 24 
100 7 28 40 50 10 83 57 68 
DEPOT_SECTION
   1
   -1
EOF
