NAME :  X-n172-kX-w17-c11.cctp
COMMENT : 	Adapted by Maziero, Usberti and Cavellucci from the Uchoa, Pecin, Pessoa, Poggi, Subramanian, and Vidal (2013)
TYPE :  CCTP
DIMENSION :    89
EDGE_WEIGHT_TYPE : 	EUC_2D	
CAPACITY : 	161
VERTICES_WITHIN_COVERAGE :  11
VERTICES_WITH_DEMAND : 	17
NODE_COORD_SECTION
1 500 500
2 363 697
3 120 259
4 555 718
5 522 918
6 239 935
7 304 517
8 856 96
9 38 904
10 174 951
11 294 935
12 942 324
13 402 176
14 766 450
15 473 862
16 262 550
17 661 92
18 440 655
19 678 291
20 345 691
21 564 903
22 698 352
23 297 930
24 66 244
25 302 212
26 143 946
27 108 600
28 697 32
29 473 995
30 342 252
31 81 468
32 244 385
33 437 42
34 381 583
35 263 549
36 153 646
37 27 70
38 649 477
39 105 251
40 986 452
41 486 773
42 679 851
43 619 809
44 139 138
45 107 489
46 681 336
47 260 655
48 46 832
49 117 590
50 667 428
51 871 548
52 181 252
53 211 597
54 82 390
55 114 189
56 659 852
57 169 845
58 124 861
59 289 778
60 464 148
61 377 32
62 802 86
63 89 157
64 391 594
65 904 106
66 649 92
67 134 331
68 389 254
69 796 197
70 304 381
71 198 245
72 207 258
73 881 145
74 849 115
75 160 154
76 890 105
77 368 725
78 819 266
79 324 181
80 500 580
81 435 652
82 355 700
83 354 552
84 472 663
85 494 573
86 862 251
87 554 709
88 602 591
89 405 594
DEMAND_SECTION
2 30
3 82
4 70
5 92
6 25
7 23
8 11
9 41
10 15
11 5
12 17
13 70
14 36
15 47
16 24
17 11
18 6
COVERAGE_SECTION
2 11 82 20 77 81 18 64 59 47 89 84 34 
3 10 39 24 52 55 67 71 72 63 75 44 
4 10 87 41 84 43 18 88 81 80 85 15 
5 11 21 15 29 43 41 56 42 4 87 23 11 
6 9 11 23 10 26 57 58 59 9 48 
7 6 35 16 83 34 64 53 
8 5 74 76 65 62 73 
9 6 48 58 26 10 57 6 
10 9 26 6 58 57 11 23 9 48 59 
11 10 23 6 10 26 57 59 58 29 15 77 
12 3 86 40 78 
13 7 60 79 68 30 25 33 61 
14 7 50 22 38 46 51 19 78 
15 11 5 41 21 29 43 4 77 87 56 23 11 
16 10 35 7 53 83 47 34 64 36 49 89 
17 11 66 28 62 69 74 8 19 60 73 76 33 
18 10 81 84 89 64 2 34 80 82 85 77 
19 8 46 22 50 78 69 14 38 86 
20 11 82 2 77 47 81 18 59 64 34 89 84 
21 10 5 15 56 43 42 29 41 4 87 84 
22 7 46 19 50 14 38 78 69 
23 10 11 6 10 59 57 26 58 29 15 77 
24 11 39 3 55 63 67 52 44 75 71 72 54 
25 4 79 30 68 13 
26 8 10 58 6 57 9 48 11 23 
27 6 49 36 53 45 31 16 
28 9 17 66 62 8 74 69 76 73 65 
29 11 5 21 15 23 11 41 56 43 6 42 59 
30 4 68 25 79 13 
31 9 45 54 49 27 67 32 53 36 16 
32 6 70 67 72 7 52 71 
33 8 61 60 13 79 25 68 66 17 
34 6 64 89 83 81 18 7 
35 10 16 7 53 83 47 34 64 36 89 49 
36 6 27 49 53 47 16 35 
37 7 63 44 55 75 24 39 3 
38 4 50 14 88 22 
39 10 3 24 55 52 67 71 63 72 75 44 
40 3 12 51 14 
41 11 4 15 87 84 18 77 81 43 2 5 82 
42 8 56 43 21 5 4 87 15 41 
43 10 56 42 21 4 87 41 5 15 84 88 
44 7 75 63 55 39 52 3 71 
45 10 31 49 54 27 53 67 36 16 35 32 
46 7 22 19 50 14 38 78 69 
47 9 53 20 16 82 35 36 2 59 77 
48 5 9 58 57 26 10 
49 7 27 36 53 45 31 16 35 
50 5 38 22 46 14 19 
51 2 14 40 
52 6 71 72 3 39 55 67 
53 8 16 35 36 47 49 27 7 45 
54 10 31 67 45 3 39 24 32 52 72 71 
55 9 63 44 75 39 3 24 52 71 72 
56 9 42 43 21 5 4 87 15 41 29 
57 7 58 26 10 6 48 59 9 
58 6 57 48 26 9 10 6 
59 8 77 82 20 2 47 57 23 11 
60 9 13 33 68 79 61 30 25 66 17 
61 5 33 60 13 79 25 
62 7 8 74 76 73 65 69 28 
63 9 55 44 75 24 39 3 37 52 71 
64 5 89 34 83 81 18 
65 4 76 73 8 74 
66 11 17 28 62 69 60 19 74 8 33 73 76 
67 8 3 54 39 52 72 71 24 32 
68 5 30 13 25 79 60 
69 8 78 86 74 73 62 8 76 65 
70 4 32 30 7 68 
71 4 72 52 3 39 
72 4 71 52 3 39 
73 4 76 74 65 8 
74 5 8 76 73 62 65 
75 7 44 55 63 71 52 3 39 
76 4 65 8 73 74 
77 11 2 82 20 59 81 18 84 41 47 64 89 
78 6 86 69 12 73 19 22 
79 4 25 30 13 68 
80 5 85 84 18 89 81 
81 10 18 84 89 64 2 34 82 80 20 77 
82 11 2 20 77 81 18 59 47 64 89 34 84 
83 6 34 64 7 89 35 16 
84 10 18 81 80 85 87 89 4 64 41 2 
85 4 80 89 84 18 
86 4 78 69 12 73 
87 9 4 41 84 43 18 88 81 80 85 
88 5 80 85 38 87 4 
89 7 64 34 81 83 18 85 80 
DEPOT_SECTION
   1
   -1
EOF
