NAME :  X-n167-kX-w33-c9.cctp
COMMENT : 	Adapted by Maziero, Usberti and Cavellucci from the Uchoa, Pecin, Pessoa, Poggi, Subramanian, and Vidal (2013)
TYPE :  CCTP
DIMENSION :    147
EDGE_WEIGHT_TYPE : 	EUC_2D	
CAPACITY : 	133
VERTICES_WITHIN_COVERAGE :  9
VERTICES_WITH_DEMAND : 	33
NODE_COORD_SECTION
1 0 0
2 832 885
3 777 632
4 406 257
5 620 467
6 58 70
7 116 423
8 104 445
9 714 722
10 188 503
11 856 594
12 932 448
13 749 982
14 818 889
15 377 493
16 337 419
17 772 605
18 373 448
19 519 112
20 849 274
21 533 839
22 610 417
23 69 583
24 573 195
25 988 324
26 110 550
27 271 676
28 694 130
29 791 590
30 785 614
31 321 305
32 974 292
33 804 556
34 372 893
35 252 660
36 588 34
37 939 685
38 948 479
39 912 227
40 380 807
41 309 141
42 558 759
43 241 225
44 269 351
45 156 776
46 251 512
47 608 874
48 853 269
49 897 572
50 316 461
51 825 529
52 474 152
53 510 453
54 778 928
55 804 492
56 630 294
57 254 539
58 167 28
59 646 879
60 508 759
61 64 165
62 249 525
63 49 605
64 990 375
65 539 272
66 833 561
67 84 571
68 378 847
69 713 485
70 489 204
71 815 905
72 307 774
73 286 204
74 517 61
75 864 397
76 35 597
77 918 632
78 395 570
79 87 97
80 893 805
81 82 392
82 471 899
83 567 895
84 349 360
85 138 560
86 459 962
87 795 461
88 398 467
89 92 22
90 853 188
91 643 80
92 801 227
93 127 74
94 727 975
95 552 48
96 311 959
97 647 876
98 742 168
99 755 589
100 741 8
101 975 954
102 820 502
103 552 300
104 802 744
105 585 600
106 573 793
107 159 669
108 248 369
109 868 476
110 275 194
111 930 933
112 233 587
113 198 35
114 184 822
115 312 573
116 694 813
117 446 264
118 586 483
119 648 274
120 967 362
121 194 330
122 846 717
123 32 487
124 358 728
125 608 182
126 250 367
127 989 392
128 820 307
129 473 274
130 408 84
131 762 800
132 917 560
133 586 830
134 606 445
135 551 528
136 605 583
137 627 249
138 427 571
139 168 479
140 679 371
141 354 415
142 638 444
143 535 918
144 243 535
145 796 796
146 272 699
147 421 935
DEMAND_SECTION
2 6
3 9
4 7
5 5
6 9
7 5
8 9
9 7
10 10
11 8
12 6
13 5
14 9
15 8
16 9
17 10
18 5
19 7
20 8
21 5
22 9
23 9
24 7
25 5
26 7
27 8
28 5
29 10
30 9
31 9
32 9
33 9
34 7
COVERAGE_SECTION
2 9 14 71 54 145 80 111 131 13 94 
3 9 30 17 29 99 33 11 66 122 9 
4 9 117 129 31 70 84 52 73 65 110 
5 9 134 142 118 22 135 69 53 140 136 
6 8 79 89 93 61 58 113 43 110 
7 9 8 81 139 123 10 121 26 85 108 
8 9 7 81 139 123 10 26 85 67 23 
9 9 104 131 116 3 145 30 17 122 99 
10 9 139 46 144 62 57 85 26 112 8 
11 9 66 49 33 29 132 51 77 30 17 
12 9 38 109 127 75 64 120 132 102 49 
13 9 94 54 71 14 2 59 97 47 116 
14 9 2 71 54 145 131 80 13 111 94 
15 9 88 18 50 78 141 16 138 115 46 
16 9 141 18 50 84 88 15 44 126 108 
17 9 30 99 29 3 33 66 11 51 102 
18 9 88 141 15 16 50 84 78 138 53 
19 9 74 52 95 70 24 36 125 130 91 
20 9 48 128 92 39 90 75 32 120 25 
21 9 133 106 83 143 47 42 60 82 59 
22 9 134 142 5 118 140 53 69 56 135 
23 9 67 63 76 26 85 123 107 8 10 
24 9 125 137 65 70 19 103 52 119 56 
25 9 32 120 64 127 39 12 75 48 20 
26 9 85 67 23 63 76 10 139 123 8 
27 9 146 35 112 124 72 115 107 57 144 
28 9 98 91 125 100 24 137 36 92 119 
29 9 17 30 33 99 3 66 11 51 102 
30 9 17 3 29 99 33 66 11 51 102 
31 9 84 44 126 108 4 73 43 16 141 
32 9 25 120 64 39 127 48 20 75 128 
33 9 66 51 29 102 17 99 30 11 55 
34 9 68 147 40 96 82 86 72 143 124 
35 9 27 146 112 107 115 57 144 124 72 
36 9 95 91 74 19 28 125 100 24 52 
37 9 77 122 49 11 132 80 104 66 3 
38 9 12 109 132 127 49 64 75 120 102 
39 7 90 48 20 32 92 128 25 
40 9 68 72 124 34 82 147 60 146 21 
41 7 110 73 43 130 4 113 31 
42 8 106 60 133 21 47 83 116 97 
43 8 110 73 41 31 121 44 126 108 
44 9 126 108 31 121 84 16 141 50 43 
45 6 114 107 146 35 72 27 
46 9 62 144 57 10 112 50 115 139 85 
47 9 59 97 83 133 21 143 106 116 42 
48 9 20 128 92 39 90 32 75 25 120 
49 9 132 11 77 66 51 33 109 102 38 
50 9 16 18 141 15 88 46 62 57 144 
51 9 102 66 33 55 109 29 11 87 49 
52 9 70 19 130 74 24 117 129 4 95 
53 8 118 135 134 22 5 88 142 18 
54 9 71 14 13 2 94 131 145 59 97 
55 9 102 87 51 33 109 66 69 29 99 
56 9 119 137 103 140 65 24 125 22 142 
57 9 144 62 46 112 115 10 50 139 85 
58 7 113 93 89 79 6 61 41 
59 9 97 47 133 83 116 106 143 21 94 
60 8 42 106 21 133 40 82 83 47 
61 8 79 6 93 89 58 43 113 121 
62 9 144 46 57 112 10 115 50 139 85 
63 9 76 23 67 26 85 123 107 8 10 
64 9 127 120 25 32 12 38 75 109 39 
65 9 103 129 24 70 137 117 56 119 125 
66 9 33 51 11 29 102 49 30 17 55 
67 9 23 26 63 76 85 123 107 10 139 
68 9 40 34 147 72 82 124 96 86 21 
69 9 87 142 55 5 102 99 134 33 140 
70 9 52 129 117 24 65 19 4 103 125 
71 9 14 2 54 13 145 94 111 131 80 
72 9 124 40 146 68 27 35 114 34 45 
73 7 110 43 41 31 4 44 121 
74 9 95 19 36 52 130 91 24 70 125 
75 9 109 12 87 128 120 55 102 38 20 
76 9 63 23 67 26 85 123 107 8 139 
77 9 37 49 132 11 66 122 29 30 33 
78 6 138 15 115 88 18 50 
79 8 6 93 61 89 58 113 43 110 
80 9 145 122 2 104 14 71 37 131 111 
81 9 7 8 123 139 121 10 26 108 126 
82 9 147 86 143 21 83 34 68 40 133 
83 9 143 47 21 133 59 97 82 106 86 
84 9 141 16 31 44 18 126 108 50 4 
85 9 26 67 23 10 139 112 63 144 76 
86 9 147 82 143 34 83 68 21 96 47 
87 9 55 102 51 109 69 75 33 66 29 
88 9 18 15 141 16 50 78 138 53 84 
89 7 6 93 58 79 113 61 41 
90 6 92 39 48 20 98 128 
91 9 28 36 95 125 100 74 19 98 24 
92 9 90 20 48 128 98 39 28 119 137 
93 8 79 58 89 6 113 61 43 110 
94 9 13 54 71 14 59 97 2 47 116 
95 9 74 36 19 91 52 125 24 130 28 
96 9 34 147 68 86 40 82 72 114 143 
97 9 59 47 133 116 83 106 21 143 94 
98 9 28 92 90 91 125 137 119 48 20 
99 9 17 29 30 3 33 66 51 11 55 
100 5 91 28 36 98 95 
101 9 111 2 71 14 80 54 13 145 94 
102 9 55 51 87 109 33 66 29 11 49 
103 9 65 56 129 137 119 24 117 70 22 
104 9 122 145 131 9 80 3 116 30 17 
105 4 136 135 118 5 
106 9 42 133 21 60 47 83 97 59 116 
107 9 35 45 112 85 27 146 67 23 63 
108 9 126 44 121 31 84 16 50 141 139 
109 9 102 55 51 12 87 75 38 66 132 
110 7 73 43 41 31 4 44 121 
111 9 101 2 71 14 80 54 13 145 94 
112 9 57 144 62 35 46 115 10 27 85 
113 7 58 93 89 79 6 41 110 
114 6 45 72 146 107 27 35 
115 9 57 62 144 112 78 46 15 35 27 
116 9 131 97 59 9 145 47 133 106 104 
117 9 129 4 70 65 103 52 31 84 24 
118 8 5 134 135 142 22 53 136 105 
119 9 56 137 103 125 140 24 65 98 22 
120 9 64 127 25 32 12 75 38 39 20 
121 9 108 126 44 43 7 81 31 8 139 
122 9 104 145 37 80 3 77 131 30 11 
123 9 8 67 26 23 7 81 76 63 85 
124 8 72 40 146 27 68 35 60 78 
125 9 24 137 28 119 91 19 65 56 70 
126 9 108 44 121 31 84 16 50 141 139 
127 9 64 120 25 12 38 32 75 109 39 
128 9 20 48 92 75 39 90 32 140 87 
129 9 117 65 4 70 103 52 24 84 31 
130 8 52 74 19 41 70 95 73 4 
131 9 145 104 116 9 14 2 71 122 54 
132 9 49 11 77 66 38 51 109 12 33 
133 9 106 47 21 83 42 97 59 143 60 
134 8 5 22 142 118 53 135 140 69 
135 5 118 136 105 53 5 
136 5 105 135 118 5 134 
137 9 119 56 125 24 65 103 140 28 98 
138 5 78 15 88 115 135 
139 9 10 8 7 85 46 26 62 144 57 
140 9 22 142 56 119 134 5 69 137 103 
141 9 16 18 84 50 88 15 44 31 126 
142 9 5 134 22 118 140 69 135 53 136 
143 9 83 82 21 47 86 133 147 59 97 
144 9 57 62 46 112 10 115 139 50 85 
145 9 131 104 122 2 14 80 116 9 71 
146 9 27 35 72 124 107 112 115 45 114 
147 9 86 82 34 68 96 143 40 21 83 
DEPOT_SECTION
   1
   -1
EOF
