NAME :  X-n176-kX-w35-c11.cctp
COMMENT : 	Adapted by Maziero, Usberti and Cavellucci from the Uchoa, Pecin, Pessoa, Poggi, Subramanian, and Vidal (2013)
TYPE :  CCTP
DIMENSION :    169
EDGE_WEIGHT_TYPE : 	EUC_2D	
CAPACITY : 	142
VERTICES_WITHIN_COVERAGE :  11
VERTICES_WITH_DEMAND : 	35
NODE_COORD_SECTION
1 0 0
2 628 103
3 291 573
4 129 447
5 973 643
6 830 868
7 398 563
8 731 423
9 201 995
10 167 174
11 13 605
12 446 262
13 229 774
14 740 231
15 21 546
16 224 615
17 605 837
18 473 759
19 758 880
20 93 900
21 580 935
22 622 494
23 513 236
24 659 797
25 606 204
26 267 688
27 28 888
28 606 754
29 841 676
30 823 611
31 1 247
32 195 486
33 644 771
34 524 45
35 581 366
36 769 471
37 78 800
38 940 790
39 867 441
40 243 453
41 410 464
42 465 161
43 417 304
44 616 944
45 609 356
46 822 489
47 738 932
48 462 718
49 847 459
50 563 619
51 792 940
52 434 318
53 1000 647
54 566 413
55 492 83
56 764 550
57 145 182
58 540 249
59 208 760
60 759 988
61 66 221
62 520 521
63 260 508
64 307 468
65 747 308
66 421 505
67 373 597
68 876 881
69 419 69
70 502 242
71 343 764
72 275 610
73 434 161
74 744 675
75 698 364
76 600 881
77 9 893
78 875 724
79 728 253
80 502 969
81 867 464
82 237 907
83 868 263
84 680 306
85 740 688
86 534 615
87 450 898
88 126 415
89 565 260
90 172 126
91 137 674
92 789 958
93 853 147
94 762 111
95 416 626
96 63 237
97 194 75
98 616 133
99 104 804
100 304 699
101 758 40
102 249 141
103 848 770
104 316 426
105 791 803
106 884 980
107 618 107
108 858 644
109 116 388
110 939 880
111 217 912
112 138 217
113 639 588
114 542 965
115 775 294
116 839 459
117 21 751
118 248 883
119 34 101
120 274 824
121 408 641
122 838 846
123 83 772
124 938 432
125 913 766
126 758 816
127 481 156
128 548 809
129 660 393
130 773 579
131 380 849
132 433 893
133 312 347
134 295 480
135 277 519
136 833 970
137 760 470
138 33 455
139 289 176
140 283 845
141 953 937
142 2 939
143 164 71
144 539 756
145 679 880
146 857 842
147 184 455
148 181 70
149 136 928
150 23 17
151 127 710
152 657 422
153 248 593
154 525 519
155 109 805
156 754 487
157 484 90
158 923 157
159 195 38
160 74 961
161 261 663
162 984 135
163 281 227
164 673 176
165 78 322
166 177 543
167 590 199
168 559 609
169 9 343
DEMAND_SECTION
2 94
3 65
4 69
5 89
6 74
7 95
8 87
9 96
10 56
11 94
12 79
13 91
14 75
15 54
16 97
17 93
18 81
19 100
20 75
21 56
22 71
23 100
24 54
25 100
26 62
27 51
28 58
29 79
30 65
31 52
32 65
33 65
34 59
35 77
36 89
COVERAGE_SECTION
2 11 107 98 164 25 167 34 94 55 101 157 127 
3 11 72 153 135 63 16 67 134 161 64 7 26 
4 11 88 147 109 32 138 166 40 165 63 15 169 
5 11 53 108 78 29 125 38 30 103 81 130 124 
6 11 122 146 68 19 105 51 126 92 103 136 110 
7 11 67 66 95 121 41 3 62 135 64 72 134 
8 11 137 36 75 156 152 129 46 116 65 49 84 
9 11 111 149 82 118 160 20 140 120 27 142 155 
10 10 57 90 112 102 97 143 148 61 96 139 
11 11 15 91 117 138 151 166 123 4 37 16 32 
12 10 43 52 70 23 58 73 42 127 89 167 
13 11 59 120 140 26 100 118 71 161 151 155 99 
14 11 79 115 65 164 84 94 83 25 75 93 167 
15 11 11 138 4 166 88 91 32 109 147 151 169 
16 11 153 72 161 3 26 166 91 135 63 100 32 
17 11 76 128 24 33 28 145 21 144 44 114 18 
18 11 48 144 128 131 71 28 121 132 87 95 17 
19 11 47 126 51 6 145 92 105 122 146 60 136 
20 11 149 160 27 77 155 99 142 37 111 123 9 
21 11 44 114 76 80 17 145 128 87 132 47 24 
22 11 152 113 54 154 62 129 8 168 156 35 50 
23 11 70 58 89 12 167 127 42 25 73 52 43 
24 11 33 17 28 145 126 76 128 144 19 105 85 
25 11 167 89 98 164 58 23 107 2 70 84 79 
26 11 161 100 72 16 59 13 153 71 3 91 120 
27 11 77 142 20 160 37 99 149 155 123 117 111 
28 11 33 144 24 128 17 76 18 50 145 48 85 
29 11 108 78 30 103 74 85 125 130 5 105 56 
30 11 108 130 29 56 74 85 46 78 156 36 5 
31 11 96 61 169 165 112 119 57 10 109 88 90 
32 11 147 40 166 63 4 135 88 134 64 153 109 
33 11 24 28 17 128 144 145 76 126 85 74 105 
34 11 55 157 69 107 2 127 98 42 73 167 25 
35 11 45 54 129 152 89 84 75 58 22 23 70 
36 11 137 156 46 8 116 49 56 81 39 130 152 
37 11 99 123 155 117 20 27 151 77 59 91 149 
38 11 125 110 78 103 146 68 122 6 141 105 5 
39 10 81 49 116 46 124 36 137 156 8 56 
40 11 32 63 134 147 64 135 104 166 4 88 133 
41 11 66 7 104 64 134 62 154 67 135 52 133 
42 10 127 73 157 55 23 70 12 69 58 34 
43 11 52 12 70 133 23 58 73 42 89 163 104 
44 11 21 76 114 145 17 80 47 60 128 24 19 
45 11 35 129 54 152 84 75 89 58 8 22 65 
46 11 116 49 81 36 137 39 156 56 130 8 30 
47 11 51 19 92 60 145 136 6 126 44 122 105 
48 11 18 144 121 95 128 86 71 50 168 28 67 
49 11 116 81 39 46 36 137 124 156 8 56 130 
50 11 168 86 113 62 154 22 144 48 28 95 121 
51 11 92 136 47 60 19 6 106 68 122 146 145 
52 11 43 12 70 23 133 58 89 41 35 73 42 
53 11 5 108 78 125 38 29 30 103 124 81 130 
54 11 35 45 152 129 22 154 62 75 89 84 52 
55 10 157 34 69 127 42 73 107 98 2 167 
56 11 130 156 36 137 46 30 116 49 74 8 113 
57 11 10 112 90 61 96 102 143 97 148 119 163 
58 11 89 23 70 167 25 12 127 42 35 52 45 
59 11 13 120 26 151 155 161 91 99 140 100 123 
60 11 92 51 47 136 19 106 145 6 44 68 122 
61 11 96 31 112 57 165 10 119 169 90 109 143 
62 11 154 86 168 66 22 50 54 41 7 113 95 
63 11 135 134 40 64 32 3 153 166 147 104 72 
64 11 134 104 135 63 40 41 3 32 66 133 147 
65 11 115 79 84 75 14 8 129 83 152 45 164 
66 11 41 7 62 67 154 64 95 134 104 121 135 
67 11 7 95 121 3 72 66 100 135 153 161 41 
68 11 146 6 122 110 141 106 136 51 38 103 105 
69 6 157 55 73 42 127 34 
70 11 23 58 12 89 42 127 167 52 43 73 25 
71 11 100 120 131 140 26 13 48 18 161 59 121 
72 11 153 3 16 161 26 135 100 67 63 166 7 
73 8 42 127 157 69 55 12 70 23 
74 11 85 29 130 30 108 56 105 113 33 78 103 
75 11 129 84 8 152 65 45 115 79 35 137 36 
76 11 17 21 44 145 128 114 24 33 28 80 144 
77 11 27 142 20 160 37 99 149 155 123 117 111 
78 11 103 125 29 108 38 105 146 30 5 122 74 
79 11 14 65 115 84 164 75 25 83 94 167 129 
80 11 114 21 87 132 44 76 128 17 131 145 18 
81 11 49 39 116 46 124 36 137 156 56 8 130 
82 11 111 118 140 120 9 149 13 20 59 131 155 
83 10 115 93 158 65 14 79 162 39 124 94 
84 11 75 65 79 45 129 14 115 35 152 89 25 
85 11 74 29 30 130 105 108 33 126 24 103 56 
86 11 168 50 62 154 113 95 48 121 144 7 22 
87 11 132 131 80 114 128 21 18 76 17 144 71 
88 11 109 4 147 32 138 165 40 169 166 63 15 
89 11 58 23 70 167 25 45 35 12 84 127 98 
90 9 10 97 143 148 57 102 159 112 139 
91 11 151 16 59 123 161 26 99 155 13 153 166 
92 11 51 60 136 47 19 106 6 68 122 146 145 
93 10 158 94 83 162 14 101 79 115 164 65 
94 11 101 93 164 14 2 107 79 98 158 25 115 
95 11 121 67 7 48 86 66 100 3 72 168 18 
96 11 61 31 112 165 57 169 10 119 90 109 88 
97 7 148 143 159 90 102 10 57 
98 11 107 2 164 167 25 34 55 89 127 58 157 
99 11 155 37 123 20 151 117 27 59 149 13 77 
100 11 26 161 71 72 13 59 16 121 153 67 3 
101 11 94 93 2 107 164 98 14 158 79 25 167 
102 8 139 90 97 10 163 148 143 57 
103 11 78 125 105 146 122 29 38 6 126 68 108 
104 11 64 134 40 133 63 41 135 66 32 147 3 
105 11 126 122 103 6 146 19 68 78 85 125 24 
106 11 136 141 92 68 51 110 6 60 146 122 47 
107 11 2 98 164 167 25 34 55 157 94 127 101 
108 11 29 30 78 130 5 74 85 103 56 125 53 
109 11 88 4 165 147 138 169 32 40 96 166 112 
110 11 141 68 38 146 122 6 106 125 136 103 51 
111 11 82 118 149 9 140 120 20 13 160 59 155 
112 11 57 10 61 96 90 165 102 31 163 143 97 
113 11 50 168 22 86 56 154 130 74 62 85 156 
114 11 80 21 44 76 87 132 17 128 145 47 131 
115 10 65 79 14 84 83 75 8 129 164 93 
116 11 49 81 39 46 36 137 156 124 8 56 130 
117 11 123 37 99 155 151 27 91 77 11 20 59 
118 11 82 111 140 120 13 9 149 59 131 71 20 
119 11 150 61 143 57 96 90 31 148 10 112 97 
120 11 140 118 13 71 82 59 111 131 100 26 161 
121 11 95 67 7 48 100 86 3 18 66 72 71 
122 11 146 6 68 105 103 126 19 51 110 125 38 
123 11 37 99 155 117 151 91 59 20 27 77 13 
124 10 39 81 49 116 46 36 137 83 156 8 
125 11 38 78 103 146 122 29 110 68 105 6 108 
126 11 105 19 122 6 24 103 145 146 47 33 51 
127 10 42 73 157 55 23 70 69 58 12 167 
128 11 144 17 28 76 18 33 24 48 21 87 132 
129 11 152 75 45 8 35 84 54 22 65 137 156 
130 11 56 30 156 74 46 108 36 137 85 29 113 
131 11 132 87 71 140 120 18 118 82 48 100 13 
132 11 87 131 80 114 18 128 21 71 140 76 120 
133 11 104 43 64 163 52 40 134 41 12 147 63 
134 11 64 135 63 104 40 3 32 147 41 153 66 
135 11 63 134 3 64 40 153 32 72 104 166 16 
136 11 92 51 106 60 68 6 47 19 122 141 146 
137 11 36 156 8 46 56 116 49 81 130 39 152 
138 11 15 4 88 109 169 165 11 147 32 166 31 
139 6 163 102 10 90 97 57 
140 11 120 118 82 13 111 131 71 59 100 132 26 
141 11 110 106 68 136 146 6 122 38 51 92 125 
142 11 77 27 160 20 149 37 99 155 123 117 9 
143 9 148 97 159 90 10 102 57 119 112 
144 11 128 18 28 48 17 33 24 50 76 86 168 
145 11 19 47 76 24 17 44 126 21 33 51 60 
146 11 122 6 68 103 105 110 125 38 126 19 51 
147 11 32 4 40 88 166 63 109 135 134 64 104 
148 7 97 143 159 90 102 10 57 
149 11 20 160 111 9 82 27 118 155 99 77 142 
150 11 119 143 148 159 97 90 57 61 10 96 31 
151 11 91 123 59 99 155 37 117 13 16 26 161 
152 11 129 75 8 22 45 54 35 137 156 84 36 
153 11 72 16 3 161 135 63 166 26 32 100 134 
154 11 62 86 168 22 66 50 54 41 113 7 95 
155 11 99 37 123 20 151 117 59 27 13 149 77 
156 11 137 36 56 8 46 116 130 49 81 152 39 
157 10 55 34 127 69 42 73 107 98 2 23 
158 10 162 93 83 94 14 101 115 79 65 164 
159 7 148 97 143 90 102 10 57 
160 11 20 149 142 27 77 9 111 99 155 37 82 
161 11 26 72 100 16 153 3 59 13 91 67 71 
162 10 158 93 83 94 101 14 115 79 65 124 
163 7 139 102 133 10 57 112 90 
164 11 98 25 2 167 14 107 79 94 84 89 65 
165 11 169 109 96 61 88 31 112 4 138 57 147 
166 11 32 16 153 147 63 135 4 40 3 72 134 
167 11 25 89 58 98 23 164 107 70 2 127 42 
168 11 50 86 113 62 154 22 95 48 144 28 121 
169 11 165 31 138 109 96 61 88 4 112 15 147 
DEPOT_SECTION
   1
   -1
EOF
