NAME :  X-n110-kX-w10-c7.cctp
COMMENT : 	Adapted by Maziero, Usberti and Cavellucci from the Uchoa, Pecin, Pessoa, Poggi, Subramanian, and Vidal (2013)
TYPE :  CCTP
DIMENSION :    52
EDGE_WEIGHT_TYPE : 	EUC_2D	
CAPACITY : 	66
VERTICES_WITHIN_COVERAGE :  7
VERTICES_WITH_DEMAND : 	10
NODE_COORD_SECTION
1 500 500
2 740 442
3 261 710
4 578 522
5 482 914
6 628 644
7 551 651
8 828 54
9 541 270
10 450 1000
11 521 127
12 556 488
13 491 726
14 491 845
15 676 995
16 363 711
17 833 501
18 444 958
19 714 57
20 922 16
21 673 571
22 590 220
23 154 753
24 675 667
25 617 176
26 512 443
27 523 264
28 397 120
29 447 695
30 341 648
31 363 0
32 628 746
33 786 488
34 323 674
35 986 151
36 790 150
37 533 816
38 589 125
39 640 911
40 754 659
41 828 357
42 597 587
43 159 781
44 955 6
45 131 686
46 519 220
47 454 928
48 415 916
49 468 833
50 821 135
51 622 561
52 482 689
DEMAND_SECTION
2 8
3 10
4 8
5 5
6 10
7 5
8 9
9 10
10 6
11 5
COVERAGE_SECTION
2 5 33 17 41 21 51 
3 6 34 30 16 23 43 45 
4 7 12 51 42 26 21 6 7 
5 7 47 18 48 14 49 10 37 
6 7 24 42 7 51 21 32 40 
7 7 6 42 52 13 29 51 32 
8 5 50 20 36 19 44 
9 6 27 46 22 25 11 38 
10 6 18 47 48 5 14 49 
11 7 38 46 25 22 28 27 9 
12 7 4 26 51 42 21 7 6 
13 6 52 29 7 37 49 14 
14 6 49 37 5 47 48 13 
15 2 39 5 
16 5 34 30 29 3 52 
17 3 33 2 41 
18 6 47 10 48 5 14 49 
19 4 8 36 50 38 
20 6 44 8 35 50 36 19 
21 6 51 42 6 24 4 40 
22 6 25 9 46 27 38 11 
23 3 43 45 3 
24 7 6 40 32 21 42 51 7 
25 5 22 38 46 11 9 
26 6 12 4 51 42 9 27 
27 5 9 46 22 25 11 
28 5 11 31 46 27 38 
29 6 52 13 16 7 30 34 
30 6 34 16 3 29 52 13 
31 4 28 11 38 46 
32 4 24 6 37 7 
33 5 17 2 41 21 40 
34 6 30 16 3 29 52 13 
35 4 44 20 50 8 
36 3 50 8 19 
37 6 14 49 13 5 32 47 
38 5 25 11 22 46 19 
39 4 15 37 5 14 
40 3 24 21 6 
41 3 2 33 17 
42 7 51 6 4 21 7 12 24 
43 3 23 45 3 
44 6 20 8 35 50 36 19 
45 3 23 43 3 
46 6 27 9 22 11 25 38 
47 6 5 18 48 10 14 49 
48 6 47 18 5 10 49 14 
49 5 14 37 5 47 48 
50 2 36 8 
51 7 42 21 4 6 12 7 24 
52 6 29 13 7 16 37 49 
DEPOT_SECTION
   1
   -1
EOF
