NAME :  X-n157-kX-w31-c9.cctp
COMMENT : 	Adapted by Maziero, Usberti and Cavellucci from the Uchoa, Pecin, Pessoa, Poggi, Subramanian, and Vidal (2013)
TYPE :  CCTP
DIMENSION :    149
EDGE_WEIGHT_TYPE : 	EUC_2D	
CAPACITY : 	12
VERTICES_WITHIN_COVERAGE :  9
VERTICES_WITH_DEMAND : 	31
NODE_COORD_SECTION
1 769 259
2 91 377
3 108 338
4 816 567
5 725 520
6 117 357
7 766 559
8 90 417
9 255 430
10 63 384
11 35 276
12 122 318
13 85 322
14 267 348
15 937 546
16 865 461
17 863 547
18 724 431
19 148 144
20 243 571
21 871 512
22 782 596
23 77 272
24 776 650
25 166 371
26 69 239
27 972 607
28 320 521
29 91 434
30 20 305
31 81 271
32 776 669
33 830 553
34 148 243
35 160 202
36 741 527
37 877 561
38 587 551
39 808 435
40 26 278
41 58 394
42 755 444
43 817 557
44 165 367
45 216 510
46 124 330
47 132 369
48 915 492
49 753 657
50 161 319
51 37 227
52 898 747
53 770 524
54 745 582
55 695 469
56 124 355
57 11 283
58 258 406
59 72 335
60 713 399
61 214 344
62 213 349
63 864 577
64 98 440
65 701 512
66 884 559
67 842 518
68 125 379
69 352 410
70 206 228
71 825 592
72 93 252
73 863 511
74 98 347
75 115 326
76 71 392
77 96 248
78 65 404
79 75 342
80 140 300
81 129 340
82 129 273
83 846 696
84 109 463
85 863 586
86 139 356
87 77 351
88 154 322
89 231 323
90 115 394
91 844 558
92 98 454
93 739 568
94 179 443
95 764 764
96 844 554
97 703 319
98 863 569
99 72 473
100 632 575
101 823 578
102 26 42
103 47 381
104 71 336
105 754 484
106 137 465
107 80 355
108 172 296
109 28 310
110 754 579
111 87 382
112 866 481
113 93 337
114 942 567
115 788 567
116 824 451
117 926 901
118 182 500
119 98 384
120 104 370
121 48 462
122 952 629
123 239 324
124 747 605
125 136 460
126 748 624
127 43 268
128 792 597
129 95 352
130 109 413
131 67 224
132 104 386
133 817 672
134 183 360
135 922 652
136 779 419
137 863 721
138 40 456
139 66 395
140 862 465
141 383 357
142 307 434
143 233 421
144 329 280
145 623 554
146 103 349
147 736 688
148 75 266
149 174 406
DEMAND_SECTION
2 1
3 1
4 1
5 1
6 1
7 1
8 1
9 1
10 1
11 1
12 1
13 1
14 1
15 1
16 1
17 1
18 1
19 1
20 1
21 1
22 1
23 1
24 1
25 1
26 1
27 1
28 1
29 1
30 1
31 1
32 1
COVERAGE_SECTION
2 9 111 119 120 132 76 107 129 10 90 
3 9 146 74 75 113 46 129 6 81 56 
4 9 43 101 33 71 115 91 96 128 22 
5 9 36 65 53 105 93 7 55 54 110 
6 9 56 146 120 47 3 74 81 86 68 
7 9 110 115 93 54 53 22 36 128 124 
8 9 29 130 64 78 76 139 90 119 132 
9 9 58 143 142 94 14 149 45 62 61 
10 9 41 76 139 103 78 111 2 107 119 
11 9 40 127 57 30 109 148 23 31 51 
12 9 75 46 81 3 80 88 113 146 13 
13 9 113 59 104 79 3 74 75 87 129 
14 9 123 89 61 62 58 143 9 134 144 
15 9 114 66 48 37 27 17 21 98 63 
16 9 140 112 116 73 21 48 67 39 17 
17 9 37 96 91 98 66 63 33 21 67 
18 9 42 60 55 136 105 39 65 5 36 
19 8 35 34 70 131 77 72 26 82 
20 6 45 28 118 9 94 106 
21 9 73 67 112 17 48 140 37 66 96 
22 9 128 115 110 124 7 54 71 126 4 
23 9 31 148 72 77 26 127 11 131 13 
24 9 32 49 126 133 22 124 128 147 110 
25 9 44 134 86 47 149 68 56 81 88 
26 9 131 72 77 148 23 31 51 127 11 
27 7 122 114 135 15 66 37 85 
28 9 142 20 45 9 69 58 143 118 94 
29 9 64 8 92 130 84 78 99 139 76 
30 9 109 57 40 11 127 59 104 23 79 
31 9 23 148 72 77 26 127 11 82 131 
32 9 24 49 133 147 126 124 22 128 83 
33 9 43 96 91 4 101 17 67 98 71 
34 8 82 35 77 72 80 108 70 31 
35 8 34 70 19 82 77 72 108 131 
36 9 5 53 7 93 65 105 110 54 115 
37 9 66 98 17 63 85 91 96 33 21 
38 8 145 100 65 55 5 93 36 54 
39 9 116 136 42 140 16 105 112 18 67 
40 9 11 57 127 30 109 148 23 51 31 
41 9 139 10 78 76 103 111 2 8 119 
42 9 18 136 105 39 60 55 116 53 5 
43 9 4 33 101 91 96 115 71 67 17 
44 9 25 134 86 47 149 68 56 81 88 
45 7 118 20 94 9 106 143 125 
46 9 75 81 12 3 56 6 146 86 74 
47 9 68 86 56 6 120 81 90 44 132 
48 9 21 112 73 15 16 140 66 17 67 
49 9 24 32 126 147 124 133 22 128 54 
50 8 88 108 80 81 12 46 86 75 
51 9 131 26 127 11 40 148 23 72 31 
52 7 137 83 135 133 122 95 32 
53 9 36 7 105 5 115 93 43 110 4 
54 9 110 93 124 7 22 126 115 128 36 
55 9 65 18 5 105 42 60 36 53 136 
56 9 6 86 47 81 146 3 68 46 120 
57 9 40 30 11 109 127 51 148 23 31 
58 9 9 143 142 14 62 61 123 149 89 
59 9 104 79 87 13 113 107 74 129 146 
60 9 18 42 136 55 97 105 39 65 5 
61 8 62 89 123 134 14 44 25 50 
62 8 61 89 134 123 44 25 14 50 
63 8 98 85 37 66 91 17 96 101 
64 9 29 92 8 84 130 99 125 106 78 
65 9 5 36 55 105 93 53 7 54 18 
66 9 37 98 17 63 85 91 96 21 73 
67 9 73 21 17 96 33 91 112 43 4 
68 9 47 90 132 6 120 56 86 119 2 
69 9 142 141 58 9 14 28 143 144 123 
70 7 35 34 108 82 80 89 19 
71 9 101 4 128 43 85 33 91 63 96 
72 9 77 31 148 23 26 131 82 127 34 
73 9 21 67 112 17 140 96 16 91 37 
74 9 146 129 113 3 107 6 87 79 120 
75 9 46 12 3 81 113 146 74 13 56 
76 9 139 10 41 78 111 2 103 119 8 
77 9 72 31 26 148 23 131 82 34 127 
78 9 139 41 76 10 8 103 111 2 119 
79 9 104 59 87 107 113 13 129 74 146 
80 8 12 88 50 82 108 46 75 81 
81 9 46 56 86 75 3 6 12 146 47 
82 8 80 34 77 72 12 31 108 23 
83 7 137 133 52 32 24 135 49 
84 8 92 64 125 106 29 99 8 130 
85 8 63 98 37 66 91 96 71 17 
86 9 47 56 81 6 68 44 46 25 3 
87 9 107 79 104 59 129 74 113 146 2 
88 8 50 80 46 81 12 108 86 75 
89 8 123 61 62 14 134 108 50 88 
90 9 132 68 119 130 120 2 47 111 8 
91 9 96 33 17 98 43 63 4 101 37 
92 9 64 84 29 99 8 125 106 130 121 
93 9 54 110 7 124 36 115 5 22 53 
94 8 149 125 106 118 143 25 84 130 
95 9 147 32 133 83 49 137 24 52 126 
96 9 91 33 17 98 43 63 4 101 37 
97 9 60 18 136 42 55 39 105 116 65 
98 9 63 37 85 17 91 66 96 33 101 
99 9 121 92 138 84 64 29 8 106 125 
100 9 145 38 65 93 5 54 36 124 110 
101 9 4 71 43 33 91 96 128 115 63 
102 9 19 51 131 26 35 77 72 127 148 
103 9 10 41 139 76 78 111 87 107 2 
104 9 59 79 87 13 107 113 74 129 146 
105 9 42 53 36 5 65 18 55 136 39 
106 7 125 84 92 64 94 29 118 
107 9 87 79 129 74 104 59 113 146 2 
108 8 50 80 88 82 12 34 46 81 
109 9 30 40 57 11 127 104 59 79 13 
110 9 54 93 7 124 22 115 128 126 36 
111 9 2 119 132 76 120 10 139 107 90 
112 9 140 16 73 21 67 48 116 17 39 
113 9 74 3 129 146 13 79 59 87 104 
114 9 15 27 66 122 37 63 98 48 17 
115 9 7 4 22 128 43 110 101 33 71 
116 9 39 140 16 112 136 42 67 73 21 
117 8 52 137 95 83 135 133 122 32 
118 7 45 94 106 125 84 20 143 
119 9 132 2 111 120 90 68 76 130 129 
120 9 2 119 132 6 129 111 146 68 74 
121 9 138 99 29 92 64 78 84 8 41 
122 7 27 135 114 15 66 85 37 
123 8 89 61 62 14 134 108 50 58 
124 9 126 54 110 22 93 128 7 49 24 
125 7 106 84 92 64 94 29 130 
126 9 124 49 24 54 22 110 128 32 93 
127 9 11 40 148 23 57 31 26 51 30 
128 9 22 115 71 101 4 110 7 124 43 
129 9 74 146 107 113 87 3 120 79 6 
130 9 8 90 132 29 64 119 68 111 2 
131 9 26 51 72 77 148 23 31 127 11 
132 9 119 90 2 120 111 68 130 6 47 
133 7 83 32 24 49 137 128 71 
134 8 44 25 62 61 86 50 149 88 
135 7 122 27 114 83 85 137 63 
136 9 39 42 116 18 60 105 140 16 55 
137 7 83 52 133 135 32 95 24 
138 9 121 99 29 78 92 64 8 41 139 
139 9 76 41 78 10 103 111 2 8 119 
140 9 16 112 116 73 21 67 48 39 17 
141 9 69 144 142 14 58 9 123 89 143 
142 9 69 9 58 143 28 14 141 45 62 
143 9 9 58 94 149 62 142 61 134 14 
144 9 14 141 123 89 61 69 70 62 58 
145 9 100 38 65 5 55 93 36 54 110 
146 9 74 129 3 6 113 120 56 107 75 
147 9 49 32 24 126 95 133 124 22 54 
148 9 23 31 72 26 77 127 11 131 40 
149 8 25 94 44 134 47 68 90 86 
DEPOT_SECTION
   1
   -1
EOF
