NAME :  X-n125-kX-w49-c11.cctp
COMMENT : 	Adapted by Maziero, Usberti and Cavellucci from the Uchoa, Pecin, Pessoa, Poggi, Subramanian, and Vidal (2013)
TYPE :  CCTP
DIMENSION :    125
EDGE_WEIGHT_TYPE : 	EUC_2D	
CAPACITY : 	188
VERTICES_WITHIN_COVERAGE :  11
VERTICES_WITH_DEMAND : 	49
NODE_COORD_SECTION
1 989 944
2 5 730
3 769 200
4 698 515
5 72 561
6 52 397
7 771 177
8 81 537
9 43 371
10 716 202
11 106 406
12 627 172
13 10 338
14 776 432
15 761 469
16 759 287
17 593 363
18 773 290
19 129 398
20 709 193
21 99 564
22 163 418
23 48 619
24 907 406
25 929 527
26 69 672
27 675 960
28 50 763
29 736 240
30 46 518
31 128 793
32 699 581
33 58 398
34 43 393
35 783 186
36 58 360
37 45 712
38 38 393
39 652 524
40 37 364
41 37 617
42 61 534
43 664 358
44 555 445
45 712 465
46 38 469
47 2 729
48 65 620
49 156 497
50 857 475
51 773 234
52 879 98
53 685 466
54 21 421
55 109 536
56 60 738
57 897 564
58 96 383
59 76 582
60 739 193
61 669 548
62 284 462
63 193 813
64 15 696
65 102 541
66 28 578
67 828 292
68 73 519
69 70 645
70 40 433
71 745 159
72 0 486
73 75 511
74 228 312
75 732 427
76 61 407
77 495 621
78 84 538
79 751 246
80 22 714
81 63 571
82 641 350
83 873 540
84 211 418
85 287 618
86 155 796
87 627 595
88 546 199
89 795 58
90 805 15
91 649 486
92 145 377
93 673 319
94 700 678
95 86 623
96 158 613
97 673 619
98 738 444
99 17 449
100 122 182
101 108 334
102 100 550
103 677 505
104 23 365
105 20 512
106 892 41
107 452 457
108 70 541
109 224 931
110 67 692
111 198 317
112 513 731
113 159 369
114 51 378
115 556 137
116 800 100
117 795 278
118 158 773
119 43 656
120 41 488
121 70 375
122 132 545
123 203 328
124 728 467
125 759 208
DEMAND_SECTION
2 32
3 7
4 83
5 30
6 62
7 26
8 31
9 75
10 5
11 85
12 15
13 94
14 16
15 38
16 32
17 5
18 17
19 92
20 50
21 16
22 79
23 11
24 33
25 60
26 11
27 96
28 46
29 48
30 31
31 25
32 96
33 71
34 61
35 3
36 100
37 6
38 94
39 88
40 53
41 19
42 50
43 19
44 39
45 21
46 95
47 7
48 40
49 51
50 16
COVERAGE_SECTION
2 11 47 80 64 37 28 56 110 119 26 69 41 
3 11 125 35 7 60 51 71 79 29 10 20 117 
4 11 103 61 39 53 45 91 124 32 15 98 75 
5 11 81 108 59 8 78 21 42 102 65 68 55 
6 11 33 34 76 38 114 9 121 40 36 70 54 
7 11 35 3 71 125 60 51 10 20 29 79 116 
8 11 78 108 42 68 65 102 5 73 55 21 81 
9 11 40 114 36 104 34 38 121 6 33 76 13 
10 11 20 60 29 125 71 3 79 7 51 35 12 
11 11 19 58 76 121 33 92 6 22 114 34 113 
12 11 115 20 88 10 60 71 29 125 7 79 3 
13 11 104 40 9 36 114 38 34 121 6 33 54 
14 11 15 98 75 124 45 50 53 4 103 24 43 
15 11 124 98 14 45 75 53 4 103 50 91 61 
16 11 18 117 79 29 51 67 125 3 93 10 60 
17 11 82 43 44 93 91 53 75 45 103 98 107 
18 11 16 117 79 67 51 29 125 3 60 35 93 
19 11 11 92 58 22 113 121 101 76 33 6 36 
20 11 10 60 71 125 29 3 7 79 35 51 12 
21 11 102 65 5 59 55 78 8 81 108 122 42 
22 11 19 92 84 113 11 58 49 123 101 121 76 
23 11 41 48 69 119 95 59 66 81 26 5 21 
24 11 50 25 14 83 67 57 15 117 98 75 18 
25 11 57 83 50 24 15 14 98 124 75 45 4 
26 11 110 69 119 37 48 95 23 64 80 41 56 
27 11 112 94 97 87 32 77 61 39 4 109 57 
28 11 56 37 2 80 47 110 64 31 26 119 118 
29 11 79 51 125 10 60 3 16 20 18 117 7 
30 11 42 68 105 73 120 108 8 78 5 46 72 
31 11 86 118 63 28 56 37 110 80 26 2 47 
32 11 61 97 4 87 39 103 94 91 53 45 124 
33 11 6 76 34 38 114 121 9 36 70 40 58 
34 11 38 6 33 114 9 76 40 121 104 36 54 
35 11 7 3 125 60 71 51 79 10 29 20 116 
36 11 9 114 121 40 104 34 6 33 38 58 76 
37 11 80 56 110 64 2 47 26 28 119 69 23 
38 11 34 6 114 33 9 76 40 104 54 121 36 
39 11 61 103 91 4 53 32 87 45 124 97 98 
40 11 9 104 114 36 38 34 121 6 13 33 76 
41 11 23 48 119 66 69 95 59 81 26 5 110 
42 11 108 68 8 30 78 73 5 81 65 102 105 
43 11 82 93 17 75 53 98 45 16 124 18 91 
44 11 17 91 107 39 82 53 103 43 61 45 4 
45 11 124 53 98 75 15 4 103 91 14 39 61 
46 11 120 99 70 72 105 30 54 73 68 76 42 
47 11 2 80 64 37 28 56 110 119 26 69 41 
48 11 23 95 69 41 59 119 81 26 66 5 21 
49 11 122 55 65 102 22 73 78 8 68 21 84 
50 11 83 24 25 14 15 57 98 124 75 45 4 
51 11 79 125 3 29 35 117 60 16 18 7 10 
52 11 106 116 89 90 35 7 71 3 125 60 51 
53 11 45 103 91 124 4 98 75 39 15 61 14 
54 11 70 99 38 34 6 76 33 46 114 9 104 
55 11 65 102 78 122 8 21 108 68 73 5 42 
56 11 28 37 80 110 2 47 64 26 119 31 69 
57 11 83 25 50 24 15 14 124 32 98 4 45 
58 11 11 121 19 33 76 36 114 6 92 101 9 
59 11 81 5 21 48 102 108 95 8 78 23 66 
60 11 10 125 20 3 71 7 35 29 51 79 16 
61 11 39 4 103 32 87 91 97 53 45 124 15 
62 11 84 22 49 85 113 123 74 92 19 107 111 
63 11 86 118 31 109 28 56 110 37 26 80 96 
64 11 80 37 2 47 119 110 26 56 69 28 41 
65 11 55 102 78 8 21 122 108 5 68 73 42 
66 11 81 41 23 5 59 42 48 108 30 105 8 
67 11 117 18 16 51 79 29 3 125 35 7 60 
68 11 73 42 8 78 108 30 65 55 102 5 120 
69 11 48 26 95 119 23 41 110 59 37 81 64 
70 11 54 99 76 46 6 33 34 38 120 114 9 
71 11 7 60 35 3 20 125 10 51 29 116 79 
72 11 105 99 120 46 30 70 54 42 73 68 108 
73 11 68 8 42 78 30 108 65 120 55 102 5 
74 11 111 123 113 92 84 101 22 19 58 11 62 
75 11 98 124 45 14 15 53 4 103 43 91 82 
76 11 33 6 34 38 114 70 121 9 54 58 11 
77 11 112 87 107 97 39 44 61 91 32 85 94 
78 11 8 108 65 102 68 42 55 5 73 21 81 
79 11 29 51 125 16 3 18 60 117 10 20 35 
80 11 64 2 37 47 56 110 28 119 26 69 23 
81 11 5 59 108 66 21 42 8 78 102 48 65 
82 11 43 93 17 75 53 44 16 45 98 91 18 
83 11 57 25 50 15 24 14 124 98 4 45 32 
84 11 22 113 92 19 62 123 49 111 11 74 58 
85 11 96 62 122 49 21 55 102 65 95 118 77 
86 11 118 31 63 28 56 110 37 26 109 80 2 
87 11 97 61 32 39 103 4 91 94 77 53 45 
88 11 115 12 20 10 17 93 82 60 29 43 71 
89 11 116 90 52 106 71 7 35 3 60 125 20 
90 11 89 116 106 52 71 7 35 3 60 125 20 
91 11 103 39 53 4 61 45 124 98 75 44 32 
92 11 113 19 22 11 58 101 121 123 84 111 33 
93 11 43 82 17 16 29 18 79 75 10 117 20 
94 11 97 32 87 61 39 4 103 112 91 45 53 
95 11 48 69 23 59 41 26 119 81 21 5 110 
96 11 95 122 21 102 59 55 65 48 69 5 81 
97 11 32 87 94 61 39 4 103 91 53 45 124 
98 11 75 124 45 15 14 53 4 103 91 43 39 
99 11 54 70 46 72 120 38 76 34 6 105 33 
100 11 101 111 123 74 36 113 13 92 121 40 58 
101 11 58 36 121 92 113 19 11 114 9 40 33 
102 11 65 21 55 78 8 5 108 122 59 68 42 
103 11 4 39 91 53 61 45 124 32 98 15 75 
104 11 40 9 13 114 38 34 36 6 33 121 54 
105 11 30 120 72 42 46 68 73 108 99 8 66 
106 11 52 90 89 116 35 7 71 3 125 60 51 
107 11 44 62 17 77 91 39 82 87 103 85 53 
108 11 42 8 78 5 68 73 81 102 65 30 21 
109 11 63 86 31 118 28 56 37 110 80 2 47 
110 11 26 37 119 56 69 80 64 48 95 2 28 
111 11 123 74 113 92 101 84 19 22 58 11 121 
112 11 77 87 94 97 32 61 39 85 103 91 27 
113 11 92 19 22 123 101 11 58 111 84 74 121 
114 11 9 34 6 36 121 38 40 33 76 104 58 
115 11 88 12 20 10 71 60 29 125 93 7 3 
116 11 89 52 71 7 90 35 3 106 60 125 20 
117 11 18 67 16 51 79 29 125 3 35 60 7 
118 11 86 31 63 56 28 110 37 26 80 69 2 
119 11 69 26 23 41 48 110 64 95 37 80 66 
120 11 46 30 105 72 73 68 99 42 70 108 8 
121 11 36 114 33 9 58 6 34 76 40 38 11 
122 11 55 65 102 21 78 8 49 5 108 68 73 
123 11 111 74 113 92 84 101 22 19 58 11 121 
124 11 45 98 15 75 53 4 14 103 91 39 61 
125 11 3 60 51 7 35 29 79 10 71 20 16 
DEPOT_SECTION
   1
   -1
EOF
