NAME :  X-n115-kX-w11-c9.cctp
COMMENT : 	Adapted by Maziero, Usberti and Cavellucci from the Uchoa, Pecin, Pessoa, Poggi, Subramanian, and Vidal (2013)
TYPE :  CCTP
DIMENSION :    84
EDGE_WEIGHT_TYPE : 	EUC_2D	
CAPACITY : 	169
VERTICES_WITHIN_COVERAGE :  9
VERTICES_WITH_DEMAND : 	11
NODE_COORD_SECTION
1 500 500
2 865 693
3 633 220
4 173 361
5 89 714
6 350 102
7 301 24
8 834 663
9 841 997
10 394 790
11 276 488
12 779 312
13 940 964
14 379 338
15 128 439
16 401 22
17 69 887
18 633 46
19 713 182
20 540 169
21 298 725
22 410 644
23 512 889
24 756 352
25 405 407
26 850 365
27 691 383
28 926 631
29 998 736
30 921 854
31 532 257
32 238 513
33 976 912
34 565 912
35 99 355
36 294 39
37 58 429
38 520 109
39 409 682
40 296 843
41 717 390
42 152 711
43 934 255
44 257 539
45 270 31
46 823 409
47 203 849
48 770 627
49 786 186
50 380 300
51 973 847
52 985 975
53 910 568
54 181 186
55 814 694
56 702 927
57 385 696
58 48 323
59 813 293
60 729 923
61 719 883
62 167 14
63 98 159
64 476 709
65 402 339
66 911 734
67 590 230
68 122 698
69 154 418
70 165 998
71 217 599
72 766 21
73 831 607
74 70 494
75 220 740
76 19 855
77 818 409
78 503 304
79 254 282
80 205 607
81 331 57
82 118 404
83 893 182
84 435 1000
DEMAND_SECTION
2 86
3 98
4 89
5 91
6 74
7 87
8 65
9 62
10 60
11 99
12 96
COVERAGE_SECTION
2 8 8 55 66 28 73 48 53 29 
3 9 67 19 20 31 78 49 38 12 27 
4 9 69 82 35 15 79 58 37 11 32 
5 8 68 42 75 76 80 71 17 47 
6 8 81 36 7 16 45 38 54 50 
7 9 36 45 81 6 16 62 54 38 63 
8 7 55 2 73 48 28 66 53 
9 9 13 60 52 56 33 30 61 51 66 
10 7 57 39 40 64 21 22 23 
11 9 32 44 71 80 69 25 15 4 82 
12 9 59 24 26 41 77 46 27 49 19 
13 9 52 33 9 30 51 60 66 29 61 
14 7 65 50 25 78 79 31 11 
15 8 69 82 37 74 35 4 32 58 
16 9 81 6 7 36 45 38 20 18 62 
17 9 76 47 70 5 42 68 75 40 21 
18 9 38 72 20 19 3 67 49 16 31 
19 9 49 3 67 12 59 18 72 20 24 
20 8 38 67 31 3 78 18 19 6 
21 9 75 57 10 40 39 22 42 71 80 
22 5 39 57 64 21 10 
23 6 34 84 10 64 56 61 
24 7 12 41 27 59 77 46 26 
25 6 65 14 50 78 11 79 
26 6 46 77 59 12 24 41 
27 5 41 24 12 77 46 
28 8 53 2 8 73 66 29 55 48 
29 9 66 51 28 2 30 33 8 55 53 
30 9 51 33 13 66 52 29 9 2 55 
31 8 78 67 20 3 38 65 50 14 
32 8 44 11 71 80 69 15 82 4 
33 9 13 52 51 30 9 29 66 2 60 
34 6 23 56 61 84 60 10 
35 9 82 58 4 69 37 15 74 79 54 
36 9 7 45 81 6 16 62 54 63 38 
37 8 82 74 15 35 69 58 4 32 
38 8 20 18 67 16 31 3 6 78 
39 5 57 22 64 10 21 
40 9 47 10 21 75 57 42 39 70 84 
41 6 27 24 12 77 46 26 
42 8 68 5 75 80 71 21 47 17 
43 5 83 59 26 49 12 
44 8 32 11 71 80 69 15 22 21 
45 9 36 7 81 62 6 16 54 63 79 
46 6 77 26 24 12 41 59 
47 9 40 75 17 42 70 21 68 5 76 
48 4 73 8 55 2 
49 8 19 83 59 12 3 43 72 24 
50 7 14 65 25 78 79 31 6 
51 9 30 33 29 13 52 66 2 9 28 
52 9 13 33 51 30 9 29 66 60 61 
53 5 28 73 8 2 48 
54 9 63 79 62 4 45 36 35 6 58 
55 7 8 2 48 73 66 28 53 
56 6 60 61 34 9 23 30 
57 5 39 22 21 64 10 
58 9 35 37 82 4 15 69 63 74 54 
59 9 12 26 24 49 46 77 43 41 83 
60 6 56 61 9 34 30 13 
61 6 60 56 34 9 30 23 
62 9 45 36 7 63 81 54 6 16 79 
63 9 54 62 58 35 79 45 4 36 7 
64 4 39 57 22 10 
65 7 14 50 25 78 31 79 11 
66 9 2 29 28 8 55 30 51 73 53 
67 8 3 31 20 78 19 38 27 18 
68 8 42 5 75 80 71 47 21 76 
69 9 15 82 4 35 37 74 32 11 58 
70 9 17 47 40 76 75 84 42 5 68 
71 8 80 44 32 11 42 68 75 21 
72 7 18 49 19 83 3 38 20 
73 6 8 48 53 55 2 28 
74 8 37 15 82 69 35 4 32 58 
75 9 42 21 68 47 40 5 80 71 57 
76 9 17 5 47 68 42 70 75 40 21 
77 6 46 26 24 41 12 59 
78 8 31 65 67 50 14 20 25 3 
79 8 4 54 50 14 65 69 35 82 
80 8 71 44 32 42 68 75 11 21 
81 9 36 7 6 45 16 62 38 54 20 
82 8 15 69 35 37 4 74 58 32 
83 5 43 49 59 12 19 
84 7 23 34 40 10 70 47 56 
DEPOT_SECTION
   1
   -1
EOF
