NAME :  X-n134-kX-w26-c9.cctp
COMMENT : 	Adapted by Maziero, Usberti and Cavellucci from the Uchoa, Pecin, Pessoa, Poggi, Subramanian, and Vidal (2013)
TYPE :  CCTP
DIMENSION :    132
EDGE_WEIGHT_TYPE : 	EUC_2D	
CAPACITY : 	643
VERTICES_WITHIN_COVERAGE :  9
VERTICES_WITH_DEMAND : 	26
NODE_COORD_SECTION
1 113 195
2 377 239
3 364 39
4 306 316
5 795 18
6 560 115
7 501 147
8 704 68
9 762 62
10 357 33
11 359 353
12 314 186
13 338 303
14 522 80
15 291 58
16 735 15
17 324 12
18 275 278
19 409 32
20 279 297
21 844 27
22 447 303
23 796 4
24 735 111
25 373 461
26 385 100
27 281 378
28 793 7
29 965 64
30 347 256
31 742 75
32 339 244
33 334 391
34 323 314
35 345 69
36 295 370
37 462 240
38 426 446
39 286 335
40 374 34
41 201 153
42 356 74
43 767 236
44 789 61
45 467 332
46 437 293
47 357 21
48 386 207
49 389 234
50 281 344
51 312 3
52 317 163
53 582 186
54 301 411
55 822 6
56 197 437
57 386 268
58 294 74
59 425 55
60 279 81
61 382 251
62 351 385
63 701 32
64 384 214
65 866 243
66 546 186
67 815 29
68 734 57
69 377 235
70 793 31
71 392 248
72 308 314
73 396 27
74 250 345
75 903 66
76 266 264
77 580 142
78 191 288
79 408 225
80 297 283
81 733 38
82 312 293
83 180 250
84 764 45
85 351 284
86 321 318
87 208 348
88 451 423
89 365 142
90 487 175
91 267 51
92 346 248
93 575 294
94 585 346
95 199 136
96 485 24
97 542 109
98 813 117
99 442 280
100 212 192
101 344 170
102 574 426
103 325 343
104 426 272
105 349 90
106 389 302
107 769 51
108 489 165
109 174 288
110 285 419
111 434 257
112 376 210
113 400 124
114 320 191
115 304 260
116 339 138
117 390 222
118 129 47
119 376 262
120 416 240
121 688 80
122 289 193
123 270 418
124 322 311
125 303 228
126 829 13
127 315 212
128 266 239
129 326 136
130 287 298
131 319 176
132 323 291
DEMAND_SECTION
2 53
3 73
4 60
5 20
6 23
7 3
8 46
9 28
10 84
11 72
12 64
13 100
14 10
15 74
16 29
17 87
18 95
19 51
20 67
21 17
22 51
23 33
24 12
25 85
26 54
27 79
COVERAGE_SECTION
2 9 69 49 61 71 117 119 64 112 57 
3 9 10 40 47 73 35 42 19 17 105 
4 9 72 86 34 124 82 130 39 132 20 
5 9 28 70 23 67 55 126 84 107 44 
6 9 97 77 14 7 66 53 108 90 96 
7 8 108 90 97 66 6 14 77 53 
8 9 121 68 63 31 81 24 9 16 84 
9 9 107 84 31 44 68 81 70 16 5 
10 9 3 47 40 35 17 73 42 19 51 
11 9 62 103 33 86 34 13 124 106 72 
12 9 114 131 52 122 127 101 125 129 116 
13 9 124 34 132 85 86 82 72 4 103 
14 9 97 6 96 7 77 108 59 90 66 
15 9 58 91 60 35 17 51 105 42 10 
16 9 81 63 68 84 107 9 28 5 31 
17 9 51 47 10 3 40 15 35 58 91 
18 9 76 20 80 130 115 82 128 4 72 
19 9 73 59 40 3 10 47 42 26 35 
20 9 130 18 80 4 82 72 76 39 132 
21 9 126 67 55 5 70 23 28 44 75 
22 9 46 99 45 104 111 106 37 57 120 
23 9 28 5 55 70 67 126 84 21 107 
24 9 31 8 68 9 121 107 84 81 44 
25 9 38 62 33 88 54 110 11 123 36 
26 9 113 105 42 89 35 59 116 3 40 
27 9 36 50 54 110 123 39 74 33 103 
28 9 23 5 70 55 67 126 84 107 44 
29 9 75 21 126 55 67 98 70 5 44 
30 9 92 32 85 119 2 61 69 57 132 
31 9 68 9 107 24 84 81 8 44 121 
32 9 92 30 2 115 69 125 127 119 85 
33 9 62 54 36 11 103 27 110 123 50 
34 9 124 86 72 4 13 132 82 103 130 
35 9 42 105 3 10 40 47 26 58 15 
36 9 27 50 39 103 54 33 110 74 123 
37 8 111 99 120 104 79 46 22 71 
38 9 88 25 62 33 11 45 54 103 110 
39 9 50 4 72 36 74 130 20 86 103 
40 9 3 10 47 73 19 42 35 17 59 
41 9 95 100 122 83 60 128 52 12 131 
42 9 35 105 3 26 10 40 47 58 73 
43 9 65 98 24 31 9 121 44 8 68 
44 9 107 9 70 84 67 5 31 28 68 
45 9 22 46 99 104 111 106 37 88 57 
46 9 22 99 104 111 45 106 57 120 37 
47 9 10 3 40 17 73 51 35 19 42 
48 9 64 112 117 49 79 69 2 71 61 
49 9 69 117 2 71 61 64 79 48 112 
50 9 39 36 74 27 4 72 103 130 20 
51 9 17 47 10 15 3 91 40 58 35 
52 9 131 12 101 114 129 116 122 127 89 
53 9 66 77 6 97 7 108 90 93 14 
54 9 110 123 27 33 36 62 50 103 39 
55 9 126 67 23 28 5 21 70 44 84 
56 9 123 87 110 27 74 54 36 50 39 
57 9 119 61 71 2 49 69 106 85 104 
58 9 15 60 91 35 105 42 17 129 51 
59 9 19 73 40 26 3 96 10 42 113 
60 9 58 15 91 35 105 129 42 17 116 
61 9 71 2 119 57 69 49 117 30 92 
62 9 33 11 103 54 36 27 86 110 34 
63 9 81 8 16 68 121 31 84 9 107 
64 9 48 112 117 49 69 2 79 71 61 
65 9 43 98 75 24 44 29 9 31 107 
66 8 53 77 7 90 108 6 97 37 
67 9 126 70 5 55 21 23 28 44 107 
68 9 81 31 9 8 84 107 63 16 121 
69 9 2 49 61 117 71 64 112 119 48 
70 9 5 67 28 23 44 107 84 55 126 
71 9 61 49 2 69 57 119 120 117 79 
72 9 4 86 124 34 82 130 132 39 13 
73 9 19 40 3 10 47 59 42 35 17 
74 9 50 39 87 27 36 20 130 4 72 
75 9 29 21 126 67 55 98 44 70 5 
76 9 18 128 20 80 115 130 125 82 132 
77 9 6 53 97 66 7 14 108 90 121 
78 9 109 83 87 76 74 18 20 128 130 
79 9 120 117 49 64 48 71 69 2 112 
80 9 82 130 18 20 115 132 72 4 76 
81 9 68 16 84 63 9 31 107 8 70 
82 9 132 80 72 124 4 34 130 86 13 
83 8 109 78 100 76 128 18 41 87 
84 9 107 9 44 68 70 81 31 5 16 
85 9 13 30 132 119 92 57 82 124 34 
86 9 34 124 72 4 13 103 82 132 39 
87 9 74 78 109 50 27 39 20 36 56 
88 9 38 25 45 62 11 22 33 102 46 
89 9 116 101 113 129 26 52 105 131 12 
90 8 108 7 66 37 97 79 6 53 
91 9 15 60 58 51 17 35 105 10 42 
92 9 30 32 2 119 69 61 85 115 49 
93 9 94 53 66 45 37 22 102 99 46 
94 9 93 102 45 22 88 46 99 53 37 
95 9 41 100 60 122 91 58 118 83 15 
96 9 14 59 19 73 97 40 6 3 7 
97 9 6 14 77 7 66 108 90 53 96 
98 9 44 9 24 107 31 84 67 70 21 
99 9 46 104 22 111 37 120 57 106 45 
100 9 41 95 83 128 122 76 78 125 12 
101 9 131 52 114 116 12 89 129 112 127 
102 9 94 88 93 45 38 22 46 99 25 
103 9 86 34 124 4 72 11 36 39 13 
104 9 111 99 46 120 22 57 71 37 106 
105 9 42 35 26 116 129 3 89 58 10 
106 9 57 85 119 104 46 13 61 71 99 
107 9 84 9 44 70 31 68 81 5 16 
108 8 90 7 66 97 37 6 14 77 
109 9 78 83 87 74 76 18 100 128 20 
110 9 123 54 27 36 33 62 50 74 39 
111 8 104 99 120 37 46 79 71 22 
112 9 64 48 117 69 49 2 79 61 71 
113 9 26 89 105 116 42 101 59 129 35 
114 9 12 131 127 52 122 101 125 129 32 
115 9 80 125 18 82 132 32 76 130 30 
116 9 129 89 101 52 131 105 12 114 26 
117 9 64 49 48 69 79 112 2 71 61 
118 8 95 41 91 60 15 58 100 51 
119 9 57 61 71 2 69 30 49 85 92 
120 9 79 71 111 49 117 104 61 2 69 
121 9 8 63 68 31 24 81 9 16 84 
122 9 12 114 127 131 125 52 128 101 129 
123 9 110 54 27 36 33 50 56 74 39 
124 9 34 86 72 4 13 132 82 103 130 
125 9 127 115 122 32 128 114 12 92 30 
126 9 55 21 67 5 23 28 70 44 107 
127 9 125 114 12 122 131 32 92 52 115 
128 9 76 125 18 115 122 80 127 20 130 
129 9 116 52 101 89 131 12 105 114 122 
130 9 20 80 18 82 4 72 39 124 132 
131 9 12 52 114 101 122 127 129 116 125 
132 9 82 13 124 34 72 80 86 85 4 
DEPOT_SECTION
   1
   -1
EOF
