NAME :  X-n125-kX-w12-c9.cctp
COMMENT : 	Adapted by Maziero, Usberti and Cavellucci from the Uchoa, Pecin, Pessoa, Poggi, Subramanian, and Vidal (2013)
TYPE :  CCTP
DIMENSION :    91
EDGE_WEIGHT_TYPE : 	EUC_2D	
CAPACITY : 	188
VERTICES_WITHIN_COVERAGE :  9
VERTICES_WITH_DEMAND : 	12
NODE_COORD_SECTION
1 989 944
2 5 730
3 769 200
4 698 515
5 72 561
6 52 397
7 771 177
8 81 537
9 43 371
10 716 202
11 106 406
12 627 172
13 10 338
14 776 432
15 761 469
16 759 287
17 773 290
18 129 398
19 709 193
20 99 564
21 163 418
22 675 960
23 50 763
24 736 240
25 46 518
26 699 581
27 58 398
28 43 393
29 783 186
30 58 360
31 45 712
32 38 393
33 652 524
34 37 364
35 61 534
36 712 465
37 2 729
38 156 497
39 773 234
40 879 98
41 685 466
42 21 421
43 109 536
44 60 738
45 96 383
46 76 582
47 739 193
48 669 548
49 15 696
50 102 541
51 28 578
52 828 292
53 73 519
54 40 433
55 745 159
56 75 511
57 732 427
58 61 407
59 84 538
60 751 246
61 22 714
62 63 571
63 873 540
64 211 418
65 627 595
66 546 199
67 795 58
68 805 15
69 649 486
70 145 377
71 673 319
72 700 678
73 673 619
74 738 444
75 17 449
76 122 182
77 108 334
78 100 550
79 677 505
80 23 365
81 892 41
82 70 541
83 159 369
84 51 378
85 556 137
86 800 100
87 795 278
88 70 375
89 132 545
90 728 467
91 759 208
DEMAND_SECTION
2 32
3 7
4 83
5 30
6 62
7 26
8 31
9 75
10 5
11 85
12 15
13 94
COVERAGE_SECTION
2 6 37 61 49 31 23 44 
3 9 91 29 7 47 39 55 60 24 10 
4 9 79 48 33 41 36 69 90 26 15 
5 9 62 82 46 8 59 20 35 78 50 
6 9 27 28 58 32 84 9 88 34 30 
7 9 29 3 55 91 47 39 10 19 24 
8 9 59 82 35 53 50 78 5 56 43 
9 9 34 84 30 80 28 32 88 6 27 
10 9 19 47 24 91 55 3 60 7 39 
11 9 18 45 58 88 27 70 6 21 84 
12 9 85 19 66 10 47 55 24 91 7 
13 9 80 34 9 30 84 32 28 88 6 
14 8 15 74 57 90 36 41 4 79 
15 8 90 74 14 36 57 41 4 79 
16 9 17 87 60 24 39 52 91 3 71 
17 9 16 87 60 52 39 24 91 3 47 
18 9 11 70 45 21 83 88 77 58 27 
19 9 10 47 55 91 24 3 7 60 29 
20 9 78 50 5 46 43 59 8 62 82 
21 8 18 70 64 83 11 45 38 77 
22 7 72 73 65 26 48 33 4 
23 6 44 31 2 61 37 49 
24 9 60 39 91 10 47 3 16 19 17 
25 7 35 53 56 82 8 59 5 
26 9 48 73 4 65 33 79 72 69 41 
27 9 6 58 28 32 84 88 9 30 54 
28 9 32 6 27 84 9 58 34 88 80 
29 9 7 3 91 47 55 39 60 10 24 
30 9 9 84 88 34 80 28 6 27 32 
31 6 61 44 49 2 37 23 
32 9 28 6 84 27 9 58 34 80 42 
33 9 48 79 69 4 41 26 65 36 90 
34 9 9 80 84 30 32 28 88 6 13 
35 9 82 53 8 25 59 56 5 62 50 
36 9 90 41 74 57 15 4 79 69 14 
37 6 2 61 49 31 23 44 
38 9 89 43 50 78 21 56 59 8 53 
39 9 60 91 3 24 29 87 47 16 17 
40 9 81 86 67 68 29 7 55 3 91 
41 9 36 79 69 90 4 74 57 33 15 
42 8 54 75 32 28 6 58 27 84 
43 9 50 78 59 89 8 20 82 53 56 
44 6 23 31 61 2 37 49 
45 9 11 88 18 27 58 30 84 6 70 
46 7 62 5 20 78 82 8 59 
47 9 10 91 19 3 55 7 29 24 39 
48 9 33 4 79 26 65 69 73 41 36 
49 5 61 31 2 37 44 
50 9 43 78 59 8 20 89 82 5 53 
51 6 62 5 46 35 82 25 
52 9 87 17 16 39 60 24 3 91 29 
53 9 56 35 8 59 82 25 50 43 78 
54 7 42 75 58 6 27 28 32 
55 9 7 47 29 3 19 91 10 39 24 
56 8 53 8 35 59 25 82 50 43 
57 8 74 90 36 14 15 41 4 79 
58 9 27 6 28 32 84 54 88 9 42 
59 9 8 82 50 78 53 35 43 5 56 
60 9 24 39 91 16 3 17 47 87 10 
61 6 49 2 31 37 44 23 
62 9 5 46 82 51 20 35 8 59 78 
63 5 15 14 90 74 4 
64 6 21 83 70 18 38 11 
65 8 73 48 26 33 79 4 69 72 
66 7 85 12 19 10 71 47 24 
67 9 86 68 40 81 55 7 29 3 47 
68 9 67 86 81 40 55 7 29 3 47 
69 9 79 33 41 4 48 36 90 74 57 
70 8 83 18 21 11 45 77 88 64 
71 6 16 24 17 60 57 10 
72 8 73 26 65 48 33 4 79 69 
73 9 26 65 72 48 33 4 79 69 41 
74 9 57 90 36 15 14 41 4 79 69 
75 6 42 54 32 58 28 6 
76 6 77 30 83 13 70 88 
77 9 45 30 88 70 83 18 11 84 9 
78 9 50 20 43 59 8 5 82 89 46 
79 9 4 33 69 41 48 36 90 26 74 
80 9 34 9 13 84 32 28 30 6 27 
81 9 40 68 67 86 29 7 55 3 91 
82 9 35 8 59 5 53 56 62 78 50 
83 7 70 18 21 77 11 45 64 
84 9 9 28 6 30 88 32 34 27 58 
85 9 66 12 19 10 55 47 24 91 71 
86 9 67 40 55 7 68 29 3 81 47 
87 9 17 52 16 39 60 24 91 3 29 
88 9 30 84 27 9 45 6 28 58 34 
89 9 43 50 78 20 59 8 38 5 82 
90 9 36 74 15 57 41 4 14 79 69 
91 9 3 47 39 7 29 24 60 10 55 
DEPOT_SECTION
   1
   -1
EOF
