NAME :  X-n120-kX-w23-c7.cctp
COMMENT : 	Adapted by Maziero, Usberti and Cavellucci from the Uchoa, Pecin, Pessoa, Poggi, Subramanian, and Vidal (2013)
TYPE :  CCTP
DIMENSION :    102
EDGE_WEIGHT_TYPE : 	EUC_2D	
CAPACITY : 	21
VERTICES_WITHIN_COVERAGE :  7
VERTICES_WITH_DEMAND : 	23
NODE_COORD_SECTION
1 0 0
2 927 318
3 319 475
4 471 281
5 894 615
6 712 832
7 677 210
8 336 967
9 490 360
10 367 685
11 153 169
12 799 63
13 247 455
14 492 585
15 131 701
16 309 721
17 210 256
18 511 753
19 447 796
20 394 856
21 131 13
22 181 425
23 892 585
24 161 651
25 964 365
26 706 842
27 793 53
28 364 841
29 126 306
30 86 477
31 192 360
32 52 568
33 682 45
34 778 300
35 10 737
36 928 438
37 95 240
38 391 368
39 586 170
40 645 731
41 381 396
42 387 491
43 388 753
44 429 276
45 547 989
46 840 945
47 331 421
48 55 132
49 904 771
50 63 190
51 308 276
52 891 182
53 836 473
54 209 741
55 864 533
56 852 600
57 180 150
58 544 140
59 129 968
60 597 962
61 51 423
62 827 605
63 776 619
64 354 297
65 148 944
66 502 869
67 396 492
68 425 338
69 178 511
70 168 274
71 481 465
72 281 777
73 216 211
74 784 740
75 127 992
76 92 170
77 846 755
78 614 326
79 180 372
80 720 252
81 262 291
82 171 186
83 868 613
84 427 974
85 481 557
86 403 645
87 915 919
88 581 85
89 527 743
90 269 924
91 216 84
92 601 952
93 170 949
94 614 92
95 439 212
96 413 509
97 545 336
98 50 806
99 166 86
100 658 870
101 122 511
102 178 170
DEMAND_SECTION
2 1
3 1
4 1
5 1
6 1
7 1
8 1
9 1
10 1
11 1
12 1
13 1
14 1
15 1
16 1
17 1
18 1
19 1
20 1
21 1
22 1
23 1
24 1
COVERAGE_SECTION
2 5 25 36 52 34 53 
3 6 47 42 13 67 41 96 
4 7 44 68 95 9 97 38 64 
5 6 83 23 56 62 55 63 
6 7 26 100 74 40 77 92 46 
7 7 80 39 78 94 34 58 88 
8 7 90 84 20 28 93 65 66 
9 6 97 68 4 38 44 71 
10 7 86 16 43 72 19 28 18 
11 7 82 102 57 76 73 99 37 
12 7 27 33 52 94 7 80 88 
13 7 22 3 69 47 79 31 101 
14 6 85 86 96 71 67 42 
15 7 24 54 35 98 32 72 16 
16 7 72 10 43 54 86 28 19 
17 7 73 70 81 82 102 29 51 
18 7 89 19 66 43 40 86 20 
19 7 43 18 20 66 28 89 10 
20 7 28 19 43 66 84 8 72 
21 7 99 91 48 57 11 76 102 
22 6 79 31 13 69 101 30 
23 5 5 83 56 55 62 
24 7 15 54 32 69 101 16 35 
25 6 2 36 53 55 34 52 
26 7 6 100 40 74 92 60 77 
27 7 12 33 52 94 7 80 88 
28 7 20 43 19 72 90 8 16 
29 5 70 37 31 79 17 
30 6 101 61 32 69 22 79 
31 7 79 22 29 70 81 17 13 
32 7 101 30 24 69 61 15 35 
33 5 94 88 27 12 39 
34 7 80 7 2 52 78 53 25 
35 6 98 15 24 32 54 65 
36 5 25 53 55 2 23 
37 6 50 76 29 70 11 82 
38 6 41 68 47 64 9 44 
39 5 58 94 88 7 95 
40 7 89 6 26 18 74 100 63 
41 6 38 47 68 42 67 3 
42 5 67 96 3 47 41 
43 7 10 19 16 28 20 86 72 
44 7 4 68 95 64 38 9 51 
45 7 60 92 84 66 100 20 8 
46 4 87 26 6 49 
47 6 3 41 38 42 13 67 
48 7 76 50 11 37 99 57 82 
49 4 77 74 87 5 
50 6 76 37 48 11 82 102 
51 7 81 64 17 73 44 38 68 
52 7 2 12 27 34 80 25 7 
53 4 55 36 23 56 
54 7 72 15 16 24 10 98 43 
55 5 23 53 56 83 62 
56 6 83 62 23 5 55 63 
57 7 102 11 82 99 73 91 76 
58 5 39 88 94 95 7 
59 6 75 65 93 90 98 8 
60 7 92 45 100 66 26 84 6 
61 5 30 101 22 29 79 
62 6 56 83 63 5 23 55 
63 5 62 56 83 5 23 
64 7 51 44 38 68 81 41 4 
65 6 93 59 75 90 98 8 
66 7 19 20 18 45 89 84 92 
67 5 42 96 3 71 47 
68 6 38 44 9 4 41 64 
69 7 101 22 13 30 32 79 24 
70 7 17 29 73 37 82 31 81 
71 5 96 67 85 42 9 
72 7 16 54 28 43 10 20 90 
73 7 17 82 102 57 11 70 81 
74 6 77 6 63 49 26 40 
75 6 59 65 93 90 98 8 
76 7 50 48 11 37 82 102 57 
77 7 49 74 83 5 62 63 6 
78 7 97 9 80 7 4 39 34 
79 6 31 22 29 70 13 81 
80 7 7 34 78 39 52 94 97 
81 7 51 17 64 73 70 31 79 
82 7 102 11 57 73 17 76 70 
83 6 56 5 23 62 55 63 
84 7 8 45 20 66 28 90 60 
85 6 14 96 71 67 42 86 
86 7 10 14 43 85 16 96 18 
87 4 46 49 77 6 
88 5 94 58 39 33 7 
89 7 18 19 40 66 43 86 14 
90 7 8 93 65 28 20 59 72 
91 4 99 57 102 11 
92 7 60 45 100 66 26 6 84 
93 6 65 59 75 90 8 98 
94 5 88 33 39 58 7 
95 6 44 4 64 58 68 51 
96 5 67 42 71 85 3 
97 6 9 78 4 68 44 71 
98 6 35 15 65 54 59 93 
99 7 91 57 21 11 102 82 76 
100 7 26 6 92 60 40 66 45 
101 7 30 69 32 22 61 13 24 
102 7 82 57 11 73 99 76 17 
DEPOT_SECTION
   1
   -1
EOF
