NAME :  X-n120-kX-w11-c7.cctp
COMMENT : 	Adapted by Maziero, Usberti and Cavellucci from the Uchoa, Pecin, Pessoa, Poggi, Subramanian, and Vidal (2013)
TYPE :  CCTP
DIMENSION :    78
EDGE_WEIGHT_TYPE : 	EUC_2D	
CAPACITY : 	21
VERTICES_WITHIN_COVERAGE :  7
VERTICES_WITH_DEMAND : 	11
NODE_COORD_SECTION
1 0 0
2 927 318
3 319 475
4 471 281
5 894 615
6 712 832
7 677 210
8 336 967
9 490 360
10 367 685
11 153 169
12 799 63
13 247 455
14 309 721
15 447 796
16 394 856
17 131 13
18 892 585
19 964 365
20 706 842
21 793 53
22 364 841
23 682 45
24 778 300
25 928 438
26 95 240
27 391 368
28 586 170
29 645 731
30 381 396
31 387 491
32 388 753
33 429 276
34 547 989
35 840 945
36 331 421
37 55 132
38 904 771
39 63 190
40 891 182
41 209 741
42 852 600
43 180 150
44 544 140
45 129 968
46 597 962
47 827 605
48 776 619
49 354 297
50 148 944
51 396 492
52 425 338
53 481 465
54 281 777
55 216 211
56 784 740
57 127 992
58 92 170
59 846 755
60 614 326
61 720 252
62 171 186
63 868 613
64 427 974
65 403 645
66 915 919
67 581 85
68 269 924
69 216 84
70 601 952
71 170 949
72 614 92
73 439 212
74 413 509
75 545 336
76 166 86
77 658 870
78 178 170
DEMAND_SECTION
2 1
3 1
4 1
5 1
6 1
7 1
8 1
9 1
10 1
11 1
12 1
COVERAGE_SECTION
2 4 19 25 40 24 
3 6 36 31 13 51 30 74 
4 7 33 52 73 9 75 27 49 
5 5 63 18 42 47 48 
6 7 20 77 56 29 59 70 35 
7 7 61 28 60 72 24 44 67 
8 6 68 64 16 22 71 50 
9 6 75 52 4 27 33 53 
10 6 65 14 32 54 15 22 
11 7 62 78 43 58 55 76 26 
12 7 21 23 40 72 7 61 67 
13 2 3 36 
14 7 54 10 32 41 65 22 15 
15 4 32 16 22 10 
16 6 22 15 32 64 8 54 
17 7 76 69 37 43 11 58 78 
18 4 5 63 42 47 
19 4 2 25 24 40 
20 7 6 77 29 56 70 46 59 
21 7 12 23 40 72 7 61 67 
22 7 16 32 15 54 68 8 14 
23 5 72 67 21 12 28 
24 6 61 7 2 40 60 19 
25 3 19 2 18 
26 4 39 58 11 62 
27 6 30 52 36 49 9 33 
28 5 44 72 67 7 73 
29 5 6 20 56 77 48 
30 6 27 36 52 31 51 3 
31 5 51 74 3 36 30 
32 7 10 15 14 22 16 65 54 
33 6 4 52 73 49 27 9 
34 6 46 70 64 77 16 8 
35 4 66 20 6 38 
36 6 3 30 27 31 13 51 
37 7 58 39 11 26 76 43 62 
38 4 59 56 66 5 
39 6 58 26 37 11 62 78 
40 7 2 12 21 24 61 19 7 
41 4 54 14 10 32 
42 5 63 47 18 5 48 
43 7 78 11 62 76 55 69 58 
44 5 28 67 72 73 7 
45 5 57 50 71 68 8 
46 6 70 34 77 20 64 6 
47 5 42 63 48 5 18 
48 5 47 42 63 5 18 
49 5 33 27 52 30 4 
50 5 71 45 57 68 8 
51 5 31 74 3 53 36 
52 6 27 33 9 4 30 49 
53 4 74 51 31 9 
54 7 14 41 22 32 10 16 68 
55 4 62 78 43 11 
56 6 59 6 48 38 20 29 
57 5 45 50 71 68 8 
58 7 39 37 11 26 62 78 43 
59 7 38 56 63 5 47 48 6 
60 7 75 9 61 7 4 28 24 
61 7 7 24 60 28 40 72 75 
62 5 78 11 43 55 58 
63 5 42 5 18 47 48 
64 6 8 34 16 22 68 46 
65 4 10 32 14 74 
66 4 35 38 59 6 
67 5 72 44 28 23 7 
68 7 8 71 50 22 16 45 54 
69 4 76 43 78 11 
70 6 46 34 77 20 6 64 
71 5 50 45 57 68 8 
72 5 67 23 28 44 7 
73 5 33 4 49 44 52 
74 4 51 31 53 3 
75 6 9 60 4 52 33 53 
76 7 69 43 17 11 78 62 58 
77 6 20 6 70 46 29 34 
78 6 62 43 11 55 76 58 
DEPOT_SECTION
   1
   -1
EOF
