NAME :  X-n148-kX-w29-c7.cctp
COMMENT : 	Adapted by Maziero, Usberti and Cavellucci from the Uchoa, Pecin, Pessoa, Poggi, Subramanian, and Vidal (2013)
TYPE :  CCTP
DIMENSION :    107
EDGE_WEIGHT_TYPE : 	EUC_2D	
CAPACITY : 	18
VERTICES_WITHIN_COVERAGE :  7
VERTICES_WITH_DEMAND : 	29
NODE_COORD_SECTION
1 707 633
2 405 122
3 811 419
4 11 667
5 336 612
6 366 50
7 98 836
8 414 996
9 243 713
10 100 232
11 891 946
12 132 204
13 25 642
14 994 18
15 636 897
16 214 651
17 108 619
18 882 399
19 863 607
20 409 585
21 247 882
22 553 507
23 677 258
24 673 644
25 25 182
26 251 111
27 263 799
28 660 359
29 351 288
30 172 127
31 231 650
32 966 485
33 964 107
34 949 328
35 936 70
36 229 744
37 161 214
38 581 594
39 154 860
40 736 600
41 594 542
42 846 684
43 355 471
44 675 597
45 663 653
46 61 889
47 685 150
48 129 248
49 161 301
50 180 836
51 427 670
52 833 860
53 669 251
54 450 926
55 591 505
56 468 157
57 288 484
58 574 955
59 41 65
60 175 486
61 907 13
62 579 912
63 765 835
64 176 189
65 972 351
66 470 22
67 577 469
68 561 672
69 110 670
70 811 614
71 896 544
72 765 469
73 827 627
74 541 599
75 111 694
76 884 324
77 555 436
78 186 502
79 367 339
80 572 872
81 715 620
82 134 794
83 191 561
84 132 871
85 962 682
86 170 677
87 847 462
88 732 383
89 904 368
90 980 376
91 281 669
92 84 809
93 114 715
94 83 648
95 779 427
96 518 500
97 216 721
98 597 643
99 954 764
100 339 814
101 142 552
102 21 341
103 67 772
104 897 552
105 189 530
106 92 325
107 712 100
DEMAND_SECTION
2 10
3 4
4 7
5 4
6 8
7 1
8 4
9 1
10 5
11 5
12 1
13 4
14 4
15 4
16 2
17 5
18 3
19 10
20 1
21 2
22 9
23 5
24 5
25 2
26 1
27 7
28 10
29 5
30 10
COVERAGE_SECTION
2 5 56 6 66 26 29 
3 5 95 87 72 18 88 
4 7 13 94 69 75 17 93 103 
5 7 20 91 51 31 16 9 57 
6 7 2 66 26 56 30 64 29 
7 6 92 84 82 39 46 103 
8 7 54 58 62 100 80 21 15 
9 7 97 36 91 31 16 86 27 
10 7 48 12 37 64 25 49 106 
11 7 52 63 99 15 42 85 62 
12 7 37 10 48 64 30 49 25 
13 7 4 94 17 69 75 93 103 
14 3 35 61 33 
15 7 62 80 58 63 54 52 68 
16 7 31 86 9 91 97 83 36 
17 7 94 69 75 101 86 13 93 
18 5 89 87 3 76 34 
19 5 73 70 104 71 42 
20 6 5 51 43 74 96 91 
21 7 50 27 39 100 84 36 82 
22 7 96 55 67 41 77 38 74 
23 5 53 28 47 88 107 
24 7 45 44 81 98 40 38 68 
25 7 10 12 59 48 37 64 30 
26 7 30 64 6 37 12 2 48 
27 7 36 100 21 9 50 97 39 
28 6 88 23 53 77 95 67 
29 1 79 
30 7 64 26 12 37 10 48 59 
31 7 16 91 9 86 97 36 83 
32 4 71 104 90 18 
33 3 35 14 61 
34 5 65 90 89 76 18 
35 3 33 61 14 
36 7 97 9 27 86 91 16 31 
37 7 64 12 48 10 49 30 106 
38 7 74 98 41 68 55 22 44 
39 5 84 50 7 82 92 
40 6 81 44 70 24 45 73 
41 7 55 22 38 67 74 96 44 
42 7 73 70 19 85 99 40 104 
43 3 57 20 79 
44 7 81 24 45 40 98 38 41 
45 7 24 44 81 98 40 38 68 
46 2 7 84 
47 5 107 53 23 28 56 
48 6 10 12 37 49 64 106 
49 6 48 106 37 10 12 64 
50 7 39 84 82 21 7 27 92 
51 7 20 5 68 74 91 100 38 
52 7 63 11 99 42 15 85 73 
53 5 23 47 28 88 107 
54 7 8 58 62 80 100 15 21 
55 7 41 22 67 96 77 38 74 
56 4 2 66 6 29 
57 6 43 78 105 60 83 5 
58 7 62 80 15 54 8 63 100 
59 7 25 30 12 10 64 37 48 
60 6 78 105 101 83 57 17 
61 4 35 14 33 107 
62 7 80 58 15 54 8 63 68 
63 7 52 15 11 42 80 62 99 
64 7 37 12 30 48 10 26 49 
65 5 90 34 89 76 18 
66 7 6 2 56 26 47 107 29 
67 6 55 77 22 96 41 38 
68 7 98 74 38 45 24 41 51 
69 7 75 94 93 17 86 13 4 
70 4 73 19 40 42 
71 2 104 19 
72 2 95 3 
73 4 70 19 42 40 
74 7 38 98 68 41 22 96 55 
75 7 93 69 94 86 17 103 13 
76 3 89 34 18 
77 4 67 22 96 55 
78 6 60 105 83 101 57 17 
79 1 29 
80 7 62 15 58 54 63 68 8 
81 6 40 44 24 45 70 73 
82 7 92 7 50 39 103 84 93 
83 7 105 101 78 60 16 31 17 
84 4 39 7 50 46 
85 7 99 42 19 104 73 71 70 
86 7 16 69 75 97 31 93 9 
87 2 3 18 
88 5 95 28 3 72 23 
89 5 18 76 34 65 90 
90 6 65 34 89 18 76 32 
91 7 31 9 16 5 97 36 86 
92 7 7 103 82 84 46 39 93 
93 7 75 69 86 94 103 82 17 
94 7 69 17 75 13 4 93 86 
95 4 3 72 88 87 
96 6 22 67 55 77 41 74 
97 7 36 9 86 16 31 91 27 
98 7 68 38 45 74 24 44 41 
99 7 85 42 52 19 73 11 63 
100 7 27 21 36 9 97 91 54 
101 7 83 105 78 60 17 94 16 
102 2 106 10 
103 7 92 7 82 93 75 69 46 
104 2 71 19 
105 7 78 83 60 101 57 17 16 
106 4 49 102 48 10 
107 4 47 53 23 61 
DEPOT_SECTION
   1
   -1
EOF
