NAME :  X-n125-kX-w12-c11.cctp
COMMENT : 	Adapted by Maziero, Usberti and Cavellucci from the Uchoa, Pecin, Pessoa, Poggi, Subramanian, and Vidal (2013)
TYPE :  CCTP
DIMENSION :    110
EDGE_WEIGHT_TYPE : 	EUC_2D	
CAPACITY : 	188
VERTICES_WITHIN_COVERAGE :  11
VERTICES_WITH_DEMAND : 	12
NODE_COORD_SECTION
1 989 944
2 5 730
3 769 200
4 698 515
5 72 561
6 52 397
7 771 177
8 81 537
9 43 371
10 716 202
11 106 406
12 627 172
13 10 338
14 776 432
15 761 469
16 759 287
17 773 290
18 129 398
19 709 193
20 99 564
21 163 418
22 48 619
23 929 527
24 675 960
25 50 763
26 736 240
27 46 518
28 128 793
29 699 581
30 58 398
31 43 393
32 783 186
33 58 360
34 45 712
35 38 393
36 652 524
37 37 364
38 37 617
39 61 534
40 555 445
41 712 465
42 2 729
43 65 620
44 156 497
45 857 475
46 773 234
47 879 98
48 685 466
49 21 421
50 109 536
51 60 738
52 897 564
53 96 383
54 76 582
55 739 193
56 669 548
57 15 696
58 102 541
59 28 578
60 828 292
61 73 519
62 40 433
63 745 159
64 75 511
65 228 312
66 732 427
67 61 407
68 84 538
69 751 246
70 22 714
71 63 571
72 873 540
73 211 418
74 155 796
75 627 595
76 546 199
77 795 58
78 805 15
79 649 486
80 145 377
81 673 319
82 700 678
83 86 623
84 158 613
85 673 619
86 738 444
87 17 449
88 122 182
89 108 334
90 100 550
91 677 505
92 23 365
93 20 512
94 892 41
95 70 541
96 224 931
97 67 692
98 198 317
99 159 369
100 51 378
101 556 137
102 800 100
103 795 278
104 158 773
105 41 488
106 70 375
107 132 545
108 203 328
109 728 467
110 759 208
DEMAND_SECTION
2 32
3 7
4 83
5 30
6 62
7 26
8 31
9 75
10 5
11 85
12 15
13 94
COVERAGE_SECTION
2 8 42 70 57 34 25 51 97 38 
3 11 110 32 7 55 46 63 69 26 10 19 103 
4 11 91 56 36 48 41 79 109 29 15 86 66 
5 11 71 95 54 8 68 20 39 90 58 61 50 
6 11 30 31 67 35 100 9 106 37 33 62 49 
7 11 32 3 63 110 55 46 10 19 26 69 102 
8 11 68 95 39 61 58 90 5 64 50 20 71 
9 11 37 100 33 92 31 35 106 6 30 67 13 
10 11 19 55 26 110 63 3 69 7 46 32 12 
11 11 18 53 67 106 30 80 6 21 100 31 99 
12 11 101 19 76 10 55 63 26 110 7 69 3 
13 11 92 37 9 33 100 35 31 106 6 30 49 
14 9 15 86 66 109 41 45 48 4 91 
15 11 109 86 14 41 66 48 4 91 45 79 56 
16 11 17 103 69 26 46 60 110 3 81 10 55 
17 11 16 103 69 60 46 26 110 3 55 32 81 
18 11 11 80 53 21 99 106 89 67 30 6 33 
19 11 10 55 63 110 26 3 7 69 32 46 12 
20 11 90 58 5 54 50 68 8 71 95 107 39 
21 11 18 80 73 99 11 53 44 108 89 106 67 
22 8 38 43 83 54 59 71 5 20 
23 10 52 72 45 15 14 86 109 66 41 4 
24 9 82 85 75 29 56 36 4 96 52 
25 9 51 34 2 70 42 97 57 28 104 
26 11 69 46 110 10 55 3 16 19 17 103 7 
27 9 39 61 93 64 105 95 8 68 5 
28 9 74 104 25 51 34 97 70 2 42 
29 11 56 85 4 75 36 91 82 79 48 41 109 
30 11 6 67 31 35 100 106 9 33 62 37 53 
31 11 35 6 30 100 9 67 37 106 92 33 49 
32 11 7 3 110 55 63 46 69 10 26 19 102 
33 11 9 100 106 37 92 31 6 30 35 53 67 
34 8 70 51 97 57 2 42 25 22 
35 11 31 6 100 30 9 67 37 92 49 106 33 
36 11 56 91 79 4 48 29 75 41 109 85 86 
37 11 9 92 100 33 35 31 106 6 13 30 67 
38 8 22 43 59 83 54 71 5 97 
39 11 95 61 8 27 68 64 5 71 58 90 93 
40 7 79 36 48 91 56 41 4 
41 11 109 48 86 66 15 4 91 79 14 36 56 
42 8 2 70 57 34 25 51 97 38 
43 8 22 83 38 54 71 59 5 20 
44 11 107 50 58 90 21 64 68 8 61 20 73 
45 10 72 23 14 15 52 86 109 66 41 4 
46 11 69 110 3 26 32 103 55 16 17 7 10 
47 11 94 102 77 78 32 7 63 3 110 55 46 
48 11 41 91 79 109 4 86 66 36 15 56 14 
49 10 62 87 35 31 6 67 30 100 9 92 
50 11 58 90 68 107 8 20 95 61 64 5 39 
51 8 25 34 70 97 2 42 57 28 
52 10 72 23 45 15 14 109 29 86 4 41 
53 11 11 106 18 30 67 33 100 6 80 89 9 
54 11 71 5 20 43 90 95 83 8 68 22 59 
55 11 10 110 19 3 63 7 32 26 46 69 16 
56 11 36 4 91 29 75 79 85 48 41 109 15 
57 8 70 34 2 42 97 51 25 38 
58 11 50 90 68 8 20 107 95 5 61 64 39 
59 11 71 38 22 5 54 39 43 95 27 93 8 
60 11 103 17 16 46 69 26 3 110 32 7 55 
61 11 64 39 8 68 95 27 58 50 90 5 105 
62 10 49 87 67 6 30 31 35 105 100 9 
63 11 7 55 32 3 19 110 10 46 26 102 69 
64 11 61 8 39 68 27 95 58 105 50 90 5 
65 10 98 108 99 80 73 89 21 18 53 11 
66 9 86 109 41 14 15 48 4 91 79 
67 11 30 6 31 35 100 62 106 9 49 53 11 
68 11 8 95 58 90 61 39 50 5 64 20 71 
69 11 26 46 110 16 3 17 55 103 10 19 32 
70 8 57 2 34 42 51 97 25 22 
71 11 5 54 95 59 20 39 8 68 90 43 58 
72 10 52 23 45 15 14 109 86 4 41 29 
73 10 21 99 80 18 108 44 98 11 65 53 
74 9 104 28 25 51 97 34 96 70 2 
75 10 85 56 29 36 91 4 79 82 48 41 
76 8 101 12 19 10 81 55 26 63 
77 11 102 78 47 94 63 7 32 3 55 110 19 
78 11 77 102 94 47 63 7 32 3 55 110 19 
79 11 91 36 48 4 56 41 109 86 66 40 29 
80 11 99 18 21 11 53 89 106 108 73 98 30 
81 8 16 26 17 69 66 10 103 19 
82 10 85 29 75 56 36 4 91 79 41 48 
83 8 43 22 54 38 71 20 5 97 
84 10 83 107 20 90 54 50 58 43 5 71 
85 11 29 75 82 56 36 4 91 79 48 41 109 
86 10 66 109 41 15 14 48 4 91 79 36 
87 9 49 62 105 35 67 31 6 93 30 
88 11 89 98 108 65 33 99 13 80 106 37 53 
89 11 53 33 106 80 99 18 11 100 9 37 30 
90 11 58 20 50 68 8 5 95 107 54 61 39 
91 11 4 36 79 48 56 41 109 29 86 15 66 
92 11 37 9 13 100 35 31 33 6 30 106 49 
93 9 27 105 39 61 64 95 87 8 59 
94 11 47 78 77 102 32 7 63 3 110 55 46 
95 11 39 8 68 5 61 64 71 90 58 27 20 
96 10 74 28 104 25 51 34 97 70 2 42 
97 8 34 51 70 57 43 83 2 25 
98 11 108 65 99 80 89 73 18 21 53 11 106 
99 11 80 18 21 108 89 11 53 98 73 65 106 
100 11 9 31 6 33 106 35 37 30 67 92 53 
101 11 76 12 19 10 63 55 26 110 81 7 3 
102 11 77 47 63 7 78 32 3 94 55 110 19 
103 11 17 60 16 46 69 26 110 3 32 55 7 
104 8 74 28 51 25 97 34 70 2 
105 9 27 93 64 61 87 39 62 95 8 
106 11 33 100 30 9 53 6 31 67 37 35 11 
107 11 50 58 90 20 68 8 44 5 95 61 64 
108 11 98 65 99 80 73 89 21 18 53 11 106 
109 11 41 86 15 66 48 4 14 91 79 36 56 
110 11 3 55 46 7 32 26 69 10 63 19 16 
DEPOT_SECTION
   1
   -1
EOF
