NAME :  X-n134-kX-w26-c11.cctp
COMMENT : 	Adapted by Maziero, Usberti and Cavellucci from the Uchoa, Pecin, Pessoa, Poggi, Subramanian, and Vidal (2013)
TYPE :  CCTP
DIMENSION :    133
EDGE_WEIGHT_TYPE : 	EUC_2D	
CAPACITY : 	643
VERTICES_WITHIN_COVERAGE :  11
VERTICES_WITH_DEMAND : 	26
NODE_COORD_SECTION
1 113 195
2 377 239
3 364 39
4 306 316
5 795 18
6 560 115
7 501 147
8 704 68
9 762 62
10 357 33
11 359 353
12 314 186
13 338 303
14 522 80
15 291 58
16 735 15
17 324 12
18 275 278
19 409 32
20 279 297
21 844 27
22 447 303
23 796 4
24 735 111
25 373 461
26 385 100
27 281 378
28 793 7
29 965 64
30 347 256
31 742 75
32 339 244
33 334 391
34 323 314
35 345 69
36 295 370
37 462 240
38 426 446
39 286 335
40 374 34
41 201 153
42 356 74
43 767 236
44 789 61
45 467 332
46 437 293
47 357 21
48 386 207
49 389 234
50 281 344
51 312 3
52 317 163
53 582 186
54 301 411
55 822 6
56 197 437
57 386 268
58 294 74
59 425 55
60 279 81
61 382 251
62 351 385
63 701 32
64 384 214
65 866 243
66 546 186
67 815 29
68 734 57
69 377 235
70 793 31
71 392 248
72 308 314
73 396 27
74 250 345
75 903 66
76 266 264
77 580 142
78 191 288
79 408 225
80 297 283
81 733 38
82 312 293
83 180 250
84 764 45
85 351 284
86 321 318
87 208 348
88 451 423
89 365 142
90 487 175
91 267 51
92 346 248
93 575 294
94 585 346
95 199 136
96 485 24
97 542 109
98 813 117
99 442 280
100 212 192
101 344 170
102 574 426
103 325 343
104 426 272
105 349 90
106 389 302
107 769 51
108 489 165
109 174 288
110 285 419
111 434 257
112 376 210
113 400 124
114 320 191
115 304 260
116 339 138
117 390 222
118 129 47
119 376 262
120 416 240
121 688 80
122 289 193
123 270 418
124 322 311
125 303 228
126 829 13
127 315 212
128 266 239
129 326 136
130 287 298
131 319 176
132 79 221
133 323 291
DEMAND_SECTION
2 53
3 73
4 60
5 20
6 23
7 3
8 46
9 28
10 84
11 72
12 64
13 100
14 10
15 74
16 29
17 87
18 95
19 51
20 67
21 17
22 51
23 33
24 12
25 85
26 54
27 79
COVERAGE_SECTION
2 11 69 49 61 71 117 119 64 112 57 92 48 
3 11 10 40 47 73 35 42 19 17 105 51 59 
4 11 72 86 34 124 82 130 39 133 20 103 80 
5 11 28 70 23 67 55 126 84 107 44 21 9 
6 11 97 77 14 7 66 53 108 90 96 121 59 
7 10 108 90 97 66 6 14 77 53 37 113 
8 11 121 68 63 31 81 24 9 16 84 107 44 
9 11 107 84 31 44 68 81 70 16 5 24 8 
10 11 3 47 40 35 17 73 42 19 51 105 15 
11 11 62 103 33 86 34 13 124 106 72 4 36 
12 11 114 131 52 122 127 101 125 129 116 32 112 
13 11 124 34 133 85 86 82 72 4 103 80 30 
14 11 97 6 96 7 77 108 59 90 66 53 19 
15 11 58 91 60 35 17 51 105 42 10 3 47 
16 11 81 63 68 84 107 9 28 5 31 70 8 
17 11 51 47 10 3 40 15 35 58 91 42 73 
18 11 76 20 80 130 115 82 128 4 72 133 124 
19 11 73 59 40 3 10 47 42 26 35 96 105 
20 11 130 18 80 4 82 72 76 39 133 115 124 
21 11 126 67 55 5 70 23 28 44 75 107 84 
22 11 46 99 45 104 111 106 37 57 120 71 119 
23 11 28 5 55 70 67 126 84 21 107 44 16 
24 11 31 8 68 9 121 107 84 81 44 98 63 
25 11 38 62 33 88 54 110 11 123 36 27 103 
26 11 113 105 42 89 35 59 116 3 40 129 19 
27 11 36 50 54 110 123 39 74 33 103 4 72 
28 11 23 5 70 55 67 126 84 107 44 21 16 
29 11 75 21 126 55 67 98 70 5 44 23 28 
30 11 92 32 85 119 2 61 69 57 133 115 71 
31 11 68 9 107 24 84 81 8 44 121 63 16 
32 11 92 30 2 115 69 125 127 119 85 61 112 
33 11 62 54 36 11 103 27 110 123 50 39 86 
34 11 124 86 72 4 13 133 82 103 130 80 85 
35 11 42 105 3 10 40 47 26 58 15 17 73 
36 11 27 50 39 103 54 33 110 74 123 4 72 
37 10 111 99 120 104 79 46 22 71 90 49 
38 11 88 25 62 33 11 45 54 103 110 22 102 
39 11 50 4 72 36 74 130 20 86 103 27 34 
40 11 3 10 47 73 19 42 35 17 59 105 26 
41 11 95 100 122 83 60 128 52 12 131 91 58 
42 11 35 105 3 26 10 40 47 58 73 116 15 
43 11 65 98 24 31 9 121 44 8 68 107 84 
44 11 107 9 70 84 67 5 31 28 68 23 81 
45 11 22 46 99 104 111 106 37 88 57 120 11 
46 11 22 99 104 111 45 106 57 120 37 71 119 
47 11 10 3 40 17 73 51 35 19 42 105 15 
48 11 64 112 117 49 79 69 2 71 61 120 101 
49 11 69 117 2 71 61 64 79 48 112 120 119 
50 11 39 36 74 27 4 72 103 130 20 86 34 
51 11 17 47 10 15 3 91 40 58 35 42 60 
52 11 131 12 101 114 129 116 122 127 89 125 112 
53 10 66 77 6 97 7 108 90 93 14 37 
54 11 110 123 27 33 36 62 50 103 39 11 74 
55 11 126 67 23 28 5 21 70 44 84 107 9 
56 11 123 87 110 27 74 54 36 50 39 33 78 
57 11 119 61 71 2 49 69 106 85 104 30 120 
58 11 15 60 91 35 105 42 17 129 51 10 3 
59 11 19 73 40 26 3 96 10 42 113 47 35 
60 11 58 15 91 35 105 129 42 17 116 51 52 
61 11 71 2 119 57 69 49 117 30 92 120 64 
62 11 33 11 103 54 36 27 86 110 34 25 124 
63 11 81 8 16 68 121 31 84 9 107 24 70 
64 11 48 112 117 49 69 2 79 71 61 120 119 
65 11 43 98 75 24 44 29 9 31 107 21 67 
66 10 53 77 7 90 108 6 97 37 14 93 
67 11 126 70 5 55 21 23 28 44 107 84 9 
68 11 81 31 9 8 84 107 63 16 121 24 44 
69 11 2 49 61 117 71 64 112 119 48 79 57 
70 11 5 67 28 23 44 107 84 55 126 9 21 
71 11 61 49 2 69 57 119 120 117 79 64 48 
72 11 4 86 124 34 82 130 133 39 13 80 20 
73 11 19 40 3 10 47 59 42 35 17 26 105 
74 11 50 39 87 27 36 20 130 4 72 18 103 
75 11 29 21 126 67 55 98 44 70 5 23 28 
76 11 18 128 20 80 115 130 125 82 133 72 4 
77 10 6 53 97 66 7 14 108 90 121 8 
78 11 109 83 87 76 74 18 20 128 130 100 39 
79 11 120 117 49 64 48 71 69 2 112 61 111 
80 11 82 130 18 20 115 133 72 4 76 124 34 
81 11 68 16 84 63 9 31 107 8 70 44 121 
82 11 133 80 72 124 4 34 130 86 13 20 115 
83 11 109 78 100 76 128 18 41 87 132 20 95 
84 11 107 9 44 68 70 81 31 5 16 28 23 
85 11 13 30 133 119 92 57 82 124 34 32 106 
86 11 34 124 72 4 13 103 82 133 39 130 80 
87 11 74 78 109 50 27 39 20 36 56 130 123 
88 11 38 25 45 62 11 22 33 102 46 106 99 
89 11 116 101 113 129 26 52 105 131 12 114 48 
90 10 108 7 66 37 97 79 6 53 120 111 
91 11 15 60 58 51 17 35 105 10 42 47 3 
92 11 30 32 2 119 69 61 85 115 49 57 71 
93 10 94 53 66 45 37 22 102 99 46 111 
94 11 93 102 45 22 88 46 99 53 37 66 104 
95 11 41 100 60 122 91 58 118 83 15 52 128 
96 11 14 59 19 73 97 40 6 3 7 26 10 
97 10 6 14 77 7 66 108 90 53 96 59 
98 11 44 9 24 107 31 84 67 70 21 68 5 
99 10 46 104 22 111 37 120 57 106 45 71 
100 11 41 95 83 128 122 76 78 125 12 109 127 
101 11 131 52 114 116 12 89 129 112 127 48 64 
102 11 94 88 93 45 38 22 46 99 25 104 37 
103 11 86 34 124 4 72 11 36 39 13 50 33 
104 11 111 99 46 120 22 57 71 37 106 61 79 
105 11 42 35 26 116 129 3 89 58 10 40 113 
106 11 57 85 119 104 46 13 61 71 99 22 11 
107 11 84 9 44 70 31 68 81 5 16 28 67 
108 10 90 7 66 97 37 6 14 77 53 113 
109 11 78 83 87 74 76 18 100 128 20 130 132 
110 11 123 54 27 36 33 62 50 74 39 103 56 
111 10 104 99 120 37 46 79 71 22 57 49 
112 11 64 48 117 69 49 2 79 61 71 92 32 
113 11 26 89 105 116 42 101 59 129 35 48 112 
114 11 12 131 127 52 122 101 125 129 32 116 112 
115 11 80 125 18 82 133 32 76 130 30 128 92 
116 11 129 89 101 52 131 105 12 114 26 113 42 
117 11 64 49 48 69 79 112 2 71 61 120 119 
118 11 95 41 91 60 15 58 100 132 51 17 83 
119 11 57 61 71 2 69 30 49 85 92 32 106 
120 10 79 71 111 49 117 104 61 2 69 57 
121 11 8 63 68 31 24 81 9 16 84 107 44 
122 11 12 114 127 131 125 52 128 101 129 115 32 
123 11 110 54 27 36 33 50 56 74 39 62 103 
124 11 34 86 72 4 13 133 82 103 130 80 85 
125 11 127 115 122 32 128 114 12 92 30 76 131 
126 11 55 21 67 5 23 28 70 44 107 84 9 
127 11 125 114 12 122 131 32 92 52 115 101 30 
128 11 76 125 18 115 122 80 127 20 130 82 12 
129 11 116 52 101 89 131 12 105 114 122 26 42 
130 11 20 80 18 82 4 72 39 124 133 34 86 
131 11 12 52 114 101 122 127 129 116 125 89 112 
132 11 83 109 78 100 41 95 87 118 128 76 18 
133 11 82 13 124 34 72 80 86 85 4 115 130 
DEPOT_SECTION
   1
   -1
EOF
