NAME :  X-n101-kX-w10-c11.cctp
COMMENT : 	Adapted by Maziero, Usberti and Cavellucci from the Uchoa, Pecin, Pessoa, Poggi, Subramanian, and Vidal (2013)
TYPE :  CCTP
DIMENSION :    65
EDGE_WEIGHT_TYPE : 	EUC_2D	
CAPACITY : 	206
VERTICES_WITHIN_COVERAGE :  11
VERTICES_WITH_DEMAND : 	10
NODE_COORD_SECTION
1 365 689
2 146 180
3 792 5
4 658 510
5 461 270
6 299 531
7 812 228
8 643 90
9 615 630
10 258 42
11 616 299
12 425 473
13 406 64
14 202 467
15 318 21
16 579 587
17 458 354
18 47 512
19 568 742
20 128 436
21 546 806
22 197 696
23 615 300
24 852 563
25 678 342
26 916 176
27 226 736
28 584 572
29 134 554
30 912 173
31 827 233
32 851 677
33 598 322
34 627 472
35 94 442
36 688 274
37 977 176
38 597 461
39 931 23
40 170 640
41 797 95
42 260 107
43 332 45
44 685 613
45 487 497
46 702 440
47 635 794
48 635 356
49 634 540
50 658 261
51 303 168
52 254 135
53 346 29
54 75 79
55 356 39
56 322 96
57 704 236
58 576 587
59 302 129
60 199 135
61 311 116
62 268 97
63 688 588
64 708 522
65 615 750
DEMAND_SECTION
2 38
3 51
4 73
5 70
6 58
7 54
8 1
9 98
10 62
11 98
COVERAGE_SECTION
2 11 60 52 54 42 62 51 59 61 10 56 43 
3 11 41 39 8 30 26 7 31 57 37 36 50 
4 9 49 34 64 38 46 63 28 44 16 
5 11 17 33 23 11 51 48 50 12 13 59 61 
6 11 14 12 29 40 45 22 20 27 35 17 18 
7 8 31 57 30 26 36 41 50 37 
8 11 41 57 3 50 36 11 23 7 31 33 13 
9 11 16 58 28 44 63 49 65 19 4 64 34 
10 11 62 15 42 43 56 53 61 52 59 55 60 
11 7 23 33 50 48 25 36 57 
12 11 45 17 6 38 28 58 16 34 5 49 14 
13 11 55 53 43 56 15 61 59 62 51 10 42 
14 11 20 29 35 6 18 40 12 22 27 17 45 
15 11 43 53 55 10 56 62 61 13 42 59 52 
16 11 58 28 9 49 44 63 4 34 38 45 64 
17 9 5 12 33 45 23 11 38 48 34 
18 9 35 29 20 14 40 22 6 27 2 
19 8 65 21 47 9 16 58 28 44 
20 11 35 14 18 29 6 40 2 22 12 60 27 
21 4 19 65 47 9 
22 6 27 40 29 6 14 18 
23 7 11 33 50 48 25 36 57 
24 6 32 64 63 44 46 4 
25 4 48 36 11 23 
26 9 30 37 31 7 41 39 3 57 36 
27 4 22 40 29 6 
28 11 16 58 49 9 4 63 34 44 38 45 64 
29 9 40 18 14 20 35 22 6 27 12 
30 9 26 37 31 7 41 39 3 57 36 
31 8 7 30 26 57 41 36 37 50 
32 5 24 44 63 64 9 
33 7 23 11 48 25 50 36 57 
34 6 38 4 49 46 64 28 
35 11 20 18 14 29 40 6 2 22 27 60 12 
36 7 50 57 25 11 23 48 33 
37 9 26 30 31 39 7 41 3 57 36 
38 7 34 4 49 46 28 48 45 
39 11 3 30 41 26 37 31 7 8 57 36 50 
40 8 22 29 27 6 14 18 20 35 
41 11 3 7 30 31 26 39 8 57 37 36 50 
42 11 62 52 59 61 56 10 60 51 43 15 53 
43 11 53 55 15 56 10 61 13 62 59 42 52 
44 11 63 9 49 64 4 16 28 58 34 65 19 
45 11 12 38 28 58 16 34 17 49 4 9 6 
46 3 34 64 4 
47 6 65 19 21 9 44 63 
48 4 25 33 23 11 
49 11 4 28 34 16 63 58 64 38 44 9 46 
50 7 36 57 11 23 25 33 48 
51 11 59 61 52 56 42 62 60 43 10 55 53 
52 11 42 62 59 60 51 61 56 10 2 43 15 
53 11 55 43 15 13 56 10 61 62 59 42 52 
54 11 2 60 10 42 52 62 59 61 51 56 15 
55 11 53 43 15 13 56 61 10 59 62 42 51 
56 11 61 59 43 62 42 55 53 51 15 52 10 
57 9 36 50 7 11 25 23 31 33 48 
58 11 16 28 9 49 4 44 63 34 45 38 64 
59 11 61 51 56 42 62 52 43 10 60 55 15 
60 11 52 42 2 62 59 51 10 61 56 54 43 
61 11 59 56 62 42 51 52 43 55 10 53 15 
62 11 42 52 59 61 56 10 51 60 43 15 53 
63 11 44 64 49 4 9 28 16 58 34 46 38 
64 7 4 63 49 46 44 34 38 
65 7 19 47 21 9 44 16 58 
DEPOT_SECTION
   1
   -1
EOF
