NAME :  X-n129-kX-w25-c9.cctp
COMMENT : 	Adapted by Maziero, Usberti and Cavellucci from the Uchoa, Pecin, Pessoa, Poggi, Subramanian, and Vidal (2013)
TYPE :  CCTP
DIMENSION :    108
EDGE_WEIGHT_TYPE : 	EUC_2D	
CAPACITY : 	39
VERTICES_WITHIN_COVERAGE :  9
VERTICES_WITH_DEMAND : 	25
NODE_COORD_SECTION
1 0 0
2 51 570
3 691 985
4 66 119
5 502 415
6 434 289
7 427 584
8 342 576
9 790 87
10 312 475
11 908 531
12 840 566
13 863 232
14 284 833
15 515 175
16 9 243
17 768 209
18 777 582
19 84 508
20 380 523
21 255 267
22 544 961
23 408 661
24 57 588
25 278 44
26 168 722
27 223 385
28 495 70
29 560 632
30 235 655
31 765 267
32 459 976
33 585 962
34 154 796
35 931 52
36 377 19
37 178 633
38 917 803
39 871 677
40 208 651
41 35 437
42 503 680
43 462 870
44 322 123
45 677 829
46 223 251
47 218 351
48 375 220
49 367 567
50 986 869
51 236 769
52 202 998
53 761 712
54 75 520
55 14 737
56 895 632
57 224 725
58 328 387
59 36 300
60 817 531
61 31 283
62 209 574
63 490 395
64 410 207
65 873 349
66 439 179
67 51 269
68 886 558
69 151 752
70 208 186
71 897 547
72 469 396
73 607 437
74 202 433
75 180 703
76 873 595
77 103 184
78 466 416
79 71 321
80 8 357
81 51 200
82 899 471
83 67 236
84 482 432
85 991 388
86 933 309
87 497 404
88 776 626
89 55 288
90 877 515
91 821 533
92 456 317
93 625 410
94 733 533
95 499 470
96 206 385
97 822 285
98 934 461
99 533 242
100 442 24
101 303 249
102 467 432
103 575 338
104 385 239
105 272 512
106 567 124
107 379 165
108 610 408
DEMAND_SECTION
2 9
3 8
4 8
5 4
6 4
7 3
8 6
9 10
10 8
11 8
12 3
13 2
14 8
15 4
16 9
17 4
18 6
19 5
20 1
21 2
22 2
23 4
24 2
25 3
26 6
COVERAGE_SECTION
2 9 24 54 19 41 37 62 55 40 75 
3 9 33 22 45 32 43 53 38 50 39 
4 9 77 81 83 16 67 70 61 89 59 
5 9 87 63 84 78 72 102 95 103 73 
6 9 92 104 64 48 66 99 72 63 78 
7 9 49 20 23 8 42 95 29 102 10 
8 9 49 20 7 105 10 23 30 62 40 
9 2 17 35 
10 9 105 20 58 8 49 74 27 96 62 
11 9 71 68 90 82 76 98 12 91 60 
12 9 91 60 76 68 71 90 18 11 56 
13 6 97 17 31 86 65 9 
14 9 51 57 34 69 26 75 43 52 30 
15 7 99 106 66 28 64 107 6 
16 9 61 67 83 81 59 89 79 77 80 
17 4 31 97 13 9 
18 9 88 12 60 91 94 76 68 90 71 
19 9 54 2 24 41 74 62 37 80 96 
20 9 49 8 7 10 105 102 95 78 84 
21 8 46 101 47 70 27 96 48 104 
22 9 33 32 43 3 45 42 14 23 29 
23 9 7 42 49 8 20 29 30 57 40 
24 9 2 54 19 37 41 62 55 40 75 
25 9 44 36 70 107 100 48 101 64 66 
26 9 75 69 57 34 40 51 37 30 62 
27 8 96 47 74 58 21 10 46 105 
28 7 100 106 15 66 36 107 64 
29 8 42 7 23 95 94 73 49 20 
30 9 40 37 57 75 62 26 51 69 8 
31 4 17 97 13 65 
32 9 22 43 33 14 3 52 45 42 51 
33 9 22 3 32 43 45 42 53 14 29 
34 9 69 26 51 75 57 14 55 40 30 
35 6 9 13 17 86 97 31 
36 9 100 25 44 28 107 66 64 48 15 
37 9 40 30 62 75 26 57 69 24 2 
38 9 50 39 56 53 76 88 45 68 12 
39 9 56 76 88 12 53 68 71 18 38 
40 9 30 37 75 57 62 26 69 51 105 
41 9 80 19 54 79 2 59 89 24 61 
42 9 29 23 7 49 8 43 20 95 45 
43 9 32 22 33 14 42 23 45 51 3 
44 9 107 25 48 36 64 101 66 70 104 
45 9 53 3 33 22 43 88 29 42 38 
46 8 21 70 101 47 27 96 77 48 
47 8 27 96 74 21 46 58 101 79 
48 9 104 64 107 66 101 6 44 92 21 
49 9 8 20 7 23 10 105 62 30 95 
50 9 38 39 56 53 76 45 3 88 68 
51 9 57 14 26 34 69 75 30 40 37 
52 9 14 34 51 69 32 57 26 43 75 
53 9 88 39 18 45 56 76 12 38 94 
54 9 19 2 24 41 62 37 74 80 40 
55 9 69 34 24 26 75 2 37 57 40 
56 9 76 39 68 71 12 11 90 88 91 
57 9 51 75 26 30 40 69 34 37 14 
58 9 10 27 47 96 74 105 21 101 72 
59 8 61 89 67 79 16 80 83 81 
60 9 91 12 90 18 68 71 94 76 11 
61 8 59 67 89 16 79 83 80 81 
62 9 37 40 30 105 75 8 19 74 10 
63 9 87 72 5 78 84 102 95 92 103 
64 9 48 66 104 107 6 15 101 92 44 
65 4 86 97 13 85 
66 9 64 107 15 48 104 6 99 28 44 
67 8 89 61 59 83 16 79 81 80 
68 9 71 11 76 90 12 91 60 56 82 
69 9 26 34 75 57 51 40 37 30 55 
70 8 46 21 77 101 44 83 4 25 
71 9 68 11 90 76 12 82 91 60 56 
72 9 78 63 87 102 5 84 92 95 6 
73 7 108 93 103 5 95 87 63 
74 8 96 27 47 105 10 58 19 62 
75 9 26 57 69 40 37 30 51 34 62 
76 9 68 56 12 71 11 90 91 39 60 
77 8 81 83 4 67 70 16 89 61 
78 9 102 72 84 63 87 5 95 92 6 
79 8 89 59 61 67 80 83 16 41 
80 8 59 79 61 89 41 67 16 83 
81 9 83 77 16 67 4 61 89 59 79 
82 8 98 90 11 71 68 91 60 12 
83 8 67 81 89 16 61 77 59 79 
84 9 102 78 5 87 63 72 95 92 73 
85 7 98 86 65 82 11 90 71 
86 6 65 85 13 97 98 82 
87 9 63 5 72 84 78 102 95 92 103 
88 9 18 53 12 76 94 60 91 39 56 
89 8 67 59 61 79 83 16 80 81 
90 9 11 71 68 82 91 60 12 98 76 
91 9 60 12 90 18 68 71 76 11 94 
92 8 6 72 63 87 78 104 99 5 
93 5 108 73 103 5 87 
94 5 18 60 91 88 12 
95 9 84 102 5 78 87 63 72 73 108 
96 8 27 47 74 58 21 46 10 105 
97 5 31 13 65 17 86 
98 8 82 11 90 85 71 68 65 91 
99 6 15 103 92 6 66 106 
100 9 36 28 107 66 44 106 25 15 64 
101 9 21 48 46 104 107 70 64 44 47 
102 9 84 78 72 5 87 63 95 92 20 
103 7 108 93 63 87 73 99 5 
104 9 48 64 6 107 66 101 92 44 21 
105 9 10 62 8 74 20 49 27 58 96 
106 2 15 28 
107 9 64 48 66 44 104 101 6 15 36 
108 6 93 73 103 5 87 63 
DEPOT_SECTION
   1
   -1
EOF
