NAME :  X-n139-kX-w55-c9.cctp
COMMENT : 	Adapted by Maziero, Usberti and Cavellucci from the Uchoa, Pecin, Pessoa, Poggi, Subramanian, and Vidal (2013)
TYPE :  CCTP
DIMENSION :    134
EDGE_WEIGHT_TYPE : 	EUC_2D	
CAPACITY : 	106
VERTICES_WITHIN_COVERAGE :  9
VERTICES_WITH_DEMAND : 	55
NODE_COORD_SECTION
1 500 500
2 645 7
3 720 867
4 513 499
5 208 766
6 976 884
7 991 864
8 596 532
9 765 632
10 270 818
11 223 552
12 871 193
13 825 816
14 128 518
15 802 281
16 786 635
17 435 675
18 976 204
19 563 43
20 870 774
21 348 458
22 566 113
23 295 969
24 229 790
25 515 805
26 482 998
27 241 830
28 47 633
29 594 244
30 635 626
31 597 538
32 86 516
33 444 697
34 763 281
35 12 649
36 187 417
37 630 975
38 934 263
39 88 855
40 768 582
41 916 277
42 40 387
43 881 490
44 325 20
45 771 700
46 308 482
47 397 30
48 934 7
49 869 723
50 788 896
51 100 591
52 746 587
53 584 721
54 859 990
55 403 428
56 493 63
57 496 458
58 728 641
59 174 440
60 986 511
61 887 589
62 931 743
63 234 663
64 608 268
65 832 704
66 857 776
67 828 438
68 744 105
69 122 949
70 270 596
71 687 391
72 790 753
73 323 417
74 152 585
75 472 319
76 282 64
77 138 342
78 391 452
79 87 413
80 676 362
81 314 108
82 713 127
83 638 532
84 507 797
85 720 264
86 630 720
87 326 566
88 610 371
89 847 833
90 576 429
91 58 295
92 141 976
93 564 716
94 946 889
95 100 526
96 503 496
97 684 811
98 800 409
99 794 190
100 784 339
101 603 208
102 637 306
103 369 159
104 288 88
105 70 168
106 177 924
107 300 515
108 275 468
109 408 217
110 343 995
111 889 853
112 455 846
113 20 645
114 760 141
115 763 785
116 494 727
117 889 11
118 254 378
119 381 438
120 508 257
121 70 637
122 361 611
123 529 957
124 570 727
125 204 110
126 813 135
127 820 999
128 201 62
129 5 787
130 881 333
131 767 284
132 709 189
133 427 864
134 538 248
DEMAND_SECTION
2 10
3 10
4 5
5 9
6 8
7 5
8 5
9 8
10 6
11 8
12 10
13 9
14 9
15 8
16 9
17 5
18 10
19 7
20 6
21 9
22 10
23 6
24 10
25 5
26 8
27 6
28 8
29 5
30 6
31 5
32 7
33 10
34 9
35 7
36 5
37 9
38 6
39 8
40 9
41 5
42 9
43 9
44 5
45 5
46 6
47 7
48 6
49 9
50 5
51 8
52 9
53 8
54 8
55 7
56 9
COVERAGE_SECTION
2 9 19 22 82 68 56 114 132 101 126 
3 9 97 50 115 13 89 72 37 66 127 
4 9 96 57 8 31 90 83 55 78 119 
5 9 24 27 10 63 39 106 70 74 121 
6 9 7 94 111 89 62 20 54 66 13 
7 9 6 94 111 62 89 20 66 13 54 
8 9 31 83 4 96 30 90 57 52 88 
9 9 16 58 52 40 45 65 72 61 30 
10 9 27 24 5 106 23 63 133 39 112 
11 9 70 74 107 108 14 87 46 63 59 
12 9 99 126 38 41 18 15 114 131 34 
13 9 89 66 20 115 72 111 50 49 65 
14 9 95 32 74 51 59 11 79 36 121 
15 9 131 34 100 85 99 130 12 41 98 
16 9 9 40 58 52 45 65 61 72 49 
17 9 33 116 122 93 84 124 25 87 53 
18 9 38 41 12 130 126 99 15 48 117 
19 9 22 56 2 47 101 82 68 29 132 
20 9 66 49 13 89 62 65 111 72 115 
21 9 119 78 46 73 55 108 107 87 118 
22 9 19 56 101 2 29 134 82 120 64 
23 9 110 106 27 10 92 133 69 26 24 
24 9 5 27 10 63 106 39 23 69 70 
25 9 84 112 116 124 93 133 53 33 86 
26 9 123 110 133 37 112 23 25 84 116 
27 9 10 24 5 106 23 39 63 69 92 
28 9 121 113 35 51 74 95 32 14 129 
29 9 64 101 134 102 120 132 85 88 22 
30 9 58 83 86 31 8 53 93 52 124 
31 9 8 83 4 30 96 90 57 52 58 
32 9 95 14 51 74 79 59 121 28 42 
33 9 17 116 84 122 93 25 124 53 112 
34 9 131 15 85 100 99 132 80 102 130 
35 9 113 28 121 51 129 95 32 74 14 
36 9 59 118 77 79 108 14 73 46 95 
37 9 123 3 26 97 50 127 25 84 112 
38 9 41 18 130 12 15 99 100 131 34 
39 9 69 129 106 92 5 24 27 10 121 
40 9 52 9 16 58 45 61 65 83 30 
41 9 38 130 18 12 15 100 131 99 34 
42 9 79 91 77 32 59 36 95 14 51 
43 9 67 61 60 98 40 130 52 16 100 
44 8 76 47 104 81 128 103 125 56 
45 9 72 65 16 9 58 115 49 66 52 
46 9 107 108 21 73 119 87 78 55 11 
47 9 44 56 81 76 104 103 19 109 22 
48 9 117 126 12 18 68 114 99 82 38 
49 9 65 20 66 62 72 45 13 89 16 
50 9 3 89 13 127 111 115 54 97 66 
51 9 74 121 95 28 32 14 113 35 11 
52 9 40 9 58 16 45 30 83 61 65 
53 9 124 93 86 116 30 84 25 97 33 
54 9 127 50 94 111 89 6 13 7 3 
55 9 119 78 21 73 57 46 96 75 4 
56 9 19 22 47 103 2 44 109 101 81 
57 9 96 4 90 55 78 119 8 31 75 
58 9 9 52 16 40 45 30 65 86 72 
59 9 36 14 79 118 77 108 95 32 11 
60 9 43 61 67 130 98 40 16 62 49 
61 9 43 16 40 60 65 9 49 52 62 
62 9 49 20 66 65 111 89 13 7 72 
63 9 70 5 11 74 24 87 122 51 10 
64 9 29 102 101 134 120 88 85 80 132 
65 9 49 45 72 66 20 16 9 62 115 
66 9 20 13 49 89 72 65 62 111 115 
67 9 98 43 100 130 71 40 15 61 131 
68 9 82 114 126 132 99 2 12 85 117 
69 9 92 106 39 27 23 24 10 129 5 
70 9 11 87 63 107 122 74 46 108 21 
71 9 80 88 102 100 98 90 85 34 131 
72 9 115 45 65 66 13 20 49 89 16 
73 9 21 119 46 108 78 118 55 107 36 
74 9 51 14 11 95 32 121 63 28 70 
75 9 120 134 109 55 57 29 64 88 119 
76 7 104 81 44 128 125 47 103 
77 8 79 36 91 59 42 118 14 32 
78 9 119 55 21 73 46 57 107 108 96 
79 9 42 77 59 36 32 14 95 91 118 
80 9 71 88 102 85 100 64 34 90 131 
81 8 104 76 103 44 125 47 128 109 
82 9 68 114 132 126 99 85 101 2 22 
83 9 31 8 30 90 52 4 40 96 58 
84 9 25 112 116 124 93 133 53 33 17 
85 9 34 131 132 15 102 100 99 80 64 
86 9 53 124 93 30 97 58 116 45 25 
87 9 107 122 70 46 11 21 108 78 63 
88 9 80 90 102 71 64 29 57 134 75 
89 9 13 111 66 20 50 115 72 49 94 
90 9 88 57 4 96 8 31 71 80 83 
91 6 77 42 79 105 36 59 
92 9 69 106 39 23 27 110 10 24 5 
93 9 124 53 86 116 84 25 30 33 17 
94 9 6 7 111 89 54 20 13 66 62 
95 9 32 14 51 74 59 79 121 28 11 
96 9 4 57 90 8 31 78 55 119 83 
97 9 3 115 86 72 50 53 13 45 124 
98 9 67 100 130 71 43 15 131 34 80 
99 9 126 114 12 132 15 34 131 68 82 
100 9 131 15 34 98 130 85 67 71 80 
101 9 29 64 134 22 102 120 132 85 82 
102 9 64 80 88 29 85 71 101 134 34 
103 7 109 81 104 76 47 44 56 
104 7 76 81 44 125 128 103 47 
105 5 91 125 128 77 42 
106 9 69 92 39 27 23 10 24 5 110 
107 9 46 108 87 21 11 70 73 78 119 
108 9 46 107 73 21 118 11 36 59 87 
109 7 103 120 75 134 81 56 104 
110 9 23 26 133 106 112 123 10 27 92 
111 9 89 94 13 20 66 6 7 50 62 
112 9 133 84 25 116 123 33 26 124 93 
113 9 35 28 121 51 95 129 32 74 14 
114 9 68 82 126 99 132 12 85 34 131 
115 9 72 13 97 45 3 66 89 65 20 
116 9 33 84 93 124 17 25 53 112 86 
117 9 48 126 68 12 114 99 82 18 2 
118 8 36 73 108 59 46 77 21 119 
119 9 78 55 21 73 46 108 107 57 96 
120 9 134 75 29 64 101 109 102 88 22 
121 9 28 113 51 35 74 95 32 14 129 
122 9 87 70 17 107 33 63 46 11 21 
123 9 26 37 112 133 25 84 110 3 97 
124 9 93 53 86 116 84 25 30 33 97 
125 6 128 104 76 81 105 44 
126 9 114 99 68 12 82 132 117 15 34 
127 9 54 50 111 3 94 89 13 37 6 
128 6 125 76 104 81 44 105 
129 9 39 35 113 28 121 69 5 51 106 
130 9 41 38 15 100 98 67 131 34 12 
131 9 34 15 85 100 99 132 80 130 98 
132 9 82 114 85 99 68 34 101 131 126 
133 9 112 84 25 123 26 116 110 10 33 
134 9 120 29 64 101 75 102 109 22 88 
DEPOT_SECTION
   1
   -1
EOF
