NAME :  X-n110-kX-w43-c7.cctp
COMMENT : 	Adapted by Maziero, Usberti and Cavellucci from the Uchoa, Pecin, Pessoa, Poggi, Subramanian, and Vidal (2013)
TYPE :  CCTP
DIMENSION :    109
EDGE_WEIGHT_TYPE : 	EUC_2D	
CAPACITY : 	66
VERTICES_WITHIN_COVERAGE :  7
VERTICES_WITH_DEMAND : 	43
NODE_COORD_SECTION
1 500 500
2 740 442
3 261 710
4 578 522
5 482 914
6 628 644
7 551 651
8 828 54
9 541 270
10 450 1000
11 521 127
12 738 809
13 323 289
14 803 214
15 556 488
16 758 937
17 875 326
18 113 509
19 491 726
20 415 355
21 946 632
22 136 120
23 117 971
24 817 246
25 491 845
26 454 801
27 676 995
28 145 557
29 166 494
30 977 318
31 363 711
32 164 501
33 833 501
34 444 958
35 828 672
36 714 57
37 51 676
38 922 16
39 673 571
40 211 471
41 590 220
42 305 311
43 953 745
44 154 753
45 918 227
46 819 671
47 675 667
48 617 176
49 706 179
50 512 443
51 302 453
52 753 786
53 331 450
54 765 990
55 249 360
56 292 887
57 371 804
58 786 186
59 382 284
60 44 552
61 107 895
62 108 928
63 523 264
64 397 120
65 25 769
66 98 623
67 946 978
68 815 696
69 314 361
70 447 695
71 878 243
72 341 648
73 363 0
74 675 83
75 998 520
76 98 111
77 628 746
78 940 409
79 786 488
80 323 674
81 986 151
82 790 150
83 180 944
84 533 816
85 750 789
86 589 125
87 640 911
88 99 216
89 754 659
90 828 357
91 597 587
92 929 655
93 159 781
94 955 6
95 63 435
96 130 302
97 954 687
98 866 879
99 131 686
100 519 220
101 454 928
102 415 916
103 468 833
104 109 859
105 806 568
106 907 703
107 821 135
108 622 561
109 482 689
DEMAND_SECTION
2 8
3 10
4 8
5 5
6 10
7 5
8 9
9 10
10 6
11 5
12 10
13 5
14 9
15 10
16 7
17 9
18 7
19 8
20 5
21 8
22 10
23 6
24 8
25 7
26 6
27 7
28 5
29 10
30 10
31 5
32 7
33 5
34 10
35 6
36 7
37 9
38 7
39 7
40 6
41 7
42 10
43 8
44 10
COVERAGE_SECTION
2 7 79 33 90 105 39 108 17 
3 7 80 72 31 44 93 99 57 
4 7 15 108 91 50 39 6 7 
5 7 101 34 102 25 103 10 84 
6 7 47 91 7 108 39 77 89 
7 7 6 91 109 19 70 108 77 
8 7 107 38 82 36 94 58 74 
9 7 63 100 41 48 11 20 86 
10 7 34 101 102 5 25 103 56 
11 7 86 100 48 41 64 63 9 
12 7 85 52 77 16 68 87 98 
13 7 42 59 69 55 20 53 51 
14 7 58 24 82 71 107 49 45 
15 7 4 50 108 91 39 7 6 
16 7 54 27 87 98 12 85 52 
17 7 90 71 24 30 78 45 14 
18 7 32 29 28 60 95 40 66 
19 7 109 70 26 7 84 103 25 
20 7 59 69 13 42 53 50 63 
21 7 92 97 106 43 75 35 46 
22 7 76 88 96 13 42 73 64 
23 6 62 83 61 104 56 93 
24 7 14 71 58 17 82 45 107 
25 7 103 84 26 5 101 102 19 
26 7 103 25 84 57 19 70 109 
27 7 54 87 16 12 5 85 52 
28 7 18 32 29 66 60 40 99 
29 7 32 40 18 28 95 60 51 
30 7 78 17 45 71 90 81 24 
31 7 80 72 70 57 3 109 26 
32 7 29 18 40 28 95 60 66 
33 7 79 105 2 78 90 75 35 
34 7 101 10 102 5 25 103 26 
35 7 46 68 89 106 92 105 21 
36 7 74 8 82 49 107 86 58 
37 7 66 99 65 60 44 93 28 
38 7 94 8 81 107 82 45 36 
39 7 108 91 6 47 4 89 105 
40 7 29 32 51 18 28 55 53 
41 7 48 9 100 63 86 11 49 
42 7 13 69 55 59 20 53 51 
43 7 97 106 92 21 35 68 46 
44 7 93 99 3 104 37 65 66 
45 7 71 81 24 17 30 14 107 
46 7 35 68 89 106 105 92 21 
47 7 6 89 77 39 91 108 7 
48 7 41 86 49 100 11 74 9 
49 7 58 48 82 74 14 36 41 
50 7 15 4 20 108 91 9 63 
51 7 53 40 69 55 29 42 32 
52 7 85 12 68 89 77 46 35 
53 7 51 69 40 55 20 42 13 
54 7 16 27 87 98 67 12 85 
55 7 69 42 13 51 40 53 96 
56 6 57 83 102 101 34 93 
57 7 26 31 103 56 102 25 70 
58 7 14 82 107 24 49 71 45 
59 7 13 20 42 69 63 100 55 
60 7 18 66 28 95 37 32 29 
61 7 62 104 23 83 93 44 65 
62 6 61 23 104 83 93 65 
63 7 9 100 41 48 11 20 59 
64 7 11 73 100 59 13 63 86 
65 7 37 104 44 93 99 61 66 
66 7 37 99 28 60 18 32 44 
67 7 98 54 16 43 12 27 52 
68 7 46 35 89 106 52 85 92 
69 7 42 55 13 53 51 20 59 
70 7 109 19 31 26 7 72 80 
71 7 45 24 14 17 58 107 30 
72 7 80 31 3 70 109 57 19 
73 7 64 11 22 86 100 59 76 
74 7 36 86 49 48 82 58 107 
75 7 21 78 92 33 97 105 30 
76 7 22 88 96 13 73 42 55 
77 7 47 6 84 7 12 85 52 
78 7 30 17 90 75 33 79 71 
79 7 33 2 105 90 39 78 89 
80 7 72 31 3 70 57 109 19 
81 7 45 71 94 38 107 30 8 
82 7 107 58 14 49 24 8 36 
83 6 23 62 61 104 56 93 
84 7 25 103 26 19 5 77 101 
85 7 52 12 68 77 89 46 35 
86 7 48 11 41 74 100 49 36 
87 7 27 16 12 84 54 5 25 
88 7 96 22 76 55 95 42 13 
89 7 46 68 35 47 105 39 6 
90 7 17 24 2 78 71 79 33 
91 7 108 6 4 39 7 15 47 
92 7 21 97 106 43 35 46 68 
93 7 44 104 99 3 61 65 37 
94 7 38 8 81 107 82 45 36 
95 7 18 29 60 32 28 96 40 
96 7 88 55 95 42 22 40 13 
97 7 92 106 21 43 35 46 68 
98 7 16 67 12 52 85 54 43 
99 7 44 66 37 93 28 3 65 
100 7 63 9 41 11 48 86 59 
101 7 5 34 102 10 25 103 26 
102 7 101 34 5 10 103 25 57 
103 7 25 26 84 5 101 102 57 
104 7 61 62 93 83 23 44 65 
105 7 33 79 46 89 35 68 39 
106 7 97 92 43 21 35 68 46 
107 7 82 58 8 14 24 71 49 
108 7 91 39 4 6 15 7 47 
109 7 70 19 7 26 31 84 103 
DEPOT_SECTION
   1
   -1
EOF
