NAME :  X-n106-kX-w42-c7.cctp
COMMENT : 	Adapted by Maziero, Usberti and Cavellucci from the Uchoa, Pecin, Pessoa, Poggi, Subramanian, and Vidal (2013)
TYPE :  CCTP
DIMENSION :    106
EDGE_WEIGHT_TYPE : 	EUC_2D	
CAPACITY : 	600
VERTICES_WITHIN_COVERAGE :  7
VERTICES_WITH_DEMAND : 	42
NODE_COORD_SECTION
1 0 0
2 615 190
3 890 200
4 983 684
5 959 743
6 569 146
7 969 841
8 607 256
9 936 274
10 650 221
11 943 547
12 789 172
13 632 209
14 849 163
15 829 283
16 618 147
17 925 627
18 925 192
19 903 460
20 666 368
21 906 622
22 833 185
23 411 136
24 989 691
25 601 221
26 429 500
27 522 218
28 760 346
29 674 183
30 720 99
31 951 705
32 898 154
33 953 661
34 425 212
35 775 159
36 900 649
37 943 290
38 724 315
39 927 705
40 865 817
41 872 161
42 966 478
43 974 694
44 669 159
45 603 140
46 598 122
47 715 230
48 777 693
49 890 231
50 775 230
51 908 849
52 625 138
53 490 185
54 643 163
55 849 183
56 998 675
57 619 495
58 844 67
59 861 276
60 888 679
61 641 141
62 869 766
63 495 244
64 852 110
65 976 143
66 921 783
67 688 211
68 857 199
69 758 636
70 990 213
71 973 806
72 748 240
73 737 95
74 933 664
75 770 172
76 616 250
77 641 146
78 867 199
79 544 327
80 711 277
81 893 778
82 992 868
83 685 11
84 869 204
85 646 260
86 849 185
87 918 400
88 645 144
89 923 339
90 931 686
91 582 212
92 1000 309
93 572 192
94 676 183
95 989 59
96 798 642
97 582 39
98 686 188
99 995 720
100 802 185
101 603 126
102 657 185
103 574 195
104 661 174
105 614 195
106 961 162
DEMAND_SECTION
2 81
3 64
4 51
5 61
6 71
7 83
8 92
9 66
10 92
11 78
12 98
13 88
14 70
15 72
16 92
17 84
18 51
19 81
20 71
21 98
22 70
23 53
24 76
25 83
26 83
27 77
28 82
29 88
30 58
31 97
32 53
33 52
34 89
35 87
36 50
37 73
38 58
39 100
40 59
41 67
42 75
43 65
COVERAGE_SECTION
2 7 105 13 25 54 91 103 102 
3 7 84 78 49 68 18 41 55 
4 7 24 43 56 31 33 99 90 
5 7 31 99 39 43 66 24 4 
6 7 45 46 101 93 16 103 52 
7 7 71 82 51 66 5 81 40 
8 7 76 25 85 91 13 10 105 
9 7 37 49 89 92 59 70 18 
10 7 13 102 67 85 105 29 76 
11 7 42 17 21 19 36 33 74 
12 7 100 35 75 22 50 14 55 
13 7 10 105 2 25 102 76 104 
14 7 55 86 41 22 68 78 84 
15 7 59 50 49 68 84 72 78 
16 7 52 45 77 61 101 88 54 
17 7 21 36 74 33 90 60 39 
18 7 3 32 106 49 84 78 41 
19 7 87 42 11 89 21 17 37 
20 7 38 28 80 85 8 76 79 
21 7 17 36 74 60 33 90 11 
22 7 55 86 14 68 100 78 84 
23 7 34 53 63 27 6 93 103 
24 7 4 43 56 99 31 33 90 
25 7 91 105 13 76 2 8 103 
26 7 57 79 63 20 34 27 8 
27 7 63 53 93 103 91 25 6 
28 7 38 80 15 20 72 50 59 
29 7 94 98 104 102 44 67 54 
30 7 73 44 35 88 75 61 77 
31 7 39 43 90 4 5 24 33 
32 7 41 3 18 14 78 55 84 
33 7 74 90 4 43 17 31 24 
34 7 53 23 63 27 93 103 91 
35 7 75 12 100 22 50 14 73 
36 7 21 60 17 74 90 33 39 
37 7 9 89 92 49 59 70 18 
38 7 80 28 20 72 47 85 50 
39 7 90 31 74 60 43 5 33 
40 7 81 62 51 66 7 71 5 
41 7 14 32 55 86 78 68 3 
42 7 19 11 87 89 17 21 92 
43 7 4 24 31 56 99 33 90 
44 7 104 29 94 54 88 102 77 
45 7 101 16 46 52 6 61 77 
46 7 101 45 52 16 6 61 77 
47 7 67 72 80 98 50 94 29 
48 7 96 69 60 62 36 81 21 
49 7 3 84 78 68 18 59 86 
50 7 72 100 75 12 47 35 22 
51 7 40 7 66 81 71 82 62 
52 7 16 61 77 88 45 101 46 
53 7 27 63 34 93 103 6 23 
54 7 77 88 104 61 44 102 16 
55 7 86 22 68 14 78 84 41 
56 7 4 24 43 99 33 31 74 
57 7 20 79 26 69 28 38 96 
58 7 64 14 41 32 73 35 55 
59 7 15 49 84 9 68 78 3 
60 7 36 90 39 74 21 17 33 
61 7 77 88 52 54 16 44 45 
62 7 81 40 66 39 60 51 5 
63 7 27 53 34 91 93 103 79 
64 7 58 14 41 32 55 86 22 
65 7 106 18 70 32 95 3 41 
66 7 81 5 62 71 40 51 7 
67 7 98 94 29 47 10 102 104 
68 7 78 84 86 55 22 3 14 
69 7 96 48 60 36 21 17 62 
70 7 106 18 65 9 37 92 3 
71 7 7 66 5 82 51 81 99 
72 7 50 47 80 67 75 100 12 
73 7 30 35 75 12 44 83 88 
74 7 33 90 36 17 39 31 60 
75 7 35 12 100 50 22 72 14 
76 7 8 85 25 13 10 91 105 
77 7 88 61 54 52 16 44 104 
78 7 84 68 3 86 55 22 41 
79 7 8 63 76 27 25 91 85 
80 7 38 47 72 85 67 50 10 
81 7 62 66 40 51 5 39 71 
82 7 7 71 51 66 5 81 40 
83 7 30 73 97 61 88 52 46 
84 7 78 68 3 86 55 49 22 
85 7 76 8 10 13 25 67 80 
86 7 55 22 68 14 78 84 41 
87 7 89 19 42 37 92 9 59 
88 7 77 61 54 52 16 44 104 
89 7 37 87 9 92 59 15 49 
90 7 39 74 31 33 43 60 36 
91 7 103 25 93 105 2 13 8 
92 7 37 9 89 70 87 49 18 
93 7 103 91 25 105 2 6 27 
94 7 29 98 104 102 44 67 54 
95 7 65 106 32 58 64 18 70 
96 7 69 48 60 36 21 17 74 
97 7 46 101 45 83 6 52 16 
98 7 94 29 67 102 104 44 10 
99 7 24 43 4 5 56 31 39 
100 7 12 22 75 35 55 86 14 
101 7 46 45 52 16 6 61 77 
102 7 104 29 94 54 44 98 13 
103 7 93 91 25 105 2 6 27 
104 7 102 29 44 94 54 98 77 
105 7 2 13 25 91 103 93 54 
106 7 65 18 70 32 3 41 49 
DEPOT_SECTION
   1
   -1
EOF
