NAME :  X-n143-kX-w28-c11.cctp
COMMENT : 	Adapted by Maziero, Usberti and Cavellucci from the Uchoa, Pecin, Pessoa, Poggi, Subramanian, and Vidal (2013)
TYPE :  CCTP
DIMENSION :    138
EDGE_WEIGHT_TYPE : 	EUC_2D	
CAPACITY : 	1190
VERTICES_WITHIN_COVERAGE :  11
VERTICES_WITH_DEMAND : 	28
NODE_COORD_SECTION
1 0 0
2 175 821
3 62 495
4 662 959
5 109 216
6 156 748
7 178 957
8 347 184
9 89 814
10 257 265
11 662 892
12 881 69
13 478 9
14 76 79
15 898 650
16 711 766
17 325 163
18 42 411
19 722 221
20 366 190
21 378 521
22 907 497
23 924 738
24 954 524
25 594 724
26 253 89
27 746 971
28 655 716
29 627 301
30 994 958
31 234 979
32 337 173
33 865 383
34 488 878
35 531 291
36 289 151
37 935 667
38 659 800
39 965 898
40 248 436
41 97 623
42 953 932
43 30 810
44 683 120
45 577 83
46 804 302
47 265 688
48 425 392
49 392 371
50 438 417
51 373 511
52 19 913
53 415 49
54 663 461
55 583 355
56 312 683
57 288 508
58 177 874
59 609 113
60 905 309
61 701 895
62 640 112
63 504 95
64 466 606
65 367 726
66 161 8
67 944 892
68 223 393
69 329 371
70 130 888
71 450 443
72 857 128
73 709 966
74 642 967
75 872 705
76 0 414
77 207 911
78 993 855
79 883 147
80 740 490
81 600 372
82 184 48
83 489 259
84 114 737
85 244 783
86 420 439
87 522 41
88 617 177
89 575 340
90 607 806
91 144 513
92 695 974
93 855 318
94 343 206
95 244 929
96 418 513
97 976 38
98 435 672
99 120 988
100 691 853
101 986 418
102 566 975
103 625 733
104 166 787
105 605 798
106 209 194
107 19 892
108 169 840
109 756 913
110 666 928
111 13 829
112 103 304
113 63 384
114 564 787
115 271 50
116 949 738
117 357 228
118 363 898
119 912 704
120 765 462
121 167 348
122 848 405
123 5 76
124 188 65
125 229 41
126 632 968
127 75 96
128 936 903
129 982 492
130 658 258
131 600 833
132 299 593
133 65 277
134 508 995
135 651 522
136 824 865
137 842 802
138 684 432
DEMAND_SECTION
2 95
3 35
4 81
5 12
6 3
7 99
8 47
9 64
10 20
11 47
12 27
13 77
14 50
15 75
16 14
17 24
18 3
19 58
20 65
21 98
22 35
23 35
24 45
25 52
26 11
27 13
28 11
29 76
COVERAGE_SECTION
2 11 108 104 58 6 85 70 9 77 84 95 7 
3 11 91 18 76 113 41 121 68 40 112 133 57 
4 11 74 110 126 92 73 11 61 27 102 109 100 
5 11 133 112 106 127 14 121 10 124 113 123 82 
6 11 104 84 2 108 9 85 47 58 41 43 70 
7 11 77 31 99 95 58 70 108 2 52 9 104 
8 11 32 20 94 17 117 36 10 26 106 53 115 
9 11 43 111 84 104 108 70 2 6 107 58 52 
10 11 106 94 117 36 8 32 121 17 69 20 68 
11 11 110 61 100 4 74 126 131 73 92 38 109 
12 11 72 79 97 44 19 60 46 62 93 59 88 
13 11 87 53 63 45 59 62 115 20 32 17 88 
14 11 127 123 66 82 124 5 125 106 26 115 133 
15 11 37 119 75 23 116 24 22 137 129 16 80 
16 11 38 28 100 103 90 105 25 61 131 11 137 
17 11 32 8 36 94 20 117 26 106 10 115 53 
18 11 113 76 3 112 133 121 91 68 5 40 41 
19 11 130 44 88 46 29 62 59 72 93 79 89 
20 11 8 94 32 117 17 36 10 83 53 26 106 
21 11 51 96 57 86 71 132 50 64 48 49 40 
22 11 24 129 122 101 33 120 15 80 37 93 60 
23 11 116 119 75 37 15 137 78 67 136 39 128 
24 11 129 22 101 15 37 122 33 119 75 120 116 
25 11 103 28 114 105 90 38 131 16 100 98 64 
26 11 115 125 124 36 82 17 106 32 66 8 94 
27 11 73 92 109 4 61 110 74 126 11 100 136 
28 11 103 25 16 38 105 90 114 131 100 11 61 
29 11 130 89 55 81 35 19 88 138 83 54 46 
30 11 42 39 128 67 78 136 137 116 23 109 27 
31 11 95 7 77 99 58 70 118 108 2 85 104 
32 11 8 17 20 94 36 117 26 10 106 115 53 
33 11 122 93 60 46 22 101 120 129 80 24 138 
34 9 114 134 131 102 118 90 105 126 11 
35 11 83 89 55 29 81 130 88 48 50 49 71 
36 11 17 32 8 26 94 20 106 115 117 10 125 
37 11 15 119 23 116 75 24 137 22 129 78 67 
38 11 90 105 16 100 131 103 28 11 114 25 61 
39 11 67 128 42 78 30 136 137 116 23 119 109 
40 11 68 57 69 121 91 51 21 49 132 10 86 
41 11 84 91 3 6 104 47 9 43 132 2 85 
42 11 128 39 67 30 78 136 137 116 23 109 27 
43 11 111 9 107 52 84 70 104 6 108 2 58 
44 11 62 59 88 19 45 130 72 87 63 29 79 
45 11 59 62 87 63 88 44 13 53 130 83 19 
46 11 93 33 60 122 19 130 120 79 29 138 72 
47 10 56 85 132 65 6 104 84 2 98 41 
48 11 50 49 86 71 69 96 51 21 35 83 89 
49 11 48 69 50 86 71 51 96 117 83 21 40 
50 11 48 86 71 49 96 51 69 21 35 89 55 
51 11 21 96 57 86 71 132 50 48 64 49 40 
52 11 107 111 43 70 9 99 58 7 108 2 77 
53 11 13 63 87 115 17 32 20 8 36 45 26 
54 8 138 135 80 120 81 55 89 29 
55 10 89 81 29 35 130 138 54 83 50 71 
56 9 47 65 132 85 98 6 64 21 57 
57 11 40 51 132 21 96 68 69 91 86 49 50 
58 11 108 77 70 2 7 95 104 9 85 31 99 
59 11 62 45 88 44 63 87 130 19 13 29 83 
60 11 93 33 46 122 101 79 72 22 129 19 120 
61 11 11 100 110 109 73 4 92 27 74 126 38 
62 11 59 44 45 88 19 63 87 130 29 13 35 
63 11 87 45 13 53 59 62 88 83 20 8 44 
64 8 98 96 21 51 65 71 132 56 
65 9 56 98 47 85 132 64 118 34 21 
66 11 82 124 125 14 115 26 127 123 36 106 5 
67 11 128 39 42 78 30 136 137 116 23 109 119 
68 11 40 121 69 10 57 91 112 113 49 18 3 
69 11 49 48 40 68 86 50 10 71 57 117 51 
70 11 58 108 77 2 7 9 99 104 107 52 95 
71 10 50 86 48 96 49 51 21 69 55 89 
72 11 79 12 97 19 44 46 60 93 62 130 88 
73 11 92 27 4 110 74 61 109 126 11 100 102 
74 11 126 4 110 92 73 102 11 61 27 100 109 
75 11 119 15 23 37 116 137 136 16 78 24 67 
76 11 18 113 3 112 133 91 121 68 5 41 40 
77 11 95 58 7 31 70 108 2 99 104 85 9 
78 11 39 67 128 42 30 116 23 137 136 119 75 
79 11 72 12 97 60 93 46 19 44 33 62 130 
80 8 120 138 54 135 122 33 22 81 
81 8 55 89 29 138 35 54 130 83 
82 11 124 66 125 26 115 14 127 36 106 123 17 
83 11 35 89 55 117 20 29 48 49 88 94 81 
84 11 6 104 9 2 43 41 108 111 85 58 70 
85 10 104 2 108 6 47 58 56 77 65 84 
86 10 50 71 48 49 96 51 21 69 57 40 
87 11 13 63 45 53 59 62 88 44 20 83 8 
88 11 59 62 44 130 45 19 29 63 35 83 87 
89 11 55 81 29 35 130 83 138 54 50 48 71 
90 11 105 131 114 38 103 25 100 11 28 16 61 
91 11 3 41 40 18 57 68 113 121 132 76 47 
92 11 73 4 27 74 110 126 61 109 11 100 102 
93 11 60 46 33 122 19 101 120 79 22 72 130 
94 11 8 117 20 32 17 36 10 106 26 83 69 
95 11 77 31 7 58 108 70 118 2 99 85 104 
96 10 21 51 86 71 50 64 48 57 132 49 
97 11 12 79 72 60 44 93 19 46 62 33 59 
98 9 64 65 56 132 96 21 25 47 51 
99 11 7 70 31 77 52 58 95 107 108 2 9 
100 11 61 11 38 110 109 16 131 90 105 4 73 
101 11 129 24 22 33 60 122 93 46 120 15 37 
102 11 134 126 74 4 110 34 11 92 73 131 61 
103 11 25 28 105 38 90 114 16 131 100 11 61 
104 11 2 6 108 84 85 9 58 70 77 43 47 
105 11 90 131 114 38 103 25 28 100 11 16 61 
106 11 10 36 5 26 17 32 124 94 8 82 117 
107 11 52 111 43 9 70 99 58 108 2 7 104 
108 11 2 58 104 70 77 9 6 85 95 7 84 
109 11 61 27 73 136 92 100 110 11 4 74 126 
110 11 4 11 74 61 126 92 73 100 27 109 102 
111 11 43 107 9 52 70 84 108 104 2 6 58 
112 11 133 121 5 113 18 68 76 106 10 3 40 
113 11 18 76 112 133 121 3 91 68 5 40 10 
114 11 105 90 131 25 103 38 28 34 100 11 16 
115 11 26 125 124 82 36 66 17 32 53 8 106 
116 11 23 119 37 75 15 78 137 67 39 128 136 
117 11 94 20 8 32 17 36 10 83 69 49 106 
118 9 95 34 31 77 85 65 134 58 7 
119 11 23 75 37 116 15 137 78 136 24 67 128 
120 9 80 138 122 54 33 135 22 46 93 
121 11 68 112 113 40 10 133 18 5 106 69 91 
122 10 33 93 120 22 46 60 80 101 24 129 
123 11 14 127 66 5 82 124 133 125 106 26 112 
124 11 82 125 66 26 115 14 127 106 36 17 5 
125 11 115 82 124 26 66 36 106 17 14 127 32 
126 11 74 4 110 92 102 73 11 61 27 134 100 
127 11 14 123 124 82 66 5 125 106 26 133 115 
128 11 67 39 42 78 30 136 137 23 116 109 119 
129 11 24 101 22 33 122 15 37 60 93 120 119 
130 11 29 19 88 89 55 81 35 44 62 46 59 
131 11 90 105 114 38 11 100 103 25 110 61 34 
132 11 57 56 47 21 51 96 65 98 40 64 91 
133 11 112 5 113 121 18 76 106 127 10 68 14 
134 11 102 34 126 74 4 110 118 11 131 92 73 
135 8 54 80 138 120 81 55 28 89 
136 11 137 109 128 67 61 27 100 39 42 16 73 
137 11 136 75 23 119 116 16 67 128 109 39 100 
138 8 54 80 120 135 81 55 29 89 
DEPOT_SECTION
   1
   -1
EOF
