NAME :  X-n110-kX-w43-c11.cctp
COMMENT : 	Adapted by Maziero, Usberti and Cavellucci from the Uchoa, Pecin, Pessoa, Poggi, Subramanian, and Vidal (2013)
TYPE :  CCTP
DIMENSION :    110
EDGE_WEIGHT_TYPE : 	EUC_2D	
CAPACITY : 	66
VERTICES_WITHIN_COVERAGE :  11
VERTICES_WITH_DEMAND : 	43
NODE_COORD_SECTION
1 500 500
2 740 442
3 261 710
4 578 522
5 482 914
6 628 644
7 551 651
8 828 54
9 541 270
10 450 1000
11 521 127
12 738 809
13 323 289
14 803 214
15 556 488
16 758 937
17 875 326
18 113 509
19 491 726
20 415 355
21 946 632
22 136 120
23 117 971
24 817 246
25 491 845
26 454 801
27 676 995
28 145 557
29 166 494
30 977 318
31 363 711
32 164 501
33 833 501
34 444 958
35 828 672
36 714 57
37 51 676
38 922 16
39 673 571
40 211 471
41 590 220
42 305 311
43 953 745
44 154 753
45 918 227
46 819 671
47 675 667
48 617 176
49 706 179
50 512 443
51 302 453
52 753 786
53 331 450
54 765 990
55 249 360
56 292 887
57 371 804
58 786 186
59 382 284
60 44 552
61 107 895
62 108 928
63 523 264
64 397 120
65 25 769
66 98 623
67 946 978
68 815 696
69 314 361
70 447 695
71 878 243
72 341 648
73 363 0
74 675 83
75 998 520
76 98 111
77 267 902
78 628 746
79 940 409
80 786 488
81 323 674
82 986 151
83 790 150
84 180 944
85 533 816
86 750 789
87 589 125
88 640 911
89 99 216
90 754 659
91 828 357
92 597 587
93 929 655
94 159 781
95 955 6
96 63 435
97 130 302
98 954 687
99 866 879
100 131 686
101 519 220
102 454 928
103 415 916
104 468 833
105 109 859
106 806 568
107 907 703
108 821 135
109 622 561
110 482 689
DEMAND_SECTION
2 8
3 10
4 8
5 5
6 10
7 5
8 9
9 10
10 6
11 5
12 10
13 5
14 9
15 10
16 7
17 9
18 7
19 8
20 5
21 8
22 10
23 6
24 8
25 7
26 6
27 7
28 5
29 10
30 10
31 5
32 7
33 5
34 10
35 6
36 7
37 9
38 7
39 7
40 6
41 7
42 10
43 8
44 10
COVERAGE_SECTION
2 11 80 33 91 106 39 109 17 4 15 79 92 
3 11 81 72 31 44 94 100 57 56 66 70 28 
4 11 15 109 92 50 39 6 7 47 2 110 80 
5 11 102 34 103 25 104 10 85 26 57 88 19 
6 11 47 92 7 109 39 78 90 4 110 19 15 
7 11 6 92 110 19 70 109 78 47 4 39 15 
8 11 108 38 83 36 95 58 74 14 49 82 24 
9 11 63 101 41 48 11 20 87 59 50 49 64 
10 11 34 102 103 5 25 104 56 26 85 77 88 
11 11 87 101 48 41 64 63 9 74 49 73 36 
12 11 86 52 78 16 68 88 99 90 47 46 35 
13 11 42 59 69 55 20 53 51 64 97 63 101 
14 11 58 24 83 71 108 49 45 17 91 8 36 
15 11 4 50 109 92 39 7 6 2 20 110 47 
16 11 54 27 88 99 12 86 52 67 78 68 85 
17 11 91 71 24 30 79 45 14 58 2 33 80 
18 11 32 29 28 60 96 40 66 37 100 51 55 
19 11 110 70 26 7 85 104 25 31 78 57 6 
20 11 59 69 13 42 53 50 63 51 9 55 101 
21 11 93 98 107 43 75 35 46 68 106 33 90 
22 11 76 89 97 13 42 73 64 55 59 69 96 
23 11 62 84 61 105 77 56 94 44 65 100 3 
24 11 14 71 58 17 83 45 108 91 49 30 8 
25 11 104 85 26 5 102 103 19 34 57 70 110 
26 11 104 25 85 57 19 70 110 5 103 102 31 
27 11 54 88 16 12 5 86 52 99 10 85 102 
28 11 18 32 29 66 60 40 100 96 37 51 3 
29 11 32 40 18 28 96 60 51 66 55 53 97 
30 11 79 17 45 71 91 82 24 14 75 58 33 
31 11 81 72 70 57 3 110 26 19 104 25 56 
32 11 29 18 40 28 96 60 66 51 55 53 100 
33 11 80 106 2 79 91 75 35 46 21 39 90 
34 11 102 10 103 5 25 104 26 56 85 57 77 
35 11 46 68 90 107 93 106 21 98 52 86 43 
36 11 74 8 83 49 108 87 58 48 14 11 41 
37 11 66 100 65 60 44 94 28 18 105 32 3 
38 11 95 8 82 108 83 45 36 58 14 71 24 
39 11 109 92 6 47 4 90 106 80 15 2 7 
40 11 29 32 51 18 28 55 53 69 96 42 60 
41 11 48 9 101 63 87 11 49 74 58 36 83 
42 11 13 69 55 59 20 53 51 97 40 64 63 
43 11 98 107 93 21 35 68 46 99 52 86 90 
44 11 94 100 3 105 37 65 66 61 62 77 81 
45 11 71 82 24 17 30 14 108 58 83 91 79 
46 11 35 68 90 107 106 93 21 52 98 86 47 
47 11 6 90 78 39 92 109 7 52 68 86 46 
48 11 41 87 49 101 11 74 9 63 36 58 83 
49 11 58 48 83 74 14 36 41 108 87 24 8 
50 11 15 4 20 109 92 9 63 53 59 39 51 
51 11 53 40 69 55 29 42 32 20 13 59 28 
52 11 86 12 68 90 78 46 35 47 99 16 88 
53 11 51 69 40 55 20 42 13 29 59 32 50 
54 11 16 27 88 99 67 12 86 52 78 85 5 
55 11 69 42 13 51 40 53 97 59 29 32 20 
56 11 77 57 84 103 102 34 94 3 26 104 61 
57 11 26 31 104 56 103 25 70 81 19 77 3 
58 11 14 83 108 24 49 71 45 8 36 74 17 
59 11 13 20 42 69 63 101 55 9 64 53 51 
60 11 18 66 28 96 37 32 29 100 40 65 44 
61 11 62 105 23 84 94 44 65 77 56 100 37 
62 11 61 23 105 84 94 77 65 44 56 100 37 
63 11 9 101 41 48 11 20 59 87 50 64 13 
64 11 11 73 101 59 13 63 87 9 42 41 48 
65 11 37 105 44 94 100 61 66 62 60 23 84 
66 11 37 100 28 60 18 32 44 29 65 94 3 
67 11 99 54 16 43 12 27 52 86 107 98 68 
68 11 46 35 90 107 52 86 93 106 12 98 47 
69 11 42 55 13 53 51 20 59 40 97 29 32 
70 11 110 19 31 26 7 72 81 57 104 85 25 
71 11 45 24 14 17 58 108 30 91 83 82 79 
72 11 81 31 3 70 110 57 19 26 53 51 7 
73 11 64 11 22 87 101 59 76 13 48 63 41 
74 11 36 87 49 48 83 58 108 8 11 41 14 
75 11 21 79 93 33 98 106 30 107 80 35 43 
76 11 22 89 97 13 73 42 55 64 96 69 59 
77 11 56 84 57 103 61 62 94 105 23 34 44 
78 11 47 6 85 7 12 86 52 19 90 110 92 
79 11 30 17 91 75 33 80 71 45 2 24 106 
80 11 33 2 106 91 39 79 90 109 17 46 35 
81 11 72 31 3 70 57 110 19 26 44 100 94 
82 11 45 71 95 38 108 30 8 14 24 83 58 
83 11 108 58 14 49 24 8 36 71 74 45 48 
84 11 23 62 61 77 105 56 94 44 65 57 103 
85 11 25 104 26 19 5 78 102 110 88 70 103 
86 11 52 12 68 78 90 46 35 47 99 16 88 
87 11 48 11 41 74 101 49 36 9 63 64 83 
88 11 27 16 12 85 54 5 25 86 78 52 102 
89 11 97 22 76 55 96 42 13 69 40 29 59 
90 11 46 68 35 47 106 39 6 52 86 12 78 
91 11 17 24 2 79 71 80 33 14 30 45 58 
92 11 109 6 4 39 7 15 47 110 78 50 90 
93 11 21 98 107 43 35 46 68 106 75 90 33 
94 11 44 105 100 3 61 65 37 62 77 84 66 
95 11 38 8 82 108 83 45 36 58 71 14 24 
96 11 18 29 60 32 28 97 40 66 55 89 51 
97 11 89 55 96 42 22 40 13 69 76 29 32 
98 11 93 107 21 43 35 46 68 75 106 90 99 
99 11 16 67 12 52 86 54 43 107 68 35 98 
100 11 44 66 37 94 28 3 65 60 105 18 32 
101 11 63 9 41 11 48 87 59 64 20 49 13 
102 11 5 34 103 10 25 104 26 85 57 56 88 
103 11 102 34 5 10 104 25 57 26 56 77 85 
104 11 25 26 85 5 102 103 57 19 34 70 110 
105 11 61 62 94 84 23 44 65 77 100 56 37 
106 11 33 80 46 90 35 68 39 2 93 21 47 
107 11 98 93 43 21 35 68 46 90 106 52 86 
108 11 83 58 8 14 24 71 49 36 45 74 38 
109 11 92 39 4 6 15 7 47 50 90 2 80 
110 11 70 19 7 26 31 85 104 72 6 92 25 
DEPOT_SECTION
   1
   -1
EOF
