NAME :  X-n129-kX-w12-c7.cctp
COMMENT : 	Adapted by Maziero, Usberti and Cavellucci from the Uchoa, Pecin, Pessoa, Poggi, Subramanian, and Vidal (2013)
TYPE :  CCTP
DIMENSION :    71
EDGE_WEIGHT_TYPE : 	EUC_2D	
CAPACITY : 	39
VERTICES_WITHIN_COVERAGE :  7
VERTICES_WITH_DEMAND : 	12
NODE_COORD_SECTION
1 0 0
2 51 570
3 691 985
4 66 119
5 502 415
6 434 289
7 427 584
8 342 576
9 790 87
10 312 475
11 908 531
12 840 566
13 863 232
14 768 209
15 777 582
16 84 508
17 380 523
18 544 961
19 408 661
20 57 588
21 223 385
22 560 632
23 765 267
24 459 976
25 585 962
26 931 52
27 871 677
28 35 437
29 503 680
30 677 829
31 375 220
32 367 567
33 986 869
34 761 712
35 75 520
36 14 737
37 895 632
38 328 387
39 817 531
40 209 574
41 490 395
42 410 207
43 439 179
44 886 558
45 897 547
46 469 396
47 607 437
48 202 433
49 873 595
50 103 184
51 466 416
52 51 200
53 899 471
54 482 432
55 991 388
56 933 309
57 497 404
58 776 626
59 877 515
60 821 533
61 456 317
62 733 533
63 499 470
64 822 285
65 934 461
66 533 242
67 467 432
68 385 239
69 272 512
70 379 165
71 610 408
DEMAND_SECTION
2 9
3 8
4 8
5 4
6 4
7 3
8 6
9 10
10 8
11 8
12 3
13 2
COVERAGE_SECTION
2 6 20 35 16 28 40 36 
3 5 25 18 30 24 34 
4 2 50 52 
5 7 57 41 54 51 46 67 63 
6 7 61 68 42 31 43 66 46 
7 7 32 17 19 8 29 63 22 
8 6 32 17 7 69 10 19 
9 2 14 26 
10 7 69 17 38 8 32 48 21 
11 7 45 44 59 53 49 65 12 
12 7 60 39 49 44 45 59 15 
13 4 64 14 23 56 
14 4 23 64 13 9 
15 7 58 12 39 60 62 49 44 
16 6 35 2 20 28 48 40 
17 7 32 8 7 10 69 67 63 
18 5 25 24 3 30 29 
19 6 7 29 32 8 17 22 
20 6 2 35 16 28 40 36 
21 3 48 38 10 
22 7 29 7 19 63 62 47 32 
23 3 14 64 13 
24 4 18 25 3 30 
25 6 18 3 24 30 29 34 
26 5 9 13 14 56 64 
27 7 37 49 58 12 34 44 45 
28 3 16 35 2 
29 6 22 19 7 32 8 17 
30 6 34 3 25 18 58 22 
31 5 68 42 70 43 6 
32 7 8 17 7 19 10 69 40 
33 6 27 37 34 49 30 3 
34 7 58 27 15 30 37 49 12 
35 6 16 2 20 28 40 48 
36 2 20 2 
37 7 49 27 44 45 12 11 59 
38 4 10 21 48 69 
39 7 60 12 59 15 44 45 62 
40 3 69 8 16 
41 7 57 46 5 51 54 67 63 
42 5 31 43 68 70 6 
43 6 42 70 31 68 6 66 
44 7 45 11 49 59 12 60 39 
45 7 44 11 59 49 12 53 60 
46 7 51 41 57 67 5 54 61 
47 4 71 5 63 57 
48 5 21 69 10 38 16 
49 7 44 37 12 45 11 59 60 
50 2 52 4 
51 7 67 46 54 41 57 5 63 
52 2 50 4 
53 6 65 59 11 45 44 60 
54 7 67 51 5 57 41 46 63 
55 5 65 56 53 11 59 
56 4 55 13 64 65 
57 7 41 5 46 54 51 67 63 
58 7 15 34 12 49 62 39 60 
59 7 11 45 44 53 60 39 12 
60 7 39 12 59 15 44 45 49 
61 7 6 46 41 57 51 68 66 
62 5 15 39 60 58 12 
63 7 54 67 5 51 57 41 46 
64 3 23 13 14 
65 6 53 11 59 55 45 44 
66 2 61 6 
67 7 54 51 46 5 57 41 63 
68 6 31 42 6 70 43 61 
69 7 10 40 8 48 17 32 21 
70 5 42 31 43 68 6 
71 3 47 5 57 
DEPOT_SECTION
   1
   -1
EOF
