NAME :  X-n190-kX-w18-c7.cctp
COMMENT : 	Adapted by Maziero, Usberti and Cavellucci from the Uchoa, Pecin, Pessoa, Poggi, Subramanian, and Vidal (2013)
TYPE :  CCTP
DIMENSION :    113
EDGE_WEIGHT_TYPE : 	EUC_2D	
CAPACITY : 	138
VERTICES_WITHIN_COVERAGE :  7
VERTICES_WITH_DEMAND : 	18
NODE_COORD_SECTION
1 0 0
2 425 323
3 806 514
4 853 637
5 564 311
6 871 502
7 803 526
8 822 680
9 827 577
10 834 646
11 636 403
12 699 724
13 830 479
14 486 257
15 411 384
16 881 642
17 424 422
18 807 718
19 949 612
20 836 662
21 822 508
22 823 464
23 390 502
24 868 651
25 994 676
26 817 658
27 591 333
28 776 532
29 811 509
30 813 517
31 793 488
32 944 655
33 847 594
34 696 429
35 454 303
36 369 330
37 874 502
38 860 564
39 381 508
40 901 482
41 828 575
42 434 177
43 827 622
44 757 746
45 977 648
46 826 595
47 439 212
48 514 184
49 836 661
50 503 227
51 499 447
52 932 582
53 904 484
54 453 362
55 636 374
56 911 613
57 834 510
58 772 732
59 825 882
60 401 275
61 965 597
62 841 501
63 443 318
64 854 615
65 821 631
66 646 327
67 842 630
68 960 576
69 828 580
70 876 502
71 532 332
72 817 655
73 777 522
74 525 263
75 713 403
76 837 649
77 766 750
78 411 544
79 362 490
80 484 275
81 736 784
82 911 461
83 882 671
84 845 506
85 453 298
86 581 300
87 828 569
88 461 360
89 853 527
90 447 363
91 953 573
92 411 333
93 981 614
94 843 695
95 796 701
96 459 378
97 407 302
98 832 667
99 575 296
100 430 313
101 490 287
102 419 448
103 499 256
104 427 245
105 701 703
106 859 496
107 811 591
108 991 637
109 405 298
110 394 306
111 942 611
112 876 663
113 850 696
DEMAND_SECTION
2 3
3 7
4 2
5 4
6 3
7 2
8 4
9 1
10 6
11 6
12 9
13 2
14 4
15 1
16 8
17 4
18 2
19 5
COVERAGE_SECTION
2 7 100 92 63 97 109 35 110 
3 7 29 30 7 21 57 31 73 
4 7 67 76 10 24 64 16 49 
5 7 99 86 27 71 74 101 66 
6 7 37 70 106 84 62 89 40 
7 7 3 30 29 21 73 28 57 
8 6 98 20 26 49 72 94 
9 7 41 69 87 46 107 33 38 
10 7 76 49 20 67 72 65 4 
11 5 55 34 66 75 27 
12 5 105 44 81 77 58 
13 6 22 62 21 57 84 106 
14 7 103 80 101 50 74 85 35 
15 6 17 90 54 96 92 88 
16 6 24 112 4 83 64 67 
17 6 102 15 96 90 54 88 
18 7 95 58 8 94 113 77 44 
19 7 111 61 93 52 56 68 91 
20 6 49 98 76 10 26 72 
21 7 29 57 30 3 62 84 7 
22 2 13 31 
23 7 39 79 78 102 17 15 51 
24 6 112 16 4 83 76 67 
25 7 45 108 32 93 19 111 61 
26 7 72 98 20 49 10 76 8 
27 7 86 5 99 66 71 55 11 
28 2 73 7 
29 7 3 30 21 7 57 31 62 
30 7 3 29 7 21 57 62 84 
31 2 29 3 
32 7 45 19 111 108 56 25 93 
33 7 46 64 69 9 41 87 38 
34 2 75 11 
35 7 85 63 100 2 101 80 97 
36 5 110 92 97 109 2 
37 7 70 6 106 84 62 89 40 
38 4 87 33 41 9 
39 7 23 79 78 102 17 15 51 
40 5 53 82 70 37 6 
41 7 9 69 87 46 107 33 38 
42 5 47 104 48 50 14 
43 5 65 67 10 46 64 
44 7 77 58 81 18 95 12 105 
45 7 108 25 32 93 19 111 61 
46 6 69 107 9 41 33 87 
47 7 42 104 14 50 60 103 80 
48 7 50 103 14 42 47 74 80 
49 6 20 98 76 10 26 72 
50 7 103 14 74 48 80 101 47 
51 4 17 96 102 88 
52 6 91 68 111 19 61 56 
53 5 40 82 70 37 6 
54 6 90 88 96 63 15 2 
55 7 11 66 27 34 75 86 5 
56 4 111 52 19 16 
57 7 62 21 84 30 29 89 3 
58 7 77 44 18 95 81 8 12 
59 6 81 77 44 58 18 95 
60 6 109 97 110 104 100 2 
61 7 19 68 93 91 111 52 108 
62 7 84 57 106 21 13 89 6 
63 7 100 2 35 85 92 97 109 
64 7 67 4 33 43 46 10 65 
65 6 43 10 67 72 76 26 
66 7 55 27 86 11 99 5 75 
67 7 4 43 10 64 76 65 49 
68 6 91 61 52 19 111 93 
69 7 9 41 87 46 107 33 38 
70 7 37 6 106 84 40 53 89 
71 6 5 99 27 86 101 74 
72 6 26 10 98 20 49 76 
73 4 28 7 3 29 
74 7 103 14 50 101 80 99 5 
75 2 34 11 
76 7 10 49 20 98 4 67 72 
77 7 44 58 81 18 95 12 105 
78 7 23 39 79 102 17 51 15 
79 6 39 23 102 78 17 15 
80 7 101 14 103 85 35 74 50 
81 7 44 77 58 12 105 18 95 
82 5 40 53 70 37 6 
83 5 112 24 16 113 4 
84 7 62 57 106 89 21 6 37 
85 7 35 63 100 2 80 101 97 
86 7 99 5 27 71 74 66 55 
87 7 41 9 69 46 107 33 38 
88 5 54 90 96 63 2 
89 6 84 57 62 6 106 37 
90 6 54 88 96 15 63 2 
91 6 68 52 61 19 111 93 
92 7 2 100 97 110 63 109 36 
93 7 61 108 19 45 111 68 91 
94 6 113 8 98 20 49 18 
95 7 18 8 58 94 26 98 72 
96 5 54 88 90 15 17 
97 7 109 110 100 2 60 92 63 
98 7 20 49 8 26 72 76 10 
99 7 86 5 27 71 74 66 101 
100 7 2 63 97 35 85 92 109 
101 7 80 14 103 35 85 74 63 
102 7 17 23 15 39 79 51 96 
103 7 14 80 74 50 101 85 35 
104 7 47 60 109 85 14 97 35 
105 4 12 44 58 77 
106 7 6 37 84 70 62 57 89 
107 4 46 69 9 41 
108 7 45 93 25 61 19 32 111 
109 7 97 110 60 100 2 92 63 
110 7 97 109 60 92 2 36 100 
111 7 19 61 52 56 68 93 91 
112 6 83 24 16 4 20 49 
113 5 94 8 98 20 49 
DEPOT_SECTION
   1
   -1
EOF
