NAME :  X-n176-kX-w17-c9.cctp
COMMENT : 	Adapted by Maziero, Usberti and Cavellucci from the Uchoa, Pecin, Pessoa, Poggi, Subramanian, and Vidal (2013)
TYPE :  CCTP
DIMENSION :    140
EDGE_WEIGHT_TYPE : 	EUC_2D	
CAPACITY : 	142
VERTICES_WITHIN_COVERAGE :  9
VERTICES_WITH_DEMAND : 	17
NODE_COORD_SECTION
1 0 0
2 628 103
3 291 573
4 129 447
5 973 643
6 830 868
7 398 563
8 731 423
9 201 995
10 167 174
11 13 605
12 446 262
13 229 774
14 740 231
15 21 546
16 224 615
17 605 837
18 473 759
19 758 880
20 580 935
21 622 494
22 513 236
23 659 797
24 606 204
25 267 688
26 606 754
27 841 676
28 1 247
29 195 486
30 644 771
31 524 45
32 769 471
33 940 790
34 243 453
35 410 464
36 465 161
37 417 304
38 616 944
39 609 356
40 738 932
41 462 718
42 847 459
43 792 940
44 434 318
45 1000 647
46 145 182
47 540 249
48 208 760
49 759 988
50 66 221
51 520 521
52 260 508
53 307 468
54 747 308
55 421 505
56 373 597
57 876 881
58 502 242
59 343 764
60 275 610
61 434 161
62 698 364
63 600 881
64 875 724
65 728 253
66 502 969
67 237 907
68 868 263
69 680 306
70 450 898
71 126 415
72 565 260
73 172 126
74 137 674
75 789 958
76 853 147
77 762 111
78 416 626
79 63 237
80 194 75
81 616 133
82 304 699
83 758 40
84 249 141
85 848 770
86 791 803
87 884 980
88 618 107
89 858 644
90 116 388
91 939 880
92 217 912
93 138 217
94 542 965
95 775 294
96 839 459
97 21 751
98 248 883
99 34 101
100 274 824
101 408 641
102 838 846
103 758 816
104 481 156
105 548 809
106 660 393
107 380 849
108 433 893
109 312 347
110 295 480
111 277 519
112 833 970
113 760 470
114 33 455
115 289 176
116 283 845
117 953 937
118 164 71
119 539 756
120 679 880
121 857 842
122 184 455
123 181 70
124 136 928
125 23 17
126 127 710
127 657 422
128 248 593
129 109 805
130 754 487
131 923 157
132 74 961
133 261 663
134 984 135
135 281 227
136 673 176
137 78 322
138 177 543
139 590 199
140 9 343
DEMAND_SECTION
2 94
3 65
4 69
5 89
6 74
7 95
8 87
9 96
10 56
11 94
12 79
13 91
14 75
15 54
16 97
17 93
18 81
COVERAGE_SECTION
2 8 88 81 136 24 139 31 77 83 
3 9 60 128 111 52 16 56 110 133 53 
4 9 71 122 90 29 114 138 34 137 52 
5 6 45 89 64 27 33 85 
6 9 102 121 57 19 86 43 103 75 85 
7 9 56 55 78 101 35 3 51 111 53 
8 8 113 32 62 130 127 106 96 54 
9 7 92 124 67 98 132 116 100 
10 9 46 73 93 84 80 118 123 50 79 
11 7 15 74 97 114 126 138 4 
12 9 37 44 58 22 47 61 36 104 72 
13 9 48 100 116 25 82 98 59 133 126 
14 9 65 95 54 136 69 77 68 24 62 
15 9 11 114 4 138 71 74 29 90 122 
16 9 128 60 133 3 25 138 74 111 52 
17 9 63 105 23 30 26 120 20 119 38 
18 9 41 119 105 107 59 26 101 108 70 
19 9 40 103 43 6 120 75 86 102 121 
20 9 38 94 63 66 17 120 105 70 108 
21 5 127 51 106 8 130 
22 9 58 47 72 12 139 104 36 24 61 
23 9 30 17 26 120 103 63 105 119 19 
24 9 139 72 81 136 47 22 88 2 58 
25 9 133 82 60 16 48 13 128 59 3 
26 8 30 119 23 105 17 63 18 120 
27 4 89 64 85 5 
28 9 79 50 140 137 93 99 46 10 90 
29 9 122 34 138 52 4 111 71 110 53 
30 8 23 26 17 105 119 120 63 103 
31 6 88 2 104 81 36 61 
32 5 113 130 8 96 42 
33 8 91 64 85 121 57 102 6 117 
34 8 29 52 110 122 53 111 138 4 
35 7 55 7 53 110 51 56 111 
36 5 104 61 22 58 12 
37 9 44 12 58 109 22 47 61 36 72 
38 9 20 63 94 120 17 66 40 49 105 
39 7 106 127 69 62 72 47 8 
40 9 43 19 75 49 120 112 6 103 38 
41 6 18 119 101 78 105 59 
42 5 96 32 113 130 8 
43 9 75 112 40 49 19 6 87 57 102 
44 8 37 12 58 22 109 47 72 35 
45 6 5 89 64 33 27 85 
46 9 10 93 73 50 79 84 118 80 123 
47 8 72 22 58 139 24 12 104 36 
48 8 13 100 25 126 129 133 74 116 
49 9 75 43 40 112 19 87 120 6 38 
50 9 79 28 93 46 137 10 99 140 73 
51 4 55 21 35 7 
52 9 111 110 34 53 29 3 128 138 122 
53 8 110 111 52 34 35 3 29 55 
54 9 95 65 69 62 14 8 106 68 127 
55 7 35 7 51 56 53 78 110 
56 9 7 78 101 3 60 55 82 111 128 
57 9 121 6 102 91 117 87 112 43 33 
58 9 22 47 12 72 36 104 139 44 37 
59 9 82 100 107 116 25 13 41 18 133 
60 9 128 3 16 133 25 111 82 56 52 
61 5 36 104 12 58 22 
62 8 106 69 8 127 54 39 95 65 
63 9 17 20 38 120 105 94 23 30 26 
64 7 85 27 89 33 86 121 5 
65 9 14 54 95 69 136 62 24 68 77 
66 9 94 20 70 108 38 63 105 17 107 
67 8 92 98 116 100 9 124 13 48 
68 7 95 76 131 54 14 65 134 
69 8 62 54 65 39 106 14 95 127 
70 9 108 107 66 94 105 20 18 63 17 
71 9 90 4 122 29 114 137 34 140 138 
72 8 47 22 58 139 24 39 12 69 
73 7 10 80 118 123 46 84 93 
74 7 126 16 48 133 25 129 13 
75 9 43 49 112 40 19 87 6 57 102 
76 9 131 77 68 134 14 83 65 95 136 
77 9 83 76 136 14 2 88 65 81 131 
78 8 101 56 7 41 55 82 3 60 
79 9 50 28 93 137 46 140 10 99 73 
80 6 123 118 73 84 10 46 
81 8 88 2 136 139 24 31 72 104 
82 9 25 133 59 60 13 48 16 101 128 
83 9 77 76 2 88 136 81 14 131 65 
84 6 115 73 80 10 135 123 
85 8 64 86 121 102 27 33 6 103 
86 8 103 102 85 6 121 19 57 64 
87 9 112 117 75 57 43 91 6 49 121 
88 7 2 81 136 139 24 31 77 
89 4 27 64 5 85 
90 9 71 4 137 122 114 140 29 34 79 
91 8 117 57 33 121 102 6 87 112 
92 8 67 98 124 9 116 100 13 132 
93 9 46 10 50 79 73 137 84 28 135 
94 9 66 20 38 63 70 108 17 105 120 
95 8 54 65 14 69 68 62 8 106 
96 5 42 32 113 130 8 
97 4 129 126 74 11 
98 9 67 92 116 100 13 9 124 48 107 
99 9 125 50 118 46 79 73 28 123 10 
100 9 116 98 13 59 67 48 92 107 82 
101 8 78 56 7 41 82 3 18 55 
102 9 121 6 57 86 85 103 19 43 91 
103 9 86 19 102 6 23 85 120 121 40 
104 6 36 61 22 58 47 12 
105 9 119 17 26 63 18 30 23 41 20 
106 7 127 62 39 8 69 21 54 
107 9 108 70 59 116 100 18 98 67 41 
108 9 70 107 66 94 18 105 20 59 116 
109 8 37 53 135 44 34 110 35 12 
110 8 53 111 52 34 3 29 122 35 
111 8 52 110 3 53 34 128 29 60 
112 9 75 43 87 49 57 6 40 19 102 
113 5 32 130 8 96 42 
114 9 15 4 71 90 140 137 11 122 29 
115 4 135 84 10 73 
116 9 100 98 67 13 92 107 59 48 82 
117 9 91 87 57 112 121 6 102 33 43 
118 6 123 80 73 10 84 46 
119 8 105 18 26 41 17 30 23 63 
120 9 19 40 63 23 17 38 103 20 30 
121 8 102 6 57 85 86 91 33 103 
122 9 29 4 34 71 138 52 90 111 110 
123 6 80 118 73 84 10 46 
124 6 132 92 9 67 98 129 
125 8 99 118 123 80 73 46 50 10 
126 6 74 48 129 97 13 16 
127 7 106 62 8 21 39 113 130 
128 9 60 16 3 133 111 52 138 25 29 
129 4 126 97 48 13 
130 5 113 32 8 96 42 
131 8 134 76 68 77 14 83 95 65 
132 4 124 9 92 129 
133 9 25 60 82 16 128 3 48 13 74 
134 8 131 76 68 77 83 14 95 65 
135 5 115 84 109 10 46 
136 9 81 24 2 139 14 88 65 77 69 
137 9 140 90 79 50 71 28 93 4 114 
138 9 29 16 128 122 52 111 4 34 3 
139 9 24 72 47 81 22 136 88 58 2 
140 9 137 28 114 90 79 50 71 4 93 
DEPOT_SECTION
   1
   -1
EOF
