NAME :  X-n195-kX-w38-c11.cctp
COMMENT : 	Adapted by Maziero, Usberti and Cavellucci from the Uchoa, Pecin, Pessoa, Poggi, Subramanian, and Vidal (2013)
TYPE :  CCTP
DIMENSION :    162
EDGE_WEIGHT_TYPE : 	EUC_2D	
CAPACITY : 	181
VERTICES_WITHIN_COVERAGE :  11
VERTICES_WITH_DEMAND : 	38
NODE_COORD_SECTION
1 500 500
2 691 729
3 978 828
4 427 367
5 777 543
6 190 596
7 773 750
8 234 727
9 851 358
10 140 69
11 891 285
12 467 13
13 537 162
14 636 355
15 213 284
16 75 877
17 384 814
18 606 173
19 76 236
20 86 733
21 642 61
22 303 261
23 771 775
24 107 264
25 763 43
26 811 873
27 38 170
28 822 920
29 907 792
30 539 273
31 576 836
32 491 411
33 430 725
34 727 248
35 532 825
36 457 218
37 398 153
38 942 597
39 8 330
40 637 85
41 75 781
42 560 188
43 27 523
44 432 198
45 359 691
46 695 372
47 203 307
48 641 389
49 836 612
50 375 499
51 818 980
52 577 226
53 889 259
54 516 324
55 102 346
56 318 976
57 223 11
58 484 245
59 365 982
60 648 790
61 878 261
62 600 800
63 493 722
64 549 214
65 714 918
66 638 166
67 452 172
68 711 687
69 924 905
70 786 203
71 24 32
72 529 661
73 843 248
74 115 449
75 82 971
76 876 644
77 322 24
78 642 810
79 685 607
80 141 824
81 641 954
82 330 941
83 830 188
84 469 250
85 970 812
86 723 360
87 274 238
88 668 103
89 269 147
90 135 493
91 895 953
92 930 729
93 579 972
94 546 102
95 967 393
96 388 767
97 968 434
98 517 382
99 974 455
100 537 160
101 457 1
102 768 432
103 295 704
104 802 446
105 785 358
106 592 694
107 527 109
108 607 347
109 690 10
110 843 955
111 767 401
112 854 524
113 325 778
114 465 885
115 415 721
116 394 769
117 496 700
118 888 436
119 980 290
120 958 475
121 444 754
122 583 835
123 435 761
124 887 925
125 997 371
126 710 300
127 253 971
128 372 794
129 438 871
130 758 513
131 313 682
132 728 143
133 852 970
134 458 787
135 635 24
136 752 463
137 944 381
138 524 482
139 550 133
140 625 799
141 660 428
142 575 120
143 433 847
144 516 12
145 766 270
146 265 183
147 361 749
148 464 642
149 919 380
150 699 633
151 773 599
152 492 754
153 559 108
154 231 773
155 250 657
156 275 755
157 381 870
158 989 455
159 654 377
160 365 726
161 490 876
162 211 808
DEMAND_SECTION
2 79
3 84
4 100
5 23
6 32
7 90
8 8
9 50
10 29
11 96
12 26
13 17
14 92
15 41
16 16
17 95
18 41
19 69
20 30
21 83
22 11
23 84
24 38
25 29
26 88
27 33
28 77
29 76
30 74
31 16
32 31
33 33
34 76
35 16
36 28
37 67
38 22
39 61
COVERAGE_SECTION
2 10 68 60 7 23 78 140 150 106 62 79 
3 6 85 29 69 92 124 91 
4 11 32 98 54 84 58 50 30 138 36 22 44 
5 9 130 151 112 136 49 104 102 79 150 
6 9 155 90 8 131 103 74 20 43 156 
7 11 23 2 68 26 60 150 29 78 76 151 49 
8 8 154 156 103 155 162 131 113 147 
9 11 105 149 11 118 111 137 61 104 53 73 102 
10 11 57 71 27 89 146 19 77 24 87 15 47 
11 11 53 61 73 9 119 149 137 83 145 105 95 
12 6 101 144 107 94 153 77 
13 9 100 139 42 64 107 142 153 94 18 
14 8 159 108 48 46 141 86 126 98 
15 11 47 87 22 24 146 55 19 89 74 27 39 
16 11 80 75 41 20 162 154 127 8 156 56 82 
17 11 128 116 96 157 143 113 147 123 129 134 121 
18 10 66 42 52 142 139 13 64 100 153 40 
19 11 24 27 55 39 15 47 10 146 87 71 89 
20 11 41 80 16 162 8 154 6 155 156 103 43 
21 6 40 135 88 109 142 153 
22 11 87 146 15 47 89 37 44 36 4 84 67 
23 11 7 2 26 68 60 78 29 140 28 65 150 
24 11 19 55 47 15 27 39 87 146 74 22 10 
25 9 109 132 88 21 135 40 83 70 66 
26 10 28 110 124 133 23 51 65 91 69 29 
27 11 19 24 71 10 39 55 15 47 146 89 57 
28 8 110 26 133 51 124 91 69 65 
29 10 85 92 3 69 26 124 23 7 76 28 
30 11 54 52 64 58 84 42 36 108 13 98 100 
31 11 122 62 35 140 78 60 161 152 114 134 81 
32 9 98 4 138 54 108 30 50 48 14 
33 11 115 121 123 116 96 63 160 134 152 117 147 
34 11 145 126 70 132 86 73 83 66 105 46 14 
35 11 31 122 161 62 152 134 114 140 143 129 63 
36 11 44 84 58 67 37 64 13 30 100 42 52 
37 10 44 67 36 84 58 89 107 146 13 100 
38 10 76 49 112 120 92 99 158 97 151 118 
39 11 55 19 24 74 27 43 47 90 15 87 10 
40 7 21 88 135 142 66 153 109 
41 11 20 80 16 162 154 8 75 156 155 6 103 
42 10 64 13 100 52 18 139 142 153 66 107 
43 11 90 74 6 55 39 20 155 41 24 47 8 
44 11 36 67 37 84 58 13 100 64 42 107 30 
45 7 160 131 147 115 103 33 96 
46 9 86 159 48 14 141 126 111 105 108 
47 11 15 87 24 55 22 146 19 74 89 39 90 
48 6 159 14 141 108 46 86 
49 11 76 151 112 5 38 130 150 68 92 79 7 
50 8 4 32 138 148 98 45 131 155 
51 7 110 133 28 91 124 26 65 
52 11 64 42 18 30 13 100 66 58 139 142 84 
53 11 61 11 73 83 119 9 70 145 149 137 105 
54 11 30 98 58 84 32 108 4 52 64 36 14 
55 11 24 39 74 47 19 15 90 27 43 87 22 
56 11 82 59 127 157 129 114 143 17 128 113 161 
57 11 77 10 89 146 71 37 87 101 12 27 22 
58 11 84 36 30 44 64 67 54 42 52 13 100 
59 11 56 82 127 157 129 114 143 161 17 128 113 
60 11 78 140 62 2 122 31 106 35 68 23 7 
61 11 53 11 73 83 9 119 70 145 149 105 137 
62 11 140 122 31 78 60 35 106 2 152 63 161 
63 11 117 152 121 33 123 72 134 115 148 106 35 
64 11 42 52 13 100 30 18 58 139 84 36 142 
65 11 81 26 28 51 78 110 60 93 133 140 23 
66 10 18 88 142 40 42 52 132 139 153 13 
67 11 44 36 37 58 84 13 100 107 139 64 42 
68 10 2 150 79 7 23 151 106 60 78 140 
69 4 124 91 3 110 
70 11 83 145 73 34 132 61 53 126 11 66 88 
71 11 10 27 57 19 24 89 146 39 77 15 55 
72 9 117 148 63 106 152 33 121 115 123 
73 11 61 53 11 83 70 145 9 34 105 119 126 
74 11 90 55 43 39 6 47 24 15 19 155 87 
75 11 16 80 127 41 162 56 20 154 82 59 8 
76 11 49 38 92 151 112 5 7 29 23 68 130 
77 10 57 89 101 12 37 146 10 144 67 44 
78 11 140 60 62 122 31 2 35 106 65 23 68 
79 6 150 68 151 5 130 2 
80 11 162 41 16 154 20 8 156 75 127 113 103 
81 11 93 65 122 31 78 140 62 60 35 161 51 
82 11 56 59 127 157 129 17 143 114 128 113 161 
83 11 70 73 61 53 145 132 11 34 25 126 9 
84 11 58 36 44 30 67 54 64 42 13 52 100 
85 7 3 29 92 69 124 91 26 
86 11 46 111 126 105 159 102 14 48 141 145 136 
87 11 22 146 15 89 47 37 44 24 36 67 84 
88 9 40 21 66 132 135 18 142 109 153 
89 11 146 87 22 37 77 57 15 10 44 47 67 
90 11 74 43 6 55 47 155 39 15 24 50 20 
91 5 124 133 110 69 28 
92 11 29 85 76 3 38 49 7 23 69 26 124 
93 11 81 161 31 122 114 65 35 62 129 78 140 
94 6 153 107 139 142 100 13 
95 10 137 125 97 149 99 158 120 118 119 9 
96 10 116 128 147 17 123 160 115 121 33 113 
97 10 99 158 95 120 137 125 149 118 9 119 
98 9 32 54 4 108 138 30 14 48 159 
99 10 158 97 120 95 137 125 118 149 112 38 
100 9 13 139 42 107 64 142 153 94 18 
101 6 12 144 107 94 77 153 
102 10 111 136 104 105 130 86 46 141 5 9 
103 8 131 156 8 45 155 160 113 147 
104 10 102 136 111 130 118 105 112 5 9 86 
105 11 111 86 9 102 104 145 46 126 136 34 73 
106 10 72 117 63 2 62 140 60 152 68 150 
107 6 94 153 139 142 100 13 
108 9 14 48 159 46 54 98 141 30 126 
109 6 135 21 25 40 88 132 
110 7 133 51 28 91 124 26 69 
111 10 102 105 104 86 136 46 9 141 130 126 
112 11 5 49 104 118 130 151 38 120 136 76 102 
113 9 147 128 156 96 160 17 116 103 45 
114 11 161 129 143 157 35 134 17 31 122 123 128 
115 9 33 121 123 160 116 96 147 45 63 
116 10 96 128 147 123 17 115 121 160 33 134 
117 10 63 72 152 148 33 121 115 123 134 106 
118 10 149 137 97 120 9 104 99 95 112 158 
119 10 125 11 53 137 95 61 149 73 97 9 
120 10 99 158 97 118 95 137 149 125 112 38 
121 11 123 33 134 115 152 116 96 63 117 128 147 
122 11 31 62 35 140 78 60 161 152 114 81 134 
123 11 121 134 33 116 115 96 152 63 128 17 147 
124 6 91 69 110 133 28 51 
125 10 95 137 97 149 119 158 99 120 118 11 
126 11 34 86 145 46 14 105 159 48 108 111 70 
127 11 56 82 59 157 162 75 80 154 16 17 113 
128 10 17 96 116 147 113 160 123 157 143 121 
129 11 143 114 161 157 17 134 128 35 123 116 96 
130 8 5 136 104 102 151 112 111 79 
131 7 103 45 155 160 147 156 8 
132 11 88 70 66 34 25 40 83 21 18 145 109 
133 6 110 51 91 124 28 69 
134 11 123 121 152 143 116 33 96 63 17 115 35 
135 6 21 109 40 88 142 153 
136 8 102 130 104 111 5 141 46 86 
137 10 149 95 125 97 118 99 158 120 9 119 
138 2 32 98 
139 7 153 142 100 94 13 107 42 
140 11 78 60 62 122 31 2 35 106 152 68 23 
141 4 48 159 46 14 
142 7 153 139 94 107 100 13 18 
143 11 129 114 157 17 161 134 128 123 116 96 121 
144 5 12 101 94 107 153 
145 11 34 126 70 73 105 86 83 61 9 53 46 
146 11 89 87 22 15 37 47 44 10 77 57 24 
147 9 160 96 116 113 128 45 115 17 33 
148 9 117 72 63 33 115 121 152 45 123 
149 10 137 95 118 9 97 125 99 11 120 158 
150 7 79 68 151 2 5 106 130 
151 10 5 49 150 130 79 68 112 76 136 7 
152 11 63 134 121 117 123 33 35 115 116 72 96 
153 6 94 142 139 107 100 13 
154 9 162 8 156 103 113 80 155 131 147 
155 7 103 131 8 6 156 45 154 
156 9 154 8 103 113 131 162 147 160 155 
157 11 17 129 143 128 114 82 116 96 113 161 59 
158 10 99 97 120 95 125 137 118 149 38 112 
159 7 48 14 46 141 108 86 126 
160 9 147 45 96 115 116 33 113 128 131 
161 11 114 129 143 35 31 134 122 157 152 17 123 
162 10 154 80 156 8 113 103 41 20 16 155 
DEPOT_SECTION
   1
   -1
EOF
