NAME :  X-n1001-kX-w400-c9.cctp
COMMENT : 	Adapted by Maziero, Usberti and Cavellucci from the Uchoa, Pecin, Pessoa, Poggi, Subramanian, and Vidal (2013)
TYPE :  CCTP
DIMENSION :    1000
EDGE_WEIGHT_TYPE : 	EUC_2D	
CAPACITY : 	131
VERTICES_WITHIN_COVERAGE :  9
VERTICES_WITH_DEMAND : 	400
NODE_COORD_SECTION
1 2 857
2 407 102
3 915 965
4 797 45
5 997 241
6 650 683
7 748 248
8 99 174
9 2 545
10 277 689
11 568 771
12 76 105
13 117 973
14 171 971
15 327 183
16 277 697
17 269 246
18 670 18
19 51 901
20 951 696
21 710 102
22 61 465
23 348 606
24 551 243
25 524 793
26 89 582
27 900 748
28 235 368
29 122 587
30 449 781
31 970 38
32 362 490
33 742 267
34 289 115
35 898 957
36 996 922
37 951 633
38 713 779
39 603 247
40 402 363
41 143 0
42 274 608
43 81 422
44 550 408
45 43 699
46 482 575
47 909 254
48 613 37
49 202 575
50 297 297
51 736 288
52 464 127
53 499 491
54 635 531
55 796 328
56 184 941
57 641 824
58 863 673
59 396 950
60 555 631
61 664 966
62 301 260
63 425 990
64 559 746
65 431 827
66 724 472
67 847 51
68 888 721
69 136 331
70 859 627
71 206 5
72 429 381
73 798 918
74 886 684
75 123 488
76 779 445
77 764 43
78 938 743
79 800 398
80 734 20
81 211 678
82 601 545
83 512 403
84 796 106
85 644 810
86 416 973
87 115 435
88 667 91
89 395 941
90 374 546
91 546 191
92 754 255
93 124 588
94 423 929
95 314 637
96 668 268
97 321 786
98 960 423
99 11 499
100 721 692
101 803 584
102 337 475
103 806 773
104 429 478
105 214 547
106 361 166
107 944 218
108 12 468
109 527 255
110 789 724
111 250 862
112 892 896
113 545 806
114 832 12
115 628 495
116 194 884
117 395 309
118 655 39
119 558 175
120 247 947
121 36 394
122 877 451
123 599 724
124 83 489
125 754 703
126 65 35
127 889 230
128 938 307
129 662 394
130 248 220
131 642 549
132 747 86
133 201 643
134 400 574
135 653 798
136 653 904
137 643 138
138 951 307
139 793 865
140 500 726
141 585 586
142 285 769
143 511 898
144 336 912
145 454 207
146 239 951
147 335 815
148 911 708
149 2 239
150 602 984
151 372 799
152 177 756
153 816 435
154 617 639
155 806 796
156 793 584
157 803 561
158 479 831
159 397 20
160 618 113
161 702 902
162 838 111
163 989 451
164 215 154
165 581 757
166 294 174
167 997 332
168 350 909
169 335 941
170 906 354
171 920 675
172 493 469
173 187 284
174 678 127
175 831 755
176 316 319
177 188 134
178 73 608
179 884 613
180 193 831
181 717 851
182 508 52
183 809 556
184 705 769
185 983 312
186 847 359
187 415 658
188 132 789
189 520 413
190 913 564
191 90 256
192 960 936
193 693 559
194 980 347
195 300 456
196 376 144
197 192 177
198 272 525
199 88 626
200 772 743
201 540 206
202 474 559
203 575 901
204 241 949
205 583 602
206 215 48
207 460 683
208 81 368
209 998 835
210 585 234
211 522 137
212 294 501
213 788 392
214 621 498
215 116 698
216 81 236
217 788 277
218 817 861
219 678 560
220 351 354
221 156 507
222 617 486
223 218 189
224 213 23
225 884 616
226 923 177
227 829 814
228 479 307
229 285 153
230 584 878
231 176 928
232 166 656
233 507 183
234 907 171
235 7 792
236 995 412
237 22 787
238 149 784
239 649 933
240 885 309
241 131 560
242 22 81
243 502 640
244 462 970
245 465 114
246 192 569
247 547 473
248 557 408
249 480 579
250 775 395
251 845 753
252 701 529
253 962 95
254 842 847
255 31 68
256 627 629
257 524 322
258 918 853
259 823 774
260 775 894
261 109 935
262 478 480
263 511 488
264 785 899
265 487 121
266 453 440
267 470 598
268 1 111
269 756 89
270 728 583
271 647 753
272 973 391
273 842 559
274 637 397
275 72 370
276 948 485
277 999 268
278 471 517
279 350 131
280 381 534
281 310 467
282 973 212
283 164 485
284 429 565
285 186 426
286 838 897
287 779 143
288 452 1
289 866 928
290 214 623
291 532 586
292 513 152
293 915 772
294 204 585
295 343 558
296 877 720
297 730 272
298 364 617
299 210 569
300 514 296
301 33 761
302 202 695
303 706 395
304 597 866
305 376 83
306 679 434
307 483 578
308 0 299
309 639 101
310 709 590
311 774 925
312 804 864
313 528 192
314 660 561
315 888 7
316 788 712
317 79 750
318 854 884
319 710 665
320 939 390
321 156 683
322 62 737
323 207 501
324 944 334
325 952 915
326 14 440
327 923 386
328 693 370
329 485 885
330 890 951
331 478 956
332 782 216
333 104 50
334 822 370
335 73 108
336 7 981
337 987 382
338 397 439
339 986 513
340 871 661
341 636 866
342 154 39
343 70 100
344 75 647
345 383 5
346 86 692
347 263 570
348 26 218
349 892 317
350 139 60
351 76 883
352 336 44
353 648 837
354 713 447
355 98 769
356 316 688
357 470 613
358 157 295
359 499 223
360 482 100
361 3 209
362 280 692
363 525 6
364 54 122
365 220 208
366 838 860
367 0 143
368 455 989
369 923 705
370 41 665
371 829 426
372 809 821
373 238 811
374 57 114
375 490 911
376 445 135
377 126 154
378 502 856
379 543 422
380 395 335
381 873 378
382 947 675
383 127 46
384 895 216
385 590 641
386 415 0
387 456 639
388 881 466
389 721 116
390 884 403
391 323 319
392 495 158
393 534 496
394 784 89
395 600 973
396 582 263
397 630 484
398 498 412
399 737 749
400 187 137
401 433 302
402 864 360
403 262 566
404 63 28
405 698 186
406 669 65
407 280 605
408 163 577
409 7 891
410 156 301
411 977 815
412 144 312
413 272 181
414 524 978
415 112 407
416 865 155
417 232 344
418 418 650
419 529 362
420 889 916
421 952 677
422 443 10
423 644 925
424 982 797
425 328 995
426 652 395
427 954 103
428 614 890
429 583 127
430 54 278
431 534 176
432 457 678
433 769 423
434 111 776
435 537 183
436 887 534
437 263 242
438 238 143
439 693 433
440 481 223
441 276 463
442 301 278
443 813 997
444 522 400
445 342 979
446 121 219
447 282 213
448 495 110
449 824 196
450 974 643
451 567 187
452 588 289
453 415 542
454 84 369
455 711 288
456 192 263
457 634 955
458 134 858
459 836 650
460 401 251
461 330 390
462 757 708
463 640 675
464 512 860
465 179 319
466 36 160
467 902 529
468 526 587
469 186 229
470 15 596
471 979 645
472 647 323
473 182 123
474 184 38
475 302 219
476 781 849
477 330 18
478 991 649
479 887 717
480 37 331
481 616 448
482 331 231
483 822 365
484 230 835
485 359 963
486 60 730
487 776 660
488 376 810
489 703 627
490 481 728
491 495 862
492 192 598
493 121 520
494 854 951
495 305 495
496 603 933
497 916 240
498 889 765
499 608 852
500 233 438
501 715 397
502 250 676
503 385 490
504 911 127
505 977 120
506 57 831
507 695 732
508 168 907
509 487 552
510 379 518
511 175 165
512 741 69
513 859 350
514 741 665
515 542 145
516 65 804
517 34 189
518 618 340
519 87 291
520 784 685
521 785 260
522 943 254
523 183 988
524 239 180
525 206 769
526 597 257
527 780 886
528 981 148
529 227 435
530 918 839
531 905 402
532 257 337
533 100 996
534 194 631
535 164 219
536 524 887
537 909 704
538 169 906
539 241 785
540 937 826
541 62 828
542 538 74
543 399 812
544 855 575
545 802 150
546 451 192
547 979 779
548 342 445
549 692 472
550 9 452
551 897 431
552 665 139
553 128 106
554 768 689
555 150 279
556 791 248
557 836 385
558 235 877
559 315 98
560 895 755
561 363 154
562 373 633
563 42 430
564 850 534
565 592 274
566 95 712
567 565 82
568 736 849
569 227 124
570 770 512
571 191 627
572 334 855
573 307 97
574 718 570
575 808 903
576 630 96
577 694 101
578 714 65
579 380 514
580 311 9
581 581 60
582 483 315
583 452 330
584 269 422
585 986 414
586 207 280
587 645 986
588 97 50
589 258 620
590 19 60
591 159 382
592 594 3
593 575 648
594 505 396
595 271 186
596 259 278
597 440 484
598 204 169
599 839 329
600 796 265
601 184 633
602 110 901
603 794 510
604 612 243
605 471 610
606 168 254
607 651 691
608 317 884
609 788 451
610 778 532
611 999 602
612 223 747
613 951 203
614 290 179
615 5 237
616 848 785
617 606 434
618 511 279
619 919 357
620 409 840
621 726 723
622 198 57
623 563 987
624 330 143
625 112 165
626 564 379
627 841 919
628 736 821
629 895 875
630 772 252
631 233 210
632 956 386
633 29 477
634 440 322
635 300 683
636 19 243
637 804 616
638 139 376
639 177 425
640 164 188
641 330 450
642 894 845
643 81 292
644 327 908
645 52 153
646 681 294
647 806 403
648 650 476
649 238 416
650 930 935
651 220 643
652 976 863
653 487 945
654 23 117
655 777 163
656 352 425
657 224 959
658 800 833
659 1 880
660 530 411
661 205 696
662 47 211
663 1 975
664 463 461
665 12 909
666 9 25
667 960 395
668 808 103
669 555 364
670 881 187
671 640 356
672 423 259
673 574 348
674 312 251
675 881 836
676 874 740
677 135 158
678 904 910
679 102 78
680 926 747
681 133 610
682 712 498
683 801 94
684 46 372
685 792 533
686 744 492
687 49 160
688 910 98
689 161 275
690 462 5
691 2 317
692 892 299
693 623 197
694 280 296
695 390 873
696 569 740
697 382 176
698 67 260
699 22 899
700 224 74
701 976 106
702 643 937
703 286 733
704 343 347
705 768 396
706 281 2
707 646 481
708 113 496
709 449 469
710 209 276
711 146 512
712 925 847
713 541 265
714 108 218
715 909 962
716 873 616
717 891 741
718 610 429
719 632 229
720 254 413
721 174 367
722 801 148
723 94 483
724 70 736
725 396 630
726 722 757
727 652 154
728 524 473
729 390 532
730 865 278
731 739 441
732 522 405
733 315 92
734 676 875
735 367 807
736 174 702
737 161 844
738 52 348
739 628 479
740 294 425
741 245 335
742 849 644
743 188 955
744 898 25
745 712 633
746 369 346
747 795 493
748 704 846
749 33 817
750 872 179
751 774 620
752 635 620
753 512 482
754 67 510
755 527 626
756 316 970
757 777 242
758 622 844
759 35 70
760 577 911
761 285 224
762 652 328
763 358 274
764 950 346
765 824 571
766 228 251
767 133 826
768 166 573
769 5 941
770 876 539
771 74 80
772 668 777
773 773 7
774 71 263
775 476 656
776 94 533
777 895 963
778 744 131
779 710 940
780 790 311
781 470 10
782 778 994
783 726 581
784 301 968
785 425 873
786 510 342
787 551 998
788 880 251
789 13 286
790 229 807
791 791 870
792 980 301
793 319 503
794 678 661
795 131 647
796 756 147
797 752 792
798 552 315
799 833 41
800 570 210
801 550 937
802 0 825
803 237 533
804 484 801
805 281 735
806 126 383
807 261 867
808 765 621
809 340 504
810 483 824
811 904 551
812 380 261
813 450 572
814 581 121
815 737 364
816 504 708
817 162 788
818 379 894
819 415 846
820 11 831
821 357 10
822 794 896
823 168 803
824 981 897
825 740 619
826 192 525
827 307 810
828 193 59
829 348 6
830 896 319
831 718 704
832 635 865
833 44 81
834 677 455
835 365 89
836 993 748
837 21 769
838 264 253
839 794 836
840 158 537
841 299 507
842 837 673
843 625 578
844 726 948
845 225 753
846 529 813
847 57 217
848 493 88
849 977 476
850 926 415
851 370 421
852 960 959
853 56 666
854 568 361
855 418 120
856 830 947
857 799 823
858 447 171
859 136 12
860 510 332
861 864 465
862 510 511
863 37 62
864 610 786
865 739 627
866 155 680
867 710 998
868 443 869
869 243 357
870 736 125
871 323 814
872 526 532
873 20 222
874 54 930
875 124 270
876 76 619
877 43 801
878 872 318
879 938 393
880 518 361
881 114 189
882 398 156
883 666 975
884 976 884
885 362 501
886 799 452
887 791 71
888 778 700
889 745 362
890 691 851
891 870 506
892 957 214
893 547 416
894 645 140
895 41 367
896 747 223
897 884 821
898 686 750
899 520 508
900 86 411
901 196 752
902 790 247
903 100 49
904 116 857
905 754 899
906 387 843
907 653 877
908 682 525
909 156 967
910 861 886
911 628 139
912 829 776
913 829 177
914 48 367
915 553 756
916 308 857
917 525 768
918 739 419
919 534 906
920 74 407
921 829 489
922 174 812
923 756 539
924 783 958
925 651 110
926 551 459
927 980 868
928 295 427
929 729 915
930 518 915
931 46 872
932 172 627
933 130 202
934 677 872
935 374 795
936 181 760
937 751 788
938 83 664
939 459 649
940 792 917
941 813 502
942 746 768
943 377 708
944 676 582
945 367 690
946 124 298
947 280 13
948 209 128
949 794 714
950 636 512
951 901 875
952 970 319
953 301 452
954 146 305
955 45 362
956 239 811
957 423 798
958 477 717
959 102 815
960 504 648
961 524 158
962 902 424
963 538 337
964 951 766
965 296 959
966 647 246
967 395 299
968 970 492
969 260 138
970 394 642
971 795 836
972 657 44
973 263 655
974 776 212
975 436 346
976 309 29
977 982 977
978 879 198
979 99 1000
980 927 947
981 419 592
982 742 981
983 714 685
984 410 503
985 858 581
986 988 225
987 576 24
988 114 728
989 673 162
990 660 459
991 624 134
992 520 801
993 86 528
994 245 156
995 671 77
996 944 270
997 951 622
998 412 813
999 732 304
1000 532 201
DEMAND_SECTION
2 6
3 1
4 10
5 7
6 6
7 2
8 8
9 7
10 3
11 5
12 1
13 4
14 10
15 4
16 10
17 3
18 6
19 4
20 3
21 10
22 8
23 6
24 7
25 7
26 4
27 1
28 5
29 3
30 6
31 8
32 5
33 9
34 6
35 9
36 9
37 4
38 1
39 9
40 10
41 2
42 4
43 1
44 10
45 1
46 10
47 2
48 10
49 1
50 4
51 5
52 5
53 6
54 6
55 9
56 4
57 4
58 9
59 3
60 7
61 6
62 8
63 5
64 9
65 3
66 9
67 1
68 1
69 5
70 7
71 6
72 6
73 9
74 3
75 8
76 5
77 9
78 10
79 9
80 5
81 9
82 5
83 10
84 1
85 2
86 9
87 3
88 8
89 2
90 6
91 1
92 3
93 1
94 8
95 8
96 6
97 9
98 5
99 5
100 9
101 1
102 9
103 6
104 3
105 4
106 9
107 7
108 1
109 9
110 6
111 10
112 2
113 3
114 9
115 6
116 4
117 9
118 10
119 3
120 7
121 6
122 6
123 4
124 5
125 9
126 2
127 2
128 4
129 5
130 6
131 1
132 5
133 4
134 3
135 4
136 9
137 4
138 3
139 5
140 10
141 2
142 5
143 8
144 8
145 10
146 7
147 3
148 6
149 9
150 5
151 2
152 10
153 4
154 9
155 2
156 6
157 1
158 6
159 1
160 1
161 7
162 10
163 7
164 3
165 6
166 4
167 4
168 3
169 5
170 4
171 2
172 5
173 1
174 10
175 7
176 3
177 7
178 10
179 10
180 2
181 3
182 10
183 6
184 3
185 1
186 4
187 3
188 10
189 10
190 4
191 8
192 5
193 2
194 8
195 2
196 5
197 8
198 7
199 10
200 1
201 5
202 4
203 7
204 8
205 7
206 8
207 3
208 2
209 9
210 7
211 5
212 3
213 3
214 10
215 8
216 5
217 5
218 3
219 7
220 9
221 5
222 2
223 7
224 3
225 6
226 1
227 6
228 3
229 1
230 8
231 5
232 1
233 9
234 2
235 9
236 3
237 10
238 3
239 8
240 6
241 4
242 9
243 9
244 3
245 10
246 10
247 1
248 4
249 1
250 5
251 2
252 5
253 10
254 6
255 4
256 3
257 6
258 10
259 7
260 2
261 8
262 1
263 5
264 2
265 5
266 9
267 7
268 2
269 4
270 1
271 7
272 10
273 8
274 6
275 10
276 4
277 6
278 6
279 1
280 7
281 7
282 2
283 8
284 2
285 5
286 10
287 1
288 3
289 9
290 3
291 5
292 3
293 9
294 3
295 3
296 2
297 8
298 5
299 10
300 8
301 9
302 7
303 4
304 3
305 8
306 8
307 8
308 8
309 3
310 2
311 10
312 2
313 10
314 3
315 3
316 3
317 3
318 9
319 3
320 1
321 10
322 2
323 9
324 9
325 7
326 8
327 3
328 7
329 6
330 1
331 8
332 3
333 7
334 7
335 2
336 3
337 10
338 7
339 10
340 10
341 2
342 4
343 4
344 7
345 5
346 8
347 7
348 9
349 4
350 10
351 5
352 5
353 7
354 7
355 7
356 4
357 3
358 1
359 9
360 6
361 5
362 6
363 8
364 2
365 10
366 5
367 7
368 7
369 1
370 1
371 7
372 1
373 5
374 8
375 6
376 10
377 9
378 8
379 9
380 5
381 1
382 8
383 9
384 2
385 6
386 8
387 9
388 10
389 8
390 9
391 6
392 7
393 1
394 1
395 2
396 6
397 9
398 8
399 2
400 4
401 7
COVERAGE_SECTION
2 9 855 305 835 376 196 882 245 52 279 
3 9 715 35 777 980 330 650 852 192 420 
4 9 887 77 799 773 394 114 683 67 668 
5 9 986 277 282 892 522 107 613 996 792 
6 9 607 463 794 154 256 319 983 123 752 
7 9 92 33 630 896 297 757 521 51 902 
8 9 625 881 377 677 933 714 446 645 687 
9 9 99 470 633 754 108 993 550 776 26 
10 9 362 16 635 502 973 356 703 805 95 
11 9 165 915 64 696 113 917 864 25 123 
12 9 335 343 374 771 364 679 833 553 645 
13 9 533 979 261 909 14 523 602 743 56 
14 9 909 523 743 56 231 13 657 508 538 
15 9 166 614 106 624 475 561 482 229 447 
16 9 362 10 635 502 703 805 356 973 81 
17 9 437 838 761 130 596 62 447 766 475 
18 9 118 972 406 995 48 80 578 88 592 
19 9 699 874 931 351 665 409 659 602 769 
20 9 421 382 369 171 148 537 78 680 450 
21 9 577 389 870 578 132 174 88 512 778 
22 9 124 633 723 563 754 43 108 326 550 
23 9 298 562 95 295 725 970 134 90 407 
24 9 713 109 210 396 800 201 1000 526 565 
25 9 992 846 113 917 804 915 11 810 64 
26 9 178 29 93 876 199 241 776 681 993 
27 9 560 717 498 680 676 293 68 479 296 
28 9 869 417 741 532 649 720 721 584 529 
29 9 93 681 241 26 408 768 199 178 876 
30 9 957 804 65 998 810 158 543 490 958 
31 9 253 427 701 744 505 688 315 504 528 
32 9 885 503 809 102 579 510 793 280 548 
33 9 297 92 7 51 630 455 999 757 521 
34 9 573 559 733 969 229 624 438 166 994 
35 9 777 330 715 3 980 650 420 289 494 
36 9 824 192 884 325 852 927 977 652 650 
37 9 997 450 471 382 478 421 171 611 20 
38 9 184 726 942 399 937 898 797 772 628 
39 9 604 526 210 396 565 719 966 452 800 
40 9 380 72 746 975 220 117 634 583 704 
41 9 859 342 383 474 350 71 333 903 588 
42 9 407 589 347 403 973 95 290 651 502 
43 9 900 920 415 87 563 22 121 275 454 
44 9 248 893 379 660 732 444 189 626 83 
45 9 370 486 853 322 346 724 938 566 344 
46 9 307 249 202 509 267 813 605 357 468 
47 9 497 788 127 522 996 384 692 107 730 
48 9 581 592 987 118 972 18 576 406 567 
49 9 294 299 246 492 105 768 408 290 826 
50 9 694 442 176 391 62 596 674 838 532 
51 9 999 297 33 455 92 7 630 217 646 
52 9 245 376 265 360 448 392 855 858 848 
53 9 263 753 172 862 262 899 728 393 278 
54 9 131 950 214 82 115 314 397 908 222 
55 9 780 599 483 334 217 186 889 600 213 
56 9 231 743 14 508 538 909 657 523 146 
57 9 85 353 758 135 832 341 499 864 772 
58 9 340 74 842 742 459 70 296 479 68 
59 9 89 86 94 485 63 818 445 168 169 
60 9 593 755 385 205 291 468 141 243 960 
61 9 883 587 457 239 702 423 779 867 136 
62 9 674 442 17 50 838 761 475 437 482 
63 9 86 368 244 59 89 94 331 485 653 
64 9 696 915 165 11 917 123 25 113 140 
65 9 998 819 620 957 543 868 785 906 158 
66 9 354 686 682 549 731 439 834 918 306 
67 9 799 114 4 744 887 315 162 683 668 
68 9 479 296 717 676 148 537 27 560 74 
69 9 412 954 946 410 358 465 638 721 806 
70 9 716 742 225 179 459 340 58 985 842 
71 9 224 474 206 622 828 342 41 859 700 
72 9 40 975 583 380 634 266 338 746 851 
73 9 940 575 822 264 311 260 527 627 856 
74 9 58 340 537 479 148 171 68 296 369 
75 9 708 723 493 711 221 124 283 87 776 
76 9 609 886 433 153 731 918 250 647 705 
77 9 4 512 773 80 887 132 269 394 578 
78 9 680 964 293 27 369 148 560 717 20 
79 9 647 213 250 705 334 557 153 371 433 
80 9 77 773 512 578 18 132 4 269 887 
81 9 302 661 133 651 502 736 232 534 601 
82 9 54 131 843 141 950 214 115 205 222 
83 9 444 594 732 189 398 660 379 893 44 
84 9 668 683 394 887 287 162 722 269 545 
85 9 57 135 353 758 772 864 499 832 271 
86 9 63 59 89 368 94 244 485 331 445 
87 9 415 43 900 920 723 806 75 708 22 
88 9 995 925 406 577 309 576 174 21 552 
89 9 59 94 86 485 818 168 63 169 445 
90 9 280 729 510 295 579 134 453 885 809 
91 9 435 201 1000 313 431 119 451 800 233 
92 9 7 33 630 757 297 521 896 902 51 
93 9 29 681 241 26 408 768 199 178 876 
94 9 89 59 86 785 818 244 63 331 868 
95 9 23 407 635 42 356 298 973 562 589 
96 9 646 966 455 719 472 604 297 762 39 
97 9 827 871 147 142 735 151 935 488 703 
98 9 585 667 272 850 236 632 879 320 163 
99 9 633 108 9 550 754 326 22 124 563 
100 9 983 831 319 621 514 125 462 554 507 
101 9 156 157 765 183 637 273 751 685 544 
102 9 641 281 32 809 548 793 885 495 195 
103 9 259 155 912 175 251 616 200 227 372 
104 9 597 709 984 664 266 503 262 338 278 
105 9 299 803 49 246 826 294 323 403 347 
106 9 561 697 196 279 15 882 624 166 482 
107 9 892 613 282 497 522 986 226 384 47 
108 9 550 633 326 99 563 22 754 124 9 
109 9 713 24 618 300 359 201 1000 396 440 
110 9 949 316 200 888 462 520 125 554 103 
111 9 807 558 484 373 956 916 790 116 180 
112 9 678 420 629 951 910 318 289 258 642 
113 9 846 25 992 11 917 915 165 804 64 
114 9 799 67 4 315 773 744 887 77 683 
115 9 214 397 222 739 950 707 648 54 990 
116 9 538 508 558 231 737 180 56 111 484 
117 9 967 380 401 746 634 812 763 40 975 
118 9 972 18 406 995 48 88 576 309 578 
119 9 451 91 435 431 313 515 201 800 1000 
120 9 204 146 657 965 784 743 56 558 231 
121 9 684 895 914 955 563 920 275 738 326 
122 9 388 861 551 962 390 371 891 531 850 
123 9 696 165 64 11 271 915 607 864 463 
124 9 723 754 708 22 993 75 776 493 633 
125 9 462 554 888 621 100 316 520 831 514 
126 9 404 588 903 863 333 759 771 255 833 
127 9 384 788 497 47 978 670 730 750 107 
128 9 138 324 952 996 764 792 830 185 349 
129 9 426 274 328 306 303 671 439 501 718 
130 9 631 437 365 17 447 761 766 838 524 
131 9 54 314 843 950 219 82 908 944 193 
132 9 269 512 394 578 21 389 870 778 77 
133 9 534 571 651 601 290 932 81 232 492 
134 9 981 284 453 90 729 280 813 298 725 
135 9 85 772 57 353 271 864 758 898 184 
136 9 423 907 239 702 734 934 428 341 832 
137 9 894 911 727 991 552 925 160 174 309 
138 9 128 952 324 792 185 996 764 194 167 
139 9 791 312 476 218 527 839 971 822 658 
140 9 816 490 958 917 207 915 64 432 696 
141 9 205 843 82 291 60 385 468 256 752 
142 9 805 703 97 539 827 871 845 956 373 
143 9 536 930 919 375 329 464 491 378 653 
144 9 644 168 169 608 818 485 572 756 916 
145 9 546 440 858 359 233 672 392 460 376 
146 9 204 120 657 743 56 965 784 231 523 
147 9 871 827 97 735 151 572 488 935 916 
148 9 537 369 68 479 171 74 296 717 27 
149 9 615 636 873 361 348 789 662 517 847 
150 9 395 623 457 587 496 787 702 61 883 
151 9 935 735 488 543 147 998 906 871 957 
152 9 936 901 525 817 238 612 823 845 736 
153 9 371 886 609 647 76 79 433 213 557 
154 9 256 752 385 463 593 205 6 141 607 
155 9 103 372 259 857 227 912 658 971 839 
156 9 101 157 183 637 765 751 808 685 610 
157 9 183 101 765 156 685 610 273 603 923 
158 9 810 804 378 491 464 65 992 868 846 
159 9 345 386 821 422 829 288 305 352 477 
160 9 576 991 309 911 925 137 429 814 894 
161 9 929 734 779 934 136 844 890 905 181 
162 9 668 683 84 416 722 545 394 67 887 
163 9 849 585 236 98 968 276 272 339 667 
164 9 598 438 948 994 569 197 400 177 223 
165 9 11 696 64 915 123 864 917 113 271 
166 9 614 229 413 595 15 447 475 624 969 
167 9 194 185 952 792 764 337 138 324 128 
168 9 144 644 818 169 608 695 89 485 572 
169 9 144 485 644 168 756 445 784 965 425 
170 9 619 327 830 349 381 402 324 764 513 
171 9 382 369 537 421 148 74 20 340 37 
172 9 262 53 753 263 664 728 709 862 899 
173 9 586 456 710 689 358 410 465 606 555 
174 9 552 577 925 894 989 137 727 88 21 
175 9 251 259 912 103 616 676 155 110 949 
176 9 391 50 704 694 442 220 746 62 532 
177 9 400 473 948 164 511 598 569 197 438 
178 9 876 199 26 344 29 93 938 470 681 
179 9 225 716 70 985 742 544 340 190 459 
180 9 922 737 484 823 790 373 956 116 817 
181 9 748 568 890 628 934 734 161 905 476 
182 9 542 848 363 360 781 448 567 690 265 
183 9 157 765 101 685 156 273 610 564 603 
184 9 38 726 898 399 507 772 942 937 621 
185 9 792 952 167 138 194 128 324 277 764 
186 9 513 402 483 334 557 599 381 878 390 
187 9 418 970 725 387 939 432 562 207 945 
188 9 238 434 817 767 355 823 959 922 152 
189 9 732 660 83 444 398 594 379 893 44 
190 9 811 467 436 770 179 985 544 225 716 
191 9 774 216 698 519 643 875 430 714 446 
192 9 325 852 650 980 36 824 977 3 884 
193 9 219 574 944 252 314 310 908 783 270 
194 9 167 764 952 185 337 324 272 632 792 
195 9 953 281 441 928 641 740 495 102 548 
196 9 561 882 106 279 697 624 855 2 835 
197 9 598 511 223 640 164 400 365 177 524 
198 9 841 212 803 403 495 347 793 105 441 
199 9 876 178 344 938 26 681 795 853 29 
200 9 110 316 399 942 949 462 888 125 103 
201 9 1000 91 313 435 800 431 451 119 24 
202 9 509 46 249 307 813 267 278 284 605 
203 9 760 230 304 428 919 496 801 536 499 
204 9 146 120 657 743 965 56 784 231 523 
205 9 141 60 385 593 843 154 256 291 752 
206 9 622 224 828 700 474 71 342 947 350 
207 9 432 775 939 958 387 490 187 816 418 
208 9 454 275 914 684 738 955 895 920 900 
209 9 411 652 927 424 884 547 540 824 712 
210 9 39 526 604 800 396 24 565 719 451 
211 9 292 961 515 392 265 448 431 233 435 
212 9 841 495 793 198 281 441 195 809 953 
213 9 79 250 705 647 433 334 483 557 153 
214 9 115 222 397 739 950 707 54 648 481 
215 9 566 988 346 321 866 938 795 736 724 
216 9 191 698 774 847 714 662 446 430 519 
217 9 600 521 556 630 902 780 757 92 33 
218 9 312 366 139 791 254 658 971 839 476 
219 9 193 314 944 908 131 252 574 310 54 
220 9 704 746 461 391 380 176 40 117 851 
221 9 711 283 840 493 75 826 708 323 241 
222 9 214 397 739 115 707 950 648 481 54 
223 9 365 524 598 631 197 164 130 994 511 
224 9 71 206 474 622 828 700 342 947 706 
225 9 179 716 70 985 742 340 544 459 190 
226 9 234 613 670 107 384 978 892 504 750 
227 9 372 155 857 254 616 658 912 259 971 
228 9 582 583 300 860 634 618 401 257 786 
229 9 166 614 969 413 595 34 994 624 438 
230 9 304 203 428 760 499 758 341 832 919 
231 9 56 508 538 743 14 909 116 657 523 
232 9 866 321 601 932 795 133 534 571 736 
233 9 313 392 431 435 961 1000 292 91 201 
234 9 226 670 750 978 504 416 384 613 107 
235 9 237 837 802 749 877 820 301 516 506 
236 9 585 272 337 98 163 667 632 320 879 
237 9 235 837 877 301 749 802 820 516 506 
238 9 817 188 823 922 434 152 936 767 355 
239 9 702 423 457 136 61 883 496 587 428 
240 9 349 692 830 878 730 513 170 599 128 
241 9 29 93 840 408 768 493 776 26 681 
242 9 255 759 590 833 863 654 268 374 343 
243 9 960 755 775 357 605 939 387 267 60 
244 9 368 331 653 63 86 94 414 375 59 
245 9 52 360 265 376 448 848 855 392 2 
246 9 49 299 294 768 492 408 105 826 840 
247 9 926 728 393 753 263 899 53 379 862 
248 9 44 893 379 660 626 732 444 189 669 
249 9 307 46 202 267 509 813 605 357 468 
250 9 705 213 79 433 647 918 889 815 76 
251 9 175 912 259 616 676 103 296 498 717 
252 9 908 193 682 219 574 314 923 686 549 
253 9 427 701 505 688 528 31 504 226 234 
254 9 366 218 227 318 675 312 372 910 658 
255 9 759 863 590 242 833 771 126 666 343 
256 9 752 154 385 463 843 205 593 6 141 
257 9 860 963 786 300 798 880 419 582 618 
258 9 712 530 642 951 629 540 675 897 112 
259 9 912 103 175 616 155 251 227 372 857 
260 9 527 264 822 905 791 940 311 73 139 
261 9 602 13 874 909 351 533 508 979 19 
262 9 172 53 664 709 263 753 278 597 862 
263 9 753 53 728 899 862 393 172 262 247 
264 9 822 260 527 940 73 575 311 791 905 
265 9 448 360 245 52 848 211 392 292 376 
266 9 664 709 104 597 262 172 398 338 72 
267 9 605 357 249 307 46 813 202 387 509 
268 9 654 367 242 255 833 759 364 590 374 
269 9 132 512 394 887 870 84 389 778 683 
270 9 783 574 310 825 193 865 489 745 923 
271 9 772 898 135 864 507 123 85 184 607 
272 9 667 337 632 585 236 320 98 879 194 
273 9 544 765 564 985 183 157 770 101 436 
274 9 426 129 671 718 617 481 306 518 328 
275 9 208 454 914 684 955 738 895 920 121 
276 9 968 849 339 163 98 467 388 850 551 
277 9 5 792 986 185 996 522 952 138 282 
278 9 53 262 509 862 202 597 263 899 172 
279 9 624 561 196 106 835 559 733 882 305 
280 9 729 90 510 579 453 885 984 134 503 
281 9 195 953 641 102 495 441 793 212 548 
282 9 892 986 613 107 5 522 226 277 497 
283 9 221 711 75 323 826 708 840 493 639 
284 9 813 453 981 134 202 729 249 267 46 
285 9 639 529 500 591 649 721 283 638 720 
286 9 318 627 910 575 366 218 289 822 73 
287 9 655 722 796 545 778 84 870 668 394 
288 9 690 422 781 386 159 345 363 182 821 
289 9 420 494 627 330 112 856 286 678 910 
290 9 651 534 571 133 601 492 294 932 589 
291 9 468 755 307 46 60 249 141 205 872 
292 9 961 211 392 515 233 431 435 265 313 
293 9 560 498 680 27 964 78 717 676 68 
294 9 49 299 492 246 105 290 768 408 571 
295 9 90 280 23 510 729 809 579 134 793 
296 9 479 68 676 717 27 148 537 74 560 
297 9 33 51 455 92 7 999 630 896 646 
298 9 562 23 725 970 95 134 981 295 418 
299 9 49 294 246 105 492 768 803 408 826 
300 9 618 257 582 860 228 713 798 109 786 
301 9 837 237 322 235 486 877 724 317 516 
302 9 661 81 736 321 866 133 502 232 651 
303 9 501 328 439 918 129 815 306 889 354 
304 9 230 499 428 758 832 341 203 760 907 
305 9 835 2 279 352 855 196 733 559 159 
306 9 439 834 990 354 549 129 303 426 648 
307 9 46 249 202 267 509 605 813 357 468 
308 9 691 789 480 430 636 149 615 738 955 
309 9 576 925 160 88 991 137 894 911 995 
310 9 783 270 574 944 193 489 825 219 745 
311 9 940 73 264 260 905 924 822 527 575 
312 9 139 218 791 476 971 839 658 527 366 
313 9 1000 435 431 91 201 233 119 961 451 
314 9 219 131 944 193 54 843 908 252 950 
315 9 744 114 67 799 31 688 4 162 253 
316 9 949 110 888 520 554 462 125 200 487 
317 9 724 322 355 486 434 566 988 301 516 
318 9 910 286 366 627 254 112 629 218 289 
319 9 983 100 514 745 794 489 831 865 825 
320 9 879 327 632 667 850 272 531 98 619 
321 9 866 736 232 215 795 302 661 81 601 
322 9 486 724 317 301 566 45 355 346 837 
323 9 826 803 283 105 221 840 711 299 500 
324 9 764 128 138 952 619 194 170 185 792 
325 9 192 650 824 884 980 36 852 678 927 
326 9 550 108 563 633 121 22 99 920 43 
327 9 320 879 531 619 850 632 170 667 390 
328 9 303 501 129 815 426 889 671 762 274 
329 9 491 375 143 378 464 536 868 930 919 
330 9 35 777 715 3 289 420 494 980 650 
331 9 653 244 368 375 414 930 94 63 86 
332 9 974 757 902 556 896 630 521 7 449 
333 9 903 588 383 679 350 126 771 404 859 
334 9 483 557 186 79 647 213 513 402 599 
335 9 12 343 374 364 771 833 679 645 654 
336 9 663 769 874 665 699 409 19 533 979 
337 9 272 667 236 632 585 194 98 320 879 
338 9 851 656 104 503 548 266 709 32 597 
339 9 968 849 276 163 467 190 611 811 98 
340 9 58 74 742 70 842 459 716 225 179 
341 9 832 907 758 353 499 428 304 734 934 
342 9 350 383 474 859 41 828 622 333 903 
343 9 12 335 374 771 364 833 679 759 255 
344 9 938 199 853 876 370 178 346 795 45 
345 9 159 821 386 829 477 422 352 288 580 
346 9 566 938 215 853 45 344 486 988 724 
347 9 403 407 42 803 198 589 299 105 49 
348 9 873 662 361 636 615 517 847 149 216 
349 9 830 240 692 878 170 128 513 730 619 
350 9 383 342 333 679 903 588 553 859 474 
351 9 19 931 602 904 874 506 699 541 261 
352 9 477 976 821 829 580 733 835 305 559 
353 9 57 85 758 341 832 135 907 499 890 
354 9 439 66 731 549 306 834 918 501 682 
355 9 434 317 188 724 988 959 322 516 238 
356 9 635 362 10 16 95 945 703 805 973 
357 9 605 267 387 249 307 939 46 243 775 
358 9 410 954 555 689 412 173 465 946 875 
359 9 440 1000 233 313 109 201 145 435 24 
360 9 448 848 245 265 52 376 211 182 392 
361 9 873 348 615 149 517 636 662 847 466 
362 9 10 16 635 502 356 703 973 805 95 
363 9 182 987 781 690 542 592 288 581 422 
364 9 374 335 343 12 645 654 687 466 833 
365 9 631 223 130 524 469 197 598 766 164 
366 9 254 218 318 312 910 286 139 227 658 
367 9 268 654 466 687 645 517 364 374 242 
368 9 244 63 331 86 653 94 414 59 89 
369 9 148 537 20 171 68 382 479 421 78 
370 9 853 45 344 938 346 876 199 178 486 
371 9 153 647 79 886 557 609 861 76 213 
372 9 857 658 227 839 971 155 476 218 254 
373 9 956 790 484 539 180 111 525 845 807 
374 9 364 335 343 12 654 833 771 645 687 
375 9 143 329 930 653 536 919 331 491 378 
376 9 52 245 855 858 265 2 360 882 392 
377 9 677 625 8 881 553 933 511 640 400 
378 9 491 464 158 329 810 536 143 846 375 
379 9 893 44 660 248 189 732 444 83 926 
380 9 117 746 40 967 975 634 220 401 704 
381 9 402 390 513 186 557 531 170 327 619 
382 9 421 20 171 369 37 450 471 537 148 
383 9 350 333 903 342 588 859 679 41 474 
384 9 127 978 497 670 788 47 750 234 226 
385 9 593 154 60 256 205 752 141 463 755 
386 9 159 422 345 288 690 781 821 829 477 
387 9 939 775 357 605 432 418 267 207 187 
388 9 122 861 551 891 962 921 390 371 467 
389 9 870 21 778 577 132 174 269 796 512 
390 9 531 381 962 551 327 850 402 122 557 
391 9 176 50 704 220 442 694 746 763 62 
392 9 292 233 961 211 265 431 52 313 448 
393 9 899 263 728 247 753 862 53 872 926 
394 9 683 887 84 269 668 132 4 512 77 
395 9 150 457 496 623 587 787 702 801 239 
396 9 565 526 39 452 210 604 24 713 800 
397 9 739 115 222 707 214 648 950 481 990 
398 9 83 594 189 732 444 660 379 893 44 
399 9 726 942 621 200 38 184 937 507 462 
400 9 177 473 948 511 164 598 197 569 438 
401 9 634 583 967 117 672 975 228 380 582 
402 9 513 186 381 557 599 170 483 334 878 
403 9 347 803 198 407 42 105 299 589 49 
404 9 126 588 863 903 333 759 255 771 590 
405 9 989 727 552 896 174 796 894 778 870 
406 9 995 972 88 118 577 578 18 309 925 
407 9 42 589 347 403 95 973 23 290 651 
408 9 768 246 241 492 49 840 93 29 294 
409 9 659 699 665 931 19 769 820 874 802 
410 9 358 954 412 555 689 465 946 173 69 
411 9 424 209 547 540 652 927 964 712 530 
412 9 954 410 69 358 946 555 465 689 875 
413 9 595 614 166 229 524 447 994 761 969 
414 9 787 623 801 653 331 244 930 368 919 
415 9 900 87 806 43 920 638 454 208 591 
416 9 750 670 913 234 978 162 504 449 226 
417 9 741 869 28 532 465 721 694 586 596 
418 9 187 970 725 387 939 432 562 207 775 
419 9 880 669 963 786 860 444 626 854 257 
420 9 678 112 289 330 629 910 35 951 650 
421 9 382 20 171 369 450 471 37 478 148 
422 9 288 690 781 386 159 345 182 363 821 
423 9 239 702 136 457 496 61 428 907 883 
424 9 547 411 209 964 836 540 652 78 927 
425 9 445 756 784 485 965 169 59 144 89 
426 9 129 274 671 306 328 303 718 439 617 
427 9 253 701 505 688 504 528 31 226 234 
428 9 304 230 341 832 499 136 203 907 760 
429 9 814 160 991 515 911 567 119 576 137 
430 9 698 774 643 519 191 789 636 216 480 
431 9 435 313 91 961 119 1000 233 201 292 
432 9 207 775 939 387 958 187 418 490 816 
433 9 76 705 250 918 609 731 213 79 647 
434 9 355 188 238 959 317 988 817 516 767 
435 9 431 91 313 1000 119 201 961 233 451 
436 9 770 467 811 891 564 190 273 544 985 
437 9 17 838 130 761 447 596 766 62 631 
438 9 994 569 969 164 948 524 598 229 223 
439 9 306 354 834 549 303 501 990 731 918 
440 9 359 145 546 233 109 313 1000 201 858 
441 9 195 953 281 928 212 584 740 495 500 
442 9 62 50 694 674 596 176 17 838 391 
443 9 782 924 856 494 982 73 311 627 940 
444 9 732 83 189 660 594 398 44 379 893 
445 9 425 485 756 169 784 965 59 89 144 
446 8 714 933 881 216 535 191 8 875 
447 9 761 475 595 413 17 130 437 614 166 
448 9 265 360 848 245 52 211 292 392 376 
449 9 913 332 545 750 974 722 978 655 416 
450 9 471 478 37 997 421 382 611 20 171 
451 9 119 91 800 435 201 431 1000 313 515 
452 9 565 396 526 798 39 604 713 210 24 
453 9 284 729 134 280 984 90 510 579 813 
454 9 208 275 914 684 738 920 955 900 895 
455 9 51 297 999 646 33 96 7 92 630 
456 9 710 173 586 606 689 469 766 555 358 
457 9 702 239 61 423 587 395 496 883 150 
458 9 904 737 767 602 959 538 508 922 351 
459 9 742 842 70 58 340 637 716 225 74 
460 9 672 812 967 763 117 401 145 482 546 
461 9 656 220 704 740 851 928 548 746 641 
462 9 125 554 888 316 621 520 110 949 200 
463 9 6 607 794 154 256 752 385 123 593 
464 9 378 491 536 329 143 158 810 846 919 
465 9 410 358 173 412 954 69 586 689 721 
466 9 687 645 517 367 364 654 374 662 348 
467 9 436 811 770 190 891 564 276 388 544 
468 9 291 755 307 46 249 509 60 872 267 
469 8 535 606 456 365 640 766 223 631 
470 9 9 178 876 370 26 199 344 853 938 
471 9 450 478 37 997 421 382 611 20 171 
472 9 762 518 671 646 96 328 452 426 129 
473 9 177 400 948 511 164 569 598 197 553 
474 9 828 622 342 206 224 71 350 700 859 
475 9 761 447 482 674 62 614 17 15 437 
476 9 839 971 139 791 658 312 857 527 218 
477 9 580 829 976 352 821 947 706 345 159 
478 9 471 450 37 421 611 997 382 20 171 
479 9 68 296 717 148 537 676 74 27 369 
480 9 738 955 895 691 914 684 308 789 275 
481 9 617 718 739 222 397 648 707 990 115 
482 9 674 475 62 761 15 763 447 442 812 
483 9 334 557 186 79 513 599 647 402 213 
484 9 373 956 790 111 180 558 807 539 116 
485 9 445 169 59 89 756 425 168 144 86 
486 9 322 724 317 45 566 301 346 355 988 
487 9 520 554 514 751 888 808 125 865 462 
488 9 735 151 935 543 906 998 147 620 957 
489 9 745 865 310 825 319 794 270 783 944 
490 9 958 140 816 207 432 917 30 775 804 
491 9 378 464 329 158 536 143 810 375 868 
492 9 294 49 246 571 290 534 299 932 408 
493 9 708 711 776 75 993 221 241 840 723 
494 9 856 289 627 330 777 35 420 286 715 
495 9 212 841 793 281 809 102 195 441 953 
496 9 760 457 395 702 423 203 428 239 150 
497 9 47 127 522 384 107 788 996 892 613 
498 9 560 27 717 293 676 680 68 251 616 
499 9 758 304 832 341 230 428 57 353 907 
500 9 529 649 720 584 285 441 639 740 928 
501 9 303 918 328 815 439 889 354 731 306 
502 9 973 10 16 362 81 651 661 635 302 
503 9 32 579 885 984 510 729 280 104 809 
504 9 688 234 427 226 416 253 750 505 670 
505 9 701 528 253 427 504 688 226 31 234 
506 9 541 516 749 877 931 820 959 351 237 
507 9 898 621 831 726 184 399 100 38 983 
508 9 538 231 116 56 743 602 458 909 737 
509 9 202 46 307 249 278 813 872 862 267 
510 9 579 280 729 885 90 503 32 984 809 
511 9 197 640 598 400 177 164 677 473 223 
512 9 132 269 578 77 21 394 80 887 389 
513 9 402 186 599 381 878 483 334 557 170 
514 9 319 100 983 487 554 865 125 745 831 
515 9 211 961 292 431 119 435 429 91 814 
516 9 877 541 506 749 959 237 355 301 434 
517 9 662 466 348 687 847 873 361 645 615 
518 9 671 472 762 673 854 452 274 426 626 
519 9 643 774 191 430 698 946 875 216 412 
520 9 554 888 487 316 949 125 462 110 514 
521 9 600 556 902 630 217 757 92 7 33 
522 9 996 497 47 107 892 282 613 128 138 
523 9 14 743 909 56 657 231 146 13 204 
524 9 223 994 631 413 595 365 164 438 598 
525 9 901 845 936 612 152 539 790 817 823 
526 9 39 396 565 604 210 452 719 24 966 
527 9 260 264 822 791 139 905 312 575 940 
528 9 505 701 427 253 613 282 226 892 504 
529 9 500 649 720 285 584 639 441 28 740 
530 9 712 258 540 642 675 897 951 629 112 
531 9 390 962 327 850 551 879 320 381 619 
532 9 741 869 417 28 694 50 596 176 391 
533 9 979 13 261 909 14 874 523 336 602 
534 9 571 601 133 290 932 651 492 232 294 
535 8 469 640 606 933 446 197 456 511 
536 9 143 919 930 464 378 491 329 375 203 
537 9 148 369 479 68 74 171 296 717 20 
538 9 508 231 116 56 743 458 602 909 737 
539 9 790 373 956 845 525 612 142 484 901 
540 9 530 712 258 411 642 897 424 652 675 
541 9 506 516 749 877 959 931 820 237 351 
542 9 567 182 581 848 448 360 987 814 211 
543 9 998 488 957 151 620 935 735 906 65 
544 9 985 273 765 564 770 716 179 183 225 
545 9 722 287 655 913 84 796 668 449 162 
546 9 145 858 440 392 233 359 376 882 52 
547 9 424 964 836 411 78 209 680 540 293 
548 9 641 656 102 851 281 953 195 32 928 
549 9 834 66 354 682 990 439 306 648 707 
550 9 326 108 633 563 99 22 121 43 920 
551 9 962 122 531 390 850 388 861 327 879 
552 9 174 727 894 137 989 925 911 991 309 
553 9 679 350 377 12 677 335 473 343 383 
554 9 888 520 125 462 316 487 514 949 110 
555 9 689 358 410 954 875 606 946 412 173 
556 9 902 521 757 600 630 217 332 92 974 
557 9 334 483 186 647 79 381 402 371 513 
558 9 111 807 116 484 180 373 956 790 120 
559 9 733 573 34 624 279 835 352 229 305 
560 9 27 498 717 293 676 680 68 296 479 
561 9 106 196 279 697 624 882 15 835 855 
562 9 298 725 970 23 418 187 945 95 981 
563 9 326 121 920 22 43 550 108 900 633 
564 9 273 770 891 436 544 765 183 985 941 
565 9 396 452 526 39 604 210 24 713 798 
566 9 346 215 988 724 486 317 322 938 45 
567 9 581 542 814 429 987 160 182 48 576 
568 9 181 628 748 476 890 905 527 139 791 
569 9 948 438 164 969 994 177 400 473 700 
570 9 610 603 685 923 747 686 941 157 183 
571 9 534 601 133 932 290 492 651 232 294 
572 9 916 608 147 871 827 644 906 168 144 
573 9 559 733 34 624 279 835 229 352 969 
574 9 783 270 310 193 219 252 944 923 825 
575 9 822 73 940 264 286 527 260 627 791 
576 9 309 160 925 88 991 911 137 995 894 
577 9 21 88 174 389 995 578 406 925 552 
578 9 512 21 132 577 406 995 269 80 389 
579 9 510 280 729 885 503 32 984 90 809 
580 9 976 477 706 947 829 352 821 345 733 
581 9 567 987 48 542 592 576 814 160 429 
582 9 228 860 583 300 786 257 634 618 401 
583 9 634 975 401 582 228 72 380 860 786 
584 9 720 740 928 649 500 441 529 953 195 
585 9 236 272 98 337 667 163 632 879 320 
586 9 710 173 456 766 689 606 465 358 596 
587 9 883 61 457 150 395 702 239 423 867 
588 9 903 333 679 383 126 771 404 350 859 
589 9 42 407 973 290 651 347 403 502 95 
590 9 255 863 759 242 833 666 126 268 404 
591 9 638 721 806 639 285 415 69 465 87 
592 9 987 48 581 363 118 972 18 567 542 
593 9 385 60 154 205 755 256 141 752 463 
594 9 83 398 444 732 189 660 880 419 379 
595 9 413 614 166 447 524 229 761 994 130 
596 9 838 694 17 437 766 50 442 62 710 
597 9 104 709 664 984 262 278 266 172 503 
598 9 197 164 223 511 400 524 177 948 365 
599 9 513 186 878 402 483 55 334 240 780 
600 9 521 217 556 902 630 757 92 780 7 
601 9 571 534 932 133 232 290 492 651 81 
602 9 261 351 904 458 508 19 538 874 931 
603 9 747 941 685 570 610 921 183 923 157 
604 9 39 526 719 210 966 396 565 693 452 
605 9 357 267 249 387 307 46 939 243 813 
606 8 689 456 469 555 535 173 358 586 
607 9 6 463 794 507 123 154 271 983 319 
608 9 644 916 144 572 168 807 169 818 871 
609 9 76 886 153 433 747 371 731 647 79 
610 9 685 570 923 603 157 183 747 941 686 
611 9 471 450 478 997 37 421 339 382 190 
612 9 845 901 525 539 936 152 661 302 805 
613 9 892 107 282 226 986 497 522 234 384 
614 9 166 413 595 229 447 15 475 761 524 
615 9 149 636 873 348 361 662 789 517 847 
616 9 912 259 251 175 227 155 103 498 897 
617 9 718 481 274 739 222 248 397 426 926 
618 9 300 109 713 228 257 582 860 24 798 
619 9 170 327 764 324 320 879 830 531 632 
620 9 819 906 65 998 543 785 695 957 488 
621 9 831 399 100 507 125 462 726 983 898 
622 9 828 206 474 700 224 342 71 350 473 
623 9 787 150 395 414 801 496 760 457 587 
624 9 279 561 106 15 196 229 559 166 34 
625 9 8 377 677 881 933 714 446 640 553 
626 9 669 854 248 44 673 419 893 444 660 
627 9 286 289 856 494 318 575 910 73 420 
628 9 568 797 181 937 748 38 476 890 942 
629 9 951 112 642 258 678 910 420 675 712 
630 9 757 521 92 556 902 7 600 217 33 
631 9 365 130 223 524 766 437 595 413 447 
632 9 667 320 272 879 337 327 98 764 585 
633 9 108 99 550 22 326 563 754 124 723 
634 9 583 401 975 228 582 117 380 967 40 
635 9 356 362 10 16 973 95 502 703 805 
636 9 615 149 873 348 361 662 789 847 430 
637 9 751 101 156 808 459 765 487 742 157 
638 9 806 591 721 415 69 454 208 639 87 
639 9 285 591 529 500 721 283 638 649 87 
640 8 511 197 535 933 677 598 469 881 
641 9 548 102 281 953 195 656 928 740 851 
642 9 675 258 530 897 629 712 951 540 112 
643 9 519 430 774 698 191 946 875 216 480 
644 9 144 168 608 169 572 818 916 965 756 
645 9 687 466 364 374 517 654 335 8 367 
646 9 96 455 472 762 999 297 51 966 33 
647 9 79 213 250 371 153 557 334 705 483 
648 9 707 990 397 739 115 222 834 214 950 
649 9 720 529 500 584 28 285 740 928 869 
650 9 980 192 325 3 715 678 852 35 330 
651 9 133 290 534 571 81 601 589 502 973 
652 9 927 884 824 209 411 712 540 325 258 
653 9 331 375 244 930 414 143 368 329 919 
654 9 268 364 374 367 242 833 466 645 759 
655 9 287 796 545 722 778 974 332 913 870 
656 9 851 548 641 461 338 102 928 740 953 
657 9 146 204 120 743 56 523 14 231 909 
658 9 971 839 857 372 476 312 139 218 227 
659 9 409 699 665 931 820 19 802 769 749 
660 9 189 732 444 379 893 44 83 248 594 
661 9 302 81 736 502 321 866 133 612 651 
662 9 847 348 517 873 216 636 361 615 687 
663 9 336 769 665 874 699 409 19 659 533 
664 9 709 266 262 172 597 104 53 753 263 
665 9 699 409 659 769 19 874 931 663 351 
666 9 590 863 255 759 404 126 242 833 771 
667 9 632 272 320 879 98 337 585 327 236 
668 9 683 84 394 162 887 722 545 287 269 
669 9 854 626 673 419 963 880 44 248 444 
670 9 978 750 234 384 416 226 127 913 449 
671 9 518 762 472 274 426 129 328 673 854 
672 9 460 812 401 967 117 145 634 763 440 
673 9 854 669 626 963 798 518 419 257 880 
674 9 62 482 442 475 761 17 50 447 838 
675 9 897 642 530 254 258 629 951 712 366 
676 9 717 296 68 479 560 27 498 251 175 
677 9 377 625 881 8 511 640 933 553 400 
678 9 420 112 951 629 650 289 330 980 35 
679 9 333 588 771 903 12 553 343 350 383 
680 9 78 27 293 964 560 717 498 148 369 
681 9 93 29 795 932 408 199 241 768 26 
682 9 66 252 549 686 908 354 834 570 923 
683 9 668 84 394 887 162 269 4 287 722 
684 9 914 895 955 121 738 275 208 454 480 
685 9 610 603 183 157 570 923 941 747 765 
686 9 66 570 682 923 731 747 610 603 354 
687 9 645 466 517 364 374 654 662 8 367 
688 9 504 427 253 701 505 162 234 416 744 
689 9 555 358 606 410 173 456 954 875 412 
690 9 781 288 422 386 363 182 159 345 848 
691 9 308 789 480 738 955 895 430 914 684 
692 9 240 349 830 878 730 128 47 788 170 
693 9 719 604 727 210 39 800 966 451 911 
694 9 50 442 596 62 176 838 532 391 17 
695 9 818 906 785 819 620 868 168 572 65 
696 9 64 165 915 11 123 917 864 25 113 
697 9 106 882 561 196 15 279 624 858 855 
698 9 774 430 191 216 643 519 847 636 662 
699 9 665 409 659 19 931 769 874 351 820 
700 9 206 622 828 569 224 474 948 473 177 
701 9 505 253 427 528 688 31 504 226 234 
702 9 239 423 457 136 61 496 883 587 428 
703 9 805 142 16 362 10 635 356 97 845 
704 9 220 746 391 176 461 380 40 117 50 
705 9 250 213 433 79 918 647 889 815 76 
706 9 947 580 976 477 829 352 224 71 821 
707 9 648 397 739 115 990 222 214 950 834 
708 9 75 723 493 124 711 776 993 221 754 
709 9 664 597 104 266 262 172 984 278 53 
710 9 586 456 173 766 606 689 596 465 469 
711 9 221 493 840 283 75 708 826 241 776 
712 9 258 530 540 642 951 629 675 897 652 
713 9 109 24 618 300 396 798 565 452 210 
714 8 446 933 881 216 191 8 847 625 
715 9 3 35 777 330 980 650 420 852 678 
716 9 179 225 70 742 985 340 544 459 58 
717 9 27 560 676 68 479 498 296 680 148 
718 9 617 481 274 739 426 222 248 990 397 
719 9 966 604 693 39 526 210 96 396 565 
720 9 649 584 500 529 740 928 28 441 869 
721 9 591 638 465 806 69 639 285 28 417 
722 9 545 287 655 913 84 796 668 162 449 
723 9 124 708 75 22 754 493 993 776 87 
724 9 322 486 317 566 355 301 988 45 346 
725 9 970 562 418 187 298 981 23 134 387 
726 9 399 184 38 942 621 507 898 937 797 
727 9 894 137 552 989 911 991 174 925 693 
728 9 753 263 247 393 926 53 172 899 862 
729 9 280 510 90 579 453 984 503 885 134 
730 9 788 692 240 878 349 47 830 127 599 
731 9 918 354 66 433 76 439 501 609 686 
732 9 444 189 83 660 594 398 379 893 44 
733 9 559 573 34 835 279 352 624 305 976 
734 9 934 907 890 136 161 748 341 832 353 
735 9 151 488 935 543 147 906 871 998 97 
736 9 321 302 866 661 81 232 152 901 215 
737 9 458 767 180 922 823 904 116 817 238 
738 9 955 914 895 480 684 275 208 454 121 
739 9 397 222 115 707 214 648 481 950 990 
740 9 928 584 953 195 441 720 641 281 461 
741 9 532 417 869 28 694 596 50 586 465 
742 9 459 70 340 842 58 716 225 179 637 
743 9 56 14 231 523 909 657 146 508 204 
744 9 315 67 114 799 31 688 253 427 4 
745 9 489 865 825 319 310 514 794 270 983 
746 9 220 704 380 40 117 391 967 176 461 
747 9 603 941 570 921 685 886 609 610 76 
748 9 181 890 568 934 734 628 161 353 907 
749 9 877 820 506 541 237 802 516 235 837 
750 9 670 978 416 234 913 384 226 449 127 
751 9 808 637 825 865 487 156 101 514 270 
752 9 256 154 843 385 205 463 944 794 141 
753 9 263 728 53 172 393 899 862 262 247 
754 9 124 993 776 723 22 708 633 493 99 
755 9 60 243 960 468 291 593 357 605 775 
756 9 784 965 425 445 169 485 144 644 168 
757 9 630 902 556 521 92 332 7 600 974 
758 9 499 832 341 353 57 304 85 907 428 
759 9 255 863 833 242 590 771 126 343 374 
760 9 203 230 496 801 428 919 304 536 930 
761 9 447 475 17 437 838 130 674 62 595 
762 9 472 671 518 646 328 96 129 426 274 
763 9 812 967 460 117 482 674 391 442 62 
764 9 324 194 619 952 138 632 128 170 320 
765 9 183 273 157 101 544 156 985 564 637 
766 9 710 437 586 838 130 456 17 596 631 
767 9 458 737 959 904 188 823 922 238 817 
768 9 408 246 49 492 241 840 294 299 93 
769 9 665 663 336 699 409 874 19 659 931 
770 9 436 564 467 811 891 273 544 190 985 
771 9 343 12 335 679 833 374 588 759 903 
772 9 135 271 898 184 85 38 507 57 726 
773 9 77 80 4 114 887 799 512 132 394 
774 9 698 191 430 216 643 519 847 875 636 
775 9 939 387 432 960 207 243 357 605 267 
776 9 993 493 754 708 124 241 26 723 75 
777 9 35 330 715 3 980 494 289 650 420 
778 9 870 796 389 287 269 21 132 655 84 
779 9 844 929 161 982 61 883 867 905 239 
780 9 55 217 600 521 599 999 51 630 483 
781 9 690 288 422 363 386 182 159 848 345 
782 9 443 924 982 867 311 844 856 940 73 
783 9 270 574 310 193 825 865 944 489 219 
784 9 965 756 425 445 169 120 485 204 146 
785 9 868 819 695 620 65 906 818 94 329 
786 9 860 880 257 419 963 582 300 228 669 
787 9 623 414 150 395 801 496 653 331 930 
788 9 127 47 730 384 497 692 978 240 522 
789 9 308 691 430 636 149 615 480 698 774 
790 9 373 956 539 484 180 525 845 922 111 
791 9 139 312 527 476 822 218 260 264 839 
792 9 185 952 138 167 277 128 194 996 324 
793 9 495 841 809 212 102 281 885 32 195 
794 9 319 6 463 607 489 983 745 100 752 
795 9 232 681 866 321 932 199 938 215 601 
796 9 778 287 655 870 722 545 389 84 269 
797 9 937 942 628 38 399 726 184 200 155 
798 9 963 257 673 300 452 860 669 854 786 
799 9 67 114 4 887 683 315 668 744 77 
800 9 451 210 201 91 119 24 1000 435 313 
801 9 919 760 930 203 414 623 496 143 536 
802 9 820 235 749 237 877 659 506 837 541 
803 9 105 198 403 323 299 347 826 49 246 
804 9 810 158 992 30 25 846 917 378 65 
805 9 703 142 16 362 10 635 356 612 845 
806 9 638 415 591 454 208 900 721 69 87 
807 9 111 558 484 916 608 956 373 790 116 
808 9 751 825 865 637 487 156 514 101 270 
809 9 793 885 32 102 495 510 579 841 212 
810 9 158 804 378 491 992 464 846 25 65 
811 9 190 467 436 770 544 985 891 564 273 
812 9 460 763 967 672 117 482 401 674 380 
813 9 284 202 249 46 267 307 981 509 605 
814 9 429 160 567 991 515 911 576 119 211 
815 9 889 501 303 328 705 250 918 213 999 
816 9 140 958 490 207 432 775 960 917 64 
817 9 238 823 922 188 936 152 525 767 901 
818 9 695 168 144 89 785 906 644 94 59 
819 9 620 65 906 785 998 868 695 543 957 
820 9 802 749 235 877 237 506 659 541 931 
821 9 829 345 477 352 159 580 976 386 305 
822 9 264 575 527 260 940 73 791 139 312 
823 9 922 817 238 180 188 737 767 936 152 
824 9 884 36 927 325 652 192 209 650 852 
825 9 865 808 745 751 270 489 783 310 514 
826 9 323 105 840 221 246 803 299 711 283 
827 9 871 97 147 142 916 572 735 151 956 
828 9 622 474 206 700 224 342 350 71 473 
829 9 821 477 345 580 352 976 159 386 706 
830 9 349 240 692 878 170 128 619 513 324 
831 9 100 983 621 125 507 462 319 514 399 
832 9 341 907 758 499 353 428 304 57 734 
833 9 759 255 863 242 771 343 590 374 12 
834 9 990 306 549 439 648 354 707 66 397 
835 9 305 2 279 733 559 352 196 573 855 
836 9 547 964 424 78 20 680 411 293 369 
837 9 301 237 235 877 749 322 486 516 724 
838 9 17 437 596 761 766 130 62 447 442 
839 9 971 658 857 476 372 139 312 218 791 
840 9 711 221 241 826 768 408 493 246 283 
841 9 212 495 793 198 281 809 102 441 195 
842 9 459 58 742 340 74 70 520 949 296 
843 9 131 314 82 141 752 54 205 256 944 
844 9 779 929 982 161 867 311 905 924 61 
845 9 612 525 901 539 936 152 790 373 805 
846 9 992 113 25 917 804 810 464 378 158 
847 9 662 216 348 517 873 698 636 774 191 
848 9 360 448 265 245 182 542 52 211 292 
849 9 968 163 276 339 98 585 236 850 667 
850 9 531 879 962 320 327 551 98 667 632 
851 9 656 338 548 641 461 102 40 32 220 
852 9 192 977 980 650 3 325 715 36 35 
853 9 370 344 938 45 346 199 876 178 566 
854 9 669 673 626 963 419 248 798 44 880 
855 9 2 376 882 52 245 196 305 858 835 
856 9 494 627 289 73 924 940 575 286 443 
857 9 372 658 839 971 155 227 476 312 139 
858 9 546 376 145 52 392 882 855 245 233 
859 9 41 342 383 350 333 903 588 474 71 
860 9 786 257 963 880 582 300 419 228 798 
861 9 388 122 891 921 551 371 962 153 941 
862 9 899 53 263 872 393 753 278 728 172 
863 9 255 759 590 833 242 126 771 404 666 
864 9 165 85 11 135 57 271 758 772 696 
865 9 825 808 745 489 751 514 270 310 319 
866 9 321 232 736 795 215 302 661 601 81 
867 9 982 883 844 61 779 587 782 924 929 
868 9 785 819 65 329 620 158 491 695 378 
869 9 28 417 741 532 720 649 584 721 694 
870 9 778 389 796 21 132 269 287 577 512 
871 9 147 827 97 572 735 916 151 488 935 
872 9 899 862 393 509 263 53 753 291 468 
873 9 348 361 615 636 149 662 517 847 698 
874 9 19 699 665 769 351 261 931 409 602 
875 8 555 946 191 689 358 954 519 410 
876 9 178 199 344 26 938 853 29 93 370 
877 9 749 516 237 506 541 235 837 301 820 
878 9 240 349 830 692 513 599 730 402 186 
879 9 320 327 632 667 850 531 272 98 619 
880 9 419 786 860 963 594 669 257 444 83 
881 8 8 933 625 714 446 377 677 640 
882 9 196 697 561 106 855 376 858 279 2 
883 9 61 587 457 702 239 867 423 779 150 
884 9 824 927 652 325 36 192 209 712 258 
885 9 32 579 809 510 503 102 280 729 793 
886 9 609 76 153 371 747 433 921 647 941 
887 9 394 683 4 84 668 77 269 132 512 
888 9 554 316 520 949 462 125 110 487 200 
889 9 815 705 250 501 303 213 328 918 999 
890 9 748 934 181 734 353 568 907 161 628 
891 9 436 564 770 467 388 861 921 122 811 
892 9 613 107 282 986 522 5 497 226 996 
893 9 379 44 248 660 189 732 444 83 626 
894 9 137 727 911 552 991 925 174 989 160 
895 9 955 684 914 738 121 275 480 208 454 
896 9 7 974 92 332 757 630 33 902 556 
897 9 675 642 530 258 254 712 616 540 227 
898 9 507 184 772 726 271 38 621 399 831 
899 9 862 393 263 872 53 753 728 247 172 
900 9 43 920 415 87 454 208 275 563 806 
901 9 936 152 525 612 845 817 736 539 238 
902 9 556 521 757 600 630 217 332 92 974 
903 9 588 333 383 679 126 771 350 404 859 
904 9 458 767 602 959 737 351 541 506 188 
905 9 260 527 929 264 311 822 940 791 73 
906 9 620 819 695 543 488 998 735 151 65 
907 9 341 832 734 934 136 353 428 758 890 
908 9 252 219 193 682 314 54 131 950 549 
909 9 14 523 743 56 13 231 261 508 538 
910 9 318 286 112 366 629 627 420 951 289 
911 9 991 137 894 160 727 552 925 309 576 
912 9 259 175 616 103 251 155 227 372 857 
913 9 449 545 722 416 750 670 655 978 287 
914 9 684 955 895 738 275 121 208 454 480 
915 9 64 11 696 165 917 25 113 123 992 
916 9 572 608 871 827 807 147 644 111 144 
917 9 25 915 992 64 11 113 846 140 696 
918 9 731 433 501 705 354 303 250 76 439 
919 9 930 536 143 801 203 760 375 464 329 
920 9 900 43 275 415 454 563 121 208 684 
921 9 941 747 603 861 891 886 564 153 609 
922 9 823 180 817 737 238 767 188 936 525 
923 9 610 570 685 603 574 686 157 270 783 
924 9 311 782 940 73 982 856 443 844 264 
925 9 309 88 576 137 894 174 552 160 991 
926 9 247 728 379 393 893 753 263 44 248 
927 9 652 884 824 209 411 325 36 712 540 
928 9 740 584 953 195 441 641 281 720 548 
929 9 161 905 779 844 311 260 264 527 940 
930 9 143 919 375 536 801 653 329 464 331 
931 9 19 351 699 506 409 659 541 665 820 
932 9 601 571 534 232 133 492 290 681 795 
933 8 446 881 714 640 535 625 8 677 
934 9 734 890 907 748 161 136 341 832 181 
935 9 151 735 488 543 998 147 957 906 97 
936 9 152 901 525 817 238 612 823 845 922 
937 9 797 942 628 38 399 726 184 200 155 
938 9 344 853 346 199 370 876 215 566 795 
939 9 387 775 432 207 357 418 605 243 187 
940 9 73 264 311 575 822 260 527 905 924 
941 9 747 603 921 685 570 610 564 886 183 
942 9 399 937 797 726 38 200 184 621 628 
943 9 945 187 356 970 418 562 725 635 432 
944 9 219 314 193 310 574 131 783 843 270 
945 9 943 356 970 562 187 418 635 725 298 
946 9 954 412 875 410 555 358 69 519 643 
947 9 706 580 976 477 352 224 829 71 206 
948 9 569 177 400 164 473 438 598 994 511 
949 9 316 110 888 520 200 554 462 125 175 
950 9 54 115 214 397 222 707 739 131 648 
951 9 629 112 258 642 678 712 530 910 420 
952 9 185 792 138 167 194 324 128 764 996 
953 9 195 281 928 441 740 641 548 102 495 
954 9 412 410 358 946 555 69 689 465 875 
955 9 895 914 684 738 275 480 121 208 454 
956 9 373 790 484 539 180 111 525 807 845 
957 9 998 543 65 30 620 488 819 935 151 
958 9 490 140 816 207 432 775 30 917 939 
959 9 767 516 188 434 541 904 355 506 458 
960 9 243 775 755 939 357 387 605 60 207 
961 9 292 211 431 515 435 392 233 313 119 
962 9 551 531 850 390 122 327 388 879 320 
963 9 257 798 419 786 860 880 669 673 854 
964 9 78 547 680 293 424 836 27 411 560 
965 9 784 756 169 425 120 445 204 146 644 
966 9 719 96 604 39 526 693 646 565 210 
967 9 117 380 401 812 763 460 672 634 746 
968 9 849 276 339 163 98 467 585 236 811 
969 9 438 994 229 569 34 413 524 164 595 
970 9 725 562 418 187 298 945 981 23 387 
971 9 839 658 857 476 372 139 312 218 791 
972 9 118 406 18 995 48 88 576 309 578 
973 9 502 589 10 362 16 651 635 42 407 
974 9 332 757 896 902 556 630 7 92 521 
975 9 583 634 72 40 380 401 117 582 228 
976 9 580 477 352 947 706 829 821 733 573 
977 9 852 192 36 980 650 3 325 715 824 
978 9 670 750 384 127 234 416 226 788 913 
979 9 533 13 261 909 14 874 523 336 602 
980 9 650 3 715 35 192 852 777 330 325 
981 9 134 284 813 725 453 267 357 605 970 
982 9 867 844 782 924 779 311 929 443 883 
983 9 100 831 319 514 621 794 125 462 507 
984 9 503 104 579 510 729 597 453 280 885 
985 9 544 273 765 716 179 225 70 770 564 
986 9 5 282 892 613 277 107 522 996 497 
987 9 592 581 48 363 567 542 182 118 972 
988 9 566 215 317 355 724 346 434 322 486 
989 9 727 552 174 405 894 137 911 925 991 
990 9 834 648 707 306 549 739 397 439 481 
991 9 911 137 160 894 727 309 925 576 552 
992 9 25 846 113 917 804 810 158 915 11 
993 9 776 754 493 124 708 723 26 75 241 
994 9 438 969 524 164 413 569 229 595 223 
995 9 406 88 577 972 925 309 118 576 578 
996 9 522 128 47 138 497 792 107 277 952 
997 9 37 450 471 478 611 382 421 171 225 
998 9 543 957 65 620 819 488 906 151 935 
999 9 51 455 297 33 646 92 7 780 889 
1000 9 201 313 91 435 431 233 119 451 800 
DEPOT_SECTION
   1
   -1
EOF
