NAME :  X-n148-kX-w58-c9.cctp
COMMENT : 	Adapted by Maziero, Usberti and Cavellucci from the Uchoa, Pecin, Pessoa, Poggi, Subramanian, and Vidal (2013)
TYPE :  CCTP
DIMENSION :    139
EDGE_WEIGHT_TYPE : 	EUC_2D	
CAPACITY : 	18
VERTICES_WITHIN_COVERAGE :  9
VERTICES_WITH_DEMAND : 	58
NODE_COORD_SECTION
1 707 633
2 405 122
3 811 419
4 11 667
5 336 612
6 366 50
7 98 836
8 414 996
9 243 713
10 100 232
11 891 946
12 132 204
13 25 642
14 994 18
15 636 897
16 214 651
17 108 619
18 882 399
19 863 607
20 409 585
21 247 882
22 553 507
23 677 258
24 673 644
25 25 182
26 251 111
27 263 799
28 660 359
29 351 288
30 172 127
31 382 441
32 231 650
33 966 485
34 964 107
35 876 164
36 949 328
37 936 70
38 229 744
39 161 214
40 581 594
41 154 860
42 23 374
43 736 600
44 594 542
45 846 684
46 355 471
47 675 597
48 663 653
49 61 889
50 685 150
51 129 248
52 161 301
53 180 836
54 427 670
55 833 860
56 669 251
57 411 403
58 450 926
59 591 505
60 468 157
61 288 484
62 574 955
63 41 65
64 175 486
65 74 436
66 907 13
67 579 912
68 765 835
69 176 189
70 972 351
71 470 22
72 577 469
73 561 672
74 110 670
75 811 614
76 460 344
77 22 369
78 898 295
79 89 934
80 89 973
81 896 544
82 503 364
83 765 469
84 702 482
85 481 321
86 827 627
87 541 599
88 111 694
89 891 231
90 884 324
91 555 436
92 186 502
93 442 319
94 823 255
95 367 339
96 572 872
97 715 620
98 134 794
99 85 912
100 191 561
101 79 911
102 924 508
103 132 871
104 962 682
105 170 677
106 847 462
107 732 383
108 904 368
109 980 376
110 281 669
111 84 809
112 114 715
113 83 648
114 45 944
115 84 965
116 465 407
117 779 427
118 854 305
119 518 500
120 216 721
121 597 643
122 859 298
123 954 764
124 339 814
125 142 552
126 400 366
127 21 341
128 67 772
129 897 552
130 189 530
131 930 232
132 472 396
133 92 325
134 877 475
135 451 370
136 1 416
137 712 100
138 869 270
139 100 342
DEMAND_SECTION
2 10
3 4
4 7
5 4
6 8
7 1
8 4
9 1
10 5
11 5
12 1
13 4
14 4
15 4
16 2
17 5
18 3
19 10
20 1
21 2
22 9
23 5
24 5
25 2
26 1
27 7
28 10
29 5
30 10
31 10
32 2
33 9
34 1
35 10
36 9
37 2
38 3
39 4
40 4
41 9
42 10
43 5
44 4
45 10
46 1
47 5
48 8
49 5
50 1
51 6
52 10
53 1
54 6
55 4
56 3
57 7
58 2
59 8
COVERAGE_SECTION
2 9 60 6 71 26 29 93 85 95 76 
3 6 117 106 83 18 107 134 
4 9 13 113 74 88 17 112 128 105 111 
5 9 20 110 54 32 16 9 61 46 100 
6 9 2 71 26 60 30 69 29 39 12 
7 9 111 103 98 41 49 128 99 101 53 
8 9 58 62 67 124 96 21 15 27 53 
9 9 120 38 110 32 16 105 27 112 88 
10 9 51 12 39 69 25 52 133 139 30 
11 9 55 68 123 15 45 104 67 62 86 
12 9 39 10 51 69 30 52 25 133 139 
13 9 4 113 17 74 88 112 128 125 105 
14 9 37 66 34 35 131 89 138 94 78 
15 9 67 96 62 68 58 55 73 8 48 
16 9 32 105 9 110 120 100 38 74 17 
17 9 113 74 88 125 105 13 112 100 4 
18 8 108 106 3 90 134 36 118 109 
19 5 86 75 129 81 45 
20 9 5 54 46 87 119 31 110 61 22 
21 9 53 27 41 124 103 38 98 7 120 
22 9 119 59 72 44 91 40 87 116 132 
23 9 56 28 50 107 94 137 118 122 138 
24 9 48 47 97 121 43 40 73 44 87 
25 9 10 12 63 51 39 69 30 133 127 
26 9 30 69 6 39 12 2 51 10 29 
27 9 38 124 21 9 53 120 41 98 110 
28 9 107 23 56 84 91 117 72 83 82 
29 9 95 126 93 76 135 57 85 31 132 
30 9 69 26 12 39 10 51 63 25 52 
31 9 46 57 126 116 135 132 61 95 76 
32 9 16 110 9 105 120 38 100 5 74 
33 7 102 134 81 129 109 18 106 
34 9 37 14 35 66 131 89 138 78 94 
35 9 89 131 34 94 138 37 78 122 118 
36 9 70 109 108 78 90 122 18 118 131 
37 9 34 66 14 35 131 89 138 94 137 
38 9 120 9 27 105 110 16 32 53 98 
39 9 69 12 51 10 52 30 133 26 25 
40 9 87 121 44 73 59 22 47 48 24 
41 9 103 53 7 98 99 111 101 21 49 
42 9 77 127 136 65 139 133 52 10 51 
43 6 97 47 75 24 48 86 
44 9 59 22 40 72 87 119 47 121 91 
45 8 86 75 19 104 123 43 129 97 
46 9 31 61 57 126 20 116 95 132 135 
47 9 97 24 48 43 121 40 44 84 59 
48 9 24 47 97 121 43 40 73 44 87 
49 9 101 99 79 114 7 103 115 111 80 
50 9 137 56 23 94 35 28 60 138 89 
51 9 10 12 39 52 69 133 139 25 30 
52 9 51 133 139 39 10 12 69 127 77 
53 9 41 103 98 21 7 27 111 38 120 
54 9 20 5 73 87 110 124 40 121 9 
55 9 68 11 123 45 15 104 86 75 19 
56 9 23 50 28 107 94 137 118 122 82 
57 9 126 31 135 116 132 76 95 46 93 
58 9 8 62 67 96 124 15 21 27 54 
59 9 44 22 72 119 91 40 87 84 47 
60 9 2 71 6 93 85 29 76 95 82 
61 9 46 31 92 130 64 100 5 57 20 
62 9 67 96 15 58 8 68 124 55 73 
63 9 25 30 12 10 69 39 51 26 52 
64 9 92 130 125 100 61 65 17 139 16 
65 9 136 42 77 139 127 133 64 92 125 
66 9 37 14 34 35 137 89 131 94 138 
67 9 96 62 15 58 8 68 73 55 124 
68 9 55 15 11 45 96 67 123 48 24 
69 9 39 12 30 51 10 26 52 25 133 
70 9 109 36 108 90 78 18 122 131 118 
71 9 6 2 60 26 50 137 29 93 85 
72 9 59 91 22 119 44 40 84 82 116 
73 9 121 87 40 48 24 44 54 47 97 
74 9 88 113 112 17 105 13 4 16 128 
75 5 86 19 43 45 97 
76 9 135 85 93 82 132 116 126 57 95 
77 9 42 127 136 133 139 65 52 10 51 
78 9 90 138 122 118 36 89 131 108 94 
79 9 99 101 115 80 114 49 103 7 41 
80 9 115 79 114 99 101 49 103 41 7 
81 4 129 102 19 134 
82 9 132 76 85 135 116 93 91 57 126 
83 4 117 84 3 106 
84 5 83 117 107 59 47 
85 9 76 93 82 135 132 116 126 57 95 
86 6 75 19 45 43 129 81 
87 9 40 121 73 44 22 119 59 20 48 
88 9 112 74 113 105 17 128 13 98 4 
89 9 131 138 78 35 94 122 118 90 36 
90 9 78 118 122 108 138 36 18 70 94 
91 9 72 22 119 59 82 132 116 44 135 
92 9 64 130 100 125 61 65 17 16 32 
93 9 76 85 135 126 82 95 132 57 116 
94 9 138 122 118 89 78 90 35 131 108 
95 9 126 29 57 93 135 76 31 85 116 
96 9 67 15 62 58 68 73 8 121 48 
97 7 43 47 24 48 75 86 121 
98 9 111 7 53 41 128 103 112 88 38 
99 9 101 79 49 114 115 80 103 7 41 
100 9 130 125 92 64 16 32 17 105 61 
101 9 99 79 49 114 115 80 103 7 41 
102 5 81 33 129 134 106 
103 9 41 7 53 99 101 49 79 98 111 
104 8 123 45 19 129 86 81 75 102 
105 9 16 74 88 120 32 112 9 17 38 
106 4 134 3 18 117 
107 7 117 28 3 83 84 23 106 
108 9 18 90 36 70 78 109 118 122 138 
109 9 70 36 108 18 90 33 78 102 134 
110 9 32 9 16 5 120 38 105 27 100 
111 9 7 128 98 103 49 41 112 53 101 
112 9 88 74 105 113 128 98 17 111 120 
113 9 74 17 88 13 4 112 105 125 128 
114 9 115 79 101 99 80 49 103 7 41 
115 9 80 79 114 99 101 49 103 41 7 
116 9 132 135 57 82 76 126 85 31 93 
117 5 3 83 107 106 84 
118 9 122 90 138 78 94 108 89 18 36 
119 9 22 72 59 91 44 87 116 40 132 
120 9 38 9 105 16 32 110 27 112 88 
121 9 73 40 48 87 24 47 44 97 59 
122 9 118 138 90 78 94 89 108 36 131 
123 9 104 45 55 19 86 11 68 75 129 
124 9 27 21 38 9 120 110 58 53 54 
125 9 100 130 92 64 17 113 16 74 105 
126 9 57 95 135 93 76 31 116 132 29 
127 9 77 42 133 136 139 65 10 51 52 
128 9 111 7 98 112 88 74 49 103 4 
129 4 81 102 19 134 
130 9 92 100 64 125 61 17 16 32 105 
131 9 89 78 138 35 122 36 90 118 94 
132 9 116 135 82 76 57 85 126 93 91 
133 9 139 52 127 77 42 51 10 65 12 
134 4 106 102 81 18 
135 9 76 132 116 126 57 82 93 85 95 
136 9 42 77 65 127 139 133 64 125 52 
137 9 50 56 23 35 94 66 89 37 138 
138 9 122 78 118 89 94 90 131 36 108 
139 9 133 52 127 42 77 51 65 10 136 
DEPOT_SECTION
   1
   -1
EOF
