NAME :  X-n106-kX-w21-c11.cctp
COMMENT : 	Adapted by Maziero, Usberti and Cavellucci from the Uchoa, Pecin, Pessoa, Poggi, Subramanian, and Vidal (2013)
TYPE :  CCTP
DIMENSION :    105
EDGE_WEIGHT_TYPE : 	EUC_2D	
CAPACITY : 	600
VERTICES_WITHIN_COVERAGE :  11
VERTICES_WITH_DEMAND : 	21
NODE_COORD_SECTION
1 0 0
2 615 190
3 890 200
4 983 684
5 959 743
6 569 146
7 969 841
8 607 256
9 936 274
10 650 221
11 943 547
12 789 172
13 632 209
14 849 163
15 829 283
16 618 147
17 925 627
18 925 192
19 903 460
20 666 368
21 906 622
22 833 185
23 411 136
24 989 691
25 601 221
26 429 500
27 522 218
28 760 346
29 674 183
30 951 705
31 898 154
32 953 661
33 425 212
34 775 159
35 900 649
36 943 290
37 724 315
38 927 705
39 865 817
40 872 161
41 966 478
42 974 694
43 669 159
44 603 140
45 598 122
46 715 230
47 777 693
48 890 231
49 775 230
50 908 849
51 625 138
52 490 185
53 643 163
54 849 183
55 998 675
56 619 495
57 844 67
58 861 276
59 888 679
60 641 141
61 869 766
62 495 244
63 852 110
64 976 143
65 921 783
66 688 211
67 857 199
68 758 636
69 990 213
70 973 806
71 748 240
72 737 95
73 933 664
74 770 172
75 616 250
76 641 146
77 867 199
78 544 327
79 711 277
80 893 778
81 992 868
82 685 11
83 869 204
84 646 260
85 849 185
86 918 400
87 645 144
88 923 339
89 931 686
90 582 212
91 1000 309
92 572 192
93 676 183
94 989 59
95 798 642
96 582 39
97 686 188
98 995 720
99 802 185
100 603 126
101 657 185
102 574 195
103 661 174
104 614 195
105 961 162
DEMAND_SECTION
2 81
3 64
4 51
5 61
6 71
7 83
8 92
9 66
10 92
11 78
12 98
13 88
14 70
15 72
16 92
17 84
18 51
19 81
20 71
21 98
22 70
COVERAGE_SECTION
2 11 104 13 25 53 90 102 101 16 92 10 103 
3 11 83 77 48 67 18 40 54 85 31 14 22 
4 11 24 42 55 30 32 98 89 73 38 5 17 
5 11 30 98 38 42 65 24 4 89 70 80 55 
6 11 44 45 100 92 16 102 51 2 90 104 60 
7 11 70 81 50 65 5 80 39 98 61 30 38 
8 11 75 25 84 90 13 10 104 2 102 92 101 
9 11 36 48 88 91 58 69 18 3 83 77 15 
10 11 13 101 66 84 104 29 75 93 2 103 25 
11 11 41 17 21 19 35 32 73 55 89 4 59 
12 11 99 34 74 22 49 14 54 85 67 71 77 
13 11 10 104 2 25 101 75 103 53 29 90 93 
14 11 54 85 40 22 67 77 83 31 99 63 3 
15 11 58 49 48 67 83 71 77 28 22 85 54 
16 11 51 44 76 60 100 87 53 45 2 104 6 
17 11 21 35 73 32 89 59 38 4 11 30 42 
18 11 3 31 105 48 83 77 40 67 69 64 85 
19 11 86 41 11 88 21 17 36 91 28 9 35 
20 11 37 28 79 84 8 75 78 56 46 10 71 
21 11 17 35 73 59 32 89 11 38 30 4 42 
22 11 54 85 14 67 99 77 83 12 40 3 34 
23 11 33 52 62 27 6 92 102 90 45 44 100 
24 11 4 42 55 98 30 32 89 5 73 38 17 
25 11 90 104 13 75 2 8 102 92 10 84 101 
26 11 56 78 62 20 33 27 8 75 52 84 90 
27 11 62 52 92 102 90 25 6 8 104 2 33 
28 11 37 79 15 20 71 49 58 46 84 66 88 
29 11 93 97 103 101 43 66 53 10 13 87 76 
30 11 38 42 89 4 5 24 32 73 98 55 59 
31 11 40 3 18 14 77 54 83 85 67 63 105 
32 11 73 89 4 42 17 30 24 55 38 35 21 
33 11 52 23 62 27 92 102 90 6 78 25 8 
34 10 74 12 99 22 49 14 72 54 85 71 
35 11 21 59 17 73 89 32 38 30 42 4 24 
36 11 9 88 91 48 58 69 18 3 83 86 15 
37 11 79 28 20 71 46 84 49 15 66 10 75 
38 11 89 30 73 59 42 5 32 4 35 24 98 
39 11 80 61 50 65 7 70 5 38 81 59 30 
40 11 14 31 54 85 77 67 3 83 22 63 18 
41 11 19 11 86 88 17 21 91 32 35 36 73 
42 11 4 24 30 55 98 32 89 38 5 73 17 
43 11 103 29 93 53 87 101 76 60 97 51 16 
44 11 100 16 45 51 6 60 76 87 53 2 104 
45 11 100 44 51 16 6 60 76 87 53 2 92 
46 11 66 71 79 97 49 93 29 10 101 84 103 
47 11 95 68 59 61 35 80 21 38 39 89 73 
48 11 3 83 77 67 18 58 85 9 54 40 22 
49 11 71 99 74 12 46 34 22 15 79 85 54 
50 11 39 7 65 80 70 81 61 5 38 30 98 
51 11 16 60 76 87 44 100 45 53 43 103 2 
52 11 27 62 33 92 102 6 23 90 25 44 104 
53 11 76 87 103 60 43 101 16 51 29 2 93 
54 11 85 22 67 14 77 83 40 3 99 31 12 
55 11 4 24 42 98 32 30 73 89 38 5 17 
56 11 20 78 26 68 28 37 95 79 84 8 75 
57 11 63 14 40 31 72 34 54 85 12 22 99 
58 11 15 48 83 9 67 77 3 36 88 85 54 
59 11 35 89 38 73 21 17 32 30 42 61 4 
60 11 76 87 51 53 16 43 44 103 100 45 101 
61 11 80 39 65 38 59 50 5 89 30 70 47 
62 11 27 52 33 90 92 102 78 25 8 75 6 
63 11 57 14 40 31 54 85 22 12 67 77 99 
64 11 105 18 69 31 94 3 40 48 77 83 63 
65 11 80 5 61 70 39 50 7 38 30 98 89 
66 11 97 93 29 46 10 101 103 43 13 84 53 
67 11 77 83 85 54 22 3 14 40 48 99 31 
68 11 95 47 59 35 21 17 61 73 89 38 80 
69 11 105 18 64 9 36 91 3 48 31 83 77 
70 11 7 65 5 81 50 80 98 30 39 38 61 
71 11 49 46 79 66 74 99 12 37 97 34 15 
72 10 34 74 12 43 82 87 60 97 93 29 
73 11 32 89 35 17 38 30 59 21 42 4 24 
74 11 34 12 99 49 22 71 14 46 54 85 72 
75 11 8 84 25 13 10 90 104 2 102 92 101 
76 11 87 60 53 51 16 43 103 44 101 100 45 
77 11 83 67 3 85 54 22 40 48 14 31 18 
78 11 8 62 75 27 25 90 84 20 102 92 13 
79 11 37 46 71 84 66 49 10 28 97 75 93 
80 11 61 65 39 50 5 38 70 30 7 59 89 
81 11 7 70 50 65 5 80 39 98 61 30 38 
82 10 72 96 60 87 51 45 100 76 43 16 
83 11 77 67 3 85 54 48 22 40 14 18 31 
84 11 75 8 10 13 25 66 79 104 46 101 2 
85 11 54 22 67 14 77 83 40 3 99 31 12 
86 11 88 19 41 36 91 9 58 15 11 28 48 
87 11 76 60 53 51 16 43 103 44 101 100 29 
88 11 36 86 9 91 58 15 48 19 3 69 41 
89 11 38 73 30 32 42 59 35 4 24 17 5 
90 11 102 25 92 104 2 13 8 75 27 6 10 
91 11 36 9 88 69 86 48 18 58 105 3 64 
92 11 102 90 25 104 2 6 27 44 13 16 8 
93 11 29 97 103 101 43 66 53 10 87 13 76 
94 11 64 105 31 57 63 18 69 40 3 14 77 
95 11 68 47 59 35 21 17 73 89 61 38 32 
96 11 45 100 44 82 6 51 16 60 76 87 53 
97 11 93 29 66 101 103 43 10 53 46 13 87 
98 11 24 42 4 5 55 30 38 32 89 73 70 
99 11 12 22 74 34 54 85 14 49 67 77 83 
100 11 45 44 51 16 6 60 76 87 53 2 104 
101 11 103 29 93 53 43 97 13 10 66 2 76 
102 11 92 90 25 104 2 6 27 13 44 16 8 
103 11 101 29 43 93 53 97 76 87 60 13 66 
104 11 2 13 25 90 102 92 53 10 101 16 103 
105 11 64 18 69 31 3 40 48 77 83 94 67 
DEPOT_SECTION
   1
   -1
EOF
