NAME :  X-n1001-kX-w200-c7.cctp
COMMENT : 	Adapted by Maziero, Usberti and Cavellucci from the Uchoa, Pecin, Pessoa, Poggi, Subramanian, and Vidal (2013)
TYPE :  CCTP
DIMENSION :    851
EDGE_WEIGHT_TYPE : 	EUC_2D	
CAPACITY : 	131
VERTICES_WITHIN_COVERAGE :  7
VERTICES_WITH_DEMAND : 	200
NODE_COORD_SECTION
1 2 857
2 407 102
3 915 965
4 797 45
5 997 241
6 650 683
7 748 248
8 99 174
9 2 545
10 277 689
11 568 771
12 76 105
13 117 973
14 171 971
15 327 183
16 277 697
17 269 246
18 670 18
19 51 901
20 951 696
21 710 102
22 61 465
23 348 606
24 551 243
25 524 793
26 89 582
27 900 748
28 235 368
29 122 587
30 449 781
31 970 38
32 362 490
33 742 267
34 289 115
35 898 957
36 996 922
37 951 633
38 713 779
39 603 247
40 402 363
41 143 0
42 274 608
43 81 422
44 550 408
45 43 699
46 482 575
47 909 254
48 613 37
49 202 575
50 297 297
51 736 288
52 464 127
53 499 491
54 635 531
55 796 328
56 184 941
57 641 824
58 863 673
59 396 950
60 555 631
61 664 966
62 301 260
63 425 990
64 559 746
65 431 827
66 724 472
67 847 51
68 888 721
69 136 331
70 859 627
71 206 5
72 429 381
73 798 918
74 886 684
75 123 488
76 779 445
77 764 43
78 938 743
79 800 398
80 734 20
81 211 678
82 601 545
83 512 403
84 796 106
85 644 810
86 416 973
87 115 435
88 667 91
89 395 941
90 374 546
91 546 191
92 754 255
93 124 588
94 423 929
95 314 637
96 668 268
97 321 786
98 960 423
99 11 499
100 721 692
101 803 584
102 337 475
103 806 773
104 429 478
105 214 547
106 361 166
107 944 218
108 12 468
109 527 255
110 789 724
111 250 862
112 892 896
113 545 806
114 832 12
115 628 495
116 194 884
117 395 309
118 655 39
119 558 175
120 247 947
121 36 394
122 877 451
123 599 724
124 83 489
125 754 703
126 65 35
127 889 230
128 938 307
129 662 394
130 248 220
131 642 549
132 747 86
133 201 643
134 400 574
135 653 798
136 653 904
137 643 138
138 951 307
139 793 865
140 500 726
141 585 586
142 285 769
143 511 898
144 336 912
145 454 207
146 239 951
147 335 815
148 911 708
149 2 239
150 602 984
151 372 799
152 177 756
153 816 435
154 617 639
155 806 796
156 793 584
157 803 561
158 479 831
159 397 20
160 618 113
161 702 902
162 838 111
163 989 451
164 215 154
165 581 757
166 294 174
167 997 332
168 350 909
169 335 941
170 906 354
171 920 675
172 493 469
173 187 284
174 678 127
175 831 755
176 316 319
177 188 134
178 73 608
179 884 613
180 193 831
181 717 851
182 508 52
183 809 556
184 705 769
185 983 312
186 847 359
187 415 658
188 132 789
189 520 413
190 913 564
191 90 256
192 960 936
193 693 559
194 980 347
195 300 456
196 376 144
197 192 177
198 272 525
199 88 626
200 772 743
201 540 206
202 474 559
203 241 949
204 583 602
205 215 48
206 460 683
207 585 234
208 294 501
209 788 392
210 621 498
211 81 236
212 817 861
213 678 560
214 351 354
215 156 507
216 617 486
217 218 189
218 213 23
219 884 616
220 923 177
221 829 814
222 285 153
223 176 928
224 166 656
225 995 412
226 149 784
227 649 933
228 885 309
229 131 560
230 462 970
231 465 114
232 192 569
233 547 473
234 557 408
235 480 579
236 775 395
237 845 753
238 701 529
239 962 95
240 31 68
241 627 629
242 823 774
243 109 935
244 478 480
245 511 488
246 785 899
247 487 121
248 453 440
249 470 598
250 756 89
251 728 583
252 647 753
253 973 391
254 842 559
255 637 397
256 948 485
257 999 268
258 471 517
259 350 131
260 381 534
261 310 467
262 973 212
263 164 485
264 429 565
265 779 143
266 452 1
267 866 928
268 214 623
269 532 586
270 915 772
271 204 585
272 343 558
273 877 720
274 730 272
275 364 617
276 210 569
277 202 695
278 706 395
279 376 83
280 679 434
281 483 578
282 0 299
283 639 101
284 709 590
285 774 925
286 804 864
287 528 192
288 660 561
289 888 7
290 788 712
291 854 884
292 710 665
293 62 737
294 207 501
295 944 334
296 952 915
297 14 440
298 923 386
299 693 370
300 485 885
301 890 951
302 478 956
303 104 50
304 822 370
305 73 108
306 7 981
307 987 382
308 397 439
309 986 513
310 871 661
311 154 39
312 70 100
313 75 647
314 383 5
315 86 692
316 263 570
317 892 317
318 76 883
319 648 837
320 713 447
321 98 769
322 316 688
323 470 613
324 157 295
325 499 223
326 482 100
327 3 209
328 280 692
329 525 6
330 54 122
331 220 208
332 838 860
333 455 989
334 923 705
335 41 665
336 829 426
337 809 821
338 238 811
339 57 114
340 490 911
341 445 135
342 126 154
343 502 856
344 543 422
345 395 335
346 873 378
347 947 675
348 895 216
349 590 641
350 415 0
351 881 466
352 721 116
353 323 319
354 495 158
355 534 496
356 784 89
357 600 973
358 582 263
359 630 484
360 498 412
361 737 749
362 187 137
363 433 302
364 864 360
365 262 566
366 63 28
367 698 186
368 669 65
369 280 605
370 163 577
371 7 891
372 144 312
373 272 181
374 112 407
375 865 155
376 232 344
377 418 650
378 889 916
379 952 677
380 443 10
381 644 925
382 328 995
383 652 395
384 954 103
385 614 890
386 583 127
387 54 278
388 534 176
389 457 678
390 769 423
391 111 776
392 537 183
393 887 534
394 263 242
395 238 143
396 481 223
397 276 463
398 301 278
399 813 997
400 522 400
401 342 979
402 121 219
403 282 213
404 495 110
405 974 643
406 567 187
407 588 289
408 415 542
409 711 288
410 192 263
411 634 955
412 836 650
413 401 251
414 757 708
415 640 675
416 512 860
417 179 319
418 902 529
419 526 587
420 15 596
421 979 645
422 647 323
423 182 123
424 184 38
425 302 219
426 781 849
427 991 649
428 887 717
429 331 231
430 822 365
431 230 835
432 359 963
433 60 730
434 776 660
435 376 810
436 481 728
437 495 862
438 192 598
439 121 520
440 854 951
441 305 495
442 916 240
443 889 765
444 608 852
445 250 676
446 385 490
447 695 732
448 168 907
449 487 552
450 379 518
451 175 165
452 741 69
453 859 350
454 741 665
455 542 145
456 87 291
457 784 685
458 785 260
459 943 254
460 183 988
461 239 180
462 206 769
463 597 257
464 780 886
465 257 337
466 100 996
467 194 631
468 164 219
469 524 887
470 909 704
471 169 906
472 241 785
473 538 74
474 399 812
475 855 575
476 802 150
477 451 192
478 979 779
479 342 445
480 692 472
481 9 452
482 897 431
483 665 139
484 128 106
485 768 689
486 836 385
487 235 877
488 315 98
489 895 755
490 363 154
491 373 633
492 42 430
493 850 534
494 592 274
495 565 82
496 736 849
497 227 124
498 191 627
499 334 855
500 307 97
501 718 570
502 808 903
503 630 96
504 694 101
505 714 65
506 380 514
507 581 60
508 452 330
509 986 414
510 207 280
511 645 986
512 97 50
513 258 620
514 19 60
515 159 382
516 594 3
517 575 648
518 505 396
519 271 186
520 259 278
521 440 484
522 204 169
523 839 329
524 796 265
525 184 633
526 110 901
527 794 510
528 612 243
529 471 610
530 168 254
531 651 691
532 317 884
533 788 451
534 778 532
535 999 602
536 223 747
537 951 203
538 290 179
539 5 237
540 848 785
541 511 279
542 919 357
543 409 840
544 726 723
545 198 57
546 563 987
547 330 143
548 112 165
549 564 379
550 736 821
551 895 875
552 772 252
553 233 210
554 956 386
555 29 477
556 440 322
557 300 683
558 19 243
559 804 616
560 139 376
561 164 188
562 330 450
563 81 292
564 327 908
565 681 294
566 806 403
567 650 476
568 238 416
569 930 935
570 220 643
571 487 945
572 352 425
573 224 959
574 800 833
575 1 880
576 530 411
577 205 696
578 1 975
579 463 461
580 12 909
581 9 25
582 960 395
583 808 103
584 555 364
585 881 187
586 640 356
587 423 259
588 312 251
589 874 740
590 135 158
591 904 910
592 102 78
593 926 747
594 133 610
595 712 498
596 801 94
597 46 372
598 792 533
599 744 492
600 910 98
601 161 275
602 462 5
603 892 299
604 623 197
605 280 296
606 390 873
607 569 740
608 382 176
609 67 260
610 22 899
611 976 106
612 643 937
613 286 733
614 343 347
615 768 396
616 646 481
617 113 496
618 449 469
619 209 276
620 146 512
621 541 265
622 108 218
623 909 962
624 873 616
625 891 741
626 632 229
627 254 413
628 174 367
629 801 148
630 94 483
631 396 630
632 722 757
633 652 154
634 524 473
635 390 532
636 865 278
637 739 441
638 522 405
639 315 92
640 676 875
641 367 807
642 174 702
643 161 844
644 628 479
645 294 425
646 245 335
647 849 644
648 188 955
649 898 25
650 369 346
651 704 846
652 774 620
653 635 620
654 512 482
655 67 510
656 527 626
657 316 970
658 777 242
659 622 844
660 35 70
661 285 224
662 652 328
663 358 274
664 950 346
665 824 571
666 228 251
667 133 826
668 166 573
669 5 941
670 74 80
671 668 777
672 773 7
673 71 263
674 94 533
675 895 963
676 744 131
677 710 940
678 790 311
679 470 10
680 726 581
681 301 968
682 425 873
683 551 998
684 880 251
685 13 286
686 229 807
687 791 870
688 980 301
689 319 503
690 678 661
691 131 647
692 752 792
693 833 41
694 570 210
695 237 533
696 484 801
697 281 735
698 261 867
699 765 621
700 340 504
701 483 824
702 904 551
703 380 261
704 450 572
705 581 121
706 504 708
707 162 788
708 379 894
709 415 846
710 357 10
711 794 896
712 168 803
713 981 897
714 192 525
715 307 810
716 348 6
717 896 319
718 718 704
719 365 89
720 993 748
721 264 253
722 794 836
723 299 507
724 837 673
725 625 578
726 726 948
727 225 753
728 529 813
729 493 88
730 977 476
731 926 415
732 370 421
733 960 959
734 56 666
735 418 120
736 830 947
737 799 823
738 447 171
739 136 12
740 864 465
741 510 511
742 37 62
743 610 786
744 710 998
745 443 869
746 243 357
747 736 125
748 323 814
749 526 532
750 20 222
751 54 930
752 124 270
753 76 619
754 114 189
755 398 156
756 666 975
757 976 884
758 362 501
759 799 452
760 791 71
761 778 700
762 691 851
763 957 214
764 547 416
765 645 140
766 41 367
767 747 223
768 686 750
769 520 508
770 86 411
771 196 752
772 100 49
773 653 877
774 682 525
775 156 967
776 861 886
777 628 139
778 829 776
779 48 367
780 553 756
781 308 857
782 525 768
783 534 906
784 74 407
785 174 812
786 756 539
787 783 958
788 651 110
789 980 868
790 295 427
791 729 915
792 518 915
793 46 872
794 172 627
795 677 872
796 374 795
797 181 760
798 751 788
799 83 664
800 792 917
801 746 768
802 377 708
803 676 582
804 367 690
805 124 298
806 209 128
807 794 714
808 636 512
809 901 875
810 970 319
811 301 452
812 146 305
813 45 362
814 239 811
815 423 798
816 477 717
817 102 815
818 902 424
819 951 766
820 296 959
821 647 246
822 395 299
823 970 492
824 260 138
825 394 642
826 795 836
827 657 44
828 263 655
829 776 212
830 436 346
831 982 977
832 879 198
833 99 1000
834 927 947
835 419 592
836 714 685
837 410 503
838 858 581
839 988 225
840 576 24
841 673 162
842 624 134
843 520 801
844 86 528
845 245 156
846 671 77
847 944 270
848 951 622
849 412 813
850 732 304
851 532 201
DEMAND_SECTION
2 6
3 1
4 10
5 7
6 6
7 2
8 8
9 7
10 3
11 5
12 1
13 4
14 10
15 4
16 10
17 3
18 6
19 4
20 3
21 10
22 8
23 6
24 7
25 7
26 4
27 1
28 5
29 3
30 6
31 8
32 5
33 9
34 6
35 9
36 9
37 4
38 1
39 9
40 10
41 2
42 4
43 1
44 10
45 1
46 10
47 2
48 10
49 1
50 4
51 5
52 5
53 6
54 6
55 9
56 4
57 4
58 9
59 3
60 7
61 6
62 8
63 5
64 9
65 3
66 9
67 1
68 1
69 5
70 7
71 6
72 6
73 9
74 3
75 8
76 5
77 9
78 10
79 9
80 5
81 9
82 5
83 10
84 1
85 2
86 9
87 3
88 8
89 2
90 6
91 1
92 3
93 1
94 8
95 8
96 6
97 9
98 5
99 5
100 9
101 1
102 9
103 6
104 3
105 4
106 9
107 7
108 1
109 9
110 6
111 10
112 2
113 3
114 9
115 6
116 4
117 9
118 10
119 3
120 7
121 6
122 6
123 4
124 5
125 9
126 2
127 2
128 4
129 5
130 6
131 1
132 5
133 4
134 3
135 4
136 9
137 4
138 3
139 5
140 10
141 2
142 5
143 8
144 8
145 10
146 7
147 3
148 6
149 9
150 5
151 2
152 10
153 4
154 9
155 2
156 6
157 1
158 6
159 1
160 1
161 7
162 10
163 7
164 3
165 6
166 4
167 4
168 3
169 5
170 4
171 2
172 5
173 1
174 10
175 7
176 3
177 7
178 10
179 10
180 2
181 3
182 10
183 6
184 3
185 1
186 4
187 3
188 10
189 10
190 4
191 8
192 5
193 2
194 8
195 2
196 5
197 8
198 7
199 10
200 1
201 5
COVERAGE_SECTION
2 7 735 279 719 341 196 755 231 
3 7 623 35 675 834 301 569 733 
4 7 760 77 693 672 356 114 596 
5 7 839 257 262 763 459 107 537 
6 7 531 415 690 154 241 292 836 
7 7 92 33 552 767 274 658 458 
8 6 548 754 342 590 622 402 
9 7 99 420 555 655 108 844 481 
10 7 328 16 557 445 828 322 613 
11 7 165 780 64 607 113 782 743 
12 6 305 312 339 670 330 592 
13 7 466 833 243 775 14 460 526 
14 7 775 460 648 56 223 13 573 
15 7 166 538 106 547 425 490 429 
16 7 328 10 557 445 613 697 322 
17 7 394 721 661 130 520 62 403 
18 7 118 827 368 846 48 80 505 
19 7 610 751 793 318 580 371 575 
20 7 379 347 334 171 148 470 78 
21 7 504 352 747 505 132 174 88 
22 7 124 555 630 492 655 43 108 
23 7 275 491 95 272 631 825 134 
24 7 621 109 207 358 694 201 851 
25 7 843 728 113 782 696 780 11 
26 7 178 29 93 753 199 229 674 
27 7 489 625 443 593 589 270 68 
28 7 746 376 646 465 568 627 628 
29 7 93 594 229 26 370 668 199 
30 7 815 696 65 849 701 158 474 
31 6 239 384 611 649 600 289 
32 7 758 446 700 102 506 450 689 
33 7 274 92 7 51 552 409 850 
34 7 500 488 639 824 222 547 395 
35 7 675 301 623 3 834 569 378 
36 7 713 192 757 296 733 789 831 
37 7 848 405 421 347 427 379 171 
38 7 184 632 801 361 798 768 692 
39 7 528 463 207 358 494 626 821 
40 7 345 72 650 830 214 117 556 
41 5 739 311 424 71 303 
42 7 369 513 316 365 828 95 268 
43 7 770 784 374 87 492 22 121 
44 7 234 764 344 576 638 400 189 
45 6 335 433 734 293 315 799 
46 7 281 235 202 449 249 704 529 
47 7 442 684 127 459 847 348 603 
48 7 507 516 840 118 827 18 503 
49 7 271 276 232 438 105 668 370 
50 7 605 398 176 353 62 520 588 
51 7 850 274 33 409 92 7 552 
52 7 231 341 247 326 404 354 735 
53 7 245 654 172 741 244 769 634 
54 7 131 808 210 82 115 288 359 
55 5 678 523 430 304 186 
56 7 223 648 14 448 471 775 573 
57 5 85 319 659 135 444 
58 7 310 74 724 647 412 70 273 
59 7 89 86 94 432 63 708 401 
60 7 517 656 349 204 269 419 141 
61 7 756 511 411 227 612 381 677 
62 7 588 398 17 50 721 661 425 
63 7 86 333 230 59 89 94 302 
64 7 607 780 165 11 782 123 25 
65 7 849 709 543 815 474 745 682 
66 5 320 599 595 480 637 
67 7 693 114 4 649 760 289 162 
68 7 428 273 625 589 148 470 27 
69 6 372 812 805 324 417 560 
70 7 624 647 219 179 412 310 58 
71 6 218 424 205 545 311 41 
72 7 40 830 508 345 556 248 308 
73 6 800 502 711 246 285 464 
74 7 58 310 470 428 148 171 68 
75 7 617 630 439 620 215 124 263 
76 6 533 759 390 153 637 236 
77 7 4 452 672 80 760 132 250 
78 7 593 819 270 27 334 148 489 
79 7 566 209 236 615 304 486 153 
80 7 77 672 452 505 18 132 4 
81 7 277 577 133 570 445 642 224 
82 7 54 131 725 141 808 210 115 
83 7 400 518 638 189 360 576 344 
84 7 583 596 356 760 265 162 629 
85 7 57 135 319 659 671 743 444 
86 7 63 59 89 333 94 230 432 
87 6 374 43 770 784 630 75 
88 7 846 788 368 504 283 503 174 
89 7 59 94 86 432 708 168 63 
90 7 260 635 450 272 506 134 408 
91 7 392 201 851 287 388 119 406 
92 7 7 33 552 658 274 458 767 
93 7 29 594 229 26 370 668 199 
94 7 89 59 86 682 708 230 63 
95 7 23 369 557 42 322 275 828 
96 7 565 821 409 626 422 528 274 
97 7 715 748 147 142 641 151 796 
98 6 509 582 253 731 225 554 
99 7 555 108 9 481 655 297 22 
100 7 836 718 292 544 454 125 414 
101 7 156 157 665 183 559 254 652 
102 7 562 261 32 700 479 689 758 
103 7 242 155 778 175 237 540 200 
104 7 521 618 837 579 248 446 244 
105 7 276 695 49 232 714 271 294 
106 7 490 608 196 259 15 755 547 
107 7 763 537 262 442 459 839 220 
108 7 481 555 297 99 492 22 655 
109 6 621 24 541 325 201 851 
110 7 807 290 200 761 414 457 125 
111 7 698 487 431 338 814 781 686 
112 7 591 378 551 809 776 291 267 
113 7 728 25 843 11 782 780 165 
114 7 693 67 4 289 672 649 760 
115 7 210 359 216 644 808 616 567 
116 7 471 448 487 223 643 180 56 
117 7 822 345 363 650 556 703 663 
118 7 827 18 368 846 48 88 503 
119 7 406 91 392 388 287 455 201 
120 7 203 146 573 820 681 648 56 
121 6 597 766 779 813 492 784 
122 5 351 740 482 818 336 
123 7 607 165 64 11 252 780 531 
124 7 630 655 617 22 844 75 674 
125 7 414 485 761 544 100 290 457 
126 7 366 512 772 742 303 660 670 
127 7 348 684 442 47 832 585 636 
128 7 138 295 810 847 664 688 717 
129 6 383 255 299 280 278 586 
130 7 553 394 331 17 403 661 666 
131 7 54 288 725 808 213 82 774 
132 7 250 452 356 505 21 352 747 
133 7 467 498 570 525 268 794 81 
134 7 835 264 408 90 635 260 704 
135 7 85 671 57 319 252 743 659 
136 7 381 773 227 612 640 795 385 
137 7 765 777 633 842 483 788 160 
138 7 128 810 295 688 185 847 664 
139 7 687 286 426 212 464 722 826 
140 7 706 436 816 782 206 780 64 
141 7 204 725 82 269 60 349 419 
142 7 697 613 97 472 715 748 727 
143 7 469 792 783 340 300 416 437 
144 7 564 168 169 532 708 432 499 
145 6 477 396 738 325 587 354 
146 7 203 120 573 648 56 820 681 
147 7 748 715 97 641 151 499 435 
148 7 470 334 68 428 171 74 273 
149 5 539 558 750 327 685 
150 6 357 546 411 511 683 612 
151 6 796 641 435 474 147 849 
152 7 797 771 462 707 226 536 712 
153 7 336 759 533 566 76 79 390 
154 7 241 653 349 415 517 204 6 
155 7 103 337 242 737 221 778 574 
156 7 101 157 183 559 665 652 699 
157 7 183 101 665 156 598 534 254 
158 7 701 696 343 437 416 65 843 
159 7 314 350 710 380 716 266 279 
160 7 503 842 283 777 788 137 386 
161 7 791 640 677 795 136 726 762 
162 7 583 596 84 375 629 476 356 
163 7 730 509 225 98 823 256 253 
164 7 522 395 806 845 497 197 362 
165 7 11 607 64 780 123 743 782 
166 7 538 222 373 519 15 403 425 
167 7 194 185 810 688 664 307 138 
168 7 144 564 708 169 532 606 89 
169 7 144 432 564 168 657 401 681 
170 7 542 298 717 317 346 364 295 
171 7 347 334 470 379 148 74 20 
172 7 244 53 654 245 579 634 618 
173 6 510 410 619 601 324 417 
174 7 483 504 788 765 841 137 633 
175 7 237 242 778 103 540 589 155 
176 7 353 50 614 605 398 214 650 
177 7 362 423 806 164 451 522 497 
178 7 753 199 26 313 29 93 799 
179 7 219 624 70 838 647 475 310 
180 7 785 643 431 712 686 338 814 
181 7 651 496 762 550 795 640 161 
182 7 473 729 329 326 679 404 495 
183 7 157 665 101 598 156 254 534 
184 7 38 632 768 361 447 671 801 
185 7 688 810 167 138 194 128 295 
186 7 453 364 430 304 486 523 346 
187 5 377 825 631 389 491 
188 7 226 391 707 667 321 712 817 
189 7 638 576 83 400 360 518 344 
190 6 702 418 393 179 838 475 
191 7 673 211 609 456 563 752 387 
192 7 296 733 569 834 36 713 831 
193 7 213 501 803 238 288 284 774 
194 7 167 664 810 185 307 295 253 
195 7 811 261 397 790 562 645 441 
196 7 490 755 106 259 608 547 735 
197 7 522 451 217 561 164 362 331 
198 7 723 208 695 365 441 316 689 
199 7 753 178 313 799 26 594 691 
200 7 110 290 361 801 807 414 761 
201 7 851 91 287 392 694 388 406 
202 7 449 46 235 281 704 249 258 
203 7 146 120 573 648 820 56 681 
204 7 141 60 349 517 725 154 241 
205 5 545 218 424 71 311 
206 4 389 816 436 187 
207 7 39 463 528 694 358 24 494 
208 7 723 441 689 198 261 397 195 
209 7 79 236 615 566 390 304 430 
210 7 115 216 359 644 808 616 54 
211 5 191 609 673 622 402 
212 6 286 332 139 687 574 826 
213 7 193 288 803 774 131 238 501 
214 6 614 650 353 345 176 40 
215 6 620 263 439 75 714 617 
216 7 210 359 644 115 616 808 567 
217 7 331 461 522 553 197 164 130 
218 5 71 205 424 545 311 
219 7 179 624 70 838 647 310 475 
220 6 537 585 107 348 832 763 
221 6 337 155 737 540 574 778 
222 7 166 538 824 373 519 34 845 
223 7 56 448 471 648 14 775 116 
224 5 525 794 691 133 467 
225 7 509 253 307 98 163 582 554 
226 7 707 188 712 785 391 152 797 
227 6 612 381 411 136 61 756 
228 6 317 603 717 636 453 170 
229 6 29 93 370 668 439 674 
230 6 333 302 571 63 86 94 
231 7 52 326 247 341 404 729 735 
232 7 49 276 271 668 438 370 105 
233 6 634 355 654 245 769 53 
234 7 44 764 344 576 549 638 400 
235 7 281 46 202 249 449 704 529 
236 5 615 209 79 390 566 
237 7 175 778 242 540 589 103 273 
238 7 774 193 595 213 501 288 786 
239 4 384 611 600 31 
240 5 660 742 514 670 126 
241 7 653 154 349 415 725 204 517 
242 7 778 103 175 540 155 237 221 
243 7 526 13 751 775 318 466 448 
244 7 172 53 579 618 245 654 258 
245 7 654 53 634 769 741 355 172 
246 6 711 464 800 73 502 285 
247 6 404 326 231 52 729 354 
248 7 579 618 104 521 244 172 360 
249 7 529 323 235 281 46 704 202 
250 7 132 452 356 760 747 84 352 
251 4 680 501 284 193 
252 7 671 768 135 743 447 123 85 
253 6 582 307 554 509 225 98 
254 6 475 665 493 838 183 157 
255 4 383 129 586 280 
256 7 823 730 309 163 98 418 351 
257 7 5 688 839 185 847 459 810 
258 7 53 244 449 741 202 521 245 
259 7 547 490 196 106 719 488 639 
260 7 635 90 450 506 408 758 837 
261 7 195 811 562 102 441 397 689 
262 7 763 839 537 107 5 459 220 
263 6 215 620 75 294 714 617 
264 7 704 408 835 134 202 635 235 
265 5 629 476 676 84 747 
266 7 602 380 679 350 159 314 329 
267 5 378 440 301 112 736 
268 7 570 467 498 133 525 438 271 
269 7 419 656 281 46 60 235 141 
270 7 489 443 593 27 819 78 625 
271 7 49 276 438 232 105 268 668 
272 7 90 260 23 450 635 700 506 
273 7 428 68 589 625 27 148 470 
274 7 33 51 409 92 7 850 552 
275 7 491 23 631 825 95 134 835 
276 7 49 271 232 105 438 668 695 
277 5 577 81 642 133 445 
278 3 299 129 280 
279 6 719 2 259 735 196 639 
280 4 320 480 129 278 
281 7 46 235 202 249 449 529 704 
282 5 685 387 558 149 539 
283 7 503 788 160 88 842 137 765 
284 5 680 251 501 803 193 
285 5 800 73 246 787 711 
286 7 139 212 687 426 826 722 574 
287 6 851 392 388 91 201 119 
288 7 213 131 803 193 54 725 774 
289 7 649 114 67 693 31 600 4 
290 7 807 110 761 457 485 414 125 
291 4 776 332 112 551 
292 5 836 100 454 690 718 
293 3 433 45 321 
294 6 714 695 263 105 215 620 
295 7 664 128 138 810 542 194 170 
296 7 192 569 713 757 834 36 733 
297 7 481 108 492 555 121 22 99 
298 4 542 731 554 170 
299 4 278 129 383 586 
300 7 437 340 143 343 416 469 745 
301 7 35 675 623 3 267 378 440 
302 6 571 230 333 340 792 94 
303 5 772 512 592 126 670 
304 7 430 486 186 79 566 209 453 
305 6 12 312 339 330 670 592 
306 7 578 669 751 580 610 371 19 
307 7 253 582 225 554 509 194 98 
308 7 732 572 104 446 479 248 618 
309 7 823 730 256 163 418 190 535 
310 7 58 74 647 70 724 412 624 
311 4 424 739 41 545 
312 6 12 305 339 670 330 592 
313 7 799 199 734 753 335 178 315 
314 5 159 710 350 716 380 
315 5 799 734 45 313 433 
316 7 365 369 42 695 198 513 276 
317 6 717 228 603 170 128 453 
318 5 19 793 526 751 610 
319 5 57 85 659 135 773 
320 4 66 637 480 280 
321 4 391 188 817 293 
322 7 557 328 10 16 95 804 613 
323 5 529 249 235 281 46 
324 5 812 601 372 173 417 
325 6 396 851 287 109 201 145 
326 6 404 729 231 247 52 341 
327 4 750 539 149 558 
328 7 10 16 557 445 322 613 828 
329 7 182 840 679 602 473 516 266 
330 4 339 305 312 12 
331 6 553 217 130 461 197 522 
332 5 212 291 286 776 139 
333 6 230 63 302 86 571 94 
334 7 148 470 20 171 68 347 428 
335 7 734 45 313 799 315 753 199 
336 7 153 566 79 759 486 533 740 
337 7 737 574 221 722 826 155 426 
338 7 814 686 431 472 180 111 462 
339 5 330 305 312 12 670 
340 7 143 300 792 571 469 783 302 
341 7 52 231 735 738 247 2 326 
342 6 590 548 8 754 484 451 
343 7 437 416 158 300 701 469 143 
344 7 764 44 576 234 189 638 400 
345 7 117 650 40 822 830 556 214 
346 5 364 453 186 486 170 
347 7 379 20 171 334 37 405 421 
348 6 127 832 442 585 684 47 
349 7 517 154 60 241 204 653 141 
350 7 159 380 314 266 602 679 710 
351 4 122 740 482 818 
352 7 747 21 676 504 132 174 250 
353 7 176 50 614 214 398 605 650 
354 3 247 388 52 
355 7 769 245 634 233 654 741 53 
356 7 596 760 84 250 583 132 4 
357 6 150 411 546 511 683 612 
358 7 494 463 39 407 207 528 24 
359 7 644 115 216 616 210 567 808 
360 7 83 518 189 638 400 576 344 
361 7 632 801 544 200 38 184 798 
362 7 177 423 806 451 164 522 197 
363 6 556 508 822 117 587 830 
364 7 453 186 346 486 523 170 430 
365 7 316 695 198 369 42 105 276 
366 7 126 512 742 772 303 660 240 
367 6 841 633 483 767 174 765 
368 7 846 827 88 118 504 505 18 
369 7 42 513 316 365 95 828 23 
370 6 668 232 229 438 49 93 
371 6 575 610 580 793 19 669 
372 5 812 69 324 805 417 
373 7 519 538 166 222 461 403 845 
374 5 770 87 43 784 560 
375 3 585 832 162 
376 7 646 746 28 465 417 628 605 
377 5 187 825 631 389 491 
378 7 591 112 267 301 551 776 35 
379 7 347 20 171 334 405 421 37 
380 7 266 602 679 350 159 314 182 
381 6 227 612 136 411 61 385 
382 7 401 657 681 432 820 169 59 
383 6 129 255 586 280 299 278 
384 4 239 611 600 31 
385 2 444 136 
386 7 705 160 842 455 777 495 119 
387 7 609 673 563 456 191 685 558 
388 5 392 287 91 119 851 
389 4 206 816 187 377 
390 6 76 615 236 533 637 209 
391 5 321 188 226 817 707 
392 6 388 91 287 851 119 201 
393 5 418 702 493 190 254 
394 7 17 721 130 661 403 520 666 
395 7 845 497 824 164 806 461 522 
396 6 325 145 477 109 287 851 
397 6 195 811 261 790 208 645 
398 7 62 50 605 588 520 176 17 
399 5 787 736 440 73 285 
400 7 638 83 189 576 518 360 44 
401 7 382 432 657 169 681 820 59 
402 5 622 754 211 468 191 
403 7 661 425 519 373 17 130 394 
404 5 247 326 729 231 52 
405 7 421 427 37 848 379 347 535 
406 7 119 91 694 392 201 388 851 
407 6 494 358 463 39 528 621 
408 7 264 635 134 260 837 90 450 
409 7 51 274 850 565 33 96 7 
410 6 619 173 510 530 601 666 
411 6 612 227 61 381 511 357 
412 7 647 724 70 58 310 559 624 
413 7 587 703 822 663 117 363 145 
414 7 125 485 761 290 544 457 110 
415 7 6 531 690 154 241 653 349 
416 7 343 437 469 300 143 158 701 
417 6 324 173 372 812 69 510 
418 5 393 702 190 493 256 
419 7 269 656 281 46 235 449 60 
420 7 9 178 753 335 26 199 313 
421 7 405 427 37 848 379 347 535 
422 6 662 586 565 96 299 407 
423 7 177 362 806 451 164 497 522 
424 5 545 311 205 218 71 
425 7 661 403 429 588 62 538 17 
426 7 722 826 139 687 574 286 737 
427 7 421 405 37 379 535 848 347 
428 7 68 273 625 148 470 589 74 
429 7 588 425 62 661 15 663 403 
430 7 304 486 186 79 453 523 566 
431 7 338 814 686 111 180 487 698 
432 7 401 169 59 89 657 382 168 
433 3 293 45 315 
434 7 457 485 454 652 761 699 125 
435 6 641 151 796 474 849 147 
436 7 816 140 706 206 389 782 30 
437 7 343 416 300 158 469 143 701 
438 7 271 49 232 498 268 467 276 
439 7 617 620 674 75 844 215 229 
440 6 736 267 301 675 35 378 
441 7 208 723 689 261 700 102 195 
442 7 47 127 459 348 107 684 847 
443 7 489 27 625 270 589 593 68 
444 3 659 385 57 
445 7 828 10 16 328 81 570 577 
446 7 32 506 758 837 450 635 260 
447 7 768 544 718 632 184 361 100 
448 6 471 223 116 56 648 526 
449 7 202 46 281 235 258 704 749 
450 7 506 260 635 758 90 446 32 
451 7 197 561 522 362 177 164 590 
452 7 132 250 505 77 21 356 80 
453 6 364 186 523 346 430 304 
454 6 292 100 836 434 485 125 
455 4 388 119 392 386 
456 7 563 673 191 387 609 805 752 
457 7 485 761 434 290 807 125 414 
458 4 524 552 658 92 
459 7 847 442 47 107 763 262 537 
460 7 14 648 775 56 573 223 146 
461 7 217 845 553 373 519 331 164 
462 7 771 727 797 536 152 472 686 
463 7 39 358 494 528 207 407 626 
464 5 246 711 687 139 286 
465 7 646 746 376 28 605 50 520 
466 7 833 13 243 775 14 751 460 
467 7 498 525 133 268 794 570 438 
468 4 561 530 402 197 
469 7 143 783 792 416 343 437 300 
470 7 148 334 428 68 74 171 273 
471 6 448 223 116 56 648 526 
472 7 686 338 814 727 462 536 142 
473 7 495 182 507 729 404 326 840 
474 7 849 435 815 151 543 796 641 
475 6 838 254 665 493 624 179 
476 4 629 265 84 583 
477 6 145 738 396 354 325 341 
478 4 819 720 78 593 
479 7 562 572 102 732 261 811 195 
480 4 66 320 595 280 
481 7 297 108 555 492 99 22 121 
482 5 818 122 731 351 740 
483 7 174 633 765 137 841 788 777 
484 6 592 342 12 590 305 423 
485 7 761 457 125 414 290 434 454 
486 7 304 430 186 566 79 346 364 
487 7 111 698 116 431 180 338 814 
488 6 639 500 34 547 259 719 
489 7 27 443 625 270 589 593 68 
490 7 106 196 259 608 547 755 15 
491 7 275 631 825 23 377 187 804 
492 7 297 121 784 22 43 481 108 
493 5 254 393 475 665 183 
494 7 358 407 463 39 528 207 24 
495 7 507 473 705 386 840 160 182 
496 6 181 550 651 426 762 464 
497 7 806 395 164 824 845 177 362 
498 7 467 525 133 794 268 438 570 
499 6 781 532 147 748 715 564 
500 7 488 639 34 547 259 719 222 
501 7 680 251 284 193 213 238 803 
502 5 711 73 800 246 464 
503 7 283 160 788 88 842 777 137 
504 7 21 88 174 352 846 505 368 
505 7 452 21 132 504 368 846 250 
506 7 450 260 635 758 446 32 837 
507 7 495 840 48 473 516 503 705 
508 5 556 830 363 72 345 
509 7 225 253 98 307 582 163 554 
510 7 619 173 410 666 601 530 417 
511 7 756 61 411 150 357 612 227 
512 6 772 303 592 126 670 366 
513 7 42 369 828 268 570 316 365 
514 5 240 742 660 581 126 
515 4 560 628 374 69 
516 7 840 48 507 329 118 827 18 
517 7 349 60 154 204 656 241 141 
518 6 83 360 400 638 189 576 
519 7 373 538 166 403 461 222 661 
520 7 721 605 17 394 666 50 398 
521 7 104 618 579 837 244 258 248 
522 7 197 164 217 451 362 461 177 
523 6 453 186 364 430 55 304 
524 4 458 552 658 92 
525 7 498 467 794 133 224 268 438 
526 5 243 318 448 19 471 
527 3 598 534 183 
528 7 39 463 626 207 821 358 494 
529 5 323 249 235 281 46 
530 4 601 410 468 173 
531 7 6 415 690 447 123 154 252 
532 7 564 781 144 499 168 698 169 
533 6 76 759 153 390 336 637 
534 5 598 786 527 157 183 
535 7 421 405 427 848 37 379 309 
536 7 727 771 462 472 797 152 577 
537 7 763 107 262 220 839 442 459 
538 7 166 373 519 222 403 15 425 
539 5 149 558 750 327 685 
540 7 778 242 237 175 221 155 103 
541 2 109 621 
542 5 170 298 664 295 717 
543 6 709 65 849 474 682 606 
544 7 718 361 100 447 125 414 632 
545 5 205 424 218 311 71 
546 3 683 150 357 
547 7 259 490 106 15 196 222 488 
548 6 8 342 590 754 622 402 
549 4 584 234 44 764 
550 7 496 692 181 798 651 38 426 
551 5 809 112 591 776 378 
552 5 658 458 92 7 524 
553 7 331 130 217 461 666 394 519 
554 5 582 253 307 298 98 
555 7 108 99 481 22 297 492 655 
556 5 508 363 830 117 345 
557 7 322 328 10 16 828 95 445 
558 5 539 149 750 327 685 
559 7 652 101 156 699 412 665 434 
560 4 515 628 374 69 
561 5 451 197 468 590 522 
562 7 479 102 261 811 195 572 790 
563 7 456 387 673 609 191 805 752 
564 7 144 168 532 169 499 708 781 
565 7 96 409 422 662 850 274 51 
566 7 79 209 236 336 153 486 304 
567 5 616 359 644 115 216 
568 3 627 28 645 
569 7 834 192 296 3 623 591 733 
570 7 133 268 467 498 81 525 513 
571 6 302 340 230 792 143 333 
572 6 732 479 562 308 102 790 
573 7 146 203 120 648 56 460 14 
574 7 826 722 737 337 426 286 139 
575 5 371 610 580 793 19 
576 7 189 638 400 344 764 44 83 
577 5 277 81 642 445 133 
578 7 306 669 580 751 610 371 19 
579 7 618 248 244 172 521 104 53 
580 7 610 371 575 669 19 751 793 
581 6 514 742 240 660 366 126 
582 5 554 253 98 307 509 
583 7 596 84 356 162 760 629 476 
584 2 549 44 
585 5 832 348 375 220 127 
586 6 662 422 255 383 129 299 
587 7 413 703 363 822 117 145 556 
588 7 62 429 398 425 661 17 50 
589 7 625 273 68 428 489 27 443 
590 6 342 548 754 8 451 561 
591 7 378 112 809 551 569 267 301 
592 7 303 512 670 772 12 484 312 
593 7 78 27 270 819 489 625 443 
594 7 93 29 691 794 370 199 229 
595 6 66 238 480 599 774 320 
596 7 583 84 356 760 162 250 4 
597 4 779 766 813 121 
598 5 534 527 183 157 786 
599 5 66 595 786 637 534 
600 4 384 239 611 162 
601 5 324 530 173 410 812 
602 7 679 266 380 350 329 182 159 
603 6 228 317 717 636 128 47 
604 7 626 528 633 207 39 694 821 
605 7 50 398 520 62 176 721 465 
606 6 708 682 709 543 745 168 
607 7 64 165 780 11 123 782 743 
608 7 106 755 490 196 15 259 547 
609 6 673 387 191 211 563 456 
610 7 580 371 575 19 793 669 751 
611 4 239 384 600 31 
612 6 227 381 411 136 61 756 
613 7 697 142 16 328 10 557 322 
614 6 214 650 353 176 345 40 
615 5 236 209 390 79 566 
616 6 567 359 644 115 216 210 
617 7 75 630 439 124 620 674 844 
618 7 579 521 104 248 244 172 837 
619 7 510 410 173 666 530 601 520 
620 6 215 439 263 75 617 714 
621 5 109 24 541 358 494 
622 5 402 754 211 191 8 
623 7 3 35 675 301 834 569 378 
624 7 179 219 70 647 838 310 475 
625 7 27 489 589 68 428 443 273 
626 7 821 528 604 39 463 207 96 
627 4 568 645 790 28 
628 4 515 560 417 69 
629 4 476 265 84 583 
630 7 124 617 75 22 655 439 844 
631 7 825 491 377 187 275 835 23 
632 7 361 184 38 801 544 447 768 
633 7 765 137 483 841 777 842 174 
634 6 654 245 233 355 53 172 
635 7 260 450 90 506 408 837 446 
636 6 684 603 228 317 47 717 
637 4 320 66 390 76 
638 7 400 189 83 576 518 360 344 
639 6 488 500 34 719 259 547 
640 6 795 773 762 136 161 651 
641 6 151 435 796 474 147 748 
642 5 277 577 81 224 152 
643 5 667 180 785 712 116 
644 6 359 216 115 616 210 567 
645 6 790 811 195 397 627 562 
646 7 465 376 746 28 605 520 50 
647 7 412 70 310 724 58 624 219 
648 7 56 14 223 460 775 573 146 
649 7 289 67 114 693 31 600 239 
650 7 214 614 345 40 117 353 822 
651 7 181 762 496 795 640 550 161 
652 5 699 559 434 156 101 
653 7 241 154 725 349 204 415 803 
654 7 245 634 53 172 355 769 741 
655 7 124 844 674 630 22 617 555 
656 5 60 419 269 517 323 
657 7 681 820 382 401 169 432 144 
658 4 552 458 92 7 
659 4 444 319 57 85 
660 5 240 742 514 670 126 
661 7 403 425 17 394 721 130 588 
662 6 422 586 565 299 96 129 
663 7 703 822 413 117 429 588 353 
664 7 295 194 542 810 138 554 128 
665 7 183 254 157 101 475 156 838 
666 7 619 394 510 721 130 410 17 
667 5 643 817 188 712 785 
668 6 370 232 49 438 229 271 
669 7 580 578 306 610 371 751 19 
670 6 312 12 305 592 339 512 
671 7 135 252 768 184 85 38 447 
672 7 77 80 4 114 760 693 452 
673 6 609 191 387 211 563 456 
674 7 844 439 655 617 124 229 26 
675 7 35 301 623 3 834 440 267 
676 6 747 352 265 250 21 132 
677 6 726 791 161 61 756 744 
678 6 55 524 458 523 850 51 
679 7 602 266 380 329 350 182 159 
680 5 251 501 284 193 803 
681 7 820 657 382 401 169 120 432 
682 6 745 709 606 543 65 708 
683 4 546 150 357 571 
684 7 127 47 636 348 442 603 832 
685 5 282 387 558 149 539 
686 7 338 814 472 431 180 462 727 
687 6 139 286 464 426 711 212 
688 7 185 810 138 167 257 128 194 
689 7 441 723 700 208 102 261 758 
690 5 292 6 415 531 836 
691 5 224 594 794 199 799 
692 7 798 801 550 38 361 632 184 
693 7 67 114 4 760 596 289 583 
694 7 406 207 201 91 119 24 851 
695 7 105 198 365 294 276 316 714 
696 7 701 158 843 30 25 728 782 
697 7 613 142 16 328 10 557 322 
698 7 111 487 431 781 532 814 338 
699 5 652 559 434 156 454 
700 7 689 758 32 102 441 450 506 
701 7 158 696 343 437 843 416 728 
702 5 190 418 393 475 838 
703 7 413 663 822 587 117 429 363 
704 7 264 202 235 46 249 281 835 
705 7 386 160 495 842 455 777 503 
706 5 140 816 436 206 389 
707 7 226 712 785 188 797 152 462 
708 6 606 168 144 89 682 564 
709 6 543 65 682 849 745 606 
710 3 716 314 159 
711 6 246 502 464 800 73 687 
712 7 785 707 226 180 188 643 667 
713 5 757 36 789 296 192 
714 6 294 105 215 232 695 276 
715 7 748 97 147 142 781 499 641 
716 3 710 314 159 
717 6 317 228 603 170 128 542 
718 7 100 836 544 125 447 414 292 
719 6 279 2 259 639 488 196 
720 5 478 819 78 20 593 
721 7 17 394 520 661 666 130 62 
722 7 826 574 737 426 337 139 286 
723 7 208 441 689 198 261 700 102 
724 7 412 58 647 310 74 70 457 
725 7 131 288 82 141 653 54 204 
726 5 677 791 161 744 285 
727 7 536 462 771 472 797 152 686 
728 7 843 113 25 782 696 701 416 
729 7 326 404 247 231 182 473 52 
730 7 823 163 256 309 98 509 225 
731 4 818 298 482 98 
732 6 572 308 479 562 102 40 
733 7 192 831 834 569 3 296 623 
734 7 335 313 799 45 315 199 753 
735 7 2 341 755 52 231 196 279 
736 6 440 267 73 787 800 502 
737 7 337 574 722 826 155 221 426 
738 7 477 341 145 52 354 755 735 
739 5 41 311 303 772 512 
740 5 351 122 482 336 818 
741 7 769 53 245 749 355 654 258 
742 5 240 660 514 126 670 
743 7 165 85 11 135 57 252 659 
744 5 756 726 61 677 511 
745 7 682 709 65 300 543 158 437 
746 6 28 376 646 465 627 568 
747 6 676 352 21 132 250 265 
748 7 147 715 97 499 641 781 151 
749 7 769 741 355 449 245 53 654 
750 4 327 539 558 149 
751 7 19 610 580 669 318 243 793 
752 6 805 191 601 324 812 456 
753 7 178 199 313 26 799 734 29 
754 6 8 548 622 402 342 590 
755 7 196 608 490 106 735 341 738 
756 7 61 511 411 612 227 744 381 
757 5 713 789 296 36 192 
758 7 32 506 700 450 446 102 260 
759 5 533 76 153 336 390 
760 7 356 596 4 84 583 77 250 
761 7 485 290 457 807 414 125 110 
762 7 651 795 181 640 319 496 773 
763 7 537 107 262 839 459 5 442 
764 7 344 44 234 576 189 638 400 
765 7 137 633 777 483 842 788 174 
766 4 813 597 779 121 
767 6 7 829 92 658 552 33 
768 7 447 184 671 632 252 38 544 
769 7 741 355 245 749 53 654 634 
770 4 43 784 374 87 
771 7 797 152 462 536 727 707 642 
772 5 512 303 592 126 670 
773 5 640 795 136 319 385 
774 7 238 213 193 595 288 54 131 
775 7 14 460 648 56 13 223 243 
776 5 291 112 332 551 378 
777 7 842 137 765 160 633 483 788 
778 7 242 175 540 103 237 155 221 
779 4 597 813 766 121 
780 7 64 11 607 165 782 25 113 
781 7 499 532 748 715 698 147 564 
782 7 25 780 843 64 11 113 728 
783 4 792 469 143 340 
784 5 770 43 374 492 121 
785 7 712 180 707 643 226 667 188 
786 6 534 598 527 501 599 157 
787 5 285 800 73 736 399 
788 7 283 88 503 137 765 174 483 
789 4 757 713 296 36 
790 6 645 811 195 397 562 261 
791 5 161 677 726 285 246 
792 6 143 783 340 469 571 300 
793 5 19 318 610 371 575 
794 7 525 498 467 224 133 438 268 
795 6 640 762 773 651 161 136 
796 7 151 641 435 474 849 147 815 
797 7 152 771 462 707 226 536 712 
798 7 692 801 550 38 361 632 184 
799 6 313 734 315 199 335 753 
800 6 73 246 285 502 711 464 
801 7 361 798 692 632 38 200 184 
802 7 804 187 322 825 377 491 631 
803 7 213 288 193 284 501 131 680 
804 7 802 322 825 491 187 377 557 
805 5 812 372 752 324 69 
806 7 497 177 362 164 423 395 522 
807 7 290 110 761 457 200 485 414 
808 7 54 115 210 359 216 616 644 
809 3 551 112 591 
810 7 185 688 138 167 194 295 128 
811 7 195 261 790 397 645 562 479 
812 5 372 324 805 69 601 
813 4 766 779 597 121 
814 7 338 686 431 472 180 111 462 
815 7 849 474 65 30 543 435 709 
816 6 436 140 706 206 389 30 
817 4 667 188 391 321 
818 5 482 731 122 298 351 
819 6 78 478 593 270 720 27 
820 7 681 657 169 382 120 401 203 
821 7 626 96 528 39 463 604 565 
822 7 117 345 363 703 663 413 587 
823 7 730 256 309 163 98 418 509 
824 7 395 845 222 497 34 373 461 
825 7 631 491 377 187 275 804 835 
826 7 722 574 737 426 337 139 286 
827 7 118 368 18 846 48 88 503 
828 7 445 513 10 328 16 570 557 
829 4 658 767 552 7 
830 7 508 556 72 40 345 363 117 
831 7 733 192 36 834 569 3 296 
832 5 585 348 127 375 220 
833 7 466 13 243 775 14 751 460 
834 7 569 3 623 35 192 733 675 
835 7 134 264 704 631 408 249 323 
836 7 100 718 292 454 544 690 125 
837 7 446 104 506 450 635 521 408 
838 7 475 254 665 624 179 219 70 
839 7 5 262 763 537 257 107 459 
840 7 516 507 48 329 495 473 182 
841 7 633 483 174 367 765 137 777 
842 7 777 137 160 765 633 283 788 
843 7 25 728 113 782 696 701 158 
844 7 674 655 439 124 617 630 26 
845 7 395 824 461 164 373 497 222 
846 7 368 88 504 827 788 283 118 
847 7 459 128 47 138 442 688 107 
848 7 37 405 421 427 535 347 379 
849 6 474 815 65 543 709 435 
850 7 51 409 274 33 565 92 7 
851 6 201 287 91 392 388 119 
DEPOT_SECTION
   1
   -1
EOF
