NAME :  X-n134-kX-w53-c7.cctp
COMMENT : 	Adapted by Maziero, Usberti and Cavellucci from the Uchoa, Pecin, Pessoa, Poggi, Subramanian, and Vidal (2013)
TYPE :  CCTP
DIMENSION :    134
EDGE_WEIGHT_TYPE : 	EUC_2D	
CAPACITY : 	643
VERTICES_WITHIN_COVERAGE :  7
VERTICES_WITH_DEMAND : 	53
NODE_COORD_SECTION
1 113 195
2 377 239
3 364 39
4 306 316
5 795 18
6 560 115
7 501 147
8 704 68
9 762 62
10 357 33
11 359 353
12 314 186
13 338 303
14 522 80
15 291 58
16 735 15
17 324 12
18 275 278
19 409 32
20 279 297
21 844 27
22 447 303
23 796 4
24 735 111
25 373 461
26 385 100
27 281 378
28 793 7
29 965 64
30 347 256
31 742 75
32 339 244
33 334 391
34 323 314
35 345 69
36 295 370
37 462 240
38 426 446
39 286 335
40 374 34
41 201 153
42 356 74
43 767 236
44 450 218
45 789 61
46 467 332
47 437 293
48 357 21
49 386 207
50 389 234
51 281 344
52 312 3
53 317 163
54 582 186
55 301 411
56 822 6
57 197 437
58 386 268
59 294 74
60 425 55
61 279 81
62 382 251
63 351 385
64 701 32
65 384 214
66 866 243
67 546 186
68 815 29
69 734 57
70 377 235
71 793 31
72 392 248
73 308 314
74 396 27
75 250 345
76 903 66
77 266 264
78 580 142
79 191 288
80 408 225
81 297 283
82 733 38
83 312 293
84 180 250
85 764 45
86 351 284
87 321 318
88 208 348
89 451 423
90 365 142
91 487 175
92 267 51
93 346 248
94 575 294
95 585 346
96 199 136
97 485 24
98 542 109
99 813 117
100 442 280
101 212 192
102 344 170
103 574 426
104 325 343
105 426 272
106 349 90
107 389 302
108 769 51
109 489 165
110 174 288
111 285 419
112 434 257
113 376 210
114 400 124
115 320 191
116 304 260
117 339 138
118 390 222
119 129 47
120 376 262
121 416 240
122 688 80
123 289 193
124 270 418
125 322 311
126 303 228
127 829 13
128 315 212
129 266 239
130 326 136
131 287 298
132 319 176
133 79 221
134 323 291
DEMAND_SECTION
2 53
3 73
4 60
5 20
6 23
7 3
8 46
9 28
10 84
11 72
12 64
13 100
14 10
15 74
16 29
17 87
18 95
19 51
20 67
21 17
22 51
23 33
24 12
25 85
26 54
27 79
28 26
29 26
30 58
31 35
32 99
33 97
34 73
35 93
36 54
37 56
38 89
39 86
40 85
41 79
42 60
43 9
44 98
45 23
46 78
47 53
48 92
49 53
50 80
51 54
52 89
53 94
54 47
COVERAGE_SECTION
2 7 70 50 62 72 118 120 65 
3 7 10 40 48 74 35 42 19 
4 7 73 87 34 125 83 131 39 
5 7 28 71 23 68 56 127 85 
6 7 98 78 14 7 67 54 109 
7 7 109 91 98 67 6 14 78 
8 7 122 69 64 31 82 24 9 
9 7 108 85 31 45 69 82 71 
10 7 3 48 40 35 17 74 42 
11 7 63 104 33 87 34 13 125 
12 7 115 132 53 123 128 102 126 
13 7 125 34 134 86 87 83 73 
14 7 98 6 97 7 78 109 60 
15 7 59 92 61 35 17 52 106 
16 7 82 64 69 85 108 9 28 
17 7 52 48 10 3 40 15 35 
18 7 77 20 81 131 116 83 129 
19 7 74 60 40 3 10 48 42 
20 7 131 18 81 4 83 73 77 
21 7 127 68 56 5 71 23 28 
22 7 47 100 46 105 112 107 37 
23 7 28 5 56 71 68 127 85 
24 7 31 8 69 9 122 108 85 
25 7 38 63 33 89 55 111 11 
26 7 114 106 42 90 35 60 117 
27 7 36 51 55 111 124 39 75 
28 7 23 5 71 56 68 127 85 
29 7 76 21 127 56 68 99 71 
30 7 93 32 86 120 2 62 70 
31 7 69 9 108 24 85 82 8 
32 7 93 30 2 116 70 126 128 
33 7 63 55 36 11 104 27 111 
34 7 125 87 73 4 13 134 83 
35 7 42 106 3 10 40 48 26 
36 7 27 51 39 104 55 33 111 
37 7 44 112 100 121 105 80 47 
38 7 89 25 63 33 11 46 55 
39 7 51 4 73 36 75 131 20 
40 7 3 10 48 74 19 42 35 
41 7 96 101 123 84 61 129 53 
42 7 35 106 3 26 10 40 48 
43 7 66 99 24 31 9 122 45 
44 7 37 121 112 80 91 105 118 
45 7 108 9 71 85 68 5 31 
46 7 22 47 100 105 112 107 37 
47 7 22 100 105 112 46 107 58 
48 7 10 3 40 17 74 52 35 
49 7 65 113 118 50 80 70 2 
50 7 70 118 2 72 62 65 80 
51 7 39 36 75 27 4 73 104 
52 7 17 48 10 15 3 92 40 
53 7 132 12 102 115 130 117 123 
54 7 67 78 6 98 7 109 91 
55 7 111 124 27 33 36 63 51 
56 7 127 68 23 28 5 21 71 
57 7 124 88 111 27 75 55 36 
58 7 120 62 72 2 50 70 107 
59 7 15 61 92 35 106 42 17 
60 7 19 74 40 26 3 97 10 
61 7 59 15 92 35 106 130 42 
62 7 72 2 120 58 70 50 118 
63 7 33 11 104 55 36 27 87 
64 7 82 8 16 69 122 31 85 
65 7 49 113 118 50 70 2 80 
66 7 43 99 76 24 45 29 9 
67 7 54 78 7 91 109 6 98 
68 7 127 71 5 56 21 23 28 
69 7 82 31 9 8 85 108 64 
70 7 2 50 62 118 72 65 113 
71 7 5 68 28 23 45 108 85 
72 7 62 50 2 70 58 120 121 
73 7 4 87 125 34 83 131 134 
74 7 19 40 3 10 48 60 42 
75 7 51 39 88 27 36 20 131 
76 7 29 21 127 68 56 99 45 
77 7 18 129 20 81 116 131 126 
78 7 6 54 98 67 7 14 109 
79 7 110 84 88 77 75 18 20 
80 7 121 118 50 65 49 72 70 
81 7 83 131 18 20 116 134 73 
82 7 69 16 85 64 9 31 108 
83 7 134 81 73 125 4 34 131 
84 7 110 79 101 77 129 18 41 
85 7 108 9 45 69 71 82 31 
86 7 13 30 134 120 93 58 83 
87 7 34 125 73 4 13 104 83 
88 7 75 79 110 51 27 39 20 
89 7 38 25 46 63 11 22 33 
90 7 117 102 114 130 26 53 106 
91 7 109 7 44 67 37 98 80 
92 7 15 61 59 52 17 35 106 
93 7 30 32 2 120 70 62 86 
94 7 95 54 67 46 37 22 103 
95 7 94 103 46 22 89 47 100 
96 7 41 101 61 123 92 59 119 
97 7 14 60 19 74 98 40 6 
98 7 6 14 78 7 67 109 91 
99 7 45 9 24 108 31 85 68 
100 7 47 105 22 112 37 121 58 
101 7 41 96 84 129 123 77 79 
102 7 132 53 115 117 12 90 130 
103 7 95 89 94 46 38 22 47 
104 7 87 34 125 4 73 11 36 
105 7 112 100 47 121 22 58 72 
106 7 42 35 26 117 130 3 90 
107 7 58 86 120 105 47 13 62 
108 7 85 9 45 71 31 69 82 
109 7 91 7 67 44 98 37 6 
110 7 79 84 88 75 77 18 101 
111 7 124 55 27 36 33 63 51 
112 7 105 100 121 37 47 80 44 
113 7 65 49 118 70 50 2 80 
114 7 26 90 106 117 42 102 60 
115 7 12 132 128 53 123 102 126 
116 7 81 126 18 83 134 32 77 
117 7 130 90 102 53 132 106 12 
118 7 65 50 49 70 80 113 2 
119 7 96 41 92 61 15 59 101 
120 7 58 62 72 2 70 30 50 
121 7 80 72 112 50 118 105 62 
122 7 8 64 69 31 24 82 9 
123 7 12 115 128 132 126 53 129 
124 7 111 55 27 36 33 51 57 
125 7 34 87 73 4 13 134 83 
126 7 128 116 123 32 129 115 12 
127 7 56 21 68 5 23 28 71 
128 7 126 115 12 123 132 32 93 
129 7 77 126 18 116 123 81 128 
130 7 117 53 102 90 132 12 106 
131 7 20 81 18 83 4 73 39 
132 7 12 53 115 102 123 128 130 
133 7 84 110 79 101 41 96 88 
134 7 83 13 125 34 73 81 87 
DEPOT_SECTION
   1
   -1
EOF
