NAME :  X-n139-kX-w55-c7.cctp
COMMENT : 	Adapted by Maziero, Usberti and Cavellucci from the Uchoa, Pecin, Pessoa, Poggi, Subramanian, and Vidal (2013)
TYPE :  CCTP
DIMENSION :    130
EDGE_WEIGHT_TYPE : 	EUC_2D	
CAPACITY : 	106
VERTICES_WITHIN_COVERAGE :  7
VERTICES_WITH_DEMAND : 	55
NODE_COORD_SECTION
1 500 500
2 645 7
3 720 867
4 513 499
5 208 766
6 976 884
7 991 864
8 596 532
9 765 632
10 270 818
11 223 552
12 871 193
13 825 816
14 128 518
15 802 281
16 786 635
17 435 675
18 976 204
19 563 43
20 870 774
21 348 458
22 566 113
23 295 969
24 229 790
25 515 805
26 482 998
27 241 830
28 47 633
29 594 244
30 635 626
31 597 538
32 86 516
33 444 697
34 763 281
35 12 649
36 187 417
37 630 975
38 934 263
39 88 855
40 768 582
41 916 277
42 40 387
43 881 490
44 325 20
45 771 700
46 308 482
47 397 30
48 934 7
49 869 723
50 788 896
51 100 591
52 746 587
53 584 721
54 859 990
55 403 428
56 493 63
57 496 458
58 728 641
59 174 440
60 986 511
61 887 589
62 931 743
63 234 663
64 608 268
65 832 704
66 857 776
67 828 438
68 744 105
69 122 949
70 270 596
71 790 753
72 323 417
73 152 585
74 472 319
75 282 64
76 138 342
77 391 452
78 87 413
79 676 362
80 314 108
81 638 532
82 507 797
83 720 264
84 630 720
85 326 566
86 610 371
87 847 833
88 576 429
89 58 295
90 141 976
91 564 716
92 946 889
93 100 526
94 503 496
95 684 811
96 800 409
97 794 190
98 784 339
99 603 208
100 637 306
101 369 159
102 288 88
103 177 924
104 300 515
105 275 468
106 408 217
107 343 995
108 889 853
109 455 846
110 20 645
111 760 141
112 763 785
113 494 727
114 889 11
115 254 378
116 381 438
117 508 257
118 70 637
119 361 611
120 529 957
121 570 727
122 813 135
123 820 999
124 201 62
125 5 787
126 881 333
127 767 284
128 709 189
129 427 864
130 538 248
DEMAND_SECTION
2 10
3 10
4 5
5 9
6 8
7 5
8 5
9 8
10 6
11 8
12 10
13 9
14 9
15 8
16 9
17 5
18 10
19 7
20 6
21 9
22 10
23 6
24 10
25 5
26 8
27 6
28 8
29 5
30 6
31 5
32 7
33 10
34 9
35 7
36 5
37 9
38 6
39 8
40 9
41 5
42 9
43 9
44 5
45 5
46 6
47 7
48 6
49 9
50 5
51 8
52 9
53 8
54 8
55 7
56 9
COVERAGE_SECTION
2 6 19 22 68 56 111 128 
3 7 95 50 112 13 87 71 37 
4 7 94 57 8 31 88 81 55 
5 7 24 27 10 63 39 103 70 
6 7 7 92 108 87 62 20 54 
7 7 6 92 108 62 87 20 66 
8 7 31 81 4 94 30 88 57 
9 7 16 58 52 40 45 65 71 
10 7 27 24 5 103 23 63 129 
11 7 70 73 104 105 14 85 46 
12 7 97 122 38 41 18 15 111 
13 7 87 66 20 112 71 108 50 
14 7 93 32 73 51 59 11 78 
15 7 127 34 98 83 97 126 12 
16 7 9 40 58 52 45 65 61 
17 7 33 113 119 91 82 121 25 
18 7 38 41 12 126 122 97 15 
19 6 22 56 2 47 99 68 
20 7 66 49 13 87 62 65 108 
21 7 116 77 46 72 55 105 104 
22 6 19 56 99 2 29 130 
23 7 107 103 27 10 90 129 69 
24 7 5 27 10 63 103 39 23 
25 7 82 109 113 121 91 129 53 
26 7 120 107 129 37 109 23 25 
27 7 10 24 5 103 23 39 63 
28 7 118 110 35 51 73 93 32 
29 7 64 99 130 100 117 128 83 
30 7 58 81 84 31 8 53 91 
31 7 8 81 4 30 94 88 57 
32 7 93 14 51 73 78 59 118 
33 7 17 113 82 119 91 25 121 
34 7 127 15 83 98 97 128 79 
35 7 110 28 118 51 125 93 32 
36 7 59 115 76 78 105 14 72 
37 7 120 3 26 95 50 123 25 
38 7 41 18 126 12 15 97 98 
39 7 69 125 103 90 5 24 27 
40 7 52 9 16 58 45 61 65 
41 7 38 126 18 12 15 98 127 
42 7 78 89 76 32 59 36 93 
43 7 67 61 60 96 40 126 52 
44 6 75 47 102 80 124 101 
45 7 71 65 16 9 58 112 49 
46 7 104 105 21 72 116 85 77 
47 7 44 56 80 75 102 101 19 
48 7 114 122 12 18 68 111 97 
49 7 65 20 66 62 71 45 13 
50 7 3 87 13 123 108 112 54 
51 7 73 118 93 28 32 14 110 
52 7 40 9 58 16 45 30 81 
53 7 121 91 84 113 30 82 25 
54 7 123 50 92 108 87 6 13 
55 7 116 77 21 72 57 46 94 
56 7 19 22 47 101 2 44 106 
57 7 94 4 88 55 77 116 8 
58 7 9 52 16 40 45 30 65 
59 7 36 14 78 115 76 105 93 
60 7 43 61 67 126 96 40 16 
61 7 43 16 40 60 65 9 49 
62 7 49 20 66 65 108 87 13 
63 7 70 5 11 73 24 85 119 
64 7 29 100 99 130 117 86 83 
65 7 49 45 71 66 20 16 9 
66 7 20 13 49 87 71 65 62 
67 6 96 43 98 126 40 15 
68 6 111 122 128 97 2 12 
69 7 90 103 39 27 23 24 10 
70 7 11 85 63 104 119 73 46 
71 7 112 45 65 66 13 20 49 
72 7 21 116 46 105 77 115 55 
73 7 51 14 11 93 32 118 63 
74 7 117 130 106 55 57 29 64 
75 5 102 80 44 124 47 
76 6 78 36 89 59 42 115 
77 7 116 55 21 72 46 57 104 
78 7 42 76 59 36 32 14 93 
79 6 86 100 83 98 64 34 
80 5 102 75 101 44 47 
81 7 31 8 30 88 52 4 40 
82 7 25 109 113 121 91 129 53 
83 7 34 127 128 15 100 98 97 
84 7 53 121 91 30 95 58 113 
85 7 104 119 70 46 11 21 105 
86 6 79 88 100 64 29 57 
87 7 13 108 66 20 50 112 71 
88 6 86 57 4 94 8 31 
89 4 76 42 78 36 
90 7 69 103 39 23 27 107 10 
91 7 121 53 84 113 82 25 30 
92 7 6 7 108 87 54 20 13 
93 7 32 14 51 73 59 78 118 
94 7 4 57 88 8 31 77 55 
95 7 3 112 84 71 50 53 13 
96 6 67 98 126 43 15 127 
97 7 122 111 12 128 15 34 127 
98 7 127 15 34 96 126 83 67 
99 7 29 64 130 22 100 117 128 
100 6 64 79 86 29 83 99 
101 5 106 80 102 75 47 
102 5 75 80 44 124 101 
103 7 69 90 39 27 23 10 24 
104 7 46 105 85 21 11 70 72 
105 7 46 104 72 21 115 11 36 
106 6 101 117 74 130 80 56 
107 7 23 26 129 103 109 120 10 
108 7 87 92 13 20 66 6 7 
109 7 129 82 25 113 120 33 26 
110 7 35 28 118 51 93 125 32 
111 6 68 122 97 128 12 83 
112 7 71 13 95 45 3 66 87 
113 7 33 82 91 121 17 25 53 
114 6 48 122 68 12 111 97 
115 7 36 72 105 59 46 76 21 
116 7 77 55 21 72 46 105 104 
117 7 130 74 29 64 99 106 100 
118 7 28 110 51 35 73 93 32 
119 7 85 70 17 104 33 63 46 
120 7 26 37 109 129 25 82 107 
121 7 91 53 84 113 82 25 30 
122 6 111 97 68 12 128 114 
123 7 54 50 108 3 92 87 13 
124 4 75 102 80 44 
125 7 39 35 110 28 118 69 5 
126 7 41 38 15 98 96 67 127 
127 7 34 15 83 98 97 128 79 
128 6 111 83 97 68 34 99 
129 7 109 82 25 120 26 113 107 
130 7 117 29 64 99 74 100 106 
DEPOT_SECTION
   1
   -1
EOF
