NAME :  X-n195-kX-w38-c7.cctp
COMMENT : 	Adapted by Maziero, Usberti and Cavellucci from the Uchoa, Pecin, Pessoa, Poggi, Subramanian, and Vidal (2013)
TYPE :  CCTP
DIMENSION :    138
EDGE_WEIGHT_TYPE : 	EUC_2D	
CAPACITY : 	181
VERTICES_WITHIN_COVERAGE :  7
VERTICES_WITH_DEMAND : 	38
NODE_COORD_SECTION
1 500 500
2 691 729
3 978 828
4 427 367
5 777 543
6 190 596
7 773 750
8 234 727
9 851 358
10 140 69
11 891 285
12 467 13
13 537 162
14 636 355
15 213 284
16 75 877
17 384 814
18 606 173
19 76 236
20 86 733
21 642 61
22 303 261
23 771 775
24 107 264
25 763 43
26 811 873
27 38 170
28 822 920
29 907 792
30 539 273
31 576 836
32 491 411
33 430 725
34 727 248
35 532 825
36 457 218
37 398 153
38 942 597
39 8 330
40 637 85
41 75 781
42 560 188
43 27 523
44 432 198
45 695 372
46 203 307
47 641 389
48 836 612
49 375 499
50 818 980
51 577 226
52 889 259
53 516 324
54 102 346
55 223 11
56 484 245
57 648 790
58 878 261
59 600 800
60 493 722
61 549 214
62 714 918
63 638 166
64 452 172
65 711 687
66 786 203
67 24 32
68 529 661
69 843 248
70 115 449
71 82 971
72 876 644
73 322 24
74 642 810
75 141 824
76 641 954
77 330 941
78 830 188
79 469 250
80 970 812
81 723 360
82 274 238
83 668 103
84 269 147
85 135 493
86 930 729
87 579 972
88 388 767
89 517 382
90 537 160
91 457 1
92 295 704
93 785 358
94 592 694
95 607 347
96 690 10
97 843 955
98 767 401
99 854 524
100 325 778
101 465 885
102 415 721
103 394 769
104 496 700
105 888 436
106 980 290
107 444 754
108 583 835
109 435 761
110 887 925
111 710 300
112 372 794
113 438 871
114 758 513
115 728 143
116 852 970
117 458 787
118 635 24
119 752 463
120 524 482
121 550 133
122 625 799
123 433 847
124 516 12
125 766 270
126 265 183
127 464 642
128 919 380
129 699 633
130 773 599
131 492 754
132 231 773
133 250 657
134 275 755
135 381 870
136 654 377
137 490 876
138 211 808
DEMAND_SECTION
2 79
3 84
4 100
5 23
6 32
7 90
8 8
9 50
10 29
11 96
12 26
13 17
14 92
15 41
16 16
17 95
18 41
19 69
20 30
21 83
22 11
23 84
24 38
25 29
26 88
27 33
28 77
29 76
30 74
31 16
32 31
33 33
34 76
35 16
36 28
37 67
38 22
39 61
COVERAGE_SECTION
2 7 65 57 7 23 74 122 129 
3 3 80 29 86 
4 7 32 89 53 79 56 49 30 
5 5 114 130 99 119 48 
6 5 133 85 8 92 70 
7 7 23 2 65 26 57 129 29 
8 6 132 134 92 133 138 100 
9 6 93 128 11 105 98 58 
10 7 55 67 27 84 126 19 73 
11 6 52 58 69 9 106 128 
12 2 91 124 
13 4 90 121 42 61 
14 5 136 95 47 45 81 
15 7 46 82 22 24 126 54 19 
16 6 75 71 41 20 138 132 
17 6 112 103 88 135 123 100 
18 6 63 42 51 121 13 61 
19 7 24 27 54 39 15 46 10 
20 7 41 75 16 138 8 132 6 
21 4 40 118 83 96 
22 7 82 126 15 46 84 37 44 
23 7 7 2 26 65 57 74 29 
24 7 19 54 46 15 27 39 82 
25 7 96 115 83 21 118 40 78 
26 7 28 97 110 116 23 50 62 
27 7 19 24 67 10 39 54 15 
28 5 97 26 116 50 110 
29 6 80 86 3 26 110 23 
30 7 53 51 61 56 79 42 36 
31 7 108 59 35 122 74 57 137 
32 5 89 4 120 53 95 
33 6 102 107 109 103 88 60 
34 7 125 111 66 115 81 69 78 
35 7 31 108 137 59 131 117 101 
36 7 44 79 56 64 37 61 13 
37 6 44 64 36 79 56 84 
38 4 72 48 99 86 
39 7 54 19 24 70 27 43 46 
40 4 21 83 118 63 
41 7 20 75 16 138 132 8 71 
42 6 61 13 90 51 18 121 
43 7 85 70 6 54 39 20 133 
44 7 36 64 37 79 56 13 90 
45 6 81 136 47 14 111 98 
46 7 15 82 24 54 22 126 19 
47 4 136 14 95 45 
48 7 72 130 99 5 38 114 129 
49 5 4 32 120 127 89 
50 4 97 116 28 110 
51 7 61 42 18 30 13 90 63 
52 7 58 11 69 78 106 9 66 
53 7 30 89 56 79 32 95 4 
54 7 24 39 70 46 19 15 85 
55 7 73 10 84 126 67 37 82 
56 7 79 36 30 44 61 64 53 
57 7 74 122 59 2 108 31 94 
58 7 52 11 69 78 9 106 66 
59 7 122 108 31 74 57 35 94 
60 7 104 131 107 33 109 68 117 
61 7 42 51 13 90 30 18 56 
62 7 76 26 28 50 74 97 57 
63 5 18 83 40 42 51 
64 7 44 36 37 56 79 13 90 
65 6 2 129 7 23 130 94 
66 7 78 125 69 34 115 58 52 
67 7 10 27 55 19 24 84 126 
68 6 104 127 60 94 131 33 
69 7 58 52 11 78 66 125 9 
70 7 85 54 43 39 6 46 24 
71 5 16 75 41 138 20 
72 7 48 38 86 130 99 5 7 
73 7 55 84 91 12 37 126 10 
74 7 122 57 59 108 31 2 35 
75 7 138 41 16 132 20 8 134 
76 7 87 62 108 31 74 122 59 
77 4 135 113 17 123 
78 7 66 69 58 52 125 115 11 
79 7 56 36 44 30 64 53 61 
80 4 3 29 86 110 
81 6 45 98 111 93 136 14 
82 7 22 126 15 84 46 37 44 
83 6 40 21 63 115 118 18 
84 7 126 82 22 37 73 55 15 
85 7 70 43 6 54 46 133 39 
86 7 29 80 72 3 38 48 7 
87 7 76 137 31 108 101 62 35 
88 4 103 112 17 109 
89 6 32 53 4 95 120 30 
90 4 13 121 42 61 
91 2 12 124 
92 2 134 8 
93 5 98 81 9 125 45 
94 6 68 104 60 2 59 122 
95 6 14 47 136 45 53 89 
96 6 118 21 25 40 83 115 
97 4 116 50 28 110 
98 5 93 81 119 45 9 
99 6 5 48 105 114 130 38 
100 4 112 134 88 17 
101 7 137 113 123 135 35 117 17 
102 5 33 107 109 103 88 
103 6 88 112 109 17 102 107 
104 7 60 68 131 127 33 107 102 
105 2 128 9 
106 4 11 52 58 128 
107 7 109 33 117 102 131 103 88 
108 7 31 59 35 122 74 57 137 
109 7 107 117 33 103 102 88 131 
110 3 97 116 28 
111 7 34 81 125 45 14 93 136 
112 4 17 88 103 100 
113 7 123 101 137 135 17 117 112 
114 4 5 119 130 99 
115 7 83 66 63 34 25 40 78 
116 4 97 50 110 28 
117 7 109 107 131 123 103 33 88 
118 4 21 96 40 83 
119 3 114 98 5 
120 2 32 89 
121 2 90 13 
122 7 74 57 59 108 31 2 35 
123 7 113 101 135 17 137 117 112 
124 2 12 91 
125 7 34 111 66 69 93 81 78 
126 7 84 82 22 15 37 46 44 
127 5 104 68 60 33 102 
128 2 105 9 
129 4 65 130 2 5 
130 6 5 48 129 114 65 99 
131 7 60 117 107 104 109 33 35 
132 7 138 8 134 92 100 75 133 
133 4 92 8 6 134 
134 5 132 8 92 100 138 
135 7 17 113 123 112 101 77 103 
136 5 47 14 45 95 81 
137 7 101 113 123 35 31 117 108 
138 7 132 75 134 8 100 92 41 
DEPOT_SECTION
   1
   -1
EOF
