NAME :  X-n172-kX-w68-c11.cctp
COMMENT : 	Adapted by Maziero, Usberti and Cavellucci from the Uchoa, Pecin, Pessoa, Poggi, Subramanian, and Vidal (2013)
TYPE :  CCTP
DIMENSION :    165
EDGE_WEIGHT_TYPE : 	EUC_2D	
CAPACITY : 	161
VERTICES_WITHIN_COVERAGE :  11
VERTICES_WITH_DEMAND : 	68
NODE_COORD_SECTION
1 500 500
2 363 697
3 120 259
4 555 718
5 522 918
6 239 935
7 304 517
8 856 96
9 38 904
10 174 951
11 294 935
12 942 324
13 402 176
14 766 450
15 473 862
16 262 550
17 661 92
18 440 655
19 678 291
20 345 691
21 564 903
22 952 802
23 698 352
24 297 930
25 66 244
26 882 642
27 777 818
28 302 212
29 824 647
30 143 946
31 108 600
32 121 755
33 697 32
34 473 995
35 342 252
36 596 534
37 248 211
38 940 88
39 81 468
40 144 796
41 244 385
42 437 42
43 381 583
44 263 549
45 153 646
46 187 688
47 248 71
48 27 70
49 649 477
50 244 370
51 145 49
52 589 402
53 105 251
54 986 452
55 486 773
56 679 851
57 102 734
58 619 809
59 139 138
60 107 489
61 921 579
62 681 336
63 925 185
64 260 655
65 46 832
66 534 440
67 117 590
68 604 453
69 667 428
70 871 548
71 943 171
72 181 252
73 172 696
74 211 597
75 82 390
76 114 189
77 659 852
78 404 544
79 169 845
80 101 663
81 422 503
82 124 861
83 289 778
84 923 842
85 464 148
86 377 32
87 933 156
88 995 62
89 241 242
90 802 86
91 944 185
92 972 48
93 964 77
94 244 244
95 992 67
96 89 157
97 989 59
98 953 76
99 347 358
100 415 494
101 941 146
102 391 594
103 904 106
104 649 92
105 951 94
106 917 77
107 134 331
108 948 183
109 389 254
110 796 197
111 243 283
112 965 174
113 304 381
114 914 661
115 198 245
116 207 258
117 926 85
118 961 726
119 881 145
120 849 115
121 923 678
122 577 535
123 266 216
124 160 154
125 890 105
126 368 725
127 563 538
128 509 502
129 921 174
130 819 266
131 324 181
132 500 580
133 435 652
134 460 344
135 917 630
136 843 747
137 355 700
138 956 76
139 470 464
140 982 738
141 998 704
142 416 492
143 215 222
144 992 115
145 433 446
146 354 552
147 884 204
148 439 345
149 472 663
150 980 116
151 494 573
152 51 27
153 934 44
154 930 835
155 216 30
156 862 251
157 267 215
158 212 71
159 941 68
160 554 709
161 602 591
162 936 725
163 428 536
164 405 594
165 629 450
DEMAND_SECTION
2 30
3 82
4 70
5 92
6 25
7 23
8 11
9 41
10 15
11 5
12 17
13 70
14 36
15 47
16 24
17 11
18 6
19 23
20 5
21 54
22 74
23 6
24 9
25 58
26 96
27 80
28 100
29 65
30 3
31 46
32 16
33 47
34 33
35 84
36 73
37 75
38 27
39 99
40 50
41 65
42 79
43 42
44 46
45 9
46 13
47 97
48 79
49 6
50 63
51 65
52 14
53 91
54 6
55 6
56 69
57 13
58 55
59 69
60 67
61 53
62 35
63 19
64 49
65 47
66 36
67 24
68 15
69 15
COVERAGE_SECTION
2 11 137 20 126 133 18 102 83 64 164 149 43 
3 11 53 25 72 76 107 115 116 143 96 124 59 
4 10 160 55 149 58 18 161 133 132 151 15 
5 11 21 15 34 58 55 77 56 4 160 24 11 
6 11 11 24 10 30 79 82 83 40 9 32 65 
7 11 44 16 146 43 78 100 142 102 81 74 163 
8 11 120 125 103 90 119 106 117 38 159 153 105 
9 11 65 82 30 10 79 40 32 57 6 73 80 
10 11 30 6 82 79 11 24 9 40 65 32 83 
11 11 24 6 10 30 79 83 82 34 15 40 126 
12 11 156 147 54 130 91 63 108 129 112 71 87 
13 11 85 131 109 35 28 42 157 123 86 37 94 
14 11 69 23 49 165 62 70 68 19 52 36 130 
15 11 5 55 21 34 58 4 126 160 77 24 11 
16 11 44 7 74 146 64 43 102 78 45 67 164 
17 11 104 33 90 110 120 8 19 85 119 125 42 
18 10 133 149 164 102 2 43 132 137 151 126 
19 11 62 23 69 52 130 110 165 68 14 49 156 
20 11 137 2 126 64 133 18 83 102 43 164 149 
21 11 5 15 77 58 56 34 55 4 160 27 149 
22 8 154 84 140 118 162 141 136 121 
23 11 62 19 69 14 52 165 49 68 130 110 66 
24 11 11 6 10 83 79 30 82 34 15 40 126 
25 11 53 3 76 96 107 72 59 124 115 116 75 
26 7 114 135 121 29 61 70 162 
27 9 136 56 77 84 154 58 22 29 162 
28 11 157 123 131 37 35 94 89 143 111 109 13 
29 8 26 114 135 136 121 70 61 162 
30 11 10 82 6 79 9 40 65 11 24 32 57 
31 11 67 80 45 74 60 73 46 57 39 32 16 
32 11 57 40 73 46 80 79 82 65 45 31 67 
33 11 17 104 90 8 120 110 125 119 103 106 117 
34 11 5 21 15 24 11 55 77 58 6 56 83 
35 11 109 28 131 123 157 13 94 89 37 111 99 
36 10 122 127 161 49 68 165 128 132 151 66 
37 11 123 157 89 94 143 28 115 116 111 72 131 
38 11 105 117 98 138 159 106 93 103 153 150 92 
39 11 60 75 67 31 107 41 74 50 45 80 16 
40 11 32 79 82 57 65 73 46 80 83 30 45 
41 11 50 113 111 99 107 116 94 89 7 72 115 
42 11 86 85 13 131 47 28 109 104 155 158 17 
43 11 102 164 146 78 163 133 81 18 100 142 7 
44 11 16 7 74 146 64 43 102 78 45 164 67 
45 11 73 46 80 31 67 74 57 64 32 16 44 
46 11 73 45 64 80 32 74 57 40 31 67 83 
47 11 158 155 51 124 59 131 86 37 157 123 28 
48 11 152 96 51 59 76 124 25 158 155 53 3 
49 11 165 68 69 36 122 52 127 14 66 161 23 
50 11 41 113 111 99 107 116 94 89 115 72 143 
51 11 158 155 59 152 47 124 48 96 76 143 37 
52 11 68 165 66 69 49 62 23 128 36 122 139 
53 11 3 25 76 72 107 115 96 116 124 143 59 
54 8 12 61 70 135 26 14 114 121 
55 11 4 15 160 149 18 126 133 58 2 5 137 
56 11 77 58 27 21 5 4 160 136 15 55 84 
57 11 32 80 40 73 46 45 65 82 79 31 67 
58 11 77 56 21 4 160 55 5 15 27 149 161 
59 11 124 96 76 51 158 143 53 72 3 115 47 
60 11 39 67 75 31 74 107 45 16 44 41 80 
61 6 135 70 26 114 121 29 
62 11 23 19 69 52 165 68 14 49 130 66 110 
63 11 129 91 71 108 87 112 101 147 119 103 125 
64 11 74 46 20 73 16 137 44 45 2 83 126 
65 11 9 82 40 32 57 79 30 10 80 73 46 
66 10 52 128 139 68 165 145 127 122 36 49 
67 11 31 45 80 74 60 73 46 39 57 16 44 
68 11 165 49 52 69 66 36 122 127 128 139 23 
69 11 165 49 68 23 52 62 14 36 66 19 122 
70 8 61 135 26 29 114 121 14 54 
71 11 108 91 87 112 129 63 101 150 119 147 144 
72 11 115 116 143 3 89 94 111 53 37 76 107 
73 11 46 45 32 80 57 64 40 74 31 67 83 
74 11 16 44 45 64 46 67 31 73 7 80 60 
75 11 39 107 60 3 53 25 41 50 72 116 115 
76 11 96 59 124 53 3 25 72 115 143 116 37 
77 11 56 58 21 27 5 4 160 15 55 136 34 
78 9 163 43 81 164 100 146 102 142 151 
79 11 82 40 32 30 10 6 65 57 83 9 73 
80 11 45 31 57 67 73 46 32 74 40 64 60 
81 9 100 142 163 78 145 139 146 128 43 
82 11 79 40 65 30 9 10 32 57 6 73 46 
83 11 126 137 20 2 64 46 79 73 40 24 11 
84 9 154 22 162 140 118 136 27 141 121 
85 11 13 42 109 131 86 35 28 104 134 148 17 
86 11 42 47 85 13 131 155 158 28 157 123 37 
87 11 101 71 129 63 91 108 112 119 103 150 105 
88 11 95 97 92 93 138 98 144 105 159 150 38 
89 11 94 37 143 123 157 116 111 115 72 28 35 
90 11 8 120 125 119 103 110 106 33 117 38 153 
91 11 108 71 63 112 129 87 101 147 119 150 144 
92 11 97 88 95 93 138 98 159 153 38 105 117 
93 11 138 98 105 159 38 92 95 97 88 117 150 
94 11 89 37 123 143 157 111 116 115 72 28 35 
95 11 88 97 92 93 138 98 144 105 150 159 38 
96 11 76 59 124 25 53 3 48 51 72 152 115 
97 11 88 95 92 93 138 98 159 105 144 38 153 
98 11 138 93 159 38 105 117 92 106 153 95 97 
99 11 113 148 50 35 41 109 134 145 111 142 100 
100 10 142 81 163 78 145 139 146 128 43 164 
101 11 87 71 129 112 108 91 63 150 105 103 38 
102 10 164 43 78 146 163 133 18 81 100 142 
103 11 125 117 106 38 119 8 105 159 101 120 98 
104 11 17 33 90 110 85 19 120 8 42 119 125 
105 11 38 98 138 93 117 159 150 106 144 95 103 
106 11 117 38 159 103 98 153 105 125 138 93 92 
107 11 3 75 53 72 116 115 25 50 111 41 143 
108 11 91 71 112 63 129 87 101 147 150 119 144 
109 11 35 13 28 131 148 99 134 157 123 85 94 
110 11 130 156 147 120 119 90 8 129 63 125 103 
111 11 94 89 116 115 143 72 123 37 157 50 28 
112 11 108 71 91 87 101 63 129 150 144 105 147 
113 11 99 41 50 111 35 7 148 145 94 89 109 
114 6 121 135 26 162 118 61 
115 11 116 72 143 89 94 111 37 123 157 3 53 
116 11 115 72 143 89 94 111 37 123 157 3 53 
117 11 106 38 159 105 98 103 138 93 125 153 92 
118 6 140 162 141 121 22 114 
119 11 125 120 103 129 87 8 63 147 101 71 91 
120 11 8 125 119 90 103 106 117 87 129 38 147 
121 6 114 135 162 26 118 141 
122 10 127 36 161 128 68 132 151 49 165 66 
123 11 157 37 28 89 94 143 131 111 116 115 35 
124 11 59 76 96 143 158 115 72 37 51 3 53 
125 11 103 8 106 117 119 120 38 105 159 101 87 
126 11 2 137 20 83 133 18 149 55 64 102 164 
127 9 122 36 128 161 132 151 68 66 49 
128 9 139 127 66 151 122 132 81 163 36 
129 11 63 71 87 91 108 101 112 147 119 103 125 
130 11 156 110 147 63 12 119 129 19 23 91 108 
131 11 28 157 123 35 13 37 109 94 89 143 111 
132 9 151 127 128 163 149 122 18 164 133 
133 10 18 149 164 102 2 43 137 132 20 126 
134 11 148 145 99 109 139 66 52 35 142 100 113 
135 6 114 26 121 61 70 29 
136 9 162 27 29 121 26 114 118 22 84 
137 11 2 20 126 133 18 83 64 102 164 43 149 
138 11 98 93 159 105 38 117 92 95 97 106 153 
139 9 145 128 142 81 100 66 163 78 151 
140 6 118 141 162 22 121 114 
141 6 140 118 162 121 114 22 
142 9 100 81 163 145 78 139 146 128 43 
143 11 115 89 37 94 116 72 123 157 111 124 28 
144 11 150 105 93 95 88 138 98 97 38 101 112 
145 10 139 142 100 81 163 128 66 148 78 134 
146 11 43 78 102 7 164 163 81 100 142 44 16 
147 11 63 129 156 119 91 108 71 87 101 112 110 
148 11 134 99 145 109 139 35 66 113 142 100 81 
149 10 18 133 132 151 160 164 4 102 55 2 
150 11 144 105 93 138 98 38 101 95 88 97 112 
151 9 132 128 163 127 122 164 149 78 18 
152 11 48 51 96 59 155 124 158 76 47 25 53 
153 11 159 98 106 92 138 117 38 93 105 97 95 
154 9 84 22 140 162 118 136 141 27 121 
155 11 158 47 51 59 124 86 152 96 37 131 76 
156 11 130 147 110 63 129 91 12 119 108 71 87 
157 11 123 37 28 89 94 143 131 111 116 115 35 
158 11 47 155 51 124 59 37 96 143 76 157 123 
159 11 98 138 38 117 93 153 106 105 92 97 95 
160 10 4 55 149 58 18 161 133 132 151 127 
161 10 36 122 127 132 151 49 160 128 4 68 
162 6 118 140 121 141 114 22 
163 9 78 81 100 142 164 43 102 146 151 
164 10 102 43 78 163 133 146 18 151 81 132 
165 11 68 49 69 52 36 66 122 127 23 62 128 
DEPOT_SECTION
   1
   -1
EOF
