NAME :  X-n167-kX-w16-c11.cctp
COMMENT : 	Adapted by Maziero, Usberti and Cavellucci from the Uchoa, Pecin, Pessoa, Poggi, Subramanian, and Vidal (2013)
TYPE :  CCTP
DIMENSION :    105
EDGE_WEIGHT_TYPE : 	EUC_2D	
CAPACITY : 	133
VERTICES_WITHIN_COVERAGE :  11
VERTICES_WITH_DEMAND : 	16
NODE_COORD_SECTION
1 0 0
2 832 885
3 777 632
4 406 257
5 620 467
6 58 70
7 116 423
8 104 445
9 714 722
10 188 503
11 856 594
12 932 448
13 749 982
14 818 889
15 377 493
16 337 419
17 772 605
18 373 448
19 610 417
20 69 583
21 988 324
22 110 550
23 791 590
24 785 614
25 321 305
26 804 556
27 939 685
28 511 524
29 948 479
30 309 141
31 241 225
32 269 351
33 251 512
34 897 572
35 316 461
36 825 529
37 474 152
38 510 453
39 778 928
40 804 492
41 254 539
42 167 28
43 64 165
44 249 525
45 49 605
46 990 375
47 539 272
48 833 561
49 84 571
50 713 485
51 489 204
52 815 905
53 286 204
54 864 397
55 35 597
56 918 632
57 395 570
58 87 97
59 318 94
60 893 805
61 82 392
62 349 360
63 138 560
64 795 461
65 398 467
66 553 606
67 92 22
68 127 74
69 727 975
70 755 589
71 975 954
72 820 502
73 802 744
74 585 600
75 248 369
76 868 476
77 275 194
78 930 933
79 233 587
80 198 35
81 312 573
82 694 813
83 446 264
84 586 483
85 967 362
86 194 330
87 846 717
88 32 487
89 250 367
90 989 392
91 473 274
92 408 84
93 762 800
94 917 560
95 606 445
96 551 528
97 191 102
98 605 583
99 427 571
100 168 479
101 679 371
102 354 415
103 638 444
104 243 535
105 796 796
DEMAND_SECTION
2 6
3 9
4 7
5 5
6 9
7 5
8 9
9 7
10 10
11 8
12 6
13 5
14 9
15 8
16 9
17 10
COVERAGE_SECTION
2 11 14 52 39 105 60 78 93 13 69 73 82 
3 11 24 17 23 70 26 11 48 87 9 36 73 
4 10 83 91 25 51 62 37 53 47 77 30 
5 11 95 103 84 19 96 50 38 101 98 28 74 
6 11 58 67 68 43 42 97 80 31 77 30 59 
7 11 8 61 100 88 10 86 22 63 75 89 49 
8 11 7 61 100 88 10 22 63 49 20 86 33 
9 10 73 93 82 3 105 24 17 87 70 23 
10 11 100 33 104 44 41 63 22 79 8 7 49 
11 11 48 34 26 23 94 36 56 24 17 3 72 
12 11 29 76 90 54 46 85 94 72 34 36 40 
13 8 69 39 52 14 2 82 93 78 
14 11 2 52 39 105 93 60 13 78 69 82 73 
15 11 65 18 35 57 102 16 99 81 33 41 44 
16 11 102 18 35 62 65 15 32 89 75 25 33 
17 11 24 70 23 3 26 48 11 36 72 40 34 
18 11 65 102 15 16 35 62 57 99 38 33 81 
19 9 95 103 5 84 101 38 50 96 28 
20 10 49 45 55 22 63 88 8 10 100 79 
21 6 85 46 90 12 54 29 
22 11 63 49 20 45 55 10 100 88 8 7 79 
23 11 17 24 26 70 3 48 11 36 72 40 34 
24 11 17 3 23 70 26 48 11 36 72 34 87 
25 11 62 32 89 75 4 53 31 16 102 77 86 
26 11 48 36 23 72 17 70 24 11 40 3 34 
27 11 56 87 34 11 94 60 73 48 3 24 23 
28 9 96 38 84 66 99 74 98 5 95 
29 11 12 76 94 90 34 46 54 85 72 36 48 
30 11 59 77 53 31 92 97 4 80 25 37 42 
31 11 77 53 30 25 86 32 97 89 75 59 4 
32 11 89 75 25 86 62 16 102 35 31 18 53 
33 11 44 104 41 10 79 35 81 100 63 15 16 
34 11 94 11 56 48 36 26 76 72 29 23 24 
35 11 16 18 102 15 65 33 44 41 104 62 81 
36 11 72 48 26 40 76 23 11 64 34 70 17 
37 6 51 92 83 91 4 47 
38 11 28 84 96 95 19 5 65 103 18 15 99 
39 9 52 14 13 2 69 93 105 82 78 
40 11 72 64 36 26 76 48 50 23 70 54 11 
41 10 104 44 33 79 81 10 35 100 63 15 
42 11 80 68 67 97 58 6 59 43 30 77 31 
43 11 58 6 68 97 67 42 31 80 86 77 53 
44 10 104 33 41 79 10 81 35 100 63 15 
45 10 55 20 49 22 63 88 8 10 100 79 
46 7 90 85 21 12 29 54 76 
47 5 91 51 83 4 37 
48 11 26 36 11 23 72 34 24 17 40 70 94 
49 10 20 22 45 55 63 88 10 100 8 79 
50 11 64 103 40 5 72 70 95 26 101 36 19 
51 6 37 91 83 47 4 92 
52 11 14 2 39 13 105 69 78 93 60 82 73 
53 11 77 31 30 25 59 4 97 32 86 89 62 
54 8 76 12 64 85 40 72 29 90 
55 10 45 20 49 22 63 88 8 100 10 7 
56 11 27 34 94 11 48 87 23 24 26 36 3 
57 9 99 15 81 65 18 28 35 41 44 
58 11 6 68 43 67 97 42 80 31 77 30 53 
59 11 30 92 77 53 97 80 31 42 37 4 68 
60 11 105 87 2 73 14 52 27 93 78 39 71 
61 11 7 8 88 100 86 10 22 75 89 63 49 
62 11 102 16 25 32 18 89 75 35 4 65 15 
63 10 22 49 20 10 100 79 45 104 55 44 
64 11 40 72 36 76 50 54 26 48 23 70 12 
65 11 18 15 102 16 35 57 99 38 62 28 81 
66 7 74 98 96 28 84 99 5 
67 11 6 68 42 58 80 97 43 59 30 77 31 
68 11 58 42 67 6 97 80 43 31 77 59 30 
69 7 13 39 52 14 2 82 93 
70 11 17 23 24 3 26 48 36 11 40 72 50 
71 11 78 2 52 14 60 39 13 105 69 93 87 
72 11 40 36 64 76 26 48 23 11 34 50 70 
73 11 87 105 93 9 60 3 82 24 17 2 14 
74 7 98 66 96 28 84 5 95 
75 11 89 32 86 25 62 16 35 102 100 7 33 
76 11 72 40 36 12 64 54 29 48 94 34 26 
77 11 53 31 30 59 25 97 4 32 86 92 89 
78 11 71 2 52 14 60 39 13 105 69 93 73 
79 7 41 104 44 33 81 10 63 
80 11 42 97 68 67 58 59 6 30 77 43 53 
81 9 41 44 104 79 57 33 15 35 99 
82 6 93 9 105 73 39 14 
83 8 91 4 51 47 37 25 62 53 
84 11 5 95 96 103 19 38 28 98 74 50 66 
85 7 46 90 21 12 54 29 76 
86 11 75 89 32 31 7 61 25 8 100 53 62 
87 11 73 105 27 60 3 56 93 24 11 9 17 
88 11 8 49 22 20 7 61 55 45 63 100 10 
89 11 75 32 86 25 62 16 35 102 100 31 7 
90 7 46 85 21 12 29 54 76 
91 7 83 47 4 51 37 62 25 
92 8 59 37 30 51 53 4 77 83 
93 10 105 73 82 9 14 2 52 87 39 60 
94 11 34 11 56 48 29 36 76 12 26 72 27 
95 10 5 19 103 84 38 96 101 50 28 98 
96 9 28 84 98 66 74 38 5 95 103 
97 11 80 68 42 58 30 77 59 67 31 6 53 
98 9 74 66 96 84 28 5 95 103 50 
99 9 57 15 28 65 81 66 96 18 38 
100 11 10 8 7 63 33 22 44 104 41 61 49 
101 7 19 103 95 5 50 84 64 
102 11 16 18 62 35 65 15 32 25 89 75 33 
103 10 5 95 19 84 101 50 96 38 98 28 
104 10 41 44 33 79 10 81 100 35 63 22 
105 11 93 73 87 2 14 60 82 9 52 39 3 
DEPOT_SECTION
   1
   -1
EOF
