NAME :  X-n148-kX-w29-c11.cctp
COMMENT : 	Adapted by Maziero, Usberti and Cavellucci from the Uchoa, Pecin, Pessoa, Poggi, Subramanian, and Vidal (2013)
TYPE :  CCTP
DIMENSION :    128
EDGE_WEIGHT_TYPE : 	EUC_2D	
CAPACITY : 	18
VERTICES_WITHIN_COVERAGE :  11
VERTICES_WITH_DEMAND : 	29
NODE_COORD_SECTION
1 707 633
2 405 122
3 811 419
4 11 667
5 336 612
6 366 50
7 98 836
8 414 996
9 243 713
10 100 232
11 891 946
12 132 204
13 25 642
14 994 18
15 636 897
16 214 651
17 108 619
18 882 399
19 863 607
20 409 585
21 247 882
22 553 507
23 677 258
24 673 644
25 25 182
26 251 111
27 263 799
28 660 359
29 351 288
30 172 127
31 231 650
32 966 485
33 964 107
34 949 328
35 936 70
36 229 744
37 161 214
38 581 594
39 154 860
40 23 374
41 736 600
42 594 542
43 846 684
44 355 471
45 675 597
46 663 653
47 61 889
48 685 150
49 129 248
50 161 301
51 180 836
52 427 670
53 833 860
54 669 251
55 450 926
56 591 505
57 468 157
58 288 484
59 574 955
60 41 65
61 175 486
62 907 13
63 579 912
64 765 835
65 176 189
66 972 351
67 470 22
68 577 469
69 561 672
70 110 670
71 811 614
72 460 344
73 22 369
74 898 295
75 89 934
76 89 973
77 896 544
78 765 469
79 481 321
80 827 627
81 541 599
82 111 694
83 884 324
84 555 436
85 186 502
86 442 319
87 823 255
88 367 339
89 572 872
90 715 620
91 134 794
92 85 912
93 191 561
94 79 911
95 924 508
96 132 871
97 962 682
98 170 677
99 847 462
100 732 383
101 904 368
102 980 376
103 281 669
104 84 809
105 114 715
106 83 648
107 45 944
108 84 965
109 779 427
110 854 305
111 518 500
112 216 721
113 597 643
114 859 298
115 954 764
116 339 814
117 142 552
118 400 366
119 21 341
120 67 772
121 897 552
122 189 530
123 92 325
124 877 475
125 1 416
126 712 100
127 869 270
128 100 342
DEMAND_SECTION
2 10
3 4
4 7
5 4
6 8
7 1
8 4
9 1
10 5
11 5
12 1
13 4
14 4
15 4
16 2
17 5
18 3
19 10
20 1
21 2
22 9
23 5
24 5
25 2
26 1
27 7
28 10
29 5
30 10
COVERAGE_SECTION
2 11 57 6 67 26 29 86 79 88 72 30 65 
3 6 109 99 78 18 100 124 
4 11 13 106 70 82 17 105 120 98 104 117 91 
5 11 20 103 52 31 16 9 58 44 93 112 122 
6 11 2 67 26 57 30 65 29 37 12 86 88 
7 11 104 96 91 39 47 120 92 94 51 75 107 
8 11 55 59 63 116 89 21 15 27 51 39 96 
9 11 112 36 103 31 16 98 27 105 82 91 5 
10 11 49 12 37 65 25 50 123 128 30 119 73 
11 11 53 64 115 15 43 97 63 59 80 89 19 
12 11 37 10 49 65 30 50 25 123 128 26 60 
13 11 4 106 17 70 82 105 120 117 98 104 93 
14 8 35 62 33 127 87 74 126 114 
15 11 63 89 59 64 55 53 69 8 46 24 113 
16 11 31 98 9 103 112 93 36 70 17 82 105 
17 11 106 70 82 117 98 13 105 93 4 16 122 
18 10 101 99 3 83 124 34 110 102 66 114 
19 5 80 71 121 77 43 
20 10 5 52 44 81 111 103 58 22 38 69 
21 11 51 27 39 116 96 36 91 7 112 92 75 
22 8 111 56 68 42 84 38 81 113 
23 10 54 28 48 100 87 126 110 114 127 109 
24 11 46 45 90 113 41 38 69 42 81 71 80 
25 11 10 12 60 49 37 65 30 123 119 128 50 
26 11 30 65 6 37 12 2 49 10 29 50 60 
27 11 36 116 21 9 51 112 39 91 103 96 31 
28 9 100 23 54 84 109 68 78 56 3 
29 5 88 118 86 72 79 
30 11 65 26 12 37 10 49 60 25 50 6 123 
31 11 16 103 9 98 112 36 93 5 70 17 122 
32 8 95 124 77 121 102 18 99 101 
33 8 35 14 62 127 74 87 114 34 
34 9 66 102 101 74 83 114 18 110 127 
35 8 33 62 14 127 87 126 74 114 
36 11 112 9 27 98 103 16 31 51 91 105 82 
37 11 65 12 49 10 50 30 123 26 25 128 119 
38 11 81 113 42 69 56 22 45 46 24 111 68 
39 11 96 51 7 91 92 104 94 21 47 75 120 
40 10 73 119 125 128 123 50 10 49 61 25 
41 6 90 45 71 24 46 80 
42 10 56 22 38 68 81 111 45 113 84 24 
43 9 80 71 19 97 115 41 121 90 77 
44 6 58 118 20 88 5 72 
45 10 90 24 46 41 113 38 42 56 81 69 
46 11 24 45 90 113 41 38 69 42 81 71 56 
47 11 94 92 75 107 7 96 108 104 76 39 120 
48 9 126 54 23 87 28 57 127 114 110 
49 11 10 12 37 50 65 123 128 25 30 119 73 
50 10 49 123 128 37 10 12 65 119 73 40 
51 11 39 96 91 21 7 27 104 36 112 92 94 
52 11 20 5 69 81 103 116 38 113 9 111 31 
53 11 64 11 115 43 15 97 80 71 19 63 89 
54 10 23 48 28 100 87 126 110 114 79 127 
55 11 8 59 63 89 116 15 21 27 52 69 51 
56 9 42 22 68 111 84 38 81 45 113 
57 9 2 67 6 86 79 29 72 88 48 
58 9 44 85 122 61 93 5 20 117 118 
59 11 63 89 15 55 8 64 116 53 69 113 46 
60 11 25 30 12 10 65 37 49 26 50 123 119 
61 10 85 122 117 93 58 17 128 16 31 44 
62 8 35 14 33 126 87 127 48 74 
63 11 89 59 15 55 8 64 69 53 116 113 46 
64 11 53 15 11 43 89 63 115 46 24 80 90 
65 11 37 12 30 49 10 26 50 25 123 128 60 
66 10 102 34 101 83 74 18 114 110 127 32 
67 11 6 2 57 26 48 126 29 86 79 54 23 
68 7 56 84 22 111 42 38 81 
69 11 113 81 38 46 24 42 52 45 90 22 56 
70 11 82 106 105 17 98 13 4 16 120 112 117 
71 6 80 19 41 43 90 121 
72 5 79 86 118 88 29 
73 10 40 119 125 123 128 50 10 49 25 61 
74 9 83 127 114 110 34 101 87 66 18 
75 11 92 94 108 76 107 47 96 7 39 104 51 
76 11 108 75 107 92 94 47 96 39 7 51 104 
77 6 121 95 19 124 32 99 
78 4 109 3 99 100 
79 6 72 86 118 88 29 84 
80 7 71 19 43 41 121 77 90 
81 11 38 113 69 42 22 111 56 20 46 45 52 
82 11 105 70 106 98 17 120 13 91 4 112 16 
83 9 74 110 114 101 127 34 18 66 87 
84 7 68 22 111 56 42 28 72 
85 10 61 122 93 117 58 17 16 31 44 98 
86 5 72 79 118 88 29 
87 8 127 114 110 74 83 101 23 34 
88 6 118 29 86 72 79 44 
89 11 63 15 59 55 64 69 8 113 46 116 24 
90 8 41 45 24 46 71 80 113 38 
91 11 104 7 51 39 120 96 105 82 36 112 47 
92 11 94 75 47 107 108 76 96 7 39 104 51 
93 11 122 117 85 61 16 31 17 98 58 70 106 
94 11 92 75 47 107 108 76 96 7 39 104 51 
95 6 77 32 121 124 99 19 
96 11 39 7 51 92 94 47 75 91 104 108 76 
97 9 115 43 19 121 80 77 71 95 32 
98 11 16 70 82 112 31 105 9 17 36 106 103 
99 4 124 3 18 109 
100 8 109 28 3 78 23 99 110 54 
101 11 18 83 34 66 74 102 110 114 127 3 99 
102 11 66 34 101 18 83 32 74 95 124 114 110 
103 11 31 9 16 5 112 36 98 27 93 52 20 
104 11 7 120 91 96 47 39 105 51 94 92 82 
105 11 82 70 98 106 120 91 17 104 112 4 13 
106 11 70 17 82 13 4 105 98 117 120 16 93 
107 11 108 75 94 92 76 47 96 7 39 104 51 
108 11 76 75 107 92 94 47 96 39 7 104 51 
109 4 3 78 100 99 
110 9 114 83 127 74 87 101 18 34 3 
111 8 22 68 56 84 42 81 38 20 
112 11 36 9 98 16 31 103 27 105 82 91 70 
113 11 69 38 46 81 24 45 42 90 56 22 41 
114 9 110 127 83 74 87 101 34 18 66 
115 10 97 43 53 19 80 11 64 71 121 77 
116 11 27 21 36 9 112 103 55 51 52 39 31 
117 10 93 122 85 61 17 106 16 70 98 31 
118 5 88 86 72 29 79 
119 10 73 40 123 125 128 10 49 50 25 12 
120 11 104 7 91 105 82 70 47 96 4 39 106 
121 5 77 95 19 124 32 
122 10 85 93 61 117 58 17 16 31 98 106 
123 10 128 50 119 73 40 49 10 12 125 37 
124 5 99 95 77 18 121 
125 10 40 73 119 128 123 61 117 50 85 10 
126 9 48 54 23 87 62 35 127 114 110 
127 8 114 74 110 87 83 34 101 18 
128 10 123 50 119 40 73 49 10 125 12 37 
DEPOT_SECTION
   1
   -1
EOF
