NAME :  X-n139-kX-w13-c7.cctp
COMMENT : 	Adapted by Maziero, Usberti and Cavellucci from the Uchoa, Pecin, Pessoa, Poggi, Subramanian, and Vidal (2013)
TYPE :  CCTP
DIMENSION :    75
EDGE_WEIGHT_TYPE : 	EUC_2D	
CAPACITY : 	106
VERTICES_WITHIN_COVERAGE :  7
VERTICES_WITH_DEMAND : 	13
NODE_COORD_SECTION
1 500 500
2 645 7
3 720 867
4 513 499
5 208 766
6 976 884
7 991 864
8 596 532
9 765 632
10 270 818
11 223 552
12 871 193
13 825 816
14 128 518
15 802 281
16 786 635
17 976 204
18 563 43
19 870 774
20 566 113
21 295 969
22 229 790
23 241 830
24 635 626
25 597 538
26 86 516
27 187 417
28 630 975
29 934 263
30 88 855
31 768 582
32 916 277
33 771 700
34 934 7
35 869 723
36 788 896
37 100 591
38 746 587
39 859 990
40 493 63
41 496 458
42 728 641
43 174 440
44 887 589
45 931 743
46 234 663
47 832 704
48 857 776
49 744 105
50 122 949
51 270 596
52 790 753
53 152 585
54 87 413
55 638 532
56 326 566
57 847 833
58 576 429
59 141 976
60 946 889
61 100 526
62 503 496
63 684 811
64 794 190
65 177 924
66 300 515
67 275 468
68 343 995
69 889 853
70 760 141
71 763 785
72 889 11
73 813 135
74 820 999
75 5 787
DEMAND_SECTION
2 10
3 10
4 5
5 9
6 8
7 5
8 5
9 8
10 6
11 8
12 10
13 9
14 9
COVERAGE_SECTION
2 5 18 20 49 40 70 
3 7 63 36 71 13 57 52 28 
4 6 62 41 8 25 58 55 
5 7 22 23 10 46 30 65 51 
6 7 7 60 69 57 45 19 39 
7 7 6 60 69 45 57 19 48 
8 7 25 55 4 62 24 58 41 
9 7 16 42 38 31 33 47 52 
10 6 23 22 5 65 21 46 
11 6 51 53 66 67 14 56 
12 7 64 73 29 32 17 15 70 
13 7 57 48 19 71 52 69 36 
14 7 61 26 53 37 43 11 54 
15 2 64 12 
16 7 9 31 42 38 33 47 44 
17 6 29 32 12 73 64 15 
18 4 20 40 2 49 
19 7 48 35 13 57 45 47 69 
20 3 18 40 2 
21 6 68 65 23 10 59 50 
22 7 5 23 10 46 65 30 21 
23 7 10 22 5 65 21 30 46 
24 4 42 55 25 8 
25 7 8 55 4 24 62 58 41 
26 6 61 14 37 53 54 43 
27 4 43 54 67 14 
28 4 3 63 36 74 
29 5 32 17 12 15 64 
30 7 50 75 65 59 5 22 23 
31 7 38 9 16 42 33 44 47 
32 4 29 17 12 15 
33 7 52 47 16 9 42 71 35 
34 7 72 73 12 17 49 70 64 
35 7 47 19 48 45 52 33 13 
36 7 3 57 13 74 69 71 39 
37 4 53 61 26 14 
38 7 31 9 42 16 33 24 55 
39 7 74 36 60 69 57 6 13 
40 3 18 20 2 
41 4 62 4 58 8 
42 7 9 38 16 31 33 24 47 
43 5 27 14 54 67 61 
44 5 16 31 47 9 35 
45 7 35 19 48 47 69 57 13 
46 6 51 5 11 53 22 56 
47 7 35 33 52 48 19 16 9 
48 7 19 13 35 57 52 47 45 
49 5 70 73 64 2 12 
50 7 59 65 30 23 21 22 10 
51 5 11 56 46 66 53 
52 7 71 33 47 48 13 19 35 
53 6 37 14 11 61 26 46 
54 5 43 27 26 14 61 
55 7 25 8 24 58 38 4 31 
56 4 66 51 11 67 
57 7 13 69 48 19 36 71 52 
58 5 41 4 62 8 25 
59 7 50 65 30 21 23 68 10 
60 7 6 7 69 57 39 19 13 
61 6 26 14 37 53 43 54 
62 5 4 41 58 8 25 
63 5 3 71 52 36 13 
64 4 73 70 12 15 
65 7 50 59 30 23 21 10 22 
66 4 67 56 11 51 
67 3 66 11 27 
68 3 21 65 10 
69 7 57 60 13 19 48 6 7 
70 4 49 73 64 12 
71 7 52 13 63 33 3 48 57 
72 6 34 73 49 12 70 64 
73 5 70 64 49 12 72 
74 7 39 36 69 3 60 57 13 
75 3 30 50 5 
DEPOT_SECTION
   1
   -1
EOF
