NAME :  X-n167-kX-w66-c11.cctp
COMMENT : 	Adapted by Maziero, Usberti and Cavellucci from the Uchoa, Pecin, Pessoa, Poggi, Subramanian, and Vidal (2013)
TYPE :  CCTP
DIMENSION :    167
EDGE_WEIGHT_TYPE : 	EUC_2D	
CAPACITY : 	133
VERTICES_WITHIN_COVERAGE :  11
VERTICES_WITH_DEMAND : 	66
NODE_COORD_SECTION
1 0 0
2 832 885
3 777 632
4 406 257
5 620 467
6 58 70
7 116 423
8 104 445
9 714 722
10 188 503
11 856 594
12 932 448
13 749 982
14 818 889
15 377 493
16 337 419
17 772 605
18 373 448
19 519 112
20 849 274
21 533 839
22 610 417
23 69 583
24 573 195
25 988 324
26 110 550
27 271 676
28 694 130
29 791 590
30 785 614
31 321 305
32 974 292
33 804 556
34 372 893
35 867 23
36 252 660
37 588 34
38 939 685
39 511 524
40 948 479
41 912 227
42 380 807
43 309 141
44 558 759
45 241 225
46 920 87
47 269 351
48 156 776
49 251 512
50 608 874
51 853 269
52 897 572
53 316 461
54 825 529
55 474 152
56 510 453
57 15 838
58 778 928
59 1 896
60 804 492
61 630 294
62 2 966
63 254 539
64 167 28
65 646 879
66 863 49
67 508 759
68 64 165
69 249 525
70 49 605
71 990 375
72 539 272
73 833 561
74 84 571
75 378 847
76 713 485
77 489 204
78 815 905
79 307 774
80 286 204
81 517 61
82 918 74
83 864 397
84 35 597
85 918 632
86 395 570
87 87 97
88 318 94
89 893 805
90 82 392
91 471 899
92 567 895
93 349 360
94 138 560
95 459 962
96 795 461
97 398 467
98 553 606
99 952 89
100 92 22
101 853 188
102 643 80
103 801 227
104 127 74
105 727 975
106 552 48
107 311 959
108 647 876
109 742 168
110 755 589
111 741 8
112 975 954
113 820 502
114 552 300
115 802 744
116 515 599
117 585 600
118 573 793
119 159 669
120 248 369
121 868 476
122 275 194
123 930 933
124 233 587
125 198 35
126 444 648
127 184 822
128 107 840
129 312 573
130 694 813
131 446 264
132 586 483
133 648 274
134 967 362
135 194 330
136 963 135
137 846 717
138 32 487
139 358 728
140 608 182
141 250 367
142 989 392
143 820 307
144 473 274
145 408 84
146 762 800
147 917 560
148 586 830
149 571 616
150 606 445
151 939 116
152 551 528
153 191 102
154 605 583
155 627 249
156 53 819
157 427 571
158 168 479
159 679 371
160 354 415
161 638 444
162 535 918
163 243 535
164 796 796
165 886 32
166 272 699
167 421 935
DEMAND_SECTION
2 6
3 9
4 7
5 5
6 9
7 5
8 9
9 7
10 10
11 8
12 6
13 5
14 9
15 8
16 9
17 10
18 5
19 7
20 8
21 5
22 9
23 9
24 7
25 5
26 7
27 8
28 5
29 10
30 9
31 9
32 9
33 9
34 7
35 9
36 5
37 10
38 6
39 9
40 9
41 5
42 6
43 10
44 6
45 6
46 8
47 6
48 6
49 10
50 9
51 7
52 8
53 6
54 6
55 6
56 8
57 5
58 10
59 6
60 9
61 9
62 9
63 7
64 9
65 6
66 7
67 5
COVERAGE_SECTION
2 11 14 78 58 164 89 123 146 13 105 115 130 
3 11 30 17 29 110 33 11 73 137 9 54 115 
4 11 131 144 31 77 93 55 80 72 122 43 114 
5 11 150 161 132 22 152 76 56 159 154 39 117 
6 11 87 100 104 68 64 153 125 45 122 43 88 
7 11 8 90 158 138 10 135 26 94 120 141 74 
8 11 7 90 158 138 10 26 94 74 23 135 49 
9 11 115 146 130 3 164 30 17 137 110 29 118 
10 11 158 49 163 69 63 94 26 124 8 7 74 
11 11 73 52 33 29 147 54 85 30 17 3 113 
12 11 40 121 142 83 71 134 147 113 52 54 60 
13 11 105 58 78 14 2 65 108 50 130 146 123 
14 11 2 78 58 164 146 89 13 123 105 130 115 
15 11 97 18 53 86 160 16 157 129 49 63 69 
16 11 160 18 53 93 97 15 47 141 120 31 49 
17 11 30 110 29 3 33 73 11 54 113 60 52 
18 11 97 160 15 16 53 93 86 157 56 49 129 
19 11 81 55 106 77 24 37 140 145 102 72 144 
20 11 51 143 103 41 101 83 32 134 25 109 71 
21 11 148 118 92 162 50 44 67 91 65 108 95 
22 11 150 161 5 132 159 56 76 61 152 114 39 
23 11 74 70 84 26 94 138 119 8 10 158 124 
24 11 140 155 72 77 19 114 55 133 61 144 102 
25 11 32 134 71 142 41 12 83 51 20 40 143 
26 11 94 74 23 70 84 10 158 138 8 7 124 
27 11 166 36 124 139 79 129 119 63 163 48 69 
28 11 109 102 140 111 24 155 37 103 133 106 101 
29 11 17 30 33 110 3 73 11 54 113 60 52 
30 11 17 3 29 110 33 73 11 54 113 52 137 
31 11 93 47 141 120 4 80 45 16 160 122 135 
32 11 25 134 71 41 142 51 20 83 143 136 101 
33 11 73 54 29 113 17 110 30 11 60 3 52 
34 11 75 167 42 107 91 95 79 162 139 21 67 
35 11 165 66 82 46 99 151 111 136 101 109 28 
36 11 27 166 124 119 129 63 163 139 79 69 49 
37 11 106 102 81 19 28 140 111 24 55 145 77 
38 11 85 137 52 11 147 89 115 73 3 30 29 
39 11 152 56 116 132 98 157 117 149 154 5 150 
40 11 12 121 147 142 52 71 83 134 113 54 73 
41 11 101 51 20 32 136 103 151 143 25 46 99 
42 11 75 79 139 34 91 167 67 166 21 107 27 
43 11 88 122 80 45 145 153 4 125 31 55 64 
44 11 118 67 148 21 50 92 149 130 108 65 98 
45 11 122 80 43 31 135 47 153 141 120 88 4 
46 11 82 99 151 136 165 66 35 101 41 103 51 
47 11 141 120 31 135 93 16 160 53 45 18 80 
48 11 127 128 119 156 166 36 79 27 57 59 70 
49 11 69 163 63 10 124 53 129 158 94 15 16 
50 11 65 108 92 148 21 162 118 130 44 91 67 
51 11 20 143 103 41 101 32 83 25 134 109 71 
52 11 147 11 85 73 54 33 121 113 40 29 30 
53 11 16 18 160 15 97 49 69 63 163 93 129 
54 11 113 73 33 60 121 29 11 96 52 110 17 
55 11 77 19 145 81 24 131 144 4 106 72 140 
56 11 39 132 152 150 22 5 97 161 18 15 157 
57 11 156 59 128 62 48 127 119 70 84 23 74 
58 11 78 14 13 2 105 146 164 65 108 130 123 
59 11 57 62 156 128 48 127 119 70 84 107 23 
60 11 113 96 54 33 121 73 76 29 110 83 11 
61 11 133 155 114 159 72 24 140 22 161 150 144 
62 11 59 57 156 128 127 48 107 119 79 70 84 
63 11 163 69 49 124 129 10 53 158 94 36 15 
64 11 125 104 100 153 87 6 88 68 43 122 45 
65 11 108 50 148 92 130 118 162 21 105 146 58 
66 11 35 165 82 46 99 151 111 136 101 109 41 
67 11 44 118 21 148 126 42 91 92 50 139 149 
68 11 87 6 104 153 100 64 45 125 135 122 80 
69 11 163 49 63 124 10 129 53 158 94 15 36 
70 11 84 23 74 26 94 138 119 8 10 158 124 
71 11 142 134 25 32 12 40 83 121 41 20 51 
72 11 114 144 24 77 155 131 61 133 140 4 55 
73 11 33 54 11 29 113 52 30 17 60 110 147 
74 11 23 26 70 84 94 138 119 10 158 8 124 
75 11 42 34 167 79 91 139 107 95 21 67 162 
76 11 96 161 60 5 113 110 150 33 159 54 22 
77 11 55 144 131 24 72 19 4 114 140 145 155 
78 11 14 2 58 13 164 105 123 146 89 130 115 
79 11 139 42 166 75 27 36 127 34 48 119 107 
80 11 122 45 43 31 88 4 153 47 135 141 93 
81 11 106 19 37 55 145 102 24 77 140 28 88 
82 11 46 99 151 165 66 35 136 101 41 111 103 
83 11 121 12 96 143 134 60 113 40 20 142 51 
84 11 70 23 74 26 94 138 119 8 158 10 7 
85 11 38 52 147 11 73 137 29 30 33 54 3 
86 11 157 15 129 126 97 116 18 39 53 63 69 
87 11 6 104 68 100 153 64 125 45 122 43 80 
88 11 43 145 122 80 153 125 45 64 55 4 104 
89 11 164 137 2 115 14 78 38 146 123 58 112 
90 11 7 8 138 158 135 10 26 120 141 94 74 
91 11 167 95 162 21 92 34 75 42 148 50 67 
92 11 162 50 21 148 65 108 91 118 95 44 67 
93 11 160 16 31 47 18 141 120 53 4 97 15 
94 11 26 74 23 10 158 124 70 163 84 119 69 
95 11 167 91 162 34 92 75 21 107 50 42 148 
96 11 60 113 54 121 76 83 33 73 29 110 12 
97 11 18 15 160 16 53 86 157 56 93 39 129 
98 11 149 117 116 154 152 39 126 132 157 44 5 
99 11 151 46 82 136 165 66 35 101 41 32 51 
100 11 6 104 64 87 125 153 68 88 43 122 45 
101 11 103 41 51 20 151 109 46 136 143 82 66 
102 11 28 37 106 140 111 81 19 109 24 155 55 
103 11 101 20 51 143 109 41 28 133 155 151 83 
104 11 87 64 100 6 153 125 68 45 122 88 43 
105 11 13 58 78 14 65 108 2 50 130 146 92 
106 11 81 37 19 102 55 140 24 145 28 77 111 
107 11 34 167 75 95 42 91 79 127 162 128 139 
108 11 65 50 148 130 92 118 21 162 105 146 58 
109 11 28 103 101 102 140 155 133 51 20 143 111 
110 11 17 29 30 3 33 73 54 11 60 113 76 
111 11 102 35 66 28 165 37 109 82 106 46 101 
112 11 123 2 78 14 89 58 13 164 105 146 137 
113 11 60 54 96 121 33 73 29 11 52 76 110 
114 11 72 61 144 155 133 24 131 77 22 140 159 
115 11 137 164 146 9 89 3 130 30 17 2 14 
116 11 98 149 117 39 152 126 154 157 86 132 56 
117 11 149 154 98 116 152 39 132 5 126 150 44 
118 11 44 148 21 67 50 92 108 65 130 162 91 
119 11 36 48 124 94 27 166 74 23 70 26 84 
120 11 141 47 135 31 93 16 53 160 158 7 49 
121 11 113 60 54 12 96 83 40 73 147 52 33 
122 11 80 45 43 88 31 153 4 47 135 145 141 
123 11 112 2 78 14 89 58 13 164 105 146 115 
124 11 63 163 69 36 49 129 10 27 94 119 166 
125 11 64 153 104 100 87 88 6 43 122 68 80 
126 11 157 116 86 98 139 67 149 39 117 129 44 
127 11 48 128 156 79 166 119 27 57 36 107 75 
128 11 156 127 48 57 59 62 119 79 166 36 27 
129 11 63 69 163 124 86 49 15 36 27 53 157 
130 11 146 108 65 9 164 50 148 118 115 58 14 
131 11 144 4 77 72 114 55 31 93 24 19 80 
132 11 5 150 152 161 22 56 39 154 117 76 98 
133 11 61 155 114 140 159 24 72 109 22 28 103 
134 11 71 142 25 32 12 83 40 41 20 51 121 
135 11 120 141 47 45 7 90 31 8 158 80 93 
136 11 151 99 46 82 41 101 165 66 35 32 51 
137 11 115 164 38 89 3 85 146 30 11 9 17 
138 11 8 74 26 23 7 90 84 70 94 158 10 
139 11 79 42 166 27 126 75 36 67 86 129 34 
140 11 24 155 28 133 102 19 72 61 77 114 109 
141 11 120 47 135 31 93 16 53 160 158 45 7 
142 11 71 134 25 12 40 32 83 121 41 20 51 
143 11 20 51 103 83 41 101 32 159 96 134 109 
144 11 131 72 4 77 114 55 24 93 31 155 61 
145 11 88 55 81 19 43 77 106 80 4 122 131 
146 11 164 115 130 9 14 2 78 137 58 89 108 
147 11 52 11 85 73 40 54 121 12 33 113 38 
148 11 118 50 21 92 44 108 65 162 67 130 91 
149 11 98 117 154 116 152 39 126 132 44 157 67 
150 11 5 22 161 132 56 152 159 76 39 154 61 
151 11 99 136 46 82 165 66 101 41 35 51 103 
152 11 39 132 154 98 116 117 56 149 5 150 161 
153 11 125 104 64 87 43 122 88 100 45 6 80 
154 11 117 149 98 152 116 132 39 5 150 161 76 
155 11 133 61 140 24 72 114 159 28 109 77 144 
156 11 57 128 59 48 127 62 119 70 84 23 74 
157 11 86 126 116 15 39 97 129 98 152 18 56 
158 11 10 8 7 94 49 26 69 163 63 90 74 
159 11 22 161 61 133 150 5 76 155 114 132 96 
160 11 16 18 93 53 97 15 47 31 141 120 49 
161 11 5 150 22 132 159 76 152 56 154 39 61 
162 11 92 91 21 50 95 148 167 65 108 118 44 
163 11 63 69 49 124 10 129 158 53 94 36 26 
164 11 146 115 137 2 14 89 130 9 78 58 3 
165 11 35 66 82 46 99 151 136 111 101 41 109 
166 11 27 36 79 139 119 124 129 48 127 42 63 
167 11 95 91 34 75 107 162 42 21 92 67 148 
DEPOT_SECTION
   1
   -1
EOF
