NAME :  X-n162-kX-w32-c7.cctp
COMMENT : 	Adapted by Maziero, Usberti and Cavellucci from the Uchoa, Pecin, Pessoa, Poggi, Subramanian, and Vidal (2013)
TYPE :  CCTP
DIMENSION :    113
EDGE_WEIGHT_TYPE : 	EUC_2D	
CAPACITY : 	1174
VERTICES_WITHIN_COVERAGE :  7
VERTICES_WITH_DEMAND : 	32
NODE_COORD_SECTION
1 500 500
2 300 71
3 434 4
4 257 798
5 718 17
6 879 206
7 929 330
8 353 793
9 389 540
10 202 55
11 417 253
12 921 572
13 94 788
14 870 327
15 281 124
16 411 288
17 882 116
18 307 240
19 359 935
20 352 858
21 502 776
22 269 33
23 440 814
24 850 461
25 909 404
26 339 458
27 767 535
28 86 47
29 758 532
30 426 282
31 534 10
32 826 830
33 911 79
34 270 791
35 391 794
36 908 787
37 929 858
38 938 281
39 941 579
40 579 68
41 323 570
42 238 700
43 329 805
44 651 486
45 291 631
46 286 481
47 855 547
48 972 378
49 205 741
50 528 672
51 664 605
52 462 532
53 340 54
54 936 46
55 864 654
56 501 495
57 339 10
58 324 595
59 585 893
60 244 926
61 190 659
62 525 878
63 832 622
64 36 578
65 897 292
66 492 426
67 958 546
68 312 781
69 320 557
70 226 264
71 446 702
72 470 746
73 439 15
74 148 352
75 693 626
76 703 31
77 294 172
78 710 588
79 248 178
80 265 408
81 808 699
82 867 883
83 725 58
84 401 225
85 824 878
86 336 115
87 428 19
88 624 46
89 6 539
90 513 262
91 112 114
92 478 46
93 440 219
94 780 270
95 403 32
96 403 386
97 968 26
98 339 122
99 413 22
100 459 198
101 361 229
102 726 749
103 480 250
104 427 197
105 731 579
106 421 23
107 315 178
108 676 530
109 729 107
110 668 471
111 542 296
112 607 43
113 223 283
DEMAND_SECTION
2 60
3 88
4 74
5 56
6 95
7 95
8 83
9 94
10 93
11 79
12 61
13 83
14 68
15 86
16 96
17 75
18 67
19 74
20 92
21 71
22 92
23 74
24 82
25 88
26 95
27 69
28 100
29 91
30 83
31 78
32 63
33 88
COVERAGE_SECTION
2 6 53 22 15 86 98 57 
3 6 73 87 106 99 95 92 
4 7 34 68 43 49 8 42 20 
5 5 76 83 109 88 112 
6 7 65 17 38 94 14 33 7 
7 7 38 65 14 48 25 6 24 
8 7 43 35 68 20 34 23 4 
9 7 69 41 52 58 26 46 56 
10 7 22 2 15 91 28 79 53 
11 7 30 84 16 93 104 101 103 
12 6 39 67 47 55 63 24 
13 6 49 61 4 42 34 60 
14 7 65 7 38 25 94 48 6 
15 6 77 2 86 98 79 107 
16 7 30 11 84 93 101 103 104 
17 5 33 54 6 97 109 
18 6 101 107 77 70 79 113 
19 7 20 60 43 8 35 23 68 
20 7 43 8 35 19 68 23 34 
21 6 72 23 71 62 50 35 
22 6 2 10 53 57 15 86 
23 7 35 21 72 8 20 62 43 
24 7 25 47 27 29 12 14 67 
25 7 48 7 24 14 65 38 67 
26 7 46 80 9 96 69 41 58 
27 7 29 105 78 47 108 63 24 
28 7 91 10 22 79 15 2 77 
29 7 27 105 78 108 47 110 75 
30 7 16 11 84 103 93 101 104 
31 7 92 40 112 73 88 3 87 
32 4 85 82 36 37 
33 5 54 17 97 6 109 
34 7 4 68 43 49 8 42 20 
35 7 8 23 43 20 68 72 71 
36 6 37 32 82 85 81 55 
37 4 82 36 32 85 
38 7 65 7 14 6 48 25 94 
39 6 12 67 47 55 63 24 
40 4 112 88 31 92 
41 6 69 58 45 9 46 26 
42 6 49 61 45 34 4 68 
43 7 8 68 20 34 35 4 23 
44 5 110 108 29 78 51 
45 6 58 41 69 42 61 9 
46 7 26 80 69 41 9 58 45 
47 7 12 63 24 27 39 29 67 
48 7 7 25 38 14 65 24 67 
49 6 42 4 34 61 68 13 
50 5 71 72 21 51 52 
51 6 75 78 105 108 29 44 
52 6 56 9 66 26 41 69 
53 4 2 57 86 95 
54 6 97 33 17 6 83 109 
55 6 63 81 12 39 47 36 
56 6 52 66 9 96 44 26 
57 6 53 95 2 22 99 106 
58 6 41 69 45 9 46 42 
59 3 62 21 23 
60 7 19 20 4 34 43 68 8 
61 6 42 49 45 58 4 34 
62 5 59 21 23 72 35 
63 6 55 47 81 12 27 105 
64 5 89 61 13 49 42 
65 7 38 14 7 6 25 48 94 
66 5 56 96 52 111 9 
67 7 39 12 47 24 55 63 25 
68 7 43 8 34 4 35 20 42 
69 6 41 58 9 45 46 26 
70 6 113 18 79 77 74 107 
71 7 72 50 21 35 23 8 43 
72 7 21 71 23 35 50 8 62 
73 6 3 87 106 99 95 92 
74 5 113 70 80 46 18 
75 5 51 78 105 108 29 
76 5 5 83 88 109 112 
77 6 107 79 15 98 18 86 
78 6 105 75 51 108 29 27 
79 6 77 15 107 18 70 98 
80 7 46 26 74 113 96 70 69 
81 4 55 63 102 32 
82 3 85 32 37 
83 4 76 5 109 88 
84 6 11 104 93 101 30 16 
85 2 82 32 
86 3 98 15 2 
87 5 106 73 99 3 95 
88 5 112 40 76 31 5 
89 4 64 61 74 13 
90 6 103 111 100 93 30 11 
91 6 28 10 79 15 22 70 
92 6 73 87 3 106 31 99 
93 7 104 100 84 11 103 30 16 
94 1 14 
95 5 99 106 87 73 3 
96 7 26 16 66 30 11 80 56 
97 6 54 33 17 6 83 5 
98 2 86 15 
99 5 106 95 87 73 3 
100 6 93 104 103 84 11 90 
101 5 84 18 11 107 104 
102 3 81 75 32 
103 7 90 93 100 11 30 104 111 
104 6 93 100 84 11 101 103 
105 7 78 29 27 75 51 108 63 
106 5 87 99 73 95 3 
107 5 77 98 18 15 86 
108 7 44 110 78 105 51 29 27 
109 3 83 76 5 
110 4 44 108 29 27 
111 4 90 103 30 93 
112 5 88 40 31 76 5 
113 6 70 18 74 79 77 80 
DEPOT_SECTION
   1
   -1
EOF
