NAME :  X-n186-kX-w74-c7.cctp
COMMENT : 	Adapted by Maziero, Usberti and Cavellucci from the Uchoa, Pecin, Pessoa, Poggi, Subramanian, and Vidal (2013)
TYPE :  CCTP
DIMENSION :    183
EDGE_WEIGHT_TYPE : 	EUC_2D	
CAPACITY : 	974
VERTICES_WITHIN_COVERAGE :  7
VERTICES_WITH_DEMAND : 	74
NODE_COORD_SECTION
1 159 917
2 635 200
3 278 907
4 875 93
5 10 732
6 586 657
7 482 75
8 526 176
9 153 622
10 452 945
11 456 137
12 884 968
13 688 793
14 117 915
15 149 746
16 495 325
17 539 967
18 917 58
19 590 316
20 611 998
21 963 878
22 141 5
23 383 531
24 685 124
25 39 781
26 534 29
27 213 837
28 874 734
29 180 943
30 789 541
31 343 949
32 537 248
33 626 147
34 56 596
35 112 344
36 738 977
37 941 193
38 437 386
39 440 770
40 743 623
41 521 398
42 488 747
43 321 734
44 521 778
45 90 89
46 716 652
47 333 12
48 244 424
49 199 115
50 83 719
51 126 148
52 789 437
53 728 336
54 504 704
55 933 949
56 232 78
57 382 130
58 346 2
59 61 985
60 357 505
61 199 892
62 930 154
63 400 95
64 148 261
65 41 527
66 29 335
67 913 885
68 293 784
69 102 962
70 372 866
71 144 223
72 684 899
73 402 636
74 138 705
75 715 745
76 914 323
77 287 3
78 461 953
79 826 351
80 780 165
81 935 38
82 927 350
83 754 709
84 784 423
85 849 726
86 74 778
87 354 750
88 628 487
89 362 568
90 898 759
91 563 171
92 721 637
93 136 83
94 341 955
95 892 938
96 671 542
97 659 306
98 805 670
99 930 778
100 791 763
101 747 285
102 641 347
103 846 685
104 598 253
105 45 585
106 654 70
107 887 421
108 310 854
109 527 787
110 602 66
111 878 10
112 351 797
113 995 987
114 697 200
115 847 208
116 577 295
117 102 478
118 899 185
119 123 601
120 230 342
121 438 547
122 968 649
123 214 379
124 242 769
125 273 194
126 66 727
127 354 338
128 725 735
129 632 849
130 411 272
131 481 165
132 121 414
133 492 78
134 794 406
135 736 937
136 701 496
137 282 94
138 87 12
139 963 619
140 61 688
141 387 244
142 740 242
143 209 571
144 631 208
145 643 521
146 280 11
147 226 40
148 161 296
149 839 54
150 814 504
151 967 668
152 236 704
153 218 618
154 526 667
155 87 981
156 976 122
157 177 712
158 449 902
159 492 63
160 761 122
161 609 621
162 614 240
163 478 599
164 175 312
165 239 636
166 347 199
167 619 620
168 275 24
169 565 769
170 120 871
171 140 957
172 68 736
173 661 294
174 604 737
175 91 956
176 16 561
177 173 171
178 852 978
179 533 757
180 352 957
181 409 939
182 630 902
183 487 220
DEMAND_SECTION
2 74
3 74
4 80
5 85
6 99
7 81
8 85
9 100
10 74
11 57
12 60
13 74
14 60
15 77
16 72
17 87
18 89
19 53
20 72
21 62
22 53
23 54
24 98
25 65
26 72
27 81
28 84
29 64
30 52
31 60
32 95
33 55
34 79
35 97
36 51
37 93
38 50
39 93
40 95
41 90
42 95
43 71
44 89
45 77
46 81
47 74
48 53
49 79
50 58
51 61
52 97
53 93
54 95
55 80
56 72
57 92
58 88
59 90
60 85
61 83
62 83
63 59
64 75
65 80
66 55
67 66
68 99
69 89
70 53
71 64
72 85
73 52
74 60
75 63
COVERAGE_SECTION
2 6 144 162 33 114 104 91 
3 7 108 31 94 61 180 27 70 
4 7 149 18 81 62 111 118 156 
5 7 126 25 172 140 50 86 74 
6 7 161 167 154 174 54 179 169 
7 7 133 159 11 26 63 131 8 
8 7 91 131 183 32 11 33 133 
9 7 119 153 143 74 165 157 34 
10 7 78 158 181 17 180 31 94 
11 7 131 7 133 63 57 8 159 
12 7 95 178 55 67 113 21 36 
13 7 75 128 129 174 72 83 100 
14 7 170 171 69 175 29 155 61 
15 7 74 157 50 86 172 126 124 
16 7 41 38 116 32 19 130 183 
17 7 20 78 10 158 182 181 129 
18 7 81 4 111 149 156 62 118 
19 7 116 102 104 97 173 162 32 
20 7 17 182 72 36 135 129 78 
21 7 67 55 95 99 113 12 90 
22 7 138 93 147 45 56 49 168 
23 7 60 89 121 73 163 38 48 
24 7 106 33 160 114 2 144 110 
25 7 86 172 5 126 50 140 15 
26 7 159 133 7 110 106 11 91 
27 7 61 124 3 68 108 170 15 
28 7 85 90 103 99 100 98 151 
29 7 171 61 14 69 175 170 155 
30 7 150 40 136 52 84 92 96 
31 7 94 180 181 3 70 108 10 
32 7 183 104 116 8 162 91 19 
33 7 2 144 24 91 106 110 114 
34 7 105 176 119 65 140 9 50 
35 7 148 132 164 66 64 123 120 
36 7 135 72 178 20 182 12 95 
37 7 62 118 156 115 4 76 18 
38 7 16 41 127 130 60 141 23 
39 7 42 44 87 109 54 112 179 
40 7 92 46 98 83 30 96 128 
41 7 16 38 19 116 102 88 32 
42 7 44 54 179 39 109 169 154 
43 7 87 68 112 124 152 108 39 
44 7 109 179 42 169 54 39 174 
45 7 93 51 138 22 49 177 56 
46 7 92 40 83 128 98 75 167 
47 7 58 77 146 168 137 63 147 
48 7 123 120 132 164 60 127 143 
49 7 56 177 93 51 147 137 125 
50 7 126 172 140 74 86 15 5 
51 7 177 93 45 71 49 64 56 
52 7 84 134 150 79 107 30 136 
53 5 101 97 173 102 142 
54 7 154 42 179 44 109 169 39 
55 7 95 12 67 113 21 178 99 
56 7 147 49 137 168 146 77 93 
57 7 63 11 166 131 137 7 141 
58 7 47 77 146 168 63 137 147 
59 7 155 175 69 171 14 29 170 
60 7 23 89 121 48 73 38 163 
61 7 29 27 3 170 14 171 108 
62 7 37 118 156 4 18 115 81 
63 7 57 11 7 133 159 47 131 
64 7 148 71 164 35 177 51 120 
65 7 176 105 34 117 119 132 9 
66 7 35 132 148 64 164 71 117 
67 7 21 95 55 12 99 178 90 
68 7 124 43 112 87 108 27 152 
69 7 175 155 171 59 14 29 170 
70 7 108 112 181 158 31 180 94 
71 7 64 177 148 51 164 49 35 
72 7 182 135 129 36 13 20 75 
73 7 89 163 121 23 54 87 43 
74 7 157 15 50 126 172 140 9 
75 7 128 83 13 100 46 92 174 
76 7 82 79 107 37 115 118 134 
77 7 146 168 47 58 147 137 56 
78 7 10 158 181 17 180 31 94 
79 7 134 84 76 107 52 53 82 
80 5 160 115 142 114 24 
81 7 18 111 4 156 149 62 118 
82 7 76 107 79 134 37 84 52 
83 7 128 75 98 100 46 92 40 
84 7 52 134 79 150 53 107 136 
85 7 28 103 90 100 98 99 83 
86 7 25 172 126 50 5 15 140 
87 7 43 112 68 39 108 124 70 
88 7 145 96 136 167 161 41 102 
89 7 23 60 73 121 163 165 153 
90 7 28 99 85 103 100 151 67 
91 7 8 33 144 2 32 131 162 
92 7 46 40 83 98 128 167 96 
93 7 45 51 49 22 138 177 56 
94 7 31 180 181 3 70 108 10 
95 7 12 55 67 178 21 113 135 
96 7 145 136 88 167 161 92 40 
97 6 173 102 19 53 162 104 
98 7 103 83 85 40 92 46 28 
99 7 90 28 85 21 67 151 103 
100 7 83 85 128 75 28 98 103 
101 4 142 53 173 97 
102 6 97 173 19 116 53 104 
103 7 85 98 28 90 83 100 40 
104 7 162 116 144 32 19 2 173 
105 7 34 176 65 119 140 9 117 
106 7 110 24 33 160 26 2 91 
107 7 82 79 134 52 76 84 150 
108 7 3 70 112 68 27 31 94 
109 7 44 179 169 42 54 39 174 
110 7 106 26 33 24 159 133 91 
111 7 149 18 81 4 156 62 160 
112 7 87 68 43 108 70 39 124 
113 7 55 12 21 95 67 178 99 
114 4 142 2 144 24 
115 6 118 80 37 62 142 4 
116 7 19 104 32 162 102 97 173 
117 7 132 65 176 105 119 34 35 
118 7 37 62 115 4 156 80 18 
119 7 9 34 105 143 153 74 140 
120 7 123 164 48 148 64 35 127 
121 7 23 163 89 60 73 154 38 
122 7 151 139 28 103 90 99 85 
123 7 120 48 164 148 132 35 64 
124 7 68 152 27 43 157 15 108 
125 7 166 137 177 49 56 141 57 
126 7 172 50 140 86 5 25 74 
127 7 130 38 141 120 166 48 16 
128 7 75 83 13 100 46 92 98 
129 7 182 72 13 169 174 109 44 
130 7 141 127 183 166 16 38 32 
131 7 11 8 183 91 133 7 32 
132 7 117 35 123 164 66 48 148 
133 7 7 159 26 11 131 63 8 
134 7 84 52 79 107 53 150 136 
135 7 36 72 182 178 129 20 12 
136 7 96 145 88 30 52 84 150 
137 7 56 168 147 146 49 77 47 
138 7 22 45 93 51 147 49 56 
139 7 122 151 103 28 90 85 99 
140 7 50 126 172 5 74 86 34 
141 7 130 166 127 183 57 131 125 
142 4 101 114 80 53 
143 7 153 165 9 119 152 117 157 
144 6 2 162 104 33 114 91 
145 7 96 88 136 167 161 92 40 
146 7 77 168 47 147 58 56 137 
147 7 56 168 146 77 137 49 22 
148 7 164 64 35 71 120 123 132 
149 7 4 111 18 81 160 80 62 
150 7 30 52 84 134 107 136 40 
151 7 122 139 28 90 99 103 85 
152 7 157 124 165 153 43 15 68 
153 7 165 143 9 152 119 157 74 
154 7 54 6 163 42 179 161 167 
155 7 69 175 59 171 14 29 170 
156 7 62 37 18 81 118 4 111 
157 7 74 15 152 124 9 50 165 
158 7 10 78 181 70 17 180 31 
159 7 133 7 26 11 63 131 110 
160 6 80 24 114 149 4 106 
161 7 167 6 154 96 145 46 92 
162 6 104 144 2 116 173 32 
163 7 121 154 73 54 23 89 6 
164 7 148 64 120 35 123 71 132 
165 7 153 152 143 9 157 119 74 
166 7 141 125 57 130 63 137 11 
167 7 161 6 96 46 145 92 154 
168 7 146 77 147 47 56 137 58 
169 7 179 109 44 174 42 54 129 
170 7 14 61 171 175 69 29 27 
171 7 69 29 14 175 155 59 61 
172 7 126 50 86 140 25 5 74 
173 5 97 102 162 19 104 
174 7 169 179 6 109 44 13 54 
175 7 69 155 59 14 171 29 170 
176 7 105 65 34 119 117 140 9 
177 7 51 71 49 64 93 125 56 
178 7 12 95 55 67 36 135 113 
179 7 44 109 169 42 54 174 154 
180 7 94 31 181 3 70 10 78 
181 7 10 78 158 180 31 94 70 
182 7 129 72 20 17 135 13 36 
183 7 131 32 8 11 91 130 141 
DEPOT_SECTION
   1
   -1
EOF
