NAME :  X-n176-kX-w35-c9.cctp
COMMENT : 	Adapted by Maziero, Usberti and Cavellucci from the Uchoa, Pecin, Pessoa, Poggi, Subramanian, and Vidal (2013)
TYPE :  CCTP
DIMENSION :    167
EDGE_WEIGHT_TYPE : 	EUC_2D	
CAPACITY : 	142
VERTICES_WITHIN_COVERAGE :  9
VERTICES_WITH_DEMAND : 	35
NODE_COORD_SECTION
1 0 0
2 628 103
3 291 573
4 129 447
5 973 643
6 830 868
7 398 563
8 731 423
9 201 995
10 167 174
11 13 605
12 446 262
13 229 774
14 740 231
15 21 546
16 224 615
17 605 837
18 473 759
19 758 880
20 93 900
21 580 935
22 622 494
23 513 236
24 659 797
25 606 204
26 267 688
27 28 888
28 606 754
29 841 676
30 823 611
31 1 247
32 195 486
33 644 771
34 524 45
35 581 366
36 769 471
37 78 800
38 940 790
39 867 441
40 243 453
41 410 464
42 465 161
43 417 304
44 616 944
45 609 356
46 822 489
47 738 932
48 462 718
49 847 459
50 563 619
51 792 940
52 434 318
53 1000 647
54 566 413
55 492 83
56 764 550
57 145 182
58 540 249
59 208 760
60 759 988
61 66 221
62 520 521
63 260 508
64 307 468
65 747 308
66 421 505
67 373 597
68 876 881
69 419 69
70 502 242
71 343 764
72 275 610
73 434 161
74 744 675
75 698 364
76 600 881
77 9 893
78 875 724
79 728 253
80 502 969
81 867 464
82 237 907
83 868 263
84 680 306
85 740 688
86 450 898
87 126 415
88 565 260
89 172 126
90 137 674
91 789 958
92 853 147
93 762 111
94 416 626
95 63 237
96 194 75
97 616 133
98 104 804
99 304 699
100 758 40
101 249 141
102 848 770
103 316 426
104 791 803
105 884 980
106 618 107
107 858 644
108 116 388
109 939 880
110 217 912
111 138 217
112 639 588
113 542 965
114 775 294
115 839 459
116 21 751
117 248 883
118 34 101
119 274 824
120 408 641
121 838 846
122 83 772
123 938 432
124 913 766
125 758 816
126 481 156
127 548 809
128 660 393
129 773 579
130 380 849
131 433 893
132 312 347
133 295 480
134 277 519
135 833 970
136 760 470
137 33 455
138 289 176
139 283 845
140 953 937
141 2 939
142 164 71
143 539 756
144 679 880
145 857 842
146 184 455
147 181 70
148 136 928
149 23 17
150 127 710
151 657 422
152 248 593
153 525 519
154 109 805
155 754 487
156 484 90
157 923 157
158 74 961
159 261 663
160 984 135
161 281 227
162 673 176
163 78 322
164 177 543
165 590 199
166 559 609
167 9 343
DEMAND_SECTION
2 94
3 65
4 69
5 89
6 74
7 95
8 87
9 96
10 56
11 94
12 79
13 91
14 75
15 54
16 97
17 93
18 81
19 100
20 75
21 56
22 71
23 100
24 54
25 100
26 62
27 51
28 58
29 79
30 65
31 52
32 65
33 65
34 59
35 77
36 89
COVERAGE_SECTION
2 9 106 97 162 25 165 34 93 55 100 
3 9 72 152 134 63 16 67 133 159 64 
4 9 87 146 108 32 137 164 40 163 63 
5 9 53 107 78 29 124 38 30 102 81 
6 9 121 145 68 19 104 51 125 91 102 
7 9 67 66 94 120 41 3 62 134 64 
8 9 136 36 75 155 151 128 46 115 65 
9 9 110 148 82 117 158 20 139 119 27 
10 9 57 89 111 101 96 142 147 61 95 
11 9 15 90 116 137 150 164 122 4 37 
12 9 43 52 70 23 58 73 42 126 88 
13 9 59 119 139 26 99 117 71 159 150 
14 9 79 114 65 162 84 93 83 25 75 
15 9 11 137 4 164 87 90 32 108 146 
16 9 152 72 159 3 26 164 90 134 63 
17 9 76 127 24 33 28 144 21 143 44 
18 9 48 143 127 130 71 28 120 131 86 
19 9 47 125 51 6 144 91 104 121 145 
20 9 148 158 27 77 154 98 141 37 110 
21 9 44 113 76 80 17 144 127 86 131 
22 9 151 112 54 153 62 128 8 166 155 
23 9 70 58 88 12 165 126 42 25 73 
24 9 33 17 28 144 125 76 127 143 19 
25 9 165 88 97 162 58 23 106 2 70 
26 9 159 99 72 16 59 13 152 71 3 
27 9 77 141 20 158 37 98 148 154 122 
28 9 33 143 24 127 17 76 18 50 144 
29 9 107 78 30 102 74 85 124 129 5 
30 9 107 129 29 56 74 85 46 78 155 
31 9 95 61 167 163 111 118 57 10 108 
32 9 146 40 164 63 4 134 87 133 64 
33 9 24 28 17 127 143 144 76 125 85 
34 9 55 156 69 106 2 126 97 42 73 
35 9 45 54 128 151 88 84 75 58 22 
36 9 136 155 46 8 115 49 56 81 39 
37 9 98 122 154 116 20 27 150 77 59 
38 9 124 109 78 102 145 68 121 6 140 
39 8 81 49 115 46 123 36 136 155 
40 9 32 63 133 146 64 134 103 164 4 
41 9 66 7 103 64 133 62 153 67 134 
42 8 126 73 156 55 23 70 12 69 
43 9 52 12 70 132 23 58 73 42 88 
44 9 21 76 113 144 17 80 47 60 127 
45 9 35 128 54 151 84 75 88 58 8 
46 9 115 49 81 36 136 39 155 56 129 
47 9 51 19 91 60 144 135 6 125 44 
48 8 18 143 120 94 127 71 50 166 
49 9 115 81 39 46 36 136 123 155 8 
50 8 166 112 62 153 22 143 48 28 
51 9 91 135 47 60 19 6 105 68 121 
52 9 43 12 70 23 132 58 88 41 35 
53 9 5 107 78 124 38 29 30 102 123 
54 9 35 45 151 128 22 153 62 75 88 
55 8 156 34 69 126 42 73 106 97 
56 9 129 155 36 136 46 30 115 49 74 
57 9 10 111 89 61 95 101 142 96 147 
58 9 88 23 70 165 25 12 126 42 35 
59 9 13 119 26 150 154 159 90 98 139 
60 9 91 51 47 135 19 105 144 6 44 
61 9 95 31 111 57 163 10 118 167 89 
62 8 153 166 66 22 50 54 41 7 
63 9 134 133 40 64 32 3 152 164 146 
64 9 133 103 134 63 40 41 3 32 66 
65 9 114 79 84 75 14 8 128 83 151 
66 9 41 7 62 67 153 64 94 133 103 
67 9 7 94 120 3 72 66 99 134 152 
68 9 145 6 121 109 140 105 135 51 38 
69 6 156 55 73 42 126 34 
70 9 23 58 12 88 42 126 165 52 43 
71 9 99 119 130 139 26 13 48 18 159 
72 9 152 3 16 159 26 134 99 67 63 
73 8 42 126 156 69 55 12 70 23 
74 9 85 29 129 30 107 56 104 112 33 
75 9 128 84 8 151 65 45 114 79 35 
76 9 17 21 44 144 127 113 24 33 28 
77 9 27 141 20 158 37 98 148 154 122 
78 9 102 124 29 107 38 104 145 30 5 
79 9 14 65 114 84 162 75 25 83 93 
80 9 113 21 86 131 44 76 127 17 130 
81 9 49 39 115 46 123 36 136 155 56 
82 9 110 117 139 119 9 148 13 20 59 
83 8 114 92 157 65 14 79 160 39 
84 9 75 65 79 45 128 14 114 35 151 
85 9 74 29 30 129 104 107 33 125 24 
86 9 131 130 80 113 127 21 18 76 17 
87 9 108 4 146 32 137 163 40 167 164 
88 9 58 23 70 165 25 45 35 12 84 
89 7 10 96 142 147 57 101 111 
90 9 150 16 59 122 159 26 98 154 13 
91 9 51 60 135 47 19 105 6 68 121 
92 9 157 93 83 160 14 100 79 114 162 
93 9 100 92 162 14 2 106 79 97 157 
94 8 120 67 7 48 66 99 3 72 
95 9 61 31 111 163 57 167 10 118 89 
96 6 147 142 89 101 10 57 
97 9 106 2 162 165 25 34 55 88 126 
98 9 154 37 122 20 150 116 27 59 148 
99 9 26 159 71 72 13 59 16 120 152 
100 9 93 92 2 106 162 97 14 157 79 
101 6 138 89 96 10 161 147 
102 9 78 124 104 145 121 29 38 6 125 
103 9 64 133 40 132 63 41 134 66 32 
104 9 125 121 102 6 145 19 68 78 85 
105 9 135 140 91 68 51 109 6 60 145 
106 9 2 97 162 165 25 34 55 156 93 
107 9 29 30 78 129 5 74 85 102 56 
108 9 87 4 163 146 137 167 32 40 95 
109 9 140 68 38 145 121 6 105 124 135 
110 9 82 117 148 9 139 119 20 13 158 
111 9 57 10 61 95 89 163 101 31 161 
112 8 50 166 22 56 153 129 74 62 
113 9 80 21 44 76 86 131 17 127 144 
114 8 65 79 14 84 83 75 8 128 
115 9 49 81 39 46 36 136 155 123 8 
116 9 122 37 98 154 150 27 90 77 11 
117 9 82 110 139 119 13 9 148 59 130 
118 9 149 61 142 57 95 89 31 147 10 
119 9 139 117 13 71 82 59 110 130 99 
120 8 94 67 7 48 99 3 18 66 
121 9 145 6 68 104 102 125 19 51 109 
122 9 37 98 154 116 150 90 59 20 27 
123 8 39 81 49 115 46 36 136 83 
124 9 38 78 102 145 121 29 109 68 104 
125 9 104 19 121 6 24 102 144 145 47 
126 9 42 73 156 55 23 70 69 58 12 
127 9 143 17 28 76 18 33 24 48 21 
128 9 151 75 45 8 35 84 54 22 65 
129 9 56 30 155 74 46 107 36 136 85 
130 9 131 86 71 139 119 18 117 82 48 
131 9 86 130 80 113 18 127 21 71 139 
132 9 103 43 64 161 52 40 133 41 12 
133 9 64 134 63 103 40 3 32 146 41 
134 9 63 133 3 64 40 152 32 72 103 
135 9 91 51 105 60 68 6 47 19 121 
136 9 36 155 8 46 56 115 49 81 129 
137 9 15 4 87 108 167 163 11 146 32 
138 4 161 101 10 89 
139 9 119 117 82 13 110 130 71 59 99 
140 9 109 105 68 135 145 6 121 38 51 
141 9 77 27 158 20 148 37 98 154 122 
142 6 147 96 89 10 101 57 
143 9 127 18 28 48 17 33 24 50 76 
144 9 19 47 76 24 17 44 125 21 33 
145 9 121 6 68 102 104 109 124 38 125 
146 9 32 4 40 87 164 63 108 134 133 
147 6 96 142 89 101 10 57 
148 9 20 158 110 9 82 27 117 154 98 
149 8 118 142 147 96 89 57 61 10 
150 9 90 122 59 98 154 37 116 13 16 
151 9 128 75 8 22 45 54 35 136 155 
152 9 72 16 3 159 134 63 164 26 32 
153 8 62 166 22 66 50 54 41 112 
154 9 98 37 122 20 150 116 59 27 13 
155 9 136 36 56 8 46 115 129 49 81 
156 8 55 34 126 69 42 73 106 97 
157 8 160 92 83 93 14 100 114 79 
158 9 20 148 141 27 77 9 110 98 154 
159 9 26 72 99 16 152 3 59 13 90 
160 8 157 92 83 93 100 14 114 79 
161 5 138 101 132 10 57 
162 9 97 25 2 165 14 106 79 93 84 
163 9 167 108 95 61 87 31 111 4 137 
164 9 32 16 152 146 63 134 4 40 3 
165 9 25 88 58 97 23 162 106 70 2 
166 8 50 112 62 153 22 94 48 143 
167 9 163 31 137 108 95 61 87 4 111 
DEPOT_SECTION
   1
   -1
EOF
