NAME :  X-n172-kX-w34-c7.cctp
COMMENT : 	Adapted by Maziero, Usberti and Cavellucci from the Uchoa, Pecin, Pessoa, Poggi, Subramanian, and Vidal (2013)
TYPE :  CCTP
DIMENSION :    101
EDGE_WEIGHT_TYPE : 	EUC_2D	
CAPACITY : 	161
VERTICES_WITHIN_COVERAGE :  7
VERTICES_WITH_DEMAND : 	34
NODE_COORD_SECTION
1 500 500
2 363 697
3 120 259
4 555 718
5 522 918
6 239 935
7 304 517
8 856 96
9 38 904
10 174 951
11 294 935
12 942 324
13 402 176
14 766 450
15 473 862
16 262 550
17 661 92
18 440 655
19 678 291
20 345 691
21 564 903
22 952 802
23 698 352
24 297 930
25 66 244
26 882 642
27 777 818
28 302 212
29 824 647
30 143 946
31 108 600
32 121 755
33 697 32
34 473 995
35 342 252
36 248 211
37 81 468
38 144 796
39 437 42
40 263 549
41 153 646
42 187 688
43 27 70
44 589 402
45 105 251
46 986 452
47 486 773
48 679 851
49 102 734
50 619 809
51 107 489
52 921 579
53 681 336
54 260 655
55 46 832
56 117 590
57 667 428
58 871 548
59 181 252
60 172 696
61 211 597
62 82 390
63 114 189
64 659 852
65 169 845
66 101 663
67 124 861
68 289 778
69 923 842
70 464 148
71 377 32
72 802 86
73 89 157
74 347 358
75 391 594
76 904 106
77 649 92
78 134 331
79 389 254
80 796 197
81 304 381
82 914 661
83 881 145
84 849 115
85 266 216
86 890 105
87 368 725
88 819 266
89 324 181
90 435 652
91 917 630
92 843 747
93 355 700
94 354 552
95 439 345
96 472 663
97 930 835
98 862 251
99 267 215
100 554 709
101 405 594
DEMAND_SECTION
2 30
3 82
4 70
5 92
6 25
7 23
8 11
9 41
10 15
11 5
12 17
13 70
14 36
15 47
16 24
17 11
18 6
19 23
20 5
21 54
22 74
23 6
24 9
25 58
26 96
27 80
28 100
29 65
30 3
31 46
32 16
33 47
34 33
35 84
COVERAGE_SECTION
2 7 93 20 87 90 18 75 68 
3 5 45 25 59 63 78 
4 6 100 47 96 50 18 90 
5 7 21 15 34 50 47 64 48 
6 7 11 24 10 30 65 67 68 
7 3 40 16 94 
8 5 84 86 76 72 83 
9 7 55 67 30 10 65 38 32 
10 7 30 6 67 65 11 24 9 
11 7 24 6 10 30 65 68 67 
12 3 98 46 88 
13 7 70 89 79 35 28 39 99 
14 4 57 23 53 58 
15 7 5 47 21 34 50 4 87 
16 6 40 7 61 94 54 75 
17 7 77 33 72 80 84 8 19 
18 5 90 96 101 75 2 
19 6 53 23 57 44 88 80 
20 7 93 2 87 54 90 18 68 
21 7 5 15 64 50 48 34 47 
22 2 97 69 
23 5 53 19 57 14 44 
24 7 11 6 10 68 65 30 67 
25 6 45 3 63 73 78 59 
26 4 82 91 29 52 
27 6 92 48 64 69 97 50 
28 5 99 85 89 36 35 
29 6 26 82 91 92 58 52 
30 7 10 67 6 65 9 38 55 
31 7 56 66 41 61 51 60 42 
32 7 49 38 60 42 66 65 67 
33 7 17 77 72 8 84 80 86 
34 7 5 21 15 24 11 47 64 
35 6 79 28 89 85 99 13 
36 3 85 99 28 
37 6 51 62 56 31 78 61 
38 7 32 65 67 49 55 60 42 
39 6 71 70 13 89 28 79 
40 6 16 7 61 94 54 75 
41 7 60 42 66 31 56 61 49 
42 7 60 41 54 66 32 61 49 
43 3 73 63 25 
44 3 57 53 23 
45 6 3 25 63 59 78 73 
46 6 12 52 58 91 26 14 
47 7 4 15 100 96 18 87 90 
48 7 64 50 27 21 5 4 100 
49 7 32 66 38 60 42 41 55 
50 7 64 48 21 4 100 47 5 
51 7 37 56 62 31 61 78 41 
52 4 91 58 26 82 
53 5 23 19 57 44 14 
54 7 61 42 20 60 16 93 40 
55 7 9 67 38 32 49 65 30 
56 7 31 41 66 61 51 60 42 
57 4 23 44 53 14 
58 6 52 91 26 29 82 14 
59 1 3 
60 7 42 41 32 66 49 54 38 
61 7 16 40 41 54 42 56 31 
62 6 37 78 51 3 45 25 
63 5 73 45 3 25 59 
64 7 48 50 21 27 5 4 100 
65 7 67 38 32 30 10 6 55 
66 7 41 31 49 56 60 42 32 
67 7 65 38 55 30 9 10 32 
68 7 87 93 20 2 54 42 65 
69 3 97 22 92 
70 7 13 39 79 89 71 35 28 
71 4 39 70 13 89 
72 6 8 84 86 83 76 80 
73 5 63 25 45 3 43 
74 4 81 95 35 79 
75 4 101 94 90 18 
76 3 86 83 8 
77 7 17 33 72 80 70 19 84 
78 5 3 62 45 59 25 
79 6 35 13 28 89 95 74 
80 6 88 98 84 83 72 8 
81 4 74 35 7 95 
82 2 91 26 
83 4 86 84 76 8 
84 5 8 86 83 72 76 
85 4 99 36 28 89 
86 4 76 8 83 84 
87 7 2 93 20 68 90 18 96 
88 4 98 80 12 83 
89 7 28 99 85 35 13 36 79 
90 6 18 96 101 75 2 93 
91 3 82 26 52 
92 3 27 29 26 
93 7 2 20 87 90 18 68 54 
94 3 75 7 101 
95 3 74 79 35 
96 4 18 90 100 101 
97 3 69 22 92 
98 3 88 80 12 
99 4 85 36 28 89 
100 6 4 47 96 50 18 90 
101 4 75 90 94 18 
DEPOT_SECTION
   1
   -1
EOF
