NAME :  X-n110-kX-w10-c9.cctp
COMMENT : 	Adapted by Maziero, Usberti and Cavellucci from the Uchoa, Pecin, Pessoa, Poggi, Subramanian, and Vidal (2013)
TYPE :  CCTP
DIMENSION :    61
EDGE_WEIGHT_TYPE : 	EUC_2D	
CAPACITY : 	66
VERTICES_WITHIN_COVERAGE :  9
VERTICES_WITH_DEMAND : 	10
NODE_COORD_SECTION
1 500 500
2 740 442
3 261 710
4 578 522
5 482 914
6 628 644
7 551 651
8 828 54
9 541 270
10 450 1000
11 521 127
12 556 488
13 875 326
14 491 726
15 415 355
16 491 845
17 454 801
18 676 995
19 363 711
20 833 501
21 444 958
22 714 57
23 922 16
24 673 571
25 590 220
26 154 753
27 675 667
28 617 176
29 512 443
30 292 887
31 786 186
32 382 284
33 523 264
34 397 120
35 447 695
36 341 648
37 363 0
38 675 83
39 628 746
40 940 409
41 786 488
42 323 674
43 986 151
44 790 150
45 533 816
46 589 125
47 640 911
48 754 659
49 828 357
50 597 587
51 159 781
52 955 6
53 131 686
54 519 220
55 454 928
56 415 916
57 468 833
58 806 568
59 821 135
60 622 561
61 482 689
DEMAND_SECTION
2 8
3 10
4 8
5 5
6 10
7 5
8 9
9 10
10 6
11 5
COVERAGE_SECTION
2 9 41 20 49 58 24 60 13 4 12 
3 7 42 36 19 26 51 53 30 
4 9 12 60 50 29 24 6 7 27 2 
5 8 55 21 56 16 57 10 45 17 
6 9 27 50 7 60 24 39 48 4 61 
7 9 6 50 61 14 35 60 39 27 4 
8 7 59 23 44 22 52 31 38 
9 9 33 54 25 28 11 15 46 32 29 
10 9 21 55 56 5 16 57 30 17 45 
11 8 46 54 28 25 34 33 9 38 
12 9 4 29 60 50 24 7 6 2 15 
13 4 49 40 31 2 
14 9 61 35 17 7 45 57 16 19 39 
15 4 32 29 33 9 
16 8 57 45 17 5 55 56 14 21 
17 8 57 16 45 14 35 61 5 56 
18 3 47 5 10 
19 8 42 36 35 3 61 17 14 57 
20 5 41 58 2 40 49 
21 9 55 10 56 5 16 57 17 30 45 
22 7 38 8 44 59 46 31 28 
23 7 52 8 43 59 44 22 31 
24 9 60 50 6 27 4 48 58 41 12 
25 8 28 9 54 33 46 11 38 31 
26 3 51 53 3 
27 7 6 48 39 24 50 60 7 
28 8 25 46 54 11 38 9 33 22 
29 8 12 4 15 60 50 9 33 32 
30 6 56 55 21 51 3 17 
31 4 44 59 8 22 
32 5 15 33 54 9 34 
33 9 9 54 25 28 11 15 32 46 29 
34 7 11 37 54 32 33 46 9 
35 8 61 14 19 17 7 36 42 57 
36 7 42 19 3 35 61 14 17 
37 6 34 11 46 54 32 28 
38 8 22 46 28 44 31 59 8 11 
39 6 27 6 45 7 14 48 
40 5 13 49 20 41 2 
41 9 20 2 58 49 24 40 48 60 13 
42 8 36 19 3 35 61 14 17 26 
43 4 52 23 59 8 
44 5 59 31 8 22 38 
45 9 16 57 17 14 5 39 55 61 47 
46 8 28 11 25 38 54 22 9 33 
47 5 18 45 5 16 39 
48 4 27 58 24 6 
49 5 13 2 40 41 20 
50 9 60 6 4 24 7 12 27 61 39 
51 3 26 53 3 
52 7 23 8 43 59 44 22 31 
53 3 26 51 3 
54 9 33 9 25 11 28 46 32 34 15 
55 8 5 21 56 10 16 57 17 45 
56 8 55 21 5 10 57 16 17 30 
57 8 16 17 45 5 55 56 14 21 
58 5 20 41 48 24 2 
59 4 44 31 8 22 
60 9 50 24 4 6 12 7 27 29 48 
61 9 35 14 7 17 19 45 57 36 6 
DEPOT_SECTION
   1
   -1
EOF
