NAME :  X-n153-kX-w60-c11.cctp
COMMENT : 	Adapted by Maziero, Usberti and Cavellucci from the Uchoa, Pecin, Pessoa, Poggi, Subramanian, and Vidal (2013)
TYPE :  CCTP
DIMENSION :    153
EDGE_WEIGHT_TYPE : 	EUC_2D	
CAPACITY : 	144
VERTICES_WITHIN_COVERAGE :  11
VERTICES_WITH_DEMAND : 	60
NODE_COORD_SECTION
1 500 500
2 238 446
3 749 750
4 960 879
5 955 866
6 202 336
7 720 788
8 695 743
9 739 603
10 217 419
11 922 870
12 703 733
13 843 856
14 233 682
15 259 459
16 226 305
17 732 722
18 747 858
19 949 784
20 904 891
21 880 795
22 591 661
23 984 926
24 246 438
25 183 501
26 546 966
27 742 771
28 110 698
29 193 441
30 215 388
31 232 516
32 907 954
33 133 526
34 750 680
35 397 553
36 103 488
37 663 731
38 784 686
39 754 821
40 280 456
41 236 424
42 287 454
43 598 728
44 996 821
45 853 710
46 744 473
47 887 907
48 286 422
49 857 633
50 272 484
51 934 625
52 939 892
53 810 732
54 631 723
55 822 694
56 769 768
57 977 840
58 639 736
59 727 765
60 950 896
61 206 433
62 207 535
63 164 586
64 754 691
65 662 768
66 348 308
67 254 455
68 130 482
69 764 726
70 713 758
71 965 934
72 693 734
73 890 801
74 808 675
75 393 484
76 727 808
77 955 756
78 854 640
79 249 552
80 188 479
81 187 506
82 901 767
83 664 770
84 558 530
85 714 742
86 979 683
87 200 416
88 294 391
89 344 471
90 240 449
91 735 633
92 944 952
93 157 421
94 768 750
95 813 936
96 534 720
97 986 914
98 963 798
99 905 579
100 175 397
101 972 940
102 184 561
103 357 399
104 859 770
105 661 762
106 298 469
107 14 438
108 275 561
109 856 919
110 219 453
111 272 465
112 294 296
113 754 775
114 229 467
115 946 778
116 711 803
117 858 879
118 665 347
119 981 802
120 924 973
121 267 545
122 760 764
123 942 894
124 219 465
125 665 756
126 92 212
127 920 940
128 937 814
129 804 654
130 281 489
131 669 647
132 308 309
133 998 876
134 900 910
135 753 900
136 873 706
137 209 467
138 991 966
139 766 729
140 341 458
141 897 957
142 224 368
143 818 679
144 707 703
145 280 450
146 252 462
147 717 683
148 458 236
149 989 489
150 278 356
151 144 446
152 991 818
153 831 812
DEMAND_SECTION
2 92
3 90
4 65
5 80
6 69
7 64
8 73
9 96
10 74
11 81
12 67
13 58
14 79
15 85
16 57
17 90
18 84
19 84
20 92
21 87
22 95
23 66
24 86
25 90
26 94
27 84
28 98
29 65
30 68
31 73
32 51
33 6
34 7
35 6
36 3
37 2
38 3
39 7
40 2
41 9
42 1
43 6
44 4
45 8
46 2
47 8
48 5
49 9
50 2
51 1
52 3
53 9
54 8
55 9
56 6
57 1
58 4
59 8
60 3
61 5
COVERAGE_SECTION
2 11 90 24 67 110 146 41 114 15 124 10 61 
3 11 122 94 27 113 56 59 139 69 17 85 70 
4 11 5 60 123 52 133 11 57 97 23 71 20 
5 11 4 60 52 123 11 57 133 128 20 97 152 
6 11 16 142 30 100 150 87 10 41 93 61 112 
7 11 116 76 59 27 70 113 85 39 122 3 8 
8 11 72 12 85 70 125 37 59 105 65 83 144 
9 11 91 34 129 131 147 64 38 74 144 143 17 
10 11 87 61 41 30 29 2 110 24 90 124 100 
11 11 20 52 123 5 60 4 134 47 128 57 117 
12 11 72 8 85 70 144 17 37 59 125 3 105 
13 11 117 153 109 47 20 21 73 134 11 95 104 
14 11 63 28 108 79 102 121 62 31 81 33 25 
15 11 67 146 111 40 90 145 2 24 42 50 114 
16 11 6 142 112 150 132 30 100 88 10 87 41 
17 11 85 12 144 69 3 139 64 70 72 147 8 
18 11 39 135 76 116 7 113 27 56 59 122 13 
19 11 115 98 77 128 119 82 152 44 73 57 21 
20 11 134 47 11 52 123 60 117 127 109 4 5 
21 11 73 104 82 153 128 115 19 13 98 77 11 
22 11 43 54 131 96 58 37 125 105 144 72 65 
23 11 97 101 71 138 60 92 133 4 123 52 127 
24 11 2 90 41 67 15 146 110 114 10 145 111 
25 11 81 80 62 137 31 124 33 68 114 102 110 
26 11 135 18 65 83 116 105 76 125 43 96 58 
27 11 113 59 122 3 56 7 70 94 76 85 116 
28 11 14 63 102 33 62 79 81 25 36 108 68 
29 11 61 87 110 137 10 124 80 93 114 2 41 
30 11 142 10 87 100 41 61 6 29 24 2 110 
31 11 62 79 121 81 114 25 50 124 137 130 80 
32 11 141 127 120 92 134 47 71 109 20 101 123 
33 11 68 36 25 81 102 63 80 62 151 137 31 
34 11 64 147 38 17 69 91 144 139 74 129 143 
35 11 75 89 140 108 106 121 130 50 42 79 40 
36 11 68 33 151 25 80 81 93 29 107 137 102 
37 11 58 125 72 105 54 8 65 83 12 85 144 
38 11 74 64 34 143 129 55 69 139 53 17 94 
39 11 76 18 113 7 116 27 56 122 59 3 94 
40 11 145 42 111 15 106 67 50 146 130 48 24 
41 11 24 10 2 90 61 110 67 87 146 15 30 
42 11 40 145 106 111 15 48 67 50 130 146 24 
43 11 54 58 96 37 22 105 125 65 83 72 8 
44 11 152 119 57 98 133 128 19 5 115 4 77 
45 11 136 55 143 53 74 104 78 38 129 82 49 
46 11 9 118 91 131 129 99 84 49 78 34 74 
47 11 134 20 109 117 127 11 32 141 52 123 60 
48 11 145 42 88 40 24 111 15 67 106 41 146 
49 11 78 129 143 74 55 99 136 45 51 38 53 
50 11 130 111 15 40 106 146 42 67 145 114 90 
51 11 99 86 49 78 136 45 143 55 77 129 74 
52 11 123 60 4 11 5 20 134 71 97 127 47 
53 11 55 139 69 94 45 38 143 56 74 122 104 
54 11 58 37 43 125 105 65 83 72 8 12 22 
55 11 143 74 45 38 53 129 136 78 69 139 64 
56 11 122 113 94 3 27 139 59 69 7 39 53 
57 11 152 44 5 119 133 4 98 128 60 11 19 
58 11 54 37 125 105 65 43 83 72 8 12 85 
59 11 27 70 7 85 3 113 122 8 12 116 56 
60 11 123 52 4 5 11 97 71 23 20 101 133 
61 11 29 10 87 110 41 137 2 124 90 24 114 
62 11 31 81 102 25 79 80 121 63 137 114 124 
63 11 102 62 33 81 25 79 31 68 80 121 108 
64 11 34 38 69 17 147 139 144 74 3 91 94 
65 11 83 105 125 37 58 8 72 70 12 54 85 
66 11 132 112 150 103 88 16 48 148 142 6 140 
67 11 15 146 90 2 24 111 40 145 114 42 50 
68 11 36 151 33 25 80 81 93 29 137 61 124 
69 11 139 94 3 17 64 122 56 38 53 34 27 
70 11 59 85 8 12 7 72 27 3 17 113 116 
71 11 101 23 92 97 60 138 127 123 52 4 120 
72 11 8 12 85 37 70 144 125 17 105 59 65 
73 11 21 82 104 128 153 19 115 13 98 11 77 
74 11 143 129 55 38 64 45 53 34 78 49 69 
75 11 89 140 35 103 106 42 130 40 145 50 111 
76 11 116 7 39 27 59 113 70 18 122 56 3 
77 11 115 19 98 119 82 128 152 44 86 73 21 
78 11 49 129 143 74 55 136 45 99 51 38 53 
79 11 121 108 31 62 102 130 50 81 25 114 111 
80 11 25 137 81 124 29 110 114 61 151 31 68 
81 11 25 80 62 137 31 124 102 114 33 68 110 
82 11 21 73 104 115 19 77 128 136 98 45 153 
83 11 65 105 125 37 8 58 72 70 12 54 85 
84 11 22 131 35 75 96 9 46 43 91 54 118 
85 11 12 70 8 72 59 17 3 27 144 7 122 
86 11 51 77 115 19 136 82 98 119 99 45 49 
87 11 10 61 29 100 30 41 110 93 2 24 90 
88 11 48 150 145 42 103 40 24 41 142 67 15 
89 11 140 106 75 42 40 130 145 111 50 103 48 
90 11 2 24 67 146 15 110 114 41 124 111 137 
91 11 9 34 147 64 131 38 129 144 74 17 143 
92 11 127 71 120 101 32 141 23 138 60 97 123 
93 11 151 100 29 87 61 10 80 30 68 137 110 
94 11 122 56 3 139 69 113 27 59 17 53 85 
95 11 109 135 117 47 13 141 134 32 18 20 127 
96 11 43 22 54 58 37 105 125 65 83 131 72 
97 11 23 71 101 60 133 4 123 52 138 5 92 
98 11 119 19 115 128 152 44 77 57 5 82 73 
99 11 51 49 78 149 129 86 136 143 74 45 55 
100 11 93 87 30 10 29 61 142 151 6 41 110 
101 11 71 23 92 97 138 60 127 123 52 120 4 
102 11 63 62 81 25 33 31 79 80 121 108 68 
103 11 140 88 89 48 42 150 66 75 106 145 40 
104 11 21 82 73 153 45 53 136 55 13 115 56 
105 11 65 125 83 37 58 8 72 54 12 70 85 
106 11 42 40 111 130 145 50 15 140 67 89 146 
107 11 36 68 151 93 33 100 29 80 25 81 87 
108 11 121 79 31 130 62 50 102 106 111 146 15 
109 11 47 117 134 95 20 141 32 13 127 11 52 
110 11 124 114 137 2 90 61 29 24 10 41 146 
111 11 40 15 145 42 50 146 67 106 130 90 24 
112 11 132 66 150 16 88 6 142 30 103 48 41 
113 11 27 122 56 3 59 94 7 76 70 39 139 
114 11 124 110 137 90 2 146 67 15 24 61 80 
115 11 19 77 98 128 119 82 152 73 44 21 57 
116 11 7 76 59 27 70 39 113 83 65 85 8 
117 11 13 47 109 20 134 11 153 95 52 73 123 
118 11 46 84 148 9 91 131 75 103 66 22 99 
119 11 98 152 44 19 57 115 128 77 5 133 4 
120 11 32 92 141 127 71 101 134 138 23 47 60 
121 11 108 79 31 130 50 62 111 106 146 102 15 
122 11 56 113 94 3 27 59 139 69 7 70 17 
123 11 52 60 4 5 11 20 134 71 97 127 23 
124 11 114 137 110 90 2 146 80 29 61 67 24 
125 11 105 65 83 37 8 58 72 12 54 70 85 
126 11 16 6 100 142 30 93 112 87 150 132 107 
127 11 32 92 141 120 134 71 47 123 20 52 101 
128 11 98 19 115 119 57 73 152 5 11 44 82 
129 11 74 143 38 55 78 49 34 64 91 45 53 
130 11 50 106 111 40 42 15 145 146 67 31 114 
131 11 147 91 144 22 9 37 54 34 72 12 58 
132 11 112 66 150 16 88 103 142 6 48 30 41 
133 11 4 97 57 5 23 60 44 152 123 52 71 
134 11 47 20 127 52 32 109 123 11 141 60 117 
135 11 18 95 39 76 13 109 116 117 7 153 113 
136 11 45 55 143 104 82 53 78 74 49 129 21 
137 11 124 110 114 80 29 61 2 90 25 146 81 
138 11 101 23 71 92 97 120 127 60 32 123 52 
139 11 69 94 3 17 122 56 64 53 38 27 113 
140 11 89 106 42 75 40 103 145 48 130 111 50 
141 11 32 127 120 92 134 47 109 20 71 52 101 
142 11 30 6 10 87 150 41 100 16 61 24 88 
143 11 74 55 129 38 45 78 53 49 136 64 34 
144 11 147 12 17 72 85 8 34 64 37 70 69 
145 11 40 42 111 15 67 106 48 146 50 24 130 
146 11 67 15 90 111 2 114 24 40 50 145 124 
147 11 144 34 64 17 12 91 72 85 131 8 69 
148 11 66 132 112 103 150 88 118 16 140 48 75 
149 11 99 51 86 49 78 46 136 129 143 45 74 
150 11 88 142 132 112 48 30 16 6 41 66 10 
151 11 93 68 29 80 100 36 61 87 25 137 81 
152 11 44 119 57 98 19 128 133 5 115 4 77 
153 11 13 104 21 73 117 56 39 53 82 113 122 
DEPOT_SECTION
   1
   -1
EOF
