NAME :  X-n148-kX-w14-c11.cctp
COMMENT : 	Adapted by Maziero, Usberti and Cavellucci from the Uchoa, Pecin, Pessoa, Poggi, Subramanian, and Vidal (2013)
TYPE :  CCTP
DIMENSION :    80
EDGE_WEIGHT_TYPE : 	EUC_2D	
CAPACITY : 	18
VERTICES_WITHIN_COVERAGE :  11
VERTICES_WITH_DEMAND : 	14
NODE_COORD_SECTION
1 707 633
2 405 122
3 811 419
4 11 667
5 336 612
6 366 50
7 98 836
8 414 996
9 243 713
10 100 232
11 891 946
12 132 204
13 25 642
14 994 18
15 636 897
16 214 651
17 108 619
18 882 399
19 409 585
20 247 882
21 25 182
22 251 111
23 263 799
24 660 359
25 172 127
26 231 650
27 964 107
28 936 70
29 229 744
30 161 214
31 154 860
32 23 374
33 355 471
34 61 889
35 129 248
36 161 301
37 180 836
38 427 670
39 833 860
40 450 926
41 468 157
42 288 484
43 574 955
44 41 65
45 907 13
46 579 912
47 765 835
48 176 189
49 470 22
50 110 670
51 22 369
52 89 934
53 89 973
54 765 469
55 111 694
56 572 872
57 134 794
58 85 912
59 79 911
60 132 871
61 170 677
62 847 462
63 732 383
64 904 368
65 281 669
66 84 809
67 114 715
68 83 648
69 45 944
70 84 965
71 779 427
72 854 305
73 216 721
74 954 764
75 339 814
76 21 341
77 67 772
78 92 325
79 1 416
80 100 342
DEMAND_SECTION
2 10
3 4
4 7
5 4
6 8
7 1
8 4
9 1
10 5
11 5
12 1
13 4
14 4
15 4
COVERAGE_SECTION
2 6 41 6 49 22 25 48 
3 5 71 62 54 18 63 
4 10 13 68 50 55 17 67 77 61 66 57 
5 9 19 65 38 26 16 9 42 33 73 
6 8 2 49 22 41 25 48 30 12 
7 11 66 60 57 31 34 77 58 59 37 52 69 
8 11 40 43 46 75 56 20 15 23 37 31 60 
9 11 73 29 65 26 16 61 23 67 55 57 5 
10 11 35 12 30 48 21 36 78 80 25 76 51 
11 7 39 47 74 15 46 43 56 
12 11 30 10 35 48 25 36 21 78 80 22 44 
13 9 4 68 17 50 55 67 77 61 66 
14 3 28 45 27 
15 7 46 56 43 47 40 39 8 
16 10 26 61 9 65 73 29 50 17 55 67 
17 8 68 50 55 61 13 67 4 16 
18 4 64 62 3 72 
19 5 5 38 33 65 42 
20 11 37 23 31 75 60 29 57 7 73 58 52 
21 11 10 12 44 35 30 48 25 78 76 80 36 
22 10 25 48 6 30 12 2 35 10 36 44 
23 11 29 75 20 9 37 73 31 57 65 60 26 
24 4 63 71 54 3 
25 11 48 22 12 30 10 35 44 21 36 6 78 
26 9 16 65 9 61 73 29 5 50 17 
27 3 28 14 45 
28 3 27 45 14 
29 11 73 9 23 61 65 16 26 37 57 67 55 
30 11 48 12 35 10 36 25 78 22 21 80 76 
31 11 60 37 7 57 58 66 59 20 34 52 77 
32 9 51 76 79 80 78 36 10 35 21 
33 3 42 19 5 
34 11 59 58 52 69 7 60 70 66 53 31 77 
35 11 10 12 30 36 48 78 80 21 25 76 51 
36 10 35 78 80 30 10 12 48 76 51 32 
37 11 31 60 57 20 7 23 66 29 73 58 59 
38 6 19 5 65 75 9 26 
39 6 47 11 74 15 46 56 
40 10 8 43 46 56 75 15 20 23 38 37 
41 3 2 49 6 
42 3 33 5 19 
43 8 46 56 15 40 8 47 75 39 
44 11 21 25 12 10 48 30 35 22 36 78 76 
45 3 28 14 27 
46 8 56 43 15 40 8 47 39 75 
47 6 39 15 11 56 46 74 
48 11 30 12 25 35 10 22 36 21 78 80 44 
49 4 6 2 41 22 
50 10 55 68 67 17 61 13 4 16 77 73 
51 9 32 76 79 78 80 36 10 35 21 
52 11 58 59 70 53 69 34 60 7 31 66 37 
53 11 70 52 69 58 59 34 60 31 7 37 66 
54 4 71 3 62 63 
55 11 67 50 68 61 17 77 13 57 4 73 16 
56 7 46 15 43 40 47 8 75 
57 11 66 7 37 31 77 60 67 55 29 73 34 
58 11 59 52 34 69 70 53 60 7 31 66 37 
59 11 58 52 34 69 70 53 60 7 31 66 37 
60 11 31 7 37 58 59 34 52 57 66 70 53 
61 11 16 50 55 73 26 67 9 17 29 68 65 
62 3 3 18 71 
63 6 71 24 3 54 62 72 
64 4 18 72 3 62 
65 10 26 9 16 5 73 29 61 23 38 19 
66 11 7 77 57 60 34 31 67 37 59 58 55 
67 11 55 50 61 68 77 57 17 66 73 4 13 
68 9 50 17 55 13 4 67 61 77 16 
69 11 70 52 59 58 53 34 60 7 31 66 37 
70 11 53 52 69 58 59 34 60 31 7 66 37 
71 4 3 54 63 62 
72 3 64 18 3 
73 11 29 9 61 16 26 65 23 67 55 57 50 
74 3 39 11 47 
75 11 23 20 29 9 73 65 40 37 38 31 26 
76 10 51 32 78 79 80 10 35 36 21 12 
77 11 66 7 57 67 55 50 34 60 4 31 68 
78 10 80 36 76 51 32 35 10 12 79 30 
79 7 32 51 76 80 78 36 10 
80 10 78 36 76 32 51 35 10 79 12 30 
DEPOT_SECTION
   1
   -1
EOF
