NAME :  X-n115-kX-w45-c7.cctp
COMMENT : 	Adapted by Maziero, Usberti and Cavellucci from the Uchoa, Pecin, Pessoa, Poggi, Subramanian, and Vidal (2013)
TYPE :  CCTP
DIMENSION :    115
EDGE_WEIGHT_TYPE : 	EUC_2D	
CAPACITY : 	169
VERTICES_WITHIN_COVERAGE :  7
VERTICES_WITH_DEMAND : 	45
NODE_COORD_SECTION
1 500 500
2 865 693
3 633 220
4 173 361
5 89 714
6 350 102
7 301 24
8 834 663
9 841 997
10 394 790
11 276 488
12 779 312
13 939 66
14 595 462
15 940 964
16 459 459
17 432 280
18 379 338
19 128 439
20 401 22
21 69 887
22 499 657
23 633 46
24 713 182
25 806 525
26 540 169
27 696 559
28 577 888
29 298 725
30 410 644
31 512 889
32 756 352
33 405 407
34 850 365
35 731 588
36 90 553
37 691 383
38 926 631
39 955 351
40 998 736
41 921 854
42 532 257
43 238 513
44 976 912
45 565 912
46 893 74
47 590 548
48 99 355
49 294 39
50 58 429
51 471 573
52 520 109
53 486 611
54 409 682
55 296 843
56 970 479
57 717 390
58 152 711
59 934 255
60 257 539
61 270 31
62 823 409
63 203 849
64 770 627
65 630 581
66 786 186
67 380 300
68 973 847
69 985 975
70 732 465
71 690 428
72 910 568
73 725 539
74 181 186
75 814 694
76 702 927
77 946 492
78 984 305
79 385 696
80 48 323
81 944 440
82 813 293
83 490 676
84 729 923
85 719 883
86 675 637
87 167 14
88 98 159
89 476 709
90 402 339
91 911 734
92 590 230
93 122 698
94 154 418
95 165 998
96 217 599
97 766 21
98 922 407
99 831 607
100 70 494
101 220 740
102 19 855
103 759 507
104 818 409
105 503 304
106 595 827
107 254 282
108 205 607
109 331 57
110 118 404
111 576 658
112 558 611
113 629 732
114 893 182
115 435 1000
DEMAND_SECTION
2 86
3 98
4 89
5 91
6 74
7 87
8 65
9 62
10 60
11 99
12 96
13 79
14 6
15 10
16 3
17 8
18 8
19 10
20 1
21 9
22 6
23 4
24 5
25 6
26 3
27 9
28 7
29 7
30 5
31 2
32 4
33 8
34 8
35 1
36 4
37 5
38 7
39 8
40 9
41 1
42 8
43 2
44 2
45 9
46 7
COVERAGE_SECTION
2 7 8 75 91 38 99 64 72 
3 7 92 24 26 42 105 66 52 
4 7 94 110 48 19 107 80 50 
5 7 93 58 101 102 108 36 96 
6 7 109 49 7 20 61 52 74 
7 7 49 61 109 6 20 87 74 
8 7 75 2 99 64 38 91 72 
9 7 15 84 69 76 44 41 85 
10 7 79 54 55 89 29 30 83 
11 7 43 60 96 108 94 33 19 
12 7 82 32 34 57 104 62 37 
13 7 46 114 97 59 66 78 24 
14 7 47 71 37 65 16 70 27 
15 7 69 44 9 41 68 84 91 
16 7 33 51 90 14 18 53 47 
17 7 67 90 105 18 42 33 26 
18 7 90 67 33 17 105 107 16 
19 7 94 110 50 100 48 4 36 
20 7 109 6 7 49 61 52 26 
21 7 102 63 95 5 58 93 101 
22 7 83 53 89 112 111 51 30 
23 7 52 97 26 24 3 92 66 
24 7 66 3 92 12 82 23 97 
25 7 103 73 99 70 35 64 72 
26 7 52 92 42 3 105 23 17 
27 7 73 35 65 86 103 64 70 
28 7 45 106 31 76 85 84 113 
29 7 101 79 10 55 54 30 58 
30 7 54 79 53 83 22 89 51 
31 7 45 28 106 115 10 89 76 
32 7 12 57 37 82 104 62 34 
33 7 90 18 16 67 17 105 11 
34 7 62 104 82 98 12 32 39 
35 7 27 73 64 86 103 25 65 
36 7 100 19 108 50 96 93 94 
37 7 57 71 32 70 12 14 104 
38 7 72 2 8 99 91 40 75 
39 7 78 98 81 59 34 56 77 
40 7 91 68 38 2 41 44 8 
41 7 68 44 15 91 69 40 9 
42 7 105 92 26 17 3 52 90 
43 7 60 11 96 108 94 19 36 
44 7 15 69 68 41 9 40 91 
45 7 28 31 106 76 85 115 84 
46 7 13 114 97 66 59 24 82 
47 7 65 112 14 27 111 51 53 
48 7 110 80 4 94 50 19 100 
49 7 7 61 109 6 20 87 74 
50 7 110 100 19 48 94 80 36 
51 7 53 22 30 112 83 16 47 
52 7 26 23 92 20 42 3 6 
53 7 51 22 83 112 30 89 111 
54 7 79 30 89 83 22 53 10 
55 7 63 10 29 101 79 58 54 
56 7 77 81 98 72 39 38 62 
57 7 37 71 32 70 12 104 62 
58 7 93 5 101 108 96 29 63 
59 7 78 114 39 82 34 98 66 
60 7 43 11 96 108 94 19 36 
61 7 49 7 109 87 6 20 74 
62 7 104 34 32 98 12 70 57 
63 7 55 101 21 58 95 29 93 
64 7 35 99 8 75 86 73 27 
65 7 47 27 86 112 111 35 73 
66 7 24 114 82 12 46 3 59 
67 7 18 90 17 33 105 107 42 
68 7 41 44 40 15 69 91 2 
69 7 15 44 68 41 9 40 91 
70 7 103 71 73 57 37 25 27 
71 7 37 57 70 14 32 103 73 
72 7 38 77 99 56 25 8 81 
73 7 27 103 35 70 25 64 65 
74 7 88 107 87 4 61 49 48 
75 7 8 2 64 99 91 38 35 
76 7 84 85 28 45 106 9 31 
77 7 56 81 72 98 38 39 25 
78 7 39 59 98 81 34 114 82 
79 7 54 30 29 89 10 83 22 
80 7 48 50 110 4 19 94 88 
81 7 98 56 77 39 34 62 104 
82 7 12 34 32 66 62 104 59 
83 7 22 89 53 54 30 111 112 
84 7 76 85 9 28 45 106 41 
85 7 84 76 106 28 45 9 113 
86 7 65 35 27 64 111 113 73 
87 7 61 49 7 88 109 74 6 
88 7 74 87 80 48 107 61 4 
89 7 83 22 54 79 30 53 111 
90 7 18 67 17 33 105 16 42 
91 7 2 40 38 8 75 41 68 
92 7 3 42 26 105 24 52 17 
93 7 58 5 101 108 96 36 63 
94 7 19 110 4 48 50 100 43 
95 7 21 63 55 102 101 115 58 
96 7 108 60 43 11 58 36 93 
97 7 23 46 66 24 13 114 3 
98 7 81 39 34 56 77 62 104 
99 7 8 64 25 72 75 2 38 
100 7 36 50 19 110 94 48 4 
101 7 58 29 93 63 55 5 108 
102 7 21 5 63 93 58 95 101 
103 7 73 25 70 27 35 71 104 
104 7 62 34 32 57 70 98 12 
105 7 42 17 90 92 67 18 26 
106 7 28 45 113 31 85 76 84 
107 7 4 74 67 18 90 94 48 
108 7 96 60 43 58 93 36 101 
109 7 49 7 6 61 20 87 52 
110 7 19 94 48 50 4 100 80 
111 7 112 22 83 113 65 86 53 
112 7 111 47 53 22 65 83 51 
113 7 111 106 86 112 22 83 65 
114 7 59 66 46 13 82 78 12 
115 7 31 45 28 55 10 106 95 
DEPOT_SECTION
   1
   -1
EOF
