NAME :  X-n148-kX-w58-c7.cctp
COMMENT : 	Adapted by Maziero, Usberti and Cavellucci from the Uchoa, Pecin, Pessoa, Poggi, Subramanian, and Vidal (2013)
TYPE :  CCTP
DIMENSION :    131
EDGE_WEIGHT_TYPE : 	EUC_2D	
CAPACITY : 	18
VERTICES_WITHIN_COVERAGE :  7
VERTICES_WITH_DEMAND : 	58
NODE_COORD_SECTION
1 707 633
2 405 122
3 811 419
4 11 667
5 336 612
6 366 50
7 98 836
8 414 996
9 243 713
10 100 232
11 891 946
12 132 204
13 25 642
14 994 18
15 636 897
16 214 651
17 108 619
18 882 399
19 863 607
20 409 585
21 247 882
22 553 507
23 677 258
24 673 644
25 25 182
26 251 111
27 263 799
28 660 359
29 351 288
30 172 127
31 382 441
32 231 650
33 966 485
34 964 107
35 876 164
36 949 328
37 936 70
38 229 744
39 161 214
40 581 594
41 154 860
42 23 374
43 736 600
44 594 542
45 846 684
46 355 471
47 675 597
48 663 653
49 61 889
50 685 150
51 129 248
52 161 301
53 180 836
54 427 670
55 833 860
56 669 251
57 411 403
58 450 926
59 591 505
60 468 157
61 288 484
62 574 955
63 41 65
64 175 486
65 74 436
66 907 13
67 579 912
68 765 835
69 176 189
70 972 351
71 470 22
72 577 469
73 561 672
74 110 670
75 811 614
76 22 369
77 898 295
78 89 934
79 89 973
80 896 544
81 765 469
82 702 482
83 827 627
84 541 599
85 111 694
86 891 231
87 884 324
88 555 436
89 186 502
90 823 255
91 367 339
92 572 872
93 715 620
94 134 794
95 85 912
96 191 561
97 79 911
98 924 508
99 132 871
100 962 682
101 170 677
102 847 462
103 732 383
104 904 368
105 980 376
106 281 669
107 84 809
108 114 715
109 83 648
110 45 944
111 84 965
112 465 407
113 779 427
114 518 500
115 216 721
116 597 643
117 954 764
118 339 814
119 142 552
120 400 366
121 21 341
122 67 772
123 897 552
124 189 530
125 930 232
126 472 396
127 92 325
128 451 370
129 1 416
130 712 100
131 100 342
DEMAND_SECTION
2 10
3 4
4 7
5 4
6 8
7 1
8 4
9 1
10 5
11 5
12 1
13 4
14 4
15 4
16 2
17 5
18 3
19 10
20 1
21 2
22 9
23 5
24 5
25 2
26 1
27 7
28 10
29 5
30 10
31 10
32 2
33 9
34 1
35 10
36 9
37 2
38 3
39 4
40 4
41 9
42 10
43 5
44 4
45 10
46 1
47 5
48 8
49 5
50 1
51 6
52 10
53 1
54 6
55 4
56 3
57 7
58 2
59 8
COVERAGE_SECTION
2 5 60 6 71 26 29 
3 5 113 102 81 18 103 
4 7 13 109 74 85 17 108 122 
5 7 20 106 54 32 16 9 61 
6 7 2 71 26 60 30 69 29 
7 7 107 99 94 41 49 122 95 
8 7 58 62 67 118 92 21 15 
9 7 115 38 106 32 16 101 27 
10 7 51 12 39 69 25 52 127 
11 7 55 68 117 15 45 100 67 
12 7 39 10 51 69 30 52 25 
13 7 4 109 17 74 85 108 122 
14 6 37 66 34 35 125 86 
15 7 67 92 62 68 58 55 73 
16 7 32 101 9 106 115 96 38 
17 7 109 74 85 119 101 13 108 
18 5 104 102 3 87 36 
19 5 83 75 123 80 45 
20 7 5 54 46 84 114 31 106 
21 7 53 27 41 118 99 38 94 
22 7 114 59 72 44 88 40 84 
23 6 56 28 50 103 90 130 
24 7 48 47 93 116 43 40 73 
25 7 10 12 63 51 39 69 30 
26 7 30 69 6 39 12 2 51 
27 7 38 118 21 9 53 115 41 
28 7 103 23 56 82 88 113 72 
29 4 91 120 128 57 
30 7 69 26 12 39 10 51 63 
31 7 46 57 120 112 128 126 61 
32 7 16 106 9 101 115 38 96 
33 5 98 80 123 105 18 
34 6 37 14 35 66 125 86 
35 6 86 125 34 90 37 77 
36 6 70 105 104 77 87 18 
37 6 34 66 14 35 125 86 
38 7 115 9 27 101 106 16 32 
39 7 69 12 51 10 52 30 127 
40 7 84 116 44 73 59 22 47 
41 7 99 53 7 94 95 107 97 
42 7 76 121 129 65 131 127 52 
43 6 93 47 75 24 48 83 
44 7 59 22 40 72 84 114 47 
45 7 83 75 19 100 117 43 123 
46 7 31 61 57 120 20 112 91 
47 7 93 24 48 43 116 40 44 
48 7 24 47 93 116 43 40 73 
49 7 97 95 78 110 7 99 111 
50 7 130 56 23 90 35 28 60 
51 7 10 12 39 52 69 127 131 
52 7 51 127 131 39 10 12 69 
53 7 41 99 94 21 7 27 107 
54 7 20 5 73 84 106 118 40 
55 7 68 11 117 45 15 100 83 
56 6 23 50 28 103 90 130 
57 6 120 31 128 112 126 91 
58 7 8 62 67 92 118 15 21 
59 7 44 22 72 114 88 40 84 
60 4 2 71 6 29 
61 7 46 31 89 124 64 96 5 
62 7 67 92 15 58 8 68 118 
63 7 25 30 12 10 69 39 51 
64 7 89 124 119 96 61 65 17 
65 7 129 42 76 131 121 127 64 
66 7 37 14 34 35 130 86 125 
67 7 92 62 15 58 8 68 73 
68 7 55 15 11 45 92 67 117 
69 7 39 12 30 51 10 26 52 
70 6 105 36 104 87 77 18 
71 7 6 2 60 26 50 130 29 
72 7 59 88 22 114 44 40 82 
73 7 116 84 40 48 24 44 54 
74 7 85 109 108 17 101 13 4 
75 4 83 19 43 45 
76 7 42 121 129 127 131 65 52 
77 4 87 36 86 125 
78 7 95 97 111 79 110 49 99 
79 7 111 78 110 95 97 49 99 
80 3 123 98 19 
81 3 113 82 3 
82 4 81 113 103 59 
83 4 75 19 45 43 
84 7 40 116 73 44 22 114 59 
85 7 108 74 109 101 17 122 13 
86 4 125 77 35 90 
87 4 77 104 36 18 
88 6 72 22 114 59 126 112 
89 7 64 124 96 119 61 65 17 
90 4 86 77 87 35 
91 5 120 29 57 128 31 
92 7 67 15 62 58 68 73 8 
93 6 43 47 24 48 75 83 
94 7 107 7 53 41 122 99 108 
95 7 97 78 49 110 111 79 99 
96 7 124 119 89 64 16 32 17 
97 7 95 78 49 110 111 79 99 
98 3 80 33 123 
99 7 41 7 53 95 97 49 78 
100 7 117 45 19 123 83 80 75 
101 7 16 74 85 115 32 108 9 
102 2 3 18 
103 6 113 28 3 81 82 23 
104 6 18 87 36 70 77 105 
105 7 70 36 104 18 87 33 77 
106 7 32 9 16 5 115 38 101 
107 7 7 122 94 99 49 41 108 
108 7 85 74 101 109 122 94 17 
109 7 74 17 85 13 4 108 101 
110 7 111 78 97 95 79 49 99 
111 7 79 78 110 95 97 49 99 
112 4 126 128 57 120 
113 4 3 81 103 102 
114 7 22 72 59 88 44 84 112 
115 7 38 9 101 16 32 106 27 
116 7 73 40 48 84 24 47 44 
117 7 100 45 55 19 83 11 68 
118 7 27 21 38 9 115 106 58 
119 7 96 124 89 64 17 109 16 
120 5 57 91 128 31 112 
121 7 76 42 127 129 131 65 10 
122 7 107 7 94 108 85 74 49 
123 3 80 98 19 
124 7 89 96 64 119 61 17 16 
125 5 86 77 35 36 87 
126 4 112 128 57 120 
127 7 131 52 121 76 42 51 10 
128 4 126 112 120 57 
129 7 42 76 65 121 131 127 64 
130 7 50 56 23 35 90 66 86 
131 7 127 52 121 42 76 51 65 
DEPOT_SECTION
   1
   -1
EOF
