NAME :  X-n181-kX-w72-c7.cctp
COMMENT : 	Adapted by Maziero, Usberti and Cavellucci from the Uchoa, Pecin, Pessoa, Poggi, Subramanian, and Vidal (2013)
TYPE :  CCTP
DIMENSION :    176
EDGE_WEIGHT_TYPE : 	EUC_2D	
CAPACITY : 	8
VERTICES_WITHIN_COVERAGE :  7
VERTICES_WITH_DEMAND : 	72
NODE_COORD_SECTION
1 894 510
2 463 887
3 704 177
4 424 368
5 420 800
6 492 610
7 607 749
8 455 819
9 343 457
10 387 275
11 466 653
12 607 348
13 428 546
14 764 848
15 403 298
16 315 738
17 457 902
18 597 584
19 219 552
20 526 359
21 414 340
22 398 401
23 579 780
24 518 563
25 531 597
26 501 827
27 687 200
28 670 234
29 488 981
30 673 222
31 359 256
32 537 675
33 788 95
34 433 820
35 397 770
36 444 799
37 367 288
38 253 774
39 570 853
40 379 843
41 388 736
42 565 785
43 608 193
44 430 657
45 775 142
46 721 600
47 434 876
48 683 311
49 592 740
50 500 315
51 428 915
52 710 258
53 709 272
54 426 803
55 409 639
56 535 572
57 502 916
58 528 728
59 351 371
60 657 782
61 493 265
62 751 112
63 469 594
64 720 165
65 463 624
66 751 96
67 496 833
68 565 459
69 471 361
70 448 969
71 361 559
72 529 582
73 515 809
74 429 879
75 483 715
76 264 574
77 793 916
78 448 386
79 325 199
80 327 370
81 484 861
82 432 873
83 412 853
84 641 155
85 712 163
86 456 612
87 301 921
88 480 400
89 700 165
90 690 213
91 478 811
92 665 56
93 430 368
94 414 943
95 709 235
96 296 297
97 380 773
98 498 910
99 464 939
100 420 381
101 398 872
102 554 512
103 486 614
104 584 809
105 429 336
106 461 529
107 470 360
108 494 769
109 407 661
110 687 711
111 454 745
112 593 471
113 537 648
114 666 111
115 452 797
116 430 742
117 481 958
118 636 741
119 405 576
120 666 234
121 603 683
122 378 867
123 611 739
124 342 688
125 446 280
126 585 888
127 496 418
128 711 27
129 791 198
130 660 828
131 414 839
132 504 592
133 665 921
134 448 320
135 550 637
136 637 758
137 743 166
138 504 869
139 708 432
140 664 343
141 499 493
142 878 706
143 396 920
144 275 924
145 727 669
146 728 203
147 367 739
148 444 808
149 755 303
150 445 864
151 561 848
152 597 660
153 386 700
154 652 240
155 344 301
156 209 369
157 571 812
158 454 353
159 497 781
160 697 220
161 296 787
162 517 506
163 409 893
164 339 886
165 518 788
166 719 99
167 607 654
168 218 312
169 533 847
170 523 938
171 598 705
172 481 772
173 375 722
174 460 681
175 524 610
176 771 752
DEMAND_SECTION
2 1
3 1
4 1
5 1
6 1
7 1
8 1
9 1
10 1
11 1
12 1
13 1
14 1
15 1
16 1
17 1
18 1
19 1
20 1
21 1
22 1
23 1
24 1
25 1
26 1
27 1
28 1
29 1
30 1
31 1
32 1
33 1
34 1
35 1
36 1
37 1
38 1
39 1
40 1
41 1
42 1
43 1
44 1
45 1
46 1
47 1
48 1
49 1
50 1
51 1
52 1
53 1
54 1
55 1
56 1
57 1
58 1
59 1
60 1
61 1
62 1
63 1
64 1
65 1
66 1
67 1
68 1
69 1
70 1
71 1
72 1
73 1
COVERAGE_SECTION
2 7 17 150 47 81 82 74 98 
3 7 89 85 64 27 146 90 137 
4 7 93 100 21 78 105 158 22 
5 7 54 34 36 148 115 35 131 
6 7 103 132 63 65 175 86 25 
7 7 123 49 118 136 23 171 42 
8 7 148 34 115 36 91 54 5 
9 6 22 59 80 71 100 4 
10 7 37 15 31 155 125 21 105 
11 7 65 174 44 86 103 6 55 
12 7 140 20 48 50 154 68 112 
13 7 106 119 63 71 86 65 103 
14 7 77 176 130 133 60 136 110 
15 7 10 37 21 105 125 134 155 
16 7 147 161 124 173 38 41 97 
17 7 2 51 47 74 82 99 150 
18 7 56 25 72 135 167 152 175 
19 7 76 71 9 124 156 119 13 
20 6 50 69 107 88 127 158 
21 7 105 4 93 134 100 158 15 
22 6 100 4 93 78 59 21 
23 7 42 104 157 7 49 123 136 
24 7 56 72 132 25 175 6 162 
25 7 72 175 56 132 24 6 135 
26 7 67 73 91 81 169 138 165 
27 7 90 160 30 3 89 28 120 
28 7 120 30 154 90 160 27 95 
29 7 117 70 99 170 57 98 94 
30 7 28 120 90 160 27 154 95 
31 7 37 10 155 15 79 96 125 
32 7 113 135 58 152 121 175 75 
33 7 66 62 45 166 137 64 85 
34 7 148 54 8 5 36 131 115 
35 7 97 41 5 116 147 54 173 
36 7 115 148 54 8 5 34 91 
37 7 10 155 31 15 21 96 105 
38 7 161 16 147 124 97 173 41 
39 7 151 169 126 157 104 42 138 
40 7 122 83 101 131 163 5 34 
41 7 173 147 35 153 97 116 124 
42 7 23 157 104 165 49 7 73 
43 7 84 154 30 120 28 27 90 
44 7 109 55 11 174 65 86 153 
45 7 62 137 33 66 129 64 85 
46 6 145 110 18 167 152 121 
47 7 82 74 150 163 2 83 17 
48 7 140 53 52 149 154 28 120 
49 7 7 123 171 23 118 136 42 
50 7 61 20 134 69 107 158 125 
51 7 163 94 17 143 74 47 82 
52 7 53 95 160 28 90 120 30 
53 7 52 95 48 160 28 149 120 
54 7 5 34 36 148 115 8 131 
55 7 109 44 86 65 11 119 153 
56 7 72 24 25 132 175 6 18 
57 7 98 170 99 17 117 138 2 
58 7 75 108 32 159 165 172 49 
59 7 80 22 21 100 155 4 93 
60 7 136 118 130 7 123 49 110 
61 7 125 50 134 15 105 158 69 
62 7 66 166 45 33 137 64 85 
63 7 86 103 6 65 132 175 24 
64 7 85 3 89 137 146 27 90 
65 7 86 103 11 63 6 44 132 
66 7 62 166 33 45 137 64 85 
67 7 26 91 81 73 138 169 8 
68 5 112 102 162 141 127 
69 7 107 158 78 88 93 134 4 
70 7 99 117 29 94 51 17 143 
71 7 119 13 55 76 9 106 86 
72 7 56 25 24 132 175 6 103 
73 7 165 26 67 159 91 169 108 
74 7 47 82 150 163 83 101 2 
75 7 174 111 58 108 172 116 11 
76 7 19 71 124 9 119 55 13 
77 7 14 133 130 176 60 126 136 
78 7 93 100 4 69 107 158 88 
79 7 31 10 37 96 155 15 125 
80 7 59 155 22 96 9 37 21 
81 7 138 67 2 26 150 17 91 
82 7 47 74 150 83 163 2 101 
83 7 131 101 82 74 47 40 150 
84 7 43 114 89 27 3 85 30 
85 7 64 89 3 137 146 27 90 
86 7 65 63 103 6 11 44 132 
87 7 144 164 122 143 101 40 163 
88 4 127 78 69 107 
89 7 85 3 64 27 137 146 90 
90 7 160 27 30 28 95 120 3 
91 7 8 26 67 115 148 36 159 
92 7 128 114 166 66 84 62 89 
93 7 4 100 78 158 21 105 107 
94 7 143 51 70 99 163 17 74 
95 7 160 52 90 53 146 30 28 
96 7 155 37 31 80 168 59 10 
97 7 35 147 41 5 173 54 116 
98 7 57 170 138 2 17 99 81 
99 7 117 70 17 51 57 98 29 
100 7 4 93 78 22 21 158 105 
101 7 122 83 163 74 82 40 47 
102 7 162 68 112 141 24 56 72 
103 7 6 65 63 132 86 175 11 
104 7 157 23 42 151 39 7 169 
105 7 21 134 158 4 93 15 100 
106 6 13 141 162 63 24 119 
107 7 69 158 78 88 93 134 4 
108 7 159 172 165 73 91 111 115 
109 7 55 44 153 174 11 65 86 
110 6 145 118 136 60 123 7 
111 7 116 172 75 108 115 36 159 
112 6 68 102 162 141 127 18 
113 7 135 32 175 25 6 103 152 
114 7 84 166 92 89 85 3 64 
115 7 36 148 8 54 34 91 5 
116 7 111 41 35 5 36 75 97 
117 7 29 99 70 57 170 98 17 
118 6 136 123 7 49 60 171 
119 7 13 71 86 55 63 106 65 
120 7 28 30 154 90 160 27 95 
121 7 171 152 167 123 49 7 32 
122 7 101 40 83 163 164 131 74 
123 7 7 49 118 136 171 23 121 
124 7 153 173 16 147 41 109 55 
125 7 134 15 61 10 105 50 21 
126 7 39 151 169 157 104 170 138 
127 3 88 78 69 
128 7 92 166 66 62 114 33 45 
129 7 45 137 146 64 85 3 95 
130 7 60 136 104 118 157 39 133 
131 7 83 34 40 101 54 82 5 
132 7 6 25 72 175 103 24 63 
133 7 126 130 39 14 151 77 104 
134 7 105 158 21 125 107 69 15 
135 7 113 175 32 25 152 72 167 
136 7 118 7 60 123 49 23 171 
137 7 64 85 45 146 3 89 62 
138 7 81 169 67 98 26 2 57 
139 7 140 112 48 12 149 68 53 
140 7 48 12 53 52 139 149 154 
141 4 162 106 102 24 
142 6 176 145 14 46 110 77 
143 7 94 163 51 101 74 122 47 
144 7 87 164 122 143 40 101 163 
145 6 110 46 176 118 167 121 
146 7 3 160 95 64 90 137 27 
147 7 173 41 97 35 153 16 124 
148 7 36 115 8 34 54 5 91 
149 7 53 52 48 95 140 160 146 
150 7 47 82 74 2 83 81 17 
151 7 39 169 157 104 126 73 138 
152 7 167 121 171 135 113 32 18 
153 7 173 41 147 109 124 116 44 
154 7 120 28 30 90 160 27 95 
155 7 37 31 96 10 15 59 80 
156 7 168 96 80 59 155 9 37 
157 7 104 42 23 151 39 169 73 
158 7 107 69 93 105 4 78 134 
159 7 108 172 165 73 91 26 115 
160 7 90 95 27 30 28 120 146 
161 7 38 16 97 147 40 35 173 
162 6 141 102 24 106 68 56 
163 7 74 101 51 47 82 143 83 
164 7 122 87 40 101 143 163 144 
165 7 73 159 108 172 26 91 42 
166 7 66 62 114 85 64 33 89 
167 7 152 121 171 135 113 18 32 
168 7 156 96 80 155 59 37 31 
169 7 151 138 39 26 67 73 81 
170 7 57 98 117 29 99 138 17 
171 7 121 49 123 7 152 118 167 
172 7 108 159 111 115 91 165 36 
173 7 41 147 153 124 97 35 116 
174 7 11 44 75 65 109 111 55 
175 7 25 132 72 6 135 103 56 
176 6 110 145 14 142 60 136 
DEPOT_SECTION
   1
   -1
EOF
