NAME :  X-n172-kX-w34-c9.cctp
COMMENT : 	Adapted by Maziero, Usberti and Cavellucci from the Uchoa, Pecin, Pessoa, Poggi, Subramanian, and Vidal (2013)
TYPE :  CCTP
DIMENSION :    110
EDGE_WEIGHT_TYPE : 	EUC_2D	
CAPACITY : 	161
VERTICES_WITHIN_COVERAGE :  9
VERTICES_WITH_DEMAND : 	34
NODE_COORD_SECTION
1 500 500
2 363 697
3 120 259
4 555 718
5 522 918
6 239 935
7 304 517
8 856 96
9 38 904
10 174 951
11 294 935
12 942 324
13 402 176
14 766 450
15 473 862
16 262 550
17 661 92
18 440 655
19 678 291
20 345 691
21 564 903
22 952 802
23 698 352
24 297 930
25 66 244
26 882 642
27 777 818
28 302 212
29 824 647
30 143 946
31 108 600
32 121 755
33 697 32
34 473 995
35 342 252
36 248 211
37 81 468
38 144 796
39 244 385
40 437 42
41 381 583
42 263 549
43 153 646
44 187 688
45 27 70
46 649 477
47 589 402
48 105 251
49 986 452
50 486 773
51 679 851
52 102 734
53 619 809
54 139 138
55 107 489
56 921 579
57 681 336
58 260 655
59 46 832
60 117 590
61 667 428
62 871 548
63 181 252
64 172 696
65 211 597
66 82 390
67 114 189
68 659 852
69 169 845
70 101 663
71 124 861
72 289 778
73 923 842
74 464 148
75 377 32
76 802 86
77 89 157
78 347 358
79 391 594
80 904 106
81 649 92
82 134 331
83 389 254
84 796 197
85 304 381
86 914 661
87 881 145
88 849 115
89 923 678
90 266 216
91 890 105
92 368 725
93 819 266
94 324 181
95 500 580
96 435 652
97 460 344
98 917 630
99 843 747
100 355 700
101 982 738
102 354 552
103 439 345
104 472 663
105 930 835
106 862 251
107 267 215
108 554 709
109 405 594
110 629 450
DEMAND_SECTION
2 30
3 82
4 70
5 92
6 25
7 23
8 11
9 41
10 15
11 5
12 17
13 70
14 36
15 47
16 24
17 11
18 6
19 23
20 5
21 54
22 74
23 6
24 9
25 58
26 96
27 80
28 100
29 65
30 3
31 46
32 16
33 47
34 33
35 84
COVERAGE_SECTION
2 9 100 20 92 96 18 79 72 58 109 
3 6 48 25 63 67 82 77 
4 7 108 50 104 53 18 96 95 
5 9 21 15 34 53 50 68 51 4 108 
6 9 11 24 10 30 69 71 72 38 9 
7 5 42 16 102 41 79 
8 5 88 91 80 76 87 
9 9 59 71 30 10 69 38 32 52 6 
10 9 30 6 71 69 11 24 9 38 59 
11 9 24 6 10 30 69 72 71 34 15 
12 3 106 49 93 
13 9 74 94 83 35 28 40 107 90 75 
14 8 61 23 46 110 57 62 19 47 
15 9 5 50 21 34 53 4 92 108 68 
16 8 42 7 65 102 58 41 79 43 
17 9 81 33 76 84 88 8 19 74 87 
18 8 96 104 109 79 2 41 95 100 
19 8 57 23 61 47 93 84 110 14 
20 9 100 2 92 58 96 18 72 79 41 
21 9 5 15 68 53 51 34 50 4 108 
22 4 105 73 101 99 
23 8 57 19 61 14 47 110 46 93 
24 9 11 6 10 72 69 30 71 34 15 
25 7 48 3 67 77 82 63 54 
26 5 86 98 89 29 56 
27 8 99 51 68 73 105 53 22 29 
28 5 107 90 94 36 35 
29 7 26 86 98 99 89 62 56 
30 9 10 71 6 69 9 38 59 11 24 
31 9 60 70 43 65 55 64 44 52 37 
32 9 52 38 64 44 70 69 71 59 43 
33 9 17 81 76 8 88 84 91 87 80 
34 9 5 21 15 24 11 50 68 53 6 
35 7 83 28 94 90 107 13 36 
36 3 90 107 28 
37 8 55 66 60 31 82 39 65 43 
38 9 32 69 71 52 59 64 44 70 72 
39 4 85 78 82 7 
40 7 75 74 13 94 28 83 81 
41 5 79 109 102 96 18 
42 8 16 7 65 102 58 41 79 43 
43 9 64 44 70 31 60 65 52 58 32 
44 9 64 43 58 70 32 65 52 38 31 
45 4 77 54 67 25 
46 4 110 61 47 14 
47 5 110 61 46 57 23 
48 6 3 25 67 63 82 77 
49 7 12 56 62 98 26 14 86 
50 9 4 15 108 104 18 92 96 53 2 
51 9 68 53 27 21 5 4 108 99 15 
52 9 32 70 38 64 44 43 59 71 69 
53 9 68 51 21 4 108 50 5 15 27 
54 5 77 67 48 63 3 
55 9 37 60 66 31 65 82 43 16 42 
56 6 98 62 26 86 89 29 
57 8 23 19 61 47 110 14 46 93 
58 9 65 44 20 64 16 100 42 43 2 
59 9 9 71 38 32 52 69 30 10 70 
60 9 31 43 70 65 55 64 44 37 52 
61 6 110 46 23 47 57 14 
62 8 56 98 26 29 86 89 14 49 
63 3 3 48 36 
64 9 44 43 32 70 52 58 38 65 31 
65 9 16 42 43 58 44 60 31 64 7 
66 8 37 82 55 3 48 25 39 63 
67 6 77 54 48 3 25 63 
68 9 51 53 21 27 5 4 108 15 50 
69 9 71 38 32 30 10 6 59 52 72 
70 9 43 31 52 60 64 44 32 65 38 
71 9 69 38 59 30 9 10 32 52 6 
72 9 92 100 20 2 58 44 69 64 38 
73 5 105 22 101 99 27 
74 9 13 40 83 94 75 35 28 81 97 
75 6 40 74 13 94 28 107 
76 7 8 88 91 87 80 84 33 
77 7 67 54 25 48 3 45 63 
78 6 85 103 35 39 83 97 
79 5 109 41 102 96 18 
80 3 91 87 8 
81 9 17 33 76 84 74 19 88 8 40 
82 5 3 66 48 63 25 
83 9 35 13 28 94 103 78 97 107 90 
84 6 93 106 88 87 76 8 
85 5 78 39 35 7 103 
86 3 89 98 26 
87 4 91 88 80 8 
88 5 8 91 87 76 80 
89 3 86 98 26 
90 4 107 36 28 94 
91 4 80 8 87 88 
92 9 2 100 20 72 96 18 104 50 58 
93 6 106 84 12 87 19 23 
94 7 28 107 90 35 13 36 83 
95 2 104 18 
96 8 18 104 109 79 2 41 100 95 
97 5 103 78 83 47 35 
98 4 86 26 89 56 
99 5 27 29 89 26 86 
100 9 2 20 92 96 18 72 58 79 109 
101 2 22 89 
102 4 41 79 7 109 
103 5 97 78 83 35 85 
104 7 18 96 95 108 109 4 79 
105 4 73 22 101 99 
106 4 93 84 12 87 
107 4 90 36 28 94 
108 7 4 50 104 53 18 96 95 
109 5 79 41 96 102 18 
110 4 46 61 47 23 
DEPOT_SECTION
   1
   -1
EOF
