NAME :  X-n190-kX-w75-c7.cctp
COMMENT : 	Adapted by Maziero, Usberti and Cavellucci from the Uchoa, Pecin, Pessoa, Poggi, Subramanian, and Vidal (2013)
TYPE :  CCTP
DIMENSION :    188
EDGE_WEIGHT_TYPE : 	EUC_2D	
CAPACITY : 	138
VERTICES_WITHIN_COVERAGE :  7
VERTICES_WITH_DEMAND : 	75
NODE_COORD_SECTION
1 0 0
2 425 323
3 806 514
4 853 637
5 564 311
6 871 502
7 803 526
8 822 680
9 827 577
10 834 646
11 636 403
12 699 724
13 830 479
14 486 257
15 411 384
16 881 642
17 424 422
18 807 718
19 949 612
20 362 135
21 836 662
22 791 570
23 822 508
24 794 622
25 823 464
26 803 367
27 390 502
28 868 651
29 732 456
30 356 253
31 794 481
32 356 312
33 994 676
34 817 658
35 591 333
36 776 532
37 811 509
38 298 246
39 813 517
40 793 488
41 944 655
42 901 555
43 847 594
44 696 429
45 454 303
46 369 330
47 721 539
48 874 502
49 860 564
50 381 508
51 773 575
52 671 571
53 901 482
54 852 672
55 887 576
56 805 608
57 828 575
58 434 177
59 715 450
60 827 622
61 757 746
62 977 648
63 826 595
64 439 212
65 514 184
66 836 661
67 503 227
68 499 447
69 792 564
70 791 599
71 932 582
72 904 484
73 453 362
74 636 374
75 781 639
76 723 590
77 911 613
78 834 510
79 786 449
80 772 732
81 776 461
82 749 533
83 825 882
84 401 275
85 965 597
86 760 479
87 841 501
88 901 531
89 443 318
90 771 511
91 854 615
92 821 631
93 734 539
94 705 577
95 773 573
96 646 327
97 842 630
98 806 436
99 960 576
100 350 337
101 828 580
102 876 502
103 532 332
104 518 383
105 770 509
106 251 3
107 264 445
108 817 655
109 493 395
110 777 522
111 525 263
112 793 632
113 713 403
114 810 633
115 837 649
116 757 561
117 766 750
118 411 544
119 315 293
120 362 490
121 484 275
122 754 590
123 736 784
124 911 461
125 882 671
126 845 506
127 895 582
128 453 298
129 581 300
130 472 372
131 828 569
132 296 298
133 766 642
134 461 360
135 771 657
136 727 553
137 883 400
138 853 527
139 748 466
140 447 363
141 884 716
142 953 573
143 818 424
144 761 559
145 754 551
146 915 521
147 802 462
148 997 502
149 411 333
150 797 466
151 873 543
152 902 534
153 981 614
154 843 695
155 796 701
156 459 378
157 681 627
158 781 616
159 726 474
160 407 302
161 782 644
162 832 667
163 575 296
164 788 619
165 430 313
166 593 548
167 945 400
168 490 287
169 419 448
170 499 256
171 427 245
172 720 625
173 871 555
174 701 703
175 859 496
176 925 476
177 790 585
178 811 591
179 991 637
180 902 569
181 405 298
182 861 389
183 394 306
184 942 611
185 912 528
186 876 663
187 399 126
188 850 696
DEMAND_SECTION
2 3
3 7
4 2
5 4
6 3
7 2
8 4
9 1
10 6
11 6
12 9
13 2
14 4
15 1
16 8
17 4
18 2
19 5
20 4
21 9
22 10
23 8
24 1
25 8
26 5
27 7
28 10
29 3
30 3
31 9
32 1
33 3
34 9
35 6
36 5
37 7
38 8
39 6
40 5
41 4
42 10
43 8
44 5
45 7
46 5
47 6
48 2
49 1
50 3
51 6
52 2
53 3
54 4
55 1
56 7
57 3
58 5
59 10
60 5
61 9
62 1
63 8
64 6
65 3
66 2
67 8
68 1
69 4
70 4
71 9
72 5
73 4
74 4
75 5
76 4
COVERAGE_SECTION
2 7 165 149 89 160 181 45 183 
3 7 37 39 7 23 78 40 110 
4 7 97 115 10 28 91 16 66 
5 7 163 129 35 103 111 168 96 
6 7 48 102 175 126 87 138 53 
7 7 3 39 37 23 110 36 78 
8 7 162 21 34 66 108 154 54 
9 7 57 101 131 63 178 43 49 
10 7 115 66 21 97 108 92 4 
11 7 74 44 96 113 35 59 29 
12 7 174 61 123 117 80 135 157 
13 7 25 87 23 78 126 147 175 
14 7 170 121 168 67 111 128 45 
15 7 17 140 73 156 149 134 130 
16 7 28 186 4 125 91 97 54 
17 7 169 15 156 140 73 130 134 
18 7 155 80 8 154 188 117 61 
19 7 184 85 153 71 77 99 142 
20 7 187 58 64 30 38 171 84 
21 7 66 162 115 10 34 54 108 
22 7 69 177 95 51 70 178 144 
23 7 37 78 39 3 87 126 7 
24 7 164 112 158 56 114 75 70 
25 7 13 147 150 98 31 40 79 
26 6 143 182 98 79 137 147 
27 7 50 120 118 169 17 15 68 
28 7 186 16 4 125 54 115 97 
29 6 59 139 159 86 81 44 
30 7 84 119 38 32 183 181 160 
31 7 40 150 147 81 37 79 25 
32 7 46 100 183 119 181 160 84 
33 7 62 179 41 153 19 184 85 
34 7 108 162 21 66 10 115 8 
35 7 129 5 163 96 103 74 11 
36 7 110 90 105 82 7 145 144 
37 7 3 39 23 7 78 40 87 
38 7 119 132 30 32 100 84 46 
39 7 3 37 7 23 78 87 126 
40 7 31 150 37 147 3 105 81 
41 7 62 19 184 179 77 33 153 
42 7 180 152 88 55 127 185 151 
43 7 63 91 101 9 57 131 49 
44 6 59 113 29 159 139 11 
45 7 128 89 165 2 168 121 160 
46 7 100 32 183 149 160 181 2 
47 7 93 136 82 145 94 116 144 
48 7 102 6 175 126 87 138 53 
49 7 173 151 55 131 43 57 9 
50 7 27 120 118 169 17 15 68 
51 7 95 22 144 177 116 69 122 
52 7 94 76 157 47 136 93 172 
53 7 72 124 176 102 48 6 146 
54 7 21 66 162 188 154 28 186 
55 7 127 180 42 173 49 151 43 
56 7 70 24 178 164 63 114 158 
57 7 9 101 131 63 178 43 49 
58 7 64 187 171 65 20 67 14 
59 6 29 159 44 139 113 86 
60 7 92 97 114 10 56 63 91 
61 7 117 80 123 18 155 12 174 
62 7 179 33 41 153 19 184 85 
63 7 101 178 9 57 43 56 131 
64 7 58 171 14 67 84 170 121 
65 7 67 170 14 58 64 111 121 
66 7 21 162 115 10 34 54 108 
67 7 170 14 111 65 121 168 64 
68 7 109 104 17 130 156 169 134 
69 7 22 95 177 51 144 178 70 
70 7 177 56 158 164 178 24 22 
71 7 142 99 184 180 19 85 77 
72 7 53 176 124 102 48 6 146 
73 7 140 134 156 130 89 15 2 
74 7 11 96 35 44 113 129 5 
75 7 161 112 133 24 135 164 158 
76 7 94 122 172 136 116 144 145 
77 7 184 127 71 19 16 55 180 
78 7 87 23 126 39 37 138 3 
79 6 81 150 147 98 31 25 
80 7 117 61 18 155 123 8 12 
81 6 79 150 86 147 31 139 
82 7 93 145 36 47 116 144 110 
83 7 123 117 61 80 18 141 155 
84 7 181 160 183 171 165 30 2 
85 7 19 99 153 142 184 71 179 
86 5 139 81 105 31 40 
87 7 126 78 175 23 13 138 6 
88 7 152 185 146 42 151 102 173 
89 7 165 2 45 128 149 160 181 
90 6 105 110 36 82 40 86 
91 7 97 4 43 60 63 10 92 
92 7 60 114 10 97 108 115 34 
93 6 47 82 136 145 116 144 
94 7 76 136 52 47 93 172 122 
95 7 51 22 144 116 69 177 122 
96 7 74 35 129 11 163 5 113 
97 7 4 60 10 91 115 92 66 
98 6 143 79 147 150 25 81 
99 7 142 85 71 19 184 153 180 
100 7 46 32 183 119 149 132 160 
101 7 9 57 131 63 178 43 49 
102 7 48 6 175 126 53 72 138 
103 7 5 104 163 35 129 168 111 
104 7 109 130 103 156 134 68 73 
105 6 90 110 36 40 82 86 
106 7 20 187 38 58 30 64 119 
107 7 120 50 27 100 132 169 46 
108 7 34 10 162 21 66 115 114 
109 7 104 130 156 134 68 73 140 
110 7 36 90 105 7 3 82 37 
111 7 170 14 67 168 121 163 5 
112 7 24 75 164 161 114 158 56 
113 6 44 59 29 139 159 11 
114 7 92 112 24 60 108 56 34 
115 7 10 66 21 162 4 97 108 
116 7 144 145 95 51 82 122 136 
117 7 61 80 123 18 155 12 174 
118 7 27 50 120 169 17 68 15 
119 7 132 32 38 100 30 46 183 
120 7 50 27 169 118 17 107 15 
121 7 168 14 170 128 45 111 67 
122 7 51 95 116 76 144 177 158 
123 7 61 117 80 12 174 18 155 
124 7 176 53 72 102 48 6 146 
125 7 186 28 16 54 188 4 141 
126 7 87 78 175 138 23 6 48 
127 7 55 180 42 77 173 71 49 
128 7 45 89 165 2 121 168 160 
129 7 163 5 35 103 111 96 74 
130 7 156 134 73 140 109 104 89 
131 7 57 9 101 63 178 43 49 
132 7 119 38 32 100 30 46 183 
133 7 75 135 161 112 158 164 24 
134 7 73 140 130 156 89 109 2 
135 7 133 161 75 112 24 158 164 
136 7 47 93 145 82 116 94 144 
137 7 182 167 124 143 53 98 26 
138 7 126 78 151 87 6 175 48 
139 5 86 29 159 81 59 
140 7 73 134 156 130 15 89 2 
141 7 188 125 154 54 186 28 162 
142 7 99 71 85 19 184 153 180 
143 6 98 25 79 147 150 182 
144 7 116 145 95 51 82 36 69 
145 7 116 144 82 93 136 36 95 
146 7 185 88 152 42 72 53 102 
147 7 150 25 31 79 81 98 40 
148 7 176 99 142 146 185 72 124 
149 7 2 165 160 183 89 181 46 
150 6 147 31 79 40 81 25 
151 7 173 49 138 42 88 152 55 
152 7 88 185 146 42 151 180 173 
153 7 85 179 19 62 184 99 142 
154 7 188 54 8 162 21 66 18 
155 7 18 8 80 154 34 162 108 
156 7 130 73 134 140 109 15 17 
157 7 172 94 76 52 174 122 133 
158 7 164 24 70 112 75 56 161 
159 5 29 139 59 86 81 
160 7 181 183 165 2 84 149 89 
161 7 75 112 133 135 24 164 158 
162 7 21 66 8 34 108 115 10 
163 7 129 5 35 103 111 96 168 
164 7 24 158 112 56 70 75 114 
165 7 2 89 160 45 128 149 181 
166 7 52 94 157 47 136 76 68 
167 7 137 124 176 182 53 72 148 
168 7 121 14 170 45 128 111 89 
169 7 17 27 15 50 120 68 156 
170 7 14 121 111 67 168 128 45 
171 7 64 84 181 128 14 160 45 
172 7 76 157 122 133 94 135 158 
173 7 151 49 55 42 138 180 127 
174 7 12 61 80 157 117 172 135 
175 7 6 48 126 102 87 78 138 
176 7 124 72 53 146 185 102 48 
177 7 70 22 51 69 95 178 56 
178 7 63 56 101 9 70 177 57 
179 7 62 153 33 85 19 41 184 
180 7 42 127 55 71 173 152 88 
181 7 160 183 84 165 2 149 89 
182 7 137 143 26 98 25 167 124 
183 7 160 181 84 149 2 46 165 
184 7 19 85 71 77 99 153 142 
185 7 146 88 152 42 151 180 102 
186 7 125 28 16 54 4 21 66 
187 7 20 58 64 171 65 30 67 
188 7 154 54 8 162 21 66 141 
DEPOT_SECTION
   1
   -1
EOF
