NAME :  X-n101-kX-w20-c9.cctp
COMMENT : 	Adapted by Maziero, Usberti and Cavellucci from the Uchoa, Pecin, Pessoa, Poggi, Subramanian, and Vidal (2013)
TYPE :  CCTP
DIMENSION :    80
EDGE_WEIGHT_TYPE : 	EUC_2D	
CAPACITY : 	206
VERTICES_WITHIN_COVERAGE :  9
VERTICES_WITH_DEMAND : 	20
NODE_COORD_SECTION
1 365 689
2 146 180
3 792 5
4 658 510
5 461 270
6 299 531
7 812 228
8 643 90
9 615 630
10 258 42
11 616 299
12 475 957
13 425 473
14 406 64
15 656 369
16 202 467
17 318 21
18 579 587
19 458 354
20 575 871
21 47 512
22 568 742
23 128 436
24 546 806
25 197 696
26 615 300
27 852 563
28 678 342
29 916 176
30 390 949
31 584 572
32 134 554
33 912 173
34 827 233
35 598 322
36 627 472
37 94 442
38 688 274
39 977 176
40 597 461
41 931 23
42 170 640
43 797 95
44 451 816
45 260 107
46 332 45
47 685 613
48 728 372
49 487 497
50 717 412
51 635 794
52 635 356
53 634 540
54 658 261
55 303 168
56 707 410
57 254 135
58 346 29
59 75 79
60 729 372
61 356 39
62 274 943
63 322 96
64 664 396
65 704 236
66 415 837
67 576 587
68 750 977
69 726 363
70 302 129
71 415 989
72 199 135
73 679 426
74 311 116
75 739 898
76 268 97
77 688 588
78 708 522
79 679 864
80 615 750
DEMAND_SECTION
2 38
3 51
4 73
5 70
6 58
7 54
8 1
9 98
10 62
11 98
12 25
13 86
14 46
15 27
16 17
17 97
18 74
19 81
20 62
21 59
COVERAGE_SECTION
2 9 72 57 59 45 76 55 70 74 10 
3 9 43 41 8 33 29 7 34 65 39 
4 8 53 36 78 40 77 73 31 47 
5 9 19 35 26 11 55 52 54 13 14 
6 8 16 13 32 42 49 25 23 37 
7 9 34 65 33 29 38 43 54 69 60 
8 9 43 65 3 54 38 11 26 7 34 
9 9 18 67 31 47 77 53 80 22 4 
10 9 76 17 45 46 63 58 74 57 70 
11 9 26 35 54 52 28 38 15 64 65 
12 9 71 30 20 66 44 24 62 79 51 
13 9 49 19 6 40 31 67 18 36 5 
14 9 61 58 46 63 17 74 70 76 55 
15 9 52 64 28 73 56 69 48 60 35 
16 8 23 32 37 6 21 42 13 25 
17 9 46 58 61 10 63 76 74 14 45 
18 9 67 31 9 53 47 77 4 36 40 
19 9 5 13 35 49 26 11 40 52 15 
20 9 24 51 79 80 22 12 44 66 75 
21 7 37 32 23 16 42 25 6 
22 9 80 24 51 9 20 44 18 67 79 
23 9 37 16 21 32 6 42 2 25 13 
24 9 22 20 80 51 44 66 79 12 9 
25 5 42 32 6 16 21 
26 9 11 35 54 52 28 38 15 64 65 
27 4 78 77 47 4 
28 9 15 52 69 64 48 60 38 56 11 
29 9 33 39 34 7 43 41 3 65 38 
30 7 71 12 66 62 44 20 24 
31 9 18 67 53 9 4 77 36 47 40 
32 7 42 21 16 23 37 25 6 
33 9 29 39 34 7 43 41 3 65 38 
34 9 7 33 29 65 43 38 39 69 60 
35 9 26 11 52 15 28 54 64 38 73 
36 8 40 4 53 73 64 78 56 15 
37 8 23 21 16 32 42 6 2 25 
38 9 54 65 28 11 26 69 52 15 35 
39 8 29 33 34 41 7 43 3 65 
40 8 36 4 53 73 64 15 31 52 
41 9 3 33 43 29 39 34 7 8 65 
42 6 25 32 6 16 21 23 
43 9 3 7 33 34 29 41 8 65 39 
44 9 66 24 20 22 12 30 71 80 51 
45 9 76 57 70 74 63 10 72 55 46 
46 9 58 61 17 63 10 74 14 76 70 
47 9 77 9 53 78 4 18 31 67 36 
48 8 60 69 50 56 28 64 15 73 
49 9 13 40 31 67 18 36 19 53 4 
50 8 56 73 48 60 69 64 15 28 
51 8 80 79 22 24 20 75 9 44 
52 9 15 28 64 35 26 11 73 56 69 
53 9 4 31 36 18 77 67 78 40 47 
54 9 38 65 11 26 28 35 52 15 69 
55 9 70 74 57 63 45 76 72 46 10 
56 8 50 73 48 60 64 69 15 28 
57 9 45 76 70 72 55 74 63 10 2 
58 9 61 46 17 14 63 10 74 76 70 
59 9 2 72 10 45 57 76 70 74 55 
60 8 48 69 50 56 28 64 15 73 
61 9 58 46 17 14 63 74 10 70 76 
62 4 30 71 66 12 
63 9 74 70 46 76 45 61 58 55 17 
64 8 15 73 56 52 50 28 48 60 
65 9 38 54 7 11 28 26 34 69 35 
66 8 44 30 12 24 71 20 62 22 
67 9 18 31 9 53 4 47 77 36 49 
68 3 75 79 20 
69 8 48 60 50 56 28 15 64 73 
70 9 74 55 63 45 76 57 46 10 72 
71 8 30 12 62 66 44 20 24 22 
72 9 57 45 2 76 70 55 10 74 63 
73 8 56 64 50 15 36 48 60 69 
74 9 70 63 76 45 55 57 46 61 10 
75 4 79 68 51 20 
76 9 45 57 70 74 63 10 55 72 46 
77 9 47 78 53 4 9 31 18 67 36 
78 8 4 77 53 47 36 73 50 56 
79 7 75 51 20 80 68 24 22 
80 8 22 51 24 9 20 79 47 18 
DEPOT_SECTION
   1
   -1
EOF
