NAME :  X-n162-kX-w32-c9.cctp
COMMENT : 	Adapted by Maziero, Usberti and Cavellucci from the Uchoa, Pecin, Pessoa, Poggi, Subramanian, and Vidal (2013)
TYPE :  CCTP
DIMENSION :    121
EDGE_WEIGHT_TYPE : 	EUC_2D	
CAPACITY : 	1174
VERTICES_WITHIN_COVERAGE :  9
VERTICES_WITH_DEMAND : 	32
NODE_COORD_SECTION
1 500 500
2 300 71
3 434 4
4 257 798
5 718 17
6 879 206
7 929 330
8 353 793
9 389 540
10 202 55
11 417 253
12 921 572
13 94 788
14 870 327
15 281 124
16 411 288
17 882 116
18 307 240
19 359 935
20 352 858
21 502 776
22 269 33
23 440 814
24 850 461
25 909 404
26 339 458
27 767 535
28 86 47
29 758 532
30 426 282
31 534 10
32 826 830
33 911 79
34 270 791
35 391 794
36 908 787
37 929 858
38 938 281
39 941 579
40 752 162
41 579 68
42 323 570
43 238 700
44 329 805
45 651 486
46 291 631
47 286 481
48 855 547
49 972 378
50 205 741
51 528 672
52 664 605
53 462 532
54 340 54
55 936 46
56 864 654
57 501 495
58 339 10
59 324 595
60 585 893
61 73 401
62 244 926
63 190 659
64 525 878
65 832 622
66 228 662
67 36 578
68 897 292
69 492 426
70 958 546
71 312 781
72 320 557
73 226 264
74 446 702
75 470 746
76 439 15
77 148 352
78 693 626
79 703 31
80 294 172
81 710 588
82 909 889
83 248 178
84 265 408
85 808 699
86 867 883
87 725 58
88 108 303
89 401 225
90 824 878
91 336 115
92 428 19
93 624 46
94 6 539
95 513 262
96 639 753
97 112 114
98 478 46
99 440 219
100 780 270
101 403 32
102 403 386
103 968 26
104 644 82
105 339 122
106 413 22
107 459 198
108 361 229
109 726 749
110 480 250
111 427 197
112 731 579
113 741 135
114 421 23
115 315 178
116 676 530
117 729 107
118 668 471
119 542 296
120 607 43
121 223 283
DEMAND_SECTION
2 60
3 88
4 74
5 56
6 95
7 95
8 83
9 94
10 93
11 79
12 61
13 83
14 68
15 86
16 96
17 75
18 67
19 74
20 92
21 71
22 92
23 74
24 82
25 88
26 95
27 69
28 100
29 91
30 83
31 78
32 63
33 88
COVERAGE_SECTION
2 6 54 22 15 91 105 58 
3 6 76 92 114 106 101 98 
4 9 34 71 44 50 8 43 20 62 35 
5 9 79 87 117 93 104 120 113 41 40 
6 8 68 17 38 100 14 33 7 40 
7 8 38 68 14 49 25 6 24 100 
8 9 44 35 71 20 34 23 4 75 74 
9 9 72 42 53 59 26 47 57 46 69 
10 9 22 2 15 97 28 83 54 58 91 
11 9 30 89 16 99 111 108 110 107 95 
12 8 39 70 48 56 65 24 27 25 
13 9 50 63 4 43 34 66 62 67 71 
14 8 68 7 38 25 100 49 6 24 
15 6 80 2 91 105 83 115 
16 9 30 11 89 99 108 110 111 102 107 
17 8 33 55 6 103 40 113 117 87 
18 7 108 115 80 73 83 121 89 
19 9 20 62 44 8 35 23 71 34 4 
20 9 44 8 35 19 71 23 34 4 62 
21 9 75 23 74 64 51 35 96 60 8 
22 7 2 10 54 58 15 91 105 
23 9 35 21 75 8 20 64 44 74 71 
24 9 25 48 27 29 12 14 70 49 39 
25 9 49 7 24 14 68 38 70 48 12 
26 9 47 84 9 102 72 42 59 53 69 
27 9 29 112 81 48 116 65 24 78 118 
28 9 97 10 22 83 15 2 80 54 58 
29 9 27 112 81 116 48 118 78 24 45 
30 9 16 11 89 110 99 108 111 95 107 
31 9 98 41 120 76 93 3 92 114 106 
32 6 90 86 36 82 37 109 
33 9 55 17 103 6 40 113 117 87 5 
34 9 4 71 44 50 8 43 20 35 66 
35 9 8 23 44 20 71 75 74 21 34 
36 7 37 32 82 86 90 85 56 
37 5 82 86 36 32 90 
38 9 68 7 14 6 49 25 100 17 24 
39 8 12 70 48 56 65 24 25 27 
40 5 113 117 87 100 6 
41 6 120 93 104 31 98 79 
42 9 72 59 46 9 47 26 66 53 43 
43 9 66 50 63 46 34 4 71 59 44 
44 9 8 71 20 34 35 4 23 19 43 
45 7 118 116 29 81 52 112 27 
46 9 59 42 66 72 43 63 9 50 47 
47 9 26 84 72 42 9 59 46 102 53 
48 9 12 65 24 27 39 29 70 56 112 
49 9 7 25 38 14 68 24 70 6 12 
50 9 43 4 34 66 63 71 13 44 46 
51 8 74 75 21 96 52 53 23 78 
52 7 78 81 112 116 29 45 27 
53 8 57 9 69 26 42 72 59 51 
54 4 2 58 91 101 
55 9 103 33 17 6 87 113 117 40 5 
56 8 65 85 12 39 48 36 70 112 
57 7 53 69 9 102 45 26 118 
58 7 54 101 2 22 106 114 92 
59 9 42 72 46 9 66 47 43 26 63 
60 5 64 21 96 23 75 
61 9 77 88 94 67 121 84 73 47 26 
62 9 19 20 4 34 44 71 8 50 35 
63 9 66 43 50 46 59 4 34 42 13 
64 7 60 21 23 75 35 96 20 
65 8 56 48 85 12 27 112 29 39 
66 9 63 43 46 50 59 42 34 4 72 
67 9 94 63 61 66 13 50 43 77 46 
68 8 38 14 7 6 25 49 100 24 
69 6 57 102 53 119 9 26 
70 9 39 12 48 24 56 65 25 49 27 
71 9 44 8 34 4 35 20 43 50 23 
72 9 42 59 9 46 47 26 66 53 84 
73 9 121 18 83 80 77 88 115 108 84 
74 9 75 51 21 35 23 8 44 71 59 
75 9 21 74 23 35 51 8 64 44 71 
76 6 3 92 114 106 101 98 
77 9 88 61 121 73 84 47 18 83 26 
78 6 52 81 112 116 29 27 
79 8 5 87 104 93 117 120 113 41 
80 7 115 83 15 105 18 91 108 
81 8 112 78 52 116 29 27 45 118 
82 5 37 86 90 32 36 
83 8 80 15 115 18 73 105 91 121 
84 9 47 26 77 121 102 73 72 42 18 
85 6 56 65 109 32 36 78 
86 4 82 90 32 37 
87 8 79 5 117 113 104 93 40 120 
88 9 77 61 121 73 83 84 97 18 80 
89 8 11 111 99 108 30 16 107 110 
90 3 86 32 82 
91 4 105 15 2 54 
92 6 114 76 106 3 101 98 
93 8 120 104 41 79 31 5 87 117 
94 9 67 61 63 77 66 88 13 43 50 
95 7 110 119 107 99 30 11 16 
96 5 109 51 78 21 52 
97 9 28 10 83 15 22 73 88 80 2 
98 6 76 92 3 114 31 106 
99 9 111 107 89 11 110 30 16 108 95 
100 4 14 40 6 68 
101 6 106 114 92 76 3 54 
102 9 26 16 69 30 11 84 57 47 9 
103 9 55 33 17 6 87 5 113 117 40 
104 8 93 120 41 79 87 117 5 113 
105 3 91 15 115 
106 6 114 101 92 76 3 98 
107 7 99 111 110 89 11 95 30 
108 7 89 18 11 115 111 16 99 
109 5 96 85 78 32 52 
110 9 95 99 107 11 30 111 119 16 89 
111 6 99 107 89 11 108 110 
112 8 81 29 27 78 52 116 65 45 
113 6 40 117 87 79 104 5 
114 6 92 106 76 101 3 98 
115 7 80 105 18 15 91 83 108 
116 8 45 118 81 112 52 29 27 78 
117 6 113 87 40 79 104 5 
118 6 45 116 29 27 81 112 
119 6 95 110 30 99 107 16 
120 7 93 41 104 31 79 5 87 
121 9 73 18 77 83 88 80 84 115 108 
DEPOT_SECTION
   1
   -1
EOF
