NAME :  X-n115-kX-w22-c11.cctp
COMMENT : 	Adapted by Maziero, Usberti and Cavellucci from the Uchoa, Pecin, Pessoa, Poggi, Subramanian, and Vidal (2013)
TYPE :  CCTP
DIMENSION :    106
EDGE_WEIGHT_TYPE : 	EUC_2D	
CAPACITY : 	169
VERTICES_WITHIN_COVERAGE :  11
VERTICES_WITH_DEMAND : 	22
NODE_COORD_SECTION
1 500 500
2 865 693
3 633 220
4 173 361
5 89 714
6 350 102
7 301 24
8 834 663
9 841 997
10 394 790
11 276 488
12 779 312
13 939 66
14 595 462
15 940 964
16 459 459
17 432 280
18 379 338
19 128 439
20 401 22
21 69 887
22 499 657
23 633 46
24 713 182
25 806 525
26 540 169
27 696 559
28 577 888
29 298 725
30 410 644
31 512 889
32 756 352
33 405 407
34 850 365
35 731 588
36 90 553
37 691 383
38 926 631
39 955 351
40 998 736
41 921 854
42 532 257
43 238 513
44 976 912
45 565 912
46 893 74
47 590 548
48 99 355
49 294 39
50 58 429
51 471 573
52 520 109
53 486 611
54 409 682
55 296 843
56 717 390
57 152 711
58 934 255
59 257 539
60 270 31
61 823 409
62 203 849
63 770 627
64 630 581
65 786 186
66 380 300
67 973 847
68 985 975
69 690 428
70 910 568
71 181 186
72 814 694
73 702 927
74 385 696
75 48 323
76 813 293
77 490 676
78 729 923
79 719 883
80 167 14
81 98 159
82 476 709
83 402 339
84 911 734
85 590 230
86 122 698
87 154 418
88 165 998
89 217 599
90 766 21
91 831 607
92 70 494
93 220 740
94 19 855
95 818 409
96 503 304
97 595 827
98 254 282
99 205 607
100 331 57
101 118 404
102 576 658
103 558 611
104 629 732
105 893 182
106 435 1000
DEMAND_SECTION
2 86
3 98
4 89
5 91
6 74
7 87
8 65
9 62
10 60
11 99
12 96
13 79
14 6
15 10
16 3
17 8
18 8
19 10
20 1
21 9
22 6
23 4
COVERAGE_SECTION
2 11 8 72 84 38 91 63 70 40 35 41 25 
3 11 85 24 26 42 96 65 52 12 37 23 32 
4 11 87 101 48 19 98 75 50 11 43 92 71 
5 11 86 57 93 94 99 36 89 21 62 29 92 
6 11 100 49 7 20 60 52 71 17 66 26 80 
7 11 49 60 100 6 20 80 71 52 81 98 26 
8 9 72 2 91 63 38 84 70 35 25 
9 11 15 78 68 73 44 41 79 67 84 28 45 
10 11 74 54 55 82 29 30 77 31 22 93 62 
11 11 43 59 89 99 87 33 19 4 101 18 16 
12 10 76 32 34 56 95 61 37 65 24 69 
13 10 46 105 90 58 65 24 76 39 12 23 
14 9 47 69 37 64 16 27 56 103 51 
15 11 68 44 9 41 67 78 84 40 79 73 2 
16 11 33 51 83 14 18 53 47 96 66 17 103 
17 11 66 83 96 18 42 33 26 85 98 16 52 
18 11 83 66 33 17 96 98 16 42 11 4 43 
19 11 87 101 50 92 48 4 36 43 75 11 59 
20 11 100 6 7 49 60 52 26 23 80 17 42 
21 11 94 62 88 5 57 86 93 55 29 99 89 
22 11 77 53 82 103 102 51 30 54 74 47 104 
23 11 52 90 26 24 3 85 65 20 42 46 6 
24 11 65 3 85 12 76 23 90 26 32 105 42 
25 8 91 35 63 70 27 61 95 8 
26 11 52 85 42 3 96 23 17 24 6 20 66 
27 7 35 64 63 47 25 69 14 
28 11 45 97 31 73 79 78 104 106 82 10 77 
29 11 93 74 10 55 54 30 57 89 99 62 86 
30 11 54 74 53 77 22 82 51 29 10 103 102 
31 11 45 28 97 106 10 82 73 104 79 77 78 
32 9 12 56 37 76 95 61 34 69 65 
33 11 83 18 16 66 17 96 11 51 98 42 14 
34 8 61 95 76 12 32 39 56 58 
35 7 27 63 25 64 91 8 72 
36 11 92 19 99 50 89 86 87 101 43 5 59 
37 9 56 69 32 12 14 95 61 76 34 
38 9 70 2 8 91 84 40 72 63 25 
39 6 58 34 61 95 76 12 
40 11 84 67 38 2 41 44 8 72 70 91 15 
41 11 67 44 15 84 68 40 9 2 72 78 79 
42 11 96 85 26 17 3 52 83 66 18 24 33 
43 11 59 11 89 99 87 19 36 101 4 92 33 
44 11 15 68 67 41 9 40 84 2 78 79 72 
45 11 28 31 97 73 79 106 78 104 10 82 77 
46 10 13 105 90 65 58 24 76 23 12 39 
47 9 64 103 14 27 102 51 53 22 35 
48 11 101 75 4 87 50 19 92 98 71 81 36 
49 11 7 60 100 6 20 80 71 81 52 98 66 
50 11 101 92 19 48 87 75 36 4 43 11 59 
51 11 53 22 30 103 77 16 47 54 102 82 74 
52 11 26 23 85 20 42 3 6 17 96 100 24 
53 11 51 22 77 103 30 82 102 54 47 74 64 
54 11 74 30 82 77 22 53 10 29 51 103 102 
55 11 62 10 29 93 74 57 54 88 106 31 82 
56 9 37 69 32 12 95 61 34 76 14 
57 11 86 5 93 99 89 29 62 36 21 55 94 
58 8 105 39 76 34 65 12 46 13 
59 11 43 11 89 99 87 19 36 30 29 92 101 
60 11 49 7 100 80 6 20 71 81 98 52 66 
61 7 95 34 32 12 56 76 25 
62 11 55 93 21 57 88 29 86 5 94 10 74 
63 8 35 91 8 72 27 25 2 64 
64 8 47 27 103 102 35 14 53 63 
65 11 24 105 76 12 46 3 58 90 32 34 13 
66 11 18 83 17 33 96 98 42 16 6 26 11 
67 11 41 44 40 15 68 84 2 9 38 72 8 
68 11 15 44 67 41 9 40 84 78 79 73 2 
69 8 37 56 14 32 95 27 61 12 
70 7 38 91 25 8 2 63 72 
71 11 81 98 80 4 60 49 48 6 75 100 7 
72 10 8 2 63 91 84 38 35 70 25 27 
73 11 78 79 28 45 97 9 31 104 41 15 72 
74 11 54 30 29 82 10 77 22 53 51 93 55 
75 11 48 50 101 4 19 87 81 92 71 98 36 
76 11 12 34 32 65 61 95 58 56 105 24 37 
77 11 22 82 53 54 30 102 103 51 74 10 104 
78 11 73 79 9 28 45 97 41 15 104 31 72 
79 11 78 73 97 28 45 9 104 41 31 72 15 
80 11 60 49 7 81 100 71 6 20 98 75 4 
81 11 71 80 75 48 98 60 4 49 7 101 100 
82 11 77 22 54 74 30 53 102 10 103 51 104 
83 11 18 66 17 33 96 16 42 98 11 85 26 
84 11 2 40 38 8 72 41 67 91 70 63 44 
85 11 3 42 26 96 24 52 17 37 23 65 56 
86 11 57 5 93 99 89 36 62 29 94 21 59 
87 11 19 101 4 48 50 92 43 11 75 36 59 
88 11 21 62 55 94 93 106 57 5 86 29 10 
89 11 99 59 43 11 57 36 86 93 29 5 92 
90 11 23 46 65 24 13 105 3 52 26 85 76 
91 9 8 63 25 70 72 2 38 35 27 
92 11 36 50 19 101 87 48 4 43 75 99 89 
93 11 57 29 86 62 55 5 99 89 74 10 54 
94 11 21 5 62 86 57 88 93 55 29 36 99 
95 8 61 34 32 56 12 76 25 69 
96 11 42 17 83 85 66 18 26 33 3 16 14 
97 11 28 45 104 31 79 73 78 82 102 77 22 
98 11 4 71 66 18 83 87 48 17 101 33 81 
99 11 89 59 43 57 86 36 93 11 29 5 92 
100 11 49 7 6 60 20 80 52 71 26 98 17 
101 11 19 87 48 50 4 92 75 36 43 11 98 
102 10 103 22 77 104 64 53 47 82 51 27 
103 10 102 47 53 22 64 77 51 82 104 27 
104 10 102 97 103 22 77 64 82 28 35 63 
105 10 58 65 46 13 76 12 24 39 34 90 
106 11 31 45 28 55 10 97 88 62 73 82 78 
DEPOT_SECTION
   1
   -1
EOF
