NAME :  X-n129-kX-w51-c11.cctp
COMMENT : 	Adapted by Maziero, Usberti and Cavellucci from the Uchoa, Pecin, Pessoa, Poggi, Subramanian, and Vidal (2013)
TYPE :  CCTP
DIMENSION :    129
EDGE_WEIGHT_TYPE : 	EUC_2D	
CAPACITY : 	39
VERTICES_WITHIN_COVERAGE :  11
VERTICES_WITH_DEMAND : 	51
NODE_COORD_SECTION
1 0 0
2 51 570
3 691 985
4 66 119
5 502 415
6 434 289
7 427 584
8 342 576
9 790 87
10 312 475
11 908 531
12 840 566
13 863 232
14 284 833
15 515 175
16 9 243
17 768 209
18 777 582
19 84 508
20 380 523
21 255 267
22 544 961
23 408 661
24 57 588
25 278 44
26 168 722
27 726 406
28 223 385
29 495 70
30 560 632
31 235 655
32 643 127
33 765 267
34 459 976
35 585 962
36 154 796
37 650 444
38 931 52
39 377 19
40 178 633
41 917 803
42 871 677
43 667 164
44 208 651
45 35 437
46 503 680
47 462 870
48 322 123
49 677 829
50 878 407
51 223 251
52 671 94
53 218 351
54 375 220
55 367 567
56 986 869
57 236 769
58 202 998
59 761 712
60 75 520
61 14 737
62 895 632
63 224 725
64 328 387
65 36 300
66 817 531
67 31 283
68 209 574
69 490 395
70 659 121
71 410 207
72 761 450
73 768 348
74 873 349
75 439 179
76 51 269
77 886 558
78 151 752
79 208 186
80 897 547
81 469 396
82 607 437
83 202 433
84 642 100
85 180 703
86 873 595
87 103 184
88 466 416
89 124 311
90 71 321
91 8 357
92 51 200
93 899 471
94 67 236
95 482 432
96 991 388
97 933 309
98 649 131
99 497 404
100 626 195
101 807 375
102 776 626
103 624 275
104 55 288
105 877 515
106 821 533
107 456 317
108 625 410
109 783 403
110 662 97
111 733 533
112 499 470
113 766 340
114 206 385
115 822 285
116 571 304
117 934 461
118 533 242
119 442 24
120 303 249
121 675 92
122 467 432
123 575 338
124 385 239
125 272 512
126 567 124
127 738 447
128 379 165
129 610 408
DEMAND_SECTION
2 9
3 8
4 8
5 4
6 4
7 3
8 6
9 10
10 8
11 8
12 3
13 2
14 8
15 4
16 9
17 4
18 6
19 5
20 1
21 2
22 2
23 4
24 2
25 3
26 6
27 7
28 8
29 9
30 8
31 7
32 9
33 5
34 4
35 8
36 2
37 8
38 8
39 9
40 10
41 9
42 5
43 1
44 3
45 10
46 10
47 2
48 10
49 4
50 6
51 7
52 3
COVERAGE_SECTION
2 11 24 60 19 45 40 68 61 44 85 26 31 
3 11 35 22 49 34 47 59 41 56 42 46 102 
4 11 87 92 94 16 76 79 67 104 65 89 90 
5 11 99 69 95 88 81 122 112 123 82 107 129 
6 11 107 124 71 54 75 118 81 69 88 99 128 
7 11 55 20 23 8 46 112 30 122 10 95 125 
8 11 55 20 7 125 10 23 31 68 44 40 112 
9 11 121 52 17 110 70 38 43 98 84 32 13 
10 11 125 20 64 8 55 83 28 114 68 53 7 
11 11 80 77 105 93 86 117 12 106 66 62 50 
12 11 106 66 86 77 80 105 18 11 62 102 93 
13 11 115 17 33 97 74 113 73 101 9 50 109 
14 11 57 63 36 78 26 85 47 58 31 44 23 
15 11 118 126 75 29 71 100 128 32 6 98 116 
16 11 67 76 94 92 65 104 90 87 91 89 4 
17 11 33 115 13 43 9 113 73 70 98 100 32 
18 11 102 12 66 106 111 86 77 105 80 62 59 
19 11 60 2 24 45 83 68 40 91 114 28 90 
20 11 55 8 7 10 125 122 112 88 95 23 64 
21 11 51 120 53 79 28 114 54 124 89 64 48 
22 11 35 34 47 3 49 46 14 23 30 59 58 
23 11 7 46 55 8 20 30 31 63 44 125 57 
24 11 2 60 19 40 45 68 61 44 85 26 78 
25 11 48 39 79 128 119 54 120 71 75 51 29 
26 11 85 78 63 36 44 57 40 31 68 61 14 
27 11 127 72 109 73 113 37 101 108 129 82 111 
28 11 114 53 83 64 21 89 10 51 125 120 90 
29 11 119 126 15 75 39 84 128 32 71 98 110 
30 11 46 7 23 112 111 82 55 37 20 95 59 
31 11 44 40 63 85 68 26 57 78 8 125 55 
32 11 98 70 84 110 52 43 121 100 126 15 17 
33 11 17 115 113 73 13 101 74 109 103 43 27 
34 11 22 47 35 14 3 58 49 46 57 23 63 
35 11 22 3 34 47 49 46 59 14 30 23 41 
36 11 78 26 57 85 63 14 61 44 31 40 58 
37 11 108 82 129 27 127 72 111 123 109 5 73 
38 11 9 13 17 97 115 121 52 33 110 70 43 
39 11 119 25 48 29 128 75 71 54 15 126 124 
40 11 44 31 68 85 26 63 78 24 2 57 60 
41 11 56 42 62 59 86 102 49 77 12 80 18 
42 11 62 86 102 12 59 77 80 18 41 11 106 
43 11 98 32 70 100 110 84 52 121 126 17 103 
44 11 31 40 85 63 68 26 78 57 125 8 36 
45 11 91 19 60 90 2 65 104 24 67 89 83 
46 11 30 23 7 55 8 47 20 112 49 95 122 
47 11 34 22 35 14 46 23 49 57 3 30 63 
48 11 128 25 54 39 71 120 75 79 124 119 21 
49 11 59 3 35 22 47 102 30 46 41 42 34 
50 11 74 93 101 117 109 105 97 96 72 73 11 
51 11 21 79 120 53 89 28 114 87 54 94 48 
52 11 121 110 70 84 32 98 43 126 100 9 17 
53 11 28 114 83 21 51 89 64 120 90 10 79 
54 11 124 71 128 75 120 6 48 107 21 15 51 
55 11 8 20 7 23 10 125 68 31 112 122 46 
56 11 41 42 62 59 86 49 3 102 77 80 12 
57 11 63 14 26 36 78 85 31 44 40 68 23 
58 11 14 36 57 78 34 63 26 47 85 61 22 
59 11 102 42 18 49 62 86 12 41 111 66 106 
60 11 19 2 24 45 68 40 83 91 44 114 125 
61 11 78 36 24 26 85 2 40 63 44 57 60 
62 11 86 42 77 80 12 11 105 102 106 18 66 
63 11 57 85 26 31 44 78 36 40 14 68 8 
64 11 10 28 53 114 83 125 21 120 81 88 6 
65 11 67 104 76 90 16 91 94 89 92 87 45 
66 11 106 12 105 18 77 80 111 86 11 72 93 
67 11 65 76 104 16 90 94 91 92 89 87 45 
68 11 40 44 31 125 85 8 19 83 10 60 63 
69 11 99 81 5 88 95 122 112 107 123 6 129 
70 11 98 32 110 84 52 121 43 100 126 9 17 
71 11 54 75 124 128 6 15 120 107 48 118 29 
72 11 127 109 27 101 111 66 73 106 113 37 50 
73 11 113 101 109 27 33 115 72 127 74 50 17 
74 11 50 101 97 115 73 109 113 13 96 93 117 
75 11 71 128 15 54 124 6 118 29 48 107 126 
76 11 104 67 65 94 16 90 92 89 91 87 4 
77 11 80 11 86 105 12 106 66 62 93 117 18 
78 11 26 36 85 63 57 44 40 31 61 14 68 
79 11 51 21 87 120 48 94 89 4 25 92 53 
80 11 77 11 105 86 12 93 106 66 62 117 18 
81 11 88 69 99 122 5 95 107 112 6 123 116 
82 11 129 108 37 123 5 112 99 27 69 95 127 
83 11 114 28 53 125 10 64 19 68 89 60 45 
84 11 110 32 70 52 98 121 43 126 100 15 9 
85 11 26 63 78 44 40 31 57 36 68 14 24 
86 11 77 62 12 80 11 105 106 42 66 18 102 
87 11 92 94 4 76 79 16 104 67 89 65 51 
88 11 122 81 95 69 99 5 112 107 6 123 20 
89 11 90 104 76 65 94 67 53 114 51 28 91 
90 11 104 65 89 67 76 91 94 16 45 92 87 
91 11 65 90 67 104 45 76 16 89 94 92 19 
92 11 94 87 16 76 4 67 104 65 90 89 79 
93 11 117 105 11 50 80 77 106 66 12 96 74 
94 11 76 92 104 16 67 87 65 90 89 4 91 
95 11 122 88 5 99 69 81 112 107 82 129 123 
96 11 117 97 50 74 93 11 105 101 80 115 77 
97 11 74 96 13 50 115 101 117 93 73 113 33 
98 11 32 70 84 110 43 52 121 100 126 15 17 
99 11 69 5 81 95 88 122 112 107 123 129 82 
100 11 43 98 32 103 70 126 84 110 118 52 15 
101 11 109 73 113 74 50 27 72 115 127 33 93 
102 11 18 59 12 86 111 66 106 42 62 77 80 
103 11 116 100 123 118 43 129 108 33 98 15 32 
104 11 76 65 67 90 94 16 89 91 92 87 45 
105 11 11 80 77 93 106 66 12 117 86 50 62 
106 11 66 12 105 18 77 80 86 11 111 93 72 
107 11 6 81 69 99 88 124 118 5 116 122 95 
108 11 129 82 37 123 27 116 127 5 99 103 69 
109 11 101 72 27 73 127 113 50 74 115 66 93 
110 11 52 121 84 70 32 98 43 126 100 9 17 
111 11 18 66 127 72 106 102 12 37 27 109 105 
112 11 95 122 5 88 99 69 81 82 129 20 7 
113 11 73 101 109 33 27 115 74 72 127 17 50 
114 11 28 53 83 89 64 21 51 10 125 90 120 
115 11 33 13 113 74 73 101 17 97 109 50 27 
116 11 123 103 118 129 107 108 69 100 99 5 81 
117 11 93 11 50 105 96 80 77 74 106 66 12 
118 11 15 116 103 100 123 107 6 75 126 71 124 
119 11 39 29 128 75 48 126 25 15 71 54 84 
120 11 21 54 51 124 128 79 71 48 53 6 64 
121 11 52 110 70 84 32 98 43 126 100 9 17 
122 11 95 88 81 5 99 69 112 107 20 82 123 
123 11 116 129 103 108 69 99 82 118 5 81 107 
124 11 54 71 6 128 75 120 107 48 21 15 118 
125 11 10 68 8 83 20 55 28 64 114 31 40 
126 11 15 32 84 98 29 70 100 110 43 52 121 
127 11 72 27 109 111 37 101 73 113 66 108 106 
128 11 71 54 75 48 124 120 6 15 39 29 119 
129 11 108 82 37 123 5 116 99 27 69 112 95 
DEPOT_SECTION
   1
   -1
EOF
