NAME :  X-n125-kX-w24-c7.cctp
COMMENT : 	Adapted by Maziero, Usberti and Cavellucci from the Uchoa, Pecin, Pessoa, Poggi, Subramanian, and Vidal (2013)
TYPE :  CCTP
DIMENSION :    111
EDGE_WEIGHT_TYPE : 	EUC_2D	
CAPACITY : 	188
VERTICES_WITHIN_COVERAGE :  7
VERTICES_WITH_DEMAND : 	24
NODE_COORD_SECTION
1 989 944
2 5 730
3 769 200
4 698 515
5 72 561
6 52 397
7 771 177
8 81 537
9 43 371
10 716 202
11 106 406
12 627 172
13 10 338
14 776 432
15 761 469
16 759 287
17 593 363
18 773 290
19 129 398
20 709 193
21 99 564
22 163 418
23 48 619
24 907 406
25 929 527
26 69 672
27 50 763
28 736 240
29 46 518
30 699 581
31 58 398
32 43 393
33 783 186
34 58 360
35 45 712
36 38 393
37 652 524
38 37 364
39 37 617
40 61 534
41 664 358
42 555 445
43 712 465
44 2 729
45 65 620
46 156 497
47 857 475
48 773 234
49 879 98
50 685 466
51 21 421
52 109 536
53 60 738
54 897 564
55 96 383
56 76 582
57 739 193
58 669 548
59 284 462
60 15 696
61 102 541
62 28 578
63 828 292
64 73 519
65 70 645
66 40 433
67 745 159
68 75 511
69 228 312
70 732 427
71 61 407
72 84 538
73 751 246
74 22 714
75 63 571
76 641 350
77 873 540
78 211 418
79 287 618
80 627 595
81 546 199
82 795 58
83 805 15
84 649 486
85 145 377
86 673 319
87 700 678
88 86 623
89 158 613
90 673 619
91 738 444
92 122 182
93 108 334
94 100 550
95 677 505
96 23 365
97 892 41
98 452 457
99 70 541
100 198 317
101 159 369
102 51 378
103 556 137
104 800 100
105 795 278
106 43 656
107 70 375
108 132 545
109 203 328
110 728 467
111 759 208
DEMAND_SECTION
2 32
3 7
4 83
5 30
6 62
7 26
8 31
9 75
10 5
11 85
12 15
13 94
14 16
15 38
16 32
17 5
18 17
19 92
20 50
21 16
22 79
23 11
24 33
25 60
COVERAGE_SECTION
2 6 44 74 60 35 27 53 
3 7 111 33 7 57 48 67 73 
4 7 95 58 37 50 43 84 110 
5 7 75 99 56 8 72 21 40 
6 7 31 32 71 36 102 9 107 
7 7 33 3 67 111 57 48 10 
8 7 72 99 40 64 61 94 5 
9 7 38 102 34 96 32 36 107 
10 7 20 57 28 111 67 3 73 
11 7 19 55 71 107 31 85 6 
12 7 103 20 81 10 57 67 28 
13 7 96 38 9 34 102 36 32 
14 7 15 91 70 110 43 47 50 
15 7 110 91 14 43 70 50 4 
16 7 18 105 73 28 48 63 111 
17 7 76 41 42 86 84 50 70 
18 7 16 105 73 63 48 28 111 
19 7 11 85 55 22 101 107 93 
20 7 10 57 67 111 28 3 7 
21 7 94 61 5 56 52 72 8 
22 7 19 85 78 101 11 55 46 
23 7 39 45 65 106 88 56 62 
24 7 47 25 14 77 63 54 15 
25 7 54 77 47 24 15 14 91 
26 6 65 106 35 45 88 23 
27 6 53 35 2 74 44 60 
28 7 73 48 111 10 57 3 16 
29 5 40 64 68 99 8 
30 7 58 90 4 80 37 95 87 
31 7 6 71 32 36 102 107 9 
32 7 36 6 31 102 9 71 38 
33 7 7 3 111 57 67 48 73 
34 7 9 102 107 38 96 32 6 
35 6 74 53 60 2 44 26 
36 7 32 6 102 31 9 71 38 
37 7 58 95 84 4 50 30 80 
38 7 9 96 102 34 36 32 107 
39 7 23 45 106 62 65 88 56 
40 7 99 64 8 29 72 68 5 
41 7 76 86 17 70 50 91 43 
42 7 17 84 98 37 76 50 95 
43 7 110 50 91 70 15 4 95 
44 6 2 74 60 35 27 53 
45 7 23 88 65 39 56 106 75 
46 7 108 52 61 94 22 68 72 
47 7 77 24 25 14 15 54 91 
48 7 73 111 3 28 33 105 57 
49 7 97 104 82 83 33 7 67 
50 7 43 95 84 110 4 91 70 
51 6 66 36 32 6 71 31 
52 7 61 94 72 108 8 21 99 
53 6 27 35 74 2 44 60 
54 7 77 25 47 24 15 14 110 
55 7 11 107 19 31 71 34 102 
56 7 75 5 21 45 94 99 88 
57 7 10 111 20 3 67 7 33 
58 7 37 4 95 30 80 84 90 
59 7 78 22 46 79 101 109 69 
60 6 74 35 2 44 106 26 
61 7 52 94 72 8 21 108 99 
62 7 75 39 23 5 56 40 45 
63 7 105 18 16 48 73 28 3 
64 7 68 40 8 72 99 29 61 
65 6 45 26 88 106 23 39 
66 5 51 71 6 31 32 
67 7 7 57 33 3 20 111 10 
68 7 64 8 40 72 29 99 61 
69 7 100 109 101 85 78 93 22 
70 7 91 110 43 14 15 50 4 
71 7 31 6 32 36 102 66 107 
72 7 8 99 61 94 64 40 52 
73 7 28 48 111 16 3 18 57 
74 6 60 2 35 44 53 27 
75 7 5 56 99 62 21 40 8 
76 7 41 86 17 70 50 42 16 
77 7 54 25 47 15 24 14 110 
78 7 22 101 85 19 59 109 46 
79 7 89 59 108 46 21 52 94 
80 7 90 58 30 37 95 4 84 
81 7 103 12 20 10 17 86 76 
82 7 104 83 49 97 67 7 33 
83 7 82 104 97 49 67 7 33 
84 7 95 37 50 4 58 43 110 
85 7 101 19 22 11 55 93 107 
86 7 41 76 17 16 28 18 73 
87 7 90 30 80 58 37 4 95 
88 7 45 65 23 56 39 26 106 
89 7 88 108 21 94 56 52 61 
90 7 30 80 87 58 37 4 95 
91 7 70 110 43 15 14 50 4 
92 7 93 100 109 69 34 101 13 
93 7 55 34 107 85 101 19 11 
94 7 61 21 52 72 8 5 99 
95 7 4 37 84 50 58 43 110 
96 7 38 9 13 102 36 32 34 
97 7 49 83 82 104 33 7 67 
98 6 42 59 17 84 37 76 
99 7 40 8 72 5 64 68 75 
100 7 109 69 101 85 93 78 19 
101 7 85 19 22 109 93 11 55 
102 7 9 32 6 34 107 36 38 
103 7 81 12 20 10 67 57 28 
104 7 82 49 67 7 83 33 3 
105 7 18 63 16 48 73 28 111 
106 6 65 26 23 39 45 60 
107 7 34 102 31 9 55 6 32 
108 7 52 61 94 21 72 8 46 
109 7 100 69 101 85 78 93 22 
110 7 43 91 15 70 50 4 14 
111 7 3 57 48 7 33 28 73 
DEPOT_SECTION
   1
   -1
EOF
