NAME :  X-n1001-kX-w100-c7.cctp
COMMENT : 	Adapted by Maziero, Usberti and Cavellucci from the Uchoa, Pecin, Pessoa, Poggi, Subramanian, and Vidal (2013)
TYPE :  CCTP
DIMENSION :    540
EDGE_WEIGHT_TYPE : 	EUC_2D	
CAPACITY : 	131
VERTICES_WITHIN_COVERAGE :  7
VERTICES_WITH_DEMAND : 	100
NODE_COORD_SECTION
1 2 857
2 407 102
3 915 965
4 797 45
5 997 241
6 650 683
7 748 248
8 99 174
9 2 545
10 277 689
11 568 771
12 76 105
13 117 973
14 171 971
15 327 183
16 277 697
17 269 246
18 670 18
19 51 901
20 951 696
21 710 102
22 61 465
23 348 606
24 551 243
25 524 793
26 89 582
27 900 748
28 235 368
29 122 587
30 449 781
31 970 38
32 362 490
33 742 267
34 289 115
35 898 957
36 996 922
37 951 633
38 713 779
39 603 247
40 402 363
41 143 0
42 274 608
43 81 422
44 550 408
45 43 699
46 482 575
47 909 254
48 613 37
49 202 575
50 297 297
51 736 288
52 464 127
53 499 491
54 635 531
55 796 328
56 184 941
57 641 824
58 863 673
59 396 950
60 555 631
61 664 966
62 301 260
63 425 990
64 559 746
65 431 827
66 724 472
67 847 51
68 888 721
69 136 331
70 859 627
71 206 5
72 429 381
73 798 918
74 886 684
75 123 488
76 779 445
77 764 43
78 938 743
79 800 398
80 734 20
81 211 678
82 601 545
83 512 403
84 796 106
85 644 810
86 416 973
87 115 435
88 667 91
89 395 941
90 374 546
91 546 191
92 754 255
93 124 588
94 423 929
95 314 637
96 668 268
97 321 786
98 960 423
99 11 499
100 721 692
101 803 584
102 337 475
103 214 547
104 361 166
105 12 468
106 527 255
107 545 806
108 832 12
109 194 884
110 655 39
111 558 175
112 247 947
113 599 724
114 83 489
115 754 703
116 889 230
117 248 220
118 642 549
119 747 86
120 201 643
121 400 574
122 653 798
123 500 726
124 585 586
125 285 769
126 239 951
127 335 815
128 911 708
129 816 435
130 617 639
131 793 584
132 803 561
133 479 831
134 838 111
135 989 451
136 581 757
137 294 174
138 350 909
139 920 675
140 493 469
141 316 319
142 73 608
143 884 613
144 809 556
145 705 769
146 520 413
147 960 936
148 88 626
149 540 206
150 474 559
151 241 949
152 583 602
153 215 48
154 585 234
155 788 392
156 621 498
157 351 354
158 156 507
159 213 23
160 884 616
161 285 153
162 176 928
163 995 412
164 649 933
165 131 560
166 462 970
167 465 114
168 192 569
169 547 473
170 557 408
171 480 579
172 775 395
173 962 95
174 109 935
175 478 480
176 511 488
177 785 899
178 487 121
179 470 598
180 756 89
181 647 753
182 973 391
183 948 485
184 999 268
185 471 517
186 381 534
187 973 212
188 164 485
189 779 143
190 532 586
191 915 772
192 204 585
193 343 558
194 877 720
195 730 272
196 364 617
197 210 569
198 202 695
199 376 83
200 483 578
201 639 101
202 774 925
203 528 192
204 660 561
205 888 7
206 710 665
207 62 737
208 952 915
209 14 440
210 890 951
211 478 956
212 822 370
213 73 108
214 7 981
215 987 382
216 871 661
217 154 39
218 70 100
219 86 692
220 263 570
221 76 883
222 648 837
223 713 447
224 316 688
225 470 613
226 482 100
227 280 692
228 54 122
229 455 989
230 923 705
231 41 665
232 829 426
233 57 114
234 445 135
235 126 154
236 543 422
237 395 335
238 947 675
239 895 216
240 590 641
241 721 116
242 323 319
243 495 158
244 534 496
245 784 89
246 582 263
247 498 412
248 737 749
249 262 566
250 669 65
251 280 605
252 163 577
253 7 891
254 144 312
255 112 407
256 232 344
257 889 916
258 952 677
259 644 925
260 328 995
261 954 103
262 534 176
263 769 423
264 537 183
265 263 242
266 301 278
267 813 997
268 522 400
269 342 979
270 282 213
271 495 110
272 974 643
273 567 187
274 588 289
275 415 542
276 711 288
277 634 955
278 836 650
279 640 675
280 179 319
281 526 587
282 15 596
283 979 645
284 647 323
285 184 38
286 302 219
287 991 649
288 887 717
289 331 231
290 822 365
291 359 963
292 60 730
293 481 728
294 192 598
295 121 520
296 854 951
297 916 240
298 889 765
299 608 852
300 250 676
301 385 490
302 695 732
303 168 907
304 487 552
305 379 518
306 741 69
307 741 665
308 785 260
309 943 254
310 183 988
311 597 257
312 257 337
313 100 996
314 909 704
315 169 906
316 802 150
317 979 779
318 692 472
319 9 452
320 128 106
321 836 385
322 315 98
323 895 755
324 363 154
325 373 633
326 42 430
327 592 274
328 307 97
329 808 903
330 630 96
331 694 101
332 714 65
333 380 514
334 581 60
335 452 330
336 986 414
337 645 986
338 258 620
339 159 382
340 594 3
341 575 648
342 505 396
343 259 278
344 839 329
345 796 265
346 110 901
347 612 243
348 471 610
349 651 691
350 788 451
351 999 602
352 290 179
353 409 840
354 726 723
355 198 57
356 330 143
357 112 165
358 564 379
359 736 821
360 772 252
361 956 386
362 29 477
363 300 683
364 804 616
365 139 376
366 681 294
367 806 403
368 238 416
369 930 935
370 220 643
371 224 959
372 1 880
373 530 411
374 205 696
375 1 975
376 463 461
377 12 909
378 960 395
379 808 103
380 555 364
381 312 251
382 874 740
383 135 158
384 102 78
385 926 747
386 133 610
387 712 498
388 801 94
389 744 492
390 892 299
391 623 197
392 280 296
393 569 740
394 382 176
395 22 899
396 976 106
397 643 937
398 286 733
399 343 347
400 768 396
401 113 496
402 146 512
403 541 265
404 108 218
405 909 962
406 873 616
407 891 741
408 632 229
409 254 413
410 174 367
411 801 148
412 94 483
413 396 630
414 722 757
415 524 473
416 390 532
417 865 278
418 739 441
419 522 405
420 315 92
421 174 702
422 245 335
423 849 644
424 188 955
425 898 25
426 369 346
427 774 620
428 512 482
429 67 510
430 527 626
431 777 242
432 622 844
433 285 224
434 652 328
435 824 571
436 228 251
437 166 573
438 5 941
439 74 80
440 668 777
441 773 7
442 94 533
443 895 963
444 744 131
445 710 940
446 790 311
447 425 873
448 880 251
449 678 661
450 752 792
451 833 41
452 570 210
453 484 801
454 281 735
455 340 504
456 450 572
457 379 894
458 415 846
459 794 896
460 981 897
461 307 810
462 718 704
463 365 89
464 993 748
465 264 253
466 837 673
467 625 578
468 529 813
469 493 88
470 977 476
471 926 415
472 370 421
473 960 959
474 56 666
475 418 120
476 830 947
477 447 171
478 136 12
479 510 511
480 610 786
481 710 998
482 443 869
483 243 357
484 736 125
485 323 814
486 526 532
487 54 930
488 76 619
489 114 189
490 666 975
491 976 884
492 362 501
493 799 452
494 791 71
495 957 214
496 547 416
497 747 223
498 686 750
499 520 508
500 86 411
501 682 525
502 156 967
503 553 756
504 525 768
505 74 407
506 783 958
507 651 110
508 980 868
509 46 872
510 751 788
511 792 917
512 746 768
513 124 298
514 636 512
515 146 305
516 423 798
517 477 717
518 951 766
519 647 246
520 970 492
521 260 138
522 657 44
523 263 655
524 776 212
525 436 346
526 982 977
527 99 1000
528 927 947
529 714 685
530 858 581
531 988 225
532 576 24
533 520 801
534 86 528
535 671 77
536 944 270
537 951 622
538 412 813
539 732 304
540 532 201
DEMAND_SECTION
2 6
3 1
4 10
5 7
6 6
7 2
8 8
9 7
10 3
11 5
12 1
13 4
14 10
15 4
16 10
17 3
18 6
19 4
20 3
21 10
22 8
23 6
24 7
25 7
26 4
27 1
28 5
29 3
30 6
31 8
32 5
33 9
34 6
35 9
36 9
37 4
38 1
39 9
40 10
41 2
42 4
43 1
44 10
45 1
46 10
47 2
48 10
49 1
50 4
51 5
52 5
53 6
54 6
55 9
56 4
57 4
58 9
59 3
60 7
61 6
62 8
63 5
64 9
65 3
66 9
67 1
68 1
69 5
70 7
71 6
72 6
73 9
74 3
75 8
76 5
77 9
78 10
79 9
80 5
81 9
82 5
83 10
84 1
85 2
86 9
87 3
88 8
89 2
90 6
91 1
92 3
93 1
94 8
95 8
96 6
97 9
98 5
99 5
100 9
101 1
COVERAGE_SECTION
2 5 475 199 463 234 167 
3 7 405 35 443 528 210 369 473 
4 7 494 77 451 441 245 108 388 
5 5 531 184 187 495 309 
6 6 349 279 449 130 206 529 
7 7 92 33 360 497 195 431 308 
8 5 357 489 235 383 404 
9 7 99 282 362 429 105 534 319 
10 7 227 16 363 300 523 224 398 
11 7 136 503 64 393 107 504 480 
12 6 213 218 233 439 228 384 
13 7 313 527 174 502 14 310 346 
14 7 502 310 424 56 162 13 371 
15 7 137 352 104 356 286 324 289 
16 7 227 10 363 300 398 454 224 
17 7 265 465 433 117 343 62 270 
18 7 110 522 250 535 48 80 332 
19 7 395 487 509 221 377 253 372 
20 7 258 238 230 139 128 314 78 
21 6 331 241 484 332 119 88 
22 7 114 362 412 326 429 43 105 
23 6 196 325 95 193 413 121 
24 7 403 106 154 246 452 149 540 
25 7 533 468 107 504 453 503 11 
26 7 142 29 93 488 148 165 442 
27 7 323 407 298 385 382 191 68 
28 7 483 256 422 312 368 409 410 
29 7 93 386 165 26 252 437 148 
30 5 516 453 65 538 133 
31 5 173 261 396 425 205 
32 6 492 301 455 102 333 305 
33 7 195 92 7 51 360 276 539 
34 6 328 322 420 521 161 356 
35 7 443 210 405 3 528 369 257 
36 7 460 147 491 208 473 508 526 
37 7 537 272 283 238 287 258 139 
38 7 145 414 512 248 510 498 450 
39 7 347 311 154 246 327 408 519 
40 5 237 72 426 525 157 
41 4 478 217 285 71 
42 6 251 338 220 249 523 95 
43 6 500 505 255 87 326 22 
44 7 170 496 236 373 419 268 146 
45 5 231 292 474 207 219 
46 7 200 171 150 304 179 456 348 
47 7 297 448 116 309 536 239 390 
48 7 334 340 532 110 522 18 330 
49 7 192 197 168 294 103 437 252 
50 7 392 266 141 242 62 343 381 
51 7 539 195 33 276 92 7 360 
52 7 167 234 178 226 271 243 475 
53 7 176 428 140 479 175 499 415 
54 5 118 514 156 82 204 
55 4 446 344 290 212 
56 7 162 424 14 303 315 502 371 
57 5 85 222 432 122 299 
58 7 216 74 466 423 278 70 194 
59 7 89 86 94 291 63 457 269 
60 7 341 430 240 152 190 281 124 
61 7 490 337 277 164 397 259 445 
62 7 381 266 17 50 465 433 286 
63 7 86 229 166 59 89 94 211 
64 7 393 503 136 11 504 113 25 
65 6 538 458 353 516 482 447 
66 5 223 389 387 318 418 
67 7 451 108 4 425 494 205 134 
68 7 288 194 407 382 128 314 27 
69 5 254 515 513 280 365 
70 7 406 423 160 143 278 216 58 
71 6 159 285 153 355 217 41 
72 4 40 525 335 237 
73 5 511 329 459 177 202 
74 7 58 216 314 288 128 139 68 
75 7 401 412 295 402 158 114 188 
76 6 350 493 263 129 418 172 
77 7 4 306 441 80 494 119 180 
78 7 385 518 191 27 230 128 323 
79 7 367 155 172 400 212 321 129 
80 7 77 441 306 332 18 119 4 
81 6 198 374 120 370 300 421 
82 6 54 118 467 124 514 156 
83 7 268 342 419 146 247 373 236 
84 7 379 388 245 494 189 134 411 
85 7 57 122 222 432 440 480 299 
86 7 63 59 89 229 94 166 291 
87 6 255 43 500 505 412 75 
88 6 535 507 250 331 201 330 
89 7 59 94 86 291 457 138 63 
90 7 186 416 305 193 333 121 275 
91 7 264 149 540 203 262 111 273 
92 7 7 33 360 431 195 308 497 
93 7 29 386 165 26 252 437 148 
94 7 89 59 86 447 457 166 63 
95 7 23 251 363 42 224 196 523 
96 7 366 519 276 408 284 347 195 
97 4 461 485 127 125 
98 6 336 378 182 471 163 361 
99 7 362 105 9 319 429 209 22 
100 6 529 462 206 354 307 115 
101 6 131 132 435 144 364 427 
102 3 32 455 492 
103 4 197 49 168 192 
104 4 324 394 15 356 
105 7 319 362 209 99 326 22 429 
106 4 403 24 149 540 
107 7 468 25 533 11 504 503 136 
108 7 451 67 4 205 441 425 494 
109 4 315 303 162 56 
110 7 522 18 250 535 48 88 330 
111 6 273 91 264 262 203 149 
112 5 151 126 371 424 56 
113 7 393 136 64 11 181 503 349 
114 7 412 429 401 22 534 75 442 
115 2 354 100 
116 5 239 448 297 47 417 
117 5 265 17 270 433 436 
118 6 54 204 467 514 82 501 
119 7 180 306 245 332 21 241 484 
120 2 370 81 
121 5 275 90 416 186 456 
122 7 85 440 57 222 181 480 432 
123 5 293 517 504 503 64 
124 7 152 467 82 190 60 240 281 
125 5 454 398 97 461 485 
126 5 151 112 371 424 56 
127 3 485 461 97 
128 7 314 230 68 288 139 74 194 
129 7 232 493 350 367 76 79 263 
130 5 240 279 341 152 6 
131 6 101 132 144 364 435 427 
132 4 144 101 435 131 
133 3 453 65 533 
134 6 379 388 84 411 316 245 
135 7 470 336 163 98 520 183 182 
136 7 11 393 64 503 113 480 504 
137 5 352 161 15 270 286 
138 2 457 89 
139 7 238 230 314 258 128 74 20 
140 6 175 53 428 176 376 415 
141 7 242 50 399 392 266 157 426 
142 5 488 148 26 29 93 
143 6 160 406 70 530 423 216 
144 4 132 435 101 131 
145 7 38 414 498 248 302 440 512 
146 7 419 373 83 268 247 342 236 
147 7 208 473 369 528 36 460 526 
148 4 488 142 26 386 
149 7 540 91 203 264 452 262 273 
150 7 304 46 171 200 456 179 185 
151 5 126 112 371 424 56 
152 6 124 60 240 341 467 130 
153 5 355 159 285 71 217 
154 7 39 311 347 452 246 24 327 
155 7 79 172 400 367 263 212 290 
156 2 514 54 
157 6 399 426 242 237 141 40 
158 5 402 188 295 75 401 
159 5 71 153 285 355 217 
160 6 143 406 70 530 423 216 
161 4 137 352 521 34 
162 7 56 303 315 424 14 502 109 
163 7 336 182 215 98 135 378 361 
164 5 397 259 277 61 490 
165 6 29 93 252 437 295 442 
166 5 229 211 63 86 94 
167 7 52 226 178 234 271 469 475 
168 7 49 197 192 437 294 252 103 
169 6 415 244 428 176 499 53 
170 7 44 496 236 373 358 419 268 
171 7 200 46 150 179 304 456 348 
172 5 400 155 79 263 367 
173 3 261 396 31 
174 7 346 13 487 502 221 313 303 
175 6 140 53 376 176 428 185 
176 7 428 53 415 499 479 244 140 
177 5 459 511 73 329 202 
178 6 271 226 167 52 469 243 
179 7 348 225 171 200 46 456 150 
180 7 119 306 245 494 484 84 241 
181 7 440 498 122 480 302 113 85 
182 6 378 215 361 336 163 98 
183 4 520 470 135 98 
184 4 5 531 536 309 
185 6 53 175 304 479 150 176 
186 6 416 90 305 333 275 492 
187 4 495 531 5 309 
188 4 158 402 75 401 
189 5 411 316 444 84 484 
190 7 281 430 200 46 60 171 124 
191 7 323 298 385 27 518 78 407 
192 6 49 197 294 168 103 437 
193 7 90 186 23 305 416 455 333 
194 7 288 68 382 407 27 128 314 
195 7 33 51 276 92 7 539 360 
196 5 325 23 413 95 121 
197 6 49 192 168 103 294 437 
198 5 374 81 421 120 300 
199 4 463 2 475 420 
200 7 46 171 150 179 304 348 456 
201 3 330 507 88 
202 5 511 73 177 506 459 
203 6 540 264 262 91 149 111 
204 4 118 54 467 501 
205 6 425 108 67 451 31 4 
206 5 529 100 307 449 462 
207 2 292 45 
208 7 147 369 460 491 528 36 473 
209 6 319 105 326 362 22 99 
210 6 35 443 405 3 257 296 
211 3 166 229 94 
212 5 290 321 79 367 155 
213 6 12 218 233 228 439 384 
214 7 375 438 487 377 395 253 19 
215 6 182 378 163 361 336 98 
216 7 58 74 423 70 466 278 406 
217 4 285 478 41 355 
218 6 12 213 233 439 228 384 
219 3 474 45 292 
220 5 249 251 42 338 197 
221 5 19 509 346 487 395 
222 4 57 85 432 122 
223 3 66 418 318 
224 6 363 227 10 16 95 398 
225 5 348 179 171 200 46 
226 6 271 469 167 178 52 234 
227 7 10 16 363 300 224 398 523 
228 4 233 213 218 12 
229 5 166 63 211 86 94 
230 7 128 314 20 139 68 238 288 
231 5 474 45 219 488 148 
232 6 129 367 79 493 321 350 
233 5 228 213 218 12 439 
234 7 52 167 475 477 178 2 226 
235 5 383 357 8 489 320 
236 7 496 44 373 170 146 419 268 
237 4 426 40 525 157 
238 7 258 20 139 230 37 272 283 
239 4 116 297 448 47 
240 5 341 130 60 152 124 
241 6 484 21 444 331 119 180 
242 7 141 50 399 157 266 392 426 
243 3 178 262 52 
244 7 499 176 415 169 428 479 53 
245 7 388 494 84 180 379 119 4 
246 7 327 311 39 274 154 347 24 
247 7 83 342 146 419 268 373 236 
248 6 414 512 354 38 145 510 
249 5 220 251 42 103 197 
250 7 535 522 88 110 331 332 18 
251 7 42 338 220 249 95 523 23 
252 6 437 168 165 294 49 93 
253 6 372 395 377 509 19 438 
254 4 515 69 513 280 
255 5 500 87 43 505 365 
256 7 422 483 28 312 280 410 392 
257 2 210 35 
258 7 238 20 139 230 272 283 37 
259 4 164 397 277 61 
260 3 269 291 59 
261 3 173 396 31 
262 5 264 203 91 111 540 
263 6 76 400 172 350 418 155 
264 6 262 91 203 540 111 149 
265 7 17 465 117 433 270 343 436 
266 7 62 50 392 381 343 141 17 
267 5 506 476 296 73 202 
268 7 419 83 146 373 342 247 44 
269 3 260 291 59 
270 5 433 286 17 117 265 
271 5 178 226 469 167 52 
272 7 283 287 37 537 258 238 351 
273 7 111 91 452 264 149 262 540 
274 6 327 246 311 39 347 403 
275 5 416 121 186 90 305 
276 7 51 195 539 366 33 96 7 
277 5 397 164 61 259 337 
278 7 423 466 70 58 216 364 406 
279 5 6 349 449 130 240 
280 3 254 515 69 
281 7 190 430 200 46 171 304 60 
282 6 9 142 488 231 26 148 
283 7 272 287 37 537 258 238 351 
284 4 434 366 96 274 
285 5 355 217 153 159 71 
286 7 433 270 289 381 62 352 17 
287 7 283 272 37 258 351 537 238 
288 7 68 194 407 128 314 382 74 
289 6 381 286 62 433 15 270 
290 5 212 321 79 344 367 
291 5 269 59 89 260 138 
292 3 207 45 219 
293 4 517 123 504 30 
294 4 192 49 168 197 
295 7 401 402 442 75 534 158 165 
296 5 476 210 443 35 257 
297 6 47 116 309 239 448 536 
298 7 323 27 407 191 382 385 68 
299 2 432 57 
300 7 523 10 16 227 81 370 374 
301 6 32 333 492 305 416 186 
302 7 498 354 462 414 145 248 100 
303 6 315 162 109 56 424 346 
304 7 150 46 200 171 185 456 486 
305 7 333 186 416 492 90 301 32 
306 7 119 180 332 77 21 245 80 
307 4 206 100 529 115 
308 4 345 360 431 92 
309 5 536 297 47 495 187 
310 7 14 424 502 56 371 162 126 
311 7 39 246 327 347 154 274 408 
312 7 422 483 256 28 392 50 343 
313 7 527 13 174 502 14 487 310 
314 7 128 230 288 68 74 139 194 
315 6 303 162 109 56 424 346 
316 4 411 189 84 379 
317 4 518 464 78 385 
318 3 66 223 387 
319 6 209 105 362 326 99 22 
320 5 384 235 12 383 213 
321 4 212 290 367 79 
322 5 420 328 34 356 463 
323 7 27 298 407 191 382 385 68 
324 4 104 394 356 15 
325 3 196 413 23 
326 6 209 505 22 43 319 105 
327 7 246 274 311 39 347 154 24 
328 6 322 420 34 356 463 161 
329 4 459 73 511 177 
330 3 201 507 88 
331 6 21 88 241 535 332 250 
332 7 306 21 119 331 250 535 180 
333 6 305 186 416 492 301 32 
334 4 532 48 340 330 
335 3 525 72 237 
336 7 163 182 98 215 378 135 361 
337 5 490 61 277 397 164 
338 6 42 251 523 370 220 249 
339 4 365 410 255 69 
340 6 532 48 334 110 522 18 
341 6 240 60 130 152 430 124 
342 6 83 247 268 419 146 373 
343 7 465 392 17 265 436 50 266 
344 3 290 55 212 
345 4 308 360 431 92 
346 5 174 221 303 19 315 
347 7 39 311 408 154 519 246 327 
348 5 225 179 171 200 46 
349 7 6 279 449 302 113 130 181 
350 6 76 493 129 263 232 418 
351 6 283 272 287 537 37 258 
352 5 137 161 270 15 286 
353 4 458 65 538 447 
354 6 462 248 100 302 115 414 
355 5 153 285 159 217 71 
356 5 324 104 15 161 322 
357 5 8 235 383 489 404 
358 4 380 170 44 496 
359 3 450 510 38 
360 5 431 308 92 7 345 
361 4 378 182 215 98 
362 7 105 99 319 22 209 326 429 
363 7 224 227 10 16 523 95 300 
364 5 427 101 131 278 435 
365 4 339 410 255 69 
366 7 96 276 284 434 539 195 51 
367 7 79 155 172 232 129 321 212 
368 2 409 28 
369 6 528 147 208 3 405 473 
370 3 120 81 338 
371 7 126 151 112 424 56 310 14 
372 5 253 395 377 509 19 
373 7 146 419 268 236 496 44 83 
374 5 198 81 421 300 120 
375 7 214 438 377 487 395 253 19 
376 3 175 140 53 
377 7 395 253 372 438 19 487 509 
378 5 361 182 98 215 336 
379 7 388 84 245 134 494 411 316 
380 2 358 44 
381 7 62 289 266 286 433 17 50 
382 7 407 194 68 288 323 27 298 
383 4 235 357 489 8 
384 4 439 12 320 218 
385 7 78 27 191 518 323 407 298 
386 5 93 29 252 148 165 
387 5 66 318 389 501 223 
388 7 379 84 245 494 134 180 4 
389 3 66 387 418 
390 2 417 47 
391 6 408 347 154 39 452 519 
392 7 50 266 343 62 141 465 312 
393 7 64 136 503 11 113 504 480 
394 4 104 324 15 356 
395 7 377 253 372 19 509 438 487 
396 3 173 261 31 
397 5 164 259 277 61 490 
398 7 454 125 16 227 10 363 224 
399 6 157 426 242 141 237 40 
400 5 172 155 263 79 367 
401 7 75 412 295 114 402 442 534 
402 5 158 295 188 75 401 
403 4 106 24 246 327 
404 2 489 8 
405 7 3 35 443 210 528 369 257 
406 6 143 160 70 423 530 216 
407 7 27 323 382 68 288 298 194 
408 7 519 347 391 39 311 154 96 
409 2 368 28 
410 4 339 365 280 69 
411 4 316 189 84 379 
412 7 114 401 75 22 429 295 534 
413 3 325 196 23 
414 7 248 145 38 512 354 302 498 
415 6 428 176 169 244 53 140 
416 6 186 305 90 333 275 301 
417 3 448 390 47 
418 4 223 66 263 76 
419 7 268 146 83 373 342 247 236 
420 5 322 328 34 463 356 
421 3 198 374 81 
422 7 312 256 483 28 392 343 50 
423 7 278 70 216 466 58 406 160 
424 7 56 14 162 310 502 371 126 
425 6 205 67 108 451 31 173 
426 5 157 399 237 40 242 
427 3 364 131 101 
428 7 176 415 53 140 244 499 479 
429 7 114 534 442 412 22 401 362 
430 5 60 281 190 341 225 
431 4 360 308 92 7 
432 4 299 222 57 85 
433 7 270 286 17 265 465 117 381 
434 3 284 366 96 
435 5 144 132 101 131 530 
436 4 265 465 117 17 
437 6 252 168 49 294 165 192 
438 7 377 375 214 395 253 487 19 
439 5 218 12 213 384 233 
440 7 122 181 498 145 85 38 302 
441 7 77 80 4 108 494 451 306 
442 7 534 295 429 401 114 165 26 
443 6 35 210 405 3 528 296 
444 6 484 241 189 180 21 119 
445 3 61 490 481 
446 6 55 345 308 344 539 51 
447 5 482 458 353 65 457 
448 6 116 47 417 239 297 390 
449 5 206 6 279 349 529 
450 7 510 512 359 38 248 414 145 
451 7 67 108 4 494 388 205 379 
452 7 273 154 149 91 111 24 540 
453 6 133 533 30 25 468 504 
454 7 398 125 16 227 10 363 224 
455 5 492 32 102 305 333 
456 5 150 171 46 179 200 
457 3 138 89 447 
458 5 353 65 447 538 482 
459 4 177 329 511 73 
460 5 491 36 508 208 147 
461 4 485 97 127 125 
462 6 100 529 354 115 302 206 
463 4 199 2 420 322 
464 5 317 518 78 20 385 
465 7 17 265 343 433 436 117 62 
466 6 278 58 423 216 74 70 
467 6 118 204 82 124 54 152 
468 5 533 107 25 504 453 
469 5 226 271 178 167 52 
470 6 520 135 183 98 336 163 
471 1 98 
472 2 102 40 
473 7 147 526 528 369 3 208 405 
474 5 231 45 219 148 488 
475 5 2 234 52 167 199 
476 5 296 73 506 511 329 
477 4 234 52 243 475 
478 2 41 217 
479 7 499 53 176 486 244 428 185 
480 7 136 85 11 122 57 181 432 
481 4 490 61 445 337 
482 5 447 458 65 353 133 
483 6 28 256 422 312 409 368 
484 6 444 241 21 119 180 189 
485 3 127 461 97 
486 7 499 479 244 304 176 53 428 
487 7 19 395 377 438 221 174 509 
488 5 142 148 26 474 29 
489 5 8 357 404 235 383 
490 7 61 337 277 397 164 481 259 
491 5 460 508 208 36 147 
492 7 32 333 455 305 301 102 186 
493 5 350 76 129 232 263 
494 7 245 388 4 84 379 77 180 
495 5 187 531 309 5 297 
496 7 236 44 170 373 146 419 268 
497 6 7 524 92 431 360 33 
498 7 302 145 440 414 181 38 354 
499 7 479 244 176 486 53 428 415 
500 4 43 505 255 87 
501 4 387 204 54 118 
502 7 14 310 424 56 13 162 174 
503 7 64 11 393 136 504 25 107 
504 7 25 503 533 64 11 107 468 
505 4 500 43 255 326 
506 5 202 511 73 476 267 
507 3 201 88 330 
508 4 491 460 208 36 
509 5 19 221 395 253 372 
510 7 450 512 359 38 248 414 145 
511 5 73 177 202 329 459 
512 6 248 510 450 414 38 145 
513 3 515 254 69 
514 2 54 156 
515 3 254 513 69 
516 5 538 65 30 353 458 
517 3 293 123 30 
518 6 78 317 385 191 464 27 
519 7 408 96 347 39 311 391 366 
520 5 470 183 135 98 336 
521 2 161 34 
522 7 110 250 18 535 48 88 330 
523 7 300 338 10 227 16 370 363 
524 4 431 497 360 7 
525 4 335 72 40 237 
526 7 473 147 36 528 369 3 208 
527 7 313 13 174 502 14 487 310 
528 7 369 3 405 35 147 473 443 
529 7 100 462 206 307 354 449 115 
530 5 435 406 143 160 70 
531 5 5 187 495 184 309 
532 3 340 334 48 
533 6 25 468 107 504 453 133 
534 7 442 429 295 114 401 412 26 
535 7 250 88 331 522 507 201 110 
536 3 309 47 297 
537 7 37 272 283 287 351 238 258 
538 4 516 65 353 458 
539 7 51 276 195 33 366 92 7 
540 6 149 203 91 264 262 111 
DEPOT_SECTION
   1
   -1
EOF
