NAME :  X-n167-kX-w16-c7.cctp
COMMENT : 	Adapted by Maziero, Usberti and Cavellucci from the Uchoa, Pecin, Pessoa, Poggi, Subramanian, and Vidal (2013)
TYPE :  CCTP
DIMENSION :    87
EDGE_WEIGHT_TYPE : 	EUC_2D	
CAPACITY : 	133
VERTICES_WITHIN_COVERAGE :  7
VERTICES_WITH_DEMAND : 	16
NODE_COORD_SECTION
1 0 0
2 832 885
3 777 632
4 406 257
5 620 467
6 58 70
7 116 423
8 104 445
9 714 722
10 188 503
11 856 594
12 932 448
13 749 982
14 818 889
15 377 493
16 337 419
17 772 605
18 373 448
19 610 417
20 988 324
21 110 550
22 791 590
23 785 614
24 321 305
25 804 556
26 939 685
27 948 479
28 309 141
29 269 351
30 251 512
31 897 572
32 316 461
33 825 529
34 510 453
35 778 928
36 254 539
37 167 28
38 64 165
39 249 525
40 990 375
41 833 561
42 713 485
43 489 204
44 815 905
45 286 204
46 864 397
47 918 632
48 395 570
49 87 97
50 893 805
51 82 392
52 349 360
53 138 560
54 398 467
55 92 22
56 127 74
57 727 975
58 755 589
59 975 954
60 802 744
61 248 369
62 868 476
63 275 194
64 930 933
65 233 587
66 198 35
67 312 573
68 694 813
69 446 264
70 586 483
71 967 362
72 194 330
73 846 717
74 32 487
75 250 367
76 989 392
77 473 274
78 762 800
79 917 560
80 606 445
81 427 571
82 168 479
83 679 371
84 354 415
85 638 444
86 243 535
87 796 796
DEMAND_SECTION
2 6
3 9
4 7
5 5
6 9
7 5
8 9
9 7
10 10
11 8
12 6
13 5
14 9
15 8
16 9
17 10
COVERAGE_SECTION
2 7 14 44 35 87 50 64 78 
3 7 23 17 22 58 25 11 41 
4 6 69 77 24 43 52 45 
5 6 80 85 70 19 42 34 
6 6 49 55 56 38 37 66 
7 7 8 51 82 74 10 72 21 
8 7 7 51 82 74 10 21 53 
9 7 60 78 68 3 87 23 17 
10 7 82 30 86 39 36 53 21 
11 7 41 31 25 22 79 33 47 
12 7 27 62 76 46 40 71 79 
13 5 57 35 44 14 2 
14 7 2 44 35 87 78 50 13 
15 7 54 18 32 48 84 16 81 
16 7 84 18 32 52 54 15 29 
17 7 23 58 22 3 25 41 11 
18 7 54 84 15 16 32 52 48 
19 7 80 85 5 70 83 34 42 
20 5 71 40 76 12 46 
21 3 53 10 82 
22 7 17 23 25 58 3 41 11 
23 7 17 3 22 58 25 41 11 
24 6 52 29 75 61 4 45 
25 6 41 33 22 17 58 23 
26 7 47 73 31 11 79 50 60 
27 7 12 62 79 76 31 40 46 
28 3 63 45 4 
29 7 75 61 24 72 52 16 84 
30 7 39 86 36 10 65 32 67 
31 7 79 11 47 41 33 25 62 
32 7 16 18 84 15 54 30 39 
33 5 41 25 62 22 11 
34 5 70 80 19 5 54 
35 7 44 14 13 2 57 78 87 
36 7 86 39 30 65 67 10 32 
37 5 66 56 55 49 6 
38 5 49 6 56 55 37 
39 7 86 30 36 65 10 67 32 
40 6 76 71 20 12 27 46 
41 6 25 33 11 22 31 23 
42 4 85 5 58 80 
43 3 77 69 4 
44 7 14 2 35 13 87 57 64 
45 4 63 28 24 4 
46 3 62 12 71 
47 7 26 31 79 11 41 73 22 
48 5 81 15 67 54 18 
49 6 6 56 38 55 37 66 
50 7 87 73 2 60 14 44 26 
51 7 7 8 74 82 72 10 21 
52 7 84 16 24 29 18 75 61 
53 4 21 10 82 65 
54 7 18 15 84 16 32 48 81 
55 6 6 56 37 49 66 38 
56 6 49 37 55 6 66 38 
57 5 13 35 44 14 2 
58 7 17 22 23 3 25 41 33 
59 7 64 2 44 14 50 35 13 
60 7 73 87 78 9 50 3 68 
61 7 75 29 72 24 52 16 32 
62 4 33 12 46 27 
63 4 45 28 24 4 
64 7 59 2 44 14 50 35 13 
65 6 36 86 39 30 67 10 
66 5 37 56 55 49 6 
67 7 36 39 86 65 48 30 15 
68 3 78 9 87 
69 4 77 4 43 24 
70 5 5 80 85 19 34 
71 6 40 76 20 12 46 27 
72 6 61 75 29 7 51 24 
73 7 60 87 26 50 3 47 78 
74 4 8 21 7 51 
75 7 61 29 72 24 52 16 32 
76 6 40 71 20 12 27 46 
77 3 69 4 43 
78 7 87 60 68 9 14 2 44 
79 7 31 11 47 41 27 33 62 
80 6 5 19 85 70 34 83 
81 4 48 15 54 67 
82 7 10 8 7 53 30 21 39 
83 5 19 85 80 5 42 
84 7 16 18 52 32 54 15 29 
85 6 5 80 19 70 83 42 
86 7 36 39 30 65 10 67 82 
87 7 78 60 73 2 14 50 68 
DEPOT_SECTION
   1
   -1
EOF
