NAME :  X-n139-kX-w55-c11.cctp
COMMENT : 	Adapted by Maziero, Usberti and Cavellucci from the Uchoa, Pecin, Pessoa, Poggi, Subramanian, and Vidal (2013)
TYPE :  CCTP
DIMENSION :    137
EDGE_WEIGHT_TYPE : 	EUC_2D	
CAPACITY : 	106
VERTICES_WITHIN_COVERAGE :  11
VERTICES_WITH_DEMAND : 	55
NODE_COORD_SECTION
1 500 500
2 645 7
3 720 867
4 513 499
5 208 766
6 976 884
7 991 864
8 596 532
9 765 632
10 270 818
11 223 552
12 871 193
13 825 816
14 128 518
15 802 281
16 786 635
17 435 675
18 976 204
19 563 43
20 870 774
21 348 458
22 566 113
23 295 969
24 229 790
25 515 805
26 482 998
27 241 830
28 47 633
29 594 244
30 635 626
31 597 538
32 86 516
33 444 697
34 763 281
35 12 649
36 187 417
37 630 975
38 934 263
39 88 855
40 768 582
41 916 277
42 40 387
43 881 490
44 325 20
45 771 700
46 308 482
47 397 30
48 934 7
49 869 723
50 788 896
51 100 591
52 746 587
53 584 721
54 859 990
55 403 428
56 493 63
57 496 458
58 728 641
59 174 440
60 986 511
61 887 589
62 931 743
63 234 663
64 608 268
65 239 159
66 832 704
67 857 776
68 828 438
69 744 105
70 122 949
71 270 596
72 687 391
73 790 753
74 323 417
75 152 585
76 472 319
77 282 64
78 138 342
79 391 452
80 87 413
81 676 362
82 314 108
83 713 127
84 638 532
85 507 797
86 720 264
87 630 720
88 326 566
89 610 371
90 847 833
91 576 429
92 58 295
93 145 103
94 141 976
95 564 716
96 946 889
97 100 526
98 503 496
99 684 811
100 800 409
101 794 190
102 784 339
103 603 208
104 637 306
105 369 159
106 288 88
107 70 168
108 177 924
109 300 515
110 275 468
111 408 217
112 343 995
113 889 853
114 455 846
115 20 645
116 760 141
117 763 785
118 494 727
119 889 11
120 254 378
121 381 438
122 508 257
123 70 637
124 361 611
125 529 957
126 570 727
127 204 110
128 813 135
129 820 999
130 201 62
131 5 787
132 48 135
133 881 333
134 767 284
135 709 189
136 427 864
137 538 248
DEMAND_SECTION
2 10
3 10
4 5
5 9
6 8
7 5
8 5
9 8
10 6
11 8
12 10
13 9
14 9
15 8
16 9
17 5
18 10
19 7
20 6
21 9
22 10
23 6
24 10
25 5
26 8
27 6
28 8
29 5
30 6
31 5
32 7
33 10
34 9
35 7
36 5
37 9
38 6
39 8
40 9
41 5
42 9
43 9
44 5
45 5
46 6
47 7
48 6
49 9
50 5
51 8
52 9
53 8
54 8
55 7
56 9
COVERAGE_SECTION
2 11 19 22 83 69 56 116 135 103 128 101 29 
3 11 99 50 117 13 90 73 37 67 129 113 87 
4 11 98 57 8 31 91 84 55 79 121 89 21 
5 11 24 27 10 63 39 108 71 75 123 70 131 
6 11 7 96 113 90 62 20 54 67 13 50 49 
7 11 6 96 113 62 90 20 67 13 54 49 50 
8 11 31 84 4 98 30 91 57 52 89 72 58 
9 11 16 58 52 40 45 66 73 61 30 49 117 
10 11 27 24 5 108 23 63 136 39 114 112 70 
11 11 71 75 109 110 14 88 46 63 59 97 51 
12 11 101 128 38 41 18 15 116 134 34 133 69 
13 11 90 67 20 117 73 113 50 49 66 3 45 
14 11 97 32 75 51 59 11 80 36 123 28 110 
15 11 134 34 102 86 101 133 12 41 100 135 38 
16 11 9 40 58 52 45 66 61 73 49 30 117 
17 11 33 118 124 95 85 126 25 88 53 114 71 
18 11 38 41 12 133 128 101 15 48 119 134 116 
19 11 22 56 2 47 103 83 69 29 135 137 116 
20 11 67 49 13 90 62 66 113 73 117 45 96 
21 11 121 79 46 74 55 110 109 88 120 57 124 
22 11 19 56 103 2 29 137 83 122 64 135 69 
23 11 112 108 27 10 94 136 70 26 24 114 5 
24 11 5 27 10 63 108 39 23 70 71 94 136 
25 11 85 114 118 126 95 136 53 33 87 17 125 
26 11 125 112 136 37 114 23 25 85 118 3 99 
27 11 10 24 5 108 23 39 63 70 94 136 112 
28 11 123 115 35 51 75 97 32 14 131 63 11 
29 11 64 103 137 104 122 135 86 89 22 76 81 
30 11 58 84 87 31 8 53 95 52 126 9 40 
31 11 8 84 4 30 98 91 57 52 58 89 72 
32 11 97 14 51 75 80 59 123 28 42 36 11 
33 11 17 118 85 124 95 25 126 53 114 136 88 
34 11 134 15 86 102 101 135 81 104 133 100 72 
35 11 115 28 123 51 131 97 32 75 14 39 63 
36 11 59 120 78 80 110 14 74 46 97 11 32 
37 11 125 3 26 99 50 129 25 85 114 54 136 
38 11 41 18 133 12 15 101 102 134 34 128 100 
39 11 70 131 108 94 5 24 27 10 123 35 115 
40 11 52 9 16 58 45 61 66 84 30 43 68 
41 11 38 133 18 12 15 102 134 101 34 128 100 
42 10 80 92 78 32 59 36 97 14 51 120 
43 11 68 61 60 100 40 133 52 16 102 9 58 
44 11 77 47 106 82 130 105 127 65 56 93 111 
45 11 73 66 16 9 58 117 49 67 52 40 20 
46 11 109 110 21 74 121 88 79 55 11 120 71 
47 11 44 56 82 77 106 105 19 111 22 130 65 
48 11 119 128 12 18 69 116 101 83 38 41 2 
49 11 66 20 67 62 73 45 13 90 16 117 113 
50 11 3 90 13 129 113 117 54 99 67 73 20 
51 11 75 123 97 28 32 14 115 35 11 63 59 
52 11 40 9 58 16 45 30 84 61 66 31 8 
53 11 126 95 87 118 30 85 25 99 33 17 58 
54 11 129 50 96 113 90 6 13 7 3 67 20 
55 11 121 79 21 74 57 46 98 76 4 110 109 
56 11 19 22 47 105 2 44 111 103 82 137 122 
57 11 98 4 91 55 79 121 8 31 76 89 21 
58 11 9 52 16 40 45 30 66 87 73 84 117 
59 11 36 14 80 120 78 110 97 32 11 46 42 
60 11 43 61 68 133 100 40 16 62 49 41 66 
61 11 43 16 40 60 66 9 49 52 62 45 68 
62 11 49 20 67 66 113 90 13 7 73 96 6 
63 11 71 5 11 75 24 88 124 51 10 109 123 
64 11 29 104 103 137 122 89 86 81 135 76 72 
65 9 127 106 82 77 130 93 105 44 107 
66 11 49 45 73 67 20 16 9 62 117 13 58 
67 11 20 13 49 90 73 66 62 113 117 45 50 
68 11 100 43 102 133 72 40 15 61 134 34 52 
69 11 83 116 128 135 101 2 12 86 119 103 34 
70 11 94 108 39 27 23 24 10 131 5 112 63 
71 11 11 88 63 109 124 75 46 110 21 14 51 
72 11 81 89 104 102 100 91 86 34 134 64 68 
73 11 117 45 66 67 13 20 49 90 16 99 9 
74 11 21 121 46 110 79 120 55 109 36 88 59 
75 11 51 14 11 97 32 123 63 28 71 115 59 
76 11 122 137 111 55 57 29 64 89 121 91 79 
77 10 106 82 44 130 127 65 47 105 93 111 
78 10 80 36 92 59 42 120 14 32 110 107 
79 11 121 55 21 74 46 57 109 110 98 4 88 
80 11 42 78 59 36 32 14 97 92 120 51 75 
81 11 72 89 104 86 102 64 34 91 134 100 29 
82 10 106 77 105 44 65 127 47 130 111 93 
83 11 69 116 135 128 101 86 103 2 22 34 134 
84 11 31 8 30 91 52 4 40 98 58 72 57 
85 11 25 114 118 126 95 136 53 33 17 87 125 
86 11 34 134 135 15 104 102 101 81 64 29 116 
87 11 53 126 95 30 99 58 118 45 25 85 117 
88 11 109 124 71 46 11 21 110 79 63 121 74 
89 11 81 91 104 72 64 29 57 137 76 86 122 
90 11 13 113 67 20 50 117 73 49 96 62 66 
91 11 89 57 4 98 8 31 72 81 84 104 76 
92 10 78 42 80 107 132 36 59 93 120 32 
93 10 127 130 107 132 65 77 106 82 44 92 
94 11 70 108 39 23 27 112 10 24 5 131 136 
95 11 126 53 87 118 85 25 30 33 17 99 114 
96 11 6 7 113 90 54 20 13 67 62 50 129 
97 11 32 14 51 75 59 80 123 28 11 36 115 
98 11 4 57 91 8 31 79 55 121 84 21 89 
99 11 3 117 87 73 50 53 13 45 126 95 90 
100 11 68 102 133 72 43 15 134 34 81 86 40 
101 11 128 116 12 135 15 34 134 69 83 86 102 
102 11 134 15 34 100 133 86 68 72 81 41 101 
103 11 29 64 137 22 104 122 135 86 83 89 19 
104 11 64 81 89 29 86 72 103 137 34 134 91 
105 10 111 82 106 77 65 47 44 56 122 127 
106 9 77 82 44 65 127 130 105 47 93 
107 10 132 93 92 127 65 130 78 42 106 77 
108 11 70 94 39 27 23 10 24 5 112 131 136 
109 11 46 110 88 21 11 71 74 79 121 124 55 
110 11 46 109 74 21 120 11 36 59 88 121 79 
111 10 105 122 76 137 82 56 106 65 47 29 
112 11 23 26 136 108 114 125 10 27 94 70 24 
113 11 90 96 13 20 67 6 7 50 62 49 54 
114 11 136 85 25 118 125 33 26 126 95 17 53 
115 11 35 28 123 51 97 131 32 75 14 63 39 
116 11 69 83 128 101 135 12 86 34 134 15 103 
117 11 73 13 99 45 3 67 90 66 20 50 49 
118 11 33 85 95 126 17 25 53 114 87 136 30 
119 11 48 128 69 12 116 101 83 18 2 135 38 
120 9 36 74 110 59 46 78 21 121 109 
121 11 79 55 21 74 46 110 109 57 98 88 120 
122 11 137 76 29 64 103 111 104 89 22 105 91 
123 11 28 115 51 35 75 97 32 14 131 63 11 
124 11 88 71 17 109 33 63 46 11 21 79 110 
125 11 26 37 114 136 25 85 112 3 99 118 23 
126 11 95 53 87 118 85 25 30 33 99 17 114 
127 10 130 93 65 106 77 82 107 44 132 105 
128 11 116 101 69 12 83 135 119 15 34 134 86 
129 11 54 50 113 3 96 90 13 37 6 7 117 
130 10 127 93 77 106 65 82 44 107 132 105 
131 11 39 35 115 28 123 70 5 51 108 24 94 
132 10 107 93 127 92 130 65 78 77 106 42 
133 11 41 38 15 102 100 68 134 34 12 43 18 
134 11 34 15 86 102 101 135 81 133 100 104 72 
135 11 83 116 86 101 69 34 103 134 128 29 64 
136 11 114 85 25 125 26 118 112 10 33 23 17 
137 11 122 29 64 103 76 104 111 22 89 81 135 
DEPOT_SECTION
   1
   -1
EOF
