NAME :  X-n176-kX-w35-c7.cctp
COMMENT : 	Adapted by Maziero, Usberti and Cavellucci from the Uchoa, Pecin, Pessoa, Poggi, Subramanian, and Vidal (2013)
TYPE :  CCTP
DIMENSION :    161
EDGE_WEIGHT_TYPE : 	EUC_2D	
CAPACITY : 	142
VERTICES_WITHIN_COVERAGE :  7
VERTICES_WITH_DEMAND : 	35
NODE_COORD_SECTION
1 0 0
2 628 103
3 291 573
4 129 447
5 973 643
6 830 868
7 398 563
8 731 423
9 201 995
10 167 174
11 13 605
12 446 262
13 229 774
14 740 231
15 21 546
16 224 615
17 605 837
18 473 759
19 758 880
20 93 900
21 580 935
22 622 494
23 513 236
24 659 797
25 606 204
26 267 688
27 28 888
28 606 754
29 841 676
30 823 611
31 1 247
32 195 486
33 644 771
34 524 45
35 581 366
36 769 471
37 78 800
38 867 441
39 243 453
40 410 464
41 465 161
42 417 304
43 616 944
44 609 356
45 822 489
46 738 932
47 462 718
48 847 459
49 563 619
50 792 940
51 434 318
52 1000 647
53 566 413
54 492 83
55 764 550
56 145 182
57 540 249
58 208 760
59 759 988
60 66 221
61 520 521
62 260 508
63 307 468
64 747 308
65 421 505
66 373 597
67 876 881
68 419 69
69 502 242
70 343 764
71 275 610
72 434 161
73 744 675
74 698 364
75 600 881
76 9 893
77 875 724
78 728 253
79 502 969
80 867 464
81 237 907
82 868 263
83 680 306
84 740 688
85 450 898
86 126 415
87 565 260
88 172 126
89 137 674
90 789 958
91 853 147
92 762 111
93 416 626
94 63 237
95 194 75
96 616 133
97 104 804
98 304 699
99 758 40
100 249 141
101 848 770
102 791 803
103 884 980
104 618 107
105 858 644
106 116 388
107 939 880
108 217 912
109 138 217
110 639 588
111 542 965
112 775 294
113 839 459
114 21 751
115 248 883
116 34 101
117 274 824
118 408 641
119 838 846
120 938 432
121 913 766
122 758 816
123 481 156
124 548 809
125 660 393
126 773 579
127 380 849
128 433 893
129 295 480
130 277 519
131 833 970
132 760 470
133 33 455
134 289 176
135 283 845
136 953 937
137 2 939
138 164 71
139 539 756
140 679 880
141 857 842
142 184 455
143 181 70
144 136 928
145 657 422
146 248 593
147 525 519
148 109 805
149 754 487
150 484 90
151 923 157
152 74 961
153 261 663
154 984 135
155 281 227
156 673 176
157 78 322
158 177 543
159 590 199
160 559 609
161 9 343
DEMAND_SECTION
2 94
3 65
4 69
5 89
6 74
7 95
8 87
9 96
10 56
11 94
12 79
13 91
14 75
15 54
16 97
17 93
18 81
19 100
20 75
21 56
22 71
23 100
24 54
25 100
26 62
27 51
28 58
29 79
30 65
31 52
32 65
33 65
34 59
35 77
36 89
COVERAGE_SECTION
2 7 104 96 156 25 159 34 92 
3 7 71 146 130 62 16 66 129 
4 7 86 142 106 32 133 158 39 
5 6 52 105 77 29 121 30 
6 7 119 141 67 19 102 50 122 
7 7 66 65 93 118 40 3 61 
8 7 132 36 74 149 145 125 45 
9 7 108 144 81 115 152 20 135 
10 7 56 88 109 100 95 138 143 
11 5 15 89 114 133 158 
12 7 42 51 69 23 57 72 41 
13 7 58 117 135 26 98 115 70 
14 7 78 112 64 156 83 92 82 
15 7 11 133 4 158 86 89 32 
16 7 146 71 153 3 26 158 89 
17 7 75 124 24 33 28 140 21 
18 7 47 139 124 127 70 28 118 
19 7 46 122 50 6 140 90 102 
20 7 144 152 27 76 148 97 137 
21 7 43 111 75 79 17 140 124 
22 7 145 110 53 147 61 125 8 
23 7 69 57 87 12 159 123 41 
24 7 33 17 28 140 122 75 124 
25 7 159 87 96 156 57 23 104 
26 7 153 98 71 16 58 13 146 
27 7 76 137 20 152 37 97 144 
28 7 33 139 24 124 17 75 18 
29 7 105 77 30 101 73 84 121 
30 7 105 126 29 55 73 84 45 
31 7 94 60 161 157 109 116 56 
32 7 142 39 158 62 4 130 86 
33 7 24 28 17 124 139 140 75 
34 7 54 150 68 104 2 123 96 
35 7 44 53 125 145 87 83 74 
36 7 132 149 45 8 113 48 55 
37 5 97 148 114 20 27 
38 7 80 48 113 45 120 36 132 
39 6 32 62 129 142 63 130 
40 6 65 7 63 129 61 147 
41 6 123 72 150 54 23 69 
42 6 51 12 69 23 57 72 
43 7 21 75 111 140 17 79 46 
44 7 35 125 53 145 83 74 87 
45 7 113 48 80 36 132 38 149 
46 7 50 19 90 59 140 131 6 
47 6 18 139 118 93 124 70 
48 7 113 80 38 45 36 132 120 
49 6 160 110 61 147 22 139 
50 7 90 131 46 59 19 6 103 
51 6 42 12 69 23 57 87 
52 6 5 105 77 121 29 30 
53 7 35 44 145 125 22 147 61 
54 7 150 34 68 123 41 72 104 
55 7 126 149 36 132 45 30 113 
56 7 10 109 88 60 94 100 138 
57 7 87 23 69 159 25 12 123 
58 6 13 117 26 148 153 89 
59 7 90 50 46 131 19 103 140 
60 7 94 31 109 56 157 10 116 
61 6 147 160 65 22 49 53 
62 7 130 129 39 63 32 3 146 
63 6 129 130 62 39 40 3 
64 7 112 78 83 74 14 8 125 
65 7 40 7 61 66 147 63 93 
66 7 7 93 118 3 71 65 98 
67 7 141 6 119 107 136 103 131 
68 6 150 54 72 41 123 34 
69 7 23 57 12 87 41 123 159 
70 7 98 117 127 135 26 13 47 
71 7 146 3 16 153 26 130 98 
72 6 41 123 150 68 54 12 
73 7 84 29 126 30 105 55 102 
74 7 125 83 8 145 64 44 112 
75 7 17 21 43 140 124 111 24 
76 7 27 137 20 152 37 97 144 
77 6 101 121 29 105 102 141 
78 7 14 64 112 83 156 74 25 
79 7 111 21 85 128 43 75 124 
80 7 48 38 113 45 120 36 132 
81 7 108 115 135 117 9 144 13 
82 6 112 91 151 64 14 78 
83 7 74 64 78 44 125 14 112 
84 7 73 29 30 126 102 105 33 
85 7 128 127 79 111 124 21 18 
86 7 106 4 142 32 133 157 39 
87 7 57 23 69 159 25 44 35 
88 6 10 95 138 143 56 100 
89 5 16 58 153 26 97 
90 7 50 59 131 46 19 103 6 
91 7 151 92 82 154 14 99 78 
92 7 99 91 156 14 2 104 78 
93 6 118 66 7 47 65 98 
94 7 60 31 109 157 56 161 10 
95 5 143 138 88 100 10 
96 7 104 2 156 159 25 34 54 
97 5 148 37 20 114 27 
98 7 26 153 70 71 13 58 16 
99 7 92 91 2 104 156 96 14 
100 4 134 88 95 10 
101 6 77 121 102 141 119 29 
102 7 122 119 101 6 141 19 67 
103 7 131 136 90 67 50 107 6 
104 7 2 96 156 159 25 34 54 
105 7 29 30 77 126 5 73 84 
106 7 86 4 157 142 133 161 32 
107 6 136 67 141 119 6 103 
108 7 81 115 144 9 135 117 20 
109 7 56 10 60 94 88 157 100 
110 6 49 160 22 55 147 126 
111 7 79 21 43 75 85 128 17 
112 7 64 78 14 83 82 74 8 
113 7 48 80 38 45 36 132 149 
114 5 37 97 148 27 89 
115 7 81 108 135 117 13 9 144 
116 6 60 138 56 94 88 31 
117 7 135 115 13 70 81 58 108 
118 6 93 66 7 47 98 3 
119 7 141 6 67 102 101 122 19 
120 6 38 80 48 113 45 36 
121 6 77 101 141 119 29 107 
122 7 102 19 119 6 24 101 140 
123 7 41 72 150 54 23 69 68 
124 7 139 17 28 75 18 33 24 
125 7 145 74 44 8 35 83 53 
126 7 55 30 149 73 45 105 36 
127 7 128 85 70 135 117 18 115 
128 7 85 127 79 111 18 124 21 
129 6 63 130 62 39 3 32 
130 7 62 129 3 63 39 146 32 
131 7 90 50 103 59 67 6 46 
132 7 36 149 8 45 55 113 48 
133 7 15 4 86 106 161 157 11 
134 3 155 100 10 
135 7 117 115 81 13 108 127 70 
136 7 107 103 67 131 141 6 119 
137 7 76 27 152 20 144 37 97 
138 5 143 95 88 10 100 
139 7 124 18 28 47 17 33 24 
140 7 19 46 75 24 17 43 122 
141 7 119 6 67 101 102 107 121 
142 7 32 4 39 86 158 62 106 
143 5 95 138 88 100 10 
144 7 20 152 108 9 81 27 115 
145 7 125 74 8 22 44 53 35 
146 7 71 16 3 153 130 62 158 
147 6 61 160 22 65 49 53 
148 5 97 37 20 114 58 
149 7 132 36 55 8 45 113 126 
150 6 54 34 123 68 41 72 
151 6 154 91 82 92 14 99 
152 7 20 144 137 27 76 9 108 
153 7 26 71 98 16 146 3 58 
154 6 151 91 82 92 99 14 
155 3 134 100 10 
156 7 96 25 2 159 14 104 78 
157 7 161 106 94 60 86 31 109 
158 7 32 16 146 142 62 130 4 
159 7 25 87 57 96 23 156 104 
160 6 49 110 61 147 22 93 
161 7 157 31 133 106 94 60 86 
DEPOT_SECTION
   1
   -1
EOF
