NAME :  X-n139-kX-w13-c9.cctp
COMMENT : 	Adapted by Maziero, Usberti and Cavellucci from the Uchoa, Pecin, Pessoa, Poggi, Subramanian, and Vidal (2013)
TYPE :  CCTP
DIMENSION :    88
EDGE_WEIGHT_TYPE : 	EUC_2D	
CAPACITY : 	106
VERTICES_WITHIN_COVERAGE :  9
VERTICES_WITH_DEMAND : 	13
NODE_COORD_SECTION
1 500 500
2 645 7
3 720 867
4 513 499
5 208 766
6 976 884
7 991 864
8 596 532
9 765 632
10 270 818
11 223 552
12 871 193
13 825 816
14 128 518
15 802 281
16 786 635
17 976 204
18 563 43
19 870 774
20 566 113
21 295 969
22 229 790
23 241 830
24 47 633
25 635 626
26 597 538
27 86 516
28 12 649
29 187 417
30 630 975
31 934 263
32 88 855
33 768 582
34 916 277
35 40 387
36 771 700
37 308 482
38 934 7
39 869 723
40 788 896
41 100 591
42 746 587
43 859 990
44 403 428
45 493 63
46 496 458
47 728 641
48 174 440
49 887 589
50 931 743
51 234 663
52 832 704
53 857 776
54 744 105
55 122 949
56 270 596
57 790 753
58 152 585
59 138 342
60 87 413
61 713 127
62 638 532
63 326 566
64 847 833
65 576 429
66 141 976
67 946 889
68 100 526
69 503 496
70 684 811
71 794 190
72 177 924
73 300 515
74 275 468
75 343 995
76 889 853
77 20 645
78 760 141
79 763 785
80 889 11
81 70 637
82 361 611
83 529 957
84 813 135
85 820 999
86 5 787
87 881 333
88 427 864
DEMAND_SECTION
2 10
3 10
4 5
5 9
6 8
7 5
8 5
9 8
10 6
11 8
12 10
13 9
14 9
COVERAGE_SECTION
2 7 18 20 61 54 45 78 84 
3 9 70 40 79 13 64 57 30 53 85 
4 7 69 46 8 26 65 62 44 
5 9 22 23 10 51 32 72 56 58 81 
6 9 7 67 76 64 50 19 43 53 13 
7 9 6 67 76 50 64 19 53 13 43 
8 8 26 62 4 69 25 65 46 42 
9 9 16 47 42 33 36 52 57 49 25 
10 8 23 22 5 72 21 51 88 32 
11 9 56 58 73 74 14 63 37 51 48 
12 7 71 84 31 34 17 15 78 
13 9 64 53 19 79 57 76 40 39 52 
14 9 68 27 58 41 48 11 60 29 81 
15 4 71 87 12 34 
16 9 9 33 47 42 36 52 49 57 39 
17 9 31 34 12 87 84 71 15 38 80 
18 5 20 45 2 61 54 
19 9 53 39 13 64 50 52 76 57 79 
20 4 18 45 2 61 
21 8 75 72 23 10 66 88 55 22 
22 9 5 23 10 51 72 32 21 55 56 
23 9 10 22 5 72 21 32 51 55 66 
24 9 81 77 28 41 58 68 27 14 86 
25 5 47 62 26 8 42 
26 9 8 62 4 25 69 65 46 42 47 
27 9 68 14 41 58 60 48 81 24 35 
28 9 77 24 81 41 86 68 27 58 14 
29 7 48 59 60 74 14 37 68 
30 5 83 3 70 40 85 
31 6 34 17 87 12 15 71 
32 9 55 86 72 66 5 22 23 10 81 
33 9 42 9 16 47 36 49 52 62 25 
34 6 31 87 17 12 15 71 
35 8 60 59 27 48 29 68 14 41 
36 9 57 52 16 9 47 79 39 53 42 
37 5 73 74 63 44 11 
38 9 80 84 12 17 54 78 71 61 31 
39 9 52 19 53 50 57 36 13 64 16 
40 9 3 64 13 85 76 79 43 70 53 
41 9 58 81 68 24 27 14 77 28 11 
42 9 33 9 47 16 36 25 62 49 52 
43 9 85 40 67 76 64 6 13 7 3 
44 4 46 37 69 4 
45 3 18 20 2 
46 6 69 4 65 44 8 26 
47 8 9 42 16 33 36 25 52 57 
48 8 29 14 60 59 74 68 27 11 
49 7 16 33 52 9 39 42 50 
50 9 39 19 53 52 76 64 13 7 57 
51 9 56 5 11 58 22 63 82 41 10 
52 9 39 36 57 53 19 16 9 50 79 
53 9 19 13 39 64 57 52 50 76 79 
54 7 61 78 84 71 2 12 80 
55 9 66 72 32 23 21 22 10 86 5 
56 8 11 63 51 73 82 58 37 74 
57 9 79 36 52 53 13 19 39 64 16 
58 9 41 14 11 68 27 81 51 24 56 
59 6 60 29 48 35 14 27 
60 7 35 59 48 29 27 14 68 
61 6 54 78 84 71 2 20 
62 9 26 8 25 65 42 4 33 69 47 
63 7 73 82 56 37 11 74 51 
64 9 13 76 53 19 40 79 57 39 67 
65 6 46 4 69 8 26 62 
66 9 55 72 32 21 23 75 10 22 5 
67 9 6 7 76 64 43 19 13 53 50 
68 9 27 14 41 58 48 60 81 24 11 
69 7 4 46 65 8 26 44 62 
70 6 3 79 57 40 13 36 
71 6 84 78 12 15 54 61 
72 9 55 66 32 23 21 10 22 5 75 
73 5 37 74 63 11 56 
74 6 37 73 11 29 48 63 
75 7 21 88 72 83 10 23 66 
76 9 64 67 13 19 53 6 7 40 50 
77 9 28 24 81 41 68 86 27 58 14 
78 5 54 61 84 71 12 
79 9 57 13 70 36 3 53 64 52 19 
80 9 38 84 54 12 78 71 61 17 2 
81 9 24 77 41 28 58 68 27 14 86 
82 6 63 56 73 51 37 11 
83 5 30 88 75 3 70 
84 7 78 71 54 12 61 80 15 
85 9 43 40 76 3 67 64 13 30 6 
86 9 32 28 77 24 81 55 5 41 72 
87 4 34 31 15 12 
88 3 83 75 10 
DEPOT_SECTION
   1
   -1
EOF
