NAME :  X-n153-kX-w15-c9.cctp
COMMENT : 	Adapted by Maziero, Usberti and Cavellucci from the Uchoa, Pecin, Pessoa, Poggi, Subramanian, and Vidal (2013)
TYPE :  CCTP
DIMENSION :    101
EDGE_WEIGHT_TYPE : 	EUC_2D	
CAPACITY : 	144
VERTICES_WITHIN_COVERAGE :  9
VERTICES_WITH_DEMAND : 	15
NODE_COORD_SECTION
1 500 500
2 238 446
3 749 750
4 960 879
5 955 866
6 202 336
7 720 788
8 695 743
9 739 603
10 217 419
11 922 870
12 703 733
13 843 856
14 233 682
15 259 459
16 226 305
17 732 722
18 747 858
19 904 891
20 880 795
21 984 926
22 246 438
23 742 771
24 110 698
25 193 441
26 215 388
27 663 731
28 754 821
29 280 456
30 236 424
31 287 454
32 996 821
33 744 473
34 887 907
35 286 422
36 272 484
37 939 892
38 631 723
39 769 768
40 977 840
41 639 736
42 727 765
43 950 896
44 206 433
45 754 691
46 662 768
47 348 308
48 254 455
49 764 726
50 713 758
51 693 734
52 890 801
53 727 808
54 664 770
55 558 530
56 714 742
57 200 416
58 240 449
59 735 633
60 157 421
61 768 750
62 813 936
63 986 914
64 963 798
65 175 397
66 859 770
67 661 762
68 298 469
69 856 919
70 219 453
71 272 465
72 294 296
73 754 775
74 229 467
75 711 803
76 858 879
77 665 347
78 981 802
79 760 764
80 942 894
81 219 465
82 665 756
83 92 212
84 937 814
85 281 489
86 669 647
87 308 309
88 998 876
89 900 910
90 753 900
91 209 467
92 766 729
93 224 368
94 707 703
95 280 450
96 252 462
97 717 683
98 458 236
99 278 356
100 991 818
101 831 812
DEMAND_SECTION
2 92
3 90
4 65
5 80
6 69
7 64
8 73
9 96
10 74
11 81
12 67
13 58
14 79
15 85
16 57
COVERAGE_SECTION
2 9 58 22 48 70 96 30 74 15 81 
3 9 79 61 23 73 39 42 92 49 17 
4 9 5 43 80 37 88 11 40 63 21 
5 9 4 43 37 80 11 40 88 84 19 
6 9 16 93 26 65 99 57 10 30 60 
7 9 75 53 42 23 50 73 56 28 79 
8 9 51 12 56 50 82 27 42 67 46 
9 5 59 86 97 45 94 
10 9 57 44 30 26 25 2 70 22 58 
11 9 19 37 80 5 43 4 89 34 84 
12 9 51 8 56 50 94 17 27 42 82 
13 9 76 101 69 34 19 20 52 89 11 
14 1 24 
15 9 48 96 71 29 58 95 2 22 31 
16 8 6 93 72 99 87 26 65 10 
17 9 56 12 94 49 3 92 45 50 51 
18 9 28 90 53 75 7 73 23 39 42 
19 8 89 34 11 37 80 43 76 69 
20 6 52 66 101 84 13 64 
21 5 63 43 88 4 80 
22 9 2 58 30 48 15 96 70 74 10 
23 9 73 42 79 3 39 7 50 61 53 
24 1 14 
25 8 44 57 70 91 10 81 60 74 
26 9 93 10 57 65 30 44 6 25 22 
27 9 41 82 51 67 38 8 46 54 12 
28 9 53 18 73 7 75 23 39 79 42 
29 9 95 31 71 15 68 48 36 96 85 
30 9 22 10 2 58 44 70 48 57 96 
31 9 29 95 68 71 15 35 48 36 85 
32 7 100 78 40 64 88 84 5 
33 5 9 77 59 86 55 
34 6 89 19 69 76 11 37 
35 8 95 31 29 22 71 15 48 68 
36 9 85 71 15 29 68 96 31 48 95 
37 8 80 43 4 11 5 19 89 63 
38 8 41 27 82 67 46 54 51 8 
39 9 79 73 61 3 23 92 42 49 7 
40 9 100 32 5 78 88 4 64 84 43 
41 8 38 27 82 67 46 54 51 8 
42 9 23 50 7 56 3 73 79 8 12 
43 8 80 37 4 5 11 63 21 19 
44 9 25 10 57 70 30 91 2 81 58 
45 6 49 17 97 92 94 3 
46 9 54 67 82 27 41 8 51 50 12 
47 7 87 72 99 16 35 98 93 
48 9 15 96 58 2 22 71 29 95 74 
49 7 92 61 3 17 45 79 39 
50 9 42 56 8 12 7 51 23 3 17 
51 9 8 12 56 27 50 94 82 17 67 
52 6 20 66 84 101 13 64 
53 9 75 7 28 23 42 73 50 18 79 
54 9 46 67 82 27 8 41 51 50 12 
55 4 86 9 33 59 
56 9 12 50 8 51 42 17 3 23 94 
57 9 10 44 25 65 26 30 70 60 2 
58 9 2 22 48 96 15 70 74 30 81 
59 5 9 97 45 86 94 
60 6 65 25 57 44 10 26 
61 9 79 39 3 92 49 73 23 42 17 
62 7 69 90 76 34 13 89 18 
63 6 21 43 88 4 80 37 
64 6 78 84 100 32 40 5 
65 8 60 57 26 10 25 44 93 6 
66 4 20 52 101 13 
67 9 46 82 54 27 41 8 51 38 12 
68 8 31 29 71 85 95 36 15 48 
69 6 34 76 89 62 19 13 
70 9 81 74 91 2 58 44 25 22 10 
71 9 29 15 95 31 36 96 48 68 85 
72 7 87 47 99 16 6 93 26 
73 9 23 79 39 3 42 61 7 53 50 
74 9 81 70 91 58 2 96 48 15 22 
75 9 7 53 42 23 50 28 73 54 46 
76 9 13 34 69 19 89 11 101 62 37 
77 7 33 55 98 9 59 86 47 
78 6 64 100 32 40 84 5 
79 9 39 73 61 3 23 42 92 49 7 
80 8 37 43 4 5 11 19 89 63 
81 8 74 91 70 58 2 96 25 44 
82 9 67 46 54 27 8 41 51 12 38 
83 9 16 6 65 93 26 60 72 57 99 
84 7 64 78 40 52 100 5 11 
85 9 36 68 71 29 31 15 95 96 48 
86 7 97 59 94 9 27 38 51 
87 7 72 47 99 16 93 6 35 
88 9 4 63 40 5 21 43 32 100 80 
89 6 34 19 37 69 80 11 
90 9 18 62 28 53 13 69 75 76 7 
91 7 81 70 74 25 44 2 58 
92 7 49 61 3 17 79 39 45 
93 9 26 6 10 57 99 30 65 16 44 
94 8 97 12 17 51 56 8 45 27 
95 9 29 31 71 15 48 68 35 96 36 
96 9 48 15 58 71 2 74 22 29 36 
97 8 94 45 17 12 59 51 56 86 
98 6 47 87 72 99 77 16 
99 8 93 87 72 35 26 16 6 30 
100 7 32 78 40 64 84 88 5 
101 7 13 66 20 52 76 39 28 
DEPOT_SECTION
   1
   -1
EOF
