NAME :  X-n162-kX-w16-c11.cctp
COMMENT : 	Adapted by Maziero, Usberti and Cavellucci from the Uchoa, Pecin, Pessoa, Poggi, Subramanian, and Vidal (2013)
TYPE :  CCTP
DIMENSION :    101
EDGE_WEIGHT_TYPE : 	EUC_2D	
CAPACITY : 	1174
VERTICES_WITHIN_COVERAGE :  11
VERTICES_WITH_DEMAND : 	16
NODE_COORD_SECTION
1 500 500
2 300 71
3 434 4
4 257 798
5 718 17
6 879 206
7 929 330
8 353 793
9 389 540
10 202 55
11 417 253
12 921 572
13 94 788
14 870 327
15 281 124
16 411 288
17 882 116
18 307 240
19 359 935
20 352 858
21 502 776
22 269 33
23 440 814
24 850 461
25 909 404
26 339 458
27 86 47
28 426 282
29 534 10
30 911 79
31 270 791
32 391 794
33 938 281
34 941 579
35 752 162
36 323 570
37 238 700
38 329 805
39 291 631
40 286 481
41 855 547
42 972 378
43 205 741
44 462 532
45 340 54
46 936 46
47 864 654
48 501 495
49 339 10
50 324 595
51 244 926
52 190 659
53 525 878
54 832 622
55 228 662
56 36 578
57 897 292
58 492 426
59 958 546
60 312 781
61 320 557
62 226 264
63 446 702
64 470 746
65 439 15
66 703 31
67 294 172
68 248 178
69 265 408
70 725 58
71 108 303
72 401 225
73 336 115
74 428 19
75 624 46
76 6 539
77 513 262
78 112 114
79 478 46
80 440 219
81 780 270
82 354 105
83 403 32
84 403 386
85 392 52
86 968 26
87 644 82
88 339 122
89 413 22
90 459 198
91 348 158
92 361 229
93 480 250
94 427 197
95 741 135
96 421 23
97 315 178
98 729 107
99 542 296
100 607 43
101 223 283
DEMAND_SECTION
2 60
3 88
4 74
5 56
6 95
7 95
8 83
9 94
10 93
11 79
12 61
13 83
14 68
15 86
16 96
17 75
COVERAGE_SECTION
2 9 45 22 15 73 82 88 49 85 10 
3 8 65 74 96 89 83 79 85 49 
4 11 31 60 38 43 8 37 20 51 32 55 52 
5 9 66 70 98 75 87 100 95 35 29 
6 10 57 17 33 81 14 30 7 35 95 46 
7 10 33 57 14 42 25 6 24 81 59 17 
8 11 38 32 60 20 31 23 4 64 63 19 37 
9 11 61 36 44 50 26 40 48 39 58 84 63 
10 11 22 2 15 78 27 68 45 49 73 67 88 
11 10 28 72 16 80 94 92 93 90 77 18 
12 7 34 59 41 47 54 24 25 
13 11 43 52 4 37 31 55 51 56 60 38 39 
14 8 57 7 33 25 81 42 6 24 
15 10 67 2 73 88 68 97 82 91 22 45 
16 11 28 11 72 80 92 93 94 84 90 77 18 
17 10 30 46 6 86 35 95 98 70 33 57 
18 10 92 97 67 62 68 91 101 72 11 16 
19 11 20 51 38 8 32 23 60 31 4 53 21 
20 11 38 8 32 19 60 23 31 4 51 64 21 
21 8 64 23 63 53 32 8 20 38 
22 9 2 10 45 49 15 73 82 88 85 
23 10 32 21 64 8 20 53 38 63 60 19 
24 9 25 41 12 14 59 42 34 7 54 
25 11 42 7 24 14 57 33 59 41 12 34 81 
26 11 40 69 9 84 61 36 50 44 58 48 39 
27 11 78 10 22 68 15 2 67 45 49 71 62 
28 11 16 11 72 93 80 92 94 77 90 84 99 
29 9 79 100 65 75 3 74 96 89 87 
30 11 46 17 86 6 35 95 98 70 5 33 57 
31 11 4 60 38 43 8 37 20 32 55 51 52 
32 11 8 23 38 20 60 64 63 21 31 4 19 
33 10 57 7 14 6 42 25 81 17 24 30 
34 7 12 59 41 47 54 24 25 
35 6 95 98 70 81 6 87 
36 11 61 50 39 9 40 26 55 44 37 52 69 
37 11 55 43 52 39 31 4 60 50 38 8 36 
38 11 8 60 20 31 32 4 23 19 37 43 51 
39 11 50 36 55 61 37 52 9 43 40 60 31 
40 10 26 69 61 36 9 50 39 84 44 55 
41 6 12 54 24 34 59 47 
42 11 7 25 33 14 57 24 59 6 12 34 41 
43 11 37 4 31 55 52 60 13 38 39 8 20 
44 9 48 9 58 26 36 61 50 84 63 
45 7 2 49 85 82 73 83 88 
46 11 86 30 17 6 70 95 98 35 5 66 33 
47 5 54 12 34 41 59 
48 5 44 58 9 84 26 
49 9 45 83 85 2 22 89 96 74 3 
50 11 36 61 39 9 55 40 37 26 52 44 63 
51 11 19 20 4 31 38 60 8 43 32 13 23 
52 11 55 37 43 39 50 4 31 36 13 61 60 
53 7 21 23 64 32 20 19 8 
54 4 47 41 12 34 
55 11 52 37 39 43 50 36 31 4 61 60 38 
56 9 76 52 55 13 43 37 39 40 71 
57 9 33 14 7 6 25 42 81 24 17 
58 8 48 84 44 99 9 26 28 16 
59 8 34 12 41 24 47 54 25 42 
60 11 38 8 31 4 32 20 37 43 23 55 39 
61 11 36 50 9 39 40 26 55 44 69 37 52 
62 10 101 18 68 67 71 97 92 69 15 91 
63 10 64 21 32 23 8 38 60 50 39 44 
64 9 21 63 23 32 8 53 38 60 20 
65 7 3 74 96 89 83 79 85 
66 9 5 70 87 75 98 100 95 35 29 
67 9 97 68 15 91 88 18 73 92 82 
68 10 67 15 97 18 62 91 88 73 101 2 
69 10 40 26 101 84 62 61 36 18 9 16 
70 8 66 5 98 95 87 75 35 100 
71 9 101 62 68 69 78 18 67 97 15 
72 9 11 94 80 92 28 16 90 93 91 
73 7 88 82 91 15 2 45 97 
74 7 96 65 89 3 83 85 79 
75 8 100 87 66 29 5 70 98 79 
76 9 56 52 55 71 13 37 43 40 69 
77 8 93 99 90 80 28 11 16 94 
78 11 27 10 68 15 22 62 71 67 2 101 97 
79 8 65 74 3 96 29 89 83 85 
80 9 94 90 72 11 93 28 16 92 77 
81 5 14 35 6 57 95 
82 5 73 88 45 91 2 
83 8 89 96 85 74 65 3 45 49 
84 11 26 16 58 28 11 69 48 40 9 93 44 
85 7 83 89 96 74 45 65 3 
86 11 46 30 17 6 70 5 95 98 35 33 66 
87 8 75 100 66 70 98 5 95 29 
88 7 73 82 91 15 97 2 67 
89 9 96 83 74 65 3 85 79 49 45 
90 7 80 94 93 72 11 77 28 
91 7 88 97 73 82 67 92 15 
92 10 72 18 11 97 91 94 16 80 28 67 
93 10 77 80 90 11 28 94 99 16 72 92 
94 8 80 90 72 11 92 93 28 91 
95 8 35 98 70 66 87 5 81 17 
96 8 74 89 65 83 3 85 79 49 
97 9 67 91 88 18 15 73 68 92 82 
98 8 95 70 35 66 87 5 75 100 
99 7 77 93 28 80 90 16 11 
100 8 75 87 29 66 5 70 79 98 
101 10 62 18 68 71 67 69 97 92 15 91 
DEPOT_SECTION
   1
   -1
EOF
