NAME :  X-n106-kX-w10-c11.cctp
COMMENT : 	Adapted by Maziero, Usberti and Cavellucci from the Uchoa, Pecin, Pessoa, Poggi, Subramanian, and Vidal (2013)
TYPE :  CCTP
DIMENSION :    85
EDGE_WEIGHT_TYPE : 	EUC_2D	
CAPACITY : 	600
VERTICES_WITHIN_COVERAGE :  11
VERTICES_WITH_DEMAND : 	10
NODE_COORD_SECTION
1 0 0
2 615 190
3 890 200
4 983 684
5 959 743
6 569 146
7 969 841
8 607 256
9 936 274
10 650 221
11 943 547
12 632 209
13 849 163
14 618 147
15 925 627
16 925 192
17 903 460
18 666 368
19 906 622
20 833 185
21 411 136
22 989 691
23 601 221
24 429 500
25 522 218
26 674 183
27 951 705
28 898 154
29 953 661
30 425 212
31 900 649
32 943 290
33 724 315
34 927 705
35 865 817
36 872 161
37 966 478
38 974 694
39 603 140
40 598 122
41 715 230
42 890 231
43 908 849
44 625 138
45 490 185
46 643 163
47 849 183
48 998 675
49 619 495
50 861 276
51 888 679
52 869 766
53 495 244
54 976 143
55 921 783
56 688 211
57 857 199
58 990 213
59 973 806
60 933 664
61 616 250
62 867 199
63 544 327
64 711 277
65 893 778
66 992 868
67 869 204
68 646 260
69 849 185
70 918 400
71 923 339
72 931 686
73 582 212
74 1000 309
75 572 192
76 676 183
77 989 59
78 582 39
79 686 188
80 995 720
81 603 126
82 657 185
83 574 195
84 614 195
85 961 162
DEMAND_SECTION
2 81
3 64
4 51
5 61
6 71
7 83
8 92
9 66
10 92
11 78
COVERAGE_SECTION
2 10 84 12 23 46 73 83 82 14 75 10 
3 11 67 62 42 57 16 36 47 69 28 13 20 
4 11 22 38 48 27 29 80 72 60 34 5 15 
5 11 27 80 34 38 55 22 4 72 59 65 48 
6 10 39 40 81 75 14 83 44 2 73 84 
7 11 59 66 43 55 5 65 35 80 52 27 34 
8 11 61 23 68 73 12 10 84 2 83 75 82 
9 10 32 42 71 74 50 58 16 3 67 62 
10 10 12 82 56 68 84 26 61 76 2 23 
11 11 37 15 19 17 31 29 60 48 72 4 51 
12 10 10 84 2 23 82 61 46 26 73 76 
13 9 47 69 36 20 57 62 67 28 3 
14 8 44 39 81 46 40 2 84 6 
15 11 19 31 60 29 72 51 34 4 11 27 38 
16 11 3 28 85 42 67 62 36 57 58 54 69 
17 10 70 37 11 71 19 15 32 74 9 31 
18 9 33 64 68 8 61 63 49 41 10 
19 11 15 31 60 51 29 72 11 34 27 4 38 
20 8 47 69 13 57 62 67 36 3 
21 11 30 45 53 25 6 75 83 73 40 39 81 
22 11 4 38 48 80 27 29 72 5 60 34 15 
23 11 73 84 12 61 2 8 83 75 10 68 82 
24 11 49 63 53 18 30 25 8 61 45 68 73 
25 11 53 45 75 83 73 23 6 8 84 2 30 
26 7 76 79 82 56 46 10 12 
27 11 34 38 72 4 5 22 29 60 80 48 51 
28 10 36 3 16 13 62 47 67 69 57 85 
29 11 60 72 4 38 15 27 22 48 34 31 19 
30 11 45 21 53 25 75 83 73 6 63 23 8 
31 11 19 51 15 60 72 29 34 27 38 4 22 
32 10 9 71 74 42 50 58 16 3 67 70 
33 7 64 18 41 68 56 10 61 
34 11 72 27 60 51 38 5 29 4 31 22 80 
35 11 65 52 43 55 7 59 5 34 66 51 27 
36 10 13 28 47 69 62 57 3 67 20 16 
37 11 17 11 70 71 15 19 74 29 31 32 60 
38 11 4 22 27 48 80 29 72 34 5 60 15 
39 8 81 14 40 44 6 46 2 84 
40 8 81 39 44 14 6 46 2 75 
41 8 56 64 79 76 26 10 82 68 
42 11 3 67 62 57 16 50 69 9 47 36 20 
43 11 35 7 55 65 59 66 52 5 34 27 80 
44 6 14 39 81 40 46 2 
45 11 25 53 30 75 83 6 21 73 23 39 84 
46 6 82 14 44 26 2 76 
47 9 69 20 57 13 62 67 36 3 28 
48 11 4 22 38 80 29 27 60 72 34 5 15 
49 8 18 63 24 33 64 68 8 61 
50 10 42 67 9 57 62 3 32 71 69 47 
51 11 31 72 34 60 19 15 29 27 38 52 4 
52 10 65 35 55 34 51 43 5 72 27 59 
53 11 25 45 30 73 75 83 63 23 8 61 6 
54 10 85 16 58 28 77 3 36 42 62 67 
55 11 65 5 52 59 35 43 7 34 27 80 72 
56 9 79 76 26 41 10 82 12 68 46 
57 10 62 67 69 47 20 3 13 36 42 28 
58 11 85 16 54 9 32 74 3 42 28 67 62 
59 11 7 55 5 66 43 65 80 27 35 34 52 
60 11 29 72 31 15 34 27 51 19 38 4 22 
61 11 8 68 23 12 10 73 84 2 83 75 82 
62 11 67 57 3 69 47 20 36 42 13 28 16 
63 11 8 53 61 25 23 73 68 18 83 75 12 
64 8 33 41 68 56 10 79 61 76 
65 11 52 55 35 43 5 34 59 27 7 51 72 
66 11 7 59 43 55 5 65 35 80 52 27 34 
67 11 62 57 3 69 47 42 20 36 13 16 28 
68 11 61 8 10 12 23 56 64 84 41 82 2 
69 9 47 20 57 13 62 67 36 3 28 
70 9 71 17 37 32 74 9 50 11 42 
71 10 32 70 9 74 50 42 17 3 58 37 
72 11 34 60 27 29 38 51 31 4 22 15 5 
73 11 83 23 75 84 2 12 8 61 25 6 10 
74 11 32 9 71 58 70 42 16 50 85 3 54 
75 11 83 73 23 84 2 6 25 39 12 14 8 
76 7 26 79 82 56 46 10 12 
77 9 54 85 28 16 58 36 3 13 62 
78 7 40 81 39 6 44 14 46 
79 8 76 26 56 82 10 46 41 12 
80 11 22 38 4 5 48 27 34 29 72 60 59 
81 8 40 39 44 14 6 46 2 84 
82 8 26 76 46 79 12 10 56 2 
83 11 75 73 23 84 2 6 25 12 39 14 8 
84 10 2 12 23 73 83 75 46 10 82 14 
85 11 54 16 58 28 3 36 42 62 67 77 57 
DEPOT_SECTION
   1
   -1
EOF
