NAME :  X-n106-kX-w21-c9.cctp
COMMENT : 	Adapted by Maziero, Usberti and Cavellucci from the Uchoa, Pecin, Pessoa, Poggi, Subramanian, and Vidal (2013)
TYPE :  CCTP
DIMENSION :    102
EDGE_WEIGHT_TYPE : 	EUC_2D	
CAPACITY : 	600
VERTICES_WITHIN_COVERAGE :  9
VERTICES_WITH_DEMAND : 	21
NODE_COORD_SECTION
1 0 0
2 615 190
3 890 200
4 983 684
5 959 743
6 569 146
7 969 841
8 607 256
9 936 274
10 650 221
11 943 547
12 789 172
13 632 209
14 849 163
15 829 283
16 618 147
17 925 627
18 925 192
19 903 460
20 666 368
21 906 622
22 833 185
23 411 136
24 989 691
25 601 221
26 429 500
27 522 218
28 760 346
29 674 183
30 951 705
31 898 154
32 953 661
33 425 212
34 775 159
35 900 649
36 943 290
37 724 315
38 927 705
39 865 817
40 872 161
41 966 478
42 974 694
43 603 140
44 598 122
45 715 230
46 777 693
47 890 231
48 775 230
49 908 849
50 625 138
51 490 185
52 643 163
53 849 183
54 998 675
55 619 495
56 844 67
57 861 276
58 888 679
59 641 141
60 869 766
61 495 244
62 852 110
63 976 143
64 921 783
65 688 211
66 857 199
67 758 636
68 990 213
69 973 806
70 748 240
71 737 95
72 933 664
73 770 172
74 616 250
75 641 146
76 867 199
77 544 327
78 711 277
79 893 778
80 992 868
81 869 204
82 646 260
83 849 185
84 918 400
85 645 144
86 923 339
87 931 686
88 582 212
89 1000 309
90 572 192
91 676 183
92 989 59
93 798 642
94 582 39
95 686 188
96 995 720
97 802 185
98 603 126
99 657 185
100 574 195
101 614 195
102 961 162
DEMAND_SECTION
2 81
3 64
4 51
5 61
6 71
7 83
8 92
9 66
10 92
11 78
12 98
13 88
14 70
15 72
16 92
17 84
18 51
19 81
20 71
21 98
22 70
COVERAGE_SECTION
2 9 101 13 25 52 88 100 99 16 90 
3 9 81 76 47 66 18 40 53 83 31 
4 9 24 42 54 30 32 96 87 72 38 
5 9 30 96 38 42 64 24 4 87 69 
6 9 43 44 98 90 16 100 50 2 88 
7 9 69 80 49 64 5 79 39 96 60 
8 9 74 25 82 88 13 10 101 2 100 
9 9 36 47 86 89 57 68 18 3 81 
10 9 13 99 65 82 101 29 74 91 2 
11 9 41 17 21 19 35 32 72 54 87 
12 9 97 34 73 22 48 14 53 83 66 
13 8 10 101 2 25 99 74 52 29 
14 9 53 83 40 22 66 76 81 31 97 
15 9 57 48 47 66 81 70 76 28 22 
16 9 50 43 75 59 98 85 52 44 2 
17 9 21 35 72 32 87 58 38 4 11 
18 9 3 31 102 47 81 76 40 66 68 
19 9 84 41 11 86 21 17 36 89 28 
20 9 37 28 78 82 8 74 77 55 45 
21 9 17 35 72 58 32 87 11 38 30 
22 9 53 83 14 66 97 76 81 12 40 
23 9 33 51 61 27 6 90 100 88 44 
24 9 4 42 54 96 30 32 87 5 72 
25 9 88 101 13 74 2 8 100 90 10 
26 9 55 77 61 20 33 27 8 74 51 
27 9 61 51 90 100 88 25 6 8 101 
28 9 37 78 15 20 70 48 57 45 82 
29 7 91 95 99 65 52 10 13 
30 9 38 42 87 4 5 24 32 72 96 
31 9 40 3 18 14 76 53 81 83 66 
32 9 72 87 4 42 17 30 24 54 38 
33 9 51 23 61 27 90 100 88 6 77 
34 9 73 12 97 22 48 14 71 53 83 
35 9 21 58 17 72 87 32 38 30 42 
36 9 9 86 89 47 57 68 18 3 81 
37 9 78 28 20 70 45 82 48 15 65 
38 9 87 30 72 58 42 5 32 4 35 
39 9 79 60 49 64 7 69 5 38 80 
40 9 14 31 53 83 76 66 3 81 22 
41 9 19 11 84 86 17 21 89 32 35 
42 9 4 24 30 54 96 32 87 38 5 
43 9 98 16 44 50 6 59 75 85 52 
44 9 98 43 50 16 6 59 75 85 52 
45 9 65 70 78 95 48 91 29 10 99 
46 9 93 67 58 60 35 79 21 38 39 
47 9 3 81 76 66 18 57 83 9 53 
48 9 70 97 73 12 45 34 22 15 78 
49 9 39 7 64 79 69 80 60 5 38 
50 8 16 59 75 85 43 98 44 52 
51 9 27 61 33 90 100 6 23 88 25 
52 7 75 85 59 99 16 50 29 
53 9 83 22 66 14 76 81 40 3 97 
54 9 4 24 42 96 32 30 72 87 38 
55 9 20 77 26 67 28 37 93 78 82 
56 9 62 14 40 31 71 34 53 83 12 
57 9 15 47 81 9 66 76 3 36 86 
58 9 35 87 38 72 21 17 32 30 42 
59 7 75 85 50 52 16 43 98 
60 9 79 39 64 38 58 49 5 87 30 
61 9 27 51 33 88 90 100 77 25 8 
62 9 56 14 40 31 53 83 22 12 66 
63 9 102 18 68 31 92 3 40 47 76 
64 9 79 5 60 69 39 49 7 38 30 
65 7 95 91 29 45 10 99 13 
66 9 76 81 83 53 22 3 14 40 47 
67 9 93 46 58 35 21 17 60 72 87 
68 9 102 18 63 9 36 89 3 47 31 
69 9 7 64 5 80 49 79 96 30 39 
70 9 48 45 78 65 73 97 12 37 95 
71 6 34 73 12 85 59 95 
72 9 32 87 35 17 38 30 58 21 42 
73 9 34 12 97 48 22 70 14 45 53 
74 9 8 82 25 13 10 88 101 2 100 
75 7 85 59 52 50 16 43 99 
76 9 81 66 3 83 53 22 40 47 14 
77 9 8 61 74 27 25 88 82 20 100 
78 9 37 45 70 82 65 48 10 28 95 
79 9 60 64 39 49 5 38 69 30 7 
80 9 7 69 49 64 5 79 39 96 60 
81 9 76 66 3 83 53 47 22 40 14 
82 9 74 8 10 13 25 65 78 101 45 
83 9 53 22 66 14 76 81 40 3 97 
84 9 86 19 41 36 89 9 57 15 11 
85 7 75 59 52 50 16 43 99 
86 9 36 84 9 89 57 15 47 19 3 
87 9 38 72 30 32 42 58 35 4 24 
88 9 100 25 90 101 2 13 8 74 27 
89 9 36 9 86 68 84 47 18 57 102 
90 9 100 88 25 101 2 6 27 43 13 
91 7 29 95 99 65 52 10 85 
92 9 63 102 31 56 62 18 68 40 3 
93 9 67 46 58 35 21 17 72 87 60 
94 8 44 98 43 6 50 16 59 75 
95 7 91 29 65 99 10 52 45 
96 9 24 42 4 5 54 30 38 32 87 
97 9 12 22 73 34 53 83 14 48 66 
98 9 44 43 50 16 6 59 75 85 52 
99 7 29 91 52 95 13 10 65 
100 9 90 88 25 101 2 6 27 13 43 
101 9 2 13 25 88 100 90 52 10 99 
102 9 63 18 68 31 3 40 47 76 81 
DEPOT_SECTION
   1
   -1
EOF
