NAME :  X-n181-kX-w18-c7.cctp
COMMENT : 	Adapted by Maziero, Usberti and Cavellucci from the Uchoa, Pecin, Pessoa, Poggi, Subramanian, and Vidal (2013)
TYPE :  CCTP
DIMENSION :    120
EDGE_WEIGHT_TYPE : 	EUC_2D	
CAPACITY : 	8
VERTICES_WITHIN_COVERAGE :  7
VERTICES_WITH_DEMAND : 	18
NODE_COORD_SECTION
1 894 510
2 463 887
3 704 177
4 424 368
5 420 800
6 492 610
7 607 749
8 455 819
9 343 457
10 387 275
11 466 653
12 607 348
13 428 546
14 764 848
15 403 298
16 315 738
17 457 902
18 597 584
19 219 552
20 414 340
21 398 401
22 579 780
23 518 563
24 531 597
25 687 200
26 359 256
27 433 820
28 397 770
29 444 799
30 367 288
31 253 774
32 379 843
33 565 785
34 430 657
35 721 600
36 434 876
37 592 740
38 428 915
39 426 803
40 409 639
41 535 572
42 502 916
43 351 371
44 657 782
45 493 265
46 469 594
47 720 165
48 463 624
49 496 833
50 471 361
51 448 969
52 361 559
53 529 582
54 429 879
55 483 715
56 264 574
57 793 916
58 448 386
59 325 199
60 327 370
61 484 861
62 432 873
63 641 155
64 712 163
65 456 612
66 700 165
67 690 213
68 478 811
69 430 368
70 414 943
71 296 297
72 380 773
73 498 910
74 464 939
75 420 381
76 486 614
77 584 809
78 429 336
79 461 529
80 470 360
81 407 661
82 687 711
83 593 471
84 537 648
85 666 111
86 452 797
87 430 742
88 481 958
89 636 741
90 405 576
91 603 683
92 611 739
93 342 688
94 446 280
95 791 198
96 414 839
97 504 592
98 665 921
99 448 320
100 637 758
101 743 166
102 504 869
103 708 432
104 664 343
105 878 706
106 728 203
107 367 739
108 444 808
109 445 864
110 597 660
111 344 301
112 209 369
113 454 353
114 296 787
115 607 654
116 523 938
117 598 705
118 460 681
119 524 610
120 771 752
DEMAND_SECTION
2 1
3 1
4 1
5 1
6 1
7 1
8 1
9 1
10 1
11 1
12 1
13 1
14 1
15 1
16 1
17 1
18 1
19 1
COVERAGE_SECTION
2 7 17 109 36 61 62 54 73 
3 7 66 64 47 25 106 67 101 
4 7 69 75 20 58 78 113 21 
5 7 39 27 29 108 86 28 96 
6 7 76 97 46 48 119 65 24 
7 7 92 37 89 100 22 117 33 
8 7 108 27 86 29 68 39 5 
9 6 21 43 60 52 75 4 
10 7 30 15 26 111 94 20 78 
11 7 48 118 34 65 76 6 40 
12 2 104 83 
13 7 79 90 46 52 65 48 76 
14 6 57 120 98 44 100 82 
15 7 10 30 20 78 94 99 111 
16 5 107 114 93 31 72 
17 7 2 38 36 54 62 74 109 
18 6 41 24 53 115 110 119 
19 7 56 52 9 93 112 90 13 
20 7 78 4 69 99 75 113 15 
21 6 75 4 69 58 43 20 
22 6 33 77 7 37 92 100 
23 6 41 53 97 24 119 6 
24 6 53 119 41 97 23 6 
25 3 67 3 66 
26 7 30 10 111 15 59 71 94 
27 7 108 39 8 5 29 96 86 
28 5 72 5 87 107 39 
29 7 86 108 39 8 5 27 68 
30 7 10 111 26 15 20 71 78 
31 5 114 16 107 93 72 
32 3 96 5 27 
33 4 22 77 37 7 
34 6 81 40 11 118 48 65 
35 5 82 18 115 110 91 
36 5 62 54 109 2 17 
37 7 7 92 117 22 89 100 33 
38 5 70 17 54 36 62 
39 7 5 27 29 108 86 8 96 
40 6 81 34 65 48 11 90 
41 7 53 23 24 97 119 6 18 
42 7 73 116 74 17 88 102 2 
43 7 60 21 20 75 111 4 69 
44 6 100 89 7 92 37 82 
45 6 94 99 15 78 113 50 
46 7 65 76 6 48 97 119 23 
47 7 64 3 66 101 106 25 67 
48 7 65 76 11 46 6 34 97 
49 4 68 61 102 8 
50 6 80 113 58 69 99 4 
51 5 74 88 70 38 17 
52 7 90 13 40 56 9 79 65 
53 7 41 24 23 97 119 6 76 
54 4 36 62 109 2 
55 3 118 87 11 
56 7 19 52 93 9 90 40 13 
57 5 14 98 120 44 100 
58 6 69 75 4 50 80 113 
59 7 26 10 30 71 111 15 94 
60 7 43 111 21 71 9 30 20 
61 6 102 49 2 109 17 68 
62 4 36 54 109 2 
63 5 85 66 25 3 64 
64 7 47 66 3 101 106 25 67 
65 7 48 46 76 6 11 34 97 
66 7 64 3 47 25 101 106 67 
67 2 25 3 
68 5 8 49 86 108 29 
69 7 4 75 58 113 20 78 80 
70 5 38 51 74 17 54 
71 6 111 30 26 60 43 10 
72 5 28 107 5 39 87 
73 7 42 116 102 2 17 74 61 
74 6 88 51 17 38 42 73 
75 7 4 69 58 21 20 113 78 
76 7 6 48 46 97 65 119 11 
77 3 22 33 7 
78 7 20 99 113 4 69 15 75 
79 4 13 46 23 90 
80 6 50 113 58 69 99 4 
81 6 40 34 118 11 48 65 
82 5 89 100 44 92 7 
83 1 18 
84 5 119 24 6 76 110 
85 5 63 66 64 3 47 
86 7 29 108 8 39 27 68 5 
87 5 28 5 29 55 72 
88 6 74 51 42 116 73 17 
89 6 100 92 7 37 44 117 
90 7 13 52 65 40 46 79 48 
91 6 117 110 115 92 37 7 
92 7 7 37 89 100 117 22 91 
93 4 16 107 81 40 
94 6 99 15 45 10 78 20 
95 5 101 106 47 64 3 
96 5 27 32 39 62 5 
97 7 6 24 53 119 76 23 46 
98 3 14 57 77 
99 7 78 113 20 94 80 50 15 
100 7 89 7 44 92 37 22 117 
101 5 47 64 106 3 66 
102 5 61 49 73 2 42 
103 3 104 83 12 
104 2 12 103 
105 5 120 14 35 82 57 
106 5 3 47 67 101 25 
107 4 72 28 16 93 
108 7 29 86 8 27 39 5 68 
109 6 36 62 54 2 61 17 
110 5 115 91 117 84 18 
111 7 30 26 71 10 15 43 60 
112 6 71 60 43 111 9 30 
113 7 80 50 69 78 4 58 99 
114 6 31 16 72 107 32 28 
115 5 110 91 117 84 18 
116 6 42 73 88 74 102 17 
117 7 91 37 92 7 110 89 115 
118 6 11 34 55 48 81 40 
119 6 24 97 53 6 76 41 
120 5 82 14 105 44 100 
DEPOT_SECTION
   1
   -1
EOF
