NAME :  X-n162-kX-w32-c11.cctp
COMMENT : 	Adapted by Maziero, Usberti and Cavellucci from the Uchoa, Pecin, Pessoa, Poggi, Subramanian, and Vidal (2013)
TYPE :  CCTP
DIMENSION :    130
EDGE_WEIGHT_TYPE : 	EUC_2D	
CAPACITY : 	1174
VERTICES_WITHIN_COVERAGE :  11
VERTICES_WITH_DEMAND : 	32
NODE_COORD_SECTION
1 500 500
2 300 71
3 434 4
4 257 798
5 718 17
6 879 206
7 929 330
8 353 793
9 389 540
10 202 55
11 417 253
12 921 572
13 94 788
14 870 327
15 281 124
16 411 288
17 882 116
18 307 240
19 359 935
20 352 858
21 502 776
22 269 33
23 440 814
24 850 461
25 909 404
26 339 458
27 767 535
28 86 47
29 758 532
30 426 282
31 534 10
32 826 830
33 911 79
34 270 791
35 391 794
36 908 787
37 929 858
38 938 281
39 941 579
40 752 162
41 579 68
42 323 570
43 238 700
44 329 805
45 651 486
46 291 631
47 286 481
48 855 547
49 972 378
50 205 741
51 528 672
52 664 605
53 462 532
54 340 54
55 929 941
56 936 46
57 864 654
58 501 495
59 339 10
60 324 595
61 585 893
62 73 401
63 244 926
64 190 659
65 900 929
66 525 878
67 832 622
68 228 662
69 36 578
70 897 292
71 492 426
72 958 546
73 312 781
74 320 557
75 226 264
76 446 702
77 470 746
78 439 15
79 148 352
80 693 626
81 703 31
82 798 932
83 294 172
84 710 588
85 909 889
86 771 946
87 248 178
88 265 408
89 808 699
90 867 883
91 725 58
92 688 875
93 108 303
94 401 225
95 824 878
96 336 115
97 428 19
98 691 745
99 624 46
100 6 539
101 513 262
102 639 753
103 112 114
104 478 46
105 440 219
106 780 270
107 354 105
108 403 32
109 403 386
110 392 52
111 968 26
112 644 82
113 339 122
114 413 22
115 459 198
116 348 158
117 361 229
118 726 749
119 480 250
120 427 197
121 731 579
122 741 135
123 421 23
124 315 178
125 676 530
126 729 107
127 668 471
128 542 296
129 607 43
130 223 283
DEMAND_SECTION
2 60
3 88
4 74
5 56
6 95
7 95
8 83
9 94
10 93
11 79
12 61
13 83
14 68
15 86
16 96
17 75
18 67
19 74
20 92
21 71
22 92
23 74
24 82
25 88
26 95
27 69
28 100
29 91
30 83
31 78
32 63
33 88
COVERAGE_SECTION
2 9 54 22 15 96 107 113 59 110 10 
3 8 78 97 123 114 108 104 110 59 
4 11 34 73 44 50 8 43 20 63 35 68 64 
5 10 81 91 126 99 112 129 122 41 40 31 
6 10 70 17 38 106 14 33 7 40 122 56 
7 10 38 70 14 49 25 6 24 106 72 17 
8 11 44 35 73 20 34 23 4 77 76 19 43 
9 11 74 42 53 60 26 47 58 46 71 109 76 
10 11 22 2 15 103 28 87 54 59 96 83 113 
11 10 30 94 16 105 120 117 119 115 101 18 
12 10 39 72 48 57 67 24 27 25 29 89 
13 11 50 64 4 43 34 68 63 69 73 44 46 
14 8 70 7 38 25 106 49 6 24 
15 10 83 2 96 113 87 124 107 116 22 54 
16 11 30 11 94 105 117 119 120 109 115 101 18 
17 10 33 56 6 111 40 122 126 91 38 70 
18 10 117 124 83 75 87 116 130 94 11 16 
19 11 20 63 44 8 35 23 73 34 4 66 21 
20 11 44 8 35 19 73 23 34 4 63 77 21 
21 11 77 23 76 66 51 35 102 61 8 20 44 
22 9 2 10 54 59 15 96 107 113 110 
23 11 35 21 77 8 20 66 44 76 73 19 61 
24 11 25 48 27 29 12 14 72 49 39 7 67 
25 11 49 7 24 14 70 38 72 48 12 39 106 
26 11 47 88 9 109 74 42 60 53 71 58 46 
27 11 29 121 84 48 125 67 24 80 127 52 45 
28 11 103 10 22 87 15 2 83 54 59 93 75 
29 11 27 121 84 125 48 127 80 24 45 67 52 
30 11 16 11 94 119 105 117 120 101 115 109 128 
31 10 104 41 129 78 99 3 97 123 114 112 
32 10 95 90 36 85 82 37 65 86 118 89 
33 11 56 17 111 6 40 122 126 91 5 38 70 
34 11 4 73 44 50 8 43 20 35 68 63 64 
35 11 8 23 44 20 73 77 76 21 34 4 19 
36 9 37 32 85 90 95 89 57 65 55 
37 8 85 90 36 65 55 32 95 82 
38 10 70 7 14 6 49 25 106 17 24 33 
39 10 12 72 48 57 67 24 25 27 89 29 
40 6 122 126 91 106 6 112 
41 7 129 99 112 31 104 81 91 
42 11 74 60 46 9 47 26 68 53 43 64 88 
43 11 68 50 64 46 34 4 73 60 44 8 42 
44 11 8 73 20 34 35 4 23 19 43 50 63 
45 7 127 125 29 84 52 121 27 
46 11 60 42 68 74 43 64 9 50 47 73 34 
47 11 26 88 74 42 9 60 46 109 53 79 68 
48 10 12 67 24 27 39 29 72 57 121 84 
49 11 7 25 38 14 70 24 72 6 12 39 48 
50 11 43 4 34 68 64 73 13 44 46 8 20 
51 10 76 77 21 102 52 53 23 80 58 98 
52 9 80 84 121 125 29 45 27 127 98 
53 10 58 9 71 26 42 74 60 51 109 76 
54 7 2 59 110 107 96 108 113 
55 8 65 85 37 90 95 82 32 36 
56 11 111 33 17 6 91 122 126 40 5 81 38 
57 10 67 89 12 39 48 36 72 121 27 29 
58 8 53 71 9 109 45 26 127 125 
59 9 54 108 110 2 22 114 123 97 3 
60 11 42 74 46 9 68 47 43 26 64 53 76 
61 8 66 92 21 102 23 98 77 86 
62 11 79 93 100 69 130 88 75 47 26 64 87 
63 11 19 20 4 34 44 73 8 50 35 13 23 
64 11 68 43 50 46 60 4 34 42 13 74 73 
65 8 55 85 90 37 95 82 32 86 
66 10 61 21 23 77 35 92 102 20 19 8 
67 10 57 48 89 12 27 121 29 39 84 80 
68 11 64 43 46 50 60 42 34 4 74 73 44 
69 11 100 64 62 68 13 50 43 79 46 47 93 
70 9 38 14 7 6 25 49 106 24 17 
71 8 58 109 53 128 9 26 30 16 
72 10 39 12 48 24 57 67 25 49 27 29 
73 11 44 8 34 4 35 20 43 50 23 68 46 
74 11 42 60 9 46 47 26 68 53 88 43 64 
75 11 130 18 87 83 79 93 124 117 88 15 116 
76 11 77 51 21 35 23 8 44 73 60 46 53 
77 11 21 76 23 35 51 8 66 44 73 20 102 
78 7 3 97 123 114 108 104 110 
79 11 93 62 130 75 88 47 18 87 26 83 100 
80 8 52 84 121 125 29 27 98 118 
81 10 5 91 112 99 126 129 122 41 40 31 
82 6 86 95 90 65 32 85 
83 9 124 87 15 116 113 18 96 117 107 
84 9 121 80 52 125 29 27 45 127 67 
85 8 37 65 90 55 95 32 36 82 
86 5 82 95 92 90 32 
87 10 83 15 124 18 75 116 113 96 130 2 
88 11 47 26 79 130 109 75 74 42 18 9 16 
89 9 57 67 118 98 32 36 80 121 84 
90 8 85 95 65 32 37 55 82 36 
91 9 81 5 126 122 112 99 40 129 41 
92 8 61 86 82 98 102 118 95 32 
93 11 79 62 130 75 87 88 103 18 83 124 15 
94 9 11 120 105 117 30 16 115 119 116 
95 7 90 32 82 85 86 65 37 
96 7 113 107 116 15 2 54 124 
97 7 123 78 114 3 108 110 104 
98 8 118 102 80 89 92 52 84 32 
99 9 129 112 41 81 31 5 91 126 104 
100 11 69 62 64 79 68 93 13 43 50 47 88 
101 8 119 128 115 105 30 11 16 120 
102 9 98 118 92 51 80 21 52 61 66 
103 11 28 10 87 15 22 75 93 83 2 130 124 
104 8 78 97 3 123 31 114 108 110 
105 9 120 115 94 11 119 30 16 117 101 
106 5 14 40 6 70 122 
107 5 96 113 54 116 2 
108 8 114 123 110 97 78 3 54 59 
109 11 26 16 71 30 11 88 58 47 9 119 53 
110 7 108 114 123 97 54 78 3 
111 11 56 33 17 6 91 5 122 126 40 38 81 
112 9 99 129 41 81 91 126 5 122 31 
113 7 96 107 116 15 124 2 83 
114 9 123 108 97 78 3 110 104 59 54 
115 7 105 120 119 94 11 101 30 
116 7 113 124 96 107 83 117 15 
117 10 94 18 11 124 116 120 16 105 30 83 
118 9 98 102 89 80 32 92 52 84 95 
119 10 101 105 115 11 30 120 128 16 94 117 
120 8 105 115 94 11 117 119 30 116 
121 10 84 29 27 80 52 125 67 45 127 48 
122 8 40 126 91 81 112 5 106 17 
123 8 97 114 78 108 3 110 104 59 
124 9 83 116 113 18 15 96 87 117 107 
125 8 45 127 84 121 52 29 27 80 
126 8 122 91 40 81 112 5 99 129 
127 8 45 125 29 27 84 121 52 80 
128 7 101 119 30 105 115 16 11 
129 9 99 41 112 31 81 5 91 104 126 
130 11 75 18 79 87 93 83 88 124 117 15 116 
DEPOT_SECTION
   1
   -1
EOF
