NAME :  X-n129-kX-w12-c11.cctp
COMMENT : 	Adapted by Maziero, Usberti and Cavellucci from the Uchoa, Pecin, Pessoa, Poggi, Subramanian, and Vidal (2013)
TYPE :  CCTP
DIMENSION :    96
EDGE_WEIGHT_TYPE : 	EUC_2D	
CAPACITY : 	39
VERTICES_WITHIN_COVERAGE :  11
VERTICES_WITH_DEMAND : 	12
NODE_COORD_SECTION
1 0 0
2 51 570
3 691 985
4 66 119
5 502 415
6 434 289
7 427 584
8 342 576
9 790 87
10 312 475
11 908 531
12 840 566
13 863 232
14 515 175
15 9 243
16 768 209
17 777 582
18 84 508
19 380 523
20 544 961
21 408 661
22 57 588
23 223 385
24 560 632
25 235 655
26 765 267
27 459 976
28 585 962
29 650 444
30 931 52
31 178 633
32 917 803
33 871 677
34 208 651
35 35 437
36 503 680
37 462 870
38 677 829
39 878 407
40 671 94
41 218 351
42 375 220
43 367 567
44 986 869
45 761 712
46 75 520
47 14 737
48 895 632
49 224 725
50 328 387
51 817 531
52 209 574
53 490 395
54 659 121
55 410 207
56 873 349
57 439 179
58 51 269
59 886 558
60 208 186
61 897 547
62 469 396
63 607 437
64 202 433
65 642 100
66 873 595
67 103 184
68 466 416
69 51 200
70 899 471
71 67 236
72 482 432
73 991 388
74 933 309
75 497 404
76 776 626
77 877 515
78 821 533
79 456 317
80 625 410
81 662 97
82 733 533
83 499 470
84 206 385
85 822 285
86 571 304
87 934 461
88 533 242
89 303 249
90 675 92
91 467 432
92 575 338
93 385 239
94 272 512
95 379 165
96 610 408
DEMAND_SECTION
2 9
3 8
4 8
5 4
6 4
7 3
8 6
9 10
10 8
11 8
12 3
13 2
COVERAGE_SECTION
2 9 22 46 18 35 31 52 47 34 25 
3 11 28 20 38 27 37 45 32 44 33 36 76 
4 6 67 69 71 15 58 60 
5 11 75 53 72 68 62 91 83 92 63 79 96 
6 11 79 93 55 42 57 88 62 53 68 75 95 
7 11 43 19 21 8 36 83 24 91 10 72 94 
8 11 43 19 7 94 10 21 25 52 34 31 83 
9 8 90 40 16 81 54 30 65 13 
10 11 94 19 50 8 43 64 23 84 52 41 7 
11 11 61 59 77 70 66 87 12 78 51 48 39 
12 11 78 51 66 59 61 77 17 11 48 76 70 
13 7 85 16 26 74 56 9 39 
14 6 88 57 55 95 6 86 
15 5 58 71 69 67 4 
16 5 26 85 13 9 54 
17 11 76 12 51 78 82 66 59 77 61 48 45 
18 9 46 2 22 35 64 52 31 84 23 
19 11 43 8 7 10 94 91 83 68 72 21 50 
20 9 28 27 37 3 38 36 21 24 45 
21 10 7 36 43 8 19 24 25 49 34 94 
22 8 2 46 18 31 35 52 47 34 
23 7 84 41 64 50 10 94 89 
24 11 36 7 21 83 82 63 43 29 19 72 45 
25 7 34 31 49 52 8 94 43 
26 4 16 85 13 56 
27 8 20 37 28 3 38 36 21 49 
28 10 20 3 27 37 38 36 45 24 21 32 
29 6 80 63 96 82 92 5 
30 10 9 13 16 74 85 90 40 26 81 54 
31 7 34 25 52 49 22 2 46 
32 11 44 33 48 45 66 76 38 59 12 61 17 
33 11 48 66 76 12 45 59 61 17 32 11 78 
34 6 25 31 49 52 94 8 
35 5 18 46 2 22 64 
36 11 24 21 7 43 8 37 19 83 38 72 91 
37 9 27 20 28 36 21 38 3 24 49 
38 11 45 3 28 20 37 76 24 36 32 33 27 
39 7 56 70 87 77 74 73 11 
40 6 90 81 54 65 9 16 
41 7 23 84 64 50 89 10 60 
42 8 93 55 95 57 89 6 79 14 
43 11 8 19 7 21 10 94 52 25 83 91 36 
44 11 32 33 48 45 66 38 3 76 59 61 12 
45 11 76 33 17 38 48 66 12 32 82 51 78 
46 10 18 2 22 35 52 31 64 34 84 94 
47 6 22 2 31 49 34 46 
48 11 66 33 59 61 12 11 77 76 78 17 51 
49 5 25 34 31 52 8 
50 10 10 23 41 84 64 94 89 62 68 6 
51 10 78 12 77 17 59 61 82 66 11 70 
52 10 31 34 25 94 8 18 64 10 46 49 
53 11 75 62 5 68 72 91 83 79 92 6 96 
54 6 81 65 40 90 9 16 
55 9 42 57 93 95 6 14 89 79 88 
56 7 39 74 85 13 73 70 87 
57 8 55 95 14 42 93 6 88 79 
58 5 71 15 69 67 4 
59 11 61 11 66 77 12 78 51 48 70 87 17 
60 6 67 89 71 4 69 41 
61 11 59 11 77 66 12 70 78 51 48 87 17 
62 11 68 53 75 91 5 72 79 83 6 92 86 
63 9 96 80 29 92 5 83 75 53 72 
64 10 84 23 41 94 10 50 18 52 46 35 
65 6 81 54 40 90 14 9 
66 11 59 48 12 61 11 77 78 33 51 17 76 
67 6 69 71 4 58 60 15 
68 11 91 62 72 53 75 5 83 79 6 92 19 
69 6 71 67 15 58 4 60 
70 11 87 77 11 39 61 59 78 51 12 73 56 
71 5 58 69 15 67 4 
72 11 91 68 5 75 53 62 83 79 63 96 92 
73 10 87 74 39 56 70 11 77 61 85 59 
74 8 56 73 13 39 85 87 70 26 
75 11 53 5 62 72 68 91 83 79 92 96 63 
76 11 17 45 12 66 82 51 78 33 48 59 61 
77 11 11 61 59 70 78 51 12 87 66 39 48 
78 10 51 12 77 17 59 61 66 11 82 70 
79 11 6 62 53 75 68 93 88 5 86 91 72 
80 8 96 63 29 92 86 5 75 53 
81 6 40 90 65 54 9 16 
82 7 17 51 78 76 12 29 77 
83 11 72 91 5 68 75 53 62 63 96 19 7 
84 7 23 41 64 50 10 94 89 
85 6 26 13 56 16 74 39 
86 9 92 88 96 79 80 53 75 5 62 
87 11 70 11 39 77 73 61 59 56 78 51 12 
88 8 14 86 92 79 6 57 55 93 
89 8 42 93 95 60 55 41 6 50 
90 6 40 81 54 65 9 16 
91 11 72 68 62 5 75 53 83 79 19 63 92 
92 10 86 96 80 53 75 63 88 5 62 79 
93 9 42 55 6 95 57 89 79 14 88 
94 11 10 52 8 64 19 43 23 50 84 25 31 
95 7 55 42 57 93 89 6 14 
96 10 80 63 29 92 5 86 75 53 83 72 
DEPOT_SECTION
   1
   -1
EOF
