NAME :  X-n115-kX-w22-c7.cctp
COMMENT : 	Adapted by Maziero, Usberti and Cavellucci from the Uchoa, Pecin, Pessoa, Poggi, Subramanian, and Vidal (2013)
TYPE :  CCTP
DIMENSION :    96
EDGE_WEIGHT_TYPE : 	EUC_2D	
CAPACITY : 	169
VERTICES_WITHIN_COVERAGE :  7
VERTICES_WITH_DEMAND : 	22
NODE_COORD_SECTION
1 500 500
2 865 693
3 633 220
4 173 361
5 89 714
6 350 102
7 301 24
8 834 663
9 841 997
10 394 790
11 276 488
12 779 312
13 939 66
14 595 462
15 940 964
16 459 459
17 432 280
18 379 338
19 128 439
20 401 22
21 69 887
22 499 657
23 633 46
24 713 182
25 540 169
26 298 725
27 410 644
28 512 889
29 756 352
30 405 407
31 850 365
32 90 553
33 691 383
34 926 631
35 998 736
36 921 854
37 532 257
38 238 513
39 976 912
40 893 74
41 590 548
42 99 355
43 294 39
44 58 429
45 471 573
46 520 109
47 486 611
48 409 682
49 296 843
50 717 390
51 152 711
52 257 539
53 270 31
54 823 409
55 203 849
56 770 627
57 786 186
58 380 300
59 973 847
60 985 975
61 690 428
62 910 568
63 181 186
64 814 694
65 702 927
66 385 696
67 48 323
68 813 293
69 490 676
70 729 923
71 719 883
72 167 14
73 98 159
74 476 709
75 402 339
76 911 734
77 590 230
78 122 698
79 154 418
80 165 998
81 217 599
82 766 21
83 831 607
84 70 494
85 220 740
86 19 855
87 818 409
88 503 304
89 254 282
90 331 57
91 118 404
92 576 658
93 558 611
94 629 732
95 893 182
96 435 1000
DEMAND_SECTION
2 86
3 98
4 89
5 91
6 74
7 87
8 65
9 62
10 60
11 99
12 96
13 79
14 6
15 10
16 3
17 8
18 8
19 10
20 1
21 9
22 6
23 4
COVERAGE_SECTION
2 7 8 64 76 34 83 56 62 
3 7 77 24 25 37 88 57 46 
4 7 79 91 42 19 89 67 44 
5 6 78 51 85 86 32 81 
6 7 90 43 7 20 53 46 63 
7 7 43 53 90 6 20 72 63 
8 7 64 2 83 56 34 76 62 
9 7 15 70 60 65 39 36 71 
10 7 66 48 49 74 26 27 69 
11 6 38 52 81 79 30 19 
12 7 68 29 31 50 87 54 33 
13 5 40 95 82 57 24 
14 4 41 61 33 16 
15 7 60 39 9 36 59 70 76 
16 7 30 45 75 14 18 47 41 
17 7 58 75 88 18 37 30 25 
18 7 75 58 30 17 88 89 16 
19 7 79 91 44 84 42 4 32 
20 7 90 6 7 43 53 46 25 
21 7 86 55 80 5 51 78 85 
22 7 69 47 74 93 92 45 27 
23 7 46 82 25 24 3 77 57 
24 7 57 3 77 12 68 23 82 
25 7 46 77 37 3 88 23 17 
26 7 85 66 10 49 48 27 51 
27 7 48 66 47 69 22 74 45 
28 4 96 10 74 65 
29 7 12 50 33 68 87 54 31 
30 7 75 18 16 58 17 88 11 
31 5 54 87 68 12 29 
32 6 84 19 44 81 78 79 
33 6 50 61 29 12 14 87 
34 7 62 2 8 83 76 35 64 
35 7 76 59 34 2 36 39 8 
36 7 59 39 15 76 60 35 9 
37 7 88 77 25 17 3 46 75 
38 6 52 11 81 79 19 32 
39 7 15 60 59 36 9 35 76 
40 6 13 95 82 57 24 68 
41 5 93 14 92 45 47 
42 7 91 67 4 79 44 19 84 
43 7 7 53 90 6 20 72 63 
44 7 91 84 19 42 79 67 32 
45 7 47 22 27 93 69 16 41 
46 7 25 23 77 20 37 3 6 
47 7 45 22 69 93 27 74 92 
48 7 66 27 74 69 22 47 10 
49 7 55 10 26 85 66 51 48 
50 6 33 61 29 12 87 54 
51 6 78 5 85 81 26 55 
52 6 38 11 81 79 19 32 
53 7 43 7 90 72 6 20 63 
54 5 87 31 29 12 50 
55 7 49 85 21 51 80 26 78 
56 3 83 8 64 
57 6 24 95 68 12 40 3 
58 7 18 75 17 30 88 89 37 
59 7 36 39 35 15 60 76 2 
60 7 15 39 59 36 9 35 76 
61 4 33 50 14 29 
62 3 34 83 8 
63 7 73 89 72 4 53 43 42 
64 6 8 2 56 83 76 34 
65 4 70 71 9 28 
66 7 48 27 26 74 10 69 22 
67 7 42 44 91 4 19 79 73 
68 6 12 31 29 57 54 87 
69 7 22 74 47 48 27 92 93 
70 4 65 71 9 36 
71 4 70 65 9 94 
72 7 53 43 7 73 90 63 6 
73 7 63 72 67 42 89 53 4 
74 7 69 22 48 66 27 47 92 
75 7 18 58 17 30 88 16 37 
76 7 2 35 34 8 64 36 59 
77 7 3 37 25 88 24 46 17 
78 6 51 5 85 81 32 55 
79 7 19 91 4 42 44 84 38 
80 7 21 55 49 86 85 96 51 
81 6 52 38 11 51 32 78 
82 7 23 40 57 24 13 95 3 
83 6 8 56 62 64 2 34 
84 7 32 44 19 91 79 42 4 
85 6 51 26 78 55 49 5 
86 7 21 5 55 78 51 80 85 
87 5 54 31 29 50 12 
88 7 37 17 75 77 58 18 25 
89 7 4 63 58 18 75 79 42 
90 7 43 7 6 53 20 72 46 
91 7 19 79 42 44 4 84 67 
92 5 93 22 69 94 47 
93 6 92 41 47 22 69 45 
94 4 92 93 22 69 
95 5 57 40 13 68 12 
96 4 28 49 10 80 
DEPOT_SECTION
   1
   -1
EOF
