NAME :  X-n181-kX-w72-c9.cctp
COMMENT : 	Adapted by Maziero, Usberti and Cavellucci from the Uchoa, Pecin, Pessoa, Poggi, Subramanian, and Vidal (2013)
TYPE :  CCTP
DIMENSION :    180
EDGE_WEIGHT_TYPE : 	EUC_2D	
CAPACITY : 	8
VERTICES_WITHIN_COVERAGE :  9
VERTICES_WITH_DEMAND : 	72
NODE_COORD_SECTION
1 894 510
2 463 887
3 704 177
4 424 368
5 420 800
6 492 610
7 607 749
8 455 819
9 343 457
10 387 275
11 466 653
12 607 348
13 428 546
14 764 848
15 403 298
16 315 738
17 457 902
18 597 584
19 219 552
20 526 359
21 414 340
22 398 401
23 579 780
24 518 563
25 531 597
26 501 827
27 687 200
28 670 234
29 488 981
30 673 222
31 359 256
32 537 675
33 788 95
34 433 820
35 397 770
36 444 799
37 367 288
38 253 774
39 570 853
40 379 843
41 388 736
42 565 785
43 608 193
44 430 657
45 775 142
46 721 600
47 434 876
48 683 311
49 592 740
50 500 315
51 428 915
52 710 258
53 709 272
54 426 803
55 409 639
56 535 572
57 502 916
58 528 728
59 351 371
60 657 782
61 493 265
62 751 112
63 469 594
64 720 165
65 463 624
66 751 96
67 496 833
68 565 459
69 471 361
70 448 969
71 361 559
72 529 582
73 515 809
74 497 434
75 429 879
76 483 715
77 264 574
78 793 916
79 448 386
80 325 199
81 327 370
82 484 861
83 432 873
84 412 853
85 641 155
86 712 163
87 456 612
88 301 921
89 480 400
90 700 165
91 690 213
92 478 811
93 665 56
94 430 368
95 414 943
96 709 235
97 296 297
98 380 773
99 459 423
100 498 910
101 464 939
102 677 704
103 420 381
104 398 872
105 554 512
106 486 614
107 584 809
108 429 336
109 461 529
110 470 360
111 494 769
112 407 661
113 687 711
114 454 745
115 593 471
116 537 648
117 666 111
118 452 797
119 430 742
120 481 958
121 636 741
122 405 576
123 666 234
124 603 683
125 378 867
126 611 739
127 342 688
128 446 280
129 585 888
130 496 418
131 711 27
132 791 198
133 660 828
134 414 839
135 504 592
136 665 921
137 448 320
138 550 637
139 637 758
140 743 166
141 504 869
142 708 432
143 664 343
144 499 493
145 878 706
146 396 920
147 275 924
148 727 669
149 728 203
150 367 739
151 444 808
152 755 303
153 445 864
154 561 848
155 597 660
156 386 700
157 652 240
158 344 301
159 209 369
160 571 812
161 454 353
162 497 781
163 697 220
164 296 787
165 517 506
166 409 893
167 339 886
168 518 788
169 719 99
170 607 654
171 218 312
172 533 847
173 523 938
174 598 705
175 481 772
176 461 431
177 375 722
178 460 681
179 524 610
180 771 752
DEMAND_SECTION
2 1
3 1
4 1
5 1
6 1
7 1
8 1
9 1
10 1
11 1
12 1
13 1
14 1
15 1
16 1
17 1
18 1
19 1
20 1
21 1
22 1
23 1
24 1
25 1
26 1
27 1
28 1
29 1
30 1
31 1
32 1
33 1
34 1
35 1
36 1
37 1
38 1
39 1
40 1
41 1
42 1
43 1
44 1
45 1
46 1
47 1
48 1
49 1
50 1
51 1
52 1
53 1
54 1
55 1
56 1
57 1
58 1
59 1
60 1
61 1
62 1
63 1
64 1
65 1
66 1
67 1
68 1
69 1
70 1
71 1
72 1
73 1
COVERAGE_SECTION
2 9 17 153 47 82 83 75 100 51 141 
3 9 90 86 64 27 149 91 140 163 30 
4 9 94 103 21 79 108 161 22 110 69 
5 9 54 34 36 151 118 35 134 8 98 
6 9 106 135 63 65 179 87 25 72 11 
7 9 126 49 121 139 23 174 42 60 107 
8 9 151 34 118 36 92 54 5 67 134 
9 9 22 59 81 71 103 4 99 176 13 
10 9 37 15 31 158 128 21 108 137 97 
11 9 65 178 44 87 106 6 55 63 112 
12 9 143 20 48 50 157 68 115 53 123 
13 9 109 122 63 71 87 65 106 135 144 
14 9 78 180 133 136 60 139 113 121 102 
15 9 10 37 21 108 128 137 158 31 4 
16 9 150 164 127 177 38 41 98 156 35 
17 9 2 51 47 75 83 101 153 100 57 
18 9 56 25 72 138 170 155 179 24 105 
19 9 77 71 9 127 159 122 13 16 55 
20 9 50 69 110 89 130 161 74 12 79 
21 9 108 4 94 137 103 161 15 79 110 
22 9 103 4 94 79 59 21 99 176 108 
23 9 42 107 160 7 49 126 139 168 121 
24 9 56 72 135 25 179 6 165 63 106 
25 9 72 179 56 135 24 6 138 106 116 
26 9 67 73 92 82 172 141 168 162 8 
27 9 91 163 30 3 90 28 123 96 149 
28 9 123 30 157 91 163 27 96 52 53 
29 9 120 70 101 173 57 100 95 17 51 
30 9 28 123 91 163 27 157 96 52 3 
31 9 37 10 158 15 80 97 128 21 108 
32 9 116 138 58 155 124 179 76 174 170 
33 9 66 62 45 169 140 64 86 131 132 
34 9 151 54 8 5 36 134 118 84 92 
35 9 98 41 5 119 150 54 177 36 151 
36 9 118 151 54 8 5 34 92 175 134 
37 9 10 158 31 15 21 97 108 128 59 
38 9 164 16 150 127 98 177 41 167 35 
39 9 154 172 129 160 107 42 141 73 23 
40 9 125 84 104 134 166 5 34 167 83 
41 9 177 150 35 156 98 119 127 114 5 
42 9 23 160 107 168 49 7 73 154 126 
43 9 85 157 30 123 28 27 91 163 90 
44 9 112 55 11 178 65 87 156 106 63 
45 9 62 140 33 66 132 64 86 169 149 
46 9 148 102 113 18 170 155 124 180 174 
47 9 83 75 153 166 2 84 17 104 51 
48 9 143 53 52 152 157 28 123 96 12 
49 9 7 126 174 23 121 139 42 124 58 
50 9 61 20 137 69 110 161 128 108 89 
51 9 166 95 17 146 75 47 83 101 2 
52 9 53 96 163 28 91 123 30 149 48 
53 9 52 96 48 163 28 152 123 30 91 
54 9 5 34 36 151 118 8 134 35 84 
55 9 112 44 87 65 11 122 156 178 63 
56 9 72 24 25 135 179 6 18 105 106 
57 9 100 173 101 17 120 141 2 82 29 
58 9 76 111 32 162 168 175 49 42 23 
59 9 81 22 21 103 158 4 94 37 108 
60 9 139 121 133 7 126 49 113 23 107 
61 9 128 50 137 15 108 161 69 110 20 
62 9 66 169 45 33 140 64 86 90 3 
63 9 87 106 6 65 135 179 24 11 72 
64 9 86 3 90 140 149 27 91 45 163 
65 9 87 106 11 63 6 44 135 55 178 
66 9 62 169 33 45 140 64 86 131 90 
67 9 26 92 82 73 141 172 8 168 162 
68 8 115 105 165 74 144 130 89 20 
69 9 110 161 79 89 94 137 4 108 50 
70 9 101 120 29 95 51 17 146 57 100 
71 9 122 13 55 77 9 109 87 112 63 
72 9 56 25 24 135 179 6 106 138 63 
73 9 168 26 67 162 92 172 111 175 42 
74 8 130 176 89 99 144 79 68 165 
75 9 47 83 153 166 84 104 2 17 51 
76 9 178 114 58 111 175 119 11 32 162 
77 9 19 71 127 9 122 55 13 112 16 
78 9 14 136 133 180 60 129 139 145 113 
79 9 94 103 4 69 110 161 89 99 176 
80 9 31 10 37 97 158 15 128 171 21 
81 9 59 158 22 97 9 37 21 103 4 
82 9 141 67 2 26 153 17 92 8 100 
83 9 47 75 153 84 166 2 104 17 134 
84 9 134 104 83 75 47 40 153 125 34 
85 9 43 117 90 27 3 86 30 91 64 
86 9 64 90 3 140 149 27 91 163 62 
87 9 65 63 106 6 11 44 135 55 122 
88 9 147 167 125 146 104 40 166 95 51 
89 9 130 99 79 176 74 69 110 161 94 
90 9 86 3 64 27 140 149 91 163 85 
91 9 163 27 30 28 96 123 3 149 157 
92 9 8 26 67 118 151 36 162 73 175 
93 9 131 117 169 66 85 62 90 86 64 
94 9 4 103 79 161 21 108 110 69 22 
95 9 146 51 70 101 166 17 75 120 47 
96 9 163 52 91 53 149 30 28 27 123 
97 9 158 37 31 81 171 59 10 80 15 
98 9 35 150 41 5 177 54 119 36 40 
99 8 176 89 130 79 74 103 94 69 
100 9 57 173 141 2 17 101 82 120 51 
101 9 120 70 17 51 57 100 29 95 2 
102 9 113 121 148 139 126 124 174 60 7 
103 9 4 94 79 22 21 161 108 110 69 
104 9 125 84 166 75 83 40 47 134 146 
105 9 165 68 115 144 24 56 72 18 25 
106 9 6 65 63 135 87 179 11 25 72 
107 9 160 23 42 154 39 7 172 49 73 
108 9 21 137 161 4 94 15 103 110 69 
109 8 13 144 165 63 24 122 135 87 
110 9 69 161 79 89 94 137 4 108 50 
111 9 162 175 168 73 92 114 118 58 76 
112 9 55 44 156 178 11 65 87 177 127 
113 9 102 148 121 139 60 126 7 124 174 
114 9 119 175 76 111 118 36 162 35 54 
115 9 68 105 165 144 74 130 18 56 24 
116 9 138 32 179 25 6 106 155 135 72 
117 9 85 169 93 90 86 3 64 62 66 
118 9 36 151 8 54 34 92 5 175 162 
119 9 114 41 35 5 36 76 98 118 175 
120 9 29 101 70 57 173 100 17 51 95 
121 9 139 126 7 49 60 174 102 113 124 
122 9 13 71 87 55 63 109 65 44 112 
123 9 28 30 157 91 163 27 96 52 53 
124 9 174 155 170 126 49 7 32 121 138 
125 9 104 40 84 166 167 134 75 83 146 
126 9 7 49 121 139 174 23 124 60 42 
127 9 156 177 16 150 41 112 55 44 98 
128 9 137 15 61 10 108 50 21 161 37 
129 9 39 154 172 160 107 173 141 136 57 
130 8 74 89 99 176 79 69 110 20 
131 9 93 169 66 62 117 33 45 86 64 
132 9 45 140 149 64 86 3 96 62 90 
133 9 60 139 107 121 160 39 136 23 7 
134 9 84 34 40 104 54 83 5 153 47 
135 9 6 25 72 179 106 24 63 56 65 
136 9 129 133 39 14 154 78 107 60 173 
137 9 108 161 21 128 110 69 15 94 50 
138 9 116 179 32 25 155 72 170 6 135 
139 9 121 7 60 126 49 23 174 102 113 
140 9 64 86 45 149 3 90 62 132 27 
141 9 82 172 67 100 26 2 57 17 153 
142 9 143 115 48 12 152 68 53 46 52 
143 9 48 12 53 52 142 152 157 28 123 
144 8 165 109 105 74 24 176 68 130 
145 9 180 148 14 46 113 102 78 60 121 
146 9 95 166 51 104 75 125 47 83 17 
147 9 88 167 125 146 40 104 166 164 95 
148 9 113 102 46 180 121 170 124 139 155 
149 9 3 163 96 64 91 140 27 86 90 
150 9 177 41 98 35 156 16 127 119 5 
151 9 36 118 8 34 54 5 92 134 175 
152 9 53 52 48 96 143 163 149 28 91 
153 9 47 83 75 2 84 82 17 134 8 
154 9 39 172 160 107 129 73 141 42 26 
155 9 170 124 174 138 116 32 18 49 126 
156 9 177 41 150 112 127 119 44 55 35 
157 9 123 28 30 91 163 27 96 52 43 
158 9 37 31 97 10 15 59 81 21 108 
159 9 171 97 81 59 158 9 37 19 31 
160 9 107 42 23 154 39 172 73 168 26 
161 9 110 69 94 108 4 79 137 21 103 
162 9 111 175 168 73 92 26 118 67 36 
163 9 91 96 27 30 28 123 149 52 3 
164 9 38 16 98 150 40 35 177 41 167 
165 8 144 105 24 109 68 56 74 72 
166 9 75 104 51 47 83 146 84 125 153 
167 9 125 88 40 104 146 166 147 84 134 
168 9 73 162 111 175 26 92 42 67 160 
169 9 66 62 117 86 64 33 90 93 45 
170 9 155 124 174 138 116 18 32 126 102 
171 9 159 97 81 158 59 37 31 80 10 
172 9 154 141 39 26 67 73 82 160 168 
173 9 57 100 120 29 101 141 17 2 129 
174 9 124 49 126 7 155 121 170 139 32 
175 9 111 162 114 118 92 168 36 73 151 
176 8 99 74 89 130 79 103 22 94 
177 9 41 150 156 127 98 35 119 16 112 
178 9 11 44 76 65 112 114 55 119 87 
179 9 25 135 72 6 138 106 56 116 24 
180 9 113 148 14 102 145 60 139 121 133 
DEPOT_SECTION
   1
   -1
EOF
