NAME :  X-n106-kX-w21-c7.cctp
COMMENT : 	Adapted by Maziero, Usberti and Cavellucci from the Uchoa, Pecin, Pessoa, Poggi, Subramanian, and Vidal (2013)
TYPE :  CCTP
DIMENSION :    96
EDGE_WEIGHT_TYPE : 	EUC_2D	
CAPACITY : 	600
VERTICES_WITHIN_COVERAGE :  7
VERTICES_WITH_DEMAND : 	21
NODE_COORD_SECTION
1 0 0
2 615 190
3 890 200
4 983 684
5 959 743
6 569 146
7 969 841
8 607 256
9 936 274
10 650 221
11 943 547
12 789 172
13 632 209
14 849 163
15 829 283
16 618 147
17 925 627
18 925 192
19 903 460
20 666 368
21 906 622
22 833 185
23 411 136
24 989 691
25 601 221
26 429 500
27 522 218
28 760 346
29 951 705
30 898 154
31 953 661
32 775 159
33 900 649
34 943 290
35 724 315
36 927 705
37 865 817
38 872 161
39 966 478
40 974 694
41 603 140
42 598 122
43 777 693
44 890 231
45 775 230
46 908 849
47 625 138
48 490 185
49 643 163
50 849 183
51 998 675
52 619 495
53 844 67
54 861 276
55 888 679
56 641 141
57 869 766
58 852 110
59 976 143
60 921 783
61 688 211
62 857 199
63 758 636
64 990 213
65 973 806
66 748 240
67 737 95
68 933 664
69 770 172
70 616 250
71 641 146
72 867 199
73 544 327
74 711 277
75 893 778
76 992 868
77 869 204
78 646 260
79 849 185
80 918 400
81 645 144
82 923 339
83 582 212
84 1000 309
85 572 192
86 989 59
87 798 642
88 582 39
89 686 188
90 995 720
91 802 185
92 603 126
93 657 185
94 574 195
95 614 195
96 961 162
DEMAND_SECTION
2 81
3 64
4 51
5 61
6 71
7 83
8 92
9 66
10 92
11 78
12 98
13 88
14 70
15 72
16 92
17 84
18 51
19 81
20 71
21 98
22 70
COVERAGE_SECTION
2 7 95 13 25 49 83 94 93 
3 7 77 72 44 62 18 38 50 
4 6 24 40 51 29 31 90 
5 7 29 90 36 40 60 24 4 
6 7 41 42 92 85 16 94 47 
7 7 65 76 46 60 5 75 37 
8 7 70 25 78 83 13 10 95 
9 7 34 44 82 84 54 64 18 
10 6 13 93 61 78 95 70 
11 7 39 17 21 19 33 31 68 
12 7 91 32 69 22 45 14 50 
13 6 10 95 2 25 93 70 
14 7 50 79 38 22 62 72 77 
15 7 54 45 44 62 77 66 72 
16 7 47 41 71 56 92 81 49 
17 6 21 33 68 31 55 36 
18 7 3 30 96 44 77 72 38 
19 7 80 39 11 82 21 17 34 
20 7 35 28 74 78 8 70 73 
21 6 17 33 68 55 31 11 
22 7 50 79 14 62 91 72 77 
23 5 48 27 6 85 94 
24 6 4 40 51 90 29 31 
25 7 83 95 13 70 2 8 94 
26 5 52 73 20 27 8 
27 6 48 85 94 83 25 6 
28 7 35 74 15 20 66 45 54 
29 6 36 40 4 5 24 31 
30 7 38 3 18 14 72 50 77 
31 6 68 4 40 17 29 24 
32 7 69 12 91 22 45 14 67 
33 6 21 55 17 68 31 36 
34 7 9 82 84 44 54 64 18 
35 6 74 28 20 66 78 45 
36 6 29 68 55 40 5 31 
37 7 75 57 46 60 7 65 5 
38 7 14 30 50 79 72 62 3 
39 7 19 11 80 82 17 21 84 
40 6 4 24 29 51 90 31 
41 7 92 16 42 47 6 56 71 
42 7 92 41 47 16 6 56 71 
43 7 87 63 55 57 33 75 21 
44 7 3 77 72 62 18 54 79 
45 6 66 91 69 12 32 22 
46 7 37 7 60 75 65 76 57 
47 7 16 56 71 81 41 92 42 
48 5 27 85 94 6 23 
49 5 71 81 56 93 16 
50 7 79 22 62 14 72 77 38 
51 7 4 24 40 90 31 29 68 
52 7 20 73 26 63 28 35 87 
53 7 58 14 38 30 67 32 50 
54 7 15 44 77 9 62 72 3 
55 6 33 36 68 21 17 31 
56 6 71 81 47 49 16 41 
57 7 75 37 60 36 55 46 5 
58 7 53 14 38 30 50 79 22 
59 7 96 18 64 30 86 3 38 
60 7 75 5 57 65 37 46 7 
61 3 89 10 93 
62 7 72 77 79 50 22 3 14 
63 7 87 43 55 33 21 17 57 
64 7 96 18 59 9 34 84 3 
65 7 7 60 5 76 46 75 90 
66 6 45 74 61 69 91 12 
67 4 32 69 12 81 
68 6 31 33 17 36 29 55 
69 7 32 12 91 45 22 66 14 
70 7 8 78 25 13 10 83 95 
71 5 81 56 49 47 16 
72 7 77 62 3 79 50 22 38 
73 6 8 70 27 25 83 78 
74 6 35 66 78 61 45 10 
75 7 57 60 37 46 5 36 65 
76 7 7 65 46 60 5 75 37 
77 7 72 62 3 79 50 44 22 
78 7 70 8 10 13 25 61 74 
79 7 50 22 62 14 72 77 38 
80 7 82 19 39 34 84 9 54 
81 5 71 56 49 47 16 
82 7 34 80 9 84 54 15 44 
83 7 94 25 85 95 2 13 8 
84 7 34 9 82 64 80 44 18 
85 7 94 83 25 95 2 6 27 
86 7 59 96 30 53 58 18 64 
87 7 63 43 55 33 21 17 68 
88 6 42 92 41 6 47 16 
89 3 61 93 10 
90 7 24 40 4 5 51 29 36 
91 7 12 22 69 32 50 79 14 
92 7 42 41 47 16 6 56 71 
93 3 49 89 13 
94 7 85 83 25 95 2 6 27 
95 7 2 13 25 83 94 85 49 
96 7 59 18 64 30 3 38 44 
DEPOT_SECTION
   1
   -1
EOF
