NAME :  X-n167-kX-w33-c11.cctp
COMMENT : 	Adapted by Maziero, Usberti and Cavellucci from the Uchoa, Pecin, Pessoa, Poggi, Subramanian, and Vidal (2013)
TYPE :  CCTP
DIMENSION :    158
EDGE_WEIGHT_TYPE : 	EUC_2D	
CAPACITY : 	133
VERTICES_WITHIN_COVERAGE :  11
VERTICES_WITH_DEMAND : 	33
NODE_COORD_SECTION
1 0 0
2 832 885
3 777 632
4 406 257
5 620 467
6 58 70
7 116 423
8 104 445
9 714 722
10 188 503
11 856 594
12 932 448
13 749 982
14 818 889
15 377 493
16 337 419
17 772 605
18 373 448
19 519 112
20 849 274
21 533 839
22 610 417
23 69 583
24 573 195
25 988 324
26 110 550
27 271 676
28 694 130
29 791 590
30 785 614
31 321 305
32 974 292
33 804 556
34 372 893
35 867 23
36 252 660
37 588 34
38 939 685
39 511 524
40 948 479
41 912 227
42 380 807
43 309 141
44 558 759
45 241 225
46 269 351
47 156 776
48 251 512
49 608 874
50 853 269
51 897 572
52 316 461
53 825 529
54 474 152
55 510 453
56 15 838
57 778 928
58 1 896
59 804 492
60 630 294
61 254 539
62 167 28
63 646 879
64 508 759
65 64 165
66 249 525
67 49 605
68 990 375
69 539 272
70 833 561
71 84 571
72 378 847
73 713 485
74 489 204
75 815 905
76 307 774
77 286 204
78 517 61
79 864 397
80 35 597
81 918 632
82 395 570
83 87 97
84 318 94
85 893 805
86 82 392
87 471 899
88 567 895
89 349 360
90 138 560
91 459 962
92 795 461
93 398 467
94 553 606
95 952 89
96 92 22
97 853 188
98 643 80
99 801 227
100 127 74
101 727 975
102 552 48
103 311 959
104 647 876
105 742 168
106 755 589
107 741 8
108 975 954
109 820 502
110 552 300
111 802 744
112 585 600
113 573 793
114 159 669
115 248 369
116 868 476
117 275 194
118 930 933
119 233 587
120 198 35
121 184 822
122 107 840
123 312 573
124 694 813
125 446 264
126 586 483
127 648 274
128 967 362
129 194 330
130 963 135
131 846 717
132 32 487
133 358 728
134 608 182
135 250 367
136 989 392
137 820 307
138 473 274
139 408 84
140 762 800
141 917 560
142 586 830
143 606 445
144 551 528
145 191 102
146 605 583
147 627 249
148 53 819
149 427 571
150 168 479
151 679 371
152 354 415
153 638 444
154 535 918
155 243 535
156 796 796
157 272 699
158 421 935
DEMAND_SECTION
2 6
3 9
4 7
5 5
6 9
7 5
8 9
9 7
10 10
11 8
12 6
13 5
14 9
15 8
16 9
17 10
18 5
19 7
20 8
21 5
22 9
23 9
24 7
25 5
26 7
27 8
28 5
29 10
30 9
31 9
32 9
33 9
34 7
COVERAGE_SECTION
2 11 14 75 57 156 85 118 140 13 101 111 124 
3 11 30 17 29 106 33 11 70 131 9 53 111 
4 11 125 138 31 74 89 54 77 69 117 43 110 
5 11 143 153 126 22 144 73 55 151 146 39 112 
6 11 83 96 100 65 62 145 120 45 117 43 84 
7 11 8 86 150 132 10 129 26 90 115 135 71 
8 11 7 86 150 132 10 26 90 71 23 129 48 
9 11 111 140 124 3 156 30 17 131 106 29 113 
10 11 150 48 155 66 61 90 26 119 8 7 71 
11 11 70 51 33 29 141 53 81 30 17 3 109 
12 11 40 116 136 79 68 128 141 109 51 53 59 
13 11 101 57 75 14 2 63 104 49 124 140 118 
14 11 2 75 57 156 140 85 13 118 101 124 111 
15 11 93 18 52 82 152 16 149 123 48 61 66 
16 11 152 18 52 89 93 15 46 135 115 31 48 
17 11 30 106 29 3 33 70 11 53 109 59 51 
18 11 93 152 15 16 52 89 82 149 55 48 123 
19 11 78 54 102 74 24 37 134 139 98 69 138 
20 11 50 137 99 41 97 79 32 128 25 105 68 
21 11 142 113 88 154 49 44 64 87 63 104 91 
22 11 143 153 5 126 151 55 73 60 144 110 39 
23 11 71 67 80 26 90 132 114 8 10 150 119 
24 11 134 147 69 74 19 110 54 127 60 138 98 
25 11 32 128 68 136 41 12 79 50 20 40 137 
26 11 90 71 23 67 80 10 150 132 8 7 119 
27 11 157 36 119 133 76 123 114 61 155 47 66 
28 11 105 98 134 107 24 147 37 99 127 102 97 
29 11 17 30 33 106 3 70 11 53 109 59 51 
30 11 17 3 29 106 33 70 11 53 109 51 131 
31 11 89 46 135 115 4 77 45 16 152 117 129 
32 11 25 128 68 41 136 50 20 79 137 130 97 
33 11 70 53 29 109 17 106 30 11 59 3 51 
34 11 72 158 42 103 87 91 76 154 133 21 64 
35 6 95 107 130 97 105 28 
36 11 27 157 119 114 123 61 155 133 76 66 48 
37 11 102 98 78 19 28 134 107 24 54 139 74 
38 11 81 131 51 11 141 85 111 70 3 30 29 
39 9 144 55 126 94 149 112 146 5 143 
40 11 12 116 141 136 51 68 79 128 109 53 70 
41 9 97 50 20 32 130 99 137 25 95 
42 11 72 76 133 34 87 158 64 157 21 103 27 
43 11 84 117 77 45 139 145 4 120 31 54 62 
44 10 113 64 142 21 49 88 124 104 63 94 
45 11 117 77 43 31 129 46 145 135 115 84 4 
46 11 135 115 31 129 89 16 152 52 45 18 77 
47 11 121 122 114 148 157 36 76 27 56 58 67 
48 11 66 155 61 10 119 52 123 150 90 15 16 
49 11 63 104 88 142 21 154 113 124 44 87 64 
50 11 20 137 99 41 97 32 79 25 128 105 68 
51 11 141 11 81 70 53 33 116 109 40 29 30 
52 11 16 18 152 15 93 48 66 61 155 89 123 
53 11 109 70 33 59 116 29 11 92 51 106 17 
54 11 74 19 139 78 24 125 138 4 102 69 134 
55 11 39 126 144 143 22 5 93 153 18 15 149 
56 10 148 58 122 47 121 114 67 80 23 71 
57 11 75 14 13 2 101 140 156 63 104 124 118 
58 10 56 148 122 47 121 114 67 80 103 23 
59 11 109 92 53 33 116 70 73 29 106 79 11 
60 11 127 147 110 151 69 24 134 22 153 143 138 
61 11 155 66 48 119 123 10 52 150 90 36 15 
62 11 120 100 96 145 83 6 84 65 43 117 45 
63 11 104 49 142 88 124 113 154 21 101 140 57 
64 9 44 113 21 142 42 87 88 49 133 
65 11 83 6 100 145 96 62 45 120 129 117 77 
66 11 155 48 61 119 10 123 52 150 90 15 36 
67 11 80 23 71 26 90 132 114 8 10 150 119 
68 11 136 128 25 32 12 40 79 116 41 20 50 
69 11 110 138 24 74 147 125 60 127 134 4 54 
70 11 33 53 11 29 109 51 30 17 59 106 141 
71 11 23 26 67 80 90 132 114 10 150 8 119 
72 11 42 34 158 76 87 133 103 91 21 64 154 
73 11 92 153 59 5 109 106 143 33 151 53 22 
74 11 54 138 125 24 69 19 4 110 134 139 147 
75 11 14 2 57 13 156 101 118 140 85 124 111 
76 11 133 42 157 72 27 36 121 34 47 114 103 
77 11 117 45 43 31 84 4 145 46 129 135 89 
78 11 102 19 37 54 139 98 24 74 134 28 84 
79 11 116 12 92 137 128 59 109 40 20 136 50 
80 11 67 23 71 26 90 132 114 8 150 10 7 
81 11 38 51 141 11 70 131 29 30 33 53 3 
82 9 149 15 123 93 18 39 52 61 66 
83 11 6 100 65 96 145 62 120 45 117 43 77 
84 11 43 139 117 77 145 120 45 62 54 4 100 
85 11 156 131 2 111 14 75 38 140 118 57 108 
86 11 7 8 132 150 129 10 26 115 135 90 71 
87 11 158 91 154 21 88 34 72 42 142 49 64 
88 11 154 49 21 142 63 104 87 113 91 44 64 
89 11 152 16 31 46 18 135 115 52 4 93 15 
90 11 26 71 23 10 150 119 67 155 80 114 66 
91 11 158 87 154 34 88 72 21 103 49 42 142 
92 11 59 109 53 116 73 79 33 70 29 106 12 
93 11 18 15 152 16 52 82 149 55 89 39 123 
94 8 112 146 144 39 126 149 44 5 
95 6 130 35 97 41 32 50 
96 11 6 100 62 83 120 145 65 84 43 117 45 
97 7 99 41 50 20 105 130 137 
98 11 28 37 102 134 107 78 19 105 24 147 54 
99 10 97 20 50 137 105 41 28 127 147 79 
100 11 83 62 96 6 145 120 65 45 117 84 43 
101 11 13 57 75 14 63 104 2 49 124 140 88 
102 11 78 37 19 98 54 134 24 139 28 74 107 
103 11 34 158 72 91 42 87 76 121 154 122 133 
104 11 63 49 142 124 88 113 21 154 101 140 57 
105 11 28 99 97 98 134 147 127 50 20 137 107 
106 11 17 29 30 3 33 70 53 11 59 109 73 
107 7 98 35 28 37 105 102 97 
108 11 118 2 75 14 85 57 13 156 101 140 131 
109 11 59 53 92 116 33 70 29 11 51 73 106 
110 11 69 60 138 147 127 24 125 74 22 134 151 
111 11 131 156 140 9 85 3 124 30 17 2 14 
112 8 146 94 144 39 126 5 143 44 
113 11 44 142 21 64 49 88 104 63 124 154 87 
114 11 36 47 119 90 27 157 71 23 67 26 80 
115 11 135 46 129 31 89 16 52 152 150 7 48 
116 11 109 59 53 12 92 79 40 70 141 51 33 
117 11 77 45 43 84 31 145 4 46 129 139 135 
118 11 108 2 75 14 85 57 13 156 101 140 111 
119 11 61 155 66 36 48 123 10 27 90 114 157 
120 11 62 145 100 96 83 84 6 43 117 65 77 
121 11 47 122 148 76 157 114 27 56 36 103 72 
122 10 148 121 47 56 58 114 76 157 36 27 
123 11 61 66 155 119 82 48 15 36 27 52 149 
124 11 140 104 63 9 156 49 142 113 111 57 14 
125 11 138 4 74 69 110 54 31 89 24 19 77 
126 11 5 143 144 153 22 55 39 146 112 73 94 
127 11 60 147 110 134 151 24 69 105 22 28 99 
128 11 68 136 25 32 12 79 40 41 20 50 116 
129 11 115 135 46 45 7 86 31 8 150 77 89 
130 6 95 41 97 35 32 50 
131 11 111 156 38 85 3 81 140 30 11 9 17 
132 11 8 71 26 23 7 86 80 67 90 150 10 
133 10 76 42 157 27 72 36 64 82 123 34 
134 11 24 147 28 127 98 19 69 60 74 110 105 
135 11 115 46 129 31 89 16 52 152 150 45 7 
136 11 68 128 25 12 40 32 79 116 41 20 50 
137 11 20 50 99 79 41 97 32 151 92 128 105 
138 11 125 69 4 74 110 54 24 89 31 147 60 
139 11 84 54 78 19 43 74 102 77 4 117 125 
140 11 156 111 124 9 14 2 75 131 57 85 104 
141 11 51 11 81 70 40 53 116 12 33 109 38 
142 11 113 49 21 88 44 104 63 154 64 124 87 
143 11 5 22 153 126 55 144 151 73 39 146 60 
144 9 39 126 146 94 112 55 5 143 153 
145 11 120 100 62 83 43 117 84 96 45 6 77 
146 9 112 94 144 126 39 5 143 153 73 
147 11 127 60 134 24 69 110 151 28 105 74 138 
148 10 56 122 58 47 121 114 67 80 23 71 
149 9 82 15 39 93 123 94 144 18 55 
150 11 10 8 7 90 48 26 66 155 61 86 71 
151 11 22 153 60 127 143 5 73 147 110 126 92 
152 11 16 18 89 52 93 15 46 31 135 115 48 
153 11 5 143 22 126 151 73 144 55 146 39 60 
154 11 88 87 21 49 91 142 158 63 104 113 44 
155 11 61 66 48 119 10 123 150 52 90 36 26 
156 11 140 111 131 2 14 85 124 9 75 57 3 
157 11 27 36 76 133 114 119 123 47 121 42 61 
158 11 91 87 34 72 103 154 42 21 88 64 142 
DEPOT_SECTION
   1
   -1
EOF
