NAME :  X-n162-kX-w16-c9.cctp
COMMENT : 	Adapted by Maziero, Usberti and Cavellucci from the Uchoa, Pecin, Pessoa, Poggi, Subramanian, and Vidal (2013)
TYPE :  CCTP
DIMENSION :    92
EDGE_WEIGHT_TYPE : 	EUC_2D	
CAPACITY : 	1174
VERTICES_WITHIN_COVERAGE :  9
VERTICES_WITH_DEMAND : 	16
NODE_COORD_SECTION
1 500 500
2 300 71
3 434 4
4 257 798
5 718 17
6 879 206
7 929 330
8 353 793
9 389 540
10 202 55
11 417 253
12 921 572
13 94 788
14 870 327
15 281 124
16 411 288
17 882 116
18 359 935
19 352 858
20 502 776
21 269 33
22 440 814
23 850 461
24 909 404
25 339 458
26 86 47
27 426 282
28 534 10
29 911 79
30 270 791
31 391 794
32 938 281
33 941 579
34 752 162
35 323 570
36 238 700
37 329 805
38 291 631
39 286 481
40 855 547
41 972 378
42 205 741
43 462 532
44 340 54
45 936 46
46 864 654
47 501 495
48 339 10
49 324 595
50 244 926
51 190 659
52 832 622
53 228 662
54 36 578
55 897 292
56 492 426
57 958 546
58 312 781
59 320 557
60 446 702
61 470 746
62 439 15
63 703 31
64 294 172
65 248 178
66 725 58
67 401 225
68 336 115
69 428 19
70 624 46
71 6 539
72 513 262
73 112 114
74 478 46
75 440 219
76 780 270
77 403 32
78 403 386
79 968 26
80 644 82
81 339 122
82 413 22
83 459 198
84 361 229
85 480 250
86 427 197
87 741 135
88 421 23
89 315 178
90 729 107
91 542 296
92 607 43
DEMAND_SECTION
2 60
3 88
4 74
5 56
6 95
7 95
8 83
9 94
10 93
11 79
12 61
13 83
14 68
15 86
16 96
17 75
COVERAGE_SECTION
2 6 44 21 15 68 81 48 
3 6 62 69 88 82 77 74 
4 9 30 58 37 42 8 36 19 50 31 
5 8 63 66 90 70 80 92 87 34 
6 8 55 17 32 76 14 29 7 34 
7 8 32 55 14 41 24 6 23 76 
8 9 37 31 58 19 30 22 4 61 60 
9 9 59 35 43 49 25 39 47 38 56 
10 9 21 2 15 73 26 65 44 48 68 
11 9 27 67 16 75 86 84 85 83 72 
12 7 33 57 40 46 52 23 24 
13 9 42 51 4 36 30 53 50 54 58 
14 8 55 7 32 24 76 41 6 23 
15 6 64 2 68 81 65 89 
16 9 27 11 67 75 84 85 86 78 83 
17 8 29 45 6 79 34 87 90 66 
18 9 19 50 37 8 31 22 58 30 4 
19 9 37 8 31 18 58 22 30 4 50 
20 5 61 22 60 31 8 
21 7 2 10 44 48 15 68 81 
22 8 31 20 61 8 19 37 60 58 
23 7 24 40 12 14 57 41 33 
24 9 41 7 23 14 55 32 57 40 12 
25 8 39 9 78 59 35 49 43 56 
26 9 73 10 21 65 15 2 64 44 48 
27 9 16 11 67 85 75 84 86 72 83 
28 8 74 92 62 70 3 69 88 82 
29 9 45 17 79 6 34 87 90 66 5 
30 9 4 58 37 42 8 36 19 31 53 
31 9 8 22 37 19 58 61 60 20 30 
32 9 55 7 14 6 41 24 76 17 23 
33 7 12 57 40 46 52 23 24 
34 5 87 90 66 76 6 
35 9 59 49 38 9 39 25 53 43 36 
36 9 53 42 51 38 30 4 58 49 37 
37 9 8 58 19 30 31 4 22 18 36 
38 9 49 35 53 59 36 51 9 42 39 
39 8 25 59 35 9 49 38 78 43 
40 6 12 52 23 33 57 46 
41 9 7 24 32 14 55 23 57 6 12 
42 9 36 4 30 53 51 58 13 37 38 
43 7 47 9 56 25 35 59 49 
44 4 2 48 68 77 
45 9 79 29 17 6 66 87 90 34 5 
46 5 52 12 33 40 57 
47 5 43 56 9 78 25 
48 7 44 77 2 21 82 88 69 
49 9 35 59 38 9 53 39 36 25 51 
50 9 18 19 4 30 37 58 8 42 31 
51 9 53 36 42 38 49 4 30 35 13 
52 4 46 40 12 33 
53 9 51 36 38 42 49 35 30 4 59 
54 7 71 51 53 13 42 36 38 
55 8 32 14 7 6 24 41 76 23 
56 6 47 78 43 91 9 25 
57 8 33 12 40 23 46 52 24 41 
58 9 37 8 30 4 31 19 36 42 22 
59 8 35 49 9 38 39 25 53 43 
60 8 61 20 31 22 8 37 58 49 
61 7 20 60 22 31 8 37 58 
62 6 3 69 88 82 77 74 
63 7 5 66 80 70 90 92 87 
64 6 89 65 15 81 68 84 
65 5 64 15 89 81 68 
66 8 63 5 90 87 80 70 34 92 
67 8 11 86 75 84 27 16 83 85 
68 4 81 15 2 44 
69 6 88 62 82 3 77 74 
70 7 92 80 63 28 5 66 90 
71 6 54 51 53 13 36 42 
72 7 85 91 83 75 27 11 16 
73 7 26 10 65 15 21 64 2 
74 6 62 69 3 88 28 82 
75 9 86 83 67 11 85 27 16 84 72 
76 4 14 34 6 55 
77 6 82 88 69 62 3 44 
78 8 25 16 56 27 11 47 39 9 
79 9 45 29 17 6 66 5 87 90 34 
80 7 70 92 63 66 90 5 87 
81 3 68 15 89 
82 6 88 77 69 62 3 74 
83 7 75 86 85 67 11 72 27 
84 6 67 11 89 86 16 75 
85 9 72 75 83 11 27 86 91 16 67 
86 6 75 83 67 11 84 85 
87 6 34 90 66 63 80 5 
88 6 69 82 62 77 3 74 
89 6 64 81 15 68 65 84 
90 6 87 66 34 63 80 5 
91 6 72 85 27 75 83 16 
92 6 70 80 28 63 5 66 
DEPOT_SECTION
   1
   -1
EOF
