NAME :  X-n195-kX-w19-c11.cctp
COMMENT : 	Adapted by Maziero, Usberti and Cavellucci from the Uchoa, Pecin, Pessoa, Poggi, Subramanian, and Vidal (2013)
TYPE :  CCTP
DIMENSION :    129
EDGE_WEIGHT_TYPE : 	EUC_2D	
CAPACITY : 	181
VERTICES_WITHIN_COVERAGE :  11
VERTICES_WITH_DEMAND : 	19
NODE_COORD_SECTION
1 500 500
2 691 729
3 978 828
4 427 367
5 777 543
6 190 596
7 773 750
8 234 727
9 851 358
10 140 69
11 891 285
12 467 13
13 537 162
14 636 355
15 213 284
16 75 877
17 384 814
18 606 173
19 76 236
20 86 733
21 303 261
22 771 775
23 107 264
24 38 170
25 907 792
26 539 273
27 491 411
28 727 248
29 457 218
30 398 153
31 8 330
32 75 781
33 560 188
34 27 523
35 432 198
36 695 372
37 203 307
38 641 389
39 836 612
40 375 499
41 577 226
42 889 259
43 516 324
44 102 346
45 318 976
46 223 11
47 484 245
48 365 982
49 648 790
50 878 261
51 600 800
52 549 214
53 638 166
54 452 172
55 711 687
56 924 905
57 786 203
58 24 32
59 843 248
60 115 449
61 82 971
62 876 644
63 322 24
64 642 810
65 685 607
66 141 824
67 330 941
68 830 188
69 469 250
70 970 812
71 723 360
72 274 238
73 668 103
74 269 147
75 135 493
76 930 729
77 546 102
78 967 393
79 388 767
80 968 434
81 517 382
82 537 160
83 457 1
84 768 432
85 295 704
86 802 446
87 785 358
88 592 694
89 527 109
90 607 347
91 767 401
92 854 524
93 325 778
94 465 885
95 394 769
96 888 436
97 980 290
98 435 761
99 997 371
100 710 300
101 253 971
102 372 794
103 438 871
104 758 513
105 313 682
106 728 143
107 458 787
108 752 463
109 944 381
110 550 133
111 625 799
112 660 428
113 575 120
114 433 847
115 516 12
116 766 270
117 265 183
118 361 749
119 919 380
120 699 633
121 773 599
122 559 108
123 231 773
124 250 657
125 275 755
126 381 870
127 654 377
128 490 876
129 211 808
DEMAND_SECTION
2 79
3 84
4 100
5 23
6 32
7 90
8 8
9 50
10 29
11 96
12 26
13 17
14 92
15 41
16 16
17 95
18 41
19 69
20 30
COVERAGE_SECTION
2 10 55 49 7 22 64 111 120 88 51 65 
3 4 70 25 56 76 
4 10 27 81 43 69 47 40 26 29 21 35 
5 9 104 121 92 108 39 86 84 65 120 
6 9 124 75 8 105 85 60 20 34 125 
7 10 22 2 55 49 120 25 64 62 121 39 
8 8 123 125 85 124 129 105 93 118 
9 11 87 119 11 96 91 109 50 86 42 59 84 
10 11 46 58 24 74 117 19 63 23 72 15 37 
11 11 42 50 59 9 97 119 109 68 116 87 78 
12 6 83 115 89 77 122 63 
13 9 82 110 33 52 89 113 122 77 18 
14 8 127 90 38 36 112 71 100 81 
15 11 37 72 21 23 117 44 19 74 60 24 31 
16 11 66 61 32 20 129 123 101 8 125 45 67 
17 10 102 95 79 126 114 93 118 98 103 107 
18 9 53 33 41 113 110 13 52 82 122 
19 11 23 24 44 31 15 37 10 117 72 58 74 
20 11 32 66 16 129 8 123 6 124 125 85 34 
21 11 72 117 15 37 74 30 35 29 4 69 54 
22 8 7 2 55 49 64 25 111 120 
23 11 19 44 37 15 24 31 72 117 60 21 10 
24 11 19 23 58 10 31 44 15 37 117 74 46 
25 7 70 76 3 56 22 7 62 
26 11 43 41 52 47 69 33 29 90 13 81 82 
27 8 81 4 43 90 26 40 38 14 
28 11 116 100 57 106 71 59 68 53 87 36 14 
29 11 35 69 47 54 30 52 13 26 82 33 41 
30 10 35 54 29 69 47 74 89 117 13 82 
31 11 44 19 23 60 24 34 37 75 15 72 10 
32 11 20 66 16 129 123 8 61 125 124 6 85 
33 10 52 13 82 41 18 110 113 122 53 89 
34 11 75 60 6 44 31 20 124 32 23 37 8 
35 11 29 54 30 69 47 13 82 52 33 89 26 
36 9 71 127 38 14 112 100 91 87 90 
37 11 15 72 23 44 21 117 19 60 74 31 75 
38 6 127 14 112 90 36 71 
39 10 62 121 92 5 104 120 55 76 65 7 
40 5 4 27 81 105 124 
41 11 52 33 18 26 13 82 53 47 110 113 69 
42 11 50 11 59 68 97 9 57 116 119 109 87 
43 11 26 81 47 69 27 90 4 41 52 29 14 
44 11 23 31 60 37 19 15 75 24 34 72 21 
45 11 67 48 101 126 103 94 114 17 102 93 128 
46 11 63 10 74 117 58 30 72 83 12 24 21 
47 11 69 29 26 35 52 54 43 33 41 13 82 
48 11 45 67 101 126 103 94 114 128 17 102 93 
49 8 64 111 51 2 88 55 22 7 
50 11 42 11 59 68 9 97 57 116 119 87 109 
51 6 111 64 49 88 2 128 
52 11 33 41 13 82 26 18 47 110 69 29 113 
53 9 18 73 113 33 41 106 110 122 13 
54 11 35 29 30 47 69 13 82 89 110 52 33 
55 10 2 120 65 7 22 121 88 49 64 111 
56 1 3 
57 11 68 116 59 28 106 50 42 100 11 53 73 
58 11 10 24 46 19 23 74 117 31 63 15 44 
59 11 50 42 11 68 57 116 9 28 87 97 100 
60 11 75 44 34 31 6 37 23 15 19 124 72 
61 11 16 66 101 32 129 45 20 123 67 48 8 
62 10 39 76 121 92 5 7 25 22 55 104 
63 10 46 74 83 12 30 117 10 115 54 35 
64 7 111 49 51 2 88 22 55 
65 6 120 55 121 5 104 2 
66 11 129 32 16 123 20 8 125 61 101 93 85 
67 11 45 48 101 126 103 17 114 94 102 93 128 
68 10 57 59 50 42 116 106 11 28 100 9 
69 11 47 29 35 26 54 43 52 33 13 41 82 
70 4 3 25 76 56 
71 11 36 91 100 87 127 84 14 38 112 116 108 
72 11 21 117 15 74 37 30 35 23 29 54 69 
73 5 53 106 18 113 122 
74 11 117 72 21 30 63 46 15 10 35 37 54 
75 11 60 34 6 44 37 124 31 15 23 40 20 
76 8 25 70 62 3 39 7 22 56 
77 6 122 89 110 113 82 13 
78 7 109 99 80 119 96 97 9 
79 6 95 102 118 17 98 93 
80 7 78 109 99 119 96 9 97 
81 8 27 43 4 90 26 14 38 127 
82 9 13 110 33 89 52 113 122 77 18 
83 6 12 115 89 77 63 122 
84 10 91 108 86 87 104 71 36 112 5 9 
85 6 105 125 8 124 93 118 
86 10 84 108 91 104 96 87 92 5 9 71 
87 11 91 71 9 84 86 116 36 100 108 28 59 
88 6 2 51 111 49 55 120 
89 6 77 122 110 113 82 13 
90 9 14 38 127 36 43 81 112 26 100 
91 10 84 87 86 71 108 36 9 112 104 100 
92 9 5 39 86 96 104 121 108 62 84 
93 7 118 102 125 79 17 95 85 
94 8 128 103 114 126 107 17 98 102 
95 6 79 102 118 98 17 107 
96 7 119 109 80 9 86 78 92 
97 10 99 11 42 109 78 50 119 59 80 9 
98 6 107 95 79 102 17 118 
99 7 78 109 80 119 97 96 11 
100 11 28 71 116 36 14 87 127 38 90 91 57 
101 11 45 67 48 126 129 61 66 123 16 17 93 
102 8 17 79 95 118 93 98 126 114 
103 10 114 94 128 126 17 107 102 98 95 79 
104 8 5 108 86 84 121 92 91 65 
105 5 85 124 118 125 8 
106 7 73 57 53 28 68 18 116 
107 5 98 114 95 79 17 
108 8 84 104 86 91 5 112 36 71 
109 7 119 78 99 80 96 9 97 
110 7 122 113 82 77 13 89 33 
111 7 64 49 51 2 88 55 22 
112 4 38 127 36 14 
113 7 122 110 77 89 82 13 18 
114 10 103 94 126 17 128 107 102 98 95 79 
115 5 12 83 77 89 122 
116 11 28 100 57 59 87 71 68 50 9 42 36 
117 11 74 72 21 15 30 37 35 10 63 46 23 
118 5 79 95 93 102 17 
119 7 109 78 96 9 80 99 11 
120 7 65 55 121 2 5 88 104 
121 10 5 39 120 104 65 55 92 62 108 7 
122 6 77 113 110 89 82 13 
123 9 129 8 125 85 93 66 124 105 118 
124 6 85 105 8 6 125 123 
125 8 123 8 85 93 105 129 118 124 
126 11 17 103 114 102 94 67 95 79 93 128 48 
127 7 38 14 36 112 90 71 100 
128 7 94 103 114 107 126 17 98 
129 10 123 66 125 8 93 85 32 20 16 124 
DEPOT_SECTION
   1
   -1
EOF
