NAME :  X-n125-kX-w24-c9.cctp
COMMENT : 	Adapted by Maziero, Usberti and Cavellucci from the Uchoa, Pecin, Pessoa, Poggi, Subramanian, and Vidal (2013)
TYPE :  CCTP
DIMENSION :    113
EDGE_WEIGHT_TYPE : 	EUC_2D	
CAPACITY : 	188
VERTICES_WITHIN_COVERAGE :  9
VERTICES_WITH_DEMAND : 	24
NODE_COORD_SECTION
1 989 944
2 5 730
3 769 200
4 698 515
5 72 561
6 52 397
7 771 177
8 81 537
9 43 371
10 716 202
11 106 406
12 627 172
13 10 338
14 776 432
15 761 469
16 759 287
17 593 363
18 773 290
19 129 398
20 709 193
21 99 564
22 163 418
23 48 619
24 907 406
25 929 527
26 69 672
27 675 960
28 50 763
29 736 240
30 46 518
31 699 581
32 58 398
33 43 393
34 783 186
35 58 360
36 45 712
37 38 393
38 652 524
39 37 364
40 37 617
41 61 534
42 664 358
43 555 445
44 712 465
45 2 729
46 65 620
47 156 497
48 857 475
49 773 234
50 879 98
51 685 466
52 21 421
53 109 536
54 60 738
55 897 564
56 96 383
57 76 582
58 739 193
59 669 548
60 284 462
61 15 696
62 102 541
63 28 578
64 828 292
65 73 519
66 70 645
67 40 433
68 745 159
69 75 511
70 228 312
71 732 427
72 61 407
73 84 538
74 751 246
75 22 714
76 63 571
77 641 350
78 873 540
79 211 418
80 287 618
81 627 595
82 546 199
83 795 58
84 805 15
85 649 486
86 145 377
87 673 319
88 700 678
89 86 623
90 158 613
91 673 619
92 738 444
93 17 449
94 122 182
95 108 334
96 100 550
97 677 505
98 23 365
99 892 41
100 452 457
101 70 541
102 198 317
103 159 369
104 51 378
105 556 137
106 800 100
107 795 278
108 43 656
109 70 375
110 132 545
111 203 328
112 728 467
113 759 208
DEMAND_SECTION
2 32
3 7
4 83
5 30
6 62
7 26
8 31
9 75
10 5
11 85
12 15
13 94
14 16
15 38
16 32
17 5
18 17
19 92
20 50
21 16
22 79
23 11
24 33
25 60
COVERAGE_SECTION
2 8 45 75 61 36 28 54 108 26 
3 9 113 34 7 58 49 68 74 29 10 
4 9 97 59 38 51 44 85 112 31 15 
5 9 76 101 57 8 73 21 41 96 62 
6 9 32 33 72 37 104 9 109 39 35 
7 9 34 3 68 113 58 49 10 20 29 
8 9 73 101 41 65 62 96 5 69 53 
9 9 39 104 35 98 33 37 109 6 32 
10 9 20 58 29 113 68 3 74 7 49 
11 9 19 56 72 109 32 86 6 22 104 
12 9 105 20 82 10 58 68 29 113 7 
13 9 98 39 9 35 104 37 33 109 6 
14 9 15 92 71 112 44 48 51 4 97 
15 9 112 92 14 44 71 51 4 97 48 
16 9 18 107 74 29 49 64 113 3 87 
17 9 77 42 43 87 85 51 71 44 97 
18 9 16 107 74 64 49 29 113 3 58 
19 9 11 86 56 22 103 109 95 72 32 
20 9 10 58 68 113 29 3 7 74 34 
21 9 96 62 5 57 53 73 8 76 101 
22 9 19 86 79 103 11 56 47 111 95 
23 9 40 46 66 108 89 57 63 76 26 
24 9 48 25 14 78 64 55 15 107 92 
25 9 55 78 48 24 15 14 92 112 71 
26 8 66 108 36 46 89 23 61 75 
27 7 88 91 81 31 59 38 4 
28 7 54 36 2 75 45 61 26 
29 9 74 49 113 10 58 3 16 20 18 
30 7 41 65 69 101 8 73 5 
31 9 59 91 4 81 38 97 88 85 51 
32 9 6 72 33 37 104 109 9 35 67 
33 9 37 6 32 104 9 72 39 109 98 
34 9 7 3 113 58 68 49 74 10 29 
35 9 9 104 109 39 98 33 6 32 37 
36 8 75 54 61 2 45 26 28 108 
37 9 33 6 104 32 9 72 39 98 52 
38 9 59 97 85 4 51 31 81 44 112 
39 9 9 98 104 35 37 33 109 6 13 
40 9 23 46 108 63 66 89 57 76 26 
41 9 101 65 8 30 73 69 5 76 62 
42 9 77 87 17 71 51 92 44 16 112 
43 9 17 85 100 38 77 51 97 42 59 
44 9 112 51 92 71 15 4 97 85 14 
45 8 2 75 61 36 28 54 108 26 
46 9 23 89 66 40 57 108 76 26 63 
47 9 110 53 62 96 22 69 73 8 65 
48 9 78 24 25 14 15 55 92 112 71 
49 9 74 113 3 29 34 107 58 16 18 
50 9 99 106 83 84 34 7 68 3 113 
51 9 44 97 85 112 4 92 71 38 15 
52 8 67 93 37 33 6 72 32 104 
53 9 62 96 73 110 8 21 101 65 69 
54 8 28 36 75 2 45 61 26 108 
55 9 78 25 48 24 15 14 112 31 92 
56 9 11 109 19 32 72 35 104 6 86 
57 9 76 5 21 46 96 101 89 8 73 
58 9 10 113 20 3 68 7 34 29 49 
59 9 38 4 97 31 81 85 91 51 44 
60 9 79 22 47 80 103 111 70 86 19 
61 8 75 36 2 45 108 26 54 66 
62 9 53 96 73 8 21 110 101 5 65 
63 9 76 40 23 5 57 41 46 101 30 
64 9 107 18 16 49 74 29 3 113 34 
65 9 69 41 8 73 101 30 62 53 96 
66 8 46 26 89 108 23 40 57 36 
67 7 52 93 72 6 32 33 37 
68 9 7 58 34 3 20 113 10 49 29 
69 8 65 8 41 73 30 101 62 53 
70 9 102 111 103 86 79 95 22 19 56 
71 9 92 112 44 14 15 51 4 97 42 
72 9 32 6 33 37 104 67 109 9 52 
73 9 8 101 62 96 65 41 53 5 69 
74 9 29 49 113 16 3 18 58 107 10 
75 8 61 2 36 45 54 28 108 26 
76 9 5 57 101 63 21 41 8 73 96 
77 9 42 87 17 71 51 43 16 44 92 
78 9 55 25 48 15 24 14 112 92 4 
79 9 22 103 86 19 60 111 47 102 11 
80 9 90 60 110 47 21 53 96 62 89 
81 8 91 59 31 38 97 4 85 88 
82 9 105 12 20 10 17 87 77 58 29 
83 9 106 84 50 99 68 7 34 3 58 
84 9 83 106 99 50 68 7 34 3 58 
85 9 97 38 51 4 59 44 112 92 71 
86 9 103 19 22 11 56 95 109 111 79 
87 9 42 77 17 16 29 18 74 71 10 
88 8 91 31 81 59 38 4 97 85 
89 9 46 66 23 57 40 26 108 76 21 
90 9 89 110 21 96 57 53 62 46 66 
91 9 31 81 88 59 38 4 97 85 51 
92 9 71 112 44 15 14 51 4 97 85 
93 6 52 67 37 72 33 6 
94 9 95 102 111 70 35 103 13 86 109 
95 9 56 35 109 86 103 19 11 104 9 
96 9 62 21 53 73 8 5 101 110 57 
97 9 4 38 85 51 59 44 112 31 92 
98 9 39 9 13 104 37 33 35 6 32 
99 9 50 84 83 106 34 7 68 3 113 
100 8 43 60 17 85 38 77 81 97 
101 9 41 8 73 5 65 69 76 96 62 
102 9 111 70 103 86 95 79 19 22 56 
103 9 86 19 22 111 95 11 56 102 79 
104 9 9 33 6 35 109 37 39 32 72 
105 9 82 12 20 10 68 58 29 113 87 
106 9 83 50 68 7 84 34 3 99 58 
107 9 18 64 16 49 74 29 113 3 34 
108 8 66 26 23 40 46 61 89 36 
109 9 35 104 32 9 56 6 33 72 39 
110 9 53 62 96 21 73 8 47 5 101 
111 9 102 70 103 86 79 95 22 19 56 
112 9 44 92 15 71 51 4 14 97 85 
113 9 3 58 49 7 34 29 74 10 68 
DEPOT_SECTION
   1
   -1
EOF
