NAME :  X-n172-kX-w68-c9.cctp
COMMENT : 	Adapted by Maziero, Usberti and Cavellucci from the Uchoa, Pecin, Pessoa, Poggi, Subramanian, and Vidal (2013)
TYPE :  CCTP
DIMENSION :    155
EDGE_WEIGHT_TYPE : 	EUC_2D	
CAPACITY : 	161
VERTICES_WITHIN_COVERAGE :  9
VERTICES_WITH_DEMAND : 	68
NODE_COORD_SECTION
1 500 500
2 363 697
3 120 259
4 555 718
5 522 918
6 239 935
7 304 517
8 856 96
9 38 904
10 174 951
11 294 935
12 942 324
13 402 176
14 766 450
15 473 862
16 262 550
17 661 92
18 440 655
19 678 291
20 345 691
21 564 903
22 952 802
23 698 352
24 297 930
25 66 244
26 882 642
27 777 818
28 302 212
29 824 647
30 143 946
31 108 600
32 121 755
33 697 32
34 473 995
35 342 252
36 596 534
37 248 211
38 940 88
39 81 468
40 144 796
41 244 385
42 437 42
43 381 583
44 263 549
45 153 646
46 187 688
47 248 71
48 27 70
49 649 477
50 244 370
51 145 49
52 589 402
53 105 251
54 986 452
55 486 773
56 679 851
57 102 734
58 619 809
59 139 138
60 107 489
61 921 579
62 681 336
63 925 185
64 260 655
65 46 832
66 534 440
67 117 590
68 604 453
69 667 428
70 871 548
71 943 171
72 181 252
73 172 696
74 211 597
75 82 390
76 114 189
77 659 852
78 404 544
79 169 845
80 101 663
81 124 861
82 289 778
83 923 842
84 464 148
85 377 32
86 933 156
87 241 242
88 802 86
89 944 185
90 972 48
91 964 77
92 244 244
93 89 157
94 953 76
95 347 358
96 941 146
97 391 594
98 904 106
99 649 92
100 951 94
101 917 77
102 134 331
103 948 183
104 389 254
105 796 197
106 243 283
107 965 174
108 304 381
109 914 661
110 198 245
111 207 258
112 926 85
113 881 145
114 849 115
115 923 678
116 577 535
117 266 216
118 160 154
119 890 105
120 368 725
121 563 538
122 509 502
123 921 174
124 819 266
125 324 181
126 500 580
127 435 652
128 460 344
129 917 630
130 843 747
131 355 700
132 956 76
133 470 464
134 982 738
135 215 222
136 992 115
137 433 446
138 354 552
139 884 204
140 439 345
141 472 663
142 980 116
143 51 27
144 934 44
145 930 835
146 216 30
147 862 251
148 267 215
149 212 71
150 941 68
151 554 709
152 602 591
153 428 536
154 405 594
155 629 450
DEMAND_SECTION
2 30
3 82
4 70
5 92
6 25
7 23
8 11
9 41
10 15
11 5
12 17
13 70
14 36
15 47
16 24
17 11
18 6
19 23
20 5
21 54
22 74
23 6
24 9
25 58
26 96
27 80
28 100
29 65
30 3
31 46
32 16
33 47
34 33
35 84
36 73
37 75
38 27
39 99
40 50
41 65
42 79
43 42
44 46
45 9
46 13
47 97
48 79
49 6
50 63
51 65
52 14
53 91
54 6
55 6
56 69
57 13
58 55
59 69
60 67
61 53
62 35
63 19
64 49
65 47
66 36
67 24
68 15
69 15
COVERAGE_SECTION
2 9 131 20 120 127 18 97 82 64 154 
3 9 53 25 72 76 102 110 111 135 93 
4 8 151 55 141 58 18 152 127 126 
5 9 21 15 34 58 55 77 56 4 151 
6 9 11 24 10 30 79 81 82 40 9 
7 6 44 16 138 43 78 97 
8 9 114 119 98 88 113 101 112 38 150 
9 9 65 81 30 10 79 40 32 57 6 
10 9 30 6 81 79 11 24 9 40 65 
11 9 24 6 10 30 79 82 81 34 15 
12 9 147 139 54 124 89 63 103 123 107 
13 9 84 125 104 35 28 42 148 117 85 
14 9 69 23 49 155 62 70 68 19 52 
15 9 5 55 21 34 58 4 120 151 77 
16 9 44 7 74 138 64 43 97 78 45 
17 9 99 33 88 105 114 8 19 84 113 
18 8 127 141 154 97 2 43 126 131 
19 9 62 23 69 52 124 105 155 68 14 
20 9 131 2 120 64 127 18 82 97 43 
21 9 5 15 77 58 56 34 55 4 151 
22 4 145 83 134 130 
23 9 62 19 69 14 52 155 49 68 124 
24 9 11 6 10 82 79 30 81 34 15 
25 9 53 3 76 93 102 72 59 118 110 
26 5 109 129 115 29 61 
27 8 130 56 77 83 145 58 22 29 
28 9 148 117 125 37 35 92 87 135 106 
29 7 26 109 129 130 115 70 61 
30 9 10 81 6 79 9 40 65 11 24 
31 9 67 80 45 74 60 73 46 57 39 
32 9 57 40 73 46 80 79 81 65 45 
33 9 17 99 88 8 114 105 119 113 98 
34 9 5 21 15 24 11 55 77 58 6 
35 9 104 28 125 117 148 13 92 87 37 
36 8 116 121 152 49 68 155 122 126 
37 9 117 148 87 92 135 28 110 111 106 
38 9 100 112 94 132 150 101 91 98 144 
39 9 60 75 67 31 102 41 74 50 45 
40 9 32 79 81 57 65 73 46 80 82 
41 9 50 108 106 95 102 111 92 87 7 
42 9 85 84 13 125 47 28 104 99 146 
43 7 97 154 138 78 153 127 18 
44 9 16 7 74 138 64 43 97 78 45 
45 9 73 46 80 31 67 74 57 64 32 
46 9 73 45 64 80 32 74 57 40 31 
47 9 149 146 51 118 59 125 85 37 148 
48 9 143 93 51 59 76 118 25 149 146 
49 9 155 68 69 36 116 52 121 14 66 
50 9 41 108 106 95 102 111 92 87 110 
51 9 149 146 59 143 47 118 48 93 76 
52 9 68 155 66 69 49 62 23 122 36 
53 9 3 25 76 72 102 110 93 111 118 
54 7 12 61 70 129 26 14 109 
55 9 4 15 151 141 18 120 127 58 2 
56 9 77 58 27 21 5 4 151 130 15 
57 9 32 80 40 73 46 45 65 81 79 
58 9 77 56 21 4 151 55 5 15 27 
59 9 118 93 76 51 149 135 53 72 3 
60 9 39 67 75 31 74 102 45 16 44 
61 6 129 70 26 109 115 29 
62 9 23 19 69 52 155 68 14 49 124 
63 9 123 89 71 103 86 107 96 139 113 
64 9 74 46 20 73 16 131 44 45 2 
65 9 9 81 40 32 57 79 30 10 80 
66 8 52 122 133 68 155 137 121 116 
67 9 31 45 80 74 60 73 46 39 57 
68 9 155 49 52 69 66 36 116 121 122 
69 9 155 49 68 23 52 62 14 36 66 
70 8 61 129 26 29 109 115 14 54 
71 9 103 89 86 107 123 63 96 142 113 
72 9 110 111 135 3 87 92 106 53 37 
73 9 46 45 32 80 57 64 40 74 31 
74 9 16 44 45 64 46 67 31 73 7 
75 9 39 102 60 3 53 25 41 50 72 
76 9 93 59 118 53 3 25 72 110 135 
77 9 56 58 21 27 5 4 151 15 55 
78 5 153 43 154 138 97 
79 9 81 40 32 30 10 6 65 57 82 
80 9 45 31 57 67 73 46 32 74 40 
81 9 79 40 65 30 9 10 32 57 6 
82 9 120 131 20 2 64 46 79 73 40 
83 5 145 22 134 130 27 
84 9 13 42 104 125 85 35 28 99 128 
85 9 42 47 84 13 125 146 149 28 148 
86 9 96 71 123 63 89 103 107 113 98 
87 9 92 37 135 117 148 111 106 110 72 
88 9 8 114 119 113 98 105 101 33 112 
89 9 103 71 63 107 123 86 96 139 113 
90 6 91 132 94 150 144 38 
91 6 132 94 100 150 38 90 
92 9 87 37 117 135 148 106 111 110 72 
93 9 76 59 118 25 53 3 48 51 72 
94 9 132 91 150 38 100 112 90 101 144 
95 9 108 140 50 35 41 104 128 137 106 
96 9 86 71 123 107 103 89 63 142 100 
97 7 154 43 78 138 153 127 18 
98 9 119 112 101 38 113 8 100 150 96 
99 9 17 33 88 105 84 19 114 8 42 
100 9 38 94 132 91 112 150 142 101 136 
101 9 112 38 150 98 94 144 100 119 132 
102 9 3 75 53 72 111 110 25 50 106 
103 9 89 71 107 63 123 86 96 139 142 
104 9 35 13 28 125 140 95 128 148 117 
105 9 124 147 139 114 113 88 8 123 63 
106 9 92 87 111 110 135 72 117 37 148 
107 9 103 71 89 86 96 63 123 142 136 
108 9 95 41 50 106 35 7 140 137 92 
109 3 115 129 26 
110 9 111 72 135 87 92 106 37 117 148 
111 9 110 72 135 87 92 106 37 117 148 
112 9 101 38 150 100 94 98 132 91 119 
113 9 119 114 98 123 86 8 63 139 96 
114 9 8 119 113 88 98 101 112 86 123 
115 3 109 129 26 
116 8 121 36 152 122 68 126 49 155 
117 9 148 37 28 87 92 135 125 106 111 
118 9 59 76 93 135 149 110 72 37 51 
119 9 98 8 101 112 113 114 38 100 150 
120 9 2 131 20 82 127 18 141 55 64 
121 6 116 36 122 152 126 68 
122 5 133 121 66 116 126 
123 9 63 71 86 89 103 96 107 139 113 
124 9 147 105 139 63 12 113 123 19 23 
125 9 28 148 117 35 13 37 104 92 87 
126 6 121 122 153 141 116 18 
127 8 18 141 154 97 2 43 131 126 
128 8 140 137 95 104 133 66 52 35 
129 4 109 26 115 61 
130 5 27 29 115 26 109 
131 9 2 20 120 127 18 82 64 97 154 
132 7 94 91 150 100 38 112 90 
133 5 137 122 66 153 78 
134 2 22 115 
135 9 110 87 37 92 111 72 117 148 106 
136 6 142 100 91 132 94 38 
137 5 133 153 122 66 140 
138 6 43 78 97 7 154 153 
139 9 63 123 147 113 89 103 71 86 96 
140 8 128 95 137 104 133 35 66 108 
141 7 18 127 126 151 154 4 97 
142 7 136 100 91 132 94 38 96 
143 9 48 51 93 59 146 118 149 76 47 
144 9 150 94 101 90 132 112 38 91 100 
145 4 83 22 134 130 
146 9 149 47 51 59 118 85 143 93 37 
147 9 124 139 105 63 123 89 12 113 103 
148 9 117 37 28 87 92 135 125 106 111 
149 9 47 146 51 118 59 37 93 135 76 
150 9 94 132 38 112 91 144 101 100 90 
151 8 4 55 141 58 18 152 127 126 
152 7 36 116 121 126 49 151 122 
153 4 78 154 43 97 
154 7 97 43 78 153 127 138 18 
155 9 68 49 69 52 36 66 116 121 23 
DEPOT_SECTION
   1
   -1
EOF
