NAME :  X-n162-kX-w16-c7.cctp
COMMENT : 	Adapted by Maziero, Usberti and Cavellucci from the Uchoa, Pecin, Pessoa, Poggi, Subramanian, and Vidal (2013)
TYPE :  CCTP
DIMENSION :    86
EDGE_WEIGHT_TYPE : 	EUC_2D	
CAPACITY : 	1174
VERTICES_WITHIN_COVERAGE :  7
VERTICES_WITH_DEMAND : 	16
NODE_COORD_SECTION
1 500 500
2 300 71
3 434 4
4 257 798
5 718 17
6 879 206
7 929 330
8 353 793
9 389 540
10 202 55
11 417 253
12 921 572
13 94 788
14 870 327
15 281 124
16 411 288
17 882 116
18 359 935
19 352 858
20 269 33
21 440 814
22 850 461
23 909 404
24 339 458
25 86 47
26 426 282
27 534 10
28 911 79
29 270 791
30 391 794
31 938 281
32 941 579
33 323 570
34 238 700
35 329 805
36 291 631
37 286 481
38 855 547
39 972 378
40 205 741
41 462 532
42 340 54
43 936 46
44 864 654
45 501 495
46 339 10
47 324 595
48 244 926
49 190 659
50 832 622
51 36 578
52 897 292
53 492 426
54 958 546
55 312 781
56 320 557
57 446 702
58 470 746
59 439 15
60 703 31
61 294 172
62 248 178
63 725 58
64 401 225
65 336 115
66 428 19
67 624 46
68 6 539
69 513 262
70 112 114
71 478 46
72 440 219
73 780 270
74 403 32
75 403 386
76 968 26
77 339 122
78 413 22
79 459 198
80 361 229
81 480 250
82 427 197
83 421 23
84 315 178
85 729 107
86 607 43
DEMAND_SECTION
2 60
3 88
4 74
5 56
6 95
7 95
8 83
9 94
10 93
11 79
12 61
13 83
14 68
15 86
16 96
17 75
COVERAGE_SECTION
2 6 42 20 15 65 77 46 
3 6 59 66 83 78 74 71 
4 7 29 55 35 40 8 34 19 
5 5 60 63 85 67 86 
6 7 52 17 31 73 14 28 7 
7 7 31 52 14 39 23 6 22 
8 7 35 30 55 19 29 21 4 
9 7 56 33 41 47 24 37 45 
10 7 20 2 15 70 25 62 42 
11 7 26 64 16 72 82 80 81 
12 6 32 54 38 44 50 22 
13 6 40 49 4 34 29 48 
14 7 52 7 31 23 73 39 6 
15 6 61 2 65 77 62 84 
16 7 26 11 64 72 80 81 82 
17 5 28 43 6 76 85 
18 7 19 48 35 8 30 21 55 
19 7 35 8 30 18 55 21 29 
20 6 2 10 42 46 15 65 
21 5 30 58 8 19 35 
22 5 23 38 12 14 54 
23 7 39 7 22 14 52 31 54 
24 6 37 9 75 56 33 47 
25 7 70 10 20 62 15 2 61 
26 7 16 11 64 81 72 80 82 
27 6 71 86 59 67 3 66 
28 5 43 17 76 6 85 
29 7 4 55 35 40 8 34 19 
30 7 8 21 35 19 55 58 57 
31 7 52 7 14 6 39 23 73 
32 6 12 54 38 44 50 22 
33 6 56 47 36 9 37 24 
34 6 40 49 36 29 4 55 
35 7 8 55 19 29 30 4 21 
36 6 47 33 56 34 49 9 
37 6 24 56 33 9 47 36 
38 5 12 50 22 32 54 
39 7 7 23 31 14 52 22 54 
40 6 34 4 29 49 55 13 
41 6 45 9 53 24 33 56 
42 4 2 46 65 74 
43 6 76 28 17 6 63 85 
44 4 50 12 32 38 
45 5 41 53 9 75 24 
46 6 42 74 2 20 78 83 
47 6 33 56 36 9 37 34 
48 7 18 19 4 29 35 55 8 
49 6 34 40 36 47 4 29 
50 3 44 38 12 
51 5 68 49 13 40 34 
52 7 31 14 7 6 23 39 73 
53 4 45 75 41 9 
54 7 32 12 38 22 44 50 23 
55 7 35 8 29 4 30 19 34 
56 6 33 47 9 36 37 24 
57 5 58 30 21 8 35 
58 4 57 21 30 8 
59 6 3 66 83 78 74 71 
60 5 5 63 67 85 86 
61 5 84 62 15 77 65 
62 4 61 15 84 77 
63 4 60 5 85 67 
64 6 11 82 72 80 26 16 
65 3 77 15 2 
66 5 83 59 78 3 74 
67 4 86 60 27 5 
68 3 51 49 13 
69 5 81 79 72 26 11 
70 5 25 10 62 15 20 
71 6 59 66 3 83 27 78 
72 7 82 79 64 11 81 26 16 
73 1 14 
74 5 78 83 66 59 3 
75 6 24 16 53 26 11 45 
76 6 43 28 17 6 63 5 
77 2 65 15 
78 5 83 74 66 59 3 
79 6 72 82 81 64 11 69 
80 4 64 11 84 82 
81 6 69 72 79 11 26 82 
82 6 72 79 64 11 80 81 
83 5 66 78 59 74 3 
84 4 61 77 15 65 
85 3 63 60 5 
86 4 67 27 60 5 
DEPOT_SECTION
   1
   -1
EOF
