NAME :  X-n157-kX-w15-c11.cctp
COMMENT : 	Adapted by Maziero, Usberti and Cavellucci from the Uchoa, Pecin, Pessoa, Poggi, Subramanian, and Vidal (2013)
TYPE :  CCTP
DIMENSION :    127
EDGE_WEIGHT_TYPE : 	EUC_2D	
CAPACITY : 	12
VERTICES_WITHIN_COVERAGE :  11
VERTICES_WITH_DEMAND : 	15
NODE_COORD_SECTION
1 769 259
2 91 377
3 108 338
4 816 567
5 725 520
6 117 357
7 766 559
8 90 417
9 255 430
10 63 384
11 35 276
12 122 318
13 85 322
14 267 348
15 937 546
16 865 461
17 724 431
18 243 571
19 871 512
20 782 596
21 77 272
22 166 371
23 69 239
24 972 607
25 320 521
26 91 434
27 20 305
28 81 271
29 830 553
30 741 527
31 587 551
32 808 435
33 26 278
34 58 394
35 755 444
36 817 557
37 165 367
38 216 510
39 124 330
40 132 369
41 915 492
42 161 319
43 37 227
44 770 524
45 745 582
46 695 469
47 124 355
48 11 283
49 258 406
50 72 335
51 713 399
52 214 344
53 213 349
54 98 440
55 701 512
56 884 559
57 842 518
58 125 379
59 352 410
60 825 592
61 93 252
62 863 511
63 98 347
64 115 326
65 71 392
66 96 248
67 65 404
68 75 342
69 140 300
70 129 340
71 129 273
72 109 463
73 139 356
74 77 351
75 154 322
76 231 323
77 115 394
78 844 558
79 98 454
80 739 568
81 179 443
82 862 618
83 844 554
84 703 319
85 863 569
86 72 473
87 632 575
88 823 578
89 26 42
90 47 381
91 71 336
92 754 484
93 80 355
94 172 296
95 28 310
96 754 579
97 87 382
98 866 481
99 93 337
100 942 567
101 788 567
102 824 451
103 98 384
104 104 370
105 48 462
106 952 629
107 239 324
108 747 605
109 136 460
110 748 624
111 43 268
112 792 597
113 95 352
114 109 413
115 67 224
116 104 386
117 779 419
118 40 456
119 66 395
120 862 465
121 383 357
122 307 434
123 233 421
124 329 280
125 623 554
126 103 349
127 75 266
DEMAND_SECTION
2 1
3 1
4 1
5 1
6 1
7 1
8 1
9 1
10 1
11 1
12 1
13 1
14 1
15 1
16 1
COVERAGE_SECTION
2 11 97 103 104 116 65 93 113 10 77 74 126 
3 11 126 63 64 99 39 113 6 70 47 12 13 
4 10 36 88 29 60 101 78 83 112 20 85 
5 11 30 55 44 92 80 7 46 45 96 101 35 
6 11 47 126 104 40 3 63 70 73 58 113 39 
7 11 96 101 80 45 44 20 30 112 108 4 36 
8 11 26 114 54 67 65 119 77 103 116 97 79 
9 9 49 123 122 81 14 38 53 52 59 
10 11 34 65 119 90 67 97 2 93 103 74 116 
11 11 33 111 48 27 95 127 21 28 43 23 115 
12 11 64 39 70 3 69 75 99 126 13 47 63 
13 11 99 50 91 68 3 63 64 74 113 126 93 
14 9 107 76 52 53 49 123 9 124 122 
15 7 100 56 41 24 19 85 62 
16 10 120 98 102 62 19 41 57 32 83 117 
17 11 35 51 46 117 92 32 55 5 30 102 44 
18 6 38 25 9 81 123 122 
19 9 62 57 98 41 120 56 83 16 78 
20 11 112 101 96 108 7 45 60 110 4 88 80 
21 11 28 127 61 66 23 111 11 115 13 33 71 
22 9 37 73 40 58 47 70 75 6 42 
23 11 115 61 66 127 21 28 43 111 11 33 71 
24 6 106 100 15 56 82 85 
25 10 122 18 38 9 59 49 123 81 121 14 
26 11 54 8 79 114 72 67 86 119 65 77 103 
27 11 95 48 33 11 111 50 91 21 68 13 127 
28 11 21 127 61 66 23 111 11 71 115 13 33 
29 9 36 83 78 4 88 57 85 60 101 
30 11 5 44 7 80 55 92 96 45 101 46 108 
31 10 125 87 55 46 5 80 30 45 96 108 
32 11 102 117 35 120 16 92 98 17 57 62 44 
33 11 11 48 111 27 95 127 21 43 28 23 115 
34 11 119 10 67 65 90 97 2 8 103 93 74 
35 11 17 117 92 32 51 46 102 44 5 30 55 
36 10 4 29 88 78 83 101 60 57 112 85 
37 9 22 73 40 58 47 70 75 42 6 
38 7 18 81 9 123 109 25 49 
39 11 64 70 12 3 47 6 126 73 63 75 99 
40 11 58 73 47 6 104 70 77 37 116 22 126 
41 9 19 98 62 15 16 120 56 57 100 
42 9 75 94 69 70 12 39 73 64 37 
43 11 115 23 111 11 33 127 21 61 28 48 66 
44 11 30 7 92 5 101 80 36 96 4 45 29 
45 11 96 80 108 7 20 110 101 112 30 44 5 
46 11 55 17 5 92 35 51 30 44 117 80 125 
47 11 6 73 40 70 126 3 58 39 104 63 113 
48 11 33 27 11 95 111 43 127 21 28 23 50 
49 9 9 123 122 14 53 52 107 76 81 
50 11 91 68 74 13 99 93 63 113 126 3 64 
51 11 17 35 117 46 84 92 32 55 5 102 30 
52 9 53 76 107 14 37 22 42 75 94 
53 9 52 76 107 37 22 14 42 75 94 
54 10 26 79 8 72 114 86 109 67 77 116 
55 11 5 30 46 92 80 44 7 45 17 96 35 
56 7 85 78 83 19 62 29 15 
57 9 62 19 83 29 78 98 36 4 85 
58 11 40 77 116 6 104 47 73 103 2 126 97 
59 11 122 121 49 9 14 25 123 124 107 76 53 
60 9 88 4 112 36 29 78 83 20 85 
61 10 66 28 127 21 23 115 71 111 43 11 
62 9 19 57 98 120 83 16 78 56 29 
63 11 126 113 99 3 93 6 74 68 104 47 64 
64 11 39 12 3 70 99 126 63 13 47 6 113 
65 11 119 10 34 67 97 2 90 103 8 116 93 
66 10 61 28 23 127 21 115 71 111 43 11 
67 11 119 34 65 10 8 90 97 2 103 26 116 
68 11 91 50 74 93 99 13 113 63 126 3 2 
69 10 12 75 42 71 94 39 64 70 3 73 
70 11 39 47 73 64 3 6 12 126 40 75 63 
71 9 69 66 61 12 28 94 21 127 64 
72 8 79 54 109 26 86 8 114 105 
73 11 40 47 70 6 58 37 39 22 3 75 126 
74 11 93 68 91 50 113 63 99 126 2 13 97 
75 10 42 69 39 70 12 94 73 64 47 37 
76 9 107 52 53 14 94 42 75 37 22 
77 11 116 58 103 114 104 2 40 97 8 6 47 
78 7 83 29 85 36 4 88 60 
79 9 54 72 26 86 8 109 114 105 118 
80 11 45 96 7 108 30 101 5 20 44 110 112 
81 7 109 123 22 72 114 9 37 
82 7 60 85 88 56 78 83 4 
83 7 78 29 85 36 4 88 57 
84 11 51 17 117 35 46 32 92 102 55 5 30 
85 7 78 56 83 29 88 60 4 
86 10 105 79 118 72 54 26 8 109 67 114 
87 11 125 31 55 80 5 45 30 108 96 46 110 
88 9 4 60 36 29 78 83 112 101 85 
89 8 43 115 23 66 61 111 127 11 
90 11 10 34 119 65 67 97 74 93 2 68 91 
91 11 50 68 74 13 93 99 63 113 126 3 64 
92 11 35 44 30 5 55 17 46 117 32 7 102 
93 11 74 68 113 63 91 50 99 126 2 97 104 
94 8 42 69 75 71 12 39 70 52 
95 11 27 33 48 11 111 91 50 68 13 21 74 
96 11 45 80 7 108 20 101 112 110 30 44 4 
97 11 2 103 116 65 104 10 119 93 77 34 67 
98 10 120 16 62 19 57 41 102 32 83 29 
99 11 63 3 113 126 13 68 50 74 91 93 64 
100 6 15 24 56 106 85 41 
101 11 7 4 20 112 36 96 88 29 60 45 44 
102 11 32 120 16 98 117 35 57 62 19 92 44 
103 11 116 2 97 104 77 58 65 114 113 6 8 
104 11 2 103 116 6 113 97 126 58 63 47 77 
105 11 118 86 26 79 54 67 72 8 34 119 65 
106 6 24 100 15 82 56 85 
107 9 76 52 53 14 94 42 49 75 37 
108 8 110 45 96 20 80 112 7 101 
109 7 72 79 54 81 26 114 8 
110 7 108 45 20 96 112 80 7 
111 11 11 33 127 21 48 28 23 43 27 95 115 
112 11 20 101 60 88 4 96 7 108 36 45 110 
113 11 63 126 93 99 74 3 104 68 6 2 47 
114 11 8 77 116 26 54 103 58 97 2 79 65 
115 11 23 43 61 66 127 21 28 111 11 33 71 
116 11 103 77 2 104 97 58 114 6 40 8 65 
117 11 32 35 102 17 51 92 120 16 46 44 98 
118 11 105 86 26 67 79 54 8 34 119 72 65 
119 11 65 34 67 10 90 97 2 8 103 116 93 
120 10 16 98 102 62 19 57 41 32 83 29 
121 11 59 124 122 14 49 9 107 76 123 52 53 
122 11 59 9 49 123 25 14 121 38 53 81 52 
123 9 9 49 81 53 122 52 14 22 37 
124 10 14 121 107 76 52 59 53 49 122 94 
125 10 87 31 55 5 46 80 30 45 96 108 
126 11 63 113 3 6 99 104 47 93 64 74 39 
127 11 21 28 61 23 66 111 11 115 33 43 71 
DEPOT_SECTION
   1
   -1
EOF
