NAME :  X-n125-kX-w24-c11.cctp
COMMENT : 	Adapted by Maziero, Usberti and Cavellucci from the Uchoa, Pecin, Pessoa, Poggi, Subramanian, and Vidal (2013)
TYPE :  CCTP
DIMENSION :    120
EDGE_WEIGHT_TYPE : 	EUC_2D	
CAPACITY : 	188
VERTICES_WITHIN_COVERAGE :  11
VERTICES_WITH_DEMAND : 	24
NODE_COORD_SECTION
1 989 944
2 5 730
3 769 200
4 698 515
5 72 561
6 52 397
7 771 177
8 81 537
9 43 371
10 716 202
11 106 406
12 627 172
13 10 338
14 776 432
15 761 469
16 759 287
17 593 363
18 773 290
19 129 398
20 709 193
21 99 564
22 163 418
23 48 619
24 907 406
25 929 527
26 69 672
27 675 960
28 50 763
29 736 240
30 46 518
31 128 793
32 699 581
33 58 398
34 43 393
35 783 186
36 58 360
37 45 712
38 38 393
39 652 524
40 37 364
41 37 617
42 61 534
43 664 358
44 555 445
45 712 465
46 2 729
47 65 620
48 156 497
49 857 475
50 773 234
51 879 98
52 685 466
53 21 421
54 109 536
55 60 738
56 897 564
57 96 383
58 76 582
59 739 193
60 669 548
61 284 462
62 15 696
63 102 541
64 28 578
65 828 292
66 73 519
67 70 645
68 40 433
69 745 159
70 75 511
71 228 312
72 732 427
73 61 407
74 84 538
75 751 246
76 22 714
77 63 571
78 641 350
79 873 540
80 211 418
81 287 618
82 155 796
83 627 595
84 546 199
85 795 58
86 805 15
87 649 486
88 145 377
89 673 319
90 700 678
91 86 623
92 158 613
93 673 619
94 738 444
95 17 449
96 122 182
97 108 334
98 100 550
99 677 505
100 23 365
101 20 512
102 892 41
103 452 457
104 70 541
105 224 931
106 67 692
107 198 317
108 159 369
109 51 378
110 556 137
111 800 100
112 795 278
113 158 773
114 43 656
115 41 488
116 70 375
117 132 545
118 203 328
119 728 467
120 759 208
DEMAND_SECTION
2 32
3 7
4 83
5 30
6 62
7 26
8 31
9 75
10 5
11 85
12 15
13 94
14 16
15 38
16 32
17 5
18 17
19 92
20 50
21 16
22 79
23 11
24 33
25 60
COVERAGE_SECTION
2 11 46 76 62 37 28 55 106 114 26 67 41 
3 11 120 35 7 59 50 69 75 29 10 20 112 
4 11 99 60 39 52 45 87 119 32 15 94 72 
5 11 77 104 58 8 74 21 42 98 63 66 54 
6 11 33 34 73 38 109 9 116 40 36 68 53 
7 11 35 3 69 120 59 50 10 20 29 75 111 
8 11 74 104 42 66 63 98 5 70 54 21 77 
9 11 40 109 36 100 34 38 116 6 33 73 13 
10 11 20 59 29 120 69 3 75 7 50 35 12 
11 11 19 57 73 116 33 88 6 22 109 34 108 
12 11 110 20 84 10 59 69 29 120 7 75 3 
13 11 100 40 9 36 109 38 34 116 6 33 53 
14 11 15 94 72 119 45 49 52 4 99 24 43 
15 11 119 94 14 45 72 52 4 99 49 87 60 
16 11 18 112 75 29 50 65 120 3 89 10 59 
17 11 78 43 44 89 87 52 72 45 99 94 103 
18 11 16 112 75 65 50 29 120 3 59 35 89 
19 11 11 88 57 22 108 116 97 73 33 6 36 
20 11 10 59 69 120 29 3 7 75 35 50 12 
21 11 98 63 5 58 54 74 8 77 104 117 42 
22 11 19 88 80 108 11 57 48 118 97 116 73 
23 11 41 47 67 114 91 58 64 77 26 5 21 
24 11 49 25 14 79 65 56 15 112 94 72 18 
25 11 56 79 49 24 15 14 94 119 72 45 4 
26 11 106 67 114 37 47 91 23 62 76 41 55 
27 9 90 93 83 32 60 39 4 105 56 
28 11 55 37 2 76 46 106 62 31 26 114 113 
29 11 75 50 120 10 59 3 16 20 18 112 7 
30 9 42 66 101 70 115 104 8 74 5 
31 10 82 113 28 55 37 106 76 26 2 46 
32 11 60 93 4 83 39 99 90 87 52 45 119 
33 11 6 73 34 38 109 116 9 36 68 40 57 
34 11 38 6 33 109 9 73 40 116 100 36 53 
35 11 7 3 120 59 69 50 75 10 29 20 111 
36 11 9 109 116 40 100 34 6 33 38 57 73 
37 11 76 55 106 62 2 46 26 28 114 67 23 
38 11 34 6 109 33 9 73 40 100 53 116 36 
39 11 60 99 87 4 52 32 83 45 119 93 94 
40 11 9 100 109 36 38 34 116 6 13 33 73 
41 11 23 47 114 64 67 91 58 77 26 5 106 
42 11 104 66 8 30 74 70 5 77 63 98 101 
43 11 78 89 17 72 52 94 45 16 119 18 87 
44 11 17 87 103 39 78 52 99 43 60 45 4 
45 11 119 52 94 72 15 4 99 87 14 39 60 
46 11 2 76 62 37 28 55 106 114 26 67 41 
47 11 23 91 67 41 58 114 77 26 64 5 21 
48 11 117 54 63 98 22 70 74 8 66 21 80 
49 11 79 24 25 14 15 56 94 119 72 45 4 
50 11 75 120 3 29 35 112 59 16 18 7 10 
51 11 102 111 85 86 35 7 69 3 120 59 50 
52 11 45 99 87 119 4 94 72 39 15 60 14 
53 10 68 95 38 34 6 73 33 109 9 100 
54 11 63 98 74 117 8 21 104 66 70 5 42 
55 11 28 37 76 106 2 46 62 26 114 31 67 
56 11 79 25 49 24 15 14 119 32 94 4 45 
57 11 11 116 19 33 73 36 109 6 88 97 9 
58 11 77 5 21 47 98 104 91 8 74 23 64 
59 11 10 120 20 3 69 7 35 29 50 75 16 
60 11 39 4 99 32 83 87 93 52 45 119 15 
61 11 80 22 48 81 108 118 71 88 19 103 107 
62 11 76 37 2 46 114 106 26 55 67 28 41 
63 11 54 98 74 8 21 117 104 5 66 70 42 
64 11 77 41 23 5 58 42 47 104 30 101 8 
65 11 112 18 16 50 75 29 3 120 35 7 59 
66 11 70 42 8 74 104 30 63 54 98 5 115 
67 11 47 26 91 114 23 41 106 58 37 77 62 
68 10 53 95 73 6 33 34 38 115 109 9 
69 11 7 59 35 3 20 120 10 50 29 111 75 
70 11 66 8 42 74 30 104 63 115 54 98 5 
71 11 107 118 108 88 80 97 22 19 57 11 61 
72 11 94 119 45 14 15 52 4 99 43 87 78 
73 11 33 6 34 38 109 68 116 9 53 57 11 
74 11 8 104 63 98 66 42 54 5 70 21 77 
75 11 29 50 120 16 3 18 59 112 10 20 35 
76 11 62 2 37 46 55 106 28 114 26 67 23 
77 11 5 58 104 64 21 42 8 74 98 47 63 
78 11 43 89 17 72 52 44 16 45 94 87 18 
79 11 56 25 49 15 24 14 119 94 4 45 32 
80 11 22 108 88 19 61 118 48 107 11 71 57 
81 10 92 61 117 48 21 54 98 63 91 113 
82 10 113 31 28 55 106 37 26 105 76 2 
83 10 93 60 32 39 99 4 87 90 52 45 
84 11 110 12 20 10 17 89 78 59 29 43 69 
85 11 111 86 51 102 69 7 35 3 59 120 20 
86 11 85 111 102 51 69 7 35 3 59 120 20 
87 11 99 39 52 4 60 45 119 94 72 44 32 
88 11 108 19 22 11 57 97 116 118 80 107 33 
89 11 43 78 17 16 29 18 75 72 10 112 20 
90 10 93 32 83 60 39 4 99 87 45 52 
91 11 47 67 23 58 41 26 114 77 21 5 106 
92 11 91 117 21 98 58 54 63 47 67 5 77 
93 11 32 83 90 60 39 4 99 87 52 45 119 
94 11 72 119 45 15 14 52 4 99 87 43 39 
95 9 53 68 115 38 73 34 6 101 33 
96 11 97 107 118 71 36 108 13 88 116 40 57 
97 11 57 36 116 88 108 19 11 109 9 40 33 
98 11 63 21 54 74 8 5 104 117 58 66 42 
99 11 4 39 87 52 60 45 119 32 94 15 72 
100 11 40 9 13 109 38 34 36 6 33 116 53 
101 9 30 115 42 66 70 104 95 8 64 
102 11 51 86 85 111 35 7 69 3 120 59 50 
103 10 44 61 17 87 39 78 83 99 81 52 
104 11 42 8 74 5 66 70 77 98 63 30 21 
105 10 82 31 113 28 55 37 106 76 2 46 
106 11 26 37 114 55 67 76 62 47 91 2 28 
107 11 118 71 108 88 97 80 19 22 57 11 116 
108 11 88 19 22 118 97 11 57 107 80 71 116 
109 11 9 34 6 36 116 38 40 33 73 100 57 
110 11 84 12 20 10 69 59 29 120 89 7 3 
111 11 85 51 69 7 86 35 3 102 59 120 20 
112 11 18 65 16 50 75 29 120 3 35 59 7 
113 10 82 31 55 28 106 37 26 76 67 2 
114 11 67 26 23 41 47 106 62 91 37 76 64 
115 9 30 101 70 66 95 42 68 104 8 
116 11 36 109 33 9 57 6 34 73 40 38 11 
117 11 54 63 98 21 74 8 48 5 104 66 70 
118 11 107 71 108 88 80 97 22 19 57 11 116 
119 11 45 94 15 72 52 4 14 99 87 39 60 
120 11 3 59 50 7 35 29 75 10 69 20 16 
DEPOT_SECTION
   1
   -1
EOF
