NAME :  X-n139-kX-w13-c11.cctp
COMMENT : 	Adapted by Maziero, Usberti and Cavellucci from the Uchoa, Pecin, Pessoa, Poggi, Subramanian, and Vidal (2013)
TYPE :  CCTP
DIMENSION :    91
EDGE_WEIGHT_TYPE : 	EUC_2D	
CAPACITY : 	106
VERTICES_WITHIN_COVERAGE :  11
VERTICES_WITH_DEMAND : 	13
NODE_COORD_SECTION
1 500 500
2 645 7
3 720 867
4 513 499
5 208 766
6 976 884
7 991 864
8 596 532
9 765 632
10 270 818
11 223 552
12 871 193
13 825 816
14 128 518
15 802 281
16 786 635
17 976 204
18 563 43
19 870 774
20 566 113
21 295 969
22 229 790
23 482 998
24 241 830
25 47 633
26 635 626
27 597 538
28 86 516
29 12 649
30 187 417
31 630 975
32 934 263
33 88 855
34 768 582
35 916 277
36 40 387
37 881 490
38 771 700
39 308 482
40 934 7
41 869 723
42 788 896
43 100 591
44 746 587
45 859 990
46 403 428
47 493 63
48 496 458
49 728 641
50 174 440
51 887 589
52 931 743
53 234 663
54 832 704
55 857 776
56 744 105
57 122 949
58 270 596
59 790 753
60 152 585
61 138 342
62 391 452
63 87 413
64 713 127
65 638 532
66 326 566
67 847 833
68 576 429
69 141 976
70 946 889
71 100 526
72 503 496
73 684 811
74 794 190
75 177 924
76 300 515
77 275 468
78 343 995
79 889 853
80 20 645
81 760 141
82 763 785
83 889 11
84 70 637
85 361 611
86 529 957
87 813 135
88 820 999
89 5 787
90 881 333
91 427 864
DEMAND_SECTION
2 10
3 10
4 5
5 9
6 8
7 5
8 5
9 8
10 6
11 8
12 10
13 9
14 9
COVERAGE_SECTION
2 8 18 20 64 56 47 81 87 74 
3 10 73 42 82 13 67 59 31 55 88 79 
4 8 72 48 8 27 68 65 46 62 
5 11 22 24 10 53 33 75 58 60 84 57 89 
6 11 7 70 79 67 52 19 45 55 13 42 41 
7 11 6 70 79 52 67 19 55 13 45 41 42 
8 9 27 65 4 72 26 68 48 44 49 
9 11 16 49 44 34 38 54 59 51 26 41 82 
10 10 24 22 5 75 21 53 91 33 78 57 
11 11 58 60 76 77 14 66 39 53 50 71 43 
12 9 74 87 32 35 17 15 81 90 56 
13 11 67 55 19 82 59 79 42 41 54 3 38 
14 11 71 28 60 43 50 11 63 30 84 25 77 
15 5 74 90 12 35 32 
16 11 9 34 49 44 38 54 51 59 41 26 82 
17 10 32 35 12 90 87 74 15 40 83 81 
18 6 20 47 2 64 56 81 
19 11 55 41 13 67 52 54 79 59 82 38 70 
20 5 18 47 2 64 56 
21 10 78 75 24 10 69 91 57 23 22 5 
22 11 5 24 10 53 75 33 21 57 58 69 91 
23 7 86 78 91 31 21 3 73 
24 11 10 22 5 75 21 33 53 57 69 91 78 
25 11 84 80 29 43 60 71 28 14 89 53 11 
26 7 49 65 27 8 44 9 34 
27 9 8 65 4 26 72 68 48 44 49 
28 11 71 14 43 60 63 50 84 25 36 30 11 
29 11 80 25 84 43 89 71 28 60 14 33 53 
30 9 50 61 63 77 14 39 71 11 28 
31 8 86 3 23 73 42 88 45 91 
32 7 35 17 90 12 15 74 87 
33 11 57 89 75 69 5 22 24 10 84 29 80 
34 10 44 9 16 49 38 51 54 65 26 37 
35 7 32 90 17 12 15 74 87 
36 8 63 61 28 50 30 71 14 43 
37 7 51 34 90 44 16 9 49 
38 11 59 54 16 9 49 82 41 55 44 34 19 
39 7 76 77 66 62 46 11 58 
40 11 83 87 12 17 56 81 74 64 32 35 2 
41 11 54 19 55 52 59 38 13 67 16 82 79 
42 11 3 67 13 88 79 82 45 73 55 59 19 
43 11 60 84 71 25 28 14 80 29 11 53 50 
44 11 34 9 49 16 38 26 65 51 54 27 8 
45 11 88 42 70 79 67 6 13 7 3 55 19 
46 7 62 48 39 72 4 77 76 
47 3 18 20 2 
48 7 72 4 68 46 62 8 27 
49 10 9 44 16 34 38 26 54 59 65 82 
50 10 30 14 63 61 77 71 28 11 39 36 
51 9 37 16 34 54 9 41 44 52 38 
52 11 41 19 55 54 79 67 13 7 59 70 6 
53 11 58 5 11 60 22 66 85 43 10 76 84 
54 11 41 38 59 55 19 16 9 52 82 13 49 
55 11 19 13 41 67 59 54 52 79 82 38 42 
56 7 64 81 87 74 2 12 83 
57 11 69 75 33 24 21 22 10 89 5 78 53 
58 10 11 66 53 76 85 60 39 77 14 43 
59 11 82 38 54 55 13 19 41 67 16 73 9 
60 11 43 14 11 71 28 84 53 25 58 80 50 
61 7 63 30 50 36 14 28 77 
62 8 46 39 48 76 77 72 4 66 
63 9 36 61 50 30 28 14 71 43 60 
64 6 56 81 87 74 2 20 
65 10 27 8 26 68 44 4 34 72 49 48 
66 8 76 85 58 39 11 77 62 53 
67 11 13 79 55 19 42 82 59 41 70 52 54 
68 6 48 4 72 8 27 65 
69 11 57 75 33 21 24 78 10 22 5 89 91 
70 11 6 7 79 67 45 19 13 55 52 42 88 
71 11 28 14 43 60 50 63 84 25 11 30 80 
72 8 4 48 68 8 27 62 46 65 
73 7 3 82 59 42 13 38 67 
74 6 87 81 12 15 56 64 
75 11 57 69 33 24 21 10 22 5 78 89 91 
76 8 39 77 66 11 58 62 85 46 
77 7 39 76 11 30 50 66 62 
78 10 21 23 91 75 86 10 24 69 57 22 
79 11 67 70 13 19 55 6 7 42 52 41 45 
80 11 29 25 84 43 71 89 28 60 14 53 33 
81 6 56 64 87 74 12 15 
82 11 59 13 73 38 3 55 67 54 19 42 41 
83 10 40 87 56 12 81 74 64 17 2 32 
84 11 25 80 43 29 60 71 28 14 89 53 11 
85 8 66 58 76 53 39 11 62 77 
86 7 23 31 91 78 3 73 21 
87 7 81 74 56 12 64 83 15 
88 11 45 42 79 3 70 67 13 31 6 7 82 
89 11 33 29 80 25 84 57 5 43 75 22 69 
90 6 35 32 15 12 37 17 
91 5 86 23 78 10 21 
DEPOT_SECTION
   1
   -1
EOF
