NAME :  X-n148-kX-w58-c11.cctp
COMMENT : 	Adapted by Maziero, Usberti and Cavellucci from the Uchoa, Pecin, Pessoa, Poggi, Subramanian, and Vidal (2013)
TYPE :  CCTP
DIMENSION :    140
EDGE_WEIGHT_TYPE : 	EUC_2D	
CAPACITY : 	18
VERTICES_WITHIN_COVERAGE :  11
VERTICES_WITH_DEMAND : 	58
NODE_COORD_SECTION
1 707 633
2 405 122
3 811 419
4 11 667
5 336 612
6 366 50
7 98 836
8 414 996
9 243 713
10 100 232
11 891 946
12 132 204
13 25 642
14 994 18
15 636 897
16 214 651
17 108 619
18 882 399
19 863 607
20 409 585
21 247 882
22 553 507
23 677 258
24 673 644
25 25 182
26 251 111
27 263 799
28 660 359
29 351 288
30 172 127
31 382 441
32 231 650
33 966 485
34 964 107
35 876 164
36 949 328
37 936 70
38 229 744
39 161 214
40 581 594
41 154 860
42 23 374
43 736 600
44 594 542
45 846 684
46 355 471
47 675 597
48 663 653
49 61 889
50 685 150
51 129 248
52 161 301
53 180 836
54 427 670
55 833 860
56 669 251
57 411 403
58 450 926
59 591 505
60 468 157
61 288 484
62 574 955
63 41 65
64 175 486
65 74 436
66 907 13
67 579 912
68 765 835
69 176 189
70 972 351
71 470 22
72 577 469
73 561 672
74 110 670
75 811 614
76 460 344
77 22 369
78 898 295
79 89 934
80 89 973
81 896 544
82 503 364
83 765 469
84 702 482
85 481 321
86 827 627
87 541 599
88 111 694
89 891 231
90 884 324
91 555 436
92 186 502
93 442 319
94 823 255
95 367 339
96 572 872
97 715 620
98 134 794
99 85 912
100 191 561
101 79 911
102 924 508
103 132 871
104 962 682
105 170 677
106 847 462
107 732 383
108 904 368
109 980 376
110 281 669
111 84 809
112 114 715
113 83 648
114 800 540
115 45 944
116 84 965
117 465 407
118 779 427
119 854 305
120 518 500
121 216 721
122 597 643
123 859 298
124 954 764
125 339 814
126 142 552
127 400 366
128 21 341
129 67 772
130 897 552
131 189 530
132 930 232
133 472 396
134 92 325
135 877 475
136 451 370
137 1 416
138 712 100
139 869 270
140 100 342
DEMAND_SECTION
2 10
3 4
4 7
5 4
6 8
7 1
8 4
9 1
10 5
11 5
12 1
13 4
14 4
15 4
16 2
17 5
18 3
19 10
20 1
21 2
22 9
23 5
24 5
25 2
26 1
27 7
28 10
29 5
30 10
31 10
32 2
33 9
34 1
35 10
36 9
37 2
38 3
39 4
40 4
41 9
42 10
43 5
44 4
45 10
46 1
47 5
48 8
49 5
50 1
51 6
52 10
53 1
54 6
55 4
56 3
57 7
58 2
59 8
COVERAGE_SECTION
2 11 60 6 71 26 29 93 85 95 76 30 69 
3 6 118 106 83 18 107 135 
4 11 13 113 74 88 17 112 129 105 111 126 98 
5 11 20 110 54 32 16 9 61 46 100 121 131 
6 11 2 71 26 60 30 69 29 39 12 93 95 
7 11 111 103 98 41 49 129 99 101 53 79 115 
8 11 58 62 67 125 96 21 15 27 53 41 103 
9 11 121 38 110 32 16 105 27 112 88 98 5 
10 11 51 12 39 69 25 52 134 140 30 128 77 
11 11 55 68 124 15 45 104 67 62 86 96 19 
12 11 39 10 51 69 30 52 25 134 140 26 63 
13 11 4 113 17 74 88 112 129 126 105 111 100 
14 11 37 66 34 35 132 89 139 94 78 138 123 
15 11 67 96 62 68 58 55 73 8 48 24 122 
16 11 32 105 9 110 121 100 38 74 17 88 112 
17 11 113 74 88 126 105 13 112 100 4 16 131 
18 10 108 106 3 90 135 36 119 109 70 123 
19 6 86 75 130 81 45 114 
20 11 5 54 46 87 120 31 110 61 22 40 73 
21 11 53 27 41 125 103 38 98 7 121 99 79 
22 11 120 59 72 44 91 40 87 117 133 122 82 
23 11 56 28 50 107 94 138 119 123 139 118 82 
24 11 48 47 97 122 43 40 73 44 87 75 86 
25 11 10 12 63 51 39 69 30 134 128 140 52 
26 11 30 69 6 39 12 2 51 10 29 52 63 
27 11 38 125 21 9 53 121 41 98 110 103 32 
28 11 107 23 56 84 91 118 72 83 82 59 3 
29 11 95 127 93 76 136 57 85 31 133 117 82 
30 11 69 26 12 39 10 51 63 25 52 6 134 
31 11 46 57 127 117 136 133 61 95 76 93 82 
32 11 16 110 9 105 121 38 100 5 74 17 131 
33 8 102 135 81 130 109 18 106 108 
34 11 37 14 35 66 132 89 139 78 94 123 36 
35 11 89 132 34 94 139 37 78 123 119 66 90 
36 11 70 109 108 78 90 123 18 119 132 139 89 
37 11 34 66 14 35 132 89 139 94 138 78 123 
38 11 121 9 27 105 110 16 32 53 98 112 88 
39 11 69 12 51 10 52 30 134 26 25 140 128 
40 11 87 122 44 73 59 22 47 48 24 120 72 
41 11 103 53 7 98 99 111 101 21 49 79 129 
42 11 77 128 137 65 140 134 52 10 51 64 25 
43 8 97 47 75 24 114 48 86 84 
44 11 59 22 40 72 87 120 47 122 91 84 24 
45 9 86 75 19 104 124 43 130 97 81 
46 11 31 61 57 127 20 117 95 133 136 5 76 
47 11 97 24 48 43 122 40 44 84 59 87 73 
48 11 24 47 97 122 43 40 73 44 87 75 59 
49 11 101 99 79 115 7 103 116 111 80 41 129 
50 11 138 56 23 94 35 28 60 139 89 123 119 
51 11 10 12 39 52 69 134 140 25 30 128 77 
52 11 51 134 140 39 10 12 69 128 77 42 65 
53 11 41 103 98 21 7 27 111 38 121 99 101 
54 11 20 5 73 87 110 125 40 122 9 120 32 
55 11 68 11 124 45 15 104 86 75 19 67 96 
56 11 23 50 28 107 94 138 119 123 82 85 139 
57 11 127 31 136 117 133 76 95 46 93 82 85 
58 11 8 62 67 96 125 15 21 27 54 73 53 
59 11 44 22 72 120 91 40 87 84 47 122 117 
60 11 2 71 6 93 85 29 76 95 82 136 50 
61 11 46 31 92 131 64 100 5 57 20 126 127 
62 11 67 96 15 58 8 68 125 55 73 122 48 
63 11 25 30 12 10 69 39 51 26 52 134 128 
64 11 92 131 126 100 61 65 17 140 16 32 46 
65 11 137 42 77 140 128 134 64 92 126 131 52 
66 11 37 14 34 35 138 89 132 94 139 50 78 
67 11 96 62 15 58 8 68 73 55 125 122 48 
68 11 55 15 11 45 96 67 124 48 24 86 97 
69 11 39 12 30 51 10 26 52 25 134 140 63 
70 11 109 36 108 90 78 18 123 132 119 139 33 
71 11 6 2 60 26 50 138 29 93 85 56 23 
72 11 59 91 22 120 44 40 84 82 117 133 87 
73 11 122 87 40 48 24 44 54 47 97 22 59 
74 11 88 113 112 17 105 13 4 16 129 121 126 
75 7 86 19 114 43 45 97 130 
76 11 136 85 93 82 133 117 127 57 95 29 31 
77 11 42 128 137 134 140 65 52 10 51 25 64 
78 11 90 139 123 119 36 89 132 108 94 70 18 
79 11 99 101 116 80 115 49 103 7 41 111 53 
80 11 116 79 115 99 101 49 103 41 7 53 111 
81 6 130 102 19 135 33 106 
82 11 133 76 85 136 117 93 91 57 127 72 120 
83 6 118 84 3 114 106 107 
84 8 83 118 107 59 114 47 43 44 
85 11 76 93 82 136 133 117 127 57 95 29 91 
86 8 75 19 45 114 43 130 81 97 
87 11 40 122 73 44 22 120 59 20 48 47 54 
88 11 112 74 113 105 17 129 13 98 4 121 16 
89 11 132 139 78 35 94 123 119 90 36 108 34 
90 11 78 119 123 108 139 36 18 70 94 89 132 
91 11 72 22 120 59 82 133 117 44 136 28 76 
92 11 64 131 100 126 61 65 17 16 32 46 105 
93 11 76 85 136 127 82 95 133 57 117 29 31 
94 11 139 123 119 89 78 90 35 132 108 23 36 
95 11 127 29 57 93 136 76 31 85 117 133 46 
96 11 67 15 62 58 68 73 8 122 48 125 24 
97 9 43 47 24 48 75 86 114 122 40 
98 11 111 7 53 41 129 103 112 88 38 121 49 
99 11 101 79 49 115 116 80 103 7 41 111 53 
100 11 131 126 92 64 16 32 17 105 61 74 113 
101 11 99 79 49 115 116 80 103 7 41 111 53 
102 6 81 33 130 135 106 19 
103 11 41 7 53 99 101 49 79 98 111 116 80 
104 9 124 45 19 130 86 81 75 102 33 
105 11 16 74 88 121 32 112 9 17 38 113 110 
106 4 135 3 18 118 
107 9 118 28 3 83 84 23 106 119 56 
108 11 18 90 36 70 78 109 119 123 139 3 106 
109 11 70 36 108 18 90 33 78 102 135 123 119 
110 11 32 9 16 5 121 38 105 27 100 54 20 
111 11 7 129 98 103 49 41 112 53 101 99 88 
112 11 88 74 105 113 129 98 17 111 121 4 13 
113 11 74 17 88 13 4 112 105 126 129 16 100 
114 3 75 83 43 
115 11 116 79 101 99 80 49 103 7 41 111 53 
116 11 80 79 115 99 101 49 103 41 7 111 53 
117 11 133 136 57 82 76 127 85 31 93 91 120 
118 5 3 83 107 106 84 
119 11 123 90 139 78 94 108 89 18 36 132 3 
120 11 22 72 59 91 44 87 117 40 133 82 20 
121 11 38 9 105 16 32 110 27 112 88 98 74 
122 11 73 40 48 87 24 47 44 97 59 22 43 
123 11 119 139 90 78 94 89 108 36 132 18 70 
124 10 104 45 55 19 86 11 68 75 130 81 
125 11 27 21 38 9 121 110 58 53 54 41 32 
126 11 100 131 92 64 17 113 16 74 105 32 65 
127 11 57 95 136 93 76 31 117 133 29 85 82 
128 11 77 42 134 137 140 65 10 51 52 25 12 
129 11 111 7 98 112 88 74 49 103 4 41 113 
130 6 81 102 19 135 33 114 
131 11 92 100 64 126 61 17 16 32 105 65 113 
132 11 89 78 139 35 123 36 90 119 94 70 34 
133 11 117 136 82 76 57 85 127 93 91 31 120 
134 11 140 52 128 77 42 51 10 65 12 137 39 
135 5 106 102 81 18 130 
136 11 76 133 117 127 57 82 93 85 95 31 91 
137 11 42 77 65 128 140 134 64 126 52 92 10 
138 11 50 56 23 35 94 66 89 37 139 123 119 
139 11 123 78 119 89 94 90 132 36 108 35 18 
140 11 134 52 128 42 77 51 65 10 137 12 39 
DEPOT_SECTION
   1
   -1
EOF
