NAME :  X-n186-kX-w37-c7.cctp
COMMENT : 	Adapted by Maziero, Usberti and Cavellucci from the Uchoa, Pecin, Pessoa, Poggi, Subramanian, and Vidal (2013)
TYPE :  CCTP
DIMENSION :    147
EDGE_WEIGHT_TYPE : 	EUC_2D	
CAPACITY : 	974
VERTICES_WITHIN_COVERAGE :  7
VERTICES_WITH_DEMAND : 	37
NODE_COORD_SECTION
1 159 917
2 635 200
3 278 907
4 875 93
5 10 732
6 586 657
7 482 75
8 526 176
9 153 622
10 452 945
11 456 137
12 884 968
13 688 793
14 117 915
15 149 746
16 495 325
17 539 967
18 917 58
19 590 316
20 611 998
21 963 878
22 141 5
23 383 531
24 685 124
25 39 781
26 534 29
27 213 837
28 874 734
29 180 943
30 789 541
31 343 949
32 537 248
33 626 147
34 56 596
35 112 344
36 738 977
37 941 193
38 437 386
39 743 623
40 521 398
41 90 89
42 83 719
43 789 437
44 933 949
45 382 130
46 61 985
47 357 505
48 199 892
49 930 154
50 400 95
51 148 261
52 41 527
53 29 335
54 913 885
55 293 784
56 102 962
57 372 866
58 144 223
59 684 899
60 402 636
61 138 705
62 715 745
63 914 323
64 461 953
65 780 165
66 935 38
67 927 350
68 849 726
69 74 778
70 362 568
71 898 759
72 563 171
73 136 83
74 341 955
75 892 938
76 659 306
77 805 670
78 930 778
79 791 763
80 641 347
81 846 685
82 598 253
83 45 585
84 654 70
85 310 854
86 602 66
87 878 10
88 995 987
89 697 200
90 847 208
91 577 295
92 102 478
93 899 185
94 123 601
95 230 342
96 438 547
97 968 649
98 214 379
99 242 769
100 66 727
101 354 338
102 725 735
103 632 849
104 411 272
105 481 165
106 121 414
107 492 78
108 736 937
109 701 496
110 87 12
111 963 619
112 61 688
113 209 571
114 631 208
115 226 40
116 161 296
117 839 54
118 814 504
119 967 668
120 236 704
121 218 618
122 526 667
123 87 981
124 976 122
125 177 712
126 449 902
127 492 63
128 761 122
129 609 621
130 614 240
131 478 599
132 175 312
133 239 636
134 347 199
135 619 620
136 120 871
137 140 957
138 68 736
139 661 294
140 604 737
141 91 956
142 16 561
143 852 978
144 352 957
145 409 939
146 630 902
147 487 220
DEMAND_SECTION
2 74
3 74
4 80
5 85
6 99
7 81
8 85
9 100
10 74
11 57
12 60
13 74
14 60
15 77
16 72
17 87
18 89
19 53
20 72
21 62
22 53
23 54
24 98
25 65
26 72
27 81
28 84
29 64
30 52
31 60
32 95
33 55
34 79
35 97
36 51
37 93
38 50
COVERAGE_SECTION
2 6 114 130 33 89 82 72 
3 7 85 31 74 48 144 27 57 
4 7 117 18 66 49 87 93 124 
5 7 100 25 138 112 42 69 61 
6 4 129 135 122 140 
7 7 107 127 11 26 50 105 8 
8 7 72 105 147 32 11 33 107 
9 7 94 121 113 61 133 125 34 
10 7 64 126 145 17 144 31 74 
11 7 105 7 107 50 45 8 127 
12 7 75 143 44 54 88 21 36 
13 6 62 102 103 140 59 79 
14 7 136 137 56 141 29 123 48 
15 7 61 125 42 69 138 100 99 
16 7 40 38 91 32 19 104 147 
17 7 20 64 10 126 146 145 103 
18 7 66 4 87 117 124 49 93 
19 7 91 80 82 76 139 130 32 
20 7 17 146 59 36 108 103 64 
21 7 54 44 75 78 88 12 71 
22 4 110 73 115 41 
23 6 47 70 96 60 131 38 
24 7 84 33 128 89 2 114 86 
25 7 69 138 5 100 42 112 15 
26 7 127 107 7 86 84 11 72 
27 7 48 99 3 55 85 136 15 
28 7 68 71 81 78 79 77 119 
29 7 137 48 14 56 141 136 123 
30 4 118 39 109 43 
31 7 74 144 145 3 57 85 10 
32 7 147 82 91 8 130 72 19 
33 7 2 114 24 72 84 86 89 
34 7 83 142 94 52 112 9 42 
35 7 116 106 132 53 51 98 95 
36 7 108 59 143 20 146 12 75 
37 7 49 93 124 90 4 63 18 
38 6 16 40 101 104 47 23 
39 3 77 30 102 
40 6 16 38 19 91 80 32 
41 3 73 110 22 
42 7 100 138 112 61 69 15 5 
43 3 118 30 109 
44 7 75 12 54 88 21 143 78 
45 5 50 11 134 105 7 
46 7 123 141 56 137 14 29 136 
47 6 23 70 96 60 38 131 
48 7 29 27 3 136 14 137 85 
49 7 37 93 124 4 18 90 66 
50 6 45 11 7 107 127 105 
51 5 116 58 132 35 95 
52 7 142 83 34 92 94 106 9 
53 7 35 106 116 51 132 58 92 
54 7 21 75 44 12 78 143 71 
55 4 99 85 27 120 
56 7 141 123 137 46 14 29 136 
57 6 85 145 126 31 144 74 
58 4 51 116 132 35 
59 7 146 108 103 36 13 20 62 
60 4 70 131 96 23 
61 7 125 15 42 100 138 112 9 
62 4 102 13 79 140 
63 4 67 37 90 93 
64 7 10 126 145 17 144 31 74 
65 4 128 90 89 24 
66 7 18 87 4 124 117 49 93 
67 3 63 37 43 
68 6 28 81 71 79 77 78 
69 7 25 138 100 42 5 15 112 
70 7 23 47 60 96 131 133 121 
71 7 28 78 68 81 79 119 54 
72 7 8 33 114 2 32 105 130 
73 3 41 22 110 
74 7 31 144 145 3 57 85 10 
75 7 12 44 54 143 21 88 108 
76 5 139 80 19 130 82 
77 4 81 68 39 28 
78 7 71 28 68 21 54 119 81 
79 6 68 102 62 28 77 81 
80 5 76 139 19 91 82 
81 6 68 77 28 71 79 39 
82 7 130 91 114 32 19 2 139 
83 7 34 142 52 94 112 9 92 
84 7 86 24 33 128 26 2 72 
85 6 3 57 55 27 31 74 
86 7 84 26 33 24 127 107 72 
87 7 117 18 66 4 124 49 128 
88 7 44 12 21 75 54 143 78 
89 3 2 114 24 
90 5 93 65 37 49 4 
91 7 19 82 32 130 80 76 139 
92 7 106 52 142 83 94 34 35 
93 7 37 49 90 4 124 65 18 
94 7 9 34 83 113 121 61 112 
95 6 98 132 116 51 35 101 
96 7 23 131 70 47 60 122 38 
97 7 119 111 28 81 71 78 68 
98 6 95 132 116 106 35 51 
99 6 55 120 27 125 15 85 
100 7 138 42 112 69 5 25 61 
101 5 104 38 95 134 16 
102 4 62 13 79 77 
103 4 146 59 13 140 
104 6 101 147 134 16 38 32 
105 7 11 8 147 72 107 7 32 
106 6 92 35 98 132 53 116 
107 7 7 127 26 11 105 50 8 
108 7 36 59 146 143 103 20 12 
109 3 30 43 118 
110 4 22 41 73 115 
111 7 97 119 81 28 71 68 78 
112 7 42 100 138 5 61 69 34 
113 7 121 133 9 94 120 92 125 
114 6 2 130 82 33 89 72 
115 1 22 
116 7 132 51 35 58 95 98 106 
117 7 4 87 18 66 128 65 49 
118 4 30 43 109 39 
119 7 97 111 28 71 78 81 68 
120 6 125 99 133 121 15 55 
121 7 133 113 9 120 94 125 61 
122 4 6 131 129 135 
123 7 56 141 46 137 14 29 136 
124 7 49 37 18 66 93 4 87 
125 7 61 15 120 99 9 42 133 
126 7 10 64 145 57 17 144 31 
127 7 107 7 26 11 50 105 86 
128 6 65 24 89 117 4 84 
129 3 135 6 122 
130 6 82 114 2 91 139 32 
131 6 96 122 60 23 70 6 
132 7 116 51 95 35 98 58 106 
133 7 121 120 113 9 125 94 61 
134 4 45 104 50 11 
135 3 129 6 122 
136 7 14 48 137 141 56 29 27 
137 7 56 29 14 141 123 46 48 
138 7 100 42 69 112 25 5 61 
139 5 76 80 130 19 82 
140 2 6 13 
141 7 56 123 46 14 137 29 136 
142 7 83 52 34 94 92 112 9 
143 7 12 75 44 54 36 108 88 
144 7 74 31 145 3 57 10 64 
145 7 10 64 126 144 31 74 57 
146 7 103 59 20 17 108 13 36 
147 6 105 32 8 11 72 104 
DEPOT_SECTION
   1
   -1
EOF
