NAME :  X-n181-kX-w18-c11.cctp
COMMENT : 	Adapted by Maziero, Usberti and Cavellucci from the Uchoa, Pecin, Pessoa, Poggi, Subramanian, and Vidal (2013)
TYPE :  CCTP
DIMENSION :    150
EDGE_WEIGHT_TYPE : 	EUC_2D	
CAPACITY : 	8
VERTICES_WITHIN_COVERAGE :  11
VERTICES_WITH_DEMAND : 	18
NODE_COORD_SECTION
1 894 510
2 463 887
3 704 177
4 424 368
5 420 800
6 492 610
7 607 749
8 455 819
9 343 457
10 387 275
11 466 653
12 607 348
13 428 546
14 764 848
15 403 298
16 315 738
17 457 902
18 597 584
19 219 552
20 526 359
21 414 340
22 398 401
23 579 780
24 518 563
25 531 597
26 501 827
27 687 200
28 670 234
29 488 981
30 673 222
31 359 256
32 537 675
33 788 95
34 433 820
35 397 770
36 444 799
37 367 288
38 253 774
39 379 843
40 388 736
41 565 785
42 608 193
43 430 657
44 775 142
45 721 600
46 434 876
47 683 311
48 592 740
49 428 915
50 426 803
51 409 639
52 535 572
53 502 916
54 351 371
55 657 782
56 493 265
57 751 112
58 469 594
59 720 165
60 463 624
61 751 96
62 496 833
63 471 361
64 448 969
65 361 559
66 529 582
67 429 879
68 483 715
69 264 574
70 793 916
71 448 386
72 325 199
73 327 370
74 484 861
75 432 873
76 641 155
77 712 163
78 456 612
79 700 165
80 690 213
81 478 811
82 665 56
83 430 368
84 414 943
85 709 235
86 296 297
87 380 773
88 459 423
89 498 910
90 464 939
91 677 704
92 420 381
93 554 512
94 486 614
95 584 809
96 429 336
97 461 529
98 470 360
99 407 661
100 687 711
101 593 471
102 537 648
103 666 111
104 452 797
105 430 742
106 481 958
107 636 741
108 405 576
109 666 234
110 603 683
111 473 466
112 611 739
113 342 688
114 446 280
115 791 198
116 660 828
117 414 839
118 504 592
119 665 921
120 448 320
121 550 637
122 637 758
123 743 166
124 504 869
125 708 432
126 664 343
127 878 706
128 396 920
129 728 203
130 367 739
131 444 808
132 445 864
133 597 660
134 344 301
135 209 369
136 571 812
137 454 353
138 497 781
139 697 220
140 296 787
141 409 893
142 607 654
143 218 312
144 523 938
145 598 705
146 481 772
147 375 722
148 460 681
149 524 610
150 771 752
DEMAND_SECTION
2 1
3 1
4 1
5 1
6 1
7 1
8 1
9 1
10 1
11 1
12 1
13 1
14 1
15 1
16 1
17 1
18 1
19 1
COVERAGE_SECTION
2 11 17 132 46 74 75 67 89 49 124 53 90 
3 11 79 77 59 27 129 80 123 139 30 85 28 
4 10 83 92 21 71 96 137 22 98 63 120 
5 10 50 34 36 131 104 35 117 8 87 39 
6 11 94 118 58 60 149 78 25 66 11 24 52 
7 11 112 48 107 122 23 145 41 55 95 110 136 
8 11 131 34 104 36 81 50 5 62 117 132 26 
9 10 22 54 73 65 92 4 88 13 83 71 
10 11 37 15 31 134 114 21 96 120 86 72 4 
11 11 60 148 43 78 94 6 51 58 99 68 102 
12 6 126 20 47 101 109 28 
13 10 97 108 58 65 78 60 94 118 6 24 
14 10 70 150 116 119 55 122 100 107 91 127 
15 11 10 37 21 96 114 120 134 31 4 83 137 
16 10 130 140 113 147 38 40 87 35 105 99 
17 11 2 49 46 67 75 90 132 89 53 74 141 
18 11 52 25 66 121 142 133 149 24 93 102 118 
19 11 69 65 9 113 135 108 13 16 51 73 99 
20 7 63 98 137 12 71 120 88 
21 11 96 4 83 120 92 137 15 71 98 63 22 
22 10 92 4 83 71 54 21 88 96 137 73 
23 8 41 95 136 7 48 112 122 107 
24 10 52 66 118 25 149 6 58 94 93 97 
25 11 66 149 52 118 24 6 121 94 102 58 18 
26 7 62 81 74 124 138 8 104 
27 11 80 139 30 3 79 28 109 85 129 77 59 
28 8 109 30 80 139 27 85 3 129 
29 11 106 64 90 144 53 89 84 17 49 2 128 
30 8 28 109 80 139 27 85 3 129 
31 11 37 10 134 15 72 86 114 21 96 120 54 
32 10 102 121 133 110 149 68 145 142 11 148 
33 9 61 57 44 123 59 77 115 79 3 
34 10 131 50 8 5 36 117 104 81 132 75 
35 11 87 40 5 105 130 50 147 36 131 104 34 
36 10 104 131 50 8 5 34 81 146 117 35 
37 11 10 134 31 15 21 86 96 114 54 120 73 
38 9 140 16 130 113 87 147 40 35 39 
39 7 117 141 5 34 75 50 67 
40 9 147 130 35 87 105 113 5 16 50 
41 6 23 136 95 48 7 112 
42 10 76 30 109 28 27 80 139 79 3 103 
43 10 99 51 11 148 60 78 94 58 6 68 
44 10 57 123 33 61 115 59 77 129 79 3 
45 10 91 100 18 142 133 110 150 145 107 125 
46 9 75 67 132 141 2 17 49 117 74 
47 7 126 28 109 85 12 30 139 
48 10 7 112 145 23 107 122 41 110 95 136 
49 10 141 84 17 128 67 46 75 90 2 132 
50 10 5 34 36 131 104 8 117 35 81 87 
51 10 99 43 78 60 11 108 148 58 94 113 
52 10 66 24 25 118 149 6 18 93 94 121 
53 11 89 144 90 17 106 124 2 74 29 49 64 
54 11 73 22 21 92 134 4 83 37 96 9 15 
55 11 122 107 116 7 112 48 100 23 95 91 136 
56 10 114 120 15 96 137 63 98 20 10 21 
57 9 61 44 33 123 59 77 79 3 103 
58 11 78 94 6 60 118 149 24 11 66 25 13 
59 10 77 3 79 123 129 27 80 44 139 57 
60 11 78 94 11 58 6 43 118 51 148 149 99 
61 9 57 33 44 123 59 77 79 103 3 
62 8 26 81 74 124 8 138 104 131 
63 9 98 137 71 83 120 4 96 20 92 
64 11 90 106 29 84 49 17 128 53 89 144 2 
65 11 108 13 51 69 9 97 78 99 58 43 60 
66 11 52 25 24 118 149 6 94 121 58 102 18 
67 8 46 75 132 141 2 17 49 117 
68 7 148 146 105 11 32 138 43 
69 10 19 65 113 9 108 51 13 99 16 147 
70 9 14 119 116 150 55 122 127 100 95 
71 9 83 92 4 63 98 137 88 22 96 
72 11 31 10 37 86 134 15 114 143 21 73 96 
73 11 54 134 22 86 9 37 21 92 4 83 15 
74 10 124 62 2 26 132 17 81 8 89 46 
75 9 46 67 132 141 2 17 117 49 34 
76 11 42 103 79 27 3 77 30 80 59 109 28 
77 10 59 79 3 123 129 27 80 139 57 44 
78 11 60 58 94 6 11 43 118 51 108 149 99 
79 11 77 3 59 27 123 129 80 139 76 30 103 
80 9 139 27 30 28 85 109 3 129 79 
81 9 8 26 62 104 131 36 138 146 34 
82 9 103 61 76 57 79 77 59 3 33 
83 10 4 92 71 137 21 96 98 63 22 120 
84 10 128 49 64 90 141 17 67 106 46 75 
85 8 139 80 129 30 28 27 109 3 
86 11 134 37 31 73 143 54 10 72 15 135 21 
87 11 35 130 40 5 147 50 105 36 39 34 131 
88 7 71 111 92 83 63 98 4 
89 11 53 144 124 2 17 90 74 106 49 132 29 
90 11 106 64 17 49 53 89 29 84 2 144 67 
91 10 100 107 122 112 110 145 55 7 142 133 
92 10 4 83 71 22 21 137 96 98 63 88 
93 8 101 24 52 66 18 25 111 118 
94 11 6 60 58 118 78 149 11 25 66 24 102 
95 6 136 23 41 7 48 122 
96 11 21 120 137 4 83 15 92 98 63 71 114 
97 9 13 111 58 24 108 118 78 52 66 
98 9 63 137 71 83 120 4 96 92 20 
99 10 51 43 148 11 60 78 147 113 40 105 
100 10 91 107 122 55 112 7 110 145 150 142 
101 6 93 18 52 24 111 125 
102 11 121 32 149 25 6 94 133 118 66 142 11 
103 9 76 82 79 77 3 59 57 61 27 
104 9 36 131 8 50 34 81 5 146 138 
105 10 40 35 5 36 68 87 104 146 147 50 
106 11 29 90 64 53 144 89 17 49 84 2 124 
107 11 122 112 7 48 55 145 91 100 110 23 41 
108 11 13 65 78 51 58 97 60 43 99 94 6 
109 8 28 30 80 139 27 85 3 129 
110 11 145 133 142 112 48 7 32 107 121 102 91 
111 4 88 97 71 13 
112 11 7 48 107 122 145 23 110 55 41 91 95 
113 10 147 16 130 40 99 51 43 87 35 105 
114 10 120 15 56 10 96 21 137 37 98 63 
115 10 44 123 129 59 77 3 85 57 79 139 
116 8 55 122 95 107 136 119 23 7 
117 9 34 39 50 75 5 132 46 67 131 
118 11 6 25 66 149 94 24 58 52 60 78 121 
119 7 116 14 70 95 55 144 136 
120 10 96 137 21 114 98 63 15 83 4 71 
121 11 102 149 32 25 133 66 142 6 118 52 94 
122 11 107 7 55 112 48 23 145 91 100 95 116 
123 11 59 77 44 129 3 79 57 115 27 61 80 
124 8 74 62 89 26 2 53 17 132 
125 7 126 101 47 12 45 93 18 
126 7 47 12 125 28 109 85 30 
127 10 150 14 45 100 91 70 55 107 122 116 
128 7 84 141 49 67 46 75 17 
129 10 3 139 85 59 80 123 27 77 79 30 
130 10 147 40 87 35 16 113 105 5 140 50 
131 10 36 104 8 34 50 5 81 117 146 132 
132 10 46 75 67 2 74 17 117 8 34 141 
133 11 142 110 145 121 102 32 18 48 112 149 7 
134 11 37 31 86 10 15 54 73 21 96 4 72 
135 11 143 86 73 54 134 9 37 19 31 22 10 
136 6 95 41 23 26 7 48 
137 9 98 63 83 96 4 71 120 21 92 
138 7 146 81 26 104 62 36 8 
139 8 80 85 27 30 28 109 129 3 
140 9 38 16 87 130 39 35 147 40 113 
141 8 67 49 46 75 128 132 17 84 
142 11 133 110 145 121 102 18 32 112 91 48 107 
143 11 135 86 73 134 54 37 31 72 10 15 9 
144 10 53 89 106 29 90 124 17 2 64 74 
145 10 110 48 112 7 133 107 142 122 32 23 
146 7 138 104 81 36 131 8 68 
147 9 40 130 113 87 35 105 16 99 43 
148 9 11 43 68 60 99 51 105 78 94 
149 11 25 118 66 6 121 94 52 102 24 58 60 
150 10 100 14 91 127 55 122 107 116 45 112 
DEPOT_SECTION
   1
   -1
EOF
