NAME :  X-n162-kX-w64-c11.cctp
COMMENT : 	Adapted by Maziero, Usberti and Cavellucci from the Uchoa, Pecin, Pessoa, Poggi, Subramanian, and Vidal (2013)
TYPE :  CCTP
DIMENSION :    149
EDGE_WEIGHT_TYPE : 	EUC_2D	
CAPACITY : 	1174
VERTICES_WITHIN_COVERAGE :  11
VERTICES_WITH_DEMAND : 	64
NODE_COORD_SECTION
1 500 500
2 300 71
3 434 4
4 257 798
5 718 17
6 879 206
7 929 330
8 353 793
9 389 540
10 202 55
11 417 253
12 921 572
13 94 788
14 870 327
15 281 124
16 411 288
17 882 116
18 307 240
19 359 935
20 352 858
21 502 776
22 269 33
23 440 814
24 850 461
25 909 404
26 339 458
27 767 535
28 86 47
29 758 532
30 426 282
31 534 10
32 826 830
33 911 79
34 270 791
35 391 794
36 908 787
37 929 858
38 938 281
39 941 579
40 752 162
41 579 68
42 323 570
43 238 700
44 853 970
45 329 805
46 651 486
47 291 631
48 286 481
49 855 547
50 972 378
51 561 490
52 205 741
53 528 672
54 664 605
55 462 532
56 340 54
57 929 941
58 936 46
59 864 654
60 501 495
61 339 10
62 324 595
63 585 893
64 73 401
65 244 926
66 190 659
67 900 929
68 525 878
69 832 622
70 228 662
71 36 578
72 897 292
73 492 426
74 958 546
75 312 781
76 320 557
77 226 264
78 446 702
79 470 746
80 613 620
81 710 289
82 439 15
83 148 352
84 693 626
85 703 31
86 798 932
87 294 172
88 710 588
89 701 370
90 632 147
91 909 889
92 745 985
93 771 946
94 248 178
95 265 408
96 808 699
97 867 883
98 725 58
99 688 875
100 546 149
101 108 303
102 401 225
103 824 878
104 336 115
105 683 219
106 428 19
107 691 745
108 624 46
109 6 539
110 652 923
111 513 262
112 639 753
113 112 114
114 478 46
115 440 219
116 780 270
117 354 105
118 885 963
119 403 32
120 403 386
121 392 52
122 769 967
123 811 683
124 968 26
125 644 82
126 339 122
127 413 22
128 459 198
129 643 391
130 733 200
131 348 158
132 361 229
133 726 749
134 480 250
135 837 983
136 427 197
137 731 579
138 741 135
139 421 23
140 315 178
141 676 530
142 729 107
143 668 471
144 391 79
145 715 728
146 542 296
147 607 43
148 727 283
149 223 283
DEMAND_SECTION
2 60
3 88
4 74
5 56
6 95
7 95
8 83
9 94
10 93
11 79
12 61
13 83
14 68
15 86
16 96
17 75
18 67
19 74
20 92
21 71
22 92
23 74
24 82
25 88
26 95
27 69
28 100
29 91
30 83
31 78
32 63
33 88
34 84
35 59
36 77
37 89
38 74
39 74
40 85
41 71
42 72
43 61
44 99
45 65
46 88
47 75
48 82
49 100
50 96
51 89
52 97
53 52
54 57
55 54
56 64
57 78
58 67
59 80
60 85
61 83
62 54
63 68
64 80
65 76
COVERAGE_SECTION
2 10 56 22 15 104 117 126 61 144 121 10 
3 9 82 106 139 127 119 114 121 144 61 
4 11 34 75 45 52 8 43 20 65 35 70 66 
5 11 85 98 142 108 125 147 138 41 40 90 31 
6 11 72 17 38 116 14 33 7 40 130 138 58 
7 11 38 72 14 50 25 6 24 116 148 74 17 
8 11 45 35 75 20 34 23 4 79 78 19 43 
9 11 76 42 55 62 26 48 60 47 73 120 78 
10 11 22 2 15 113 28 94 56 61 104 87 126 
11 10 30 102 16 115 136 132 134 128 111 18 
12 11 39 74 49 59 69 24 123 27 25 29 96 
13 11 52 66 4 43 34 70 65 71 75 45 47 
14 11 72 7 38 25 116 50 6 24 148 81 89 
15 10 87 2 104 126 94 140 117 131 22 56 
16 11 30 11 102 115 132 134 136 120 128 111 18 
17 11 33 58 6 124 40 138 142 98 130 38 72 
18 10 132 140 87 77 94 131 149 102 11 16 
19 11 20 65 45 8 35 23 75 34 4 68 21 
20 11 45 8 35 19 75 23 34 4 65 79 21 
21 11 79 23 78 68 53 35 112 63 8 20 45 
22 10 2 10 56 61 15 104 117 126 121 144 
23 11 35 21 79 8 20 68 45 78 75 19 63 
24 11 25 49 27 29 12 14 74 50 39 7 69 
25 11 50 7 24 14 72 38 74 49 12 39 116 
26 11 48 95 9 120 76 42 62 55 73 60 47 
27 11 29 137 88 49 141 69 24 84 143 54 46 
28 11 113 10 22 94 15 2 87 56 61 101 77 
29 11 27 137 88 141 49 143 84 24 46 69 54 
30 11 16 11 102 134 115 132 136 111 128 120 146 
31 10 114 41 147 82 108 3 106 139 127 125 
32 11 103 97 36 91 86 37 67 93 133 96 44 
33 11 58 17 124 6 40 138 142 98 5 38 72 
34 11 4 75 45 52 8 43 20 35 70 65 66 
35 11 8 23 45 20 75 79 78 21 34 4 19 
36 11 37 32 91 97 103 96 59 67 123 57 118 
37 11 91 97 36 67 57 32 103 118 44 86 135 
38 11 72 7 14 6 50 25 116 17 24 33 148 
39 11 12 74 49 59 69 24 123 25 27 96 29 
40 11 138 130 142 105 98 116 90 148 6 81 125 
41 9 147 108 125 31 100 90 114 85 98 
42 11 76 62 47 9 48 26 70 55 43 66 95 
43 11 70 52 66 47 34 4 75 62 45 8 42 
44 11 135 118 67 86 57 122 93 97 103 91 92 
45 11 8 75 20 34 35 4 23 19 43 52 65 
46 11 143 141 51 129 29 88 54 137 27 89 80 
47 11 62 42 70 76 43 66 9 52 48 75 34 
48 11 26 95 76 42 9 62 47 120 55 83 70 
49 11 12 69 24 27 39 29 74 59 137 123 88 
50 11 7 25 38 14 72 24 74 6 12 39 49 
51 10 60 46 73 55 143 141 129 80 54 88 
52 11 43 4 34 70 66 75 13 45 47 8 20 
53 11 78 79 80 21 112 54 55 23 84 60 107 
54 11 84 88 80 137 141 29 46 27 145 143 107 
55 11 60 9 51 73 26 42 76 62 53 120 78 
56 8 2 61 121 117 144 104 119 126 
57 11 67 118 91 44 37 97 135 103 86 32 36 
58 11 124 33 17 6 98 138 142 40 5 85 38 
59 11 69 123 96 12 39 49 36 74 137 27 29 
60 11 55 51 73 9 120 46 26 80 143 129 141 
61 10 56 119 121 2 22 127 139 144 106 3 
62 11 42 76 47 9 70 48 43 26 66 55 78 
63 11 68 110 99 21 112 23 107 92 79 93 122 
64 11 83 101 109 71 149 95 77 48 26 66 94 
65 11 19 20 4 34 45 75 8 52 35 13 23 
66 11 70 43 52 47 62 4 34 42 13 76 75 
67 11 57 118 91 97 44 37 135 103 86 32 93 
68 11 63 21 23 110 79 35 99 112 20 19 8 
69 11 59 123 49 96 12 27 137 29 39 88 84 
70 11 66 43 47 52 62 42 34 4 76 75 45 
71 11 109 66 64 70 13 52 43 83 47 48 101 
72 11 38 14 7 6 25 50 116 148 24 17 81 
73 10 60 51 120 55 146 9 129 26 30 16 
74 11 39 12 49 24 59 69 25 50 27 29 123 
75 11 45 8 34 4 35 20 43 52 23 70 47 
76 11 42 62 9 47 48 26 70 55 95 43 66 
77 11 149 18 94 87 83 101 140 132 95 15 131 
78 11 79 53 21 35 23 8 45 75 62 47 55 
79 11 21 78 23 35 53 8 68 45 75 20 112 
80 11 54 84 53 88 141 137 112 46 51 107 145 
81 7 148 116 105 89 130 129 40 
82 8 3 106 139 127 119 114 121 144 
83 11 101 64 149 77 95 48 18 94 26 87 109 
84 11 54 88 137 80 141 145 29 27 107 133 123 
85 11 5 98 125 108 142 147 138 41 90 40 31 
86 11 93 122 103 135 44 92 97 118 67 32 91 
87 9 140 94 15 131 126 18 104 132 117 
88 11 137 84 54 141 29 27 80 46 143 69 123 
89 8 129 81 148 143 46 116 105 141 
90 10 125 100 105 41 108 142 147 138 130 40 
91 11 37 67 97 57 118 103 44 32 36 135 86 
92 11 122 93 86 135 44 110 99 103 118 97 67 
93 11 122 86 92 135 44 103 99 97 118 110 32 
94 10 87 15 140 18 77 131 126 104 149 2 
95 11 48 26 83 149 120 77 76 42 18 9 16 
96 11 123 59 69 133 145 107 32 36 84 137 88 
97 11 91 103 67 32 37 118 57 86 44 36 135 
98 11 85 5 142 138 125 108 40 147 90 130 41 
99 11 110 63 93 122 86 92 107 112 133 103 32 
100 8 90 41 128 111 125 134 147 114 
101 11 83 64 149 77 94 95 113 18 87 140 15 
102 9 11 136 115 132 30 16 128 134 131 
103 11 97 32 86 91 93 67 44 118 122 135 37 
104 7 126 117 131 15 2 56 140 
105 8 130 81 148 90 40 138 116 142 
106 8 139 82 127 3 119 121 114 144 
107 11 145 133 112 84 96 99 123 54 80 88 32 
108 11 147 125 41 85 31 5 90 98 142 100 114 
109 11 71 64 66 83 70 101 13 43 52 48 95 
110 11 99 63 92 93 122 68 86 112 103 107 133 
111 8 134 146 128 115 30 11 16 136 
112 11 107 145 133 99 80 53 84 21 54 63 68 
113 11 28 10 94 15 22 77 101 87 2 149 140 
114 8 82 106 3 139 31 127 119 121 
115 9 136 128 102 11 134 30 16 132 111 
116 10 148 81 130 14 105 40 6 72 89 138 
117 6 104 126 144 56 131 2 
118 11 44 67 57 135 91 97 86 103 37 93 122 
119 9 127 139 121 106 82 3 144 56 61 
120 11 26 16 73 30 11 95 60 48 9 134 55 
121 8 119 144 127 139 106 56 82 3 
122 11 93 92 86 135 44 103 118 99 110 97 67 
123 11 96 59 69 145 133 84 137 107 88 36 49 
124 11 58 33 17 6 98 5 138 142 40 38 85 
125 11 108 147 41 90 85 98 142 5 138 100 31 
126 7 104 117 131 15 140 2 87 
127 10 139 119 106 82 3 121 144 114 61 56 
128 7 115 136 134 102 11 111 30 
129 8 89 143 46 81 51 148 146 141 
130 8 40 105 138 148 116 81 142 90 
131 7 126 140 104 117 87 132 15 
132 10 102 18 11 140 131 136 16 115 30 87 
133 11 145 107 112 96 123 84 32 99 54 88 103 
134 11 111 115 128 11 30 136 146 16 102 100 132 
135 11 44 118 86 122 93 67 92 57 97 103 91 
136 8 115 128 102 11 132 134 30 131 
137 11 88 29 27 84 54 141 69 46 80 143 49 
138 11 40 142 130 98 105 90 85 125 5 116 17 
139 9 106 127 82 119 3 121 114 144 61 
140 9 87 131 126 18 15 104 94 132 117 
141 11 46 143 88 137 54 29 27 84 80 51 129 
142 11 138 98 40 85 125 5 130 90 105 108 147 
143 11 46 141 129 89 29 51 27 88 137 54 84 
144 4 121 117 119 56 
145 11 133 107 112 96 84 123 54 88 80 99 137 
146 7 111 134 30 115 128 16 11 
147 11 108 41 125 31 85 90 5 98 100 114 142 
148 7 81 116 105 130 89 40 129 
149 11 77 18 83 94 101 87 95 140 132 15 131 
DEPOT_SECTION
   1
   -1
EOF
