NAME :  X-n143-kX-w28-c7.cctp
COMMENT : 	Adapted by Maziero, Usberti and Cavellucci from the Uchoa, Pecin, Pessoa, Poggi, Subramanian, and Vidal (2013)
TYPE :  CCTP
DIMENSION :    119
EDGE_WEIGHT_TYPE : 	EUC_2D	
CAPACITY : 	1190
VERTICES_WITHIN_COVERAGE :  7
VERTICES_WITH_DEMAND : 	28
NODE_COORD_SECTION
1 0 0
2 175 821
3 62 495
4 662 959
5 109 216
6 156 748
7 178 957
8 347 184
9 89 814
10 257 265
11 662 892
12 881 69
13 478 9
14 76 79
15 898 650
16 711 766
17 325 163
18 42 411
19 722 221
20 366 190
21 378 521
22 907 497
23 924 738
24 954 524
25 594 724
26 253 89
27 746 971
28 655 716
29 627 301
30 234 979
31 337 173
32 865 383
33 531 291
34 289 151
35 935 667
36 659 800
37 248 436
38 97 623
39 30 810
40 683 120
41 577 83
42 804 302
43 265 688
44 373 511
45 19 913
46 415 49
47 583 355
48 288 508
49 177 874
50 701 895
51 640 112
52 504 95
53 466 606
54 161 8
55 223 393
56 329 371
57 130 888
58 450 443
59 857 128
60 709 966
61 642 967
62 872 705
63 0 414
64 207 911
65 993 855
66 883 147
67 600 372
68 184 48
69 489 259
70 114 737
71 244 783
72 420 439
73 522 41
74 617 177
75 575 340
76 607 806
77 144 513
78 695 974
79 855 318
80 343 206
81 244 929
82 418 513
83 976 38
84 435 672
85 120 988
86 691 853
87 986 418
88 566 975
89 625 733
90 166 787
91 605 798
92 209 194
93 19 892
94 169 840
95 756 913
96 666 928
97 13 829
98 103 304
99 63 384
100 564 787
101 271 50
102 949 738
103 357 228
104 912 704
105 167 348
106 848 405
107 5 76
108 188 65
109 229 41
110 632 968
111 75 96
112 982 492
113 658 258
114 600 833
115 299 593
116 65 277
117 508 995
118 824 865
119 842 802
DEMAND_SECTION
2 95
3 35
4 81
5 12
6 3
7 99
8 47
9 64
10 20
11 47
12 27
13 77
14 50
15 75
16 14
17 24
18 3
19 58
20 65
21 98
22 35
23 35
24 45
25 52
26 11
27 13
28 11
29 76
COVERAGE_SECTION
2 7 94 90 49 6 71 57 9 
3 7 77 18 63 99 38 105 55 
4 7 61 96 110 78 60 11 50 
5 7 116 98 92 111 14 105 10 
6 7 90 70 2 94 9 71 43 
7 7 64 30 85 81 49 57 94 
8 7 31 20 80 17 103 34 10 
9 7 39 97 70 90 94 57 2 
10 7 92 80 103 34 8 31 105 
11 7 96 50 86 4 61 110 114 
12 6 59 66 83 40 19 42 
13 6 73 46 52 41 51 101 
14 7 111 107 54 68 108 5 109 
15 7 35 104 62 23 102 24 22 
16 7 36 28 86 89 76 91 25 
17 7 31 8 34 80 20 103 26 
18 7 99 63 3 98 116 105 77 
19 6 113 40 74 42 29 51 
20 7 8 80 31 103 17 34 10 
21 6 44 82 48 72 58 115 
22 6 24 112 106 87 32 15 
23 7 102 104 62 35 15 119 65 
24 7 112 22 87 15 35 106 32 
25 7 89 28 100 91 76 36 114 
26 7 101 109 108 34 68 17 92 
27 7 60 78 95 4 50 96 61 
28 7 89 25 16 36 91 76 100 
29 7 113 75 47 67 33 19 74 
30 6 81 7 64 85 49 57 
31 7 8 17 20 80 34 103 26 
32 5 106 79 42 22 87 
33 7 69 75 47 29 67 113 74 
34 7 17 31 8 26 80 20 92 
35 7 15 104 23 102 62 24 119 
36 7 76 91 16 86 114 89 28 
37 7 55 48 56 105 77 44 21 
38 7 70 77 3 6 90 43 9 
39 7 97 9 93 45 70 57 90 
40 6 51 74 19 41 113 59 
41 6 51 73 52 74 40 13 
42 5 79 32 106 19 113 
43 4 71 115 6 90 
44 6 21 82 48 72 58 115 
45 7 93 97 39 57 9 85 49 
46 7 13 52 73 101 17 31 20 
47 5 75 67 29 33 113 
48 7 37 44 115 21 82 55 56 
49 7 94 64 57 2 7 81 90 
50 7 11 86 96 95 60 4 78 
51 6 40 41 74 19 52 73 
52 6 73 41 13 46 51 74 
53 5 84 82 21 44 58 
54 7 68 108 109 14 101 26 111 
55 7 37 105 56 10 48 77 98 
56 4 37 55 72 10 
57 7 49 94 64 2 7 9 85 
58 4 72 82 44 21 
59 6 66 12 83 19 40 42 
60 7 78 27 4 96 61 50 95 
61 7 110 4 96 78 60 88 11 
62 7 104 15 23 35 102 119 118 
63 7 18 99 3 98 116 77 105 
64 7 81 49 7 30 57 94 2 
65 2 102 23 
66 6 59 12 83 79 42 19 
67 5 47 75 29 33 113 
68 7 108 54 109 26 101 14 111 
69 6 33 75 47 103 20 29 
70 7 6 90 9 2 39 38 94 
71 6 90 2 94 6 43 49 
72 4 58 82 44 21 
73 6 13 52 41 46 51 74 
74 6 51 40 113 41 19 29 
75 6 47 67 29 33 113 69 
76 7 91 114 100 36 89 25 86 
77 7 3 38 37 18 48 55 99 
78 7 60 4 27 61 96 110 50 
79 5 42 32 106 19 87 
80 7 8 103 20 31 17 34 10 
81 6 64 30 7 49 94 57 
82 5 21 44 72 58 53 
83 6 12 66 59 40 79 19 
84 4 53 115 82 21 
85 7 7 57 30 64 45 49 81 
86 7 50 11 36 96 95 16 114 
87 6 112 24 22 32 106 79 
88 6 117 110 61 4 96 11 
89 7 25 28 91 36 76 100 16 
90 7 2 6 94 70 71 9 49 
91 7 76 114 100 36 89 25 28 
92 7 10 34 5 26 17 31 108 
93 7 45 97 39 9 57 85 49 
94 7 2 49 90 57 64 9 6 
95 7 50 27 60 118 78 86 96 
96 7 4 11 61 50 110 78 60 
97 7 39 93 9 45 57 70 94 
98 7 116 105 5 99 18 55 63 
99 7 18 63 98 116 105 3 77 
100 7 91 76 114 25 89 36 28 
101 7 26 109 108 68 34 54 17 
102 7 23 104 35 62 15 65 119 
103 7 80 20 8 31 17 34 10 
104 7 23 62 35 102 15 119 65 
105 7 55 98 99 37 10 116 18 
106 4 32 79 22 42 
107 7 14 111 54 5 68 108 116 
108 7 68 109 54 26 101 14 111 
109 7 101 68 108 26 54 34 92 
110 7 61 4 96 78 88 60 11 
111 7 14 107 108 68 54 5 109 
112 7 24 87 22 32 106 15 35 
113 7 29 19 74 75 47 67 33 
114 7 76 91 100 36 11 86 89 
115 5 48 43 21 44 82 
116 7 98 5 99 105 18 63 92 
117 5 88 110 61 4 96 
118 5 119 95 50 27 86 
119 6 118 62 23 104 102 16 
DEPOT_SECTION
   1
   -1
EOF
