NAME :  X-n162-kX-w64-c7.cctp
COMMENT : 	Adapted by Maziero, Usberti and Cavellucci from the Uchoa, Pecin, Pessoa, Poggi, Subramanian, and Vidal (2013)
TYPE :  CCTP
DIMENSION :    142
EDGE_WEIGHT_TYPE : 	EUC_2D	
CAPACITY : 	1174
VERTICES_WITHIN_COVERAGE :  7
VERTICES_WITH_DEMAND : 	64
NODE_COORD_SECTION
1 500 500
2 300 71
3 434 4
4 257 798
5 718 17
6 879 206
7 929 330
8 353 793
9 389 540
10 202 55
11 417 253
12 921 572
13 94 788
14 870 327
15 281 124
16 411 288
17 882 116
18 307 240
19 359 935
20 352 858
21 502 776
22 269 33
23 440 814
24 850 461
25 909 404
26 339 458
27 767 535
28 86 47
29 758 532
30 426 282
31 534 10
32 826 830
33 911 79
34 270 791
35 391 794
36 908 787
37 929 858
38 938 281
39 941 579
40 752 162
41 579 68
42 323 570
43 238 700
44 853 970
45 329 805
46 651 486
47 291 631
48 286 481
49 855 547
50 972 378
51 561 490
52 205 741
53 528 672
54 664 605
55 462 532
56 340 54
57 929 941
58 936 46
59 864 654
60 501 495
61 339 10
62 324 595
63 585 893
64 73 401
65 244 926
66 190 659
67 900 929
68 525 878
69 832 622
70 228 662
71 36 578
72 897 292
73 492 426
74 958 546
75 312 781
76 320 557
77 226 264
78 446 702
79 470 746
80 613 620
81 439 15
82 148 352
83 693 626
84 703 31
85 798 932
86 294 172
87 710 588
88 701 370
89 632 147
90 909 889
91 745 985
92 771 946
93 248 178
94 265 408
95 808 699
96 867 883
97 725 58
98 688 875
99 546 149
100 108 303
101 401 225
102 824 878
103 336 115
104 428 19
105 624 46
106 6 539
107 652 923
108 513 262
109 639 753
110 112 114
111 478 46
112 440 219
113 780 270
114 354 105
115 885 963
116 403 32
117 403 386
118 769 967
119 811 683
120 968 26
121 644 82
122 339 122
123 413 22
124 459 198
125 643 391
126 733 200
127 361 229
128 726 749
129 480 250
130 837 983
131 427 197
132 731 579
133 741 135
134 421 23
135 315 178
136 676 530
137 729 107
138 668 471
139 715 728
140 542 296
141 607 43
142 223 283
DEMAND_SECTION
2 60
3 88
4 74
5 56
6 95
7 95
8 83
9 94
10 93
11 79
12 61
13 83
14 68
15 86
16 96
17 75
18 67
19 74
20 92
21 71
22 92
23 74
24 82
25 88
26 95
27 69
28 100
29 91
30 83
31 78
32 63
33 88
34 84
35 59
36 77
37 89
38 74
39 74
40 85
41 71
42 72
43 61
44 99
45 65
46 88
47 75
48 82
49 100
50 96
51 89
52 97
53 52
54 57
55 54
56 64
57 78
58 67
59 80
60 85
61 83
62 54
63 68
64 80
65 76
COVERAGE_SECTION
2 7 56 22 15 103 114 122 61 
3 6 81 104 134 123 116 111 
4 7 34 75 45 52 8 43 20 
5 7 84 97 137 105 121 141 133 
6 7 72 17 38 113 14 33 7 
7 7 38 72 14 50 25 6 24 
8 7 45 35 75 20 34 23 4 
9 7 76 42 55 62 26 48 60 
10 7 22 2 15 110 28 93 56 
11 7 30 101 16 112 131 127 129 
12 7 39 74 49 59 69 24 119 
13 7 52 66 4 43 34 70 65 
14 7 72 7 38 25 113 50 6 
15 7 86 2 103 122 93 135 114 
16 7 30 11 101 112 127 129 131 
17 7 33 58 6 120 40 133 137 
18 6 127 135 86 77 93 142 
19 7 20 65 45 8 35 23 75 
20 7 45 8 35 19 75 23 34 
21 7 79 23 78 68 53 35 109 
22 7 2 10 56 61 15 103 114 
23 7 35 21 79 8 20 68 45 
24 7 25 49 27 29 12 14 74 
25 7 50 7 24 14 72 38 74 
26 7 48 94 9 117 76 42 62 
27 7 29 132 87 49 136 69 24 
28 7 110 10 22 93 15 2 86 
29 7 27 132 87 136 49 138 83 
30 7 16 11 101 129 112 127 131 
31 7 111 41 141 81 105 3 104 
32 7 102 96 36 90 85 37 67 
33 7 58 17 120 6 40 133 137 
34 7 4 75 45 52 8 43 20 
35 7 8 23 45 20 75 79 78 
36 7 37 32 90 96 102 95 59 
37 7 90 96 36 67 57 32 102 
38 7 72 7 14 6 50 25 113 
39 7 12 74 49 59 69 24 119 
40 6 133 126 137 97 113 89 
41 7 141 105 121 31 99 89 111 
42 7 76 62 47 9 48 26 70 
43 7 70 52 66 47 34 4 75 
44 7 130 115 67 85 57 118 92 
45 7 8 75 20 34 35 4 23 
46 7 138 136 51 125 29 87 54 
47 7 62 42 70 76 43 66 9 
48 7 26 94 76 42 9 62 47 
49 7 12 69 24 27 39 29 74 
50 7 7 25 38 14 72 24 74 
51 7 60 46 73 55 138 136 125 
52 7 43 4 34 70 66 75 13 
53 7 78 79 80 21 109 54 55 
54 7 83 87 80 132 136 29 46 
55 7 60 9 51 73 26 42 76 
56 5 2 61 114 103 116 
57 7 67 115 90 44 37 96 130 
58 7 120 33 17 6 97 133 137 
59 7 69 119 95 12 39 49 36 
60 7 55 51 73 9 117 46 26 
61 6 56 116 2 22 123 134 
62 7 42 76 47 9 70 48 43 
63 6 68 107 98 21 109 23 
64 7 82 100 106 71 142 94 77 
65 7 19 20 4 34 45 75 8 
66 7 70 43 52 47 62 4 34 
67 7 57 115 90 96 44 37 130 
68 7 63 21 23 107 79 35 98 
69 7 59 119 49 95 12 27 132 
70 7 66 43 47 52 62 42 34 
71 7 106 66 64 70 13 52 43 
72 7 38 14 7 6 25 50 113 
73 6 60 51 117 55 140 9 
74 7 39 12 49 24 59 69 25 
75 7 45 8 34 4 35 20 43 
76 7 42 62 9 47 48 26 70 
77 7 142 18 93 86 82 100 135 
78 7 79 53 21 35 23 8 45 
79 7 21 78 23 35 53 8 68 
80 7 54 83 53 87 136 132 109 
81 6 3 104 134 123 116 111 
82 7 100 64 142 77 94 48 18 
83 7 54 87 132 80 136 139 29 
84 7 5 97 121 105 137 141 133 
85 7 92 118 102 130 44 91 96 
86 6 135 93 15 122 18 103 
87 7 132 83 54 136 29 27 80 
88 3 125 138 46 
89 5 121 99 41 105 137 
90 7 37 67 96 57 115 102 44 
91 7 118 92 85 130 44 107 98 
92 7 118 85 91 130 44 102 98 
93 6 86 15 135 18 77 122 
94 7 48 26 82 142 117 77 76 
95 6 119 59 69 128 139 32 
96 7 90 102 67 32 37 115 57 
97 7 84 5 137 133 121 105 40 
98 6 107 63 92 118 85 91 
99 4 89 41 124 108 
100 7 82 64 142 77 93 94 110 
101 6 11 131 112 127 30 16 
102 7 96 32 85 90 92 67 44 
103 4 122 114 15 2 
104 5 134 81 123 3 116 
105 7 141 121 41 84 31 5 89 
106 7 71 64 66 82 70 100 13 
107 7 98 63 91 92 118 68 85 
108 6 129 140 124 112 30 11 
109 6 139 128 98 80 53 83 
110 7 28 10 93 15 22 77 100 
111 6 81 104 3 134 31 123 
112 7 131 124 101 11 129 30 16 
113 3 126 14 40 
114 3 103 122 56 
115 7 44 67 57 130 90 96 85 
116 5 123 134 104 81 3 
117 7 26 16 73 30 11 94 60 
118 7 92 91 85 130 44 102 115 
119 7 95 59 69 139 128 83 132 
120 7 58 33 17 6 97 5 133 
121 7 105 141 41 89 84 97 137 
122 3 103 114 15 
123 5 134 116 104 81 3 
124 6 112 131 129 101 11 108 
125 3 88 138 46 
126 4 40 133 113 137 
127 5 101 18 11 135 131 
128 6 139 109 95 119 83 32 
129 7 108 112 124 11 30 131 140 
130 7 44 115 85 118 92 67 91 
131 6 112 124 101 11 127 129 
132 7 87 29 27 83 54 136 69 
133 6 40 137 126 97 89 84 
134 5 104 123 81 116 3 
135 5 86 122 18 15 103 
136 7 46 138 87 132 54 29 27 
137 7 133 97 40 84 121 5 126 
138 7 46 136 125 88 29 51 27 
139 6 128 109 95 83 119 54 
140 4 108 129 30 112 
141 7 105 41 121 31 84 89 5 
142 7 77 18 82 93 100 86 94 
DEPOT_SECTION
   1
   -1
EOF
