NAME :  X-n120-kX-w47-c7.cctp
COMMENT : 	Adapted by Maziero, Usberti and Cavellucci from the Uchoa, Pecin, Pessoa, Poggi, Subramanian, and Vidal (2013)
TYPE :  CCTP
DIMENSION :    113
EDGE_WEIGHT_TYPE : 	EUC_2D	
CAPACITY : 	21
VERTICES_WITHIN_COVERAGE :  7
VERTICES_WITH_DEMAND : 	47
NODE_COORD_SECTION
1 0 0
2 927 318
3 319 475
4 471 281
5 894 615
6 712 832
7 677 210
8 336 967
9 490 360
10 367 685
11 153 169
12 799 63
13 247 455
14 492 585
15 131 701
16 309 721
17 210 256
18 511 753
19 447 796
20 394 856
21 131 13
22 181 425
23 892 585
24 161 651
25 964 365
26 82 353
27 706 842
28 793 53
29 364 841
30 126 306
31 86 477
32 51 277
33 192 360
34 52 568
35 682 45
36 778 300
37 10 737
38 928 438
39 95 240
40 391 368
41 586 170
42 645 731
43 381 396
44 387 491
45 388 753
46 429 276
47 547 989
48 840 945
49 88 969
50 331 421
51 55 132
52 904 771
53 63 190
54 308 276
55 891 182
56 836 473
57 209 741
58 864 533
59 852 600
60 180 150
61 544 140
62 956 881
63 432 487
64 129 968
65 597 962
66 51 423
67 827 605
68 776 619
69 354 297
70 552 106
71 24 318
72 148 944
73 502 869
74 396 492
75 425 338
76 178 511
77 168 274
78 481 465
79 281 777
80 216 211
81 784 740
82 127 992
83 544 117
84 92 170
85 846 755
86 614 326
87 180 372
88 720 252
89 262 291
90 171 186
91 868 613
92 427 974
93 481 557
94 403 645
95 915 919
96 581 85
97 527 743
98 953 893
99 955 912
100 269 924
101 216 84
102 601 952
103 441 439
104 170 949
105 614 92
106 439 212
107 413 509
108 545 336
109 50 806
110 166 86
111 658 870
112 122 511
113 178 170
DEMAND_SECTION
2 1
3 1
4 1
5 1
6 1
7 1
8 1
9 1
10 1
11 1
12 1
13 1
14 1
15 1
16 1
17 1
18 1
19 1
20 1
21 1
22 1
23 1
24 1
25 1
26 1
27 1
28 1
29 1
30 1
31 1
32 1
33 1
34 1
35 1
36 1
37 1
38 1
39 1
40 1
41 1
42 1
43 1
44 1
45 1
46 1
47 1
48 1
COVERAGE_SECTION
2 5 25 38 55 36 56 
3 7 50 44 13 74 43 107 63 
4 7 46 75 106 9 108 40 69 
5 6 91 23 59 67 58 68 
6 7 27 111 81 42 85 102 48 
7 7 88 41 86 105 36 61 96 
8 7 100 92 20 29 104 72 73 
9 7 108 75 4 103 40 46 78 
10 7 94 16 45 79 19 29 18 
11 7 90 113 60 84 80 110 39 
12 7 28 35 55 105 7 88 96 
13 7 22 3 76 50 87 33 112 
14 7 93 94 107 63 78 74 44 
15 7 24 57 37 109 34 79 16 
16 7 79 10 45 57 94 29 19 
17 7 80 77 89 90 113 30 54 
18 7 97 19 73 45 42 94 20 
19 7 45 18 20 73 29 97 10 
20 7 29 19 45 73 92 8 79 
21 7 110 101 51 60 11 84 113 
22 7 87 33 13 76 112 31 26 
23 5 5 91 59 58 67 
24 7 15 57 34 76 112 16 37 
25 6 2 38 56 58 36 55 
26 7 30 71 66 32 87 33 39 
27 7 6 111 42 81 102 65 85 
28 7 12 35 55 105 7 88 96 
29 7 20 45 19 79 100 8 16 
30 7 77 26 39 32 33 87 17 
31 7 112 66 34 76 22 26 87 
32 7 71 39 30 26 53 84 77 
33 7 87 22 30 77 89 17 13 
34 7 112 31 24 76 66 15 37 
35 7 105 96 28 12 70 83 41 
36 7 88 7 2 55 86 56 25 
37 7 109 15 24 34 57 49 72 
38 5 25 56 58 2 23 
39 7 32 53 84 30 77 11 90 
40 7 43 75 50 69 103 9 46 
41 7 61 83 70 105 96 7 106 
42 7 97 6 27 18 81 111 68 
43 7 40 50 75 103 44 74 3 
44 7 74 107 63 3 103 50 43 
45 7 10 19 16 29 20 94 79 
46 7 4 75 106 69 40 9 54 
47 7 65 102 92 73 111 20 8 
48 7 95 99 98 62 27 6 52 
49 7 64 82 72 104 109 100 37 
50 7 3 43 40 44 13 74 103 
51 7 84 53 11 39 110 60 90 
52 7 85 62 81 98 95 99 5 
53 7 84 39 51 32 11 90 113 
54 7 89 69 17 80 46 40 75 
55 7 2 12 28 36 88 25 7 
56 4 58 38 23 59 
57 7 79 15 16 24 10 109 45 
58 5 23 56 59 91 67 
59 6 91 67 23 5 58 68 
60 7 113 11 90 110 80 101 84 
61 7 83 70 41 96 105 106 7 
62 7 98 99 95 52 48 85 81 
63 7 107 74 44 103 78 93 43 
64 7 82 72 49 104 100 109 8 
65 7 102 47 111 73 27 92 6 
66 7 31 26 71 112 22 30 87 
67 6 59 91 68 5 23 58 
68 5 67 59 91 5 23 
69 7 54 46 40 75 89 43 4 
70 7 83 61 96 105 41 35 106 
71 7 32 26 30 39 66 53 77 
72 7 104 64 82 49 100 109 8 
73 7 19 20 18 47 97 92 102 
74 7 44 107 63 103 3 78 50 
75 7 40 46 9 4 43 69 103 
76 7 112 22 13 31 34 87 24 
77 7 17 30 80 39 90 33 89 
78 7 103 63 107 74 93 44 9 
79 7 16 57 29 45 10 20 100 
80 7 17 90 113 60 11 77 89 
81 6 85 6 68 52 27 42 
82 7 64 49 72 104 100 109 8 
83 7 70 61 96 41 105 106 35 
84 7 53 51 11 39 90 113 60 
85 7 52 81 91 5 67 68 6 
86 7 108 9 88 7 4 41 36 
87 7 33 22 30 77 26 13 89 
88 7 7 36 86 41 55 105 108 
89 7 54 17 69 80 77 33 87 
90 7 113 11 60 80 17 84 77 
91 6 59 5 23 67 58 68 
92 7 8 47 20 73 29 100 65 
93 7 14 107 63 78 74 44 94 
94 7 10 14 45 93 16 107 18 
95 7 99 98 62 48 52 85 6 
96 7 105 70 83 61 41 35 7 
97 7 18 19 42 73 45 94 14 
98 7 62 99 95 48 52 85 81 
99 7 98 62 95 48 52 85 81 
100 7 8 104 72 29 20 64 79 
101 4 110 60 113 11 
102 7 65 47 111 73 27 6 92 
103 7 78 63 74 43 44 107 40 
104 7 72 64 82 49 100 8 109 
105 7 96 70 83 35 41 61 7 
106 7 46 4 69 61 75 83 54 
107 7 74 63 44 103 78 93 3 
108 7 9 86 4 75 46 78 103 
109 7 37 15 49 72 57 64 104 
110 7 101 60 21 11 113 90 84 
111 7 27 6 102 65 42 73 47 
112 7 31 76 34 22 66 13 24 
113 7 90 60 11 80 110 84 17 
DEPOT_SECTION
   1
   -1
EOF
