NAME :  X-n167-kX-w66-c7.cctp
COMMENT : 	Adapted by Maziero, Usberti and Cavellucci from the Uchoa, Pecin, Pessoa, Poggi, Subramanian, and Vidal (2013)
TYPE :  CCTP
DIMENSION :    167
EDGE_WEIGHT_TYPE : 	EUC_2D	
CAPACITY : 	133
VERTICES_WITHIN_COVERAGE :  7
VERTICES_WITH_DEMAND : 	66
NODE_COORD_SECTION
1 0 0
2 832 885
3 777 632
4 406 257
5 620 467
6 58 70
7 116 423
8 104 445
9 714 722
10 188 503
11 856 594
12 932 448
13 749 982
14 818 889
15 377 493
16 337 419
17 772 605
18 373 448
19 519 112
20 849 274
21 533 839
22 610 417
23 69 583
24 573 195
25 988 324
26 110 550
27 271 676
28 694 130
29 791 590
30 785 614
31 321 305
32 974 292
33 804 556
34 372 893
35 867 23
36 252 660
37 588 34
38 939 685
39 511 524
40 948 479
41 912 227
42 380 807
43 309 141
44 558 759
45 241 225
46 920 87
47 269 351
48 156 776
49 251 512
50 608 874
51 853 269
52 897 572
53 316 461
54 825 529
55 474 152
56 510 453
57 15 838
58 778 928
59 1 896
60 804 492
61 630 294
62 2 966
63 254 539
64 167 28
65 646 879
66 863 49
67 508 759
68 64 165
69 249 525
70 49 605
71 990 375
72 539 272
73 833 561
74 84 571
75 378 847
76 713 485
77 489 204
78 815 905
79 307 774
80 286 204
81 517 61
82 918 74
83 864 397
84 35 597
85 918 632
86 395 570
87 87 97
88 318 94
89 893 805
90 82 392
91 471 899
92 567 895
93 349 360
94 138 560
95 459 962
96 795 461
97 398 467
98 553 606
99 952 89
100 92 22
101 853 188
102 643 80
103 801 227
104 127 74
105 727 975
106 552 48
107 311 959
108 647 876
109 742 168
110 755 589
111 741 8
112 975 954
113 820 502
114 552 300
115 802 744
116 515 599
117 585 600
118 573 793
119 159 669
120 248 369
121 868 476
122 275 194
123 930 933
124 233 587
125 198 35
126 444 648
127 184 822
128 107 840
129 312 573
130 694 813
131 446 264
132 586 483
133 648 274
134 967 362
135 194 330
136 963 135
137 846 717
138 32 487
139 358 728
140 608 182
141 250 367
142 989 392
143 820 307
144 473 274
145 408 84
146 762 800
147 917 560
148 586 830
149 571 616
150 606 445
151 939 116
152 551 528
153 191 102
154 605 583
155 627 249
156 53 819
157 427 571
158 168 479
159 679 371
160 354 415
161 638 444
162 535 918
163 243 535
164 796 796
165 886 32
166 272 699
167 421 935
DEMAND_SECTION
2 6
3 9
4 7
5 5
6 9
7 5
8 9
9 7
10 10
11 8
12 6
13 5
14 9
15 8
16 9
17 10
18 5
19 7
20 8
21 5
22 9
23 9
24 7
25 5
26 7
27 8
28 5
29 10
30 9
31 9
32 9
33 9
34 7
35 9
36 5
37 10
38 6
39 9
40 9
41 5
42 6
43 10
44 6
45 6
46 8
47 6
48 6
49 10
50 9
51 7
52 8
53 6
54 6
55 6
56 8
57 5
58 10
59 6
60 9
61 9
62 9
63 7
64 9
65 6
66 7
67 5
COVERAGE_SECTION
2 7 14 78 58 164 89 123 146 
3 7 30 17 29 110 33 11 73 
4 7 131 144 31 77 93 55 80 
5 7 150 161 132 22 152 76 56 
6 7 87 100 104 68 64 153 125 
7 7 8 90 158 138 10 135 26 
8 7 7 90 158 138 10 26 94 
9 7 115 146 130 3 164 30 17 
10 7 158 49 163 69 63 94 26 
11 7 73 52 33 29 147 54 85 
12 7 40 121 142 83 71 134 147 
13 7 105 58 78 14 2 65 108 
14 7 2 78 58 164 146 89 13 
15 7 97 18 53 86 160 16 157 
16 7 160 18 53 93 97 15 47 
17 7 30 110 29 3 33 73 11 
18 7 97 160 15 16 53 93 86 
19 7 81 55 106 77 24 37 140 
20 7 51 143 103 41 101 83 32 
21 7 148 118 92 162 50 44 67 
22 7 150 161 5 132 159 56 76 
23 7 74 70 84 26 94 138 119 
24 7 140 155 72 77 19 114 55 
25 7 32 134 71 142 41 12 83 
26 7 94 74 23 70 84 10 158 
27 7 166 36 124 139 79 129 119 
28 7 109 102 140 111 24 155 37 
29 7 17 30 33 110 3 73 11 
30 7 17 3 29 110 33 73 11 
31 7 93 47 141 120 4 80 45 
32 7 25 134 71 41 142 51 20 
33 7 73 54 29 113 17 110 30 
34 7 75 167 42 107 91 95 79 
35 7 165 66 82 46 99 151 111 
36 7 27 166 124 119 129 63 163 
37 7 106 102 81 19 28 140 111 
38 7 85 137 52 11 147 89 115 
39 7 152 56 116 132 98 157 117 
40 7 12 121 147 142 52 71 83 
41 7 101 51 20 32 136 103 151 
42 7 75 79 139 34 91 167 67 
43 7 88 122 80 45 145 153 4 
44 7 118 67 148 21 50 92 149 
45 7 122 80 43 31 135 47 153 
46 7 82 99 151 136 165 66 35 
47 7 141 120 31 135 93 16 160 
48 7 127 128 119 156 166 36 79 
49 7 69 163 63 10 124 53 129 
50 7 65 108 92 148 21 162 118 
51 7 20 143 103 41 101 32 83 
52 7 147 11 85 73 54 33 121 
53 7 16 18 160 15 97 49 69 
54 7 113 73 33 60 121 29 11 
55 7 77 19 145 81 24 131 144 
56 7 39 132 152 150 22 5 97 
57 7 156 59 128 62 48 127 119 
58 7 78 14 13 2 105 146 164 
59 7 57 62 156 128 48 127 119 
60 7 113 96 54 33 121 73 76 
61 7 133 155 114 159 72 24 140 
62 7 59 57 156 128 127 48 107 
63 7 163 69 49 124 129 10 53 
64 7 125 104 100 153 87 6 88 
65 7 108 50 148 92 130 118 162 
66 7 35 165 82 46 99 151 111 
67 7 44 118 21 148 126 42 91 
68 7 87 6 104 153 100 64 45 
69 7 163 49 63 124 10 129 53 
70 7 84 23 74 26 94 138 119 
71 7 142 134 25 32 12 40 83 
72 7 114 144 24 77 155 131 61 
73 7 33 54 11 29 113 52 30 
74 7 23 26 70 84 94 138 119 
75 7 42 34 167 79 91 139 107 
76 7 96 161 60 5 113 110 150 
77 7 55 144 131 24 72 19 4 
78 7 14 2 58 13 164 105 123 
79 7 139 42 166 75 27 36 127 
80 7 122 45 43 31 88 4 153 
81 7 106 19 37 55 145 102 24 
82 7 46 99 151 165 66 35 136 
83 7 121 12 96 143 134 60 113 
84 7 70 23 74 26 94 138 119 
85 7 38 52 147 11 73 137 29 
86 7 157 15 129 126 97 116 18 
87 7 6 104 68 100 153 64 125 
88 7 43 145 122 80 153 125 45 
89 7 164 137 2 115 14 78 38 
90 7 7 8 138 158 135 10 26 
91 7 167 95 162 21 92 34 75 
92 7 162 50 21 148 65 108 91 
93 7 160 16 31 47 18 141 120 
94 7 26 74 23 10 158 124 70 
95 7 167 91 162 34 92 75 21 
96 7 60 113 54 121 76 83 33 
97 7 18 15 160 16 53 86 157 
98 7 149 117 116 154 152 39 126 
99 7 151 46 82 136 165 66 35 
100 7 6 104 64 87 125 153 68 
101 7 103 41 51 20 151 109 46 
102 7 28 37 106 140 111 81 19 
103 7 101 20 51 143 109 41 28 
104 7 87 64 100 6 153 125 68 
105 7 13 58 78 14 65 108 2 
106 7 81 37 19 102 55 140 24 
107 7 34 167 75 95 42 91 79 
108 7 65 50 148 130 92 118 21 
109 7 28 103 101 102 140 155 133 
110 7 17 29 30 3 33 73 54 
111 7 102 35 66 28 165 37 109 
112 7 123 2 78 14 89 58 13 
113 7 60 54 96 121 33 73 29 
114 7 72 61 144 155 133 24 131 
115 7 137 164 146 9 89 3 130 
116 7 98 149 117 39 152 126 154 
117 7 149 154 98 116 152 39 132 
118 7 44 148 21 67 50 92 108 
119 7 36 48 124 94 27 166 74 
120 7 141 47 135 31 93 16 53 
121 7 113 60 54 12 96 83 40 
122 7 80 45 43 88 31 153 4 
123 7 112 2 78 14 89 58 13 
124 7 63 163 69 36 49 129 10 
125 7 64 153 104 100 87 88 6 
126 7 157 116 86 98 139 67 149 
127 7 48 128 156 79 166 119 27 
128 7 156 127 48 57 59 62 119 
129 7 63 69 163 124 86 49 15 
130 7 146 108 65 9 164 50 148 
131 7 144 4 77 72 114 55 31 
132 7 5 150 152 161 22 56 39 
133 7 61 155 114 140 159 24 72 
134 7 71 142 25 32 12 83 40 
135 7 120 141 47 45 7 90 31 
136 7 151 99 46 82 41 101 165 
137 7 115 164 38 89 3 85 146 
138 7 8 74 26 23 7 90 84 
139 7 79 42 166 27 126 75 36 
140 7 24 155 28 133 102 19 72 
141 7 120 47 135 31 93 16 53 
142 7 71 134 25 12 40 32 83 
143 7 20 51 103 83 41 101 32 
144 7 131 72 4 77 114 55 24 
145 7 88 55 81 19 43 77 106 
146 7 164 115 130 9 14 2 78 
147 7 52 11 85 73 40 54 121 
148 7 118 50 21 92 44 108 65 
149 7 98 117 154 116 152 39 126 
150 7 5 22 161 132 56 152 159 
151 7 99 136 46 82 165 66 101 
152 7 39 132 154 98 116 117 56 
153 7 125 104 64 87 43 122 88 
154 7 117 149 98 152 116 132 39 
155 7 133 61 140 24 72 114 159 
156 7 57 128 59 48 127 62 119 
157 7 86 126 116 15 39 97 129 
158 7 10 8 7 94 49 26 69 
159 7 22 161 61 133 150 5 76 
160 7 16 18 93 53 97 15 47 
161 7 5 150 22 132 159 76 152 
162 7 92 91 21 50 95 148 167 
163 7 63 69 49 124 10 129 158 
164 7 146 115 137 2 14 89 130 
165 7 35 66 82 46 99 151 136 
166 7 27 36 79 139 119 124 129 
167 7 95 91 34 75 107 162 42 
DEPOT_SECTION
   1
   -1
EOF
