NAME :  X-n167-kX-w66-c9.cctp
COMMENT : 	Adapted by Maziero, Usberti and Cavellucci from the Uchoa, Pecin, Pessoa, Poggi, Subramanian, and Vidal (2013)
TYPE :  CCTP
DIMENSION :    167
EDGE_WEIGHT_TYPE : 	EUC_2D	
CAPACITY : 	133
VERTICES_WITHIN_COVERAGE :  9
VERTICES_WITH_DEMAND : 	66
NODE_COORD_SECTION
1 0 0
2 832 885
3 777 632
4 406 257
5 620 467
6 58 70
7 116 423
8 104 445
9 714 722
10 188 503
11 856 594
12 932 448
13 749 982
14 818 889
15 377 493
16 337 419
17 772 605
18 373 448
19 519 112
20 849 274
21 533 839
22 610 417
23 69 583
24 573 195
25 988 324
26 110 550
27 271 676
28 694 130
29 791 590
30 785 614
31 321 305
32 974 292
33 804 556
34 372 893
35 867 23
36 252 660
37 588 34
38 939 685
39 511 524
40 948 479
41 912 227
42 380 807
43 309 141
44 558 759
45 241 225
46 920 87
47 269 351
48 156 776
49 251 512
50 608 874
51 853 269
52 897 572
53 316 461
54 825 529
55 474 152
56 510 453
57 15 838
58 778 928
59 1 896
60 804 492
61 630 294
62 2 966
63 254 539
64 167 28
65 646 879
66 863 49
67 508 759
68 64 165
69 249 525
70 49 605
71 990 375
72 539 272
73 833 561
74 84 571
75 378 847
76 713 485
77 489 204
78 815 905
79 307 774
80 286 204
81 517 61
82 918 74
83 864 397
84 35 597
85 918 632
86 395 570
87 87 97
88 318 94
89 893 805
90 82 392
91 471 899
92 567 895
93 349 360
94 138 560
95 459 962
96 795 461
97 398 467
98 553 606
99 952 89
100 92 22
101 853 188
102 643 80
103 801 227
104 127 74
105 727 975
106 552 48
107 311 959
108 647 876
109 742 168
110 755 589
111 741 8
112 975 954
113 820 502
114 552 300
115 802 744
116 515 599
117 585 600
118 573 793
119 159 669
120 248 369
121 868 476
122 275 194
123 930 933
124 233 587
125 198 35
126 444 648
127 184 822
128 107 840
129 312 573
130 694 813
131 446 264
132 586 483
133 648 274
134 967 362
135 194 330
136 963 135
137 846 717
138 32 487
139 358 728
140 608 182
141 250 367
142 989 392
143 820 307
144 473 274
145 408 84
146 762 800
147 917 560
148 586 830
149 571 616
150 606 445
151 939 116
152 551 528
153 191 102
154 605 583
155 627 249
156 53 819
157 427 571
158 168 479
159 679 371
160 354 415
161 638 444
162 535 918
163 243 535
164 796 796
165 886 32
166 272 699
167 421 935
DEMAND_SECTION
2 6
3 9
4 7
5 5
6 9
7 5
8 9
9 7
10 10
11 8
12 6
13 5
14 9
15 8
16 9
17 10
18 5
19 7
20 8
21 5
22 9
23 9
24 7
25 5
26 7
27 8
28 5
29 10
30 9
31 9
32 9
33 9
34 7
35 9
36 5
37 10
38 6
39 9
40 9
41 5
42 6
43 10
44 6
45 6
46 8
47 6
48 6
49 10
50 9
51 7
52 8
53 6
54 6
55 6
56 8
57 5
58 10
59 6
60 9
61 9
62 9
63 7
64 9
65 6
66 7
67 5
COVERAGE_SECTION
2 9 14 78 58 164 89 123 146 13 105 
3 9 30 17 29 110 33 11 73 137 9 
4 9 131 144 31 77 93 55 80 72 122 
5 9 150 161 132 22 152 76 56 159 154 
6 9 87 100 104 68 64 153 125 45 122 
7 9 8 90 158 138 10 135 26 94 120 
8 9 7 90 158 138 10 26 94 74 23 
9 9 115 146 130 3 164 30 17 137 110 
10 9 158 49 163 69 63 94 26 124 8 
11 9 73 52 33 29 147 54 85 30 17 
12 9 40 121 142 83 71 134 147 113 52 
13 9 105 58 78 14 2 65 108 50 130 
14 9 2 78 58 164 146 89 13 123 105 
15 9 97 18 53 86 160 16 157 129 49 
16 9 160 18 53 93 97 15 47 141 120 
17 9 30 110 29 3 33 73 11 54 113 
18 9 97 160 15 16 53 93 86 157 56 
19 9 81 55 106 77 24 37 140 145 102 
20 9 51 143 103 41 101 83 32 134 25 
21 9 148 118 92 162 50 44 67 91 65 
22 9 150 161 5 132 159 56 76 61 152 
23 9 74 70 84 26 94 138 119 8 10 
24 9 140 155 72 77 19 114 55 133 61 
25 9 32 134 71 142 41 12 83 51 20 
26 9 94 74 23 70 84 10 158 138 8 
27 9 166 36 124 139 79 129 119 63 163 
28 9 109 102 140 111 24 155 37 103 133 
29 9 17 30 33 110 3 73 11 54 113 
30 9 17 3 29 110 33 73 11 54 113 
31 9 93 47 141 120 4 80 45 16 160 
32 9 25 134 71 41 142 51 20 83 143 
33 9 73 54 29 113 17 110 30 11 60 
34 9 75 167 42 107 91 95 79 162 139 
35 9 165 66 82 46 99 151 111 136 101 
36 9 27 166 124 119 129 63 163 139 79 
37 9 106 102 81 19 28 140 111 24 55 
38 9 85 137 52 11 147 89 115 73 3 
39 9 152 56 116 132 98 157 117 149 154 
40 9 12 121 147 142 52 71 83 134 113 
41 9 101 51 20 32 136 103 151 143 25 
42 9 75 79 139 34 91 167 67 166 21 
43 9 88 122 80 45 145 153 4 125 31 
44 9 118 67 148 21 50 92 149 130 108 
45 9 122 80 43 31 135 47 153 141 120 
46 9 82 99 151 136 165 66 35 101 41 
47 9 141 120 31 135 93 16 160 53 45 
48 9 127 128 119 156 166 36 79 27 57 
49 9 69 163 63 10 124 53 129 158 94 
50 9 65 108 92 148 21 162 118 130 44 
51 9 20 143 103 41 101 32 83 25 134 
52 9 147 11 85 73 54 33 121 113 40 
53 9 16 18 160 15 97 49 69 63 163 
54 9 113 73 33 60 121 29 11 96 52 
55 9 77 19 145 81 24 131 144 4 106 
56 9 39 132 152 150 22 5 97 161 18 
57 9 156 59 128 62 48 127 119 70 84 
58 9 78 14 13 2 105 146 164 65 108 
59 9 57 62 156 128 48 127 119 70 84 
60 9 113 96 54 33 121 73 76 29 110 
61 9 133 155 114 159 72 24 140 22 161 
62 9 59 57 156 128 127 48 107 119 79 
63 9 163 69 49 124 129 10 53 158 94 
64 9 125 104 100 153 87 6 88 68 43 
65 9 108 50 148 92 130 118 162 21 105 
66 9 35 165 82 46 99 151 111 136 101 
67 9 44 118 21 148 126 42 91 92 50 
68 9 87 6 104 153 100 64 45 125 135 
69 9 163 49 63 124 10 129 53 158 94 
70 9 84 23 74 26 94 138 119 8 10 
71 9 142 134 25 32 12 40 83 121 41 
72 9 114 144 24 77 155 131 61 133 140 
73 9 33 54 11 29 113 52 30 17 60 
74 9 23 26 70 84 94 138 119 10 158 
75 9 42 34 167 79 91 139 107 95 21 
76 9 96 161 60 5 113 110 150 33 159 
77 9 55 144 131 24 72 19 4 114 140 
78 9 14 2 58 13 164 105 123 146 89 
79 9 139 42 166 75 27 36 127 34 48 
80 9 122 45 43 31 88 4 153 47 135 
81 9 106 19 37 55 145 102 24 77 140 
82 9 46 99 151 165 66 35 136 101 41 
83 9 121 12 96 143 134 60 113 40 20 
84 9 70 23 74 26 94 138 119 8 158 
85 9 38 52 147 11 73 137 29 30 33 
86 9 157 15 129 126 97 116 18 39 53 
87 9 6 104 68 100 153 64 125 45 122 
88 9 43 145 122 80 153 125 45 64 55 
89 9 164 137 2 115 14 78 38 146 123 
90 9 7 8 138 158 135 10 26 120 141 
91 9 167 95 162 21 92 34 75 42 148 
92 9 162 50 21 148 65 108 91 118 95 
93 9 160 16 31 47 18 141 120 53 4 
94 9 26 74 23 10 158 124 70 163 84 
95 9 167 91 162 34 92 75 21 107 50 
96 9 60 113 54 121 76 83 33 73 29 
97 9 18 15 160 16 53 86 157 56 93 
98 9 149 117 116 154 152 39 126 132 157 
99 9 151 46 82 136 165 66 35 101 41 
100 9 6 104 64 87 125 153 68 88 43 
101 9 103 41 51 20 151 109 46 136 143 
102 9 28 37 106 140 111 81 19 109 24 
103 9 101 20 51 143 109 41 28 133 155 
104 9 87 64 100 6 153 125 68 45 122 
105 9 13 58 78 14 65 108 2 50 130 
106 9 81 37 19 102 55 140 24 145 28 
107 9 34 167 75 95 42 91 79 127 162 
108 9 65 50 148 130 92 118 21 162 105 
109 9 28 103 101 102 140 155 133 51 20 
110 9 17 29 30 3 33 73 54 11 60 
111 9 102 35 66 28 165 37 109 82 106 
112 9 123 2 78 14 89 58 13 164 105 
113 9 60 54 96 121 33 73 29 11 52 
114 9 72 61 144 155 133 24 131 77 22 
115 9 137 164 146 9 89 3 130 30 17 
116 9 98 149 117 39 152 126 154 157 86 
117 9 149 154 98 116 152 39 132 5 126 
118 9 44 148 21 67 50 92 108 65 130 
119 9 36 48 124 94 27 166 74 23 70 
120 9 141 47 135 31 93 16 53 160 158 
121 9 113 60 54 12 96 83 40 73 147 
122 9 80 45 43 88 31 153 4 47 135 
123 9 112 2 78 14 89 58 13 164 105 
124 9 63 163 69 36 49 129 10 27 94 
125 9 64 153 104 100 87 88 6 43 122 
126 9 157 116 86 98 139 67 149 39 117 
127 9 48 128 156 79 166 119 27 57 36 
128 9 156 127 48 57 59 62 119 79 166 
129 9 63 69 163 124 86 49 15 36 27 
130 9 146 108 65 9 164 50 148 118 115 
131 9 144 4 77 72 114 55 31 93 24 
132 9 5 150 152 161 22 56 39 154 117 
133 9 61 155 114 140 159 24 72 109 22 
134 9 71 142 25 32 12 83 40 41 20 
135 9 120 141 47 45 7 90 31 8 158 
136 9 151 99 46 82 41 101 165 66 35 
137 9 115 164 38 89 3 85 146 30 11 
138 9 8 74 26 23 7 90 84 70 94 
139 9 79 42 166 27 126 75 36 67 86 
140 9 24 155 28 133 102 19 72 61 77 
141 9 120 47 135 31 93 16 53 160 158 
142 9 71 134 25 12 40 32 83 121 41 
143 9 20 51 103 83 41 101 32 159 96 
144 9 131 72 4 77 114 55 24 93 31 
145 9 88 55 81 19 43 77 106 80 4 
146 9 164 115 130 9 14 2 78 137 58 
147 9 52 11 85 73 40 54 121 12 33 
148 9 118 50 21 92 44 108 65 162 67 
149 9 98 117 154 116 152 39 126 132 44 
150 9 5 22 161 132 56 152 159 76 39 
151 9 99 136 46 82 165 66 101 41 35 
152 9 39 132 154 98 116 117 56 149 5 
153 9 125 104 64 87 43 122 88 100 45 
154 9 117 149 98 152 116 132 39 5 150 
155 9 133 61 140 24 72 114 159 28 109 
156 9 57 128 59 48 127 62 119 70 84 
157 9 86 126 116 15 39 97 129 98 152 
158 9 10 8 7 94 49 26 69 163 63 
159 9 22 161 61 133 150 5 76 155 114 
160 9 16 18 93 53 97 15 47 31 141 
161 9 5 150 22 132 159 76 152 56 154 
162 9 92 91 21 50 95 148 167 65 108 
163 9 63 69 49 124 10 129 158 53 94 
164 9 146 115 137 2 14 89 130 9 78 
165 9 35 66 82 46 99 151 136 111 101 
166 9 27 36 79 139 119 124 129 48 127 
167 9 95 91 34 75 107 162 42 21 92 
DEPOT_SECTION
   1
   -1
EOF
