NAME :  X-n143-kX-w28-c9.cctp
COMMENT : 	Adapted by Maziero, Usberti and Cavellucci from the Uchoa, Pecin, Pessoa, Poggi, Subramanian, and Vidal (2013)
TYPE :  CCTP
DIMENSION :    132
EDGE_WEIGHT_TYPE : 	EUC_2D	
CAPACITY : 	1190
VERTICES_WITHIN_COVERAGE :  9
VERTICES_WITH_DEMAND : 	28
NODE_COORD_SECTION
1 0 0
2 175 821
3 62 495
4 662 959
5 109 216
6 156 748
7 178 957
8 347 184
9 89 814
10 257 265
11 662 892
12 881 69
13 478 9
14 76 79
15 898 650
16 711 766
17 325 163
18 42 411
19 722 221
20 366 190
21 378 521
22 907 497
23 924 738
24 954 524
25 594 724
26 253 89
27 746 971
28 655 716
29 627 301
30 994 958
31 234 979
32 337 173
33 865 383
34 531 291
35 289 151
36 935 667
37 659 800
38 965 898
39 248 436
40 97 623
41 953 932
42 30 810
43 683 120
44 577 83
45 804 302
46 265 688
47 425 392
48 438 417
49 373 511
50 19 913
51 415 49
52 583 355
53 312 683
54 288 508
55 177 874
56 609 113
57 905 309
58 701 895
59 640 112
60 504 95
61 466 606
62 161 8
63 944 892
64 223 393
65 329 371
66 130 888
67 450 443
68 857 128
69 709 966
70 642 967
71 872 705
72 0 414
73 207 911
74 993 855
75 883 147
76 740 490
77 600 372
78 184 48
79 489 259
80 114 737
81 244 783
82 420 439
83 522 41
84 617 177
85 575 340
86 607 806
87 144 513
88 695 974
89 855 318
90 343 206
91 244 929
92 418 513
93 976 38
94 435 672
95 120 988
96 691 853
97 986 418
98 566 975
99 625 733
100 166 787
101 605 798
102 209 194
103 19 892
104 169 840
105 756 913
106 666 928
107 13 829
108 103 304
109 63 384
110 564 787
111 271 50
112 949 738
113 357 228
114 912 704
115 765 462
116 167 348
117 848 405
118 5 76
119 188 65
120 229 41
121 632 968
122 75 96
123 936 903
124 982 492
125 658 258
126 600 833
127 299 593
128 65 277
129 508 995
130 824 865
131 842 802
132 684 432
DEMAND_SECTION
2 95
3 35
4 81
5 12
6 3
7 99
8 47
9 64
10 20
11 47
12 27
13 77
14 50
15 75
16 14
17 24
18 3
19 58
20 65
21 98
22 35
23 35
24 45
25 52
26 11
27 13
28 11
29 76
COVERAGE_SECTION
2 9 104 100 55 6 81 66 9 73 80 
3 9 87 18 72 109 40 116 64 39 108 
4 9 70 106 121 88 69 11 58 27 98 
5 9 128 108 102 122 14 116 10 119 109 
6 9 100 80 2 104 9 81 46 55 40 
7 9 73 31 95 91 55 66 104 2 50 
8 9 32 20 90 17 113 35 10 26 102 
9 9 42 107 80 100 104 66 2 6 103 
10 9 102 90 113 35 8 32 116 17 65 
11 9 106 58 96 4 70 121 126 69 88 
12 9 68 75 93 43 19 57 45 59 89 
13 9 83 51 60 44 56 59 111 20 32 
14 9 122 118 62 78 119 5 120 102 26 
15 9 36 114 71 23 112 24 22 131 124 
16 9 37 28 96 99 86 101 25 58 126 
17 9 32 8 35 90 20 113 26 102 10 
18 9 109 72 3 108 128 116 87 64 5 
19 9 125 43 84 45 29 59 56 68 89 
20 9 8 90 32 113 17 35 10 79 51 
21 9 49 92 54 82 67 127 48 61 47 
22 9 24 124 117 97 33 115 15 76 36 
23 9 112 114 71 36 15 131 74 63 130 
24 9 124 22 97 15 36 117 33 114 71 
25 9 99 28 110 101 86 37 126 16 96 
26 9 111 120 119 35 78 17 102 32 62 
27 9 69 88 105 4 58 106 70 121 11 
28 9 99 25 16 37 101 86 110 126 96 
29 9 125 85 52 77 34 19 84 132 79 
30 9 41 38 123 63 74 130 131 112 23 
31 8 91 7 73 95 55 66 104 2 
32 9 8 17 20 90 35 113 26 10 102 
33 9 117 89 57 45 22 97 115 124 76 
34 9 79 85 52 29 77 125 84 47 48 
35 9 17 32 8 26 90 20 102 111 113 
36 9 15 114 23 112 71 24 131 22 124 
37 9 86 101 16 96 126 99 28 11 110 
38 9 63 123 41 74 30 130 131 112 23 
39 8 64 54 65 116 87 49 21 127 
40 9 80 87 3 6 100 46 9 42 127 
41 9 123 38 63 30 74 130 131 112 23 
42 9 107 9 103 50 80 66 100 6 104 
43 9 59 56 84 19 44 125 68 83 60 
44 9 56 59 83 60 84 43 13 51 125 
45 9 89 33 57 117 19 125 115 75 29 
46 7 53 81 127 6 100 80 2 
47 8 48 82 67 65 92 49 21 34 
48 8 47 82 67 92 49 65 21 34 
49 9 21 92 54 82 67 127 48 47 61 
50 9 103 107 42 66 9 95 55 7 104 
51 9 13 60 83 111 17 32 20 8 35 
52 7 85 77 29 34 125 132 79 
53 6 46 127 81 94 6 61 
54 9 39 49 127 21 92 64 65 87 82 
55 9 104 73 66 2 7 91 100 9 81 
56 9 59 44 84 43 60 83 125 19 13 
57 9 89 33 45 117 97 75 68 22 124 
58 9 11 96 106 105 69 4 88 27 70 
59 9 56 43 44 84 19 60 83 125 29 
60 9 83 44 13 51 56 59 84 79 20 
61 6 94 92 21 49 67 127 
62 9 78 119 120 14 111 26 122 118 35 
63 9 123 38 41 74 30 130 131 112 23 
64 8 39 116 65 10 54 87 108 109 
65 8 47 39 64 82 48 10 67 54 
66 9 55 104 73 2 7 9 95 100 103 
67 7 48 82 47 92 49 21 65 
68 9 75 12 93 19 43 45 57 89 59 
69 9 88 27 4 106 70 58 105 121 11 
70 9 121 4 106 88 69 98 11 58 27 
71 9 114 15 23 36 112 131 130 16 74 
72 9 18 109 3 108 128 87 116 64 5 
73 9 91 55 7 31 66 104 2 95 100 
74 9 38 63 123 41 30 112 23 131 130 
75 9 68 12 93 57 89 45 19 43 33 
76 5 115 132 117 33 22 
77 6 52 85 29 132 34 125 
78 9 119 62 120 26 111 14 122 35 102 
79 8 34 85 52 113 20 29 47 84 
80 9 6 100 9 2 42 40 104 107 81 
81 8 100 2 104 6 46 55 53 73 
82 8 48 67 47 92 49 21 65 54 
83 9 13 60 44 51 56 59 84 43 20 
84 9 56 59 43 125 44 19 29 60 34 
85 8 52 77 29 34 125 79 132 48 
86 9 101 126 110 37 99 25 96 11 28 
87 9 3 40 39 18 54 64 109 116 127 
88 9 69 4 27 70 106 121 58 105 11 
89 9 57 45 33 117 19 97 115 75 22 
90 9 8 113 20 32 17 35 10 102 26 
91 8 73 31 7 55 104 66 2 95 
92 9 21 49 82 67 48 61 47 54 127 
93 9 12 75 68 57 43 89 19 45 59 
94 6 61 53 127 92 21 25 
95 9 7 66 31 73 50 55 91 103 104 
96 9 58 11 37 106 105 16 126 86 101 
97 9 124 24 22 33 57 117 89 45 115 
98 8 129 121 70 4 106 11 88 69 
99 9 25 28 101 37 86 110 16 126 96 
100 9 2 6 104 80 81 9 55 66 73 
101 9 86 126 110 37 99 25 28 96 11 
102 9 10 35 5 26 17 32 119 90 8 
103 9 50 107 42 9 66 95 55 104 2 
104 9 2 55 100 66 73 9 6 81 91 
105 9 58 27 69 130 88 96 106 11 4 
106 9 4 11 70 58 121 88 69 96 27 
107 9 42 103 9 50 66 80 104 100 2 
108 9 128 116 5 109 18 64 72 102 10 
109 9 18 72 108 128 116 3 87 64 5 
110 8 101 86 126 25 99 37 28 96 
111 9 26 120 119 78 35 62 17 32 51 
112 9 23 114 36 71 15 74 131 63 38 
113 9 90 20 8 32 17 35 10 79 65 
114 9 23 71 36 112 15 131 74 130 24 
115 6 76 132 117 33 22 45 
116 9 64 108 109 39 10 128 18 5 102 
117 9 33 89 115 22 45 57 76 97 24 
118 9 14 122 62 5 78 119 128 120 102 
119 9 78 120 62 26 111 14 122 102 35 
120 9 111 78 119 26 62 35 102 17 14 
121 9 70 4 106 88 98 69 11 58 27 
122 9 14 118 119 78 62 5 120 102 26 
123 9 63 38 41 74 30 130 131 23 112 
124 9 24 97 22 33 117 15 36 57 89 
125 9 29 19 84 85 52 77 34 43 59 
126 9 86 101 110 37 11 96 99 25 106 
127 8 54 53 46 21 49 92 94 39 
128 9 108 5 109 116 18 72 102 122 10 
129 7 98 121 70 4 106 11 126 
130 9 131 105 123 63 58 27 96 38 41 
131 9 130 71 23 114 112 16 63 123 105 
132 5 76 115 77 52 29 
DEPOT_SECTION
   1
   -1
EOF
