NAME :  X-n181-kX-w36-c9.cctp
COMMENT : 	Adapted by Maziero, Usberti and Cavellucci from the Uchoa, Pecin, Pessoa, Poggi, Subramanian, and Vidal (2013)
TYPE :  CCTP
DIMENSION :    167
EDGE_WEIGHT_TYPE : 	EUC_2D	
CAPACITY : 	8
VERTICES_WITHIN_COVERAGE :  9
VERTICES_WITH_DEMAND : 	36
NODE_COORD_SECTION
1 894 510
2 463 887
3 704 177
4 424 368
5 420 800
6 492 610
7 607 749
8 455 819
9 343 457
10 387 275
11 466 653
12 607 348
13 428 546
14 764 848
15 403 298
16 315 738
17 457 902
18 597 584
19 219 552
20 526 359
21 414 340
22 398 401
23 579 780
24 518 563
25 531 597
26 501 827
27 687 200
28 670 234
29 488 981
30 673 222
31 359 256
32 537 675
33 788 95
34 433 820
35 397 770
36 444 799
37 367 288
38 253 774
39 570 853
40 379 843
41 388 736
42 565 785
43 608 193
44 430 657
45 775 142
46 721 600
47 434 876
48 683 311
49 592 740
50 500 315
51 428 915
52 710 258
53 709 272
54 426 803
55 409 639
56 535 572
57 502 916
58 528 728
59 351 371
60 657 782
61 493 265
62 751 112
63 469 594
64 720 165
65 463 624
66 751 96
67 496 833
68 565 459
69 471 361
70 448 969
71 361 559
72 529 582
73 515 809
74 429 879
75 483 715
76 264 574
77 793 916
78 448 386
79 325 199
80 327 370
81 484 861
82 432 873
83 412 853
84 641 155
85 712 163
86 456 612
87 700 165
88 690 213
89 478 811
90 430 368
91 414 943
92 709 235
93 296 297
94 380 773
95 498 910
96 464 939
97 677 704
98 420 381
99 554 512
100 486 614
101 584 809
102 429 336
103 461 529
104 470 360
105 407 661
106 687 711
107 454 745
108 593 471
109 537 648
110 666 111
111 452 797
112 430 742
113 481 958
114 636 741
115 405 576
116 666 234
117 603 683
118 611 739
119 342 688
120 446 280
121 496 418
122 711 27
123 791 198
124 660 828
125 414 839
126 504 592
127 665 921
128 448 320
129 550 637
130 637 758
131 743 166
132 504 869
133 708 432
134 664 343
135 499 493
136 878 706
137 396 920
138 728 203
139 367 739
140 444 808
141 755 303
142 445 864
143 561 848
144 597 660
145 386 700
146 652 240
147 344 301
148 209 369
149 571 812
150 454 353
151 497 781
152 697 220
153 296 787
154 517 506
155 518 788
156 719 99
157 607 654
158 218 312
159 533 847
160 523 938
161 598 705
162 481 772
163 461 431
164 375 722
165 460 681
166 524 610
167 771 752
DEMAND_SECTION
2 1
3 1
4 1
5 1
6 1
7 1
8 1
9 1
10 1
11 1
12 1
13 1
14 1
15 1
16 1
17 1
18 1
19 1
20 1
21 1
22 1
23 1
24 1
25 1
26 1
27 1
28 1
29 1
30 1
31 1
32 1
33 1
34 1
35 1
36 1
37 1
COVERAGE_SECTION
2 9 17 142 47 81 82 74 95 51 132 
3 9 87 85 64 27 138 88 131 152 30 
4 9 90 98 21 78 102 150 22 104 69 
5 9 54 34 36 140 111 35 125 8 94 
6 9 100 126 63 65 166 86 25 72 11 
7 9 118 49 114 130 23 161 42 60 101 
8 9 140 34 111 36 89 54 5 67 125 
9 8 22 59 80 71 98 4 163 13 
10 9 37 15 31 147 120 21 102 128 93 
11 9 65 165 44 86 100 6 55 63 105 
12 9 134 20 48 50 146 68 108 53 116 
13 9 103 115 63 71 86 65 100 126 135 
14 9 77 167 124 127 60 130 106 114 97 
15 9 10 37 21 102 120 128 147 31 4 
16 9 139 153 119 164 38 41 94 145 35 
17 9 2 51 47 74 82 96 142 95 57 
18 9 56 25 72 129 157 144 166 24 99 
19 9 76 71 9 119 148 115 13 16 55 
20 7 50 69 104 121 150 12 78 
21 9 102 4 90 128 98 150 15 78 104 
22 8 98 4 90 78 59 21 163 102 
23 9 42 101 149 7 49 118 130 155 114 
24 9 56 72 126 25 166 6 154 63 100 
25 9 72 166 56 126 24 6 129 100 109 
26 9 67 73 89 81 159 132 155 151 8 
27 9 88 152 30 3 87 28 116 92 138 
28 9 116 30 146 88 152 27 92 52 53 
29 9 113 70 96 160 57 95 91 17 51 
30 9 28 116 88 152 27 146 92 52 3 
31 9 37 10 147 15 79 93 120 21 102 
32 9 109 129 58 144 117 166 75 161 157 
33 9 66 62 45 156 131 64 85 122 123 
34 9 140 54 8 5 36 125 111 83 89 
35 9 94 41 5 112 139 54 164 36 140 
36 9 111 140 54 8 5 34 89 162 125 
37 9 10 147 31 15 21 93 102 120 59 
38 8 153 16 139 119 94 164 41 35 
39 8 143 159 149 101 42 132 73 23 
40 5 83 125 5 34 82 
41 9 164 139 35 145 94 112 119 107 5 
42 9 23 149 101 155 49 7 73 143 118 
43 9 84 146 30 116 28 27 88 152 87 
44 9 105 55 11 165 65 86 145 100 63 
45 9 62 131 33 66 123 64 85 156 138 
46 8 97 106 18 157 144 117 167 161 
47 7 82 74 142 2 83 17 51 
48 9 134 53 52 141 146 28 116 92 12 
49 9 7 118 161 23 114 130 42 117 58 
50 8 61 20 128 69 104 150 120 102 
51 8 91 17 137 74 47 82 96 2 
52 9 53 92 152 28 88 116 30 138 48 
53 9 52 92 48 152 28 141 116 30 88 
54 9 5 34 36 140 111 8 125 35 83 
55 9 105 44 86 65 11 115 145 165 63 
56 9 72 24 25 126 166 6 18 99 100 
57 9 95 160 96 17 113 132 2 81 29 
58 8 75 32 151 155 162 49 42 23 
59 9 80 22 21 98 147 4 90 37 102 
60 9 130 114 124 7 118 49 106 23 101 
61 9 120 50 128 15 102 150 69 104 20 
62 9 66 156 45 33 131 64 85 87 3 
63 9 86 100 6 65 126 166 24 11 72 
64 9 85 3 87 131 138 27 88 45 152 
65 9 86 100 11 63 6 44 126 55 165 
66 9 62 156 33 45 131 64 85 122 87 
67 9 26 89 81 73 132 159 8 155 151 
68 6 108 99 154 135 121 20 
69 8 104 150 78 90 128 4 102 50 
70 9 96 113 29 91 51 17 137 57 95 
71 9 115 13 55 76 9 103 86 105 63 
72 9 56 25 24 126 166 6 100 129 63 
73 8 155 26 67 151 89 159 162 42 
74 7 47 82 142 83 2 17 51 
75 8 165 107 58 162 112 11 32 151 
76 9 19 71 119 9 115 55 13 105 16 
77 8 14 127 124 167 60 130 136 106 
78 7 90 98 4 69 104 150 163 
79 9 31 10 37 93 147 15 120 158 21 
80 9 59 147 22 93 9 37 21 98 4 
81 9 132 67 2 26 142 17 89 8 95 
82 7 47 74 142 83 2 17 125 
83 7 125 82 74 47 40 142 34 
84 9 43 110 87 27 3 85 30 88 64 
85 9 64 87 3 131 138 27 88 152 62 
86 9 65 63 100 6 11 44 126 55 115 
87 9 85 3 64 27 131 138 88 152 84 
88 9 152 27 30 28 92 116 3 138 146 
89 9 8 26 67 111 140 36 151 73 162 
90 9 4 98 78 150 21 102 104 69 22 
91 8 137 51 70 96 17 74 113 47 
92 9 152 52 88 53 138 30 28 27 116 
93 9 147 37 31 80 158 59 10 79 15 
94 9 35 139 41 5 164 54 112 36 40 
95 9 57 160 132 2 17 96 81 113 51 
96 9 113 70 17 51 57 95 29 91 2 
97 8 106 114 130 118 117 161 60 7 
98 9 4 90 78 22 21 150 102 104 69 
99 9 154 68 108 135 24 56 72 18 25 
100 9 6 65 63 126 86 166 11 25 72 
101 9 149 23 42 143 39 7 159 49 73 
102 9 21 128 150 4 90 15 98 104 69 
103 8 13 135 154 63 24 115 126 86 
104 8 69 150 78 90 128 4 102 50 
105 9 55 44 145 165 11 65 86 164 119 
106 8 97 114 130 60 118 7 117 161 
107 8 112 162 75 111 36 151 35 54 
108 8 68 99 154 135 121 18 56 24 
109 9 129 32 166 25 6 100 144 126 72 
110 8 84 156 87 85 3 64 62 66 
111 9 36 140 8 54 34 89 5 162 151 
112 9 107 41 35 5 36 75 94 111 162 
113 9 29 96 70 57 160 95 17 51 91 
114 9 130 118 7 49 60 161 97 106 117 
115 9 13 71 86 55 63 103 65 44 105 
116 9 28 30 146 88 152 27 92 52 53 
117 9 161 144 157 118 49 7 32 114 129 
118 9 7 49 114 130 161 23 117 60 42 
119 9 145 164 16 139 41 105 55 44 94 
120 9 128 15 61 10 102 50 21 150 37 
121 5 163 78 69 104 20 
122 8 156 66 62 110 33 45 85 64 
123 9 45 131 138 64 85 3 92 62 87 
124 9 60 130 101 114 149 39 127 23 7 
125 8 83 34 40 54 82 5 142 47 
126 9 6 25 72 166 100 24 63 56 65 
127 8 124 39 14 143 77 101 60 160 
128 9 102 150 21 120 104 69 15 90 50 
129 9 109 166 32 25 144 72 157 6 126 
130 9 114 7 60 118 49 23 161 97 106 
131 9 64 85 45 138 3 87 62 123 27 
132 9 81 159 67 95 26 2 57 17 142 
133 9 134 108 48 12 141 68 53 46 52 
134 9 48 12 53 52 133 141 146 28 116 
135 7 154 103 99 24 163 68 121 
136 8 167 14 46 106 97 77 60 114 
137 6 91 51 74 47 82 17 
138 9 3 152 92 64 88 131 27 85 87 
139 9 164 41 94 35 145 16 119 112 5 
140 9 36 111 8 34 54 5 89 125 162 
141 9 53 52 48 92 134 152 138 28 88 
142 9 47 82 74 2 83 81 17 125 8 
143 8 39 159 149 101 73 132 42 26 
144 9 157 117 161 129 109 32 18 49 118 
145 9 164 41 139 105 119 112 44 55 35 
146 9 116 28 30 88 152 27 92 52 43 
147 9 37 31 93 10 15 59 80 21 102 
148 9 158 93 80 59 147 9 37 19 31 
149 9 101 42 23 143 39 159 73 155 26 
150 9 104 69 90 102 4 78 128 21 98 
151 8 162 155 73 89 26 111 67 36 
152 9 88 92 27 30 28 116 138 52 3 
153 8 38 16 94 139 40 35 164 41 
154 7 135 99 24 103 68 56 72 
155 8 73 151 162 26 89 42 67 149 
156 8 66 62 110 85 64 33 87 45 
157 9 144 117 161 129 109 18 32 118 97 
158 9 148 93 80 147 59 37 31 79 10 
159 9 143 132 39 26 67 73 81 149 155 
160 8 57 95 113 29 96 132 17 2 
161 9 117 49 118 7 144 114 157 130 32 
162 8 151 107 111 89 155 36 73 140 
163 5 121 78 98 22 90 
164 9 41 139 145 119 94 35 112 16 105 
165 9 11 44 75 65 105 107 55 112 86 
166 9 25 126 72 6 129 100 56 109 24 
167 8 106 14 97 136 60 130 114 124 
DEPOT_SECTION
   1
   -1
EOF
