NAME :  X-n181-kX-w18-c9.cctp
COMMENT : 	Adapted by Maziero, Usberti and Cavellucci from the Uchoa, Pecin, Pessoa, Poggi, Subramanian, and Vidal (2013)
TYPE :  CCTP
DIMENSION :    135
EDGE_WEIGHT_TYPE : 	EUC_2D	
CAPACITY : 	8
VERTICES_WITHIN_COVERAGE :  9
VERTICES_WITH_DEMAND : 	18
NODE_COORD_SECTION
1 894 510
2 463 887
3 704 177
4 424 368
5 420 800
6 492 610
7 607 749
8 455 819
9 343 457
10 387 275
11 466 653
12 607 348
13 428 546
14 764 848
15 403 298
16 315 738
17 457 902
18 597 584
19 219 552
20 526 359
21 414 340
22 398 401
23 579 780
24 518 563
25 531 597
26 501 827
27 687 200
28 488 981
29 673 222
30 359 256
31 433 820
32 397 770
33 444 799
34 367 288
35 253 774
36 379 843
37 388 736
38 565 785
39 430 657
40 721 600
41 434 876
42 683 311
43 592 740
44 428 915
45 426 803
46 409 639
47 535 572
48 502 916
49 351 371
50 657 782
51 493 265
52 751 112
53 469 594
54 720 165
55 463 624
56 496 833
57 471 361
58 448 969
59 361 559
60 529 582
61 429 879
62 483 715
63 264 574
64 793 916
65 448 386
66 325 199
67 327 370
68 484 861
69 432 873
70 641 155
71 712 163
72 456 612
73 700 165
74 690 213
75 478 811
76 430 368
77 414 943
78 296 297
79 380 773
80 498 910
81 464 939
82 677 704
83 420 381
84 554 512
85 486 614
86 584 809
87 429 336
88 461 529
89 470 360
90 407 661
91 687 711
92 593 471
93 537 648
94 666 111
95 452 797
96 430 742
97 481 958
98 636 741
99 405 576
100 603 683
101 611 739
102 342 688
103 446 280
104 791 198
105 660 828
106 414 839
107 504 592
108 665 921
109 448 320
110 550 637
111 637 758
112 743 166
113 504 869
114 708 432
115 664 343
116 878 706
117 396 920
118 728 203
119 367 739
120 444 808
121 445 864
122 597 660
123 344 301
124 209 369
125 454 353
126 697 220
127 296 787
128 607 654
129 218 312
130 523 938
131 598 705
132 375 722
133 460 681
134 524 610
135 771 752
DEMAND_SECTION
2 1
3 1
4 1
5 1
6 1
7 1
8 1
9 1
10 1
11 1
12 1
13 1
14 1
15 1
16 1
17 1
18 1
19 1
COVERAGE_SECTION
2 9 17 121 41 68 69 61 80 44 113 
3 9 73 71 54 27 118 74 112 126 29 
4 9 76 83 21 65 87 125 22 89 57 
5 9 45 31 33 120 95 32 106 8 79 
6 9 85 107 53 55 134 72 25 60 11 
7 9 101 43 98 111 23 131 38 50 86 
8 9 120 31 95 33 75 45 5 56 106 
9 7 22 49 67 59 83 4 13 
10 9 34 15 30 123 103 21 87 109 78 
11 9 55 133 39 72 85 6 46 53 90 
12 4 115 20 42 92 
13 8 88 99 53 59 72 55 85 107 
14 9 64 135 105 108 50 111 91 98 82 
15 9 10 34 21 87 103 109 123 30 4 
16 8 119 127 102 132 35 37 79 32 
17 9 2 44 41 61 69 81 121 80 48 
18 9 47 25 60 110 128 122 134 24 84 
19 9 63 59 9 102 124 99 13 16 46 
20 5 57 89 125 12 65 
21 9 87 4 76 109 83 125 15 65 89 
22 7 83 4 76 65 49 21 87 
23 7 38 86 7 43 101 111 98 
24 8 47 60 107 25 134 6 53 85 
25 9 60 134 47 107 24 6 110 85 93 
26 5 56 75 68 113 8 
27 6 74 126 29 3 73 118 
28 9 97 58 81 130 48 80 77 17 44 
29 4 74 126 27 3 
30 9 34 10 123 15 66 78 103 21 87 
31 8 120 45 8 5 33 106 95 75 
32 9 79 37 5 96 119 45 132 33 120 
33 8 95 120 45 8 5 31 75 106 
34 9 10 123 30 15 21 78 87 103 49 
35 8 127 16 119 102 79 132 37 32 
36 4 106 5 31 69 
37 7 132 119 32 79 96 102 5 
38 5 23 86 43 7 101 
39 8 90 46 11 133 55 72 85 53 
40 8 82 91 18 128 122 100 135 131 
41 6 69 61 121 2 17 44 
42 2 115 12 
43 8 7 101 131 23 98 111 38 100 
44 8 77 17 117 61 41 69 81 2 
45 8 5 31 33 120 95 8 106 32 
46 8 90 39 72 55 11 99 133 53 
47 9 60 24 25 107 134 6 18 84 85 
48 9 80 130 81 17 97 113 2 68 28 
49 9 67 22 21 83 123 4 76 34 87 
50 9 111 98 105 7 101 43 91 23 86 
51 8 103 109 15 87 125 57 89 20 
52 5 112 54 71 73 3 
53 9 72 85 6 55 107 134 24 11 60 
54 8 71 3 73 112 118 27 74 126 
55 9 72 85 11 53 6 39 107 46 133 
56 5 26 75 68 113 8 
57 7 89 125 65 76 109 4 87 
58 9 81 97 28 77 44 17 117 48 80 
59 9 99 13 46 63 9 88 72 90 53 
60 9 47 25 24 107 134 6 85 110 53 
61 6 41 69 121 2 17 44 
62 3 133 96 11 
63 9 19 59 102 9 99 46 13 90 16 
64 8 14 108 105 135 50 111 116 91 
65 6 76 83 4 57 89 125 
66 9 30 10 34 78 123 15 103 129 21 
67 9 49 123 22 78 9 34 21 83 4 
68 9 113 56 2 26 121 17 75 8 80 
69 6 41 61 121 2 17 106 
70 8 94 73 27 3 71 29 74 54 
71 9 54 73 3 112 118 27 74 126 52 
72 9 55 53 85 6 11 39 107 46 99 
73 9 71 3 54 27 112 118 74 126 70 
74 5 126 27 29 3 118 
75 6 8 26 56 95 120 33 
76 9 4 83 65 125 21 87 89 57 22 
77 8 117 44 58 81 17 61 97 41 
78 9 123 34 30 67 129 49 10 66 15 
79 9 32 119 37 5 132 45 96 33 36 
80 9 48 130 113 2 17 81 68 97 44 
81 9 97 58 17 44 48 80 28 77 2 
82 8 91 98 111 101 100 131 50 7 
83 9 4 76 65 22 21 125 87 89 57 
84 6 92 24 47 60 18 25 
85 9 6 55 53 107 72 134 11 25 60 
86 4 23 38 7 43 
87 9 21 109 125 4 76 15 83 89 57 
88 6 13 53 24 99 107 72 
89 7 57 125 65 76 109 4 87 
90 8 46 39 133 11 55 72 132 102 
91 8 82 98 111 50 101 7 100 131 
92 4 84 18 47 24 
93 8 110 134 25 6 85 122 107 60 
94 6 70 73 71 3 54 52 
95 7 33 120 8 45 31 75 5 
96 7 37 32 5 33 62 79 95 
97 9 28 81 58 48 130 80 17 44 77 
98 9 111 101 7 43 50 131 82 91 100 
99 9 13 59 72 46 53 88 55 39 90 
100 8 131 122 128 101 43 7 98 110 
101 9 7 43 98 111 131 23 100 50 38 
102 8 132 16 119 37 90 46 39 79 
103 8 109 15 51 10 87 21 125 34 
104 7 112 118 54 71 3 52 73 
105 7 50 111 86 98 108 23 7 
106 7 31 36 45 69 5 121 41 
107 9 6 25 60 134 85 24 53 47 55 
108 6 105 14 64 86 50 130 
109 8 87 125 21 103 89 57 15 76 
110 8 93 134 25 122 60 128 6 107 
111 9 98 7 50 101 43 23 131 82 91 
112 8 54 71 118 3 73 52 104 27 
113 8 68 56 80 26 2 48 17 121 
114 5 115 92 42 12 40 
115 3 42 12 114 
116 8 135 14 40 91 82 64 50 98 
117 6 77 44 61 41 69 17 
118 8 3 126 54 74 112 27 71 73 
119 8 132 37 79 32 16 102 96 5 
120 8 33 95 8 31 45 5 75 106 
121 8 41 69 61 2 68 17 106 8 
122 8 128 100 131 110 93 18 43 101 
123 9 34 30 78 10 15 49 67 21 87 
124 9 129 78 67 49 123 9 34 19 30 
125 9 89 57 76 87 4 65 109 21 83 
126 5 74 27 29 118 3 
127 8 35 16 79 119 36 32 132 37 
128 8 122 100 131 110 93 18 101 82 
129 9 124 78 67 123 49 34 30 66 10 
130 8 48 80 97 28 81 113 17 2 
131 8 100 43 101 7 122 98 128 111 
132 8 37 119 102 79 32 96 16 90 
133 8 11 39 62 55 90 46 96 72 
134 9 25 107 60 6 110 85 47 93 24 
135 8 91 14 82 116 50 111 98 105 
DEPOT_SECTION
   1
   -1
EOF
