NAME :  X-n110-kX-w21-c7.cctp
COMMENT : 	Adapted by Maziero, Usberti and Cavellucci from the Uchoa, Pecin, Pessoa, Poggi, Subramanian, and Vidal (2013)
TYPE :  CCTP
DIMENSION :    96
EDGE_WEIGHT_TYPE : 	EUC_2D	
CAPACITY : 	66
VERTICES_WITHIN_COVERAGE :  7
VERTICES_WITH_DEMAND : 	21
NODE_COORD_SECTION
1 500 500
2 740 442
3 261 710
4 578 522
5 482 914
6 628 644
7 551 651
8 828 54
9 541 270
10 450 1000
11 521 127
12 738 809
13 323 289
14 803 214
15 556 488
16 758 937
17 875 326
18 113 509
19 491 726
20 415 355
21 946 632
22 136 120
23 817 246
24 491 845
25 454 801
26 676 995
27 145 557
28 166 494
29 977 318
30 363 711
31 164 501
32 833 501
33 444 958
34 828 672
35 714 57
36 922 16
37 673 571
38 211 471
39 590 220
40 305 311
41 953 745
42 154 753
43 918 227
44 819 671
45 675 667
46 617 176
47 706 179
48 512 443
49 753 786
50 331 450
51 765 990
52 249 360
53 786 186
54 382 284
55 44 552
56 523 264
57 397 120
58 98 623
59 946 978
60 314 361
61 447 695
62 878 243
63 341 648
64 363 0
65 998 520
66 98 111
67 628 746
68 940 409
69 786 488
70 323 674
71 986 151
72 790 150
73 533 816
74 750 789
75 589 125
76 640 911
77 99 216
78 754 659
79 828 357
80 597 587
81 929 655
82 159 781
83 955 6
84 63 435
85 130 302
86 954 687
87 866 879
88 131 686
89 519 220
90 454 928
91 415 916
92 468 833
93 907 703
94 821 135
95 622 561
96 482 689
DEMAND_SECTION
2 8
3 10
4 8
5 5
6 10
7 5
8 9
9 10
10 6
11 5
12 10
13 5
14 9
15 10
16 7
17 9
18 7
19 8
20 5
21 8
22 10
COVERAGE_SECTION
2 6 69 32 79 37 95 17 
3 6 70 63 30 42 82 88 
4 7 15 95 80 48 37 6 7 
5 7 90 33 91 24 92 10 73 
6 7 45 80 7 95 37 67 78 
7 7 6 80 96 19 61 95 67 
8 6 94 36 72 35 83 53 
9 7 56 89 39 46 11 20 75 
10 6 33 90 91 5 24 92 
11 7 75 89 46 39 57 56 9 
12 6 74 49 67 16 76 87 
13 6 40 54 60 52 20 50 
14 7 53 23 72 62 94 47 43 
15 7 4 48 95 80 37 7 6 
16 7 51 26 76 87 12 74 49 
17 7 79 62 23 29 68 43 14 
18 7 31 28 27 55 84 38 58 
19 7 96 61 25 7 73 92 24 
20 7 54 60 13 40 50 48 56 
21 7 81 86 93 41 65 34 44 
22 7 66 77 85 13 40 64 57 
23 7 14 62 53 17 72 43 94 
24 7 92 73 25 5 90 91 19 
25 6 92 24 73 19 61 96 
26 7 51 76 16 12 5 74 49 
27 7 18 31 28 58 55 38 88 
28 6 31 38 18 27 84 55 
29 7 68 17 43 62 79 71 23 
30 6 70 63 61 3 96 25 
31 7 28 18 38 27 84 55 58 
32 6 69 2 68 79 65 34 
33 7 90 10 91 5 24 92 25 
34 5 44 78 93 81 21 
35 6 8 72 47 94 75 53 
36 7 83 8 71 94 72 43 35 
37 6 95 80 6 45 4 78 
38 6 28 31 18 27 52 50 
39 7 46 9 89 56 75 11 47 
40 6 13 60 52 54 20 50 
41 6 86 93 81 21 34 44 
42 4 82 88 3 58 
43 7 62 71 23 17 29 14 94 
44 5 34 78 93 81 21 
45 7 6 78 67 37 80 95 7 
46 6 39 75 47 89 11 9 
47 6 53 46 72 14 35 39 
48 7 15 4 20 95 80 9 56 
49 6 74 12 78 67 44 34 
50 6 60 38 52 20 40 13 
51 7 16 26 76 87 59 12 74 
52 6 60 40 13 38 50 85 
53 7 14 72 94 23 47 62 43 
54 7 13 20 40 60 56 89 52 
55 6 18 58 27 84 31 28 
56 7 9 89 39 46 11 20 54 
57 7 11 64 89 54 13 56 75 
58 6 88 27 55 18 31 42 
59 7 87 51 16 41 12 26 49 
60 6 40 52 13 50 20 54 
61 7 96 19 30 25 7 63 70 
62 7 43 23 14 17 53 94 29 
63 6 70 30 3 61 96 19 
64 7 57 11 22 75 89 54 66 
65 6 21 68 81 32 86 29 
66 7 22 77 85 13 64 40 52 
67 7 45 6 73 7 12 74 49 
68 7 29 17 79 65 32 69 62 
69 6 32 2 79 37 68 78 
70 6 63 30 3 61 96 19 
71 7 43 62 83 36 94 29 8 
72 7 94 53 14 47 23 8 35 
73 7 24 92 25 19 5 67 90 
74 6 49 12 67 78 44 34 
75 6 46 11 39 89 47 35 
76 7 26 16 12 73 51 5 24 
77 7 85 22 66 52 84 40 13 
78 5 44 34 45 37 6 
79 7 17 23 2 68 62 69 32 
80 7 95 6 4 37 7 15 45 
81 6 21 86 93 41 34 44 
82 3 42 88 3 
83 7 36 8 71 94 72 43 35 
84 7 18 28 55 31 27 85 38 
85 7 77 52 84 40 22 38 13 
86 6 81 93 21 41 34 44 
87 7 16 59 12 49 74 51 41 
88 5 42 58 82 27 3 
89 7 56 9 39 11 46 75 54 
90 7 5 33 91 10 24 92 25 
91 6 90 33 5 10 92 24 
92 6 24 25 73 5 90 91 
93 6 86 81 41 21 34 44 
94 7 72 53 8 14 23 62 47 
95 7 80 37 4 6 15 7 45 
96 7 61 19 7 25 30 73 92 
DEPOT_SECTION
   1
   -1
EOF
