NAME :  X-n195-kX-w38-c9.cctp
COMMENT : 	Adapted by Maziero, Usberti and Cavellucci from the Uchoa, Pecin, Pessoa, Poggi, Subramanian, and Vidal (2013)
TYPE :  CCTP
DIMENSION :    147
EDGE_WEIGHT_TYPE : 	EUC_2D	
CAPACITY : 	181
VERTICES_WITHIN_COVERAGE :  9
VERTICES_WITH_DEMAND : 	38
NODE_COORD_SECTION
1 500 500
2 691 729
3 978 828
4 427 367
5 777 543
6 190 596
7 773 750
8 234 727
9 851 358
10 140 69
11 891 285
12 467 13
13 537 162
14 636 355
15 213 284
16 75 877
17 384 814
18 606 173
19 76 236
20 86 733
21 642 61
22 303 261
23 771 775
24 107 264
25 763 43
26 811 873
27 38 170
28 822 920
29 907 792
30 539 273
31 576 836
32 491 411
33 430 725
34 727 248
35 532 825
36 457 218
37 398 153
38 942 597
39 8 330
40 637 85
41 75 781
42 560 188
43 27 523
44 432 198
45 695 372
46 203 307
47 641 389
48 836 612
49 375 499
50 818 980
51 577 226
52 889 259
53 516 324
54 102 346
55 318 976
56 223 11
57 484 245
58 365 982
59 648 790
60 878 261
61 600 800
62 493 722
63 549 214
64 714 918
65 638 166
66 452 172
67 711 687
68 924 905
69 786 203
70 24 32
71 529 661
72 843 248
73 115 449
74 82 971
75 876 644
76 322 24
77 642 810
78 685 607
79 141 824
80 641 954
81 330 941
82 830 188
83 469 250
84 970 812
85 723 360
86 274 238
87 668 103
88 269 147
89 135 493
90 930 729
91 579 972
92 388 767
93 517 382
94 537 160
95 457 1
96 295 704
97 802 446
98 785 358
99 592 694
100 607 347
101 690 10
102 843 955
103 767 401
104 854 524
105 325 778
106 465 885
107 415 721
108 394 769
109 496 700
110 888 436
111 980 290
112 444 754
113 583 835
114 435 761
115 887 925
116 710 300
117 253 971
118 372 794
119 438 871
120 758 513
121 728 143
122 852 970
123 458 787
124 635 24
125 752 463
126 524 482
127 550 133
128 625 799
129 660 428
130 575 120
131 433 847
132 516 12
133 766 270
134 265 183
135 464 642
136 919 380
137 699 633
138 773 599
139 492 754
140 231 773
141 250 657
142 275 755
143 381 870
144 654 377
145 365 726
146 490 876
147 211 808
DEMAND_SECTION
2 79
3 84
4 100
5 23
6 32
7 90
8 8
9 50
10 29
11 96
12 26
13 17
14 92
15 41
16 16
17 95
18 41
19 69
20 30
21 83
22 11
23 84
24 38
25 29
26 88
27 33
28 77
29 76
30 74
31 16
32 31
33 33
34 76
35 16
36 28
37 67
38 22
39 61
COVERAGE_SECTION
2 9 67 59 7 23 77 128 137 99 61 
3 5 84 29 68 90 115 
4 9 32 93 53 83 57 49 30 126 36 
5 7 120 138 104 125 48 97 78 
6 6 141 89 8 96 73 20 
7 9 23 2 67 26 59 137 29 77 75 
8 6 140 142 96 141 147 105 
9 8 98 136 11 110 103 60 97 52 
10 9 56 70 27 88 134 19 76 24 86 
11 8 52 60 72 9 111 136 82 133 
12 2 95 132 
13 5 94 127 42 63 130 
14 7 144 100 47 45 129 85 116 
15 9 46 86 22 24 134 54 19 88 73 
16 9 79 74 41 20 147 140 117 8 142 
17 8 118 108 92 143 131 105 114 119 
18 8 65 42 51 130 127 13 63 94 
19 9 24 27 54 39 15 46 10 134 86 
20 9 41 79 16 147 8 140 6 141 142 
21 5 40 124 87 101 130 
22 9 86 134 15 46 88 37 44 36 4 
23 9 7 2 26 67 59 77 29 128 28 
24 9 19 54 46 15 27 39 86 134 73 
25 9 101 121 87 21 124 40 82 69 65 
26 8 28 102 115 122 23 50 64 68 
27 9 19 24 70 10 39 54 15 46 134 
28 6 102 26 122 50 115 68 
29 8 84 90 3 68 26 115 23 7 
30 9 53 51 63 57 83 42 36 100 13 
31 9 113 61 35 128 77 59 146 139 106 
32 7 93 4 126 53 100 30 49 
33 9 107 112 114 108 92 62 145 123 139 
34 9 133 116 69 121 85 72 82 65 98 
35 9 31 113 146 61 139 123 106 128 131 
36 9 44 83 57 66 37 63 13 30 94 
37 8 44 66 36 83 57 88 134 13 
38 4 75 48 104 90 
39 9 54 19 24 73 27 43 46 89 15 
40 5 21 87 124 130 65 
41 9 20 79 16 147 140 8 74 142 141 
42 8 63 13 94 51 18 127 130 65 
43 9 89 73 6 54 39 20 141 41 24 
44 9 36 66 37 83 57 13 94 63 42 
45 8 85 144 47 14 129 116 103 98 
46 9 15 86 24 54 22 134 19 73 88 
47 6 144 14 129 100 45 85 
48 9 75 138 104 5 38 120 137 67 90 
49 5 4 32 126 135 93 
50 5 102 122 28 115 26 
51 9 63 42 18 30 13 94 65 57 127 
52 9 60 11 72 82 111 9 69 133 136 
53 9 30 93 57 83 32 100 4 51 63 
54 9 24 39 73 46 19 15 89 27 43 
55 9 81 58 117 143 119 106 131 17 118 
56 9 76 10 88 134 70 37 86 95 12 
57 9 83 36 30 44 63 66 53 42 51 
58 9 55 81 117 143 119 106 131 146 17 
59 9 77 128 61 2 113 31 99 35 67 
60 9 52 11 72 82 9 111 69 133 136 
61 9 128 113 31 77 59 35 99 2 139 
62 9 109 139 112 33 114 71 123 107 135 
63 9 42 51 13 94 30 18 57 127 83 
64 9 80 26 28 50 77 102 59 91 122 
65 8 18 87 130 40 42 51 121 127 
66 8 44 36 37 57 83 13 94 127 
67 9 2 137 78 7 23 138 99 59 77 
68 2 115 3 
69 9 82 133 72 34 121 60 52 116 11 
70 9 10 27 56 19 24 88 134 39 76 
71 8 109 135 62 99 139 33 112 107 
72 9 60 52 11 82 69 133 9 34 98 
73 9 89 54 43 39 6 46 24 15 19 
74 9 16 79 117 41 147 55 20 140 81 
75 9 48 38 90 138 104 5 7 29 23 
76 9 56 88 95 12 37 134 10 132 66 
77 9 128 59 61 113 31 2 35 99 64 
78 4 137 67 138 5 
79 9 147 41 16 140 20 8 142 74 117 
80 9 91 64 113 31 77 128 61 59 35 
81 9 55 58 117 143 119 17 131 106 118 
82 9 69 72 60 52 133 121 11 34 25 
83 9 57 36 44 30 66 53 63 42 13 
84 5 3 29 90 68 115 
85 8 45 103 116 98 144 14 47 129 
86 9 22 134 15 88 46 37 44 24 36 
87 8 40 21 65 121 124 18 130 101 
88 9 134 86 22 37 76 56 15 10 44 
89 9 73 43 6 54 46 141 39 15 24 
90 9 29 84 75 3 38 48 7 23 68 
91 9 80 146 31 113 106 64 35 61 119 
92 7 108 118 17 114 145 107 112 
93 7 32 53 4 100 126 30 14 
94 5 13 127 42 63 130 
95 2 12 132 
96 4 142 8 141 145 
97 8 125 103 120 110 98 104 5 9 
98 8 103 85 9 97 133 45 116 125 
99 8 71 109 62 2 61 128 59 139 
100 8 14 47 144 45 53 93 129 30 
101 6 124 21 25 40 87 121 
102 5 122 50 28 115 26 
103 7 98 97 85 125 45 9 129 
104 8 5 48 97 110 120 138 38 125 
105 7 118 142 92 145 17 108 96 
106 9 146 119 131 143 35 123 17 31 113 
107 6 33 112 114 145 108 92 
108 8 92 118 114 17 107 112 145 33 
109 9 62 71 139 135 33 112 107 114 123 
110 4 136 9 97 104 
111 5 11 52 60 136 72 
112 9 114 33 123 107 139 108 92 62 109 
113 9 31 61 35 128 77 59 146 139 106 
114 9 112 123 33 108 107 92 139 62 118 
115 4 68 102 122 28 
116 9 34 85 133 45 14 98 144 47 100 
117 9 55 81 58 143 147 74 79 140 16 
118 7 17 92 108 105 145 114 143 
119 9 131 106 146 143 17 123 118 35 114 
120 5 5 125 97 138 104 
121 9 87 69 65 34 25 40 82 21 18 
122 4 102 50 115 28 
123 9 114 112 139 131 108 33 92 62 17 
124 4 21 101 40 87 
125 5 120 97 103 5 129 
126 2 32 93 
127 3 130 94 13 
128 9 77 59 61 113 31 2 35 99 139 
129 4 47 144 45 14 
130 3 127 94 13 
131 9 119 106 143 17 146 123 118 114 108 
132 2 12 95 
133 9 34 116 69 72 98 85 82 60 9 
134 9 88 86 22 15 37 46 44 10 76 
135 7 109 71 62 33 107 112 139 
136 3 110 9 11 
137 6 78 67 138 2 5 99 
138 9 5 48 137 120 78 67 104 75 125 
139 9 62 123 112 109 114 33 35 107 108 
140 7 147 8 142 96 105 79 141 
141 4 96 8 6 142 
142 6 140 8 96 105 147 145 
143 9 17 119 131 118 106 81 108 92 105 
144 6 47 14 45 129 100 85 
145 5 92 107 108 33 105 
146 9 106 119 131 35 31 123 113 143 139 
147 9 140 79 142 8 105 96 41 20 16 
DEPOT_SECTION
   1
   -1
EOF
