NAME :  X-n110-kX-w10-c11.cctp
COMMENT : 	Adapted by Maziero, Usberti and Cavellucci from the Uchoa, Pecin, Pessoa, Poggi, Subramanian, and Vidal (2013)
TYPE :  CCTP
DIMENSION :    70
EDGE_WEIGHT_TYPE : 	EUC_2D	
CAPACITY : 	66
VERTICES_WITHIN_COVERAGE :  11
VERTICES_WITH_DEMAND : 	10
NODE_COORD_SECTION
1 500 500
2 740 442
3 261 710
4 578 522
5 482 914
6 628 644
7 551 651
8 828 54
9 541 270
10 450 1000
11 521 127
12 803 214
13 556 488
14 875 326
15 491 726
16 415 355
17 117 971
18 817 246
19 491 845
20 454 801
21 676 995
22 145 557
23 363 711
24 833 501
25 444 958
26 714 57
27 51 676
28 922 16
29 673 571
30 590 220
31 154 753
32 675 667
33 617 176
34 706 179
35 512 443
36 765 990
37 292 887
38 371 804
39 786 186
40 382 284
41 523 264
42 397 120
43 98 623
44 447 695
45 341 648
46 363 0
47 675 83
48 628 746
49 940 409
50 786 488
51 323 674
52 986 151
53 790 150
54 533 816
55 589 125
56 640 911
57 754 659
58 828 357
59 597 587
60 159 781
61 955 6
62 131 686
63 519 220
64 454 928
65 415 916
66 468 833
67 806 568
68 821 135
69 622 561
70 482 689
DEMAND_SECTION
2 8
3 10
4 8
5 5
6 10
7 5
8 9
9 10
10 6
11 5
COVERAGE_SECTION
2 11 50 24 58 67 29 69 14 4 13 49 59 
3 11 51 45 23 31 60 62 38 37 43 44 22 
4 11 13 69 59 35 29 6 7 32 2 70 50 
5 11 64 25 65 19 66 10 54 20 38 56 15 
6 11 32 59 7 69 29 48 57 4 70 15 13 
7 11 6 59 70 15 44 69 48 32 4 29 13 
8 11 68 28 53 26 61 39 47 12 34 52 18 
9 11 41 63 30 33 11 16 55 40 35 34 42 
10 10 25 64 65 5 19 66 37 20 54 56 
11 11 55 63 33 30 42 41 9 47 34 46 26 
12 9 39 18 53 68 34 14 58 8 26 
13 11 4 35 69 59 29 7 6 2 16 70 32 
14 8 58 18 49 12 39 2 24 50 
15 11 70 44 20 7 54 66 19 23 48 38 6 
16 5 40 35 41 9 63 
17 5 37 60 31 62 3 
18 8 12 39 14 53 68 58 34 8 
19 11 66 54 20 5 64 65 15 25 38 44 70 
20 11 66 19 54 38 15 44 70 5 65 64 23 
21 6 36 56 5 10 54 64 
22 4 43 62 27 3 
23 11 51 45 44 38 3 70 20 15 66 19 37 
24 7 50 67 2 49 58 29 57 
25 10 64 10 65 5 19 66 20 37 54 38 
26 11 47 8 53 34 68 55 39 33 12 11 30 
27 6 43 62 31 60 22 3 
28 9 61 8 52 68 53 26 39 12 18 
29 11 69 59 6 32 4 57 67 50 13 2 7 
30 11 33 9 63 41 55 11 34 47 39 26 53 
31 6 60 62 3 27 43 51 
32 7 6 57 48 29 59 69 7 
33 11 30 55 34 63 11 47 9 41 26 39 53 
34 11 39 33 53 47 12 26 30 68 55 18 8 
35 9 13 4 16 69 59 9 41 40 29 
36 5 21 56 48 54 5 
37 8 38 65 64 25 60 3 20 66 
38 10 20 23 66 37 65 19 44 51 15 3 
39 9 12 53 68 18 34 8 26 47 14 
40 5 16 41 63 9 42 
41 10 9 63 30 33 11 16 40 55 35 42 
42 9 11 46 63 40 41 55 9 30 33 
43 6 27 62 22 31 60 3 
44 11 70 15 23 20 7 45 51 38 66 54 19 
45 9 51 23 3 44 70 38 15 20 7 
46 8 42 11 55 63 40 33 41 30 
47 11 26 55 34 33 53 39 68 8 11 30 12 
48 8 32 6 54 7 15 57 70 59 
49 7 14 58 24 50 2 18 67 
50 9 24 2 67 58 29 49 57 69 14 
51 11 45 23 3 44 38 70 15 20 31 62 60 
52 8 61 28 68 8 12 18 53 39 
53 9 68 39 12 34 18 8 26 47 33 
54 11 19 66 20 15 5 48 64 70 56 44 65 
55 11 33 11 30 47 63 34 26 9 41 42 53 
56 7 21 54 36 5 19 48 64 
57 5 32 67 29 6 48 
58 8 14 18 2 49 50 24 12 39 
59 11 69 6 4 29 7 13 32 70 48 35 57 
60 5 31 62 3 27 43 
61 9 28 8 52 68 53 26 39 12 18 
62 6 31 43 27 60 22 3 
63 10 41 9 30 11 33 55 40 42 16 34 
64 11 5 25 65 10 19 66 20 54 38 37 56 
65 10 64 25 5 10 66 19 38 20 37 54 
66 11 19 20 54 5 64 65 38 15 25 44 70 
67 6 24 50 57 29 2 32 
68 9 53 39 8 12 18 34 26 47 28 
69 11 59 29 4 6 13 7 32 35 57 2 50 
70 11 44 15 7 20 23 54 66 45 6 59 19 
DEPOT_SECTION
   1
   -1
EOF
