NAME :  X-n1001-kX-w200-c11.cctp
COMMENT : 	Adapted by Maziero, Usberti and Cavellucci from the Uchoa, Pecin, Pessoa, Poggi, Subramanian, and Vidal (2013)
TYPE :  CCTP
DIMENSION :    948
EDGE_WEIGHT_TYPE : 	EUC_2D	
CAPACITY : 	131
VERTICES_WITHIN_COVERAGE :  11
VERTICES_WITH_DEMAND : 	200
NODE_COORD_SECTION
1 2 857
2 407 102
3 915 965
4 797 45
5 997 241
6 650 683
7 748 248
8 99 174
9 2 545
10 277 689
11 568 771
12 76 105
13 117 973
14 171 971
15 327 183
16 277 697
17 269 246
18 670 18
19 51 901
20 951 696
21 710 102
22 61 465
23 348 606
24 551 243
25 524 793
26 89 582
27 900 748
28 235 368
29 122 587
30 449 781
31 970 38
32 362 490
33 742 267
34 289 115
35 898 957
36 996 922
37 951 633
38 713 779
39 603 247
40 402 363
41 143 0
42 274 608
43 81 422
44 550 408
45 43 699
46 482 575
47 909 254
48 613 37
49 202 575
50 297 297
51 736 288
52 464 127
53 499 491
54 635 531
55 796 328
56 184 941
57 641 824
58 863 673
59 396 950
60 555 631
61 664 966
62 301 260
63 425 990
64 559 746
65 431 827
66 724 472
67 847 51
68 888 721
69 136 331
70 859 627
71 206 5
72 429 381
73 798 918
74 886 684
75 123 488
76 779 445
77 764 43
78 938 743
79 800 398
80 734 20
81 211 678
82 601 545
83 512 403
84 796 106
85 644 810
86 416 973
87 115 435
88 667 91
89 395 941
90 374 546
91 546 191
92 754 255
93 124 588
94 423 929
95 314 637
96 668 268
97 321 786
98 960 423
99 11 499
100 721 692
101 803 584
102 337 475
103 806 773
104 429 478
105 214 547
106 361 166
107 944 218
108 12 468
109 527 255
110 789 724
111 250 862
112 892 896
113 545 806
114 832 12
115 628 495
116 194 884
117 395 309
118 655 39
119 558 175
120 247 947
121 36 394
122 877 451
123 599 724
124 83 489
125 754 703
126 65 35
127 889 230
128 938 307
129 662 394
130 248 220
131 642 549
132 747 86
133 201 643
134 400 574
135 653 798
136 653 904
137 643 138
138 951 307
139 793 865
140 500 726
141 585 586
142 285 769
143 511 898
144 336 912
145 454 207
146 239 951
147 335 815
148 911 708
149 2 239
150 602 984
151 372 799
152 177 756
153 816 435
154 617 639
155 806 796
156 793 584
157 803 561
158 479 831
159 397 20
160 618 113
161 702 902
162 838 111
163 989 451
164 215 154
165 581 757
166 294 174
167 997 332
168 350 909
169 335 941
170 906 354
171 920 675
172 493 469
173 187 284
174 678 127
175 831 755
176 316 319
177 188 134
178 73 608
179 884 613
180 193 831
181 717 851
182 508 52
183 809 556
184 705 769
185 983 312
186 847 359
187 415 658
188 132 789
189 520 413
190 913 564
191 90 256
192 960 936
193 693 559
194 980 347
195 300 456
196 376 144
197 192 177
198 272 525
199 88 626
200 772 743
201 540 206
202 474 559
203 575 901
204 241 949
205 583 602
206 215 48
207 460 683
208 585 234
209 522 137
210 294 501
211 788 392
212 621 498
213 81 236
214 788 277
215 817 861
216 678 560
217 351 354
218 156 507
219 617 486
220 218 189
221 213 23
222 884 616
223 923 177
224 829 814
225 285 153
226 176 928
227 166 656
228 507 183
229 907 171
230 995 412
231 149 784
232 649 933
233 885 309
234 131 560
235 502 640
236 462 970
237 465 114
238 192 569
239 547 473
240 557 408
241 480 579
242 775 395
243 845 753
244 701 529
245 962 95
246 31 68
247 627 629
248 918 853
249 823 774
250 775 894
251 109 935
252 478 480
253 511 488
254 785 899
255 487 121
256 453 440
257 470 598
258 756 89
259 728 583
260 647 753
261 973 391
262 842 559
263 637 397
264 72 370
265 948 485
266 999 268
267 471 517
268 350 131
269 381 534
270 310 467
271 973 212
272 164 485
273 429 565
274 186 426
275 838 897
276 779 143
277 452 1
278 866 928
279 214 623
280 532 586
281 513 152
282 915 772
283 204 585
284 343 558
285 877 720
286 730 272
287 364 617
288 210 569
289 514 296
290 33 761
291 202 695
292 706 395
293 597 866
294 376 83
295 679 434
296 483 578
297 0 299
298 639 101
299 709 590
300 774 925
301 804 864
302 528 192
303 660 561
304 888 7
305 788 712
306 854 884
307 710 665
308 939 390
309 156 683
310 62 737
311 207 501
312 944 334
313 952 915
314 14 440
315 923 386
316 693 370
317 485 885
318 890 951
319 478 956
320 782 216
321 104 50
322 822 370
323 73 108
324 7 981
325 987 382
326 397 439
327 986 513
328 871 661
329 636 866
330 154 39
331 70 100
332 75 647
333 383 5
334 86 692
335 263 570
336 26 218
337 892 317
338 76 883
339 648 837
340 713 447
341 98 769
342 316 688
343 470 613
344 157 295
345 499 223
346 482 100
347 3 209
348 280 692
349 525 6
350 54 122
351 220 208
352 838 860
353 455 989
354 923 705
355 41 665
356 829 426
357 809 821
358 238 811
359 57 114
360 490 911
361 445 135
362 126 154
363 502 856
364 543 422
365 395 335
366 873 378
367 947 675
368 127 46
369 895 216
370 590 641
371 415 0
372 456 639
373 881 466
374 721 116
375 884 403
376 323 319
377 495 158
378 534 496
379 784 89
380 600 973
381 582 263
382 630 484
383 498 412
384 737 749
385 187 137
386 433 302
387 864 360
388 262 566
389 63 28
390 698 186
391 669 65
392 280 605
393 163 577
394 7 891
395 156 301
396 144 312
397 272 181
398 112 407
399 865 155
400 232 344
401 418 650
402 529 362
403 889 916
404 952 677
405 443 10
406 644 925
407 982 797
408 328 995
409 652 395
410 954 103
411 614 890
412 583 127
413 54 278
414 534 176
415 457 678
416 769 423
417 111 776
418 537 183
419 887 534
420 263 242
421 238 143
422 693 433
423 481 223
424 276 463
425 301 278
426 813 997
427 522 400
428 342 979
429 121 219
430 282 213
431 495 110
432 974 643
433 567 187
434 588 289
435 415 542
436 711 288
437 192 263
438 634 955
439 134 858
440 836 650
441 401 251
442 757 708
443 640 675
444 512 860
445 179 319
446 902 529
447 526 587
448 186 229
449 15 596
450 979 645
451 647 323
452 182 123
453 184 38
454 302 219
455 781 849
456 330 18
457 991 649
458 887 717
459 616 448
460 331 231
461 822 365
462 230 835
463 359 963
464 60 730
465 776 660
466 376 810
467 481 728
468 495 862
469 192 598
470 121 520
471 854 951
472 305 495
473 603 933
474 916 240
475 889 765
476 608 852
477 233 438
478 715 397
479 250 676
480 385 490
481 977 120
482 695 732
483 168 907
484 487 552
485 379 518
486 175 165
487 741 69
488 859 350
489 741 665
490 542 145
491 618 340
492 87 291
493 784 685
494 785 260
495 943 254
496 183 988
497 239 180
498 206 769
499 597 257
500 780 886
501 227 435
502 918 839
503 905 402
504 257 337
505 100 996
506 194 631
507 164 219
508 524 887
509 909 704
510 169 906
511 241 785
512 538 74
513 399 812
514 855 575
515 802 150
516 451 192
517 979 779
518 342 445
519 692 472
520 9 452
521 897 431
522 665 139
523 128 106
524 768 689
525 150 279
526 791 248
527 836 385
528 235 877
529 315 98
530 895 755
531 363 154
532 373 633
533 42 430
534 850 534
535 592 274
536 95 712
537 565 82
538 736 849
539 227 124
540 770 512
541 191 627
542 334 855
543 307 97
544 718 570
545 808 903
546 630 96
547 694 101
548 714 65
549 380 514
550 311 9
551 581 60
552 452 330
553 269 422
554 986 414
555 207 280
556 645 986
557 97 50
558 258 620
559 19 60
560 159 382
561 594 3
562 575 648
563 505 396
564 271 186
565 259 278
566 440 484
567 204 169
568 839 329
569 796 265
570 184 633
571 110 901
572 794 510
573 612 243
574 471 610
575 168 254
576 651 691
577 317 884
578 788 451
579 778 532
580 999 602
581 223 747
582 951 203
583 290 179
584 5 237
585 848 785
586 511 279
587 919 357
588 409 840
589 726 723
590 198 57
591 563 987
592 330 143
593 112 165
594 564 379
595 841 919
596 736 821
597 895 875
598 772 252
599 233 210
600 956 386
601 29 477
602 440 322
603 300 683
604 19 243
605 804 616
606 139 376
607 177 425
608 164 188
609 330 450
610 894 845
611 81 292
612 327 908
613 52 153
614 681 294
615 806 403
616 650 476
617 238 416
618 930 935
619 220 643
620 976 863
621 487 945
622 777 163
623 352 425
624 224 959
625 800 833
626 1 880
627 530 411
628 205 696
629 47 211
630 1 975
631 463 461
632 12 909
633 9 25
634 960 395
635 808 103
636 555 364
637 881 187
638 640 356
639 423 259
640 312 251
641 874 740
642 135 158
643 904 910
644 102 78
645 926 747
646 133 610
647 712 498
648 801 94
649 46 372
650 792 533
651 744 492
652 49 160
653 910 98
654 161 275
655 462 5
656 2 317
657 892 299
658 623 197
659 280 296
660 390 873
661 569 740
662 382 176
663 67 260
664 22 899
665 224 74
666 976 106
667 643 937
668 286 733
669 343 347
670 768 396
671 281 2
672 646 481
673 113 496
674 449 469
675 209 276
676 146 512
677 925 847
678 541 265
679 108 218
680 909 962
681 873 616
682 891 741
683 610 429
684 632 229
685 254 413
686 174 367
687 801 148
688 94 483
689 70 736
690 396 630
691 722 757
692 652 154
693 524 473
694 390 532
695 865 278
696 739 441
697 522 405
698 315 92
699 676 875
700 367 807
701 174 702
702 161 844
703 52 348
704 628 479
705 294 425
706 245 335
707 849 644
708 188 955
709 898 25
710 369 346
711 795 493
712 704 846
713 872 179
714 774 620
715 635 620
716 512 482
717 67 510
718 527 626
719 316 970
720 777 242
721 622 844
722 35 70
723 577 911
724 285 224
725 652 328
726 358 274
727 950 346
728 824 571
729 228 251
730 133 826
731 166 573
732 5 941
733 876 539
734 74 80
735 668 777
736 773 7
737 71 263
738 94 533
739 895 963
740 744 131
741 710 940
742 790 311
743 470 10
744 778 994
745 726 581
746 301 968
747 425 873
748 551 998
749 880 251
750 13 286
751 229 807
752 791 870
753 980 301
754 319 503
755 678 661
756 131 647
757 756 147
758 752 792
759 833 41
760 570 210
761 550 937
762 237 533
763 484 801
764 281 735
765 126 383
766 261 867
767 765 621
768 340 504
769 483 824
770 904 551
771 380 261
772 450 572
773 581 121
774 737 364
775 504 708
776 162 788
777 379 894
778 415 846
779 357 10
780 794 896
781 168 803
782 981 897
783 192 525
784 307 810
785 193 59
786 348 6
787 896 319
788 718 704
789 635 865
790 44 81
791 677 455
792 365 89
793 993 748
794 264 253
795 794 836
796 158 537
797 299 507
798 837 673
799 625 578
800 726 948
801 225 753
802 529 813
803 57 217
804 493 88
805 977 476
806 926 415
807 370 421
808 960 959
809 56 666
810 568 361
811 418 120
812 830 947
813 799 823
814 447 171
815 136 12
816 864 465
817 510 511
818 37 62
819 610 786
820 155 680
821 710 998
822 443 869
823 243 357
824 736 125
825 323 814
826 526 532
827 20 222
828 54 930
829 124 270
830 76 619
831 872 318
832 938 393
833 518 361
834 114 189
835 398 156
836 666 975
837 976 884
838 362 501
839 799 452
840 791 71
841 778 700
842 745 362
843 691 851
844 870 506
845 957 214
846 547 416
847 645 140
848 41 367
849 747 223
850 686 750
851 520 508
852 86 411
853 196 752
854 790 247
855 100 49
856 116 857
857 754 899
858 387 843
859 653 877
860 682 525
861 156 967
862 861 886
863 628 139
864 829 776
865 48 367
866 553 756
867 308 857
868 525 768
869 739 419
870 534 906
871 74 407
872 829 489
873 174 812
874 756 539
875 783 958
876 651 110
877 551 459
878 980 868
879 295 427
880 729 915
881 518 915
882 46 872
883 172 627
884 130 202
885 677 872
886 374 795
887 181 760
888 751 788
889 83 664
890 459 649
891 792 917
892 813 502
893 746 768
894 377 708
895 676 582
896 367 690
897 124 298
898 280 13
899 209 128
900 794 714
901 636 512
902 901 875
903 970 319
904 301 452
905 146 305
906 45 362
907 239 811
908 423 798
909 477 717
910 102 815
911 504 648
912 524 158
913 902 424
914 951 766
915 296 959
916 647 246
917 395 299
918 970 492
919 260 138
920 394 642
921 795 836
922 657 44
923 263 655
924 776 212
925 436 346
926 982 977
927 879 198
928 99 1000
929 927 947
930 419 592
931 742 981
932 714 685
933 410 503
934 858 581
935 988 225
936 576 24
937 673 162
938 660 459
939 624 134
940 520 801
941 86 528
942 245 156
943 671 77
944 944 270
945 951 622
946 412 813
947 732 304
948 532 201
DEMAND_SECTION
2 6
3 1
4 10
5 7
6 6
7 2
8 8
9 7
10 3
11 5
12 1
13 4
14 10
15 4
16 10
17 3
18 6
19 4
20 3
21 10
22 8
23 6
24 7
25 7
26 4
27 1
28 5
29 3
30 6
31 8
32 5
33 9
34 6
35 9
36 9
37 4
38 1
39 9
40 10
41 2
42 4
43 1
44 10
45 1
46 10
47 2
48 10
49 1
50 4
51 5
52 5
53 6
54 6
55 9
56 4
57 4
58 9
59 3
60 7
61 6
62 8
63 5
64 9
65 3
66 9
67 1
68 1
69 5
70 7
71 6
72 6
73 9
74 3
75 8
76 5
77 9
78 10
79 9
80 5
81 9
82 5
83 10
84 1
85 2
86 9
87 3
88 8
89 2
90 6
91 1
92 3
93 1
94 8
95 8
96 6
97 9
98 5
99 5
100 9
101 1
102 9
103 6
104 3
105 4
106 9
107 7
108 1
109 9
110 6
111 10
112 2
113 3
114 9
115 6
116 4
117 9
118 10
119 3
120 7
121 6
122 6
123 4
124 5
125 9
126 2
127 2
128 4
129 5
130 6
131 1
132 5
133 4
134 3
135 4
136 9
137 4
138 3
139 5
140 10
141 2
142 5
143 8
144 8
145 10
146 7
147 3
148 6
149 9
150 5
151 2
152 10
153 4
154 9
155 2
156 6
157 1
158 6
159 1
160 1
161 7
162 10
163 7
164 3
165 6
166 4
167 4
168 3
169 5
170 4
171 2
172 5
173 1
174 10
175 7
176 3
177 7
178 10
179 10
180 2
181 3
182 10
183 6
184 3
185 1
186 4
187 3
188 10
189 10
190 4
191 8
192 5
193 2
194 8
195 2
196 5
197 8
198 7
199 10
200 1
201 5
COVERAGE_SECTION
2 11 811 294 792 361 196 835 237 52 268 531 346 
3 11 680 35 739 929 318 618 808 192 403 643 278 
4 11 840 77 759 736 379 114 648 67 635 258 84 
5 11 935 266 271 845 495 107 582 944 753 185 138 
6 11 576 443 755 154 247 307 932 123 715 482 260 
7 11 92 33 598 849 286 720 494 51 854 526 924 
8 11 593 834 362 642 884 679 429 613 652 803 629 
9 11 99 449 601 717 108 941 520 738 26 178 124 
10 11 348 16 603 479 923 342 668 764 95 81 558 
11 11 165 866 64 661 113 868 819 25 123 802 940 
12 10 323 331 359 734 350 644 790 523 613 722 
13 11 505 928 251 861 14 496 571 708 56 226 828 
14 11 861 496 708 56 226 13 624 483 510 146 251 
15 11 166 583 106 592 454 531 460 225 430 397 662 
16 11 348 10 603 479 668 764 342 923 81 95 142 
17 11 420 794 724 130 565 62 430 729 454 640 425 
18 11 118 922 391 943 48 80 548 88 561 547 487 
19 10 664 828 882 338 632 394 626 571 732 251 
20 11 404 367 354 171 148 509 78 645 432 450 457 
21 11 547 374 824 548 132 174 88 487 740 943 258 
22 11 124 601 688 533 717 43 108 314 520 871 99 
23 11 287 532 95 284 690 920 134 90 392 930 42 
24 11 678 109 208 381 760 201 948 499 535 39 91 
25 11 940 802 113 868 763 866 11 769 64 158 165 
26 11 178 29 93 830 199 234 738 646 941 332 470 
27 11 530 682 475 645 641 282 68 458 285 78 148 
28 11 823 400 706 504 617 685 686 553 501 477 445 
29 11 93 646 234 26 393 731 199 178 830 738 756 
30 11 908 763 65 946 769 158 513 467 909 588 778 
31 9 245 410 666 709 481 653 304 67 759 
32 11 838 480 768 102 549 485 754 269 518 694 933 
33 11 286 92 7 51 598 436 947 720 494 849 214 
34 11 543 529 698 919 225 592 421 166 942 268 539 
35 11 739 318 680 3 929 618 403 278 471 643 112 
36 10 782 192 837 313 808 878 926 620 618 929 
37 11 945 432 450 367 457 404 171 580 20 222 179 
38 11 184 691 893 384 888 850 758 735 596 482 589 
39 11 573 499 208 381 535 684 916 434 760 24 658 
40 11 365 72 710 925 217 117 602 552 669 917 807 
41 10 815 330 368 453 71 321 855 557 221 785 
42 11 392 558 335 388 923 95 279 619 479 23 283 
43 9 852 871 398 87 533 22 121 264 765 
44 11 240 846 364 627 697 427 189 594 83 636 563 
45 10 355 464 809 310 334 689 889 536 332 290 
46 11 296 241 202 484 257 772 574 343 447 280 273 
47 11 474 749 127 495 944 369 657 107 695 128 233 
48 11 551 561 936 118 922 18 546 391 537 298 943 
49 11 283 288 238 469 105 731 393 279 783 541 762 
50 11 659 425 176 376 62 565 640 794 504 17 706 
51 11 947 286 33 436 92 7 598 214 614 494 742 
52 11 237 361 255 346 431 377 811 814 804 281 209 
53 11 253 716 172 817 252 851 693 378 267 631 826 
54 11 131 901 212 82 115 303 382 860 219 799 672 
55 11 742 568 461 322 214 186 842 569 211 488 947 
56 11 226 708 14 483 510 861 624 496 146 116 204 
57 11 85 339 721 135 789 329 476 819 735 859 843 
58 11 328 74 798 707 440 70 285 458 68 509 171 
59 11 89 86 94 463 63 777 428 168 169 236 144 
60 11 562 718 370 205 280 447 141 235 911 154 247 
61 11 836 556 438 232 667 406 741 821 136 380 150 
62 11 640 425 17 50 794 724 454 420 460 659 565 
63 11 86 353 236 59 89 94 319 463 621 428 408 
64 11 661 866 165 11 868 123 25 113 140 819 775 
65 11 946 778 588 908 513 822 747 858 158 30 769 
66 11 340 651 647 519 696 422 791 869 295 76 244 
67 11 759 114 4 709 840 304 162 648 635 379 84 
68 11 458 285 682 641 148 509 27 530 74 354 475 
69 11 396 905 897 395 344 445 606 686 765 525 560 
70 11 681 707 222 179 440 328 58 934 798 514 605 
71 11 221 453 206 590 785 330 41 815 665 898 671 
72 11 40 925 552 365 602 256 326 710 807 383 563 
73 11 891 545 780 254 300 250 500 595 812 875 275 
74 11 58 328 509 458 148 171 68 285 354 798 707 
75 11 673 688 470 676 218 124 272 87 738 941 717 
76 11 578 839 416 153 696 869 242 615 670 79 711 
77 11 4 487 736 80 840 132 258 379 548 648 759 
78 11 645 914 282 27 354 148 530 682 20 509 475 
79 11 615 211 242 670 322 527 153 356 416 461 76 
80 11 77 736 487 548 18 132 4 258 840 391 118 
81 11 291 628 133 619 479 701 227 506 570 279 309 
82 11 54 131 799 141 901 212 115 205 219 303 382 
83 11 427 563 697 189 383 627 364 846 44 833 402 
84 11 635 648 379 840 276 162 687 258 515 132 757 
85 11 57 135 339 721 735 819 476 789 260 329 843 
86 11 63 59 89 353 94 236 463 319 428 621 169 
87 11 398 43 852 871 688 765 75 673 22 124 607 
88 11 943 876 391 547 298 546 174 21 522 922 118 
89 11 59 94 86 463 777 168 63 169 428 144 660 
90 11 269 694 485 284 549 134 435 838 768 933 32 
91 11 418 201 948 302 414 119 433 760 228 912 490 
92 11 7 33 598 720 286 494 849 854 51 526 214 
93 11 29 646 234 26 393 731 199 178 830 756 796 
94 11 89 59 86 747 777 236 63 319 822 660 621 
95 11 23 392 603 42 342 287 923 532 558 10 348 
96 11 614 916 436 684 451 573 286 725 39 51 499 
97 11 784 825 147 142 700 151 886 466 668 764 542 
98 11 554 634 261 806 230 600 832 308 163 325 315 
99 11 601 108 9 520 717 314 22 124 533 941 688 
100 11 932 788 307 589 489 125 442 524 482 755 841 
101 11 156 157 728 183 605 262 714 650 514 767 934 
102 11 609 270 32 768 518 754 838 472 195 904 210 
103 11 249 155 864 175 243 585 200 224 357 813 110 
104 11 566 674 933 631 256 480 252 326 267 549 485 
105 11 288 762 49 238 783 283 311 388 335 731 469 
106 11 531 662 196 268 15 835 592 166 460 583 811 
107 11 845 582 271 474 495 935 223 369 47 944 127 
108 11 520 601 314 99 533 22 717 124 9 121 43 
109 11 678 24 586 289 345 201 948 381 423 208 760 
110 11 900 305 200 841 442 493 125 524 103 175 384 
111 11 766 528 462 358 907 867 751 116 180 577 784 
112 11 643 403 597 902 862 306 278 248 610 275 618 
113 11 802 25 940 11 868 866 165 763 64 444 769 
114 11 759 67 4 304 736 709 840 77 648 379 635 
115 11 212 382 219 704 901 672 616 54 938 459 131 
116 11 510 483 528 226 702 180 56 111 462 439 766 
117 11 917 365 386 710 602 771 726 40 925 639 441 
118 11 922 18 391 943 48 88 546 298 548 561 876 
119 11 433 91 418 414 302 490 201 760 948 912 281 
120 11 204 146 624 915 746 708 56 528 226 719 496 
121 10 649 848 865 906 533 871 264 703 314 43 
122 11 373 816 521 913 375 356 844 503 806 872 153 
123 11 661 165 64 11 260 866 576 819 443 6 562 
124 11 688 717 673 22 941 75 738 470 601 87 43 
125 11 442 524 841 589 100 305 493 788 489 110 900 
126 11 389 557 855 818 321 722 734 246 790 559 633 
127 11 369 749 474 47 927 637 695 713 107 495 229 
128 11 138 312 903 944 727 753 787 185 337 657 233 
129 11 409 263 316 295 292 638 422 478 683 791 938 
130 11 599 420 351 17 430 724 729 794 497 564 220 
131 11 54 303 799 901 216 82 860 895 193 212 115 
132 11 258 487 379 548 21 374 824 740 77 840 84 
133 11 506 541 619 570 279 883 81 227 469 291 628 
134 11 930 273 435 90 694 269 772 287 690 284 485 
135 11 85 735 57 339 260 819 721 850 184 38 843 
136 11 406 859 232 667 699 885 411 329 789 161 438 
137 11 847 863 692 939 522 876 160 174 298 937 546 
138 11 128 903 312 753 185 944 727 194 167 495 787 
139 11 752 301 455 215 500 795 921 780 625 250 254 
140 10 775 467 909 868 207 866 64 415 661 25 
141 11 205 799 82 280 60 370 447 247 715 154 562 
142 11 764 668 97 511 784 825 801 907 358 581 147 
143 11 508 881 870 360 317 444 468 363 621 761 203 
144 11 612 168 169 577 777 463 542 719 867 915 89 
145 11 516 423 814 345 228 639 377 441 361 302 835 
146 11 204 120 624 708 56 915 746 226 496 14 528 
147 11 825 784 97 700 151 542 466 886 867 858 513 
148 11 509 354 68 458 171 74 285 682 27 20 645 
149 10 584 604 827 347 336 750 629 803 297 413 
150 11 380 591 438 556 473 748 667 61 836 232 761 
151 11 886 700 466 513 147 946 858 825 908 97 588 
152 11 887 853 498 776 231 581 781 801 701 188 873 
153 11 356 839 578 615 76 79 416 211 527 872 242 
154 11 247 715 370 443 562 205 6 141 576 799 60 
155 11 103 357 249 813 224 864 625 921 795 585 175 
156 11 101 157 183 605 728 714 767 650 579 262 874 
157 11 183 101 728 156 650 579 262 572 874 514 534 
158 11 769 763 363 468 444 65 940 822 802 317 30 
159 10 333 371 779 405 786 277 294 456 655 743 
160 11 546 939 298 863 876 137 412 773 847 692 88 
161 11 880 699 741 885 136 800 843 857 181 859 712 
162 10 635 648 84 399 687 515 379 67 840 276 
163 11 805 554 230 98 918 265 261 327 634 325 600 
164 11 567 421 899 942 539 197 385 177 220 497 486 
165 11 11 661 64 866 123 819 868 113 260 25 940 
166 11 583 225 397 564 15 430 454 592 919 724 942 
167 11 194 185 903 753 727 325 138 312 128 261 266 
168 11 144 612 777 169 577 660 89 463 542 59 867 
169 11 144 463 612 168 719 428 746 915 408 89 577 
170 11 587 315 787 337 366 387 312 727 488 503 308 
171 11 367 354 509 404 148 74 20 328 37 458 68 
172 11 252 53 716 253 631 693 674 817 851 256 378 
173 11 555 437 675 654 344 395 445 575 525 905 396 
174 11 522 547 876 847 937 137 692 88 21 374 298 
175 11 243 249 864 103 585 641 155 110 900 285 224 
176 11 376 50 669 659 425 217 710 62 504 726 640 
177 11 385 452 899 164 486 567 539 197 421 642 608 
178 11 830 199 26 332 29 93 889 449 646 809 355 
179 11 222 681 70 934 707 514 328 190 440 58 770 
180 11 873 702 462 781 751 358 907 116 776 730 528 
181 11 712 538 843 596 885 699 161 857 455 880 758 
182 11 512 804 349 346 743 431 537 655 255 551 936 
183 11 157 728 101 650 156 262 579 534 572 514 892 
184 11 38 691 850 384 482 735 893 888 589 758 135 
185 11 753 903 167 138 194 128 312 266 727 944 325 
186 11 488 387 461 322 527 568 366 831 375 170 55 
187 10 401 920 690 372 890 415 532 207 896 894 
188 11 231 417 776 730 341 781 910 873 152 887 702 
189 11 697 627 83 427 383 563 364 846 44 240 402 
190 11 770 446 419 733 179 934 514 222 681 945 534 
191 11 737 213 663 492 611 829 413 679 429 803 897 
192 11 313 808 618 929 36 782 926 3 837 680 643 
193 11 216 544 895 244 303 299 860 745 259 131 54 
194 11 167 727 903 185 325 312 261 600 753 138 634 
195 11 904 270 424 879 609 705 472 102 518 210 553 
196 11 531 835 106 268 662 592 811 2 792 294 15 
197 11 567 486 220 608 164 385 351 177 497 507 448 
198 11 797 210 762 388 472 335 754 105 424 270 311 
199 11 830 178 332 889 26 646 756 809 29 93 355 
200 11 110 305 384 893 900 442 841 125 103 589 888 
201 11 948 91 302 418 760 414 433 119 24 228 345 
202 11 484 46 241 296 772 257 267 273 574 343 447 
203 10 723 293 411 870 473 761 508 476 881 143 
204 11 146 120 624 708 915 56 746 226 496 528 14 
205 11 141 60 370 562 799 154 247 280 715 447 82 
206 10 590 221 785 665 453 71 330 898 539 671 
207 10 415 890 909 372 467 187 775 401 911 140 
208 11 39 499 573 760 381 24 535 684 433 201 658 
209 11 281 912 490 377 255 431 414 228 418 119 346 
210 11 797 472 754 198 270 424 195 768 904 102 609 
211 11 79 242 670 615 416 322 461 527 153 842 356 
212 11 115 219 382 704 901 672 54 616 459 82 131 
213 11 191 663 737 803 679 629 429 413 492 829 611 
214 11 569 494 526 598 854 742 720 92 33 7 55 
215 10 301 352 139 752 625 921 795 455 357 275 
216 11 193 303 895 860 131 244 544 299 54 745 259 
217 10 669 710 376 365 176 40 117 807 917 623 
218 11 676 272 796 470 75 783 673 311 234 688 731 
219 10 212 382 704 115 672 901 616 459 54 938 
220 11 351 497 567 599 197 164 130 942 486 421 448 
221 11 71 206 453 590 785 665 330 898 671 41 815 
222 11 179 681 70 934 707 328 514 440 190 58 945 
223 10 229 582 637 107 369 927 845 713 271 399 
224 10 357 155 813 585 625 864 249 921 795 103 
225 11 166 583 919 397 564 34 942 592 421 15 497 
226 11 56 483 510 708 14 861 116 624 496 146 251 
227 11 820 309 570 883 756 133 506 541 701 81 291 
228 11 302 377 414 418 912 948 281 91 201 345 209 
229 10 223 637 713 927 399 369 582 107 127 845 
230 11 554 261 325 98 163 634 600 308 832 805 194 
231 11 776 188 781 873 417 152 887 730 341 910 853 
232 11 667 406 438 136 61 836 473 556 411 859 161 
233 11 337 657 787 831 695 488 170 568 128 387 749 
234 11 29 93 796 393 731 470 738 26 646 676 941 
235 10 911 718 343 574 890 372 257 60 447 415 
236 10 353 319 621 63 86 94 360 59 89 881 
237 11 52 346 255 361 431 804 811 377 2 814 209 
238 11 49 288 283 731 469 393 105 783 796 279 541 
239 11 877 693 378 716 253 851 53 364 817 172 846 
240 11 44 846 364 627 594 697 427 189 636 83 810 
241 11 296 46 202 257 484 772 574 343 447 280 273 
242 11 670 211 79 416 615 869 842 774 76 322 461 
243 11 175 864 249 585 641 103 285 475 682 530 68 
244 11 860 193 647 216 544 303 874 651 519 745 895 
245 9 410 666 481 653 31 223 229 709 582 
246 9 722 818 559 790 734 126 633 331 389 
247 11 715 154 370 443 799 205 562 6 141 755 576 
248 8 677 502 610 902 597 112 620 643 
249 11 864 103 175 585 155 243 224 357 813 110 200 
250 11 500 254 780 857 752 891 300 73 139 545 301 
251 11 571 13 828 861 338 505 483 928 19 226 510 
252 11 172 53 631 674 253 716 267 566 817 256 693 
253 11 716 53 693 851 817 378 172 252 239 826 267 
254 11 780 250 500 891 73 545 300 752 857 139 301 
255 11 431 346 237 52 804 209 377 281 361 912 490 
256 11 631 674 104 566 252 172 383 326 72 563 53 
257 11 574 343 241 296 46 772 202 372 484 930 890 
258 11 132 487 379 840 824 84 374 740 648 77 21 
259 7 745 544 299 193 874 895 767 
260 11 735 850 135 819 482 123 85 184 576 165 6 
261 11 634 325 600 554 230 308 98 832 194 315 727 
262 11 514 728 534 934 183 157 733 101 419 156 650 
263 10 409 129 638 683 459 295 491 316 938 422 
264 8 865 649 906 703 848 871 121 852 
265 11 918 805 327 163 98 446 373 806 521 913 419 
266 11 5 753 935 185 944 495 903 138 271 167 845 
267 11 53 252 484 817 202 566 253 851 172 674 716 
268 11 592 531 196 106 792 529 698 835 294 543 662 
269 11 694 90 485 549 435 838 933 134 480 284 32 
270 11 195 904 609 102 472 424 754 210 518 797 879 
271 10 845 935 582 107 5 495 223 266 474 944 
272 11 218 676 75 311 783 673 796 470 607 274 87 
273 11 772 435 930 134 202 694 241 257 46 296 269 
274 11 607 501 477 560 617 686 272 606 685 87 765 
275 10 306 595 862 545 352 215 278 780 73 301 
276 11 622 687 757 515 740 84 824 635 379 648 258 
277 11 655 405 743 371 159 333 349 182 779 804 346 
278 11 403 471 595 318 112 812 275 643 862 35 739 
279 11 619 506 541 133 570 469 283 883 558 49 288 
280 11 447 718 296 46 60 241 141 205 826 484 235 
281 11 912 209 377 490 228 414 418 255 302 431 91 
282 9 530 475 645 27 914 78 682 641 68 
283 11 49 288 469 238 105 279 731 393 541 506 570 
284 11 90 269 23 485 694 768 549 134 754 838 287 
285 11 458 68 641 682 27 148 509 74 530 243 475 
286 11 33 51 436 92 7 947 598 849 614 494 720 
287 11 532 23 690 920 95 134 930 284 401 187 90 
288 11 49 283 238 105 469 731 762 393 783 388 335 
289 4 586 678 109 24 
290 4 310 464 689 45 
291 11 628 81 701 309 820 133 479 227 619 581 853 
292 11 478 316 422 869 129 774 295 842 340 409 696 
293 10 476 411 721 789 329 203 723 859 339 57 
294 10 792 2 268 811 196 698 529 159 543 531 
295 11 422 791 938 340 519 129 292 409 616 478 263 
296 11 46 241 202 257 484 574 772 343 447 280 273 
297 10 656 750 413 604 149 584 703 906 663 848 
298 11 546 876 160 88 939 137 847 863 943 522 174 
299 7 745 259 544 895 193 216 303 
300 11 891 73 254 250 857 875 780 500 545 880 800 
301 11 139 215 752 455 921 795 625 500 352 780 545 
302 11 948 418 414 91 201 228 119 912 433 345 281 
303 11 216 131 895 193 54 799 860 244 901 299 544 
304 11 709 114 67 759 31 653 4 162 245 736 410 
305 11 900 110 841 493 524 442 125 200 465 175 384 
306 10 862 275 352 595 112 597 215 278 403 902 
307 7 932 100 489 755 788 125 589 
308 11 832 315 600 634 806 261 503 98 587 727 170 
309 10 820 701 227 756 291 628 81 570 883 133 
310 8 464 689 290 536 45 341 334 417 
311 11 783 762 272 105 218 796 676 288 477 198 501 
312 11 727 128 138 903 587 194 170 185 753 787 167 
313 11 192 618 782 837 929 36 808 643 878 620 3 
314 11 520 108 533 601 121 22 99 871 43 649 848 
315 11 308 832 503 587 806 600 170 634 375 913 727 
316 11 292 478 129 774 409 842 638 725 263 422 295 
317 11 468 360 143 363 444 508 822 881 870 158 621 
318 11 35 739 680 3 278 403 471 929 618 643 112 
319 10 621 236 353 360 881 94 63 86 143 317 
320 10 924 720 854 526 849 598 494 7 92 569 
321 10 855 557 368 644 126 734 389 815 330 331 
322 11 461 527 186 79 615 211 488 387 568 55 366 
323 10 12 331 359 350 734 790 644 613 722 523 
324 11 630 732 828 632 664 394 19 505 928 626 13 
325 11 261 634 230 600 554 194 98 308 832 167 727 
326 11 807 623 104 480 518 256 674 32 566 933 72 
327 11 918 805 265 163 446 190 580 770 98 554 230 
328 11 58 74 707 70 798 440 681 222 179 171 509 
329 11 789 859 721 339 476 411 293 699 885 57 136 
330 10 368 453 815 41 785 590 321 855 557 221 
331 10 12 323 359 734 350 790 644 722 246 818 
332 10 889 199 809 830 355 178 334 756 45 26 
333 9 159 779 371 786 456 405 277 550 294 
334 9 536 889 809 45 332 464 689 310 355 
335 11 388 392 42 762 198 558 288 105 49 283 238 
336 9 827 629 347 604 584 803 149 213 663 
337 11 787 233 657 831 170 128 488 695 587 387 568 
338 9 19 882 571 856 828 664 251 439 394 
339 11 57 85 721 329 789 135 859 476 843 885 699 
340 11 422 66 696 519 295 791 869 478 647 292 938 
341 8 417 188 689 910 310 231 464 536 
342 11 603 348 10 16 95 896 668 764 923 894 479 
343 10 574 257 372 241 296 890 46 235 772 911 
344 11 395 905 525 654 396 173 445 897 829 69 575 
345 11 423 948 228 302 109 201 145 418 24 91 516 
346 11 431 804 237 255 52 361 209 182 377 281 512 
347 8 827 336 584 149 604 629 803 652 
348 11 10 16 603 479 342 668 923 764 95 81 558 
349 11 182 936 743 655 512 561 277 551 405 537 804 
350 8 359 323 331 12 613 652 790 734 
351 11 599 220 130 497 448 197 567 729 164 420 564 
352 10 215 306 301 862 275 139 224 625 752 357 
353 10 236 63 319 86 621 94 59 89 360 748 
354 11 148 509 20 171 68 367 458 404 78 645 74 
355 11 809 45 332 889 334 830 199 178 464 536 449 
356 11 153 615 79 839 527 578 816 76 211 122 322 
357 10 813 625 224 795 921 155 455 215 301 139 
358 11 907 751 462 511 180 111 498 801 766 142 873 
359 9 350 323 331 12 790 734 613 652 722 
360 11 143 317 881 621 508 870 319 468 363 444 822 
361 11 52 237 811 814 255 2 346 835 377 431 516 
362 11 642 593 8 834 523 884 486 608 385 452 177 
363 11 468 444 158 317 769 508 143 802 360 763 940 
364 11 846 44 627 240 189 697 427 83 877 383 563 
365 11 117 710 40 917 925 602 217 386 669 72 552 
366 11 387 375 488 186 527 503 170 315 587 322 461 
367 11 404 20 171 354 37 432 450 509 148 457 945 
368 10 321 855 330 557 815 644 41 453 523 126 
369 11 127 927 474 637 749 47 713 229 223 107 582 
370 11 562 154 60 247 205 715 141 443 718 799 6 
371 10 159 405 333 277 655 743 779 786 456 294 
372 10 890 343 574 415 401 257 207 187 235 911 
373 11 122 816 521 844 913 872 375 356 446 419 503 
374 11 824 21 740 547 132 174 258 757 487 548 88 
375 11 503 366 913 521 315 806 387 122 527 170 832 
376 11 176 50 669 217 425 659 710 726 62 504 640 
377 11 281 228 912 209 255 414 52 302 431 418 490 
378 11 851 253 693 239 716 817 53 826 877 172 252 
379 11 648 840 84 258 635 132 4 487 77 276 162 
380 11 150 438 473 591 556 748 667 761 232 61 406 
381 11 535 499 39 434 208 573 24 678 760 109 684 
382 10 704 115 219 672 212 616 901 459 938 54 
383 11 83 563 189 697 427 627 364 846 44 256 833 
384 11 691 893 589 200 38 184 888 482 442 758 125 
385 11 177 452 899 486 164 567 197 539 421 608 642 
386 9 602 552 917 117 639 925 365 441 771 
387 11 488 186 366 527 568 170 461 322 831 375 337 
388 11 335 762 198 392 42 105 288 558 49 283 238 
389 11 126 557 818 855 321 722 246 734 559 633 790 
390 11 937 692 522 849 174 757 847 740 824 137 374 
391 11 943 922 88 118 547 548 18 298 876 546 21 
392 11 42 558 335 388 95 923 23 279 619 479 283 
393 11 731 238 234 469 49 796 93 29 283 646 288 
394 8 626 664 632 882 19 732 828 338 
395 11 344 905 396 525 654 445 897 173 69 829 575 
396 11 905 395 69 344 897 525 445 654 829 173 492 
397 11 564 583 166 225 497 430 942 724 919 130 454 
398 9 852 87 765 43 871 606 560 264 607 
399 8 713 637 229 927 162 223 515 687 
400 11 706 823 28 504 445 686 659 555 565 617 675 
401 10 187 920 690 372 890 415 532 207 930 287 
402 7 833 636 427 594 810 563 83 
403 11 643 112 278 318 597 862 35 902 618 306 739 
404 11 367 20 171 354 432 450 37 457 148 509 945 
405 11 277 655 743 371 159 333 182 349 779 804 786 
406 11 232 667 136 438 473 61 411 859 836 699 329 
407 8 517 914 793 620 78 878 282 645 
408 11 428 719 746 463 915 169 59 144 89 612 168 
409 10 129 263 638 295 316 292 683 422 478 459 
410 9 245 666 481 653 31 223 229 709 582 
411 10 293 329 789 476 136 203 859 723 473 406 
412 11 773 160 939 490 863 537 119 546 137 209 298 
413 10 663 737 611 492 191 750 604 213 297 803 
414 11 418 302 91 912 119 948 228 201 281 490 433 
415 10 207 890 372 909 187 401 467 775 911 235 
416 11 76 670 242 869 578 696 211 79 615 839 153 
417 8 341 188 231 910 776 730 689 310 
418 11 414 91 302 948 119 201 912 228 433 490 281 
419 11 733 446 770 844 534 190 262 514 934 373 728 
420 11 17 794 130 724 430 565 729 62 599 454 640 
421 11 942 539 919 164 899 497 567 225 220 177 385 
422 11 295 340 791 519 292 478 938 696 869 66 129 
423 11 345 145 516 228 109 302 948 201 814 586 377 
424 11 195 904 270 879 210 553 705 472 477 797 685 
425 11 62 50 659 640 565 176 17 794 376 420 460 
426 11 744 875 812 471 931 73 300 595 891 278 739 
427 11 697 83 189 627 563 383 44 364 846 240 402 
428 11 408 463 719 169 746 915 59 89 144 168 612 
429 10 679 884 834 213 507 191 8 829 608 593 
430 11 724 454 564 397 17 130 420 583 166 794 640 
431 11 255 346 804 237 52 209 281 377 361 512 912 
432 11 450 457 37 945 404 367 580 20 171 354 509 
433 11 119 91 760 418 201 414 948 302 490 208 912 
434 9 535 381 499 39 573 678 208 24 491 
435 11 273 694 134 269 933 90 485 549 772 930 480 
436 11 51 286 947 614 33 96 7 92 598 725 451 
437 11 675 173 555 575 654 448 729 525 344 395 507 
438 11 667 232 61 406 556 380 473 836 150 136 411 
439 11 856 702 730 571 910 510 483 873 338 116 180 
440 11 707 798 70 58 328 605 681 222 74 179 465 
441 11 639 771 917 726 117 386 145 460 516 662 602 
442 11 125 524 841 305 589 493 110 900 200 100 788 
443 11 6 576 755 154 247 715 370 123 562 307 932 
444 11 363 468 508 317 143 158 769 802 870 881 360 
445 11 395 344 173 396 905 69 555 654 686 525 675 
446 11 419 770 733 190 844 534 265 373 514 262 934 
447 11 280 718 296 46 241 484 60 826 257 235 141 
448 10 507 575 437 351 608 729 220 599 197 654 
449 11 9 178 830 355 26 199 332 809 889 99 941 
450 11 432 457 37 945 404 367 580 20 171 354 509 
451 11 725 491 638 614 96 316 434 409 129 436 535 
452 11 177 385 899 486 164 539 567 197 523 421 642 
453 10 785 590 330 206 221 71 665 815 41 368 
454 11 724 430 460 640 62 583 17 15 420 564 166 
455 11 795 921 139 752 625 301 813 500 215 357 250 
456 9 550 786 779 898 671 333 159 698 792 
457 11 450 432 37 404 580 945 367 20 171 354 148 
458 11 68 285 682 148 509 641 74 27 354 530 475 
459 10 683 704 219 382 616 672 938 115 212 263 
460 11 640 454 62 724 15 726 430 425 771 17 583 
461 11 322 527 186 79 488 568 615 387 211 55 366 
462 11 358 907 751 111 180 528 766 511 116 873 498 
463 11 428 169 59 89 719 408 168 144 86 746 915 
464 7 310 689 45 536 290 334 341 
465 10 493 524 489 714 841 767 125 442 605 305 
466 11 700 151 886 513 858 946 147 588 908 778 825 
467 10 909 140 775 207 415 868 30 763 866 25 
468 11 363 444 317 158 508 143 769 360 822 881 870 
469 11 283 49 238 541 279 506 288 883 393 570 731 
470 11 673 676 738 75 941 218 234 796 688 124 272 
471 11 812 278 595 318 739 35 403 275 680 426 3 
472 11 210 797 754 270 768 102 195 424 904 198 609 
473 11 723 438 380 667 406 203 411 232 150 761 136 
474 11 47 127 495 369 107 749 944 845 582 927 223 
475 11 530 27 682 282 641 645 68 243 585 285 458 
476 10 721 293 789 329 411 57 339 859 85 203 
477 11 501 617 685 553 274 424 607 705 879 311 195 
478 11 292 869 316 774 422 842 340 696 295 129 670 
479 11 923 10 16 348 81 619 628 603 291 558 133 
480 11 32 549 838 933 485 694 269 104 768 102 326 
481 9 666 245 410 653 223 31 229 582 271 
482 11 850 589 788 691 184 384 100 38 932 260 735 
483 11 510 226 116 56 708 571 439 861 702 14 251 
484 11 202 46 296 241 267 772 826 817 257 447 851 
485 11 549 269 694 838 90 480 32 933 768 435 284 
486 11 197 608 567 385 177 164 642 452 220 362 899 
487 11 132 258 548 77 21 379 80 840 374 824 547 
488 11 387 186 568 366 831 461 322 527 170 337 787 
489 8 307 100 932 465 524 125 788 442 
490 11 209 912 281 414 119 418 412 91 773 302 377 
491 10 638 451 725 810 434 263 409 594 636 129 
492 11 611 737 191 413 663 897 829 213 396 905 69 
493 11 524 841 465 305 900 125 442 110 489 798 200 
494 11 569 526 854 598 214 720 92 7 33 320 924 
495 11 944 474 47 107 845 271 582 128 138 935 5 
496 11 14 708 861 56 624 226 146 13 204 120 483 
497 11 220 942 599 397 564 351 164 421 567 130 197 
498 11 853 801 887 581 152 511 751 776 781 358 907 
499 11 39 381 535 573 208 434 684 24 916 760 678 
500 11 250 254 780 752 139 857 301 545 891 73 455 
501 11 477 617 685 274 553 607 424 28 705 879 311 
502 7 677 248 610 902 597 112 620 
503 11 375 913 315 806 521 832 308 366 587 170 600 
504 11 706 823 400 28 659 50 565 176 376 425 555 
505 11 928 13 251 861 14 828 496 324 571 708 56 
506 11 541 570 133 279 883 619 469 227 283 81 49 
507 10 448 608 575 884 429 197 437 486 654 679 
508 11 143 870 881 444 363 468 317 360 203 761 723 
509 11 148 354 458 68 74 171 285 682 20 27 645 
510 11 483 226 116 56 708 439 571 861 702 14 251 
511 11 751 358 907 801 498 581 142 462 853 764 887 
512 11 537 182 551 804 431 346 936 773 209 255 349 
513 11 946 466 908 151 588 886 700 858 65 778 30 
514 11 934 262 728 534 733 681 179 183 222 70 419 
515 9 687 276 622 84 757 635 162 648 740 
516 11 145 814 423 377 228 345 361 835 52 662 639 
517 8 407 914 793 78 645 282 620 27 
518 11 609 623 102 807 270 904 195 32 879 705 326 
519 11 791 66 340 647 938 422 295 616 672 860 651 
520 11 314 108 601 533 99 22 121 43 871 717 124 
521 11 913 122 503 375 806 373 816 315 832 366 308 
522 11 174 692 847 137 937 876 863 939 298 88 547 
523 10 644 362 12 642 323 452 331 368 734 321 
524 11 841 493 125 442 305 465 489 900 110 100 788 
525 11 654 344 395 905 829 575 897 396 173 437 445 
526 11 854 494 720 569 598 214 320 92 924 7 849 
527 11 322 461 186 615 79 366 387 356 488 211 375 
528 11 111 766 116 462 180 358 907 751 120 204 510 
529 9 698 543 34 592 268 792 225 294 919 
530 11 27 475 682 282 641 645 68 285 458 78 148 
531 11 106 196 268 662 592 835 15 792 811 2 166 
532 11 287 690 920 23 401 187 896 95 930 134 894 
533 11 314 121 871 22 43 520 108 852 601 649 848 
534 11 262 733 844 419 514 728 183 934 892 872 446 
535 10 381 434 499 39 573 208 24 678 684 916 
536 8 334 689 464 310 889 45 341 809 
537 11 551 512 773 412 936 160 182 48 546 490 209 
538 11 181 596 712 455 843 857 500 139 752 758 795 
539 11 899 421 164 919 942 177 385 452 665 567 497 
540 11 579 572 650 874 711 651 892 157 183 647 66 
541 11 506 570 133 883 279 469 619 227 283 49 81 
542 11 867 577 147 825 784 612 858 168 144 700 660 
543 9 529 698 34 592 268 792 225 919 294 
544 10 745 259 299 193 216 244 895 874 860 303 
545 11 780 73 891 254 275 500 250 595 752 301 300 
546 11 298 160 876 88 939 863 137 943 847 391 522 
547 11 21 88 174 374 943 548 391 876 522 824 132 
548 11 487 21 132 547 391 943 258 80 374 88 77 
549 11 485 269 694 838 480 32 933 90 768 435 284 
550 9 456 671 898 786 779 333 698 159 543 
551 11 537 936 48 512 561 546 773 160 412 298 182 
552 7 602 925 386 72 365 40 117 
553 11 685 705 879 617 477 424 501 904 195 270 28 
554 11 230 261 98 325 634 163 600 832 308 806 805 
555 11 675 173 437 729 654 575 445 344 565 395 448 
556 11 836 61 438 150 380 667 232 406 821 473 741 
557 10 855 321 644 368 126 734 389 815 331 330 
558 11 42 392 923 279 619 335 388 479 95 133 283 
559 8 246 818 722 790 633 126 389 734 
560 10 606 686 765 607 274 398 69 445 87 396 
561 11 936 48 551 349 118 922 18 537 512 391 182 
562 11 370 60 154 205 718 247 141 715 443 911 235 
563 11 83 383 427 697 189 627 833 402 364 44 846 
564 11 397 583 166 430 497 225 724 942 130 454 599 
565 11 794 659 17 420 729 50 425 62 675 555 130 
566 11 104 674 631 933 252 267 256 172 480 53 326 
567 11 197 164 220 486 385 497 177 899 351 421 942 
568 11 488 186 831 387 461 55 322 233 742 337 527 
569 11 494 214 526 854 598 720 92 742 7 320 33 
570 11 541 506 883 133 227 279 469 619 81 283 756 
571 11 251 338 856 439 483 19 510 828 882 226 13 
572 11 711 892 650 540 579 872 183 874 157 651 839 
573 11 39 499 684 208 916 381 535 658 434 760 24 
574 10 343 257 241 372 296 46 890 235 772 911 
575 10 654 437 448 525 507 173 344 555 675 829 
576 11 6 443 755 482 123 154 260 932 307 247 788 
577 11 612 867 144 542 168 766 169 777 825 111 147 
578 11 76 839 153 416 711 356 696 615 79 872 242 
579 11 650 540 874 572 157 183 711 892 651 156 101 
580 11 450 432 457 945 37 404 327 367 190 20 171 
581 11 801 853 498 511 887 152 628 291 764 751 668 
582 10 845 107 271 223 935 474 495 229 369 5 
583 11 166 397 564 225 430 15 454 724 497 919 942 
584 10 149 604 827 336 347 629 750 803 297 413 
585 10 864 249 243 175 224 155 103 475 641 357 
586 5 289 109 678 24 345 
587 11 170 315 727 312 308 832 787 503 600 337 366 
588 11 778 858 65 946 513 747 660 908 466 822 700 
589 11 788 384 100 482 125 442 691 932 850 893 200 
590 10 785 206 453 665 221 330 71 452 368 899 
591 10 748 150 380 761 473 723 438 556 881 870 
592 11 268 531 106 15 196 225 529 166 34 543 698 
593 11 8 362 642 834 884 679 429 608 523 613 486 
594 10 636 810 240 44 402 846 427 627 364 697 
595 11 275 278 812 471 306 545 862 73 403 891 780 
596 11 538 758 181 888 712 38 455 843 893 795 184 
597 10 902 112 610 248 643 862 403 677 306 502 
598 11 720 494 92 526 854 7 569 214 33 320 849 
599 11 351 130 220 497 729 420 564 397 430 567 17 
600 11 634 308 261 832 325 315 98 727 554 806 194 
601 11 108 99 520 22 314 533 717 124 688 9 43 
602 9 552 386 925 117 365 917 40 72 639 
603 11 342 348 10 16 923 95 479 668 764 896 558 
604 10 584 149 827 336 347 629 750 803 413 663 
605 11 714 101 156 767 440 728 465 707 157 70 183 
606 9 765 560 686 398 69 607 87 396 852 
607 11 274 560 501 477 686 272 606 617 87 765 398 
608 10 486 197 507 884 642 567 448 834 362 429 
609 11 518 102 270 904 195 623 879 705 807 32 472 
610 7 248 502 597 677 902 112 862 
611 10 492 413 737 663 191 897 829 213 703 396 
612 11 144 168 577 169 542 777 867 915 719 463 746 
613 7 652 350 359 323 8 12 331 
614 11 96 436 451 725 947 286 51 916 33 638 316 
615 11 79 211 242 356 153 527 322 670 461 416 839 
616 11 672 938 382 704 115 219 791 212 901 519 459 
617 11 685 501 477 553 28 274 705 879 823 424 607 
618 11 929 192 313 3 680 643 808 35 318 403 739 
619 11 133 279 506 541 81 570 558 479 923 883 469 
620 8 878 837 782 677 313 248 36 502 
621 10 319 360 236 881 143 353 317 870 761 94 
622 9 276 757 515 687 740 924 320 824 84 
623 10 807 518 609 326 102 879 705 904 270 195 
624 11 146 204 120 708 56 496 14 226 861 915 483 
625 11 921 795 813 357 455 301 139 215 224 155 752 
626 7 394 664 632 882 19 732 828 
627 11 189 697 427 364 846 44 83 240 563 383 594 
628 11 291 81 701 479 309 820 133 581 619 227 853 
629 9 803 336 827 213 604 347 584 652 149 
630 11 324 732 632 828 664 394 19 626 505 928 882 
631 11 674 256 252 172 566 104 53 716 253 267 383 
632 10 664 394 626 732 19 828 882 630 338 324 
633 9 559 818 246 722 389 126 790 734 557 
634 11 600 261 308 832 98 325 554 315 230 806 727 
635 11 648 84 379 162 840 687 515 276 258 4 132 
636 7 810 594 402 833 44 240 427 
637 9 927 713 229 369 399 223 127 474 749 
638 10 491 725 451 263 409 129 316 810 614 292 
639 10 441 771 386 917 117 145 602 726 423 516 
640 11 62 460 425 454 724 17 50 430 794 420 726 
641 11 682 285 68 458 530 27 475 243 175 148 509 
642 11 362 593 834 8 486 608 884 523 385 177 452 
643 11 403 112 902 597 618 278 318 929 35 313 862 
644 10 321 557 734 855 12 523 331 368 323 126 
645 11 78 27 282 914 530 682 475 148 354 68 509 
646 11 93 29 756 883 393 199 234 731 26 570 227 
647 11 66 244 519 651 860 340 791 540 874 696 193 
648 11 635 84 379 840 162 258 4 276 687 132 515 
649 8 865 848 906 121 703 264 871 852 
650 11 579 572 183 157 540 874 892 711 728 156 101 
651 11 66 540 647 874 696 711 579 572 340 519 244 
652 7 613 350 359 629 8 323 803 
653 10 410 245 666 481 162 229 399 709 67 223 
654 11 525 344 575 395 173 437 905 829 396 897 555 
655 11 743 277 405 371 349 182 159 333 804 346 512 
656 10 297 750 703 906 848 413 865 649 604 149 
657 11 233 337 787 831 695 128 47 749 170 138 944 
658 11 684 573 692 208 39 760 916 433 863 847 937 
659 11 50 425 565 62 176 794 504 376 17 706 640 
660 11 777 858 747 778 588 822 168 542 65 513 946 
661 11 64 165 866 11 123 868 819 25 113 140 775 
662 11 106 835 531 196 15 268 592 814 811 516 361 
663 11 737 413 191 213 611 492 803 604 629 829 336 
664 8 632 394 626 19 882 732 828 338 
665 11 206 590 785 539 221 453 899 452 177 421 71 
666 9 481 245 410 653 31 223 229 582 271 
667 11 232 406 438 136 61 473 836 556 411 380 859 
668 11 764 142 16 348 10 603 342 97 801 581 479 
669 10 217 710 376 176 365 40 117 50 917 726 
670 11 242 211 416 79 869 615 842 774 76 478 696 
671 9 898 550 456 786 221 71 779 206 665 
672 11 616 382 704 115 938 219 212 901 791 459 519 
673 11 75 688 470 124 676 738 941 218 717 272 22 
674 11 631 566 104 256 252 172 933 267 53 326 716 
675 11 555 437 173 729 575 654 565 445 448 344 395 
676 11 218 470 796 272 75 673 783 234 738 688 311 
677 8 248 502 610 902 597 620 112 878 
678 10 109 24 586 289 381 535 434 208 499 201 
679 10 429 884 834 213 191 8 803 593 829 507 
680 11 3 35 739 318 929 618 403 808 643 278 471 
681 11 179 222 70 707 934 328 514 440 58 262 190 
682 11 27 530 641 68 458 475 285 645 148 282 509 
683 10 459 263 704 409 219 240 938 382 616 129 
684 11 916 573 658 39 499 208 96 381 535 760 434 
685 11 617 553 477 501 705 879 28 424 823 904 195 
686 11 560 606 445 765 69 607 274 28 400 396 395 
687 9 515 276 622 84 757 635 162 648 740 
688 11 124 673 75 22 717 470 941 738 87 676 43 
689 8 310 464 536 341 290 45 334 417 
690 11 920 532 401 187 287 930 23 134 372 890 896 
691 11 384 184 38 893 589 482 850 888 758 200 788 
692 11 847 137 522 937 863 939 174 876 658 160 298 
693 11 716 253 239 378 877 53 172 851 817 252 364 
694 11 269 485 90 549 435 933 480 838 134 32 273 
695 11 749 657 233 831 337 47 787 127 568 474 369 
696 11 869 340 66 416 76 422 478 578 651 670 519 
697 11 427 189 83 627 563 383 364 846 44 240 402 
698 9 529 543 34 792 268 592 294 225 919 
699 11 885 859 843 136 161 712 329 789 339 181 406 
700 11 151 466 886 513 147 858 825 946 97 588 908 
701 10 309 291 820 628 81 227 152 853 887 133 
702 11 439 730 180 873 781 856 116 776 231 188 483 
703 8 906 865 848 649 264 121 656 611 
704 10 382 219 115 672 212 616 459 901 938 54 
705 10 879 553 904 195 424 685 609 270 518 617 
706 11 504 400 823 28 659 565 50 555 445 675 176 
707 11 440 70 328 798 58 681 222 179 605 74 934 
708 11 56 14 226 496 861 624 146 483 204 510 120 
709 10 304 67 114 759 31 653 245 410 4 162 
710 10 217 669 365 40 117 376 917 176 925 72 
711 11 572 892 540 872 650 839 578 579 76 651 874 
712 11 181 843 538 885 699 596 161 339 859 57 38 
713 8 637 927 399 229 369 223 127 749 
714 8 767 605 465 156 101 489 259 745 
715 11 247 154 799 370 205 443 895 755 141 303 6 
716 11 253 693 53 172 378 851 817 252 239 877 826 
717 11 124 941 738 688 22 673 601 470 99 75 108 
718 10 60 235 911 447 280 562 343 574 205 257 
719 11 746 915 408 428 169 463 144 612 168 120 204 
720 11 598 854 526 494 92 320 7 569 924 849 214 
721 10 476 789 329 339 57 293 85 859 411 135 
722 9 246 818 790 559 734 126 331 359 389 
723 10 203 473 761 411 870 293 508 881 380 143 
724 11 430 454 17 420 794 130 640 62 564 397 583 
725 11 451 638 491 614 316 96 129 409 263 436 434 
726 11 771 917 441 117 460 640 376 425 62 176 50 
727 11 312 194 587 903 138 600 128 170 308 185 315 
728 11 183 262 157 101 514 156 934 534 605 650 579 
729 11 675 420 555 794 130 437 17 565 599 351 448 
730 11 439 702 910 856 188 781 873 231 776 417 180 
731 11 393 238 49 469 234 796 283 288 93 29 646 
732 11 632 630 324 664 394 828 19 626 882 338 251 
733 11 419 534 446 770 844 262 514 190 934 728 183 
734 11 331 12 323 644 790 359 557 722 855 818 321 
735 11 135 260 850 184 85 38 482 57 691 819 339 
736 11 77 80 4 114 840 759 487 132 379 548 258 
737 11 663 191 413 213 611 492 803 829 604 629 679 
738 11 941 470 717 673 124 234 26 688 75 676 29 
739 11 35 318 680 3 929 471 278 618 403 643 808 
740 11 824 757 374 276 258 21 132 622 84 379 547 
741 11 800 880 161 931 61 836 821 857 232 300 136 
742 11 55 214 569 494 568 947 51 598 461 526 854 
743 11 655 277 405 349 371 182 159 804 333 346 512 
744 11 426 875 931 821 300 800 812 891 73 471 741 
745 7 259 544 299 193 895 216 874 
746 11 915 719 408 428 169 120 463 204 146 612 144 
747 11 822 778 660 588 65 858 777 94 317 946 513 
748 10 591 150 380 761 473 621 319 881 723 236 
749 11 127 47 695 369 474 657 927 233 495 637 337 
750 10 297 656 413 604 149 584 663 737 827 611 
751 11 358 907 511 462 180 498 801 873 111 581 781 
752 11 139 301 500 455 780 215 250 254 795 921 545 
753 11 185 903 138 167 266 128 194 944 312 727 495 
754 11 472 797 768 210 102 270 838 32 195 198 609 
755 9 307 6 443 576 932 100 715 788 247 
756 10 227 646 820 309 883 199 889 570 332 93 
757 11 740 276 622 824 687 515 374 84 258 132 21 
758 11 888 893 596 38 384 691 184 200 155 813 103 
759 11 67 114 4 840 648 304 635 709 77 379 736 
760 11 433 208 201 91 119 24 948 418 302 39 414 
761 10 870 723 881 203 591 473 143 508 748 380 
762 11 105 198 388 311 288 335 783 49 238 283 210 
763 11 769 158 940 30 25 802 868 363 65 113 908 
764 11 668 142 16 348 10 603 342 581 801 511 97 
765 9 606 398 560 852 686 69 87 264 871 
766 11 111 528 462 867 577 907 358 751 116 784 542 
767 8 714 605 465 156 489 101 259 745 
768 11 754 838 32 102 472 485 549 797 210 480 270 
769 11 158 763 363 468 940 444 802 25 65 30 822 
770 11 190 446 419 733 514 934 844 534 262 179 222 
771 11 441 726 917 639 117 460 386 640 365 62 376 
772 11 273 202 241 46 257 296 930 484 574 343 435 
773 11 412 160 537 939 490 863 546 119 209 298 551 
774 11 842 478 292 316 670 242 869 211 947 416 55 
775 10 140 909 467 207 415 911 868 64 235 866 
776 11 231 781 873 188 887 152 498 730 853 417 180 
777 11 660 168 144 89 747 858 612 94 59 542 778 
778 11 588 65 858 747 946 822 660 513 908 466 777 
779 9 786 333 456 159 550 371 294 671 898 
780 11 254 545 500 250 891 73 752 139 301 300 857 
781 11 873 776 231 180 188 702 730 887 152 498 853 
782 10 837 36 878 313 620 192 618 808 929 677 
783 11 311 105 796 218 238 762 288 676 272 49 731 
784 11 825 97 147 142 867 542 700 151 907 358 466 
785 10 590 453 206 665 221 330 71 452 368 899 
786 9 779 456 333 550 159 371 671 898 294 
787 11 337 233 657 831 170 128 587 488 312 695 387 
788 11 100 932 589 125 482 442 307 489 384 524 691 
789 11 329 859 721 476 339 411 293 57 699 136 885 
790 10 722 246 818 734 331 559 359 12 323 350 
791 11 938 295 519 422 616 340 672 66 382 647 704 
792 10 294 2 268 698 529 196 543 811 592 531 
793 10 517 914 407 78 20 645 282 354 404 367 
794 11 17 420 565 724 729 130 62 430 425 659 640 
795 11 921 625 813 455 357 139 301 215 752 224 155 
796 11 676 218 234 783 731 393 470 238 272 105 49 
797 11 210 472 754 198 270 768 102 424 195 904 838 
798 11 440 58 707 328 74 70 493 900 285 465 305 
799 11 131 303 82 141 715 54 205 247 895 216 154 
800 11 741 880 931 161 821 300 857 875 61 836 744 
801 11 581 498 853 511 887 152 751 358 764 628 907 
802 11 940 113 25 868 763 769 444 363 158 11 468 
803 10 629 213 336 827 663 604 737 191 679 347 
804 11 346 431 255 237 182 512 52 209 281 361 377 
805 11 918 163 265 327 98 554 230 806 634 261 913 
806 11 503 832 913 308 315 521 98 634 600 375 261 
807 10 623 326 518 609 102 40 32 217 72 480 
808 11 192 926 929 618 3 313 680 36 35 739 782 
809 10 355 332 889 45 334 199 830 178 536 464 
810 7 636 594 402 240 44 833 491 
811 11 2 361 835 52 237 196 294 814 792 531 346 
812 11 471 595 278 73 875 891 545 275 426 300 318 
813 11 357 625 795 921 155 224 455 301 139 215 752 
814 11 516 361 145 52 377 835 811 237 228 423 255 
815 10 41 330 368 321 855 557 453 71 644 785 
816 11 373 122 844 872 521 356 913 153 892 375 839 
817 11 851 53 253 826 378 716 267 693 172 252 484 
818 10 246 722 559 790 126 734 389 633 331 359 
819 11 165 85 11 135 57 260 721 735 661 123 339 
820 10 309 227 701 756 291 628 570 81 883 133 
821 11 931 836 800 61 741 556 744 875 880 438 232 
822 11 747 778 65 317 588 158 468 660 363 769 858 
823 11 28 400 706 504 685 617 553 686 659 445 501 
824 11 740 374 757 21 132 258 276 547 487 622 174 
825 11 147 784 97 542 700 867 151 466 886 142 577 
826 11 851 817 378 484 253 53 716 280 447 267 202 
827 9 336 347 584 604 149 629 803 663 213 
828 11 19 664 632 732 338 251 882 394 571 324 630 
829 10 525 897 191 654 344 905 492 395 396 575 
830 11 178 199 332 26 889 809 29 93 355 646 756 
831 11 233 337 787 657 488 568 695 387 186 170 366 
832 11 308 315 600 634 806 503 261 98 587 913 727 
833 7 402 563 636 427 83 697 594 
834 10 8 884 593 679 429 362 642 608 213 507 
835 11 196 662 531 106 811 361 814 268 2 516 592 
836 11 61 556 438 667 232 821 406 741 150 380 800 
837 9 782 878 620 313 36 192 677 248 618 
838 11 32 549 768 485 480 102 269 694 754 90 933 
839 11 578 76 153 356 711 416 872 615 892 79 572 
840 11 379 648 4 84 635 77 258 132 487 759 67 
841 11 524 305 493 900 442 125 110 465 200 489 589 
842 11 774 670 242 478 292 211 316 869 947 55 79 
843 11 712 885 181 699 339 538 859 161 596 57 329 
844 11 419 534 733 446 373 816 872 122 770 892 262 
845 11 582 107 271 935 495 5 474 223 944 47 369 
846 11 364 44 240 627 189 697 427 83 594 877 563 
847 11 137 692 863 522 939 876 174 937 160 298 546 
848 8 906 649 865 703 121 264 871 533 
849 11 7 924 92 320 720 598 33 854 526 286 494 
850 11 482 184 735 691 260 38 589 384 788 135 893 
851 11 817 378 253 826 53 716 693 239 172 252 267 
852 9 43 871 398 87 264 533 765 121 649 
853 11 887 152 498 581 801 776 701 511 231 291 628 
854 11 526 494 720 569 598 214 320 92 924 7 849 
855 10 557 321 368 644 126 734 389 815 330 331 
856 9 439 730 571 910 702 338 188 483 510 
857 11 250 500 880 254 300 780 891 752 73 139 161 
858 11 588 778 660 513 466 946 700 151 65 747 886 
859 11 329 789 699 885 136 339 411 721 843 406 476 
860 11 244 216 193 647 303 54 131 901 519 672 895 
861 11 14 496 708 56 13 226 251 483 510 505 928 
862 10 306 275 112 352 597 595 403 902 278 643 
863 11 939 137 847 160 692 522 876 298 546 412 773 
864 11 249 175 585 103 243 155 224 357 813 641 475 
865 8 649 906 848 703 264 121 871 852 
866 11 64 11 661 165 868 25 113 123 940 140 802 
867 11 542 577 825 784 766 147 612 111 144 168 97 
868 11 25 866 940 64 11 113 802 140 661 763 165 
869 11 696 416 478 670 340 292 242 76 422 66 774 
870 10 881 508 143 761 203 723 360 444 317 363 
871 9 852 43 264 398 533 121 649 865 87 
872 11 892 711 572 816 844 839 534 153 578 373 650 
873 11 781 180 776 702 231 730 188 887 498 751 152 
874 11 579 540 650 572 544 651 157 259 745 183 244 
875 11 300 744 891 73 931 812 426 800 254 545 780 
876 11 298 88 546 137 847 174 522 160 939 863 943 
877 11 239 693 364 378 846 716 253 44 240 627 189 
878 8 620 837 782 313 36 677 248 502 
879 10 705 553 904 195 424 609 270 685 518 623 
880 11 161 857 741 800 300 250 254 500 891 181 538 
881 11 143 870 360 508 761 621 317 444 319 468 203 
882 7 19 338 664 394 626 632 828 
883 11 570 541 506 227 133 469 279 646 756 393 619 
884 10 429 834 679 608 507 593 8 642 362 486 
885 11 699 843 859 712 161 136 329 789 181 339 57 
886 11 151 700 466 513 946 147 908 858 97 825 588 
887 11 152 853 498 776 231 581 781 801 873 188 701 
888 11 758 893 596 38 384 691 184 200 155 103 813 
889 10 332 809 334 199 355 830 536 756 45 178 
890 10 372 415 207 343 401 574 235 187 911 257 
891 11 73 254 300 545 780 250 500 857 875 752 812 
892 11 711 572 872 650 540 579 534 839 183 578 844 
893 11 384 888 758 691 38 200 184 589 596 103 442 
894 11 896 187 342 920 401 532 690 603 415 207 886 
895 10 216 303 193 299 544 131 745 799 259 715 
896 11 894 342 920 532 187 401 603 690 287 95 23 
897 11 905 396 829 395 525 344 69 492 611 654 191 
898 9 671 550 456 221 786 71 206 779 665 
899 11 539 177 385 164 452 421 567 942 486 197 919 
900 11 305 110 841 493 200 524 442 125 175 465 798 
901 11 54 115 212 382 219 672 704 131 616 82 860 
902 10 597 112 248 610 643 677 502 862 403 306 
903 11 185 753 138 167 194 312 128 727 944 266 587 
904 11 195 270 879 424 705 609 518 102 472 553 210 
905 11 396 395 344 897 525 69 654 445 829 173 575 
906 8 848 865 649 703 264 121 871 656 
907 11 358 751 462 511 180 111 498 766 801 142 873 
908 11 946 513 65 30 588 466 778 886 151 700 858 
909 10 467 140 775 207 415 30 868 890 911 235 
910 7 730 188 417 856 341 439 231 
911 10 235 718 890 343 372 574 60 207 415 257 
912 11 281 209 414 490 418 377 228 302 119 91 948 
913 11 521 503 806 375 122 315 373 832 308 366 816 
914 9 78 517 645 282 407 793 27 530 475 
915 11 746 719 169 408 120 428 204 146 612 144 463 
916 11 684 96 573 39 499 658 614 535 208 381 434 
917 11 117 365 386 771 726 441 639 602 710 925 40 
918 11 805 265 327 163 98 446 554 230 770 806 190 
919 11 421 942 225 539 34 397 497 164 564 166 583 
920 11 690 532 401 187 287 896 930 23 372 890 134 
921 11 795 625 813 455 357 139 301 215 752 224 155 
922 11 118 391 18 943 48 88 546 298 548 876 547 
923 11 479 558 10 348 16 619 603 42 392 95 81 
924 10 320 720 849 854 526 598 7 92 494 622 
925 9 552 602 72 40 365 386 117 917 710 
926 11 808 192 36 929 618 3 313 680 782 35 739 
927 9 637 713 369 127 229 399 223 749 474 
928 11 505 13 251 861 14 828 496 324 571 708 630 
929 11 618 3 680 35 192 808 739 318 313 643 403 
930 11 134 273 772 690 435 257 343 574 920 401 287 
931 11 821 800 744 875 741 300 880 426 836 61 891 
932 10 100 788 307 489 589 755 125 442 482 524 
933 11 480 104 549 485 694 566 435 269 838 32 674 
934 11 514 262 728 681 179 222 70 733 534 101 183 
935 10 5 271 845 582 266 107 495 944 474 753 
936 11 561 551 48 349 537 512 182 118 922 546 18 
937 11 692 522 174 390 847 137 863 876 939 658 547 
938 11 791 616 672 295 519 704 382 422 459 115 219 
939 11 863 137 160 847 692 298 876 546 522 412 773 
940 11 25 802 113 868 763 769 158 866 11 363 444 
941 11 738 717 470 124 673 688 26 75 234 676 22 
942 11 421 919 497 164 397 539 225 564 220 567 899 
943 11 391 88 547 922 876 298 118 546 548 21 174 
944 11 495 128 47 138 474 753 107 266 903 185 845 
945 11 37 432 450 457 580 367 404 171 222 179 190 
946 11 513 908 65 588 778 466 858 151 886 700 30 
947 11 51 436 286 33 614 92 7 742 842 774 214 
948 11 201 302 91 418 414 228 119 433 760 345 912 
DEPOT_SECTION
   1
   -1
EOF
