NAME :  X-n125-kX-w49-c9.cctp
COMMENT : 	Adapted by Maziero, Usberti and Cavellucci from the Uchoa, Pecin, Pessoa, Poggi, Subramanian, and Vidal (2013)
TYPE :  CCTP
DIMENSION :    125
EDGE_WEIGHT_TYPE : 	EUC_2D	
CAPACITY : 	188
VERTICES_WITHIN_COVERAGE :  9
VERTICES_WITH_DEMAND : 	49
NODE_COORD_SECTION
1 989 944
2 5 730
3 769 200
4 698 515
5 72 561
6 52 397
7 771 177
8 81 537
9 43 371
10 716 202
11 106 406
12 627 172
13 10 338
14 776 432
15 761 469
16 759 287
17 593 363
18 773 290
19 129 398
20 709 193
21 99 564
22 163 418
23 48 619
24 907 406
25 929 527
26 69 672
27 675 960
28 50 763
29 736 240
30 46 518
31 128 793
32 699 581
33 58 398
34 43 393
35 783 186
36 58 360
37 45 712
38 38 393
39 652 524
40 37 364
41 37 617
42 61 534
43 664 358
44 555 445
45 712 465
46 38 469
47 2 729
48 65 620
49 156 497
50 857 475
51 773 234
52 879 98
53 685 466
54 21 421
55 109 536
56 60 738
57 897 564
58 96 383
59 76 582
60 739 193
61 669 548
62 284 462
63 193 813
64 15 696
65 102 541
66 28 578
67 828 292
68 73 519
69 70 645
70 40 433
71 745 159
72 0 486
73 75 511
74 228 312
75 732 427
76 61 407
77 495 621
78 84 538
79 751 246
80 22 714
81 63 571
82 641 350
83 873 540
84 211 418
85 287 618
86 155 796
87 627 595
88 546 199
89 795 58
90 805 15
91 649 486
92 145 377
93 673 319
94 700 678
95 86 623
96 158 613
97 673 619
98 738 444
99 17 449
100 122 182
101 108 334
102 100 550
103 677 505
104 23 365
105 20 512
106 892 41
107 452 457
108 70 541
109 224 931
110 67 692
111 198 317
112 513 731
113 159 369
114 51 378
115 556 137
116 800 100
117 795 278
118 158 773
119 43 656
120 41 488
121 70 375
122 132 545
123 203 328
124 728 467
125 759 208
DEMAND_SECTION
2 32
3 7
4 83
5 30
6 62
7 26
8 31
9 75
10 5
11 85
12 15
13 94
14 16
15 38
16 32
17 5
18 17
19 92
20 50
21 16
22 79
23 11
24 33
25 60
26 11
27 96
28 46
29 48
30 31
31 25
32 96
33 71
34 61
35 3
36 100
37 6
38 94
39 88
40 53
41 19
42 50
43 19
44 39
45 21
46 95
47 7
48 40
49 51
50 16
COVERAGE_SECTION
2 9 47 80 64 37 28 56 110 119 26 
3 9 125 35 7 60 51 71 79 29 10 
4 9 103 61 39 53 45 91 124 32 15 
5 9 81 108 59 8 78 21 42 102 65 
6 9 33 34 76 38 114 9 121 40 36 
7 9 35 3 71 125 60 51 10 20 29 
8 9 78 108 42 68 65 102 5 73 55 
9 9 40 114 36 104 34 38 121 6 33 
10 9 20 60 29 125 71 3 79 7 51 
11 9 19 58 76 121 33 92 6 22 114 
12 9 115 20 88 10 60 71 29 125 7 
13 9 104 40 9 36 114 38 34 121 6 
14 9 15 98 75 124 45 50 53 4 103 
15 9 124 98 14 45 75 53 4 103 50 
16 9 18 117 79 29 51 67 125 3 93 
17 9 82 43 44 93 91 53 75 45 103 
18 9 16 117 79 67 51 29 125 3 60 
19 9 11 92 58 22 113 121 101 76 33 
20 9 10 60 71 125 29 3 7 79 35 
21 9 102 65 5 59 55 78 8 81 108 
22 9 19 92 84 113 11 58 49 123 101 
23 9 41 48 69 119 95 59 66 81 26 
24 9 50 25 14 83 67 57 15 117 98 
25 9 57 83 50 24 15 14 98 124 75 
26 9 110 69 119 37 48 95 23 64 80 
27 9 112 94 97 87 32 77 61 39 4 
28 9 56 37 2 80 47 110 64 31 26 
29 9 79 51 125 10 60 3 16 20 18 
30 9 42 68 105 73 120 108 8 78 5 
31 9 86 118 63 28 56 37 110 80 26 
32 9 61 97 4 87 39 103 94 91 53 
33 9 6 76 34 38 114 121 9 36 70 
34 9 38 6 33 114 9 76 40 121 104 
35 9 7 3 125 60 71 51 79 10 29 
36 9 9 114 121 40 104 34 6 33 38 
37 9 80 56 110 64 2 47 26 28 119 
38 9 34 6 114 33 9 76 40 104 54 
39 9 61 103 91 4 53 32 87 45 124 
40 9 9 104 114 36 38 34 121 6 13 
41 9 23 48 119 66 69 95 59 81 26 
42 9 108 68 8 30 78 73 5 81 65 
43 9 82 93 17 75 53 98 45 16 124 
44 9 17 91 107 39 82 53 103 43 61 
45 9 124 53 98 75 15 4 103 91 14 
46 9 120 99 70 72 105 30 54 73 68 
47 9 2 80 64 37 28 56 110 119 26 
48 9 23 95 69 41 59 119 81 26 66 
49 9 122 55 65 102 22 73 78 8 68 
50 9 83 24 25 14 15 57 98 124 75 
51 9 79 125 3 29 35 117 60 16 18 
52 9 106 116 89 90 35 7 71 3 125 
53 9 45 103 91 124 4 98 75 39 15 
54 9 70 99 38 34 6 76 33 46 114 
55 9 65 102 78 122 8 21 108 68 73 
56 9 28 37 80 110 2 47 64 26 119 
57 9 83 25 50 24 15 14 124 32 98 
58 9 11 121 19 33 76 36 114 6 92 
59 9 81 5 21 48 102 108 95 8 78 
60 9 10 125 20 3 71 7 35 29 51 
61 9 39 4 103 32 87 91 97 53 45 
62 9 84 22 49 85 113 123 74 92 19 
63 9 86 118 31 109 28 56 110 37 26 
64 9 80 37 2 47 119 110 26 56 69 
65 9 55 102 78 8 21 122 108 5 68 
66 9 81 41 23 5 59 42 48 108 30 
67 9 117 18 16 51 79 29 3 125 35 
68 9 73 42 8 78 108 30 65 55 102 
69 9 48 26 95 119 23 41 110 59 37 
70 9 54 99 76 46 6 33 34 38 120 
71 9 7 60 35 3 20 125 10 51 29 
72 9 105 99 120 46 30 70 54 42 73 
73 9 68 8 42 78 30 108 65 120 55 
74 9 111 123 113 92 84 101 22 19 58 
75 9 98 124 45 14 15 53 4 103 43 
76 9 33 6 34 38 114 70 121 9 54 
77 9 112 87 107 97 39 44 61 91 32 
78 9 8 108 65 102 68 42 55 5 73 
79 9 29 51 125 16 3 18 60 117 10 
80 9 64 2 37 47 56 110 28 119 26 
81 9 5 59 108 66 21 42 8 78 102 
82 9 43 93 17 75 53 44 16 45 98 
83 9 57 25 50 15 24 14 124 98 4 
84 9 22 113 92 19 62 123 49 111 11 
85 9 96 62 122 49 21 55 102 65 95 
86 9 118 31 63 28 56 110 37 26 109 
87 9 97 61 32 39 103 4 91 94 77 
88 9 115 12 20 10 17 93 82 60 29 
89 9 116 90 52 106 71 7 35 3 60 
90 9 89 116 106 52 71 7 35 3 60 
91 9 103 39 53 4 61 45 124 98 75 
92 9 113 19 22 11 58 101 121 123 84 
93 9 43 82 17 16 29 18 79 75 10 
94 9 97 32 87 61 39 4 103 112 91 
95 9 48 69 23 59 41 26 119 81 21 
96 9 95 122 21 102 59 55 65 48 69 
97 9 32 87 94 61 39 4 103 91 53 
98 9 75 124 45 15 14 53 4 103 91 
99 9 54 70 46 72 120 38 76 34 6 
100 9 101 111 123 74 36 113 13 92 121 
101 9 58 36 121 92 113 19 11 114 9 
102 9 65 21 55 78 8 5 108 122 59 
103 9 4 39 91 53 61 45 124 32 98 
104 9 40 9 13 114 38 34 36 6 33 
105 9 30 120 72 42 46 68 73 108 99 
106 9 52 90 89 116 35 7 71 3 125 
107 9 44 62 17 77 91 39 82 87 103 
108 9 42 8 78 5 68 73 81 102 65 
109 9 63 86 31 118 28 56 37 110 80 
110 9 26 37 119 56 69 80 64 48 95 
111 9 123 74 113 92 101 84 19 22 58 
112 9 77 87 94 97 32 61 39 85 103 
113 9 92 19 22 123 101 11 58 111 84 
114 9 9 34 6 36 121 38 40 33 76 
115 9 88 12 20 10 71 60 29 125 93 
116 9 89 52 71 7 90 35 3 106 60 
117 9 18 67 16 51 79 29 125 3 35 
118 9 86 31 63 56 28 110 37 26 80 
119 9 69 26 23 41 48 110 64 95 37 
120 9 46 30 105 72 73 68 99 42 70 
121 9 36 114 33 9 58 6 34 76 40 
122 9 55 65 102 21 78 8 49 5 108 
123 9 111 74 113 92 84 101 22 19 58 
124 9 45 98 15 75 53 4 14 103 91 
125 9 3 60 51 7 35 29 79 10 71 
DEPOT_SECTION
   1
   -1
EOF
