NAME :  X-n190-kX-w37-c11.cctp
COMMENT : 	Adapted by Maziero, Usberti and Cavellucci from the Uchoa, Pecin, Pessoa, Poggi, Subramanian, and Vidal (2013)
TYPE :  CCTP
DIMENSION :    179
EDGE_WEIGHT_TYPE : 	EUC_2D	
CAPACITY : 	138
VERTICES_WITHIN_COVERAGE :  11
VERTICES_WITH_DEMAND : 	37
NODE_COORD_SECTION
1 0 0
2 425 323
3 806 514
4 853 637
5 564 311
6 871 502
7 803 526
8 822 680
9 827 577
10 834 646
11 636 403
12 699 724
13 830 479
14 486 257
15 411 384
16 881 642
17 424 422
18 807 718
19 949 612
20 362 135
21 836 662
22 791 570
23 822 508
24 794 622
25 823 464
26 803 367
27 390 502
28 868 651
29 732 456
30 356 253
31 794 481
32 356 312
33 994 676
34 817 658
35 591 333
36 776 532
37 811 509
38 298 246
39 813 517
40 793 488
41 944 655
42 847 594
43 696 429
44 454 303
45 369 330
46 721 539
47 874 502
48 860 564
49 381 508
50 773 575
51 901 482
52 852 672
53 805 608
54 828 575
55 434 177
56 715 450
57 827 622
58 757 746
59 977 648
60 826 595
61 439 212
62 514 184
63 836 661
64 503 227
65 499 447
66 792 564
67 791 599
68 932 582
69 904 484
70 453 362
71 636 374
72 781 639
73 911 613
74 834 510
75 786 449
76 772 732
77 776 461
78 749 533
79 825 882
80 401 275
81 965 597
82 760 479
83 841 501
84 901 531
85 443 318
86 771 511
87 854 615
88 821 631
89 734 539
90 773 573
91 646 327
92 842 630
93 806 436
94 960 576
95 350 337
96 828 580
97 876 502
98 532 332
99 518 383
100 770 509
101 251 3
102 264 445
103 817 655
104 493 395
105 777 522
106 525 263
107 793 632
108 713 403
109 810 633
110 837 649
111 757 561
112 766 750
113 411 544
114 315 293
115 362 490
116 484 275
117 754 590
118 736 784
119 911 461
120 882 671
121 845 506
122 453 298
123 581 300
124 472 372
125 828 569
126 296 298
127 766 642
128 461 360
129 771 657
130 883 400
131 853 527
132 748 466
133 447 363
134 884 716
135 953 573
136 748 499
137 818 424
138 761 559
139 754 551
140 915 521
141 802 462
142 411 333
143 797 466
144 873 543
145 902 534
146 981 614
147 843 695
148 796 701
149 459 378
150 681 627
151 781 616
152 726 474
153 407 302
154 782 644
155 832 667
156 575 296
157 788 619
158 430 313
159 593 548
160 945 400
161 490 287
162 772 449
163 419 448
164 499 256
165 427 245
166 701 703
167 859 496
168 925 476
169 790 585
170 811 591
171 991 637
172 405 298
173 861 389
174 394 306
175 942 611
176 912 528
177 876 663
178 399 126
179 850 696
DEMAND_SECTION
2 3
3 7
4 2
5 4
6 3
7 2
8 4
9 1
10 6
11 6
12 9
13 2
14 4
15 1
16 8
17 4
18 2
19 5
20 4
21 9
22 10
23 8
24 1
25 8
26 5
27 7
28 10
29 3
30 3
31 9
32 1
33 3
34 9
35 6
36 5
37 7
38 8
COVERAGE_SECTION
2 11 158 142 85 153 172 44 174 122 133 70 128 
3 11 37 39 7 23 74 40 105 31 36 86 100 
4 11 92 110 10 28 87 16 63 21 57 88 52 
5 11 156 123 35 98 106 161 91 99 164 116 14 
6 11 47 97 167 121 83 131 51 69 74 144 84 
7 11 3 39 37 23 105 36 74 86 100 40 66 
8 11 155 21 34 63 103 147 52 179 148 110 10 
9 11 54 96 125 60 170 42 48 22 66 53 169 
10 11 110 63 21 92 103 88 4 34 155 57 109 
11 11 71 43 91 108 35 56 29 152 5 123 99 
12 10 166 58 118 112 76 129 150 148 127 18 
13 11 25 83 23 74 121 141 167 143 31 37 40 
14 11 164 116 161 64 106 122 44 165 61 85 62 
15 11 17 133 70 149 142 128 124 2 163 45 85 
16 11 28 177 4 120 87 92 52 73 110 10 21 
17 11 163 15 149 133 70 124 128 104 65 27 142 
18 11 148 76 8 147 179 112 58 155 34 21 52 
19 10 175 81 146 68 73 94 135 41 59 171 
20 11 178 55 61 30 38 165 80 62 114 64 172 
21 11 63 155 110 10 34 52 103 8 4 92 28 
22 11 66 169 90 50 67 170 138 111 9 54 125 
23 11 37 74 39 3 83 121 7 13 40 131 31 
24 11 157 107 151 53 109 72 67 154 88 57 127 
25 11 13 141 143 93 31 40 75 137 83 23 37 
26 11 137 173 93 75 130 162 141 108 77 25 143 
27 11 49 115 113 163 17 15 65 102 149 104 133 
28 11 177 16 4 120 52 110 92 10 21 63 87 
29 11 56 132 152 82 162 77 43 136 75 108 100 
30 11 80 114 38 32 174 172 153 165 126 45 95 
31 11 40 143 141 77 37 75 25 82 3 13 100 
32 11 45 95 174 114 172 153 80 30 142 126 2 
33 11 59 171 41 146 19 175 81 73 94 135 120 
34 11 103 155 21 63 10 110 8 109 88 107 57 
35 11 123 5 156 91 98 71 11 99 106 161 104 
36 11 105 86 100 78 7 139 138 3 111 66 39 
37 11 3 39 23 7 74 40 83 31 121 13 105 
38 11 114 126 30 32 95 80 45 174 172 153 20 
39 11 3 37 7 23 74 83 121 40 105 36 31 
40 11 31 143 37 141 3 100 77 86 82 23 39 
41 11 59 19 175 171 73 33 146 81 16 120 177 
42 11 60 87 96 9 54 125 48 57 92 170 4 
43 11 56 108 29 152 132 11 162 71 82 77 136 
44 11 122 85 158 2 161 116 153 172 142 14 128 
45 11 95 32 174 142 153 172 2 158 80 114 15 
46 8 89 78 139 111 138 136 36 86 
47 11 97 6 167 121 83 131 51 69 84 74 144 
48 7 144 125 42 54 9 96 131 
49 11 27 115 113 163 17 15 65 102 149 104 133 
50 11 90 22 138 169 111 66 117 67 139 170 151 
51 11 69 119 168 97 47 6 140 167 176 84 145 
52 11 21 63 155 179 147 28 177 110 120 8 10 
53 11 67 24 170 157 60 109 151 57 107 169 88 
54 11 9 96 125 60 170 42 48 22 66 169 53 
55 11 61 178 165 62 20 64 14 164 80 30 116 
56 11 29 152 43 132 108 82 162 136 77 75 100 
57 11 88 92 109 10 53 60 87 110 4 24 42 
58 11 112 76 118 18 148 12 166 129 8 147 127 
59 11 171 33 41 146 19 175 81 94 73 135 68 
60 11 96 170 9 54 42 53 125 57 87 67 88 
61 11 55 165 14 64 80 164 116 62 122 161 44 
62 11 64 164 14 55 61 106 116 161 165 156 122 
63 11 21 155 110 10 34 52 103 8 4 92 28 
64 11 164 14 106 62 116 161 61 165 55 122 44 
65 11 104 99 17 124 149 163 128 70 133 15 98 
66 11 22 90 169 50 138 170 67 111 36 125 9 
67 11 169 53 151 157 170 24 22 50 90 107 60 
68 7 135 94 175 19 81 73 145 
69 11 51 168 119 97 47 6 140 176 84 167 145 
70 11 133 128 149 124 85 15 2 142 104 158 44 
71 11 11 91 35 43 108 123 5 156 56 98 99 
72 11 154 107 127 24 129 157 151 109 53 103 34 
73 8 175 68 19 16 41 81 28 87 
74 11 83 23 121 39 37 131 3 167 13 7 6 
75 11 162 77 143 141 93 31 25 40 82 137 132 
76 11 112 58 18 148 118 8 12 129 166 147 179 
77 11 162 75 143 82 141 31 132 40 93 29 25 
78 10 89 139 36 46 111 138 105 86 100 136 
79 11 118 112 58 76 18 134 148 147 179 8 12 
80 11 172 153 174 165 158 30 2 122 32 142 44 
81 10 19 94 146 135 175 68 171 59 73 41 
82 11 132 136 77 100 162 31 40 86 152 29 143 
83 11 121 74 167 23 13 131 6 37 39 47 97 
84 7 145 176 140 144 97 47 6 
85 11 158 2 44 122 142 153 172 70 133 128 174 
86 11 100 105 36 136 78 40 82 3 7 31 37 
87 11 92 4 42 57 60 10 88 16 110 28 96 
88 11 57 109 10 92 103 110 34 24 53 107 4 
89 10 46 78 139 111 138 136 36 86 105 100 
90 11 50 22 138 111 66 169 117 139 67 36 170 
91 11 71 35 123 11 156 5 108 43 98 106 99 
92 11 4 57 10 87 110 88 63 109 21 28 103 
93 11 137 75 141 143 25 162 77 31 13 40 82 
94 8 135 81 68 19 175 146 73 171 
95 11 45 32 174 114 142 126 153 172 2 15 80 
96 11 9 54 125 60 170 42 48 53 22 169 66 
97 11 47 6 167 121 51 69 131 83 84 144 145 
98 11 5 99 156 35 123 161 106 124 104 116 128 
99 11 104 124 98 149 128 65 70 133 5 35 85 
100 11 86 105 36 136 40 78 82 3 7 31 37 
101 11 20 178 38 55 30 61 114 126 165 80 62 
102 11 115 49 27 95 126 163 45 15 114 17 32 
103 11 34 10 155 21 63 110 109 88 8 107 57 
104 11 99 124 149 128 65 70 133 17 98 15 163 
105 11 36 86 100 7 3 78 37 39 136 139 40 
106 11 164 14 64 161 116 156 5 123 98 62 122 
107 11 24 72 157 154 109 151 53 88 127 67 103 
108 11 43 56 29 132 152 162 11 71 75 77 82 
109 11 88 107 24 57 103 53 34 157 10 72 154 
110 11 10 63 21 155 4 92 103 34 88 52 57 
111 10 138 139 90 50 78 117 89 22 36 66 
112 11 58 76 118 18 148 12 166 8 129 147 179 
113 11 27 49 115 163 17 65 15 104 149 102 124 
114 11 126 32 38 95 30 45 174 80 172 153 142 
115 11 49 27 163 113 17 102 15 65 149 95 133 
116 11 161 14 164 122 44 106 64 85 165 158 98 
117 10 50 90 111 138 169 151 67 139 22 157 
118 11 58 112 76 12 166 18 148 79 129 8 147 
119 11 168 51 69 97 47 6 140 167 130 176 160 
120 11 177 28 16 52 179 4 134 147 21 63 110 
121 11 83 74 167 131 23 6 47 13 97 37 39 
122 11 44 85 158 2 116 161 153 172 14 142 80 
123 11 156 5 35 98 106 91 71 161 164 116 14 
124 11 149 128 70 133 104 99 85 15 2 17 44 
125 11 54 9 96 60 170 42 48 66 22 169 53 
126 11 114 38 32 95 30 45 174 80 172 153 142 
127 10 72 129 154 107 151 157 24 109 67 53 
128 11 70 133 124 149 85 104 2 15 158 44 142 
129 11 127 154 72 107 24 151 157 34 103 109 148 
130 11 173 160 119 137 51 93 26 69 168 25 13 
131 10 121 74 144 83 6 167 47 97 23 48 
132 11 82 29 152 77 162 136 56 75 31 100 143 
133 11 70 128 149 124 15 85 2 142 158 104 44 
134 11 179 120 147 52 177 28 155 8 21 63 16 
135 8 94 68 81 19 175 146 73 176 
136 11 82 100 86 132 152 78 105 89 36 29 40 
137 11 93 25 75 141 143 162 173 13 77 26 31 
138 10 111 139 90 50 78 36 66 22 117 89 
139 10 111 138 78 89 36 90 50 46 105 117 
140 10 176 84 145 69 51 97 47 168 144 6 
141 11 143 25 31 75 77 93 40 13 162 137 82 
142 11 2 158 153 174 85 172 45 133 15 70 44 
143 11 141 31 75 40 77 25 162 93 13 82 37 
144 7 48 131 84 145 6 47 97 
145 7 84 176 140 144 97 47 6 
146 11 81 171 19 59 175 94 135 41 68 33 73 
147 11 179 52 8 155 21 63 18 34 110 120 134 
148 11 18 8 76 147 34 155 103 129 179 21 63 
149 11 124 70 128 133 104 15 17 99 85 2 142 
150 6 166 117 127 129 46 12 
151 11 157 24 67 107 72 53 154 127 169 109 117 
152 11 29 132 56 136 82 77 162 43 100 86 78 
153 11 172 174 158 2 80 142 85 122 44 45 32 
154 11 72 107 127 129 24 157 151 109 103 34 88 
155 11 21 63 8 34 103 110 10 52 147 179 4 
156 11 123 5 35 98 106 91 161 164 116 14 71 
157 11 24 151 107 53 67 72 109 154 127 169 88 
158 11 2 85 153 44 122 142 172 174 80 133 70 
159 6 150 46 65 89 11 152 
160 10 130 119 168 173 51 69 97 47 140 6 
161 11 116 14 164 44 122 106 85 64 98 158 2 
162 11 77 75 132 143 82 141 93 31 29 40 137 
163 11 17 27 15 49 115 65 149 133 104 70 124 
164 11 14 116 106 64 161 122 44 165 61 62 98 
165 11 61 80 172 122 14 153 44 116 55 158 174 
166 10 12 58 76 150 112 129 118 127 148 154 
167 11 6 47 121 97 83 74 131 13 23 51 69 
168 11 119 69 51 140 176 97 47 6 84 145 167 
169 11 67 22 50 66 90 170 53 151 157 117 24 
170 11 60 53 96 9 67 169 54 125 22 66 24 
171 11 59 146 33 81 19 41 175 94 135 68 73 
172 11 153 174 80 158 2 142 85 45 122 44 32 
173 11 130 137 26 93 25 160 119 141 13 75 143 
174 11 153 172 80 142 2 45 158 32 85 95 44 
175 10 19 81 68 73 94 146 135 41 59 171 
176 9 140 84 145 144 97 69 47 51 6 
177 11 120 28 16 52 4 21 63 110 179 155 10 
178 11 20 55 61 165 62 30 64 80 14 38 164 
179 11 147 52 8 155 21 63 134 120 177 18 28 
DEPOT_SECTION
   1
   -1
EOF
