NAME :  X-n186-kX-w18-c11.cctp
COMMENT : 	Adapted by Maziero, Usberti and Cavellucci from the Uchoa, Pecin, Pessoa, Poggi, Subramanian, and Vidal (2013)
TYPE :  CCTP
DIMENSION :    132
EDGE_WEIGHT_TYPE : 	EUC_2D	
CAPACITY : 	974
VERTICES_WITHIN_COVERAGE :  11
VERTICES_WITH_DEMAND : 	18
NODE_COORD_SECTION
1 159 917
2 635 200
3 278 907
4 875 93
5 10 732
6 586 657
7 482 75
8 526 176
9 153 622
10 452 945
11 456 137
12 884 968
13 688 793
14 117 915
15 149 746
16 495 325
17 539 967
18 917 58
19 590 316
20 611 998
21 963 878
22 685 124
23 39 781
24 534 29
25 213 837
26 180 943
27 343 949
28 537 248
29 626 147
30 56 596
31 738 977
32 941 193
33 437 386
34 521 398
35 488 747
36 521 778
37 716 652
38 333 12
39 83 719
40 504 704
41 933 949
42 382 130
43 346 2
44 61 985
45 199 892
46 930 154
47 400 95
48 41 527
49 913 885
50 293 784
51 102 962
52 372 866
53 684 899
54 138 705
55 715 745
56 461 953
57 780 165
58 935 38
59 754 709
60 74 778
61 628 487
62 563 171
63 341 955
64 892 938
65 671 542
66 659 306
67 791 763
68 641 347
69 598 253
70 45 585
71 654 70
72 310 854
73 527 787
74 602 66
75 878 10
76 351 797
77 995 987
78 697 200
79 722 246
80 847 208
81 577 295
82 102 478
83 899 185
84 123 601
85 438 547
86 242 769
87 66 727
88 354 338
89 725 735
90 632 849
91 411 272
92 481 165
93 492 78
94 736 937
95 61 688
96 387 244
97 740 242
98 209 571
99 631 208
100 643 521
101 839 54
102 236 704
103 218 618
104 526 667
105 87 981
106 768 197
107 976 122
108 177 712
109 449 902
110 492 63
111 761 122
112 609 621
113 614 240
114 478 599
115 239 636
116 347 199
117 619 620
118 565 769
119 120 871
120 140 957
121 68 736
122 661 294
123 604 737
124 91 956
125 16 561
126 680 254
127 852 978
128 533 757
129 352 957
130 409 939
131 630 902
132 487 220
DEMAND_SECTION
2 74
3 74
4 80
5 85
6 99
7 81
8 85
9 100
10 74
11 57
12 60
13 74
14 60
15 77
16 72
17 87
18 89
19 53
COVERAGE_SECTION
2 11 99 113 29 78 69 126 62 22 79 122 28 
3 11 72 27 63 45 129 25 52 26 50 76 130 
4 11 101 18 58 46 75 83 107 80 111 57 32 
5 11 87 23 121 95 39 60 54 15 30 70 108 
6 10 112 117 104 123 40 128 118 114 37 35 
7 11 93 110 11 24 47 92 8 42 74 62 132 
8 11 62 92 132 28 11 29 93 69 113 7 99 
9 11 84 103 98 54 115 108 30 95 70 102 39 
10 10 56 109 130 17 129 27 63 52 20 72 
11 11 92 7 93 47 42 8 110 132 62 116 96 
12 9 64 127 41 49 77 21 31 94 53 
13 11 55 89 90 123 53 59 67 131 118 37 94 
14 11 119 120 51 124 26 105 45 44 25 60 23 
15 11 54 108 39 60 121 87 86 102 95 25 23 
16 11 34 33 81 28 19 91 132 69 96 88 113 
17 11 20 56 10 109 131 130 90 53 73 129 36 
18 11 58 4 75 101 107 46 83 32 80 111 57 
19 11 81 68 69 66 122 113 28 16 34 126 99 
20 11 17 131 53 31 94 90 56 10 109 130 13 
21 7 49 41 64 77 12 127 67 
22 11 71 29 111 78 2 99 74 57 106 79 97 
23 11 60 121 5 87 39 95 15 119 54 108 14 
24 11 110 93 7 74 71 11 62 92 8 47 29 
25 11 45 86 3 50 72 119 15 26 14 108 102 
26 11 120 45 14 51 124 119 105 3 25 44 72 
27 11 63 129 130 3 52 72 10 109 56 76 45 
28 11 132 69 81 8 113 62 19 16 92 99 2 
29 11 2 99 22 62 71 74 78 113 8 69 126 
30 11 70 125 84 48 95 9 39 82 87 54 121 
31 11 94 53 127 20 131 12 64 90 13 41 49 
32 9 46 83 107 80 4 18 58 57 101 
33 9 16 34 88 91 96 85 81 19 28 
34 11 16 33 19 81 68 61 28 69 66 91 85 
35 8 36 40 128 73 118 104 123 6 
36 10 73 128 35 118 40 123 104 90 6 109 
37 7 59 89 55 117 112 65 6 
38 5 43 47 42 7 110 
39 11 87 121 95 54 60 15 5 23 108 9 84 
40 9 104 35 128 36 73 118 6 123 114 
41 8 64 12 49 77 21 127 31 94 
42 9 47 11 116 92 7 96 93 38 110 
43 5 38 47 42 7 110 
44 11 105 124 51 120 14 26 119 45 23 60 25 
45 11 26 25 3 119 14 120 72 51 124 86 50 
46 11 32 83 107 4 18 80 58 101 57 75 106 
47 9 42 11 7 93 110 38 92 43 116 
48 8 125 70 30 82 84 9 95 98 
49 7 21 64 41 12 127 77 67 
50 9 86 76 72 25 102 52 3 108 45 
51 11 124 105 120 44 14 26 119 45 25 3 60 
52 10 72 76 130 109 27 129 63 3 10 50 
53 11 131 94 90 31 13 20 55 17 89 67 118 
54 11 108 15 39 87 121 95 9 60 102 84 103 
55 7 89 59 13 67 37 123 90 
56 11 10 109 130 17 129 27 63 52 20 131 73 
57 10 106 111 80 97 78 79 22 4 83 101 
58 11 18 75 4 107 101 46 83 32 80 111 57 
59 5 89 55 67 37 13 
60 11 23 121 87 39 5 15 95 54 119 108 14 
61 7 100 65 117 112 34 68 6 
62 11 8 29 99 2 28 92 113 69 132 11 74 
63 11 27 129 130 3 52 72 10 56 109 45 76 
64 9 12 41 49 127 21 77 94 31 67 
65 6 100 61 117 112 37 6 
66 9 122 68 126 19 113 69 81 79 99 
67 5 59 89 55 13 37 
68 9 66 122 19 81 126 69 113 79 34 
69 11 113 81 99 28 19 2 122 66 126 62 68 
70 11 30 125 48 84 95 9 82 39 87 5 54 
71 11 74 22 29 111 24 2 62 78 99 57 93 
72 10 3 52 76 50 25 27 63 86 129 45 
73 10 36 128 118 35 40 123 104 90 109 6 
74 11 71 24 29 22 110 93 62 7 8 2 99 
75 11 101 18 58 4 107 46 111 83 57 32 80 
76 8 50 72 52 86 3 25 109 35 
77 8 41 12 21 64 49 127 31 94 
78 10 79 126 97 2 99 106 22 29 57 113 
79 9 97 126 78 106 122 66 2 99 57 
80 9 83 57 106 32 46 97 4 111 79 
81 11 19 69 28 113 68 66 122 16 99 2 126 
82 7 48 125 70 84 30 98 9 
83 10 32 46 80 4 107 57 18 106 101 58 
84 11 9 30 70 98 103 54 95 48 125 115 108 
85 7 114 104 33 40 34 6 112 
86 9 50 102 25 108 15 72 76 54 45 
87 11 121 39 95 60 5 23 54 15 108 30 9 
88 6 91 33 96 116 16 34 
89 6 55 59 13 67 37 123 
90 11 131 53 13 118 123 73 36 55 128 94 89 
91 11 96 88 132 116 16 33 28 92 11 42 8 
92 11 11 8 132 62 93 7 28 110 42 47 96 
93 11 7 110 24 11 92 47 8 74 62 42 132 
94 11 31 53 131 127 90 20 12 13 64 67 49 
95 11 39 87 121 5 54 60 30 23 70 15 84 
96 10 91 116 88 132 42 92 11 16 28 47 
97 9 79 106 78 126 57 122 66 80 2 
98 9 103 115 9 84 102 82 108 54 30 
99 11 2 113 69 29 78 126 62 122 79 22 28 
100 6 65 61 117 112 6 37 
101 11 4 75 18 58 111 57 46 83 107 80 106 
102 9 108 86 115 103 15 50 54 9 25 
103 9 115 98 9 102 84 108 54 15 86 
104 11 40 6 114 35 128 112 117 123 118 36 73 
105 11 51 124 44 120 14 26 119 45 25 60 3 
106 10 57 97 79 78 111 80 126 22 83 2 
107 10 46 32 18 58 83 4 75 101 80 57 
108 11 54 15 102 86 9 39 115 103 87 121 95 
109 10 10 56 130 52 17 129 27 63 73 36 
110 11 93 7 24 11 47 92 74 8 42 62 132 
111 11 57 106 22 78 101 4 71 80 97 79 29 
112 9 117 6 104 65 100 37 123 114 40 
113 11 69 99 2 81 126 122 28 19 66 62 78 
114 7 85 104 40 6 112 117 35 
115 9 103 102 98 9 108 84 54 86 15 
116 8 96 42 91 47 11 92 88 132 
117 9 112 6 65 37 100 104 123 61 40 
118 10 128 73 36 123 35 40 90 104 6 13 
119 11 14 45 120 124 51 26 25 60 105 23 15 
120 11 51 26 14 124 105 44 45 119 25 3 60 
121 11 87 39 60 95 23 5 54 15 108 30 9 
122 9 66 126 68 113 19 69 79 81 99 
123 11 118 128 6 73 36 13 40 104 55 90 35 
124 11 51 105 44 14 120 26 119 45 25 60 23 
125 10 70 48 30 84 82 95 9 5 39 87 
126 9 79 122 66 78 97 99 113 2 69 
127 10 12 64 41 49 31 94 77 21 53 67 
128 10 36 73 118 35 40 123 104 6 90 112 
129 11 63 27 130 3 52 10 56 72 109 76 45 
130 11 10 56 109 129 27 63 52 72 17 3 76 
131 11 90 53 20 17 94 13 31 118 73 36 123 
132 11 92 28 8 11 62 91 96 16 69 81 113 
DEPOT_SECTION
   1
   -1
EOF
