NAME :  X-n181-kX-w36-c11.cctp
COMMENT : 	Adapted by Maziero, Usberti and Cavellucci from the Uchoa, Pecin, Pessoa, Poggi, Subramanian, and Vidal (2013)
TYPE :  CCTP
DIMENSION :    173
EDGE_WEIGHT_TYPE : 	EUC_2D	
CAPACITY : 	8
VERTICES_WITHIN_COVERAGE :  11
VERTICES_WITH_DEMAND : 	36
NODE_COORD_SECTION
1 894 510
2 463 887
3 704 177
4 424 368
5 420 800
6 492 610
7 607 749
8 455 819
9 343 457
10 387 275
11 466 653
12 607 348
13 428 546
14 764 848
15 403 298
16 315 738
17 457 902
18 597 584
19 219 552
20 526 359
21 414 340
22 398 401
23 579 780
24 518 563
25 531 597
26 501 827
27 687 200
28 670 234
29 488 981
30 673 222
31 359 256
32 537 675
33 788 95
34 433 820
35 397 770
36 444 799
37 367 288
38 253 774
39 570 853
40 379 843
41 388 736
42 565 785
43 608 193
44 430 657
45 775 142
46 721 600
47 434 876
48 683 311
49 592 740
50 500 315
51 428 915
52 710 258
53 709 272
54 426 803
55 409 639
56 535 572
57 502 916
58 528 728
59 351 371
60 657 782
61 493 265
62 751 112
63 469 594
64 720 165
65 463 624
66 751 96
67 496 833
68 565 459
69 471 361
70 448 969
71 361 559
72 529 582
73 515 809
74 429 879
75 483 715
76 264 574
77 793 916
78 448 386
79 325 199
80 327 370
81 484 861
82 432 873
83 412 853
84 641 155
85 712 163
86 456 612
87 480 400
88 700 165
89 690 213
90 478 811
91 665 56
92 430 368
93 414 943
94 709 235
95 296 297
96 380 773
97 459 423
98 498 910
99 464 939
100 677 704
101 420 381
102 554 512
103 486 614
104 584 809
105 429 336
106 461 529
107 470 360
108 494 769
109 407 661
110 687 711
111 454 745
112 593 471
113 537 648
114 666 111
115 452 797
116 430 742
117 481 958
118 636 741
119 405 576
120 666 234
121 603 683
122 473 466
123 611 739
124 342 688
125 446 280
126 496 418
127 711 27
128 791 198
129 660 828
130 414 839
131 504 592
132 665 921
133 448 320
134 550 637
135 637 758
136 743 166
137 504 869
138 708 432
139 664 343
140 499 493
141 878 706
142 396 920
143 728 203
144 367 739
145 444 808
146 755 303
147 445 864
148 561 848
149 597 660
150 386 700
151 652 240
152 344 301
153 209 369
154 571 812
155 454 353
156 497 781
157 697 220
158 296 787
159 517 506
160 409 893
161 518 788
162 719 99
163 607 654
164 218 312
165 533 847
166 523 938
167 598 705
168 481 772
169 461 431
170 375 722
171 460 681
172 524 610
173 771 752
DEMAND_SECTION
2 1
3 1
4 1
5 1
6 1
7 1
8 1
9 1
10 1
11 1
12 1
13 1
14 1
15 1
16 1
17 1
18 1
19 1
20 1
21 1
22 1
23 1
24 1
25 1
26 1
27 1
28 1
29 1
30 1
31 1
32 1
33 1
34 1
35 1
36 1
37 1
COVERAGE_SECTION
2 11 17 147 47 81 82 74 98 51 137 57 99 
3 11 88 85 64 27 143 89 136 157 30 94 28 
4 11 92 101 21 78 105 155 22 107 69 133 87 
5 11 54 34 36 145 115 35 130 8 96 83 40 
6 11 103 131 63 65 172 86 25 72 11 24 56 
7 11 123 49 118 135 23 167 42 60 104 121 154 
8 11 145 34 115 36 90 54 5 67 130 147 26 
9 11 22 59 80 71 101 4 97 169 13 92 78 
10 11 37 15 31 152 125 21 105 133 95 79 4 
11 11 65 171 44 86 103 6 55 63 109 75 113 
12 11 139 20 48 50 151 68 112 53 120 28 126 
13 11 106 119 63 71 86 65 103 131 140 6 24 
14 10 77 173 129 132 60 135 110 118 100 141 
15 11 10 37 21 105 125 133 152 31 4 92 155 
16 11 144 158 124 170 38 41 96 150 35 116 109 
17 11 2 51 47 74 82 99 147 98 57 81 160 
18 11 56 25 72 134 163 149 172 24 102 113 131 
19 11 76 71 9 124 153 119 13 16 55 80 109 
20 10 50 69 107 87 126 155 12 78 133 97 
21 11 105 4 92 133 101 155 15 78 107 69 22 
22 11 101 4 92 78 59 21 97 169 105 155 80 
23 11 42 104 154 7 49 123 135 161 118 73 148 
24 11 56 72 131 25 172 6 159 63 103 102 106 
25 11 72 172 56 131 24 6 134 103 113 63 18 
26 11 67 73 90 81 165 137 161 156 8 115 108 
27 11 89 157 30 3 88 28 120 94 143 85 64 
28 11 120 30 151 89 157 27 94 52 53 3 143 
29 11 117 70 99 166 57 98 93 17 51 2 142 
30 11 28 120 89 157 27 151 94 52 3 143 53 
31 11 37 10 152 15 79 95 125 21 105 133 59 
32 11 113 134 58 149 121 172 75 167 163 11 171 
33 11 66 62 45 162 136 64 85 127 128 88 3 
34 11 145 54 8 5 36 130 115 83 90 147 82 
35 11 96 41 5 116 144 54 170 36 145 115 34 
36 11 115 145 54 8 5 34 90 168 130 35 111 
37 11 10 152 31 15 21 95 105 125 59 133 80 
38 9 158 16 144 124 96 170 41 35 40 
39 10 148 165 154 104 42 137 73 23 26 67 
40 8 83 130 160 5 34 82 54 74 
41 11 170 144 35 150 96 116 124 111 5 16 54 
42 11 23 154 104 161 49 7 73 148 123 39 58 
43 11 84 151 30 120 28 27 89 157 88 3 114 
44 11 109 55 11 171 65 86 150 103 63 6 75 
45 11 62 136 33 66 128 64 85 162 143 88 3 
46 10 100 110 18 163 149 121 173 167 118 138 
47 10 82 74 147 160 2 83 17 51 130 81 
48 11 139 53 52 146 151 28 120 94 12 30 157 
49 11 7 123 167 23 118 135 42 121 58 104 154 
50 11 61 20 133 69 107 155 125 105 87 78 92 
51 10 160 93 17 142 74 47 82 99 2 147 
52 11 53 94 157 28 89 120 30 143 48 151 27 
53 11 52 94 48 157 28 146 120 30 89 151 143 
54 11 5 34 36 145 115 8 130 35 83 90 96 
55 11 109 44 86 65 11 119 150 171 63 103 124 
56 11 72 24 25 131 172 6 18 102 103 134 159 
57 11 98 166 99 17 117 137 2 81 29 51 70 
58 11 75 108 32 156 161 168 49 42 23 167 111 
59 11 80 22 21 101 152 4 92 37 105 9 15 
60 11 135 118 129 7 123 49 110 23 104 100 154 
61 11 125 50 133 15 105 155 69 107 20 10 21 
62 11 66 162 45 33 136 64 85 88 3 114 127 
63 11 86 103 6 65 131 172 24 11 72 25 13 
64 11 85 3 88 136 143 27 89 45 157 62 162 
65 11 86 103 11 63 6 44 131 55 171 172 109 
66 11 62 162 33 45 136 64 85 127 88 114 3 
67 11 26 90 81 73 137 165 8 161 156 115 145 
68 10 112 102 159 140 126 122 87 20 169 97 
69 11 107 155 78 87 92 133 4 105 50 20 101 
70 11 99 117 29 93 51 17 142 57 98 166 2 
71 11 119 13 55 76 9 106 86 109 63 44 65 
72 11 56 25 24 131 172 6 103 134 63 113 18 
73 11 161 26 67 156 90 165 108 168 42 154 148 
74 9 47 82 147 160 83 2 17 51 130 
75 11 171 111 58 108 168 116 11 32 156 44 161 
76 11 19 71 124 9 119 55 13 109 16 150 170 
77 10 14 132 129 173 60 135 141 110 39 104 
78 11 92 101 4 69 107 155 87 97 169 22 105 
79 11 31 10 37 95 152 15 125 164 21 80 105 
80 11 59 152 22 95 9 37 21 101 4 92 15 
81 11 137 67 2 26 147 17 90 8 98 165 47 
82 10 47 74 147 83 160 2 17 130 51 34 
83 9 130 82 74 47 40 147 34 160 54 
84 11 43 114 88 27 3 85 30 89 64 120 28 
85 11 64 88 3 136 143 27 89 157 62 162 45 
86 11 65 63 103 6 11 44 131 55 119 172 109 
87 10 126 97 78 169 69 107 155 92 20 101 
88 11 85 3 64 27 136 143 89 157 84 30 114 
89 11 157 27 30 28 94 120 3 143 151 52 88 
90 11 8 26 67 115 145 36 156 73 168 108 34 
91 11 127 114 162 66 84 62 88 85 64 3 33 
92 11 4 101 78 155 21 105 107 69 22 133 87 
93 10 142 51 70 99 160 17 74 117 47 82 
94 11 157 52 89 53 143 30 28 27 120 151 3 
95 11 152 37 31 80 164 59 10 79 15 153 21 
96 11 35 144 41 5 170 54 116 36 40 34 145 
97 10 169 87 126 78 122 101 92 69 107 4 
98 11 57 166 137 2 17 99 81 117 51 147 29 
99 11 117 70 17 51 57 98 29 93 2 166 74 
100 10 110 118 135 123 121 167 60 7 163 149 
101 11 4 92 78 22 21 155 105 107 69 97 87 
102 11 159 68 112 140 24 56 72 18 25 122 131 
103 11 6 65 63 131 86 172 11 25 72 24 113 
104 11 154 23 42 148 39 7 165 49 73 161 135 
105 11 21 133 155 4 92 15 101 107 69 78 125 
106 11 13 140 159 122 63 24 119 131 86 56 72 
107 11 69 155 78 87 92 133 4 105 50 101 20 
108 11 156 168 161 73 90 111 115 58 75 26 36 
109 11 55 44 150 171 11 65 86 170 124 41 116 
110 10 100 118 135 60 123 7 121 167 173 163 
111 11 116 168 75 108 115 36 156 35 54 145 171 
112 10 68 102 159 140 126 18 56 24 122 138 
113 11 134 32 172 25 6 103 149 131 72 163 11 
114 11 84 162 91 88 85 3 64 62 66 27 127 
115 11 36 145 8 54 34 90 5 168 156 108 111 
116 11 111 41 35 5 36 75 96 115 168 170 54 
117 11 29 99 70 57 166 98 17 51 93 2 137 
118 11 135 123 7 49 60 167 100 110 121 23 42 
119 11 13 71 86 55 63 106 65 44 109 103 6 
120 11 28 30 151 89 157 27 94 52 53 3 143 
121 11 167 149 163 123 49 7 32 118 134 113 100 
122 10 140 169 97 126 159 106 87 78 13 68 
123 11 7 49 118 135 167 23 121 60 42 100 104 
124 11 150 170 16 144 41 109 55 44 96 35 116 
125 11 133 15 61 10 105 50 21 155 37 107 69 
126 10 87 97 169 122 78 69 107 20 140 155 
127 11 91 162 66 62 114 33 45 85 64 88 136 
128 11 45 136 143 64 85 3 94 62 88 157 52 
129 10 60 135 104 118 154 39 132 23 7 148 
130 10 83 34 40 54 82 5 147 47 74 145 
131 11 6 25 72 172 103 24 63 56 65 86 134 
132 10 129 39 14 148 77 104 60 166 154 165 
133 11 105 155 21 125 107 69 15 92 50 4 78 
134 11 113 172 32 25 149 72 163 6 131 56 103 
135 11 118 7 60 123 49 23 167 100 110 104 129 
136 11 64 85 45 143 3 88 62 128 27 66 89 
137 11 81 165 67 98 26 2 57 17 147 73 148 
138 11 139 112 48 12 146 68 53 46 52 102 18 
139 11 48 12 53 52 138 146 151 28 120 94 30 
140 10 159 122 106 102 24 169 68 126 97 56 
141 10 173 14 46 110 100 77 60 118 135 129 
142 8 93 160 51 74 47 82 17 83 
143 11 3 157 94 64 89 136 27 85 88 30 52 
144 11 170 41 96 35 150 16 124 116 5 158 54 
145 11 36 115 8 34 54 5 90 130 168 83 147 
146 11 53 52 48 94 139 157 143 28 89 128 120 
147 11 47 82 74 2 83 81 17 130 8 34 160 
148 10 39 165 154 104 73 137 42 26 67 23 
149 11 163 121 167 134 113 32 18 49 123 172 7 
150 11 170 41 144 109 124 116 44 55 35 96 171 
151 11 120 28 30 89 157 27 94 52 43 53 48 
152 11 37 31 95 10 15 59 80 21 105 4 79 
153 11 164 95 80 59 152 9 37 19 31 22 10 
154 11 104 42 23 148 39 165 73 161 26 7 49 
155 11 107 69 92 105 4 78 133 21 101 87 50 
156 11 108 168 161 73 90 26 115 67 36 111 8 
157 11 89 94 27 30 28 120 143 52 3 151 53 
158 9 38 16 96 144 40 35 170 41 124 
159 10 140 102 24 122 106 68 56 72 112 131 
160 9 74 51 47 82 142 83 147 17 93 
161 11 73 156 108 168 26 90 42 67 154 58 165 
162 11 66 62 114 85 64 33 88 91 45 136 127 
163 11 149 121 167 134 113 18 32 123 100 49 118 
164 11 153 95 80 152 59 37 31 79 10 15 9 
165 11 148 137 39 26 67 73 81 154 161 104 90 
166 10 57 98 117 29 99 137 17 2 70 81 
167 11 121 49 123 7 149 118 163 135 32 58 23 
168 11 108 156 111 115 90 161 36 73 145 8 75 
169 10 97 87 122 126 78 101 22 92 69 107 
170 11 41 144 150 124 96 35 116 16 109 111 44 
171 11 11 44 75 65 109 111 55 116 86 103 150 
172 11 25 131 72 6 134 103 56 113 24 63 65 
173 10 110 14 100 141 60 135 118 129 46 123 
DEPOT_SECTION
   1
   -1
EOF
