NAME :  X-n153-kX-w30-c11.cctp
COMMENT : 	Adapted by Maziero, Usberti and Cavellucci from the Uchoa, Pecin, Pessoa, Poggi, Subramanian, and Vidal (2013)
TYPE :  CCTP
DIMENSION :    137
EDGE_WEIGHT_TYPE : 	EUC_2D	
CAPACITY : 	144
VERTICES_WITHIN_COVERAGE :  11
VERTICES_WITH_DEMAND : 	30
NODE_COORD_SECTION
1 500 500
2 238 446
3 749 750
4 960 879
5 955 866
6 202 336
7 720 788
8 695 743
9 739 603
10 217 419
11 922 870
12 703 733
13 843 856
14 233 682
15 259 459
16 226 305
17 732 722
18 747 858
19 949 784
20 904 891
21 880 795
22 591 661
23 984 926
24 246 438
25 183 501
26 546 966
27 742 771
28 110 698
29 193 441
30 215 388
31 232 516
32 907 954
33 133 526
34 750 680
35 103 488
36 663 731
37 784 686
38 754 821
39 280 456
40 236 424
41 287 454
42 598 728
43 996 821
44 744 473
45 887 907
46 286 422
47 272 484
48 939 892
49 631 723
50 769 768
51 977 840
52 639 736
53 727 765
54 950 896
55 206 433
56 207 535
57 164 586
58 754 691
59 662 768
60 348 308
61 254 455
62 130 482
63 764 726
64 713 758
65 965 934
66 693 734
67 890 801
68 727 808
69 955 756
70 249 552
71 188 479
72 187 506
73 901 767
74 664 770
75 558 530
76 714 742
77 979 683
78 200 416
79 294 391
80 240 449
81 735 633
82 944 952
83 157 421
84 768 750
85 813 936
86 534 720
87 986 914
88 963 798
89 175 397
90 972 940
91 184 561
92 859 770
93 661 762
94 298 469
95 14 438
96 275 561
97 856 919
98 219 453
99 272 465
100 294 296
101 754 775
102 229 467
103 946 778
104 711 803
105 858 879
106 665 347
107 981 802
108 924 973
109 267 545
110 760 764
111 942 894
112 219 465
113 665 756
114 92 212
115 920 940
116 937 814
117 281 489
118 669 647
119 308 309
120 998 876
121 900 910
122 753 900
123 873 706
124 209 467
125 991 966
126 766 729
127 897 957
128 224 368
129 707 703
130 280 450
131 252 462
132 717 683
133 458 236
134 278 356
135 144 446
136 991 818
137 831 812
DEMAND_SECTION
2 92
3 90
4 65
5 80
6 69
7 64
8 73
9 96
10 74
11 81
12 67
13 58
14 79
15 85
16 57
17 90
18 84
19 84
20 92
21 87
22 95
23 66
24 86
25 90
26 94
27 84
28 98
29 65
30 68
31 73
COVERAGE_SECTION
2 11 80 24 61 98 131 40 102 15 112 10 55 
3 11 110 84 27 101 50 53 126 63 17 76 64 
4 11 5 54 111 48 120 11 51 87 23 65 20 
5 11 4 54 48 111 11 51 120 116 20 87 136 
6 11 16 128 30 89 134 78 10 40 83 55 100 
7 11 104 68 53 27 64 101 76 38 110 3 8 
8 11 66 12 76 64 113 36 53 93 59 74 129 
9 8 81 34 118 132 58 37 129 17 
10 11 78 55 40 30 29 2 98 24 80 112 89 
11 11 20 48 111 5 54 4 121 45 116 51 105 
12 11 66 8 76 64 129 17 36 53 113 3 93 
13 11 105 137 97 45 20 21 67 121 11 85 92 
14 11 57 28 96 70 91 109 56 31 72 33 25 
15 11 61 131 99 39 80 130 2 24 41 47 102 
16 11 6 128 100 134 119 30 89 79 10 78 40 
17 11 76 12 129 63 3 126 58 64 66 132 8 
18 11 38 122 68 104 7 101 27 50 53 110 13 
19 11 103 88 69 116 107 73 136 43 67 51 21 
20 11 121 45 11 48 111 54 105 115 97 4 5 
21 11 67 92 73 137 116 103 19 13 88 69 11 
22 11 42 49 118 86 52 36 113 93 129 66 59 
23 11 87 90 65 125 54 82 120 4 111 48 115 
24 11 2 80 40 61 15 131 98 102 10 130 99 
25 11 72 71 56 124 31 112 33 62 102 91 98 
26 11 122 18 59 74 104 93 68 113 42 86 52 
27 11 101 53 110 3 50 7 64 84 68 76 104 
28 11 14 57 91 33 56 70 72 25 35 96 62 
29 11 55 78 98 124 10 112 71 83 102 2 40 
30 11 128 10 78 89 40 55 6 29 24 2 98 
31 11 56 70 109 72 102 25 47 112 124 117 71 
32 11 127 115 108 82 121 45 65 97 20 90 111 
33 11 62 35 25 72 91 57 71 56 135 124 31 
34 8 58 132 37 17 63 81 129 126 
35 11 62 33 135 25 71 72 83 29 95 124 91 
36 11 52 113 66 93 49 8 59 74 12 76 129 
37 6 58 34 63 126 17 84 
38 11 68 18 101 7 104 27 50 110 53 3 84 
39 11 130 41 99 15 94 61 47 131 117 46 24 
40 11 24 10 2 80 55 98 61 78 131 15 30 
41 11 39 130 94 99 15 46 61 47 117 131 24 
42 11 49 52 86 36 22 93 113 59 74 66 8 
43 11 136 107 51 88 120 116 19 5 103 4 69 
44 6 9 106 81 118 75 34 
45 11 121 20 97 105 115 11 32 127 48 111 54 
46 11 130 41 79 39 24 99 15 61 94 40 131 
47 11 117 99 15 39 94 131 41 61 130 102 80 
48 11 111 54 4 11 5 20 121 65 87 115 45 
49 11 52 36 42 113 93 59 74 66 8 12 22 
50 10 110 101 84 3 27 126 53 63 7 38 
51 11 136 43 5 107 120 4 88 116 54 11 19 
52 11 49 36 113 93 59 42 74 66 8 12 76 
53 11 27 64 7 76 3 101 110 8 12 104 50 
54 11 111 48 4 5 11 87 65 23 20 90 120 
55 11 29 10 78 98 40 124 2 112 80 24 102 
56 11 31 72 91 25 70 71 109 57 124 102 112 
57 11 91 56 33 72 25 70 31 62 71 109 96 
58 10 34 37 63 17 132 126 129 3 81 84 
59 11 74 93 113 36 52 8 66 64 12 49 76 
60 9 119 100 134 79 16 46 133 128 6 
61 11 15 131 80 2 24 99 39 130 102 41 47 
62 11 35 135 33 25 71 72 83 29 124 55 112 
63 10 126 84 3 17 58 110 50 37 34 27 
64 11 53 76 8 12 7 66 27 3 17 101 104 
65 11 90 23 82 87 54 125 115 111 48 4 108 
66 11 8 12 76 36 64 129 113 17 93 53 59 
67 11 21 73 92 116 137 19 103 13 88 11 69 
68 11 104 7 38 27 53 101 64 18 110 50 3 
69 11 103 19 88 107 73 116 136 43 77 67 21 
70 11 109 96 31 56 91 117 47 72 25 102 99 
71 11 25 124 72 112 29 98 102 55 135 31 62 
72 11 25 71 56 124 31 112 91 102 33 62 98 
73 10 21 67 92 103 19 69 116 123 88 137 
74 11 59 93 113 36 8 52 66 64 12 49 76 
75 9 22 118 86 9 44 42 81 49 106 
76 11 12 64 8 66 53 17 3 27 129 7 110 
77 7 69 103 19 123 73 88 107 
78 11 10 55 29 89 30 40 98 83 2 24 80 
79 10 46 134 130 41 39 24 40 128 61 15 
80 11 2 24 61 131 15 98 102 40 112 99 124 
81 8 9 34 132 58 118 37 129 17 
82 11 115 65 108 90 32 127 23 125 54 87 111 
83 11 135 89 29 78 55 10 71 30 62 124 98 
84 10 110 50 3 126 63 101 27 53 17 76 
85 11 97 122 105 45 13 127 121 32 18 20 115 
86 11 42 22 49 52 36 93 113 59 74 118 66 
87 11 23 65 90 54 120 4 111 48 125 5 82 
88 11 107 19 103 116 136 43 69 51 5 73 67 
89 11 83 78 30 10 29 55 128 135 6 40 98 
90 11 65 23 82 87 125 54 115 111 48 108 4 
91 11 57 56 72 25 33 31 70 71 109 96 62 
92 8 21 73 67 137 123 13 103 50 
93 11 59 113 74 36 52 8 66 49 12 64 76 
94 9 41 39 99 117 130 47 15 61 131 
95 11 35 62 135 83 33 89 29 71 25 72 78 
96 11 109 70 31 117 56 47 91 94 99 131 15 
97 11 45 105 121 85 20 127 32 13 115 11 48 
98 11 112 102 124 2 80 55 29 24 10 40 131 
99 11 39 15 130 41 47 131 61 94 117 80 24 
100 10 119 60 134 16 79 6 128 30 46 40 
101 11 27 110 50 3 53 84 7 68 64 38 126 
102 11 112 98 124 80 2 131 61 15 24 55 71 
103 11 19 69 88 116 107 73 136 67 43 21 51 
104 11 7 68 53 27 64 38 101 74 59 76 8 
105 11 13 45 97 20 121 11 137 85 48 67 111 
106 8 44 75 133 9 81 118 60 22 
107 11 88 136 43 19 51 103 116 69 5 120 4 
108 11 32 82 127 115 65 90 121 125 23 45 54 
109 11 96 70 31 117 47 56 99 94 131 91 15 
110 11 50 101 84 3 27 53 126 63 7 64 17 
111 11 48 54 4 5 11 20 121 65 87 115 23 
112 11 102 124 98 80 2 131 71 29 55 61 24 
113 11 93 59 74 36 8 52 66 12 49 64 76 
114 11 16 6 89 128 30 83 100 78 134 119 95 
115 11 32 82 127 108 121 65 45 111 20 48 90 
116 11 88 19 103 107 51 67 136 5 11 43 73 
117 11 47 94 99 39 41 15 130 131 61 31 102 
118 11 132 81 129 22 9 36 49 34 66 12 52 
119 10 100 60 134 16 79 128 6 46 30 40 
120 11 4 87 51 5 23 54 43 136 111 48 65 
121 11 45 20 115 48 32 97 111 11 127 54 105 
122 11 18 85 38 68 13 97 104 105 7 137 101 
123 3 92 73 21 
124 11 112 98 102 71 29 55 2 80 25 131 72 
125 11 90 23 65 82 87 108 115 54 32 111 48 
126 10 63 84 3 17 110 50 58 37 27 101 
127 11 32 115 108 82 121 45 97 20 65 48 90 
128 11 30 6 10 78 134 40 89 16 55 24 79 
129 11 132 12 17 66 76 8 34 58 36 64 63 
130 11 39 41 99 15 61 94 46 131 47 24 117 
131 11 61 15 80 99 2 102 24 39 47 130 112 
132 11 129 34 58 17 12 81 66 76 118 8 63 
133 8 60 119 100 134 79 106 16 46 
134 11 79 128 119 100 46 30 16 6 40 60 10 
135 11 83 62 29 71 89 35 55 78 25 124 72 
136 11 43 107 51 88 19 116 120 5 103 4 69 
137 10 13 92 21 67 105 50 38 73 101 110 
DEPOT_SECTION
   1
   -1
EOF
