NAME :  X-n157-kX-w31-c7.cctp
COMMENT : 	Adapted by Maziero, Usberti and Cavellucci from the Uchoa, Pecin, Pessoa, Poggi, Subramanian, and Vidal (2013)
TYPE :  CCTP
DIMENSION :    140
EDGE_WEIGHT_TYPE : 	EUC_2D	
CAPACITY : 	12
VERTICES_WITHIN_COVERAGE :  7
VERTICES_WITH_DEMAND : 	31
NODE_COORD_SECTION
1 769 259
2 91 377
3 108 338
4 816 567
5 725 520
6 117 357
7 766 559
8 90 417
9 255 430
10 63 384
11 35 276
12 122 318
13 85 322
14 267 348
15 937 546
16 865 461
17 863 547
18 724 431
19 148 144
20 243 571
21 871 512
22 782 596
23 77 272
24 776 650
25 166 371
26 69 239
27 972 607
28 320 521
29 91 434
30 20 305
31 81 271
32 776 669
33 830 553
34 160 202
35 741 527
36 877 561
37 587 551
38 808 435
39 26 278
40 58 394
41 755 444
42 817 557
43 165 367
44 216 510
45 124 330
46 132 369
47 915 492
48 753 657
49 161 319
50 37 227
51 770 524
52 745 582
53 695 469
54 124 355
55 11 283
56 258 406
57 72 335
58 713 399
59 214 344
60 213 349
61 864 577
62 98 440
63 701 512
64 884 559
65 842 518
66 125 379
67 352 410
68 825 592
69 93 252
70 863 511
71 98 347
72 115 326
73 71 392
74 96 248
75 65 404
76 75 342
77 140 300
78 129 340
79 129 273
80 846 696
81 109 463
82 139 356
83 154 322
84 231 323
85 115 394
86 844 558
87 98 454
88 739 568
89 179 443
90 764 764
91 844 554
92 703 319
93 863 569
94 72 473
95 632 575
96 823 578
97 26 42
98 47 381
99 71 336
100 754 484
101 172 296
102 28 310
103 754 579
104 87 382
105 866 481
106 93 337
107 942 567
108 788 567
109 824 451
110 98 384
111 104 370
112 48 462
113 952 629
114 239 324
115 747 605
116 136 460
117 748 624
118 43 268
119 792 597
120 95 352
121 109 413
122 67 224
123 104 386
124 817 672
125 183 360
126 922 652
127 779 419
128 863 721
129 40 456
130 66 395
131 862 465
132 383 357
133 307 434
134 233 421
135 329 280
136 623 554
137 103 349
138 736 688
139 75 266
140 174 406
DEMAND_SECTION
2 1
3 1
4 1
5 1
6 1
7 1
8 1
9 1
10 1
11 1
12 1
13 1
14 1
15 1
16 1
17 1
18 1
19 1
20 1
21 1
22 1
23 1
24 1
25 1
26 1
27 1
28 1
29 1
30 1
31 1
32 1
COVERAGE_SECTION
2 6 104 110 111 123 73 120 
3 7 137 71 72 106 45 120 6 
4 7 42 96 33 68 108 86 91 
5 7 35 63 51 100 88 7 53 
6 7 54 137 111 46 3 71 78 
7 7 103 108 88 52 51 22 35 
8 7 29 121 62 75 73 130 85 
9 7 56 134 133 89 14 140 44 
10 7 40 73 130 98 75 104 2 
11 7 39 118 55 30 102 139 23 
12 7 72 45 78 3 77 83 106 
13 7 106 57 99 76 3 71 72 
14 7 114 84 59 60 56 134 9 
15 7 107 64 47 36 27 17 21 
16 7 131 105 109 70 21 47 65 
17 7 36 91 86 93 64 61 33 
18 7 41 58 53 127 100 38 63 
19 4 34 122 74 69 
20 4 44 28 9 89 
21 7 70 65 105 17 47 131 36 
22 7 119 108 103 115 7 52 68 
23 7 31 139 69 74 26 118 11 
24 7 32 48 117 124 22 115 119 
25 7 43 125 82 46 140 66 54 
26 7 122 69 74 139 23 31 50 
27 6 113 107 126 15 64 36 
28 7 133 20 44 9 67 56 134 
29 7 62 8 87 121 81 75 94 
30 7 102 55 39 11 118 57 99 
31 7 23 139 69 74 26 118 11 
32 7 24 48 124 138 117 115 22 
33 7 42 91 86 4 96 17 65 
34 4 19 79 74 69 
35 7 5 51 7 88 63 100 103 
36 6 64 93 17 61 86 91 
37 6 136 95 63 53 5 88 
38 7 109 127 41 131 16 100 105 
39 7 11 55 118 30 102 139 23 
40 7 130 10 75 73 98 104 2 
41 7 18 127 100 38 58 53 109 
42 7 4 33 96 86 91 108 68 
43 7 25 125 82 46 140 66 54 
44 3 20 89 9 
45 7 72 78 12 3 54 6 137 
46 7 66 82 54 6 111 78 85 
47 7 21 105 70 15 16 131 64 
48 7 24 32 117 138 115 124 22 
49 6 83 101 77 78 12 45 
50 7 122 26 118 11 39 139 23 
51 7 35 7 100 5 108 88 42 
52 7 103 88 115 7 22 117 108 
53 7 63 18 5 100 41 58 35 
54 7 6 82 46 78 137 3 66 
55 7 39 30 11 102 118 50 139 
56 7 9 134 133 14 60 59 114 
57 5 99 76 13 106 71 
58 7 18 41 127 53 92 100 38 
59 6 60 84 114 125 14 43 
60 6 59 84 125 114 43 25 
61 6 93 36 64 86 17 91 
62 7 29 87 8 81 121 94 116 
63 7 5 35 53 100 88 51 7 
64 6 36 93 17 61 86 91 
65 7 70 21 17 91 33 86 105 
66 7 46 85 123 6 111 54 82 
67 7 133 132 56 9 14 28 134 
68 6 96 4 119 42 33 86 
69 7 74 31 139 23 26 122 79 
70 7 21 65 105 17 131 91 16 
71 5 137 120 106 3 6 
72 7 45 12 3 78 106 137 71 
73 7 130 10 40 75 104 2 98 
74 7 69 31 26 139 23 122 79 
75 7 130 40 73 10 8 98 104 
76 5 99 57 106 13 120 
77 7 12 83 49 79 101 45 72 
78 7 45 54 82 72 3 6 12 
79 6 77 74 69 12 31 101 
80 4 128 124 32 24 
81 5 87 62 116 29 94 
82 7 46 54 78 6 66 43 45 
83 6 49 77 45 78 12 101 
84 6 114 59 60 14 125 101 
85 7 123 66 110 121 111 2 46 
86 7 91 33 17 93 42 61 4 
87 6 62 81 29 94 8 116 
88 7 52 103 7 115 35 108 5 
89 4 140 116 134 25 
90 7 138 32 124 80 48 128 24 
91 7 86 33 17 93 42 61 4 
92 7 58 18 127 41 53 38 100 
93 6 61 36 17 86 64 91 
94 7 112 87 129 81 62 29 8 
95 7 136 37 63 88 5 52 35 
96 7 4 68 42 33 86 91 119 
97 7 19 50 122 26 34 74 69 
98 6 10 40 130 73 75 104 
99 5 57 76 13 106 71 
100 7 41 51 35 5 63 18 53 
101 5 49 77 83 79 12 
102 7 30 39 55 11 118 99 57 
103 7 52 88 7 115 22 108 119 
104 7 2 110 123 73 111 10 130 
105 7 131 16 70 21 65 47 109 
106 7 71 3 120 137 13 76 57 
107 7 15 27 64 113 36 61 93 
108 7 7 4 22 119 42 103 96 
109 7 38 131 16 105 127 41 65 
110 7 123 2 104 111 85 66 73 
111 7 2 110 123 6 120 104 137 
112 7 129 94 29 87 62 75 81 
113 5 27 126 107 15 64 
114 6 84 59 60 14 125 101 
115 7 117 52 103 22 88 119 7 
116 5 81 87 62 89 29 
117 7 115 48 24 52 22 103 119 
118 7 11 39 139 23 55 31 26 
119 7 22 108 68 96 4 103 7 
120 5 71 137 106 3 111 
121 7 8 85 123 29 62 110 66 
122 7 26 50 69 74 139 23 31 
123 7 110 85 2 111 104 66 121 
124 5 80 32 24 48 128 
125 6 43 25 60 59 82 49 
126 4 113 27 107 80 
127 7 38 41 109 18 58 100 131 
128 4 80 124 126 32 
129 7 112 94 29 75 87 62 8 
130 7 73 40 75 10 98 104 2 
131 7 16 105 109 70 21 65 47 
132 7 67 135 133 14 56 9 114 
133 7 67 9 56 134 28 14 132 
134 7 9 56 89 140 60 133 59 
135 6 14 132 114 84 59 67 
136 7 95 37 63 5 53 88 35 
137 7 71 120 3 6 106 111 54 
138 7 48 32 24 117 90 124 115 
139 7 23 31 69 26 74 118 11 
140 6 25 89 43 125 46 66 
DEPOT_SECTION
   1
   -1
EOF
