NAME :  X-n101-kX-w10-c9.cctp
COMMENT : 	Adapted by Maziero, Usberti and Cavellucci from the Uchoa, Pecin, Pessoa, Poggi, Subramanian, and Vidal (2013)
TYPE :  CCTP
DIMENSION :    60
EDGE_WEIGHT_TYPE : 	EUC_2D	
CAPACITY : 	206
VERTICES_WITHIN_COVERAGE :  9
VERTICES_WITH_DEMAND : 	10
NODE_COORD_SECTION
1 365 689
2 146 180
3 792 5
4 658 510
5 461 270
6 299 531
7 812 228
8 643 90
9 615 630
10 258 42
11 616 299
12 425 473
13 202 467
14 318 21
15 579 587
16 458 354
17 47 512
18 568 742
19 128 436
20 546 806
21 197 696
22 615 300
23 852 563
24 678 342
25 916 176
26 584 572
27 134 554
28 912 173
29 827 233
30 598 322
31 627 472
32 94 442
33 688 274
34 977 176
35 597 461
36 931 23
37 170 640
38 797 95
39 260 107
40 332 45
41 685 613
42 487 497
43 635 794
44 635 356
45 634 540
46 658 261
47 303 168
48 254 135
49 346 29
50 75 79
51 356 39
52 704 236
53 576 587
54 302 129
55 199 135
56 311 116
57 268 97
58 688 588
59 708 522
60 615 750
DEMAND_SECTION
2 38
3 51
4 73
5 70
6 58
7 54
8 1
9 98
10 62
11 98
COVERAGE_SECTION
2 9 55 48 50 39 57 47 54 56 10 
3 9 38 36 8 28 25 7 29 52 34 
4 7 45 31 59 35 58 26 41 
5 8 16 30 22 11 47 44 46 12 
6 8 13 12 27 37 42 21 19 32 
7 7 29 52 28 25 33 38 46 
8 9 38 52 3 46 33 11 22 7 29 
9 9 15 53 26 41 58 45 60 18 4 
10 8 57 14 39 40 49 56 48 54 
11 7 22 30 46 44 24 33 52 
12 9 42 16 6 35 26 53 15 31 5 
13 8 19 27 32 6 17 37 12 21 
14 7 40 49 51 10 57 56 39 
15 9 53 26 9 45 41 58 4 31 35 
16 8 5 12 30 42 22 11 35 44 
17 7 32 27 19 13 37 21 6 
18 6 60 20 43 9 15 53 
19 9 32 13 17 27 6 37 2 21 12 
20 4 18 60 43 9 
21 5 37 27 6 13 17 
22 7 11 30 46 44 24 33 52 
23 4 59 58 41 4 
24 3 44 33 11 
25 9 28 34 29 7 38 36 3 52 33 
26 9 15 53 45 9 4 58 31 41 35 
27 7 37 17 13 19 32 21 6 
28 9 25 34 29 7 38 36 3 52 33 
29 7 7 28 25 52 38 33 34 
30 6 22 11 44 24 46 33 
31 4 35 4 45 59 
32 8 19 17 13 27 37 6 2 21 
33 7 46 52 24 11 22 44 30 
34 8 25 28 29 36 7 38 3 52 
35 5 31 4 45 26 44 
36 9 3 28 38 25 34 29 7 8 52 
37 6 21 27 6 13 17 19 
38 9 3 7 28 29 25 36 8 52 34 
39 8 57 48 54 56 10 55 47 40 
40 7 49 51 14 10 56 57 54 
41 9 58 9 45 59 4 15 26 53 31 
42 9 12 35 26 53 15 31 16 45 4 
43 4 60 18 20 9 
44 4 24 30 22 11 
45 9 4 26 31 15 58 53 59 35 41 
46 7 33 52 11 22 24 30 44 
47 8 54 56 48 39 57 55 40 10 
48 8 39 57 54 55 47 56 10 2 
49 7 51 40 14 10 56 57 54 
50 9 2 55 10 39 48 57 54 56 47 
51 7 49 40 14 56 10 54 57 
52 8 33 46 7 11 24 22 29 30 
53 9 15 26 9 45 4 41 58 31 42 
54 8 56 47 39 57 48 40 10 55 
55 8 48 39 2 57 54 47 10 56 
56 8 54 57 39 47 48 40 51 10 
57 8 39 48 54 56 10 47 55 40 
58 9 41 59 45 4 9 26 15 53 31 
59 5 4 58 45 41 31 
60 6 18 43 20 9 41 15 
DEPOT_SECTION
   1
   -1
EOF
