NAME :  X-n139-kX-w27-c11.cctp
COMMENT : 	Adapted by Maziero, Usberti and Cavellucci from the Uchoa, Pecin, Pessoa, Poggi, Subramanian, and Vidal (2013)
TYPE :  CCTP
DIMENSION :    117
EDGE_WEIGHT_TYPE : 	EUC_2D	
CAPACITY : 	106
VERTICES_WITHIN_COVERAGE :  11
VERTICES_WITH_DEMAND : 	27
NODE_COORD_SECTION
1 500 500
2 645 7
3 720 867
4 513 499
5 208 766
6 976 884
7 991 864
8 596 532
9 765 632
10 270 818
11 223 552
12 871 193
13 825 816
14 128 518
15 802 281
16 786 635
17 435 675
18 976 204
19 563 43
20 870 774
21 348 458
22 566 113
23 295 969
24 229 790
25 515 805
26 482 998
27 241 830
28 47 633
29 594 244
30 635 626
31 597 538
32 86 516
33 444 697
34 763 281
35 12 649
36 187 417
37 630 975
38 934 263
39 88 855
40 768 582
41 916 277
42 40 387
43 881 490
44 771 700
45 308 482
46 397 30
47 934 7
48 869 723
49 788 896
50 100 591
51 746 587
52 584 721
53 859 990
54 403 428
55 493 63
56 496 458
57 728 641
58 174 440
59 986 511
60 887 589
61 931 743
62 234 663
63 832 704
64 857 776
65 828 438
66 744 105
67 122 949
68 270 596
69 790 753
70 323 417
71 152 585
72 138 342
73 391 452
74 87 413
75 713 127
76 638 532
77 507 797
78 720 264
79 630 720
80 326 566
81 847 833
82 576 429
83 141 976
84 564 716
85 946 889
86 100 526
87 503 496
88 684 811
89 800 409
90 794 190
91 784 339
92 603 208
93 177 924
94 300 515
95 275 468
96 343 995
97 889 853
98 455 846
99 20 645
100 760 141
101 763 785
102 494 727
103 889 11
104 254 378
105 381 438
106 508 257
107 70 637
108 361 611
109 529 957
110 570 727
111 813 135
112 820 999
113 5 787
114 881 333
115 767 284
116 427 864
117 538 248
DEMAND_SECTION
2 10
3 10
4 5
5 9
6 8
7 5
8 5
9 8
10 6
11 8
12 10
13 9
14 9
15 8
16 9
17 5
18 10
19 7
20 6
21 9
22 10
23 6
24 10
25 5
26 8
27 6
28 8
COVERAGE_SECTION
2 10 19 22 75 66 55 100 92 111 90 29 
3 11 88 49 101 13 81 69 37 64 112 97 79 
4 10 87 56 8 31 82 76 54 73 105 21 
5 11 24 27 10 62 39 93 68 71 107 67 113 
6 11 7 85 97 81 61 20 53 64 13 49 48 
7 11 6 85 97 61 81 20 64 13 53 48 49 
8 9 31 76 4 87 30 82 56 51 57 
9 11 16 57 51 40 44 63 69 60 30 48 101 
10 11 27 24 5 93 23 62 116 39 98 96 67 
11 11 68 71 94 95 14 80 45 62 58 86 50 
12 11 90 111 38 41 18 15 100 115 34 114 66 
13 11 81 64 20 101 69 97 49 48 63 3 44 
14 11 86 32 71 50 58 11 74 36 107 28 95 
15 10 115 34 91 78 90 114 12 41 89 38 
16 11 9 40 57 51 44 63 60 69 48 30 101 
17 11 33 102 108 84 77 110 25 80 52 98 68 
18 11 38 41 12 114 111 90 15 47 103 115 100 
19 10 22 55 2 46 92 75 66 29 117 100 
20 11 64 48 13 81 61 63 97 69 101 44 85 
21 11 105 73 45 70 54 95 94 80 104 56 108 
22 9 19 55 92 2 29 117 75 106 66 
23 11 96 93 27 10 83 116 67 26 24 98 5 
24 11 5 27 10 62 93 39 23 67 68 83 116 
25 11 77 98 102 110 84 116 52 33 79 17 109 
26 11 109 96 116 37 98 23 25 77 102 3 88 
27 11 10 24 5 93 23 39 62 67 83 116 96 
28 11 107 99 35 50 71 86 32 14 113 62 11 
29 5 92 117 106 78 22 
30 11 57 76 79 31 8 52 84 51 110 9 40 
31 9 8 76 4 30 87 82 56 51 57 
32 11 86 14 50 71 74 58 107 28 42 36 11 
33 11 17 102 77 108 84 25 110 52 98 116 80 
34 7 115 15 78 91 90 114 89 
35 11 99 28 107 50 113 86 32 71 14 39 62 
36 11 58 104 72 74 95 14 70 45 86 11 32 
37 11 109 3 26 88 49 112 25 77 98 53 116 
38 11 41 18 114 12 15 90 91 115 34 111 89 
39 11 67 113 93 83 5 24 27 10 107 35 99 
40 11 51 9 16 57 44 60 63 76 30 43 65 
41 11 38 114 18 12 15 91 115 90 34 111 89 
42 9 74 72 32 58 36 86 14 50 104 
43 11 65 60 59 89 40 114 51 16 91 9 57 
44 11 69 63 16 9 57 101 48 64 51 40 20 
45 11 94 95 21 70 105 80 73 54 11 104 68 
46 3 55 19 22 
47 11 103 111 12 18 66 100 90 75 38 41 2 
48 11 63 20 64 61 69 44 13 81 16 101 97 
49 11 3 81 13 112 97 101 53 88 64 69 20 
50 11 71 107 86 28 32 14 99 35 11 62 58 
51 11 40 9 57 16 44 30 76 60 63 31 8 
52 11 110 84 79 102 30 77 25 88 33 17 57 
53 11 112 49 85 97 81 6 13 7 3 64 20 
54 10 105 73 21 70 56 45 87 4 95 94 
55 7 19 22 46 2 92 117 106 
56 9 87 4 82 54 73 105 8 31 21 
57 11 9 51 16 40 44 30 63 79 69 76 101 
58 11 36 14 74 104 72 95 86 32 11 45 42 
59 11 43 60 65 114 89 40 16 61 48 41 63 
60 11 43 16 40 59 63 9 48 51 61 44 65 
61 11 48 20 64 63 97 81 13 7 69 85 6 
62 11 68 5 11 71 24 80 108 50 10 94 107 
63 11 48 44 69 64 20 16 9 61 101 13 57 
64 11 20 13 48 81 69 63 61 97 101 44 49 
65 10 89 43 91 114 40 15 60 115 34 51 
66 10 75 100 111 90 2 12 78 103 92 34 
67 11 83 93 39 27 23 24 10 113 5 96 62 
68 11 11 80 62 94 108 71 45 95 21 14 50 
69 11 101 44 63 64 13 20 48 81 16 88 9 
70 11 21 105 45 95 73 104 54 94 36 80 58 
71 11 50 14 11 86 32 107 62 28 68 99 58 
72 8 74 36 58 42 104 14 32 95 
73 11 105 54 21 70 45 56 94 95 87 4 80 
74 10 42 72 58 36 32 14 86 104 50 71 
75 10 66 100 111 90 78 92 2 22 34 115 
76 10 31 8 30 82 51 4 40 87 57 56 
77 11 25 98 102 110 84 116 52 33 17 79 109 
78 7 34 115 15 91 90 29 100 
79 11 52 110 84 30 88 57 102 44 25 77 101 
80 11 94 108 68 45 11 21 95 73 62 105 70 
81 11 13 97 64 20 49 101 69 48 85 61 63 
82 6 56 4 87 8 31 76 
83 11 67 93 39 23 27 96 10 24 5 113 116 
84 11 110 52 79 102 77 25 30 33 17 88 98 
85 11 6 7 97 81 53 20 13 64 61 49 112 
86 11 32 14 50 71 58 74 107 28 11 36 99 
87 10 4 56 82 8 31 73 54 105 76 21 
88 11 3 101 79 69 49 52 13 44 110 84 81 
89 9 65 91 114 43 15 115 34 78 40 
90 10 111 100 12 15 34 115 66 75 78 91 
91 9 115 15 34 89 114 78 65 41 90 
92 7 29 117 22 106 78 75 19 
93 11 67 83 39 27 23 10 24 5 96 113 116 
94 11 45 95 80 21 11 68 70 73 105 108 54 
95 11 45 94 70 21 104 11 36 58 80 105 73 
96 11 23 26 116 93 98 109 10 27 83 67 24 
97 11 81 85 13 20 64 6 7 49 61 48 53 
98 11 116 77 25 102 109 33 26 110 84 17 52 
99 11 35 28 107 50 86 113 32 71 14 62 39 
100 10 66 75 111 90 12 78 34 115 15 92 
101 11 69 13 88 44 3 64 81 63 20 49 48 
102 11 33 77 84 110 17 25 52 98 79 116 30 
103 10 47 111 66 12 100 90 75 18 2 38 
104 9 36 70 95 58 45 72 21 105 94 
105 11 73 54 21 70 45 95 94 56 87 80 104 
106 5 117 29 92 22 82 
107 11 28 99 50 35 71 86 32 14 113 62 11 
108 11 80 68 17 94 33 62 45 11 21 73 95 
109 11 26 37 98 116 25 77 96 3 88 102 23 
110 11 84 52 79 102 77 25 30 33 88 17 98 
111 10 100 90 66 12 75 103 15 34 115 78 
112 11 53 49 97 3 85 81 13 37 6 7 101 
113 11 39 35 99 28 107 67 5 50 93 24 83 
114 11 41 38 15 91 89 65 115 34 12 43 18 
115 7 34 15 78 91 90 114 89 
116 11 98 77 25 109 26 102 96 10 33 23 17 
117 4 106 29 92 22 
DEPOT_SECTION
   1
   -1
EOF
