NAME :  X-n125-kX-w12-c7.cctp
COMMENT : 	Adapted by Maziero, Usberti and Cavellucci from the Uchoa, Pecin, Pessoa, Poggi, Subramanian, and Vidal (2013)
TYPE :  CCTP
DIMENSION :    81
EDGE_WEIGHT_TYPE : 	EUC_2D	
CAPACITY : 	188
VERTICES_WITHIN_COVERAGE :  7
VERTICES_WITH_DEMAND : 	12
NODE_COORD_SECTION
1 989 944
2 5 730
3 769 200
4 698 515
5 72 561
6 52 397
7 771 177
8 81 537
9 43 371
10 716 202
11 106 406
12 627 172
13 10 338
14 761 469
15 129 398
16 709 193
17 99 564
18 163 418
19 50 763
20 736 240
21 46 518
22 699 581
23 58 398
24 43 393
25 783 186
26 58 360
27 45 712
28 38 393
29 652 524
30 37 364
31 61 534
32 712 465
33 2 729
34 773 234
35 879 98
36 685 466
37 21 421
38 109 536
39 60 738
40 96 383
41 76 582
42 739 193
43 669 548
44 15 696
45 102 541
46 28 578
47 828 292
48 73 519
49 40 433
50 745 159
51 75 511
52 732 427
53 61 407
54 84 538
55 751 246
56 22 714
57 63 571
58 627 595
59 546 199
60 795 58
61 805 15
62 649 486
63 145 377
64 700 678
65 673 619
66 738 444
67 122 182
68 108 334
69 100 550
70 677 505
71 23 365
72 892 41
73 70 541
74 159 369
75 51 378
76 556 137
77 800 100
78 70 375
79 132 545
80 728 467
81 759 208
DEMAND_SECTION
2 32
3 7
4 83
5 30
6 62
7 26
8 31
9 75
10 5
11 85
12 15
13 94
COVERAGE_SECTION
2 6 33 56 44 27 19 39 
3 7 81 25 7 42 34 50 55 
4 7 70 43 29 36 32 62 80 
5 7 57 73 41 8 54 17 31 
6 7 23 24 53 28 75 9 78 
7 7 25 3 50 81 42 34 10 
8 7 54 73 31 48 45 69 5 
9 7 30 75 26 71 24 28 78 
10 7 16 42 20 81 50 3 55 
11 7 15 40 53 78 23 63 6 
12 7 76 16 59 10 42 50 20 
13 7 71 30 9 26 75 28 24 
14 6 80 66 32 52 36 4 
15 7 11 63 40 18 74 78 68 
16 7 10 42 50 81 20 3 7 
17 7 69 45 5 41 38 54 8 
18 5 15 63 74 11 40 
19 6 39 27 2 56 33 44 
20 6 55 34 81 10 42 3 
21 5 31 48 51 73 8 
22 7 43 65 4 58 29 70 64 
23 7 6 53 24 28 75 78 9 
24 7 28 6 23 75 9 53 30 
25 7 7 3 81 42 50 34 55 
26 7 9 75 78 30 71 24 6 
27 5 56 39 44 2 33 
28 7 24 6 75 23 9 53 30 
29 7 43 70 62 4 36 22 58 
30 7 9 71 75 26 28 24 78 
31 7 73 48 8 21 54 51 5 
32 7 80 36 66 52 14 4 70 
33 6 2 56 44 27 19 39 
34 6 55 81 3 20 25 42 
35 7 72 77 60 61 25 7 50 
36 7 32 70 62 80 4 66 52 
37 6 49 28 24 6 53 23 
38 7 45 69 54 79 8 17 73 
39 6 19 27 56 2 33 44 
40 7 11 78 15 23 53 26 75 
41 5 57 5 17 69 73 
42 7 10 81 16 3 50 7 25 
43 7 29 4 70 22 58 62 65 
44 4 56 27 2 33 
45 7 38 69 54 8 17 79 73 
46 4 57 5 41 31 
47 4 34 55 20 3 
48 7 51 31 8 54 73 21 45 
49 5 37 53 6 23 24 
50 7 7 42 25 3 16 81 10 
51 7 48 8 31 54 21 73 45 
52 6 66 80 32 14 36 4 
53 7 23 6 24 28 75 49 78 
54 7 8 73 45 69 48 31 38 
55 5 20 34 81 3 42 
56 6 44 2 27 33 39 19 
57 7 5 41 73 46 17 31 8 
58 7 65 43 22 29 70 4 62 
59 4 76 12 16 10 
60 7 77 61 35 72 50 7 25 
61 7 60 77 72 35 50 7 25 
62 7 70 29 36 4 43 32 80 
63 7 74 15 18 11 40 68 78 
64 7 65 22 58 43 29 4 70 
65 7 22 58 64 43 29 4 70 
66 6 52 80 32 14 36 4 
67 4 68 26 74 13 
68 7 40 26 78 63 74 15 11 
69 7 45 17 38 54 8 5 73 
70 7 4 29 62 36 43 32 80 
71 7 30 9 13 75 28 24 26 
72 7 35 61 60 77 25 7 50 
73 7 31 8 54 5 48 51 57 
74 6 63 15 18 68 11 40 
75 7 9 24 6 26 78 28 30 
76 7 59 12 16 10 50 42 20 
77 7 60 35 50 7 61 25 3 
78 7 26 75 23 9 40 6 24 
79 6 38 45 69 17 54 8 
80 6 32 66 14 52 36 4 
81 7 3 42 34 7 25 20 55 
DEPOT_SECTION
   1
   -1
EOF
