NAME :  X-n115-kX-w45-c9.cctp
COMMENT : 	Adapted by Maziero, Usberti and Cavellucci from the Uchoa, Pecin, Pessoa, Poggi, Subramanian, and Vidal (2013)
TYPE :  CCTP
DIMENSION :    115
EDGE_WEIGHT_TYPE : 	EUC_2D	
CAPACITY : 	169
VERTICES_WITHIN_COVERAGE :  9
VERTICES_WITH_DEMAND : 	45
NODE_COORD_SECTION
1 500 500
2 865 693
3 633 220
4 173 361
5 89 714
6 350 102
7 301 24
8 834 663
9 841 997
10 394 790
11 276 488
12 779 312
13 939 66
14 595 462
15 940 964
16 459 459
17 432 280
18 379 338
19 128 439
20 401 22
21 69 887
22 499 657
23 633 46
24 713 182
25 806 525
26 540 169
27 696 559
28 577 888
29 298 725
30 410 644
31 512 889
32 756 352
33 405 407
34 850 365
35 731 588
36 90 553
37 691 383
38 926 631
39 955 351
40 998 736
41 921 854
42 532 257
43 238 513
44 976 912
45 565 912
46 893 74
47 590 548
48 99 355
49 294 39
50 58 429
51 471 573
52 520 109
53 486 611
54 409 682
55 296 843
56 970 479
57 717 390
58 152 711
59 934 255
60 257 539
61 270 31
62 823 409
63 203 849
64 770 627
65 630 581
66 786 186
67 380 300
68 973 847
69 985 975
70 732 465
71 690 428
72 910 568
73 725 539
74 181 186
75 814 694
76 702 927
77 946 492
78 984 305
79 385 696
80 48 323
81 944 440
82 813 293
83 490 676
84 729 923
85 719 883
86 675 637
87 167 14
88 98 159
89 476 709
90 402 339
91 911 734
92 590 230
93 122 698
94 154 418
95 165 998
96 217 599
97 766 21
98 922 407
99 831 607
100 70 494
101 220 740
102 19 855
103 759 507
104 818 409
105 503 304
106 595 827
107 254 282
108 205 607
109 331 57
110 118 404
111 576 658
112 558 611
113 629 732
114 893 182
115 435 1000
DEMAND_SECTION
2 86
3 98
4 89
5 91
6 74
7 87
8 65
9 62
10 60
11 99
12 96
13 79
14 6
15 10
16 3
17 8
18 8
19 10
20 1
21 9
22 6
23 4
24 5
25 6
26 3
27 9
28 7
29 7
30 5
31 2
32 4
33 8
34 8
35 1
36 4
37 5
38 7
39 8
40 9
41 1
42 8
43 2
44 2
45 9
46 7
COVERAGE_SECTION
2 9 8 75 91 38 99 64 72 40 35 
3 9 92 24 26 42 105 66 52 12 37 
4 9 94 110 48 19 107 80 50 11 43 
5 9 93 58 101 102 108 36 96 21 63 
6 9 109 49 7 20 61 52 74 17 67 
7 9 49 61 109 6 20 87 74 52 88 
8 9 75 2 99 64 38 91 72 35 25 
9 9 15 84 69 76 44 41 85 68 91 
10 9 79 54 55 89 29 30 83 31 22 
11 9 43 60 96 108 94 33 19 4 110 
12 9 82 32 34 57 104 62 37 66 24 
13 9 46 114 97 59 66 78 24 82 39 
14 9 47 71 37 65 16 70 27 57 73 
15 9 69 44 9 41 68 84 91 40 85 
16 9 33 51 90 14 18 53 47 105 67 
17 9 67 90 105 18 42 33 26 92 107 
18 9 90 67 33 17 105 107 16 42 11 
19 9 94 110 50 100 48 4 36 43 80 
20 9 109 6 7 49 61 52 26 23 87 
21 9 102 63 95 5 58 93 101 55 29 
22 9 83 53 89 112 111 51 30 54 79 
23 9 52 97 26 24 3 92 66 20 42 
24 9 66 3 92 12 82 23 97 26 32 
25 9 103 73 99 70 35 64 72 27 62 
26 9 52 92 42 3 105 23 17 24 6 
27 9 73 35 65 86 103 64 70 47 25 
28 9 45 106 31 76 85 84 113 115 89 
29 9 101 79 10 55 54 30 58 96 108 
30 9 54 79 53 83 22 89 51 29 10 
31 9 45 28 106 115 10 89 76 113 85 
32 9 12 57 37 82 104 62 34 71 70 
33 9 90 18 16 67 17 105 11 51 107 
34 9 62 104 82 98 12 32 39 81 57 
35 9 27 73 64 86 103 25 65 99 70 
36 9 100 19 108 50 96 93 94 110 43 
37 9 57 71 32 70 12 14 104 62 103 
38 9 72 2 8 99 91 40 75 77 64 
39 9 78 98 81 59 34 56 77 62 104 
40 9 91 68 38 2 41 44 8 75 72 
41 9 68 44 15 91 69 40 9 2 75 
42 9 105 92 26 17 3 52 90 67 18 
43 9 60 11 96 108 94 19 36 110 4 
44 9 15 69 68 41 9 40 91 2 84 
45 9 28 31 106 76 85 115 84 113 10 
46 9 13 114 97 66 59 24 82 78 23 
47 9 65 112 14 27 111 51 53 86 73 
48 9 110 80 4 94 50 19 100 107 74 
49 9 7 61 109 6 20 87 74 88 52 
50 9 110 100 19 48 94 80 36 4 43 
51 9 53 22 30 112 83 16 47 54 111 
52 9 26 23 92 20 42 3 6 17 105 
53 9 51 22 83 112 30 89 111 54 47 
54 9 79 30 89 83 22 53 10 29 51 
55 9 63 10 29 101 79 58 54 95 115 
56 9 77 81 98 72 39 38 62 34 104 
57 9 37 71 32 70 12 104 62 103 34 
58 9 93 5 101 108 96 29 63 36 21 
59 9 78 114 39 82 34 98 66 12 81 
60 9 43 11 96 108 94 19 36 30 29 
61 9 49 7 109 87 6 20 74 88 107 
62 9 104 34 32 98 12 70 57 82 25 
63 9 55 101 21 58 95 29 93 5 102 
64 9 35 99 8 75 86 73 27 25 2 
65 9 47 27 86 112 111 35 73 14 53 
66 9 24 114 82 12 46 3 59 97 32 
67 9 18 90 17 33 105 107 42 16 6 
68 9 41 44 40 15 69 91 2 9 38 
69 9 15 44 68 41 9 40 91 84 85 
70 9 103 71 73 57 37 25 27 104 62 
71 9 37 57 70 14 32 103 73 104 27 
72 9 38 77 99 56 25 8 81 2 64 
73 9 27 103 35 70 25 64 65 86 71 
74 9 88 107 87 4 61 49 48 6 80 
75 9 8 2 64 99 91 38 35 86 72 
76 9 84 85 28 45 106 9 31 113 41 
77 9 56 81 72 98 38 39 25 62 104 
78 9 39 59 98 81 34 114 82 56 77 
79 9 54 30 29 89 10 83 22 53 51 
80 9 48 50 110 4 19 94 88 100 74 
81 9 98 56 77 39 34 62 104 72 78 
82 9 12 34 32 66 62 104 59 57 114 
83 9 22 89 53 54 30 111 112 51 79 
84 9 76 85 9 28 45 106 41 15 113 
85 9 84 76 106 28 45 9 113 41 31 
86 9 65 35 27 64 111 113 73 112 47 
87 9 61 49 7 88 109 74 6 20 107 
88 9 74 87 80 48 107 61 4 49 7 
89 9 83 22 54 79 30 53 111 10 112 
90 9 18 67 17 33 105 16 42 107 11 
91 9 2 40 38 8 75 41 68 99 72 
92 9 3 42 26 105 24 52 17 37 23 
93 9 58 5 101 108 96 36 63 29 102 
94 9 19 110 4 48 50 100 43 11 80 
95 9 21 63 55 102 101 115 58 5 93 
96 9 108 60 43 11 58 36 93 101 29 
97 9 23 46 66 24 13 114 3 52 26 
98 9 81 39 34 56 77 62 104 78 59 
99 9 8 64 25 72 75 2 38 35 103 
100 9 36 50 19 110 94 48 4 43 80 
101 9 58 29 93 63 55 5 108 96 79 
102 9 21 5 63 93 58 95 101 55 29 
103 9 73 25 70 27 35 71 104 62 64 
104 9 62 34 32 57 70 98 12 103 82 
105 9 42 17 90 92 67 18 26 33 3 
106 9 28 45 113 31 85 76 84 89 111 
107 9 4 74 67 18 90 94 48 17 110 
108 9 96 60 43 58 93 36 101 11 29 
109 9 49 7 6 61 20 87 52 74 26 
110 9 19 94 48 50 4 100 80 36 43 
111 9 112 22 83 113 65 86 53 47 89 
112 9 111 47 53 22 65 83 51 86 89 
113 9 111 106 86 112 22 83 65 89 28 
114 9 59 66 46 13 82 78 12 24 39 
115 9 31 45 28 55 10 106 95 63 76 
DEPOT_SECTION
   1
   -1
EOF
