NAME :  X-n134-kX-w13-c9.cctp
COMMENT : 	Adapted by Maziero, Usberti and Cavellucci from the Uchoa, Pecin, Pessoa, Poggi, Subramanian, and Vidal (2013)
TYPE :  CCTP
DIMENSION :    104
EDGE_WEIGHT_TYPE : 	EUC_2D	
CAPACITY : 	643
VERTICES_WITHIN_COVERAGE :  9
VERTICES_WITH_DEMAND : 	13
NODE_COORD_SECTION
1 113 195
2 377 239
3 364 39
4 306 316
5 795 18
6 560 115
7 501 147
8 704 68
9 762 62
10 357 33
11 359 353
12 314 186
13 338 303
14 522 80
15 291 58
16 735 15
17 324 12
18 275 278
19 409 32
20 279 297
21 844 27
22 796 4
23 735 111
24 373 461
25 385 100
26 793 7
27 965 64
28 347 256
29 742 75
30 339 244
31 334 391
32 323 314
33 345 69
34 426 446
35 286 335
36 374 34
37 201 153
38 356 74
39 767 236
40 789 61
41 357 21
42 386 207
43 389 234
44 281 344
45 312 3
46 317 163
47 582 186
48 822 6
49 386 268
50 425 55
51 382 251
52 351 385
53 701 32
54 384 214
55 866 243
56 546 186
57 815 29
58 734 57
59 377 235
60 793 31
61 392 248
62 308 314
63 396 27
64 250 345
65 903 66
66 580 142
67 408 225
68 297 283
69 733 38
70 312 293
71 764 45
72 351 284
73 321 318
74 451 423
75 365 142
76 487 175
77 267 51
78 346 248
79 485 24
80 542 109
81 813 117
82 212 192
83 344 170
84 325 343
85 349 90
86 389 302
87 769 51
88 489 165
89 376 210
90 320 191
91 339 138
92 390 222
93 376 262
94 416 240
95 688 80
96 289 193
97 322 311
98 303 228
99 829 13
100 315 212
101 326 136
102 287 298
103 319 176
104 323 291
DEMAND_SECTION
2 53
3 73
4 60
5 20
6 23
7 3
8 46
9 28
10 84
11 72
12 64
13 100
14 10
COVERAGE_SECTION
2 9 59 43 51 61 92 93 54 89 49 
3 9 10 36 41 63 33 38 19 17 85 
4 9 62 73 32 97 70 102 35 104 20 
5 9 26 60 22 57 48 99 71 87 40 
6 9 80 66 14 7 56 47 88 76 79 
7 8 88 76 80 56 6 14 66 47 
8 9 95 58 53 29 69 23 9 16 71 
9 9 87 71 29 40 58 69 60 16 5 
10 9 3 41 36 33 17 63 38 19 45 
11 9 52 84 31 73 32 13 97 86 62 
12 9 90 103 46 96 100 83 98 101 91 
13 9 97 32 104 72 73 70 62 4 84 
14 9 80 6 79 7 66 88 50 76 56 
15 7 77 33 17 45 85 38 10 
16 9 69 53 58 71 87 9 26 5 29 
17 8 45 41 10 3 36 15 33 77 
18 6 20 68 102 70 4 62 
19 9 63 50 36 3 10 41 38 25 33 
20 8 102 18 68 4 70 62 35 104 
21 9 99 57 48 5 60 22 26 40 65 
22 9 26 5 48 60 57 99 71 21 87 
23 9 29 8 58 9 95 87 71 69 40 
24 5 34 52 31 74 11 
25 8 85 38 75 33 50 91 3 36 
26 9 22 5 60 48 57 99 71 87 40 
27 9 65 21 99 48 57 81 60 5 40 
28 9 78 30 72 93 2 51 59 49 104 
29 9 58 9 87 23 71 69 8 40 95 
30 8 78 28 2 59 98 100 93 72 
31 4 52 11 84 44 
32 9 97 73 62 4 13 104 70 84 102 
33 8 38 85 3 10 36 41 25 15 
34 6 74 24 52 31 11 84 
35 8 44 4 62 64 102 20 73 84 
36 9 3 10 41 63 19 38 33 17 50 
37 5 82 96 46 12 103 
38 8 33 85 3 25 10 36 41 63 
39 9 55 81 23 29 9 95 40 8 58 
40 9 87 9 60 71 57 5 29 26 58 
41 9 10 3 36 17 63 45 33 19 38 
42 9 54 89 92 43 67 59 2 61 51 
43 9 59 92 2 61 51 54 67 42 89 
44 7 35 64 4 62 84 102 20 
45 8 17 41 10 15 3 77 36 33 
46 9 103 12 83 90 101 91 96 100 75 
47 8 56 66 6 80 7 88 76 14 
48 9 99 57 22 26 5 21 60 40 71 
49 8 93 51 61 2 43 59 86 72 
50 8 19 63 36 25 3 79 10 38 
51 9 61 2 93 49 59 43 92 28 78 
52 5 31 11 84 73 32 
53 9 69 8 16 58 95 29 71 9 87 
54 9 42 89 92 43 59 2 67 61 51 
55 9 39 81 65 23 40 27 9 29 87 
56 7 47 66 7 76 88 6 80 
57 9 99 60 5 48 21 22 26 40 87 
58 9 69 29 9 8 71 87 53 16 95 
59 9 2 43 51 92 61 54 89 93 42 
60 9 5 57 26 22 40 87 71 48 99 
61 9 51 43 2 59 49 93 94 92 67 
62 9 4 73 97 32 70 102 104 35 13 
63 9 19 36 3 10 41 50 38 33 17 
64 6 44 35 20 102 4 62 
65 9 27 21 99 57 48 81 40 60 5 
66 9 6 47 80 56 7 14 88 76 95 
67 9 94 92 43 54 42 61 59 2 89 
68 7 70 102 18 20 104 62 4 
69 9 58 16 71 53 9 29 87 8 60 
70 9 104 68 62 97 4 32 102 73 13 
71 9 87 9 40 58 60 69 29 5 16 
72 9 13 28 104 93 78 49 70 97 32 
73 9 32 97 62 4 13 84 70 104 35 
74 5 34 24 52 11 31 
75 8 91 83 101 25 46 85 103 12 
76 7 88 7 56 80 67 6 47 
77 7 15 45 17 33 85 10 38 
78 8 28 30 2 93 59 51 72 43 
79 9 14 50 19 63 80 36 6 3 7 
80 9 6 14 66 7 56 88 76 47 79 
81 9 40 9 23 87 29 71 57 60 21 
82 4 37 96 98 12 
83 9 103 46 90 91 12 75 101 89 100 
84 8 73 32 97 4 62 11 35 13 
85 8 38 33 25 91 101 3 75 10 
86 6 49 72 93 13 51 61 
87 9 71 9 40 60 29 58 69 5 16 
88 7 76 7 56 80 6 14 66 
89 9 54 42 92 59 43 2 67 51 61 
90 9 12 103 100 46 96 83 98 101 30 
91 9 101 75 83 46 103 85 12 90 25 
92 9 54 43 42 59 67 89 2 61 51 
93 9 49 51 61 2 59 28 43 72 78 
94 7 67 61 43 92 51 2 59 
95 9 8 53 58 29 23 69 9 16 71 
96 8 12 90 100 103 98 46 83 101 
97 9 32 73 62 4 13 104 70 84 102 
98 7 100 96 30 90 12 78 28 
99 9 48 21 57 5 22 26 60 40 87 
100 8 98 90 12 96 103 30 78 46 
101 9 91 46 83 75 103 12 85 90 96 
102 9 20 68 18 70 4 62 35 97 104 
103 9 12 46 90 83 96 100 101 91 98 
104 9 70 13 97 32 62 68 73 72 4 
DEPOT_SECTION
   1
   -1
EOF
