NAME :  X-n172-kX-w34-c11.cctp
COMMENT : 	Adapted by Maziero, Usberti and Cavellucci from the Uchoa, Pecin, Pessoa, Poggi, Subramanian, and Vidal (2013)
TYPE :  CCTP
DIMENSION :    125
EDGE_WEIGHT_TYPE : 	EUC_2D	
CAPACITY : 	161
VERTICES_WITHIN_COVERAGE :  11
VERTICES_WITH_DEMAND : 	34
NODE_COORD_SECTION
1 500 500
2 363 697
3 120 259
4 555 718
5 522 918
6 239 935
7 304 517
8 856 96
9 38 904
10 174 951
11 294 935
12 942 324
13 402 176
14 766 450
15 473 862
16 262 550
17 661 92
18 440 655
19 678 291
20 345 691
21 564 903
22 952 802
23 698 352
24 297 930
25 66 244
26 882 642
27 777 818
28 302 212
29 824 647
30 143 946
31 108 600
32 121 755
33 697 32
34 473 995
35 342 252
36 248 211
37 81 468
38 144 796
39 244 385
40 437 42
41 381 583
42 263 549
43 153 646
44 187 688
45 248 71
46 27 70
47 649 477
48 589 402
49 105 251
50 986 452
51 486 773
52 679 851
53 102 734
54 619 809
55 139 138
56 107 489
57 921 579
58 681 336
59 260 655
60 46 832
61 117 590
62 604 453
63 667 428
64 871 548
65 181 252
66 172 696
67 211 597
68 82 390
69 114 189
70 659 852
71 169 845
72 101 663
73 124 861
74 289 778
75 923 842
76 464 148
77 377 32
78 241 242
79 802 86
80 244 244
81 89 157
82 347 358
83 391 594
84 904 106
85 649 92
86 134 331
87 389 254
88 796 197
89 243 283
90 304 381
91 914 661
92 198 245
93 207 258
94 961 726
95 881 145
96 849 115
97 923 678
98 266 216
99 160 154
100 890 105
101 368 725
102 819 266
103 324 181
104 500 580
105 435 652
106 460 344
107 917 630
108 843 747
109 355 700
110 982 738
111 998 704
112 215 222
113 354 552
114 439 345
115 472 663
116 494 573
117 51 27
118 930 835
119 862 251
120 267 215
121 554 709
122 602 591
123 936 725
124 405 594
125 629 450
DEMAND_SECTION
2 30
3 82
4 70
5 92
6 25
7 23
8 11
9 41
10 15
11 5
12 17
13 70
14 36
15 47
16 24
17 11
18 6
19 23
20 5
21 54
22 74
23 6
24 9
25 58
26 96
27 80
28 100
29 65
30 3
31 46
32 16
33 47
34 33
35 84
COVERAGE_SECTION
2 11 109 20 101 105 18 83 74 59 124 115 41 
3 11 49 25 65 69 86 92 93 112 81 99 55 
4 10 121 51 115 54 18 122 105 104 116 15 
5 11 21 15 34 54 51 70 52 4 121 24 11 
6 11 11 24 10 30 71 73 74 38 9 32 60 
7 6 42 16 113 41 83 67 
8 5 96 100 84 79 95 
9 11 60 73 30 10 71 38 32 53 6 66 72 
10 11 30 6 73 71 11 24 9 38 60 32 74 
11 11 24 6 10 30 71 74 73 34 15 38 101 
12 3 119 50 102 
13 11 76 103 87 35 28 40 120 98 77 36 80 
14 10 63 23 47 125 58 64 62 19 48 102 
15 11 5 51 21 34 54 4 101 121 70 24 11 
16 10 42 7 67 113 59 41 83 43 61 124 
17 11 85 33 79 88 96 8 19 76 95 100 40 
18 10 105 115 124 83 2 41 104 109 116 101 
19 11 58 23 63 48 102 88 125 62 14 47 119 
20 11 109 2 101 59 105 18 74 83 41 124 115 
21 11 5 15 70 54 52 34 51 4 121 27 115 
22 8 118 75 110 94 123 111 108 97 
23 10 58 19 63 14 48 125 47 62 102 88 
24 11 11 6 10 74 71 30 73 34 15 38 101 
25 11 49 3 69 81 86 65 55 99 92 93 68 
26 7 91 107 97 29 57 64 123 
27 9 108 52 70 75 118 54 22 29 123 
28 11 120 98 103 36 35 80 78 112 89 87 13 
29 8 26 91 107 108 97 64 57 123 
30 11 10 73 6 71 9 38 60 11 24 32 53 
31 11 61 72 43 67 56 66 44 53 37 32 16 
32 11 53 38 66 44 72 71 73 60 43 31 61 
33 9 17 85 79 8 96 88 100 95 84 
34 11 5 21 15 24 11 51 70 54 6 52 74 
35 11 87 28 103 98 120 13 80 78 36 89 82 
36 11 98 120 78 80 112 28 92 93 89 65 103 
37 10 56 68 61 31 86 39 67 43 72 16 
38 11 32 71 73 53 60 66 44 72 74 30 43 
39 10 90 89 82 86 93 80 78 7 65 92 
40 9 77 76 13 103 45 28 87 85 17 
41 6 83 124 113 105 18 7 
42 10 16 7 67 113 59 41 83 43 124 61 
43 11 66 44 72 31 61 67 53 59 32 16 42 
44 11 66 43 59 72 32 67 53 38 31 61 74 
45 8 99 55 103 77 36 120 98 28 
46 8 117 81 55 69 99 25 49 3 
47 7 125 62 63 48 14 122 23 
48 6 62 125 63 47 58 23 
49 11 3 25 69 65 86 92 81 93 99 112 55 
50 8 12 57 64 107 26 14 91 97 
51 11 4 15 121 115 18 101 105 54 2 5 109 
52 11 70 54 27 21 5 4 121 108 15 51 75 
53 11 32 72 38 66 44 43 60 73 71 31 61 
54 11 70 52 21 4 121 51 5 15 27 115 122 
55 9 99 81 69 112 49 65 3 92 45 
56 11 37 61 68 31 67 86 43 16 42 39 72 
57 6 107 64 26 91 97 29 
58 10 23 19 63 48 125 62 14 47 102 88 
59 11 67 44 20 66 16 109 42 43 2 74 101 
60 11 9 73 38 32 53 71 30 10 72 66 44 
61 11 31 43 72 67 56 66 44 37 53 16 42 
62 5 125 47 48 63 23 
63 8 125 47 62 23 48 58 14 19 
64 8 57 107 26 29 91 97 14 50 
65 11 92 93 112 3 78 80 89 49 36 69 86 
66 11 44 43 32 72 53 59 38 67 31 61 74 
67 11 16 42 43 59 44 61 31 66 7 72 56 
68 10 37 86 56 3 49 25 39 65 93 92 
69 11 81 55 99 49 3 25 65 92 112 93 36 
70 11 52 54 21 27 5 4 121 15 51 108 34 
71 11 73 38 32 30 10 6 60 53 74 9 66 
72 11 43 31 53 61 66 44 32 67 38 59 56 
73 11 71 38 60 30 9 10 32 53 6 66 44 
74 11 101 109 20 2 59 44 71 66 38 24 11 
75 9 118 22 123 110 94 108 27 111 97 
76 11 13 40 87 103 77 35 28 85 106 114 17 
77 9 40 45 76 13 103 28 120 98 36 
78 11 80 36 112 98 120 93 89 92 65 28 35 
79 7 8 96 100 95 84 88 33 
80 11 78 36 98 112 120 89 93 92 65 28 35 
81 10 69 55 99 25 49 3 46 65 117 92 
82 7 90 114 35 39 87 106 89 
83 5 124 41 113 105 18 
84 4 100 95 8 96 
85 11 17 33 79 88 76 19 96 8 40 95 100 
86 10 3 68 49 65 93 92 25 89 39 112 
87 11 35 13 28 103 114 82 106 120 98 76 80 
88 8 102 119 96 95 79 8 100 84 
89 10 80 78 93 92 112 65 98 36 120 28 
90 9 82 39 89 35 7 114 80 78 87 
91 6 97 107 26 123 94 57 
92 11 93 65 112 78 80 89 36 98 120 3 49 
93 11 92 65 112 78 80 89 36 98 120 3 49 
94 6 110 123 111 97 22 91 
95 4 100 96 84 8 
96 5 8 100 95 79 84 
97 6 91 107 123 26 94 111 
98 11 120 36 28 78 80 112 103 89 93 92 35 
99 9 55 69 81 112 92 65 36 3 49 
100 4 84 8 95 96 
101 11 2 109 20 74 105 18 115 51 59 83 124 
102 6 119 88 12 95 19 23 
103 11 28 120 98 35 13 36 87 80 78 112 89 
104 5 116 115 18 124 105 
105 10 18 115 124 83 2 41 109 104 20 101 
106 6 114 82 87 48 35 90 
107 6 91 26 97 57 64 29 
108 9 123 27 29 97 26 91 94 22 75 
109 11 2 20 101 105 18 74 59 83 124 41 115 
110 6 94 111 123 22 97 91 
111 6 110 94 123 97 91 22 
112 11 92 78 36 80 93 65 98 120 89 99 28 
113 6 41 83 7 124 42 16 
114 5 106 82 87 35 90 
115 10 18 105 104 116 121 124 4 83 51 2 
116 4 104 124 115 18 
117 8 46 81 55 99 69 45 25 49 
118 9 75 22 110 123 94 108 111 27 97 
119 4 102 88 12 95 
120 11 98 36 28 78 80 112 103 89 93 92 35 
121 9 4 51 115 54 18 122 105 104 116 
122 6 104 116 47 121 4 62 
123 6 94 110 97 111 91 22 
124 7 83 41 105 113 18 116 104 
125 6 62 47 63 48 23 58 
DEPOT_SECTION
   1
   -1
EOF
