NAME :  X-n1001-kX-w100-c11.cctp
COMMENT : 	Adapted by Maziero, Usberti and Cavellucci from the Uchoa, Pecin, Pessoa, Poggi, Subramanian, and Vidal (2013)
TYPE :  CCTP
DIMENSION :    681
EDGE_WEIGHT_TYPE : 	EUC_2D	
CAPACITY : 	131
VERTICES_WITHIN_COVERAGE :  11
VERTICES_WITH_DEMAND : 	100
NODE_COORD_SECTION
1 2 857
2 407 102
3 915 965
4 797 45
5 997 241
6 650 683
7 748 248
8 99 174
9 2 545
10 277 689
11 568 771
12 76 105
13 117 973
14 171 971
15 327 183
16 277 697
17 269 246
18 670 18
19 51 901
20 951 696
21 710 102
22 61 465
23 348 606
24 551 243
25 524 793
26 89 582
27 900 748
28 235 368
29 122 587
30 449 781
31 970 38
32 362 490
33 742 267
34 289 115
35 898 957
36 996 922
37 951 633
38 713 779
39 603 247
40 402 363
41 143 0
42 274 608
43 81 422
44 550 408
45 43 699
46 482 575
47 909 254
48 613 37
49 202 575
50 297 297
51 736 288
52 464 127
53 499 491
54 635 531
55 796 328
56 184 941
57 641 824
58 863 673
59 396 950
60 555 631
61 664 966
62 301 260
63 425 990
64 559 746
65 431 827
66 724 472
67 847 51
68 888 721
69 136 331
70 859 627
71 206 5
72 429 381
73 798 918
74 886 684
75 123 488
76 779 445
77 764 43
78 938 743
79 800 398
80 734 20
81 211 678
82 601 545
83 512 403
84 796 106
85 644 810
86 416 973
87 115 435
88 667 91
89 395 941
90 374 546
91 546 191
92 754 255
93 124 588
94 423 929
95 314 637
96 668 268
97 321 786
98 960 423
99 11 499
100 721 692
101 803 584
102 337 475
103 214 547
104 361 166
105 944 218
106 12 468
107 527 255
108 545 806
109 832 12
110 628 495
111 194 884
112 395 309
113 655 39
114 558 175
115 247 947
116 36 394
117 599 724
118 83 489
119 754 703
120 889 230
121 248 220
122 642 549
123 747 86
124 201 643
125 400 574
126 653 798
127 500 726
128 585 586
129 285 769
130 336 912
131 239 951
132 335 815
133 911 708
134 602 984
135 372 799
136 816 435
137 617 639
138 793 584
139 803 561
140 479 831
141 618 113
142 838 111
143 989 451
144 581 757
145 294 174
146 350 909
147 335 941
148 920 675
149 493 469
150 678 127
151 316 319
152 73 608
153 884 613
154 809 556
155 705 769
156 847 359
157 520 413
158 960 936
159 693 559
160 376 144
161 88 626
162 540 206
163 474 559
164 241 949
165 583 602
166 215 48
167 585 234
168 788 392
169 621 498
170 788 277
171 678 560
172 351 354
173 156 507
174 617 486
175 213 23
176 884 616
177 285 153
178 176 928
179 166 656
180 507 183
181 995 412
182 649 933
183 131 560
184 502 640
185 462 970
186 465 114
187 192 569
188 547 473
189 557 408
190 480 579
191 775 395
192 845 753
193 962 95
194 627 629
195 775 894
196 109 935
197 478 480
198 511 488
199 785 899
200 487 121
201 453 440
202 470 598
203 756 89
204 647 753
205 973 391
206 842 559
207 948 485
208 999 268
209 471 517
210 381 534
211 973 212
212 164 485
213 429 565
214 186 426
215 838 897
216 779 143
217 866 928
218 214 623
219 532 586
220 513 152
221 915 772
222 204 585
223 343 558
224 877 720
225 730 272
226 364 617
227 210 569
228 514 296
229 33 761
230 202 695
231 597 866
232 376 83
233 483 578
234 639 101
235 774 925
236 528 192
237 660 561
238 888 7
239 710 665
240 939 390
241 156 683
242 62 737
243 952 915
244 14 440
245 890 951
246 478 956
247 782 216
248 822 370
249 73 108
250 7 981
251 987 382
252 397 439
253 986 513
254 871 661
255 636 866
256 154 39
257 70 100
258 75 647
259 86 692
260 263 570
261 76 883
262 648 837
263 713 447
264 316 688
265 470 613
266 157 295
267 499 223
268 482 100
269 280 692
270 54 122
271 455 989
272 923 705
273 41 665
274 829 426
275 57 114
276 445 135
277 126 154
278 543 422
279 395 335
280 947 675
281 127 46
282 895 216
283 590 641
284 721 116
285 323 319
286 495 158
287 534 496
288 784 89
289 600 973
290 582 263
291 630 484
292 498 412
293 737 749
294 262 566
295 669 65
296 280 605
297 163 577
298 7 891
299 156 301
300 144 312
301 112 407
302 232 344
303 529 362
304 889 916
305 952 677
306 644 925
307 982 797
308 328 995
309 954 103
310 534 176
311 769 423
312 537 183
313 263 242
314 693 433
315 301 278
316 813 997
317 522 400
318 342 979
319 121 219
320 282 213
321 495 110
322 974 643
323 567 187
324 588 289
325 415 542
326 711 288
327 634 955
328 836 650
329 757 708
330 640 675
331 179 319
332 526 587
333 15 596
334 979 645
335 647 323
336 184 38
337 302 219
338 991 649
339 887 717
340 331 231
341 822 365
342 359 963
343 60 730
344 481 728
345 192 598
346 121 520
347 854 951
348 916 240
349 889 765
350 608 852
351 250 676
352 385 490
353 977 120
354 695 732
355 168 907
356 487 552
357 379 518
358 741 69
359 741 665
360 542 145
361 87 291
362 785 260
363 943 254
364 183 988
365 597 257
366 780 886
367 227 435
368 257 337
369 100 996
370 194 631
371 909 704
372 169 906
373 399 812
374 855 575
375 802 150
376 451 192
377 979 779
378 342 445
379 692 472
380 9 452
381 665 139
382 128 106
383 768 689
384 791 248
385 836 385
386 315 98
387 895 755
388 363 154
389 373 633
390 42 430
391 592 274
392 95 712
393 565 82
394 770 512
395 191 627
396 307 97
397 808 903
398 630 96
399 694 101
400 714 65
401 380 514
402 581 60
403 452 330
404 269 422
405 986 414
406 645 986
407 258 620
408 159 382
409 594 3
410 575 648
411 505 396
412 259 278
413 440 484
414 839 329
415 796 265
416 184 633
417 110 901
418 612 243
419 471 610
420 651 691
421 788 451
422 778 532
423 999 602
424 951 203
425 290 179
426 511 279
427 409 840
428 726 723
429 198 57
430 330 143
431 112 165
432 564 379
433 841 919
434 736 821
435 772 252
436 233 210
437 956 386
438 29 477
439 440 322
440 300 683
441 804 616
442 139 376
443 177 425
444 330 450
445 52 153
446 681 294
447 806 403
448 238 416
449 930 935
450 220 643
451 976 863
452 487 945
453 777 163
454 224 959
455 1 880
456 530 411
457 205 696
458 1 975
459 463 461
460 12 909
461 960 395
462 808 103
463 555 364
464 312 251
465 874 740
466 135 158
467 904 910
468 102 78
469 926 747
470 133 610
471 712 498
472 801 94
473 792 533
474 744 492
475 49 160
476 910 98
477 892 299
478 623 197
479 280 296
480 390 873
481 569 740
482 382 176
483 22 899
484 224 74
485 976 106
486 643 937
487 286 733
488 343 347
489 768 396
490 281 2
491 113 496
492 449 469
493 146 512
494 541 265
495 108 218
496 909 962
497 873 616
498 891 741
499 632 229
500 254 413
501 174 367
502 801 148
503 94 483
504 70 736
505 396 630
506 722 757
507 524 473
508 390 532
509 865 278
510 739 441
511 522 405
512 315 92
513 367 807
514 174 702
515 628 479
516 245 335
517 849 644
518 188 955
519 898 25
520 369 346
521 795 493
522 704 846
523 774 620
524 635 620
525 512 482
526 67 510
527 527 626
528 777 242
529 622 844
530 285 224
531 652 328
532 358 274
533 824 571
534 228 251
535 166 573
536 5 941
537 74 80
538 668 777
539 773 7
540 94 533
541 895 963
542 744 131
543 710 940
544 790 311
545 778 994
546 425 873
547 880 251
548 319 503
549 678 661
550 131 647
551 756 147
552 752 792
553 833 41
554 570 210
555 237 533
556 484 801
557 281 735
558 126 383
559 765 621
560 340 504
561 483 824
562 380 261
563 450 572
564 737 364
565 504 708
566 379 894
567 415 846
568 794 896
569 981 897
570 192 525
571 307 810
572 193 59
573 718 704
574 635 865
575 44 81
576 677 455
577 365 89
578 993 748
579 264 253
580 158 537
581 837 673
582 625 578
583 726 948
584 529 813
585 493 88
586 977 476
587 926 415
588 370 421
589 960 959
590 56 666
591 568 361
592 418 120
593 830 947
594 447 171
595 136 12
596 510 511
597 610 786
598 155 680
599 710 998
600 443 869
601 243 357
602 736 125
603 323 814
604 526 532
605 54 930
606 76 619
607 938 393
608 518 361
609 114 189
610 398 156
611 666 975
612 976 884
613 362 501
614 799 452
615 791 71
616 745 362
617 691 851
618 957 214
619 547 416
620 747 223
621 686 750
622 520 508
623 86 411
624 790 247
625 754 899
626 387 843
627 682 525
628 156 967
629 553 756
630 308 857
631 525 768
632 739 419
633 74 407
634 783 958
635 651 110
636 551 459
637 980 868
638 46 872
639 130 202
640 677 872
641 374 795
642 751 788
643 83 664
644 792 917
645 746 768
646 367 690
647 124 298
648 280 13
649 636 512
650 146 305
651 423 798
652 477 717
653 504 648
654 524 158
655 951 766
656 647 246
657 395 299
658 970 492
659 260 138
660 394 642
661 657 44
662 263 655
663 776 212
664 436 346
665 982 977
666 99 1000
667 927 947
668 742 981
669 714 685
670 410 503
671 858 581
672 988 225
673 576 24
674 520 801
675 86 528
676 671 77
677 944 270
678 951 622
679 412 813
680 732 304
681 532 201
DEMAND_SECTION
2 6
3 1
4 10
5 7
6 6
7 2
8 8
9 7
10 3
11 5
12 1
13 4
14 10
15 4
16 10
17 3
18 6
19 4
20 3
21 10
22 8
23 6
24 7
25 7
26 4
27 1
28 5
29 3
30 6
31 8
32 5
33 9
34 6
35 9
36 9
37 4
38 1
39 9
40 10
41 2
42 4
43 1
44 10
45 1
46 10
47 2
48 10
49 1
50 4
51 5
52 5
53 6
54 6
55 9
56 4
57 4
58 9
59 3
60 7
61 6
62 8
63 5
64 9
65 3
66 9
67 1
68 1
69 5
70 7
71 6
72 6
73 9
74 3
75 8
76 5
77 9
78 10
79 9
80 5
81 9
82 5
83 10
84 1
85 2
86 9
87 3
88 8
89 2
90 6
91 1
92 3
93 1
94 8
95 8
96 6
97 9
98 5
99 5
100 9
101 1
COVERAGE_SECTION
2 10 592 232 577 276 160 610 186 52 388 268 
3 11 496 35 541 667 245 449 589 158 304 467 217 
4 11 615 77 553 539 288 109 472 67 462 203 84 
5 8 672 208 211 618 363 105 424 677 
6 11 420 330 549 137 194 239 669 117 524 354 204 
7 11 92 33 435 620 225 528 362 51 624 384 663 
8 9 431 609 277 466 639 495 319 445 475 
9 11 99 333 438 526 106 675 380 540 26 152 118 
10 11 269 16 440 351 662 264 487 557 95 81 407 
11 11 144 629 64 481 108 631 597 25 117 584 674 
12 9 249 257 275 537 270 468 575 382 445 
13 11 369 666 196 628 14 364 417 518 56 178 605 
14 11 628 364 518 56 178 13 454 355 372 131 196 
15 10 145 425 104 430 337 388 340 177 320 482 
16 11 269 10 440 351 487 557 264 662 81 95 129 
17 11 313 579 530 121 412 62 320 534 337 464 315 
18 11 113 661 295 676 48 80 400 88 409 399 358 
19 10 483 605 638 261 460 298 455 417 536 196 
20 11 305 280 272 148 133 371 78 469 322 334 338 
21 11 399 284 602 400 123 150 88 358 542 676 203 
22 11 118 438 503 390 526 43 106 244 380 633 99 
23 10 226 389 95 223 505 660 125 90 296 42 
24 11 494 107 167 290 554 162 681 365 391 39 91 
25 11 674 584 108 631 556 629 11 561 64 140 144 
26 11 152 29 93 606 161 183 540 470 675 258 346 
27 11 387 498 349 469 465 221 68 339 224 78 133 
28 10 601 302 516 368 448 500 501 404 367 331 
29 11 93 470 183 26 297 535 161 152 606 540 550 
30 11 651 556 65 679 561 140 373 344 652 427 567 
31 9 193 309 485 519 353 476 238 67 553 
32 11 613 352 560 102 401 357 548 210 378 508 670 
33 11 225 92 7 51 435 326 680 528 362 620 170 
34 7 396 386 512 659 177 430 145 
35 10 541 245 496 3 667 449 304 217 347 467 
36 10 569 158 612 243 589 637 665 451 449 667 
37 11 678 322 334 280 338 305 148 423 20 176 153 
38 11 155 506 645 293 642 621 552 538 434 354 428 
39 11 418 365 167 290 391 499 656 324 554 24 478 
40 11 279 72 520 664 172 112 439 403 488 657 588 
41 7 595 256 281 336 71 175 572 
42 11 296 407 260 294 662 95 218 450 351 23 222 
43 8 623 633 301 87 390 22 116 558 
44 11 189 619 278 456 511 317 157 432 83 463 411 
45 10 273 343 590 242 259 504 643 392 258 229 
46 11 233 190 163 356 202 563 419 265 332 219 213 
47 9 348 547 120 363 677 282 477 105 509 
48 11 402 409 673 113 661 18 398 295 393 234 676 
49 11 222 227 187 345 103 535 297 218 570 395 555 
50 11 479 315 151 285 62 412 464 579 368 17 516 
51 11 680 225 33 326 92 7 435 170 446 362 544 
52 10 186 276 200 268 321 286 592 594 585 220 
53 11 198 525 149 596 197 622 507 287 209 459 604 
54 10 122 649 169 82 110 237 291 627 174 582 
55 10 544 414 341 248 170 156 616 415 168 680 
56 11 178 518 14 355 372 628 454 364 131 111 164 
57 10 85 262 529 126 574 255 350 597 538 617 
58 11 254 74 581 517 328 70 224 339 68 371 148 
59 11 89 86 94 342 63 566 318 146 147 185 130 
60 11 410 527 283 165 219 332 128 184 653 137 194 
61 10 611 406 327 182 486 306 543 599 289 134 
62 11 464 315 17 50 579 530 337 313 340 479 412 
63 11 86 271 185 59 89 94 246 342 452 318 308 
64 11 481 629 144 11 631 117 25 108 127 597 565 
65 11 679 567 427 651 373 600 546 626 140 30 561 
66 9 263 474 471 379 510 314 576 632 76 
67 11 553 109 4 519 615 238 142 472 462 288 84 
68 11 339 224 498 465 133 371 27 387 74 272 349 
69 10 300 650 647 299 266 331 442 501 558 408 
70 11 497 517 176 153 328 254 58 671 581 374 441 
71 11 175 336 166 429 572 256 41 595 484 648 490 
72 11 40 664 403 279 439 201 252 520 588 292 411 
73 11 644 397 568 199 235 195 366 433 593 634 215 
74 11 58 254 371 339 133 148 68 224 272 581 517 
75 11 491 503 346 493 173 118 212 87 540 675 526 
76 11 421 614 311 136 510 632 191 447 489 79 521 
77 11 4 358 539 80 615 123 203 288 400 472 553 
78 11 469 655 221 27 272 133 387 498 20 371 349 
79 11 447 168 191 489 248 385 136 274 311 341 76 
80 11 77 539 358 400 18 123 4 203 615 295 113 
81 11 230 457 124 450 351 514 179 370 416 218 241 
82 11 54 122 582 128 649 169 110 165 174 237 291 
83 11 317 411 511 157 292 456 278 619 44 608 303 
84 11 462 472 288 615 216 142 502 203 375 123 551 
85 11 57 126 262 529 538 597 350 574 204 255 617 
86 11 63 59 89 271 94 185 342 246 318 452 147 
87 11 301 43 623 633 503 558 75 491 22 118 443 
88 11 676 635 295 399 234 398 150 21 381 661 113 
89 11 59 94 86 342 566 146 63 147 318 130 480 
90 11 210 508 357 223 401 125 325 613 560 670 32 
91 11 312 162 681 236 310 114 323 554 180 654 360 
92 11 7 33 435 528 225 362 620 624 51 384 170 
93 11 29 470 183 26 297 535 161 152 606 550 580 
94 11 89 59 86 546 566 185 63 246 600 480 452 
95 11 23 296 440 42 264 226 662 389 407 10 269 
96 11 446 656 326 499 335 418 225 531 39 51 365 
97 9 571 603 132 129 513 135 641 487 557 
98 10 405 461 205 587 181 437 607 240 143 251 
99 11 438 106 9 380 526 244 22 118 390 675 503 
100 10 669 573 239 428 359 119 329 383 354 549 
101 11 138 139 533 154 441 206 523 473 374 559 671 
102 6 444 32 560 378 548 613 
103 10 227 555 49 187 570 222 294 260 535 345 
104 10 388 482 160 15 610 430 145 340 425 592 
105 10 618 424 211 348 363 672 282 47 677 120 
106 11 380 438 244 99 390 22 526 118 9 116 43 
107 10 494 24 426 228 267 162 681 290 167 554 
108 10 584 25 674 11 631 629 144 556 64 561 
109 11 553 67 4 238 539 519 615 77 472 288 462 
110 7 169 291 174 515 649 54 122 
111 4 372 355 178 56 
112 8 657 279 520 439 562 532 40 664 
113 11 661 18 295 676 48 88 398 234 400 409 635 
114 11 323 91 312 310 236 360 162 554 681 654 220 
115 7 164 131 454 518 56 178 364 
116 4 390 633 244 43 
117 11 481 144 64 11 204 629 420 597 330 6 410 
118 11 503 526 491 22 675 75 540 346 438 87 43 
119 6 329 383 428 100 573 359 
120 7 282 547 348 47 509 105 363 
121 7 436 313 17 320 530 534 579 
122 10 54 237 582 649 171 82 627 159 169 110 
123 11 203 358 288 400 21 284 602 542 77 615 84 
124 10 370 395 450 416 218 81 179 345 230 457 
125 10 213 325 90 508 210 563 226 505 223 357 
126 11 85 538 57 262 204 597 529 621 155 38 617 
127 8 565 344 652 631 629 64 481 25 
128 11 165 582 82 219 60 283 332 194 524 137 410 
129 6 557 487 97 571 603 132 
130 6 146 147 566 342 630 89 
131 8 164 115 454 518 56 178 364 14 
132 9 603 571 97 513 135 641 630 626 373 
133 11 371 272 68 339 148 74 224 498 27 20 469 
134 7 289 327 406 486 61 611 182 
135 10 641 513 373 132 679 626 603 651 97 427 
136 10 274 614 421 447 76 79 311 168 385 191 
137 11 194 524 283 330 410 165 6 128 420 582 60 
138 10 101 139 154 441 533 523 559 473 422 206 
139 8 154 101 533 138 473 422 206 374 
140 7 561 556 65 674 600 584 30 
141 4 398 234 635 88 
142 9 462 472 84 502 375 288 67 615 216 
143 11 586 405 181 98 658 207 205 253 461 251 437 
144 11 11 481 64 629 117 597 631 108 204 25 674 
145 8 425 177 15 320 337 430 659 530 
146 8 130 566 147 480 89 342 59 630 
147 6 130 342 146 318 308 89 
148 11 280 272 371 305 133 74 20 254 37 339 68 
149 11 197 53 525 198 459 507 492 596 622 201 287 
150 7 381 399 635 88 21 284 234 
151 11 285 50 488 479 315 172 520 62 368 532 464 
152 11 606 161 26 258 29 93 643 333 470 590 273 
153 9 176 497 70 671 517 374 254 328 58 
154 8 139 533 101 473 138 206 422 374 
155 11 38 506 621 293 354 538 645 642 428 552 126 
156 5 341 248 385 414 55 
157 11 511 456 83 317 292 411 278 619 44 189 303 
158 11 243 589 449 667 36 569 665 3 612 496 467 
159 5 171 237 627 122 54 
160 10 388 610 104 482 430 592 2 577 232 15 
161 11 606 152 258 643 26 470 550 590 29 93 273 
162 11 681 91 236 312 554 310 323 114 24 180 267 
163 11 356 46 190 233 563 202 209 213 419 265 332 
164 8 131 115 454 518 56 178 364 14 
165 11 128 60 283 410 582 137 194 219 524 332 82 
166 9 429 175 572 484 336 71 256 648 490 
167 11 39 365 418 554 290 24 391 499 323 162 478 
168 11 79 191 489 447 311 248 341 385 136 616 274 
169 8 110 174 291 515 649 54 82 122 
170 11 415 362 384 435 624 544 528 92 33 7 55 
171 5 159 237 627 122 54 
172 9 488 520 285 279 151 40 112 588 657 
173 10 493 212 580 346 75 570 491 183 503 535 
174 6 169 291 515 110 649 54 
175 11 71 166 336 429 572 484 256 648 490 41 595 
176 10 153 497 70 671 517 254 374 328 58 678 
177 6 145 425 659 34 430 15 
178 11 56 355 372 518 14 628 111 454 364 131 196 
179 10 598 241 416 550 124 370 395 514 81 230 
180 10 236 286 310 312 654 681 220 91 162 267 
181 10 405 205 251 98 143 461 437 240 607 586 
182 6 486 306 327 61 611 406 
183 11 29 93 580 297 535 346 540 26 470 493 675 
184 7 653 527 265 419 202 60 332 
185 8 271 246 452 63 86 94 59 89 
186 10 52 268 200 276 321 585 592 286 2 594 
187 11 49 227 222 535 345 297 103 570 580 218 395 
188 11 636 507 287 525 198 622 53 278 596 149 619 
189 11 44 619 278 456 432 511 317 157 463 83 591 
190 11 233 46 163 202 356 563 419 265 332 219 213 
191 11 489 168 79 311 447 632 616 564 76 248 341 
192 6 465 224 349 498 387 68 
193 7 309 485 353 476 31 519 424 
194 11 524 137 283 330 582 165 410 6 128 549 420 
195 8 366 199 568 625 644 235 73 397 
196 11 417 13 605 628 261 369 355 666 19 178 372 
197 11 149 53 459 492 198 525 209 413 596 201 507 
198 11 525 53 507 622 596 287 149 197 188 604 209 
199 8 568 195 366 644 73 397 235 625 
200 10 321 268 186 52 585 286 220 276 654 360 
201 10 459 492 413 197 149 292 252 72 411 53 
202 8 419 265 190 233 46 563 163 356 
203 11 123 358 288 615 602 84 284 542 472 77 21 
204 11 538 621 126 597 354 117 85 155 420 144 6 
205 8 461 251 437 405 181 240 98 607 
206 8 374 533 671 154 139 101 138 473 
207 6 658 586 253 143 98 587 
208 6 5 672 677 363 211 618 
209 11 53 197 356 596 163 413 198 622 149 492 525 
210 11 508 90 357 401 325 613 670 125 352 223 32 
211 9 618 672 424 105 5 363 208 348 677 
212 10 173 493 75 570 491 580 346 443 214 87 
213 10 563 325 125 163 508 190 202 46 233 210 
214 10 443 367 408 448 501 212 442 500 87 558 
215 5 433 397 217 568 73 
216 11 453 502 551 375 542 84 602 462 288 472 203 
217 9 304 347 433 245 593 215 467 35 541 
218 10 450 370 395 124 416 345 222 407 49 227 
219 11 332 527 233 46 60 190 128 165 604 356 184 
220 10 654 286 360 180 310 312 200 236 321 91 
221 9 387 349 469 27 655 78 498 465 68 
222 11 49 227 345 187 103 218 535 297 395 370 416 
223 11 90 210 23 357 508 560 401 125 548 613 226 
224 11 339 68 465 498 27 133 371 74 387 192 349 
225 11 33 51 326 92 7 680 435 620 446 362 528 
226 8 389 23 505 660 95 125 223 90 
227 11 49 222 187 103 345 535 555 297 570 294 260 
228 4 426 494 107 24 
229 4 242 343 504 45 
230 9 457 81 514 241 598 124 351 179 450 
231 6 350 529 574 255 262 57 
232 8 577 2 592 160 512 386 396 388 
233 11 46 190 163 202 356 419 563 265 332 219 213 
234 7 398 635 141 88 676 381 150 
235 10 644 73 199 195 625 634 568 366 397 583 
236 11 681 312 310 91 162 180 114 654 323 267 220 
237 7 171 122 159 54 582 627 649 
238 11 519 109 67 553 31 476 4 142 193 539 309 
239 7 669 100 359 549 573 119 428 
240 6 607 437 461 587 205 98 
241 9 598 514 179 550 230 457 81 416 124 
242 6 343 504 229 392 45 259 
243 11 158 449 569 612 667 36 589 467 637 451 3 
244 9 380 106 390 438 116 22 99 633 43 
245 10 35 541 496 3 217 304 347 667 449 467 
246 6 452 185 271 94 63 86 
247 10 663 528 624 384 620 435 362 7 92 415 
248 8 341 385 156 79 447 168 414 55 
249 9 12 257 275 270 537 575 468 445 382 
250 11 458 536 605 460 483 298 19 369 666 455 13 
251 8 205 461 181 437 405 98 240 607 
252 9 588 352 378 201 492 32 413 670 72 
253 8 658 586 207 143 423 98 405 181 
254 11 58 74 517 70 581 328 497 176 153 148 371 
255 7 574 529 262 350 231 640 57 
256 7 281 336 595 41 572 429 175 
257 7 12 249 275 537 270 575 468 
258 10 643 161 590 606 273 152 259 550 45 26 
259 9 392 643 590 45 258 343 504 242 273 
260 10 294 296 42 555 407 227 103 49 222 187 
261 7 19 638 417 605 483 196 298 
262 9 57 85 529 255 574 126 350 617 640 
263 7 314 66 510 379 576 632 471 
264 10 440 269 10 16 95 646 487 557 662 351 
265 8 419 202 190 233 46 184 563 653 
266 6 299 650 300 331 647 69 
267 9 681 180 236 107 162 312 24 91 376 
268 8 321 585 186 200 52 276 286 220 
269 11 10 16 440 351 264 487 662 557 95 81 407 
270 8 275 249 257 12 445 475 575 537 
271 8 185 63 246 86 452 94 59 89 
272 11 133 371 20 148 68 280 339 305 78 469 74 
273 11 590 45 258 643 259 606 161 152 343 392 333 
274 9 136 447 79 614 385 421 76 168 248 
275 8 270 249 257 12 575 537 445 475 
276 11 52 186 592 594 200 2 268 610 286 321 376 
277 6 466 431 8 609 382 639 
278 11 619 44 456 189 157 511 317 83 636 292 411 
279 10 112 520 40 657 664 439 172 488 72 403 
280 11 305 20 148 272 37 322 334 371 133 338 678 
281 6 256 595 468 41 336 382 
282 6 120 348 547 47 105 424 
283 11 410 137 60 194 165 524 128 330 527 582 6 
284 11 602 21 542 399 123 150 203 551 358 400 88 
285 11 151 50 488 172 315 479 520 532 62 368 464 
286 10 220 180 654 200 310 52 236 321 312 360 
287 11 622 198 507 188 525 596 53 604 636 149 197 
288 11 472 615 84 203 462 123 4 358 77 216 142 
289 7 134 327 406 486 182 61 306 
290 11 391 365 39 324 167 418 24 494 554 107 499 
291 6 515 110 174 169 649 54 
292 11 83 411 157 511 317 456 278 619 44 201 608 
293 10 506 645 428 38 155 642 354 329 552 119 
294 10 260 555 296 42 103 227 407 49 222 187 
295 11 676 661 88 113 399 400 18 234 635 398 21 
296 11 42 407 260 294 95 662 23 218 450 351 222 
297 11 535 187 183 345 49 580 93 29 222 470 227 
298 8 455 483 460 638 19 536 605 261 
299 6 266 650 300 331 647 69 
300 7 650 299 69 266 647 331 361 
301 8 623 87 558 43 633 442 408 443 
302 9 516 601 28 368 331 501 479 412 448 
303 7 608 463 317 432 591 411 83 
304 6 467 217 245 35 449 541 
305 11 280 20 148 272 322 334 37 338 133 371 678 
306 6 182 486 327 61 611 255 
307 8 377 655 578 451 78 637 221 469 
308 7 318 342 147 59 130 89 146 
309 7 193 485 353 476 31 519 424 
310 11 312 236 91 654 114 681 180 162 220 360 323 
311 11 76 489 191 632 421 510 168 79 447 614 136 
312 11 310 91 236 681 114 162 654 180 323 360 220 
313 11 17 579 121 530 320 412 534 62 436 337 464 
314 6 263 576 379 510 632 66 
315 11 62 50 479 464 412 151 17 579 285 313 340 
316 11 545 634 593 347 668 73 235 433 644 217 541 
317 11 511 83 157 456 411 292 44 278 619 189 303 
318 7 308 342 147 59 89 130 146 
319 5 495 639 609 8 431 
320 9 530 337 17 121 313 425 145 579 464 
321 9 200 268 585 186 52 220 286 276 654 
322 11 334 338 37 678 305 280 423 20 148 272 371 
323 11 114 91 554 312 162 310 681 236 360 167 654 
324 8 391 290 365 39 418 494 167 24 
325 10 213 508 125 210 670 90 357 401 563 352 
326 11 51 225 680 446 33 96 7 92 435 531 335 
327 8 486 182 61 306 406 289 611 134 
328 10 517 581 70 58 254 441 497 176 74 153 
329 5 119 383 428 100 573 
330 11 6 420 549 137 194 524 283 117 410 239 669 
331 6 299 266 300 650 69 501 
332 11 219 527 233 46 190 356 60 604 202 184 128 
333 11 9 152 606 273 26 161 258 590 643 99 675 
334 11 322 338 37 678 305 280 423 20 148 272 371 
335 6 531 446 96 324 326 391 
336 10 572 429 256 166 175 71 484 595 41 281 
337 10 530 320 340 464 62 425 17 15 313 145 
338 11 334 322 37 305 423 678 280 20 148 272 133 
339 11 68 224 498 133 371 465 74 27 272 387 349 
340 11 464 337 62 530 15 532 320 315 562 17 425 
341 8 248 385 156 79 414 447 168 55 
342 8 318 147 59 89 308 146 130 86 
343 6 242 504 45 392 229 259 
344 8 652 127 565 631 30 556 629 25 
345 10 222 49 187 395 218 370 227 297 416 535 
346 11 491 493 540 75 675 173 183 580 503 118 212 
347 11 593 217 433 245 541 35 304 215 496 316 3 
348 9 47 120 363 282 105 547 677 618 424 
349 10 387 27 498 221 465 469 68 192 224 339 
350 7 529 231 574 255 57 262 85 
351 11 662 10 16 269 81 450 457 440 230 407 124 
352 10 32 401 613 670 357 508 210 560 102 252 
353 7 485 193 309 476 31 424 211 
354 11 621 428 573 506 155 293 100 38 669 204 538 
355 9 372 178 111 56 518 417 628 14 196 
356 11 163 46 233 190 209 563 604 596 202 332 622 
357 11 401 210 508 613 90 352 32 670 560 325 223 
358 11 123 203 400 77 21 288 80 615 284 602 399 
359 7 239 100 669 383 119 573 329 
360 8 654 220 310 114 312 91 236 286 
361 4 647 300 650 69 
362 11 415 384 624 435 170 528 92 7 33 247 663 
363 9 677 348 47 105 618 211 424 672 5 
364 11 14 518 628 56 454 178 131 13 164 115 355 
365 11 39 290 391 418 167 324 499 24 656 554 494 
366 7 195 199 568 625 397 644 73 
367 6 448 500 214 404 443 28 
368 10 516 601 302 28 479 50 412 151 285 315 
369 11 666 13 196 628 14 605 364 250 417 518 56 
370 10 395 416 124 218 450 345 179 222 81 49 
371 11 133 272 339 68 74 148 224 498 20 27 469 
372 9 355 178 111 56 518 417 628 14 196 
373 10 679 651 135 427 641 513 626 65 567 30 
374 8 671 206 533 497 153 154 176 70 
375 9 502 216 453 84 551 462 142 472 542 
376 8 594 286 180 267 276 610 52 482 
377 8 307 655 578 78 469 221 451 27 
378 5 444 102 588 32 252 
379 7 576 66 263 471 314 627 474 
380 11 244 106 438 390 99 22 116 43 633 526 118 
381 5 150 635 234 88 399 
382 8 468 277 12 466 249 257 281 537 
383 5 119 329 359 100 573 
384 11 624 362 528 415 435 170 247 92 663 7 620 
385 7 248 341 156 447 79 274 168 
386 8 512 396 34 430 577 177 232 659 
387 11 27 349 498 221 465 469 68 224 339 78 133 
388 10 104 160 482 430 610 15 577 592 2 145 
389 7 226 505 660 23 646 95 125 
390 9 244 116 633 22 43 380 106 623 438 
391 10 290 324 365 39 418 167 24 494 499 656 
392 7 259 504 343 242 643 45 590 
393 6 402 673 141 48 398 360 
394 8 422 473 521 474 139 154 471 66 
395 10 370 416 124 218 345 450 179 222 49 81 
396 8 386 512 34 430 577 177 659 232 
397 9 568 73 644 199 215 366 195 433 235 
398 7 234 141 635 88 676 295 381 
399 11 21 88 150 284 676 400 295 635 381 602 123 
400 11 358 21 123 399 295 676 203 80 284 88 77 
401 11 357 210 508 613 352 32 670 90 560 325 223 
402 7 393 673 48 409 398 141 234 
403 6 439 664 72 279 40 112 
404 4 500 448 367 28 
405 11 181 205 98 251 461 143 437 607 240 587 586 
406 10 611 61 327 134 289 486 182 306 599 543 
407 11 42 296 662 218 450 260 294 351 95 124 222 
408 10 442 501 558 443 214 301 69 331 87 300 
409 8 673 48 402 113 661 18 393 295 
410 11 283 60 137 165 527 194 128 524 330 653 184 
411 11 83 292 317 511 157 456 608 303 278 44 619 
412 9 579 479 17 313 534 50 315 62 121 
413 10 492 459 670 197 209 201 149 352 53 252 
414 6 156 341 55 248 544 385 
415 11 362 170 384 624 435 528 92 544 7 247 33 
416 10 395 370 124 179 218 345 450 81 222 550 
417 9 196 261 355 19 372 605 638 178 13 
418 11 39 365 499 167 656 290 391 478 324 554 24 
419 8 265 202 190 233 46 184 563 653 
420 11 6 330 549 354 117 137 204 669 239 194 573 
421 10 76 614 136 311 521 274 510 447 79 191 
422 8 473 394 139 154 521 474 138 101 
423 10 334 322 338 678 37 305 253 280 20 148 
424 8 618 105 211 672 348 363 282 5 
425 7 145 177 320 15 337 530 659 
426 5 228 107 494 24 267 
427 10 567 626 65 679 373 546 480 651 600 513 
428 10 573 293 100 354 119 329 506 669 621 645 
429 8 572 166 336 484 175 256 71 281 
430 10 388 104 15 160 177 386 145 34 396 512 
431 9 8 277 466 609 639 495 319 382 445 
432 10 463 591 189 44 303 619 317 456 278 511 
433 9 215 217 593 347 397 73 304 644 568 
434 7 552 642 522 38 617 645 155 
435 11 528 362 92 384 624 7 415 170 33 247 620 
436 5 121 534 313 320 17 
437 8 461 240 205 607 251 98 405 587 
438 11 106 99 380 22 244 390 526 118 503 9 43 
439 7 403 664 112 279 657 40 72 
440 11 264 269 10 16 662 95 351 487 557 646 407 
441 10 523 101 138 559 328 533 517 139 70 154 
442 9 558 408 501 301 69 443 87 300 623 
443 10 214 408 367 501 212 442 448 87 558 301 
444 4 378 102 588 32 
445 7 475 270 275 249 8 12 257 
446 9 96 326 335 531 680 225 51 656 33 
447 11 79 168 191 274 136 385 248 489 341 311 614 
448 7 500 367 404 28 214 601 443 
449 11 667 158 243 3 496 467 589 35 245 304 541 
450 10 124 218 370 395 81 416 407 351 662 345 
451 5 637 612 569 243 36 
452 4 246 185 271 94 
453 9 216 551 375 502 542 663 247 602 84 
454 10 131 164 115 518 56 364 14 178 628 355 
455 7 298 483 460 638 19 536 605 
456 11 157 511 317 278 619 44 83 189 411 292 432 
457 9 230 81 514 351 241 598 124 450 179 
458 11 250 536 460 605 483 298 19 455 369 666 638 
459 10 492 201 197 149 413 53 525 198 209 292 
460 10 483 298 455 536 19 605 638 458 261 250 
461 9 437 205 240 607 98 251 405 181 587 
462 11 472 84 288 142 615 502 375 216 203 4 123 
463 7 591 432 303 608 44 189 317 
464 11 62 340 315 337 530 17 50 320 579 313 532 
465 10 498 224 68 339 387 27 349 192 133 371 
466 6 277 431 609 8 639 382 
467 7 304 449 217 245 667 35 243 
468 6 537 12 382 257 281 249 
469 11 78 27 221 655 387 498 349 133 272 68 371 
470 10 93 29 550 297 161 183 535 26 416 179 
471 9 66 379 474 627 263 576 394 510 159 
472 11 462 84 288 615 142 203 4 216 502 123 375 
473 8 422 154 139 394 521 533 138 101 
474 8 66 394 471 510 521 422 263 379 
475 5 445 270 275 8 249 
476 7 309 193 485 353 142 519 67 
477 4 509 47 547 677 
478 7 499 418 167 39 554 656 323 
479 11 50 315 412 62 151 579 368 285 17 516 464 
480 10 566 626 546 567 427 600 146 65 373 679 
481 11 64 144 629 11 117 631 597 25 108 127 565 
482 10 104 610 388 160 15 430 594 592 376 276 
483 8 460 298 455 19 638 536 605 261 
484 6 166 429 572 175 336 71 
485 7 353 193 309 476 31 424 211 
486 7 182 306 327 61 611 406 289 
487 9 557 129 16 269 10 440 264 97 351 
488 10 172 520 285 151 279 40 112 50 657 532 
489 10 191 168 311 79 632 447 616 564 76 510 
490 5 648 175 71 166 484 
491 11 75 503 346 118 493 540 675 173 526 212 22 
492 10 459 413 201 197 149 670 209 53 252 525 
493 10 173 346 580 212 75 491 570 183 540 503 
494 10 107 24 426 228 290 391 324 167 365 162 
495 5 319 639 609 8 431 
496 11 3 35 541 245 667 449 304 589 467 217 347 
497 10 153 176 70 517 671 254 374 328 58 206 
498 11 27 387 465 68 339 349 224 469 133 221 371 
499 11 656 418 478 39 365 167 96 290 391 554 324 
500 5 448 404 367 28 601 
501 11 408 442 331 558 69 443 214 28 302 300 299 
502 9 375 216 453 84 551 462 142 472 542 
503 11 118 491 75 22 526 346 675 540 87 493 43 
504 6 242 343 392 229 45 259 
505 6 660 389 226 23 125 646 
506 10 293 155 38 645 428 354 621 642 552 573 
507 11 525 198 188 287 636 53 149 622 596 197 278 
508 11 210 357 90 401 325 670 352 613 125 32 213 
509 7 547 477 47 120 414 348 282 
510 10 632 263 66 311 76 314 421 474 489 379 
511 11 317 157 83 456 411 292 278 619 44 189 303 
512 8 386 396 34 577 430 232 177 659 
513 10 135 641 373 132 626 603 679 97 427 651 
514 7 241 230 598 457 81 179 124 
515 6 291 174 110 169 649 54 
516 9 368 302 601 28 479 412 50 331 151 
517 11 328 70 254 581 58 497 176 153 441 74 671 
518 11 56 14 178 364 628 454 131 355 164 372 115 
519 10 238 67 109 553 31 476 193 309 4 142 
520 10 172 488 279 40 112 285 657 151 664 72 
521 7 394 473 614 421 422 76 474 
522 6 617 640 434 262 57 38 
523 5 559 441 138 101 359 
524 10 194 137 582 283 165 330 549 128 237 6 
525 11 198 507 53 149 287 622 596 197 188 636 604 
526 11 118 675 540 503 22 491 438 346 99 75 106 
527 10 60 184 653 332 219 410 265 419 165 202 
528 11 435 624 384 362 92 247 7 415 663 620 170 
529 8 350 574 255 262 57 231 85 126 
530 9 320 337 17 313 579 121 464 62 425 
531 5 335 446 96 326 324 
532 10 562 657 112 340 464 285 315 62 151 50 
533 10 154 206 139 101 374 138 671 441 473 422 
534 6 313 579 121 17 412 436 
535 11 297 187 49 345 183 580 222 227 93 29 470 
536 11 460 458 250 483 298 605 19 455 638 261 196 
537 6 257 12 249 468 575 275 
538 11 126 204 621 155 85 38 354 57 506 597 262 
539 11 77 80 4 109 615 553 358 123 288 400 203 
540 11 675 346 526 491 118 183 26 503 75 493 29 
541 11 35 245 496 3 667 347 217 449 304 467 589 
542 11 602 551 284 216 203 21 123 453 84 288 399 
543 8 583 668 61 611 599 625 182 235 
544 11 55 170 415 362 414 680 51 435 341 384 624 
545 11 316 634 668 599 235 583 593 644 73 347 543 
546 10 600 567 480 427 65 626 566 94 679 373 
547 7 120 47 509 282 348 477 363 
548 5 560 102 613 32 444 
549 9 239 6 330 420 669 100 524 573 194 
550 9 179 470 598 241 161 643 416 258 93 
551 11 542 216 453 602 502 375 284 84 203 123 21 
552 7 642 645 434 38 293 506 155 
553 11 67 109 4 615 472 238 462 519 77 288 539 
554 11 323 167 162 91 114 24 681 312 236 39 310 
555 8 103 294 227 260 570 49 187 222 
556 10 561 140 674 30 25 584 631 65 108 651 
557 8 487 129 16 269 10 440 264 97 
558 8 442 301 408 623 501 69 87 633 
559 5 523 441 138 359 101 
560 7 548 613 32 102 357 401 352 
561 8 140 556 674 584 25 65 30 600 
562 8 532 657 112 340 464 279 62 285 
563 10 213 163 190 46 202 233 356 419 265 325 
564 8 616 489 191 632 168 680 311 55 
565 8 127 652 344 653 631 64 184 629 
566 9 480 146 130 89 546 626 94 59 567 
567 10 427 65 626 546 679 600 480 373 651 566 
568 8 199 397 366 195 644 73 235 625 
569 9 612 36 637 243 451 158 449 589 667 
570 10 103 580 173 187 555 227 493 212 49 535 
571 7 603 97 132 129 630 513 135 
572 8 429 336 166 484 175 256 71 281 
573 11 100 669 428 119 354 329 239 359 293 383 506 
574 7 255 529 350 262 231 57 640 
575 6 537 257 275 12 249 270 
576 7 379 314 263 66 291 471 515 
577 9 232 2 512 386 160 396 592 430 388 
578 10 377 655 307 78 20 469 221 272 305 280 
579 11 17 313 412 530 534 121 62 320 315 479 464 
580 11 493 173 183 570 535 297 346 187 212 103 49 
581 7 328 58 517 254 74 70 224 
582 10 122 237 82 128 524 54 165 194 171 137 
583 9 543 668 599 235 625 634 61 611 545 
584 8 674 108 25 631 556 561 140 11 
585 8 268 321 200 186 52 220 276 286 
586 10 658 143 207 253 98 405 181 587 461 205 
587 6 607 240 98 461 437 205 
588 9 252 378 444 102 40 32 172 72 352 
589 11 158 665 667 449 3 243 496 36 35 541 569 
590 10 273 258 643 45 259 161 606 152 392 343 
591 6 463 432 303 189 44 608 
592 11 2 276 610 52 186 160 232 594 577 388 268 
593 11 347 433 217 73 634 644 397 215 316 235 245 
594 9 376 276 52 286 610 592 186 180 200 
595 7 41 256 281 336 71 468 572 
596 11 622 53 198 604 287 525 209 507 149 197 356 
597 11 144 85 11 126 57 204 529 538 481 117 262 
598 9 241 179 514 550 230 457 416 81 124 
599 10 668 611 583 61 543 406 545 634 327 182 
600 8 546 567 65 427 140 480 561 626 
601 11 28 302 516 368 500 448 404 501 479 331 367 
602 11 542 284 551 21 123 203 216 399 358 453 150 
603 8 132 571 97 513 630 135 641 129 
604 11 622 596 287 356 198 53 525 219 332 209 163 
605 11 19 483 460 536 261 196 638 298 417 250 458 
606 11 152 161 258 26 643 590 29 93 273 470 550 
607 6 240 437 461 587 205 98 
608 7 303 411 463 317 83 511 432 
609 7 8 639 431 495 319 277 466 
610 10 160 482 388 104 592 276 594 2 376 430 
611 11 61 406 327 486 182 599 306 543 134 289 583 
612 7 569 637 451 243 36 158 449 
613 11 32 401 560 357 352 102 210 508 548 90 670 
614 8 421 76 136 274 521 311 447 79 
615 11 288 472 4 84 462 77 203 123 358 553 67 
616 8 564 489 191 168 632 680 55 79 
617 6 522 640 262 434 57 255 
618 10 424 105 211 672 363 5 348 677 47 282 
619 11 278 44 189 456 157 511 317 83 432 636 411 
620 11 7 663 92 247 528 435 33 624 384 225 362 
621 11 354 155 538 506 204 38 428 293 573 126 645 
622 11 596 287 198 604 53 525 507 188 149 197 209 
623 7 43 633 301 87 390 558 116 
624 11 384 362 528 415 435 170 247 92 663 7 620 
625 7 195 366 199 235 568 644 73 
626 10 427 567 480 373 679 513 135 65 546 641 
627 8 171 159 471 237 54 122 649 379 
628 11 14 364 518 56 13 178 196 355 372 369 666 
629 11 64 11 481 144 631 25 108 117 674 127 584 
630 6 603 571 132 130 146 97 
631 11 25 629 674 64 11 108 584 127 481 556 144 
632 9 510 311 489 263 191 76 314 66 564 
633 6 623 43 301 390 116 87 
634 11 235 545 644 73 668 593 316 583 199 397 568 
635 7 234 88 398 150 381 141 676 
636 11 188 507 278 287 619 525 198 44 189 456 157 
637 5 451 612 569 243 36 
638 7 19 261 483 298 455 460 605 
639 7 319 609 495 431 8 466 277 
640 6 617 522 255 574 262 57 
641 10 135 513 373 679 132 651 626 97 603 427 
642 7 552 645 434 38 293 506 155 
643 10 258 590 259 161 273 606 392 550 45 152 
644 10 73 199 235 397 568 195 366 625 634 593 
645 9 293 642 552 506 38 155 428 434 329 
646 8 264 660 389 440 505 226 95 23 
647 6 650 300 299 266 69 361 
648 5 490 175 71 166 484 
649 9 54 110 169 291 174 515 122 82 627 
650 6 300 299 266 647 69 331 
651 10 679 373 65 30 427 567 641 135 513 626 
652 7 344 127 565 30 631 653 184 
653 6 184 527 265 419 60 202 
654 10 220 310 360 312 286 180 236 114 91 681 
655 9 78 377 469 221 307 578 27 387 349 
656 11 499 96 418 39 365 478 446 391 167 290 324 
657 8 112 279 562 532 439 520 664 40 
658 8 586 207 253 143 98 405 181 587 
659 4 177 34 145 425 
660 6 505 389 226 646 23 125 
661 11 113 295 18 676 48 88 398 234 400 635 399 
662 11 351 407 10 269 16 450 440 42 296 95 81 
663 10 247 528 620 624 384 435 7 92 362 453 
664 8 403 439 72 40 279 112 657 520 
665 11 589 158 36 667 449 3 243 496 569 35 541 
666 11 369 13 196 628 14 605 364 250 417 518 458 
667 11 449 3 496 35 158 589 541 245 243 467 304 
668 10 599 583 545 634 543 235 316 611 61 644 
669 10 100 573 239 359 428 549 119 329 354 383 
670 10 352 401 357 508 413 325 210 613 32 492 
671 9 374 206 533 497 153 176 70 101 154 
672 9 5 211 618 424 208 105 363 677 348 
673 8 409 402 48 393 113 661 398 18 
674 9 25 584 108 631 556 561 140 629 11 
675 11 540 526 346 118 491 503 26 75 183 493 22 
676 11 295 88 399 661 635 234 113 398 400 21 150 
677 6 363 47 348 105 208 618 
678 10 37 322 334 338 423 280 305 148 176 153 
679 10 373 651 65 427 567 626 135 641 513 30 
680 11 51 326 225 33 446 92 7 544 616 564 170 
681 11 162 236 91 312 310 180 114 323 554 267 654 
DEPOT_SECTION
   1
   -1
EOF
