NAME :  X-n143-kX-w56-c7.cctp
COMMENT : 	Adapted by Maziero, Usberti and Cavellucci from the Uchoa, Pecin, Pessoa, Poggi, Subramanian, and Vidal (2013)
TYPE :  CCTP
DIMENSION :    143
EDGE_WEIGHT_TYPE : 	EUC_2D	
CAPACITY : 	1190
VERTICES_WITHIN_COVERAGE :  7
VERTICES_WITH_DEMAND : 	56
NODE_COORD_SECTION
1 0 0
2 175 821
3 62 495
4 662 959
5 109 216
6 156 748
7 178 957
8 347 184
9 89 814
10 257 265
11 662 892
12 881 69
13 478 9
14 76 79
15 898 650
16 711 766
17 325 163
18 42 411
19 722 221
20 366 190
21 378 521
22 907 497
23 924 738
24 954 524
25 594 724
26 253 89
27 746 971
28 655 716
29 627 301
30 994 958
31 384 833
32 234 979
33 337 173
34 865 383
35 488 878
36 531 291
37 289 151
38 935 667
39 659 800
40 965 898
41 248 436
42 97 623
43 953 932
44 30 810
45 683 120
46 577 83
47 376 751
48 804 302
49 265 688
50 425 392
51 392 371
52 438 417
53 373 511
54 19 913
55 415 49
56 663 461
57 583 355
58 569 522
59 312 683
60 288 508
61 177 874
62 609 113
63 905 309
64 701 895
65 640 112
66 504 95
67 466 606
68 367 726
69 161 8
70 944 892
71 223 393
72 329 371
73 130 888
74 450 443
75 857 128
76 709 966
77 642 967
78 872 705
79 0 414
80 207 911
81 993 855
82 883 147
83 740 490
84 600 372
85 184 48
86 489 259
87 114 737
88 244 783
89 420 439
90 522 41
91 617 177
92 575 340
93 607 806
94 144 513
95 695 974
96 603 507
97 855 318
98 343 206
99 244 929
100 418 513
101 976 38
102 435 672
103 120 988
104 691 853
105 986 418
106 566 975
107 625 733
108 166 787
109 605 798
110 209 194
111 19 892
112 169 840
113 756 913
114 666 928
115 13 829
116 103 304
117 63 384
118 564 787
119 271 50
120 949 738
121 357 228
122 363 898
123 912 704
124 765 462
125 167 348
126 848 405
127 5 76
128 188 65
129 229 41
130 632 968
131 75 96
132 936 903
133 982 492
134 658 258
135 600 833
136 299 593
137 65 277
138 695 468
139 508 995
140 651 522
141 824 865
142 842 802
143 684 432
DEMAND_SECTION
2 95
3 35
4 81
5 12
6 3
7 99
8 47
9 64
10 20
11 47
12 27
13 77
14 50
15 75
16 14
17 24
18 3
19 58
20 65
21 98
22 35
23 35
24 45
25 52
26 11
27 13
28 11
29 76
30 98
31 5
32 9
33 87
34 71
35 83
36 2
37 54
38 63
39 63
40 21
41 36
42 17
43 15
44 44
45 62
46 87
47 90
48 92
49 18
50 41
51 85
52 62
53 72
54 9
55 18
56 76
57 17
COVERAGE_SECTION
2 7 112 108 61 6 88 73 9 
3 7 94 18 79 117 42 125 71 
4 7 77 114 130 95 76 11 64 
5 7 137 116 110 131 14 125 10 
6 7 108 87 2 112 9 88 49 
7 7 80 32 103 99 61 73 112 
8 7 33 20 98 17 121 37 10 
9 7 44 115 87 108 112 73 2 
10 7 110 98 121 37 8 33 125 
11 7 114 64 104 4 77 130 135 
12 7 75 82 101 45 19 63 48 
13 7 90 55 66 46 62 65 119 
14 7 131 127 69 85 128 5 129 
15 7 38 123 78 23 120 24 22 
16 7 39 28 104 107 93 109 25 
17 7 33 8 37 98 20 121 26 
18 7 117 79 3 116 137 125 94 
19 7 134 45 91 48 29 65 62 
20 7 8 98 33 121 17 37 10 
21 7 53 100 60 89 74 136 52 
22 7 24 133 126 105 34 124 15 
23 7 120 123 78 38 15 142 81 
24 7 133 22 105 15 38 126 34 
25 7 107 28 118 109 93 39 135 
26 7 119 129 128 37 85 17 110 
27 7 76 95 113 4 64 114 77 
28 7 107 25 16 39 109 93 118 
29 7 134 92 57 84 36 19 91 
30 7 43 40 132 70 81 141 142 
31 7 122 47 68 35 88 59 102 
32 7 99 7 80 103 61 73 122 
33 7 8 17 20 98 37 121 26 
34 7 126 97 63 48 22 105 124 
35 7 31 118 139 135 106 122 93 
36 7 86 92 57 29 84 134 91 
37 7 17 33 8 26 98 20 110 
38 7 15 123 23 120 78 24 142 
39 7 93 109 16 104 135 107 28 
40 7 70 132 43 81 30 141 142 
41 7 71 60 72 125 94 53 21 
42 7 87 94 3 6 108 49 9 
43 7 132 40 70 30 81 141 142 
44 7 115 9 111 54 87 73 108 
45 7 65 62 91 19 46 134 75 
46 7 62 65 90 66 91 45 13 
47 7 68 31 59 102 49 88 122 
48 7 97 34 63 126 19 134 124 
49 7 59 88 136 68 6 47 108 
50 7 52 51 89 74 72 100 53 
51 7 50 72 52 89 74 53 100 
52 7 50 89 74 51 100 53 72 
53 7 21 100 60 89 74 136 52 
54 7 111 115 44 73 9 103 61 
55 7 13 66 90 119 17 33 20 
56 7 138 143 140 96 83 124 84 
57 7 92 84 29 36 134 143 56 
58 7 96 140 56 67 138 74 143 
59 7 49 68 136 47 88 102 31 
60 7 41 53 136 21 100 71 72 
61 7 112 80 73 2 7 99 108 
62 7 65 46 91 45 66 90 134 
63 7 97 34 48 126 105 82 75 
64 7 11 104 114 113 76 4 95 
65 7 62 45 46 91 19 66 90 
66 7 90 46 13 55 62 65 91 
67 7 102 100 21 53 58 68 74 
68 7 47 59 102 31 49 88 136 
69 7 85 128 129 14 119 26 131 
70 7 132 40 43 81 30 141 142 
71 7 41 125 72 10 60 94 116 
72 7 51 50 41 71 89 52 10 
73 7 61 112 80 2 7 9 103 
74 7 52 89 50 100 51 53 21 
75 7 82 12 101 19 45 48 63 
76 7 95 27 4 114 77 64 113 
77 7 130 4 114 95 76 106 11 
78 7 123 15 23 38 120 142 141 
79 7 18 117 3 116 137 94 125 
80 7 99 61 7 32 73 112 2 
81 7 40 70 132 43 30 120 23 
82 7 75 12 101 63 97 48 19 
83 7 124 138 143 56 140 126 96 
84 7 57 92 29 143 36 56 134 
85 7 128 69 129 26 119 14 131 
86 7 36 92 57 121 20 29 50 
87 7 6 108 9 2 44 42 112 
88 7 108 2 112 6 49 61 59 
89 7 52 74 50 51 100 53 21 
90 7 13 66 46 55 62 65 91 
91 7 62 65 45 134 46 19 29 
92 7 57 84 29 36 134 86 143 
93 7 109 135 118 39 107 25 104 
94 7 3 42 41 18 60 71 117 
95 7 76 4 27 77 114 130 64 
96 7 58 140 56 138 143 84 83 
97 7 63 48 34 126 19 105 124 
98 7 8 121 20 33 17 37 10 
99 7 80 32 7 61 112 73 122 
100 7 21 53 89 74 52 67 50 
101 7 12 82 75 63 45 97 19 
102 7 67 68 47 59 136 100 21 
103 7 7 73 32 80 54 61 99 
104 7 64 11 39 114 113 16 135 
105 7 133 24 22 34 63 126 97 
106 7 139 130 77 4 114 35 11 
107 7 25 28 109 39 93 118 16 
108 7 2 6 112 87 88 9 61 
109 7 93 135 118 39 107 25 28 
110 7 10 37 5 26 17 33 128 
111 7 54 115 44 9 73 103 61 
112 7 2 61 108 73 80 9 6 
113 7 64 27 76 141 95 104 114 
114 7 4 11 77 64 130 95 76 
115 7 44 111 9 54 73 87 112 
116 7 137 125 5 117 18 71 79 
117 7 18 79 116 137 125 3 94 
118 7 109 93 135 25 107 39 28 
119 7 26 129 128 85 37 69 17 
120 7 23 123 38 78 15 81 142 
121 7 98 20 8 33 17 37 10 
122 7 31 99 35 47 32 80 88 
123 7 23 78 38 120 15 142 81 
124 7 83 138 143 126 56 34 140 
125 7 71 116 117 41 10 137 18 
126 7 34 97 124 22 48 63 83 
127 7 14 131 69 5 85 128 137 
128 7 85 129 69 26 119 14 131 
129 7 119 85 128 26 69 37 110 
130 7 77 4 114 95 106 76 11 
131 7 14 127 128 85 69 5 129 
132 7 70 40 43 81 30 141 142 
133 7 24 105 22 34 126 15 38 
134 7 29 19 91 92 57 84 36 
135 7 93 109 118 39 11 104 107 
136 7 60 59 49 21 53 100 68 
137 7 116 5 117 125 18 79 110 
138 7 56 143 83 124 140 96 84 
139 7 106 35 130 77 4 114 122 
140 7 96 56 138 58 83 143 124 
141 7 142 113 132 70 64 27 104 
142 7 141 78 23 123 120 16 70 
143 7 56 138 83 124 140 84 96 
DEPOT_SECTION
   1
   -1
EOF
