NAME :  X-n176-kX-w17-c7.cctp
COMMENT : 	Adapted by Maziero, Usberti and Cavellucci from the Uchoa, Pecin, Pessoa, Poggi, Subramanian, and Vidal (2013)
TYPE :  CCTP
DIMENSION :    115
EDGE_WEIGHT_TYPE : 	EUC_2D	
CAPACITY : 	142
VERTICES_WITHIN_COVERAGE :  7
VERTICES_WITH_DEMAND : 	17
NODE_COORD_SECTION
1 0 0
2 628 103
3 291 573
4 129 447
5 973 643
6 830 868
7 398 563
8 731 423
9 201 995
10 167 174
11 13 605
12 446 262
13 229 774
14 740 231
15 21 546
16 224 615
17 605 837
18 473 759
19 758 880
20 580 935
21 622 494
22 513 236
23 659 797
24 267 688
25 606 754
26 195 486
27 644 771
28 524 45
29 769 471
30 410 464
31 417 304
32 616 944
33 738 932
34 462 718
35 792 940
36 434 318
37 1000 647
38 145 182
39 540 249
40 208 760
41 66 221
42 260 508
43 307 468
44 747 308
45 421 505
46 373 597
47 876 881
48 502 242
49 343 764
50 275 610
51 434 161
52 698 364
53 600 881
54 728 253
55 237 907
56 868 263
57 680 306
58 450 898
59 126 415
60 172 126
61 137 674
62 789 958
63 853 147
64 762 111
65 416 626
66 63 237
67 194 75
68 616 133
69 304 699
70 758 40
71 249 141
72 791 803
73 884 980
74 618 107
75 858 644
76 116 388
77 939 880
78 217 912
79 138 217
80 542 965
81 775 294
82 248 883
83 274 824
84 408 641
85 838 846
86 758 816
87 548 809
88 660 393
89 380 849
90 433 893
91 295 480
92 277 519
93 833 970
94 760 470
95 33 455
96 289 176
97 283 845
98 953 937
99 164 71
100 539 756
101 679 880
102 857 842
103 184 455
104 181 70
105 136 928
106 657 422
107 248 593
108 754 487
109 923 157
110 74 961
111 261 663
112 984 135
113 281 227
114 673 176
115 177 543
DEMAND_SECTION
2 94
3 65
4 69
5 89
6 74
7 95
8 87
9 96
10 56
11 94
12 79
13 91
14 75
15 54
16 97
17 93
18 81
COVERAGE_SECTION
2 5 74 68 114 28 64 
3 7 50 107 92 42 16 46 91 
4 6 59 103 76 26 95 115 
5 2 37 75 
6 7 85 102 47 19 72 35 86 
7 6 46 45 65 84 30 3 
8 6 94 29 52 108 106 88 
9 6 78 105 55 82 110 97 
10 7 38 60 79 71 67 99 104 
11 4 15 61 95 115 
12 6 31 36 48 22 39 51 
13 7 40 83 97 24 69 82 49 
14 7 54 81 44 114 57 64 56 
15 7 11 95 4 115 59 61 26 
16 7 107 50 111 3 24 115 61 
17 7 53 87 23 27 25 101 20 
18 7 34 100 87 89 49 25 84 
19 7 33 86 35 6 101 62 72 
20 6 32 80 53 17 101 87 
21 3 106 88 8 
22 3 48 39 12 
23 7 27 17 25 101 86 53 87 
24 7 111 69 50 16 40 13 107 
25 7 27 100 23 87 17 53 18 
26 6 103 115 42 4 92 59 
27 7 23 25 17 87 100 101 53 
28 3 74 2 68 
29 3 94 108 8 
30 4 45 7 43 91 
31 6 36 12 48 22 39 51 
32 6 20 53 80 101 17 33 
33 6 35 19 62 101 93 6 
34 6 18 100 84 65 87 49 
35 6 62 93 33 19 6 73 
36 5 31 12 48 22 39 
37 2 5 75 
38 7 10 79 60 41 66 71 99 
39 3 22 48 12 
40 5 13 83 24 111 61 
41 4 66 79 38 10 
42 6 92 91 43 26 3 107 
43 5 91 92 42 30 3 
44 7 81 54 57 52 14 8 88 
45 5 30 7 46 43 65 
46 7 7 65 84 3 50 45 69 
47 7 102 6 85 77 98 73 93 
48 3 22 39 12 
49 7 69 83 89 97 24 13 34 
50 7 107 3 16 111 24 92 69 
51 1 12 
52 6 88 57 8 106 44 81 
53 7 17 20 32 101 87 80 23 
54 6 14 44 81 57 114 52 
55 7 78 82 97 83 9 105 13 
56 6 81 63 109 44 14 54 
57 6 52 44 54 88 14 81 
58 6 90 89 80 87 20 18 
59 5 76 4 103 26 95 
60 6 10 67 99 104 38 71 
61 4 16 40 111 24 
62 6 35 93 33 19 73 6 
63 7 109 64 56 112 14 70 54 
64 7 70 63 114 14 2 74 54 
65 6 84 46 7 34 45 69 
66 4 41 79 38 10 
67 5 104 99 60 71 10 
68 4 74 2 114 28 
69 7 24 111 49 50 13 40 16 
70 7 64 63 2 74 114 68 14 
71 4 96 60 67 10 
72 6 86 85 6 102 19 47 
73 7 93 98 62 47 35 77 6 
74 4 2 68 114 28 
75 1 5 
76 5 59 4 103 95 26 
77 6 98 47 102 85 6 73 
78 6 55 82 105 9 97 83 
79 6 38 10 41 66 60 71 
80 6 20 32 53 58 90 17 
81 7 44 54 14 57 56 52 8 
82 7 55 78 97 83 13 9 105 
83 7 97 82 13 49 55 40 78 
84 6 65 46 7 34 69 3 
85 6 102 6 47 72 86 19 
86 6 72 19 85 6 23 101 
87 7 100 17 25 53 18 27 23 
88 4 106 52 8 57 
89 7 90 58 49 97 83 18 82 
90 6 58 89 80 18 87 20 
91 5 43 92 42 3 26 
92 6 42 91 3 43 107 26 
93 6 62 35 73 47 6 33 
94 3 29 108 8 
95 5 15 4 59 76 11 
96 3 113 71 10 
97 7 83 82 55 13 78 89 49 
98 7 77 73 47 93 102 6 85 
99 5 104 67 60 10 71 
100 7 87 18 25 34 17 27 23 
101 7 19 33 53 23 17 32 86 
102 5 85 6 47 72 77 
103 6 26 4 59 115 42 76 
104 5 67 99 60 71 10 
105 5 110 78 9 55 82 
106 4 88 52 8 21 
107 7 50 16 3 111 92 42 115 
108 3 94 29 8 
109 6 112 63 56 64 14 70 
110 3 105 9 78 
111 7 24 50 69 16 107 3 40 
112 6 109 63 56 64 70 14 
113 3 96 71 10 
114 5 68 2 14 74 54 
115 7 26 16 107 103 42 92 4 
DEPOT_SECTION
   1
   -1
EOF
