NAME :  X-n1001-kX-w400-c7.cctp
COMMENT : 	Adapted by Maziero, Usberti and Cavellucci from the Uchoa, Pecin, Pessoa, Poggi, Subramanian, and Vidal (2013)
TYPE :  CCTP
DIMENSION :    987
EDGE_WEIGHT_TYPE : 	EUC_2D	
CAPACITY : 	131
VERTICES_WITHIN_COVERAGE :  7
VERTICES_WITH_DEMAND : 	400
NODE_COORD_SECTION
1 2 857
2 407 102
3 915 965
4 797 45
5 997 241
6 650 683
7 748 248
8 99 174
9 2 545
10 277 689
11 568 771
12 76 105
13 117 973
14 171 971
15 327 183
16 277 697
17 269 246
18 670 18
19 51 901
20 951 696
21 710 102
22 61 465
23 348 606
24 551 243
25 524 793
26 89 582
27 900 748
28 235 368
29 122 587
30 449 781
31 970 38
32 362 490
33 742 267
34 289 115
35 898 957
36 996 922
37 951 633
38 713 779
39 603 247
40 402 363
41 143 0
42 274 608
43 81 422
44 550 408
45 43 699
46 482 575
47 909 254
48 613 37
49 202 575
50 297 297
51 736 288
52 464 127
53 499 491
54 635 531
55 796 328
56 184 941
57 641 824
58 863 673
59 396 950
60 555 631
61 664 966
62 301 260
63 425 990
64 559 746
65 431 827
66 724 472
67 847 51
68 888 721
69 136 331
70 859 627
71 206 5
72 429 381
73 798 918
74 886 684
75 123 488
76 779 445
77 764 43
78 938 743
79 800 398
80 734 20
81 211 678
82 601 545
83 512 403
84 796 106
85 644 810
86 416 973
87 115 435
88 667 91
89 395 941
90 374 546
91 546 191
92 754 255
93 124 588
94 423 929
95 314 637
96 668 268
97 321 786
98 960 423
99 11 499
100 721 692
101 803 584
102 337 475
103 806 773
104 429 478
105 214 547
106 361 166
107 944 218
108 12 468
109 527 255
110 789 724
111 250 862
112 892 896
113 545 806
114 832 12
115 628 495
116 194 884
117 395 309
118 655 39
119 558 175
120 247 947
121 36 394
122 877 451
123 599 724
124 83 489
125 754 703
126 65 35
127 889 230
128 938 307
129 662 394
130 248 220
131 642 549
132 747 86
133 201 643
134 400 574
135 653 798
136 653 904
137 643 138
138 951 307
139 793 865
140 500 726
141 585 586
142 285 769
143 511 898
144 336 912
145 454 207
146 239 951
147 335 815
148 911 708
149 2 239
150 602 984
151 372 799
152 177 756
153 816 435
154 617 639
155 806 796
156 793 584
157 803 561
158 479 831
159 397 20
160 618 113
161 702 902
162 838 111
163 989 451
164 215 154
165 581 757
166 294 174
167 997 332
168 350 909
169 335 941
170 906 354
171 920 675
172 493 469
173 187 284
174 678 127
175 831 755
176 316 319
177 188 134
178 73 608
179 884 613
180 193 831
181 717 851
182 508 52
183 809 556
184 705 769
185 983 312
186 847 359
187 415 658
188 132 789
189 520 413
190 913 564
191 90 256
192 960 936
193 693 559
194 980 347
195 300 456
196 376 144
197 192 177
198 272 525
199 88 626
200 772 743
201 540 206
202 474 559
203 575 901
204 241 949
205 583 602
206 215 48
207 460 683
208 81 368
209 998 835
210 585 234
211 522 137
212 294 501
213 788 392
214 621 498
215 116 698
216 81 236
217 788 277
218 817 861
219 678 560
220 351 354
221 156 507
222 617 486
223 218 189
224 213 23
225 884 616
226 923 177
227 829 814
228 479 307
229 285 153
230 584 878
231 176 928
232 166 656
233 507 183
234 907 171
235 7 792
236 995 412
237 22 787
238 149 784
239 649 933
240 885 309
241 131 560
242 22 81
243 502 640
244 462 970
245 465 114
246 192 569
247 547 473
248 557 408
249 480 579
250 775 395
251 845 753
252 701 529
253 962 95
254 842 847
255 31 68
256 627 629
257 524 322
258 918 853
259 823 774
260 775 894
261 109 935
262 478 480
263 511 488
264 785 899
265 487 121
266 453 440
267 470 598
268 1 111
269 756 89
270 728 583
271 647 753
272 973 391
273 842 559
274 637 397
275 72 370
276 948 485
277 999 268
278 471 517
279 350 131
280 381 534
281 310 467
282 973 212
283 164 485
284 429 565
285 186 426
286 838 897
287 779 143
288 452 1
289 866 928
290 214 623
291 532 586
292 513 152
293 915 772
294 204 585
295 343 558
296 877 720
297 730 272
298 364 617
299 210 569
300 514 296
301 33 761
302 202 695
303 706 395
304 597 866
305 376 83
306 679 434
307 483 578
308 0 299
309 639 101
310 709 590
311 774 925
312 804 864
313 528 192
314 660 561
315 888 7
316 788 712
317 79 750
318 854 884
319 710 665
320 939 390
321 156 683
322 62 737
323 207 501
324 944 334
325 952 915
326 14 440
327 923 386
328 693 370
329 485 885
330 890 951
331 478 956
332 782 216
333 104 50
334 822 370
335 73 108
336 7 981
337 987 382
338 397 439
339 986 513
340 871 661
341 636 866
342 154 39
343 70 100
344 75 647
345 383 5
346 86 692
347 263 570
348 26 218
349 892 317
350 139 60
351 76 883
352 336 44
353 648 837
354 713 447
355 98 769
356 316 688
357 470 613
358 157 295
359 499 223
360 482 100
361 3 209
362 280 692
363 525 6
364 54 122
365 220 208
366 838 860
367 0 143
368 455 989
369 923 705
370 41 665
371 829 426
372 809 821
373 238 811
374 57 114
375 490 911
376 445 135
377 126 154
378 502 856
379 543 422
380 395 335
381 873 378
382 947 675
383 127 46
384 895 216
385 590 641
386 415 0
387 456 639
388 881 466
389 721 116
390 884 403
391 323 319
392 495 158
393 534 496
394 784 89
395 600 973
396 582 263
397 630 484
398 498 412
399 737 749
400 187 137
401 433 302
402 864 360
403 262 566
404 63 28
405 698 186
406 669 65
407 280 605
408 163 577
409 7 891
410 156 301
411 977 815
412 144 312
413 272 181
414 524 978
415 112 407
416 865 155
417 232 344
418 418 650
419 889 916
420 952 677
421 443 10
422 644 925
423 982 797
424 328 995
425 652 395
426 954 103
427 614 890
428 583 127
429 54 278
430 534 176
431 457 678
432 769 423
433 111 776
434 537 183
435 887 534
436 263 242
437 238 143
438 693 433
439 481 223
440 276 463
441 301 278
442 813 997
443 522 400
444 342 979
445 121 219
446 282 213
447 495 110
448 824 196
449 974 643
450 567 187
451 588 289
452 415 542
453 84 369
454 711 288
455 192 263
456 634 955
457 836 650
458 401 251
459 330 390
460 757 708
461 640 675
462 512 860
463 179 319
464 36 160
465 902 529
466 526 587
467 186 229
468 15 596
469 979 645
470 647 323
471 182 123
472 184 38
473 302 219
474 781 849
475 330 18
476 991 649
477 887 717
478 37 331
479 616 448
480 331 231
481 822 365
482 230 835
483 359 963
484 60 730
485 776 660
486 376 810
487 703 627
488 481 728
489 495 862
490 192 598
491 121 520
492 854 951
493 305 495
494 603 933
495 916 240
496 889 765
497 608 852
498 233 438
499 715 397
500 250 676
501 385 490
502 911 127
503 977 120
504 695 732
505 168 907
506 487 552
507 379 518
508 175 165
509 741 69
510 859 350
511 741 665
512 542 145
513 65 804
514 34 189
515 618 340
516 87 291
517 784 685
518 785 260
519 943 254
520 183 988
521 239 180
522 206 769
523 597 257
524 780 886
525 981 148
526 227 435
527 918 839
528 905 402
529 257 337
530 100 996
531 194 631
532 164 219
533 524 887
534 909 704
535 169 906
536 241 785
537 937 826
538 538 74
539 399 812
540 855 575
541 802 150
542 451 192
543 979 779
544 342 445
545 692 472
546 9 452
547 897 431
548 665 139
549 128 106
550 768 689
551 150 279
552 791 248
553 836 385
554 235 877
555 315 98
556 895 755
557 363 154
558 373 633
559 42 430
560 850 534
561 592 274
562 95 712
563 565 82
564 736 849
565 227 124
566 191 627
567 334 855
568 307 97
569 718 570
570 808 903
571 630 96
572 694 101
573 714 65
574 380 514
575 311 9
576 581 60
577 483 315
578 452 330
579 986 414
580 207 280
581 645 986
582 97 50
583 258 620
584 19 60
585 159 382
586 594 3
587 575 648
588 505 396
589 271 186
590 259 278
591 440 484
592 204 169
593 839 329
594 796 265
595 184 633
596 110 901
597 794 510
598 612 243
599 471 610
600 168 254
601 651 691
602 317 884
603 788 451
604 778 532
605 999 602
606 223 747
607 951 203
608 290 179
609 5 237
610 848 785
611 606 434
612 511 279
613 919 357
614 409 840
615 726 723
616 198 57
617 563 987
618 330 143
619 112 165
620 564 379
621 841 919
622 736 821
623 895 875
624 772 252
625 233 210
626 956 386
627 29 477
628 440 322
629 300 683
630 19 243
631 804 616
632 139 376
633 177 425
634 164 188
635 330 450
636 894 845
637 81 292
638 327 908
639 52 153
640 681 294
641 806 403
642 650 476
643 238 416
644 930 935
645 220 643
646 976 863
647 487 945
648 23 117
649 777 163
650 352 425
651 224 959
652 800 833
653 1 880
654 530 411
655 205 696
656 47 211
657 1 975
658 463 461
659 12 909
660 9 25
661 960 395
662 808 103
663 555 364
664 881 187
665 640 356
666 423 259
667 312 251
668 881 836
669 874 740
670 135 158
671 904 910
672 102 78
673 926 747
674 133 610
675 712 498
676 801 94
677 46 372
678 792 533
679 744 492
680 49 160
681 910 98
682 161 275
683 462 5
684 2 317
685 892 299
686 623 197
687 280 296
688 390 873
689 569 740
690 382 176
691 67 260
692 22 899
693 224 74
694 976 106
695 643 937
696 286 733
697 343 347
698 768 396
699 281 2
700 646 481
701 113 496
702 449 469
703 209 276
704 146 512
705 925 847
706 541 265
707 108 218
708 909 962
709 873 616
710 891 741
711 610 429
712 632 229
713 254 413
714 174 367
715 801 148
716 94 483
717 70 736
718 396 630
719 722 757
720 652 154
721 524 473
722 390 532
723 865 278
724 739 441
725 522 405
726 315 92
727 676 875
728 367 807
729 174 702
730 161 844
731 52 348
732 628 479
733 294 425
734 245 335
735 849 644
736 188 955
737 898 25
738 712 633
739 369 346
740 704 846
741 33 817
742 872 179
743 774 620
744 635 620
745 512 482
746 67 510
747 527 626
748 316 970
749 777 242
750 622 844
751 35 70
752 577 911
753 285 224
754 652 328
755 358 274
756 950 346
757 824 571
758 228 251
759 133 826
760 166 573
761 5 941
762 876 539
763 74 80
764 668 777
765 773 7
766 71 263
767 476 656
768 94 533
769 895 963
770 744 131
771 710 940
772 790 311
773 470 10
774 778 994
775 726 581
776 301 968
777 425 873
778 510 342
779 551 998
780 880 251
781 13 286
782 229 807
783 791 870
784 980 301
785 319 503
786 678 661
787 131 647
788 756 147
789 752 792
790 552 315
791 833 41
792 570 210
793 550 937
794 0 825
795 237 533
796 484 801
797 281 735
798 126 383
799 261 867
800 765 621
801 340 504
802 483 824
803 904 551
804 380 261
805 450 572
806 581 121
807 737 364
808 504 708
809 162 788
810 379 894
811 415 846
812 11 831
813 357 10
814 794 896
815 168 803
816 981 897
817 740 619
818 192 525
819 307 810
820 193 59
821 348 6
822 896 319
823 718 704
824 635 865
825 44 81
826 677 455
827 365 89
828 993 748
829 21 769
830 264 253
831 794 836
832 158 537
833 299 507
834 837 673
835 625 578
836 726 948
837 225 753
838 529 813
839 57 217
840 493 88
841 977 476
842 926 415
843 370 421
844 960 959
845 56 666
846 568 361
847 418 120
848 830 947
849 799 823
850 447 171
851 136 12
852 510 332
853 864 465
854 510 511
855 37 62
856 610 786
857 739 627
858 155 680
859 710 998
860 443 869
861 243 357
862 736 125
863 323 814
864 526 532
865 20 222
866 54 930
867 124 270
868 76 619
869 43 801
870 872 318
871 938 393
872 518 361
873 114 189
874 398 156
875 666 975
876 976 884
877 362 501
878 799 452
879 791 71
880 778 700
881 745 362
882 691 851
883 870 506
884 957 214
885 547 416
886 645 140
887 41 367
888 747 223
889 884 821
890 686 750
891 520 508
892 86 411
893 196 752
894 790 247
895 100 49
896 116 857
897 754 899
898 653 877
899 682 525
900 156 967
901 861 886
902 628 139
903 829 776
904 48 367
905 553 756
906 308 857
907 525 768
908 739 419
909 534 906
910 74 407
911 174 812
912 756 539
913 783 958
914 651 110
915 551 459
916 980 868
917 295 427
918 729 915
919 518 915
920 46 872
921 172 627
922 677 872
923 374 795
924 181 760
925 751 788
926 83 664
927 459 649
928 792 917
929 746 768
930 377 708
931 676 582
932 367 690
933 124 298
934 280 13
935 209 128
936 794 714
937 636 512
938 901 875
939 970 319
940 301 452
941 146 305
942 45 362
943 239 811
944 423 798
945 477 717
946 102 815
947 504 648
948 524 158
949 902 424
950 538 337
951 951 766
952 296 959
953 647 246
954 395 299
955 970 492
956 260 138
957 394 642
958 795 836
959 657 44
960 263 655
961 776 212
962 436 346
963 309 29
964 982 977
965 879 198
966 99 1000
967 927 947
968 419 592
969 742 981
970 714 685
971 410 503
972 858 581
973 988 225
974 576 24
975 114 728
976 673 162
977 660 459
978 624 134
979 520 801
980 86 528
981 245 156
982 671 77
983 944 270
984 951 622
985 412 813
986 732 304
987 532 201
DEMAND_SECTION
2 6
3 1
4 10
5 7
6 6
7 2
8 8
9 7
10 3
11 5
12 1
13 4
14 10
15 4
16 10
17 3
18 6
19 4
20 3
21 10
22 8
23 6
24 7
25 7
26 4
27 1
28 5
29 3
30 6
31 8
32 5
33 9
34 6
35 9
36 9
37 4
38 1
39 9
40 10
41 2
42 4
43 1
44 10
45 1
46 10
47 2
48 10
49 1
50 4
51 5
52 5
53 6
54 6
55 9
56 4
57 4
58 9
59 3
60 7
61 6
62 8
63 5
64 9
65 3
66 9
67 1
68 1
69 5
70 7
71 6
72 6
73 9
74 3
75 8
76 5
77 9
78 10
79 9
80 5
81 9
82 5
83 10
84 1
85 2
86 9
87 3
88 8
89 2
90 6
91 1
92 3
93 1
94 8
95 8
96 6
97 9
98 5
99 5
100 9
101 1
102 9
103 6
104 3
105 4
106 9
107 7
108 1
109 9
110 6
111 10
112 2
113 3
114 9
115 6
116 4
117 9
118 10
119 3
120 7
121 6
122 6
123 4
124 5
125 9
126 2
127 2
128 4
129 5
130 6
131 1
132 5
133 4
134 3
135 4
136 9
137 4
138 3
139 5
140 10
141 2
142 5
143 8
144 8
145 10
146 7
147 3
148 6
149 9
150 5
151 2
152 10
153 4
154 9
155 2
156 6
157 1
158 6
159 1
160 1
161 7
162 10
163 7
164 3
165 6
166 4
167 4
168 3
169 5
170 4
171 2
172 5
173 1
174 10
175 7
176 3
177 7
178 10
179 10
180 2
181 3
182 10
183 6
184 3
185 1
186 4
187 3
188 10
189 10
190 4
191 8
192 5
193 2
194 8
195 2
196 5
197 8
198 7
199 10
200 1
201 5
202 4
203 7
204 8
205 7
206 8
207 3
208 2
209 9
210 7
211 5
212 3
213 3
214 10
215 8
216 5
217 5
218 3
219 7
220 9
221 5
222 2
223 7
224 3
225 6
226 1
227 6
228 3
229 1
230 8
231 5
232 1
233 9
234 2
235 9
236 3
237 10
238 3
239 8
240 6
241 4
242 9
243 9
244 3
245 10
246 10
247 1
248 4
249 1
250 5
251 2
252 5
253 10
254 6
255 4
256 3
257 6
258 10
259 7
260 2
261 8
262 1
263 5
264 2
265 5
266 9
267 7
268 2
269 4
270 1
271 7
272 10
273 8
274 6
275 10
276 4
277 6
278 6
279 1
280 7
281 7
282 2
283 8
284 2
285 5
286 10
287 1
288 3
289 9
290 3
291 5
292 3
293 9
294 3
295 3
296 2
297 8
298 5
299 10
300 8
301 9
302 7
303 4
304 3
305 8
306 8
307 8
308 8
309 3
310 2
311 10
312 2
313 10
314 3
315 3
316 3
317 3
318 9
319 3
320 1
321 10
322 2
323 9
324 9
325 7
326 8
327 3
328 7
329 6
330 1
331 8
332 3
333 7
334 7
335 2
336 3
337 10
338 7
339 10
340 10
341 2
342 4
343 4
344 7
345 5
346 8
347 7
348 9
349 4
350 10
351 5
352 5
353 7
354 7
355 7
356 4
357 3
358 1
359 9
360 6
361 5
362 6
363 8
364 2
365 10
366 5
367 7
368 7
369 1
370 1
371 7
372 1
373 5
374 8
375 6
376 10
377 9
378 8
379 9
380 5
381 1
382 8
383 9
384 2
385 6
386 8
387 9
388 10
389 8
390 9
391 6
392 7
393 1
394 1
395 2
396 6
397 9
398 8
399 2
400 4
401 7
COVERAGE_SECTION
2 7 847 305 827 376 196 874 245 
3 7 708 35 769 967 330 644 844 
4 7 879 77 791 765 394 114 676 
5 7 973 277 282 884 519 107 607 
6 7 601 461 786 154 256 319 970 
7 7 92 33 624 888 297 749 518 
8 6 619 873 377 670 707 445 
9 7 99 468 627 746 108 980 546 
10 7 362 16 629 500 960 356 696 
11 7 165 905 64 689 113 907 856 
12 7 335 343 374 763 364 672 825 
13 7 530 966 261 900 14 520 596 
14 7 900 520 736 56 231 13 651 
15 7 166 608 106 618 473 557 480 
16 7 362 10 629 500 696 797 356 
17 7 436 830 753 130 590 62 446 
18 7 118 959 406 982 48 80 573 
19 7 692 866 920 351 659 409 653 
20 7 420 382 369 171 148 534 78 
21 7 572 389 862 573 132 174 88 
22 7 124 627 716 559 746 43 108 
23 7 298 558 95 295 718 957 134 
24 7 706 109 210 396 792 201 987 
25 7 979 838 113 907 796 905 11 
26 7 178 29 93 868 199 241 768 
27 7 556 710 496 673 669 293 68 
28 7 861 417 734 529 643 713 714 
29 7 93 674 241 26 408 760 199 
30 7 944 796 65 985 802 158 539 
31 7 253 426 694 737 503 681 315 
32 7 877 501 801 102 574 507 785 
33 7 297 92 7 51 624 454 986 
34 7 568 555 726 956 229 618 437 
35 7 769 330 708 3 967 644 419 
36 7 816 192 876 325 844 916 964 
37 7 984 449 469 382 476 420 171 
38 7 184 719 929 399 925 890 789 
39 7 598 523 210 396 561 712 953 
40 7 380 72 739 962 220 117 628 
41 7 851 342 383 472 350 71 333 
42 7 407 583 347 403 960 95 290 
43 7 892 910 415 87 559 22 121 
44 7 248 885 379 654 725 443 189 
45 7 370 484 845 322 346 717 926 
46 7 307 249 202 506 267 805 599 
47 7 495 780 127 519 983 384 685 
48 7 576 586 974 118 959 18 571 
49 7 294 299 246 490 105 760 408 
50 7 687 441 176 391 62 590 667 
51 7 986 297 33 454 92 7 624 
52 7 245 376 265 360 447 392 847 
53 7 263 745 172 854 262 891 721 
54 7 131 937 214 82 115 314 397 
55 7 772 593 481 334 217 186 881 
56 7 231 736 14 505 535 900 651 
57 7 85 353 750 135 824 341 497 
58 7 340 74 834 735 457 70 296 
59 7 89 86 94 483 63 810 444 
60 7 587 747 385 205 291 466 141 
61 7 875 581 456 239 695 422 771 
62 7 667 441 17 50 830 753 473 
63 7 86 368 244 59 89 94 331 
64 7 689 905 165 11 907 123 25 
65 7 985 811 614 944 539 860 777 
66 7 354 679 675 545 724 438 826 
67 7 791 114 4 737 879 315 162 
68 7 477 296 710 669 148 534 27 
69 7 412 941 933 410 358 463 632 
70 7 709 735 225 179 457 340 58 
71 7 224 472 206 616 820 342 41 
72 7 40 962 578 380 628 266 338 
73 7 928 570 814 264 311 260 524 
74 7 58 340 534 477 148 171 68 
75 7 701 716 491 704 221 124 283 
76 7 603 878 432 153 724 908 250 
77 7 4 509 765 80 879 132 269 
78 7 673 951 293 27 369 148 556 
79 7 641 213 250 698 334 553 153 
80 7 77 765 509 573 18 132 4 
81 7 302 655 133 645 500 729 232 
82 7 54 131 835 141 937 214 115 
83 7 443 588 725 189 398 654 379 
84 7 662 676 394 879 287 162 715 
85 7 57 135 353 750 764 856 497 
86 7 63 59 89 368 94 244 483 
87 7 415 43 892 910 716 798 75 
88 7 982 914 406 572 309 571 174 
89 7 59 94 86 483 810 168 63 
90 7 280 722 507 295 574 134 452 
91 7 434 201 987 313 430 119 450 
92 7 7 33 624 749 297 518 888 
93 7 29 674 241 26 408 760 199 
94 7 89 59 86 777 810 244 63 
95 7 23 407 629 42 356 298 960 
96 7 640 953 454 712 470 598 297 
97 7 819 863 147 142 728 151 923 
98 7 579 661 272 842 236 626 871 
99 7 627 108 9 546 746 326 22 
100 7 970 823 319 615 511 125 460 
101 7 156 157 757 183 631 273 743 
102 7 635 281 32 801 544 785 877 
103 7 259 155 903 175 251 610 200 
104 7 591 702 971 658 266 501 262 
105 7 299 795 49 246 818 294 323 
106 7 557 690 196 279 15 874 618 
107 7 884 607 282 495 519 973 226 
108 7 546 627 326 99 559 22 746 
109 7 706 24 612 300 359 201 987 
110 7 936 316 200 880 460 517 125 
111 7 799 554 482 373 943 906 782 
112 7 671 419 623 938 901 318 289 
113 7 838 25 979 11 907 905 165 
114 7 791 67 4 315 765 737 879 
115 7 214 397 222 732 937 700 642 
116 7 535 505 554 231 730 180 56 
117 7 954 380 401 739 628 804 755 
118 7 959 18 406 982 48 88 571 
119 7 450 91 434 430 313 512 201 
120 7 204 146 651 952 776 736 56 
121 7 677 887 904 942 559 910 275 
122 7 388 853 547 949 390 371 883 
123 7 689 165 64 11 271 905 601 
124 7 716 746 701 22 980 75 768 
125 7 460 550 880 615 100 316 517 
126 7 404 582 895 855 333 751 763 
127 7 384 780 495 47 965 664 723 
128 7 138 324 939 983 756 784 822 
129 7 425 274 328 306 303 665 438 
130 7 625 436 365 17 446 753 758 
131 7 54 314 835 937 219 82 899 
132 7 269 509 394 573 21 389 862 
133 7 531 566 645 595 290 921 81 
134 7 968 284 452 90 722 280 805 
135 7 85 764 57 353 271 856 750 
136 7 422 898 239 695 727 922 427 
137 7 886 902 720 978 548 914 160 
138 7 128 939 324 784 185 983 756 
139 7 783 312 474 218 524 831 958 
140 7 808 488 945 907 207 905 64 
141 7 205 835 82 291 60 385 466 
142 7 797 696 97 536 819 863 837 
143 7 533 919 909 375 329 462 489 
144 7 638 168 169 602 810 483 567 
145 7 542 439 850 359 233 666 392 
146 7 204 120 651 736 56 952 776 
147 7 863 819 97 728 151 567 486 
148 7 534 369 68 477 171 74 296 
149 7 609 630 865 361 348 781 656 
150 7 395 617 456 581 494 779 695 
151 6 923 728 486 539 147 985 
152 7 924 893 522 809 238 606 815 
153 7 371 878 603 641 76 79 432 
154 7 256 744 385 461 587 205 6 
155 7 103 372 259 849 227 903 652 
156 7 101 157 183 631 757 743 800 
157 7 183 101 757 156 678 604 273 
158 7 802 796 378 489 462 65 979 
159 7 345 386 813 421 821 288 305 
160 7 571 978 309 902 914 137 428 
161 7 918 727 771 922 136 836 882 
162 7 662 676 84 416 715 541 394 
163 7 841 579 236 98 955 276 272 
164 7 592 437 935 981 565 197 400 
165 7 11 689 64 905 123 856 907 
166 7 608 229 413 589 15 446 473 
167 7 194 185 939 784 756 337 138 
168 7 144 638 810 169 602 688 89 
169 7 144 483 638 168 748 444 776 
170 7 613 327 822 349 381 402 324 
171 7 382 369 534 420 148 74 20 
172 7 262 53 745 263 658 721 702 
173 7 580 455 703 682 358 410 463 
174 7 548 572 914 886 976 137 720 
175 7 251 259 903 103 610 669 155 
176 7 391 50 697 687 441 220 739 
177 7 400 471 935 164 508 592 565 
178 7 868 199 26 344 29 93 926 
179 7 225 709 70 972 735 540 340 
180 7 911 730 482 815 782 373 943 
181 7 740 564 882 622 922 727 161 
182 7 538 840 363 360 773 447 563 
183 7 157 757 101 678 156 273 604 
184 7 38 719 890 399 504 764 929 
185 7 784 939 167 138 194 128 324 
186 7 510 402 481 334 553 593 381 
187 7 418 957 718 387 927 431 558 
188 7 238 433 809 759 355 815 946 
189 7 725 654 83 443 398 588 379 
190 7 803 465 435 762 179 972 540 
191 7 766 216 691 516 637 867 429 
192 7 325 844 644 967 36 816 964 
193 7 219 569 931 252 314 310 899 
194 7 167 756 939 185 337 324 272 
195 7 940 281 440 917 635 733 493 
196 7 557 874 106 279 690 618 847 
197 7 592 508 223 634 164 400 365 
198 7 833 212 795 403 493 347 785 
199 7 868 178 344 926 26 674 787 
200 7 110 316 399 929 936 460 880 
201 7 987 91 313 434 792 430 450 
202 7 506 46 249 307 805 267 278 
203 7 752 230 304 427 909 494 793 
204 7 146 120 651 736 952 56 776 
205 7 141 60 385 587 835 154 256 
206 7 616 224 820 693 472 71 342 
207 7 431 767 927 945 387 488 187 
208 7 453 275 904 677 731 942 887 
209 7 411 646 916 423 876 543 537 
210 7 39 523 598 792 396 24 561 
211 7 292 948 512 392 265 447 430 
212 7 833 493 785 198 281 440 195 
213 7 79 250 698 641 432 334 481 
214 7 115 222 397 732 937 700 54 
215 7 562 975 346 321 858 926 787 
216 7 191 691 766 839 707 656 445 
217 7 594 518 552 624 894 772 749 
218 7 312 366 139 783 254 652 958 
219 7 193 314 931 899 131 252 569 
220 7 697 739 459 391 380 176 40 
221 7 704 283 832 491 75 818 701 
222 7 214 397 732 115 700 937 642 
223 7 365 521 592 625 197 164 130 
224 7 71 206 472 616 820 693 342 
225 7 179 709 70 972 735 340 540 
226 7 234 607 664 107 384 965 884 
227 7 372 155 849 254 610 652 903 
228 7 577 578 300 852 628 612 401 
229 7 166 608 956 413 589 34 981 
230 7 304 203 427 752 497 750 341 
231 7 56 505 535 736 14 900 116 
232 7 858 321 595 921 787 133 531 
233 7 313 392 430 434 948 987 292 
234 7 226 664 742 965 502 416 384 
235 7 237 829 794 741 869 812 301 
236 7 579 272 337 98 163 661 626 
237 7 235 829 869 301 741 794 812 
238 7 809 188 815 911 433 152 924 
239 7 695 422 456 136 61 875 494 
240 7 349 685 822 870 723 510 170 
241 7 29 93 832 408 760 491 768 
242 7 255 751 584 825 855 648 268 
243 7 947 747 767 357 599 927 387 
244 7 368 331 647 63 86 94 414 
245 7 52 360 265 376 447 840 847 
246 7 49 299 294 760 490 408 105 
247 7 915 721 393 745 263 891 53 
248 7 44 885 379 654 620 725 443 
249 7 307 46 202 267 506 805 599 
250 7 698 213 79 432 641 908 881 
251 7 175 903 259 610 669 103 296 
252 7 899 193 675 219 569 314 912 
253 7 426 694 503 681 525 31 502 
254 7 366 218 227 318 668 312 372 
255 7 751 855 584 242 825 763 126 
256 7 744 154 385 461 835 205 587 
257 6 852 950 778 300 790 872 
258 7 705 527 636 938 623 537 668 
259 7 903 103 175 610 155 251 227 
260 7 524 264 814 897 783 928 311 
261 7 596 13 866 900 351 530 505 
262 7 172 53 658 702 263 745 278 
263 7 745 53 721 891 854 393 172 
264 7 814 260 524 928 73 570 311 
265 7 447 360 245 52 840 211 392 
266 7 658 702 104 591 262 172 398 
267 7 599 357 249 307 46 805 202 
268 7 648 367 242 255 825 751 364 
269 7 132 509 394 879 862 84 389 
270 7 775 569 310 817 193 857 487 
271 7 764 890 135 856 504 123 85 
272 7 661 337 626 579 236 320 98 
273 7 540 757 560 972 183 157 762 
274 7 425 129 665 711 611 479 306 
275 7 208 453 904 677 942 731 887 
276 7 955 841 339 163 98 465 388 
277 7 5 784 973 185 983 519 939 
278 7 53 262 506 854 202 591 263 
279 7 618 557 196 106 827 555 726 
280 7 722 90 507 574 452 877 971 
281 7 195 940 635 102 493 440 785 
282 7 884 973 607 107 5 519 226 
283 7 221 704 75 323 818 701 832 
284 7 805 452 968 134 202 722 249 
285 7 633 526 498 585 643 714 283 
286 7 318 621 901 570 366 218 289 
287 7 649 715 788 541 770 84 862 
288 7 683 421 773 386 159 345 363 
289 7 419 492 621 330 112 848 286 
290 7 645 531 566 133 595 490 294 
291 7 466 747 307 46 60 249 141 
292 7 948 211 392 512 233 430 434 
293 7 556 496 673 27 951 78 710 
294 7 49 299 490 246 105 290 760 
295 7 90 280 23 507 722 801 574 
296 7 477 68 669 710 27 148 534 
297 7 33 51 454 92 7 986 624 
298 7 558 23 718 957 95 134 968 
299 7 49 294 246 105 490 760 795 
300 7 612 257 577 852 228 706 790 
301 7 829 237 322 235 484 869 717 
302 7 655 81 729 321 858 133 500 
303 7 499 328 438 908 129 807 306 
304 7 230 497 427 750 824 341 203 
305 7 827 2 279 352 847 196 726 
306 7 438 826 977 354 545 129 303 
307 7 46 249 202 267 506 599 805 
308 7 684 781 478 429 630 149 609 
309 7 571 914 160 88 978 137 886 
310 7 775 270 569 931 193 487 817 
311 7 928 73 264 260 897 913 814 
312 7 139 218 783 474 958 831 652 
313 7 987 434 430 91 201 233 119 
314 7 219 131 931 193 54 835 899 
315 7 737 114 67 791 31 681 4 
316 7 936 110 880 517 550 460 125 
317 7 717 322 355 484 433 562 975 
318 7 901 286 366 621 254 112 623 
319 7 970 100 511 738 786 487 823 
320 7 871 327 626 661 842 272 528 
321 7 858 729 232 215 787 302 655 
322 7 484 717 317 301 562 45 355 
323 7 818 795 283 105 221 832 704 
324 7 756 128 138 939 613 194 170 
325 7 192 644 816 876 967 36 844 
326 7 546 108 559 627 121 22 99 
327 7 320 871 528 613 842 626 170 
328 7 303 499 129 807 425 881 665 
329 7 489 375 143 378 462 533 860 
330 7 35 769 708 3 289 419 492 
331 7 647 244 368 375 414 919 94 
332 7 961 749 894 552 888 624 518 
333 7 895 582 383 672 350 126 763 
334 7 481 553 186 79 641 213 510 
335 7 12 343 374 364 763 825 672 
336 7 657 761 866 659 692 409 19 
337 7 272 661 236 626 579 194 98 
338 7 843 650 104 501 544 266 702 
339 7 955 841 276 163 465 190 605 
340 7 58 74 735 70 834 457 709 
341 7 824 898 750 353 497 427 304 
342 7 350 383 472 851 41 820 616 
343 7 12 335 374 763 364 825 672 
344 7 926 199 845 868 370 178 346 
345 7 159 813 386 821 475 421 352 
346 7 562 926 215 845 45 344 484 
347 7 403 407 42 795 198 583 299 
348 7 865 656 361 630 609 514 839 
349 7 822 240 685 870 170 128 510 
350 7 383 342 333 672 895 582 549 
351 6 19 920 596 896 866 692 
352 7 475 963 813 821 575 726 827 
353 7 57 85 750 341 824 135 898 
354 7 438 66 724 545 306 826 908 
355 7 433 317 188 717 975 946 322 
356 7 629 362 10 16 95 932 696 
357 7 599 267 387 249 307 927 46 
358 7 410 941 551 682 412 173 463 
359 7 439 987 233 313 109 201 145 
360 7 447 840 245 265 52 376 211 
361 7 865 348 609 149 514 630 656 
362 7 10 16 629 500 356 696 960 
363 7 182 974 773 683 538 586 288 
364 7 374 335 343 12 639 648 680 
365 7 625 223 130 521 467 197 592 
366 7 254 218 318 312 901 286 139 
367 7 268 648 464 680 639 514 364 
368 7 244 63 331 86 647 94 414 
369 7 148 534 20 171 68 382 477 
370 7 845 45 344 926 346 868 199 
371 7 153 641 79 878 553 603 853 
372 7 849 652 227 831 958 155 474 
373 7 943 782 482 536 180 111 522 
374 7 364 335 343 12 648 825 763 
375 7 143 329 919 647 533 909 331 
376 7 52 245 847 850 265 2 360 
377 6 670 619 8 873 549 508 
378 7 489 462 158 329 802 533 143 
379 7 885 44 654 248 189 725 443 
380 7 117 739 40 954 962 628 220 
381 7 402 390 510 186 553 528 170 
382 7 420 20 171 369 37 449 469 
383 7 350 333 895 342 582 851 672 
384 7 127 965 495 664 780 47 742 
385 7 587 154 60 256 205 744 141 
386 7 159 421 345 288 683 773 813 
387 7 927 767 357 599 431 418 267 
388 6 122 853 547 883 949 390 
389 7 862 21 770 572 132 174 269 
390 7 528 381 949 547 327 842 402 
391 7 176 50 697 220 441 687 739 
392 7 292 233 948 211 265 430 52 
393 7 891 263 721 247 745 854 53 
394 7 676 879 84 269 662 132 4 
395 7 150 456 494 617 581 779 695 
396 7 561 523 39 451 210 598 24 
397 7 732 115 222 700 214 642 937 
398 7 83 588 189 725 443 654 379 
399 7 719 929 615 200 38 184 925 
400 7 177 471 935 508 164 592 197 
401 7 628 578 954 117 666 962 228 
402 7 510 186 381 553 593 170 481 
403 7 347 795 198 407 42 105 299 
404 7 126 582 855 895 333 751 255 
405 7 976 720 548 888 174 788 886 
406 7 982 959 88 118 572 573 18 
407 7 42 583 347 403 95 960 23 
408 7 760 246 241 490 49 832 93 
409 7 653 692 659 920 19 761 812 
410 7 358 941 412 551 682 463 933 
411 7 423 209 543 537 646 916 951 
412 7 941 410 69 358 933 551 463 
413 7 589 608 166 229 521 446 981 
414 7 779 617 793 647 331 244 919 
415 7 892 87 798 43 910 632 453 
416 6 742 664 234 965 162 502 
417 7 734 861 28 529 463 714 687 
418 7 187 957 718 387 927 431 558 
419 7 671 112 289 330 623 901 35 
420 7 382 20 171 369 449 469 37 
421 7 288 683 773 386 159 345 182 
422 7 239 695 136 456 494 61 427 
423 7 543 411 209 951 828 537 646 
424 7 444 748 776 483 952 169 59 
425 7 129 274 665 306 328 303 711 
426 7 253 694 503 681 502 525 31 
427 7 304 230 341 824 497 136 203 
428 7 806 160 978 512 902 563 119 
429 7 691 766 637 516 191 781 630 
430 7 434 313 91 948 119 987 233 
431 7 207 767 927 387 945 187 418 
432 7 76 698 250 908 603 724 213 
433 7 355 188 238 946 317 975 809 
434 7 430 91 313 987 119 201 948 
435 7 762 465 803 883 560 190 273 
436 7 17 830 130 753 446 590 758 
437 7 981 565 956 164 935 521 592 
438 7 306 354 826 545 303 499 977 
439 7 359 145 542 233 109 313 987 
440 6 195 940 281 917 212 733 
441 7 62 50 687 667 590 176 17 
442 7 774 913 848 492 969 73 311 
443 7 725 83 189 654 588 398 44 
444 7 424 483 748 169 776 952 59 
445 5 707 873 216 532 191 
446 7 753 473 589 413 17 130 436 
447 7 265 360 840 245 52 211 292 
448 6 332 541 742 961 715 965 
449 7 469 476 37 984 420 382 605 
450 7 119 91 792 434 201 430 987 
451 7 561 396 523 790 39 598 706 
452 7 284 722 134 280 971 90 507 
453 7 208 275 904 677 731 910 942 
454 7 51 297 986 640 33 96 7 
455 7 703 173 580 600 682 467 758 
456 7 695 239 61 422 581 395 494 
457 7 735 834 70 58 340 631 709 
458 7 666 804 954 755 117 401 145 
459 7 650 220 697 733 843 917 544 
460 7 125 550 880 316 615 517 110 
461 7 6 601 786 154 256 744 385 
462 7 378 489 533 329 143 158 802 
463 7 410 358 173 412 941 69 580 
464 7 680 639 514 367 364 648 374 
465 7 435 803 762 190 883 560 276 
466 7 291 747 307 46 249 506 60 
467 6 532 600 455 365 634 758 
468 7 9 178 868 370 26 199 344 
469 7 449 476 37 984 420 382 605 
470 7 754 515 665 640 96 328 451 
471 7 177 400 935 508 164 565 592 
472 7 820 616 342 206 224 71 350 
473 7 753 446 480 667 62 608 17 
474 7 831 958 139 783 652 312 849 
475 7 575 821 963 352 813 934 699 
476 7 469 449 37 420 605 984 382 
477 7 68 296 710 148 534 669 74 
478 7 731 942 887 684 904 677 308 
479 7 611 711 732 222 397 642 700 
480 7 667 473 62 753 15 755 446 
481 7 334 553 186 79 510 593 641 
482 7 373 943 782 111 180 554 799 
483 7 444 169 59 89 748 424 168 
484 7 322 717 317 45 562 301 346 
485 7 517 550 511 743 880 800 125 
486 6 728 151 923 539 985 147 
487 7 738 857 310 817 319 786 270 
488 7 945 140 808 207 431 907 30 
489 7 378 462 329 158 533 143 802 
490 7 294 49 246 566 290 531 299 
491 7 701 704 768 75 980 221 241 
492 7 848 289 621 330 769 35 419 
493 7 212 833 785 281 801 102 195 
494 7 752 456 395 695 422 203 427 
495 7 47 127 519 384 107 780 983 
496 7 556 27 710 293 669 673 68 
497 7 750 304 824 341 230 427 57 
498 6 526 643 713 285 440 633 
499 7 303 908 328 807 438 881 354 
500 7 960 10 16 362 81 645 655 
501 7 32 574 877 971 507 722 280 
502 7 681 234 426 226 416 253 742 
503 7 694 525 253 426 502 681 226 
504 7 890 615 823 719 184 399 100 
505 6 535 231 116 56 736 596 
506 7 202 46 307 249 278 805 864 
507 7 574 280 722 877 90 501 32 
508 7 197 634 592 400 177 164 670 
509 7 132 269 573 77 21 394 80 
510 7 402 186 593 381 870 481 334 
511 7 319 100 970 485 550 857 125 
512 7 211 948 292 430 119 434 428 
513 5 869 741 946 237 355 
514 7 656 464 348 680 839 865 361 
515 6 665 470 754 846 451 274 
516 7 637 766 191 429 691 933 867 
517 7 550 880 485 316 936 125 460 
518 7 594 552 894 624 217 749 92 
519 7 983 495 47 107 884 282 607 
520 7 14 736 900 56 651 231 146 
521 7 223 981 625 413 589 365 164 
522 7 893 837 924 606 152 536 782 
523 7 39 396 561 598 210 451 712 
524 7 260 264 814 783 139 897 312 
525 7 503 694 426 253 607 282 226 
526 6 498 643 713 285 633 440 
527 7 705 258 537 636 668 889 938 
528 7 390 949 327 842 547 871 320 
529 7 734 861 417 28 687 50 590 
530 7 966 13 261 900 14 866 520 
531 7 566 595 133 290 921 645 490 
532 5 467 634 600 445 197 
533 7 143 909 919 462 378 489 329 
534 7 148 369 477 68 74 171 296 
535 6 505 231 116 56 736 596 
536 7 782 373 943 837 522 606 142 
537 7 527 705 258 411 636 889 423 
538 7 563 182 576 840 447 360 974 
539 7 985 486 944 151 614 923 728 
540 7 972 273 757 560 762 709 179 
541 6 715 287 649 84 788 662 
542 7 145 850 439 392 233 359 376 
543 7 423 951 828 411 78 209 673 
544 7 635 650 102 843 281 940 195 
545 7 826 66 354 675 977 438 306 
546 7 326 108 627 559 99 22 121 
547 7 949 122 528 390 842 388 853 
548 7 174 720 886 137 976 914 902 
549 7 672 350 377 12 670 335 471 
550 7 880 517 125 460 316 485 511 
551 7 682 358 410 941 867 600 933 
552 7 894 518 749 594 624 217 332 
553 7 334 481 186 641 79 381 402 
554 7 111 799 116 482 180 373 943 
555 7 726 568 34 618 279 827 352 
556 7 27 496 710 293 669 673 68 
557 7 106 196 279 690 618 874 15 
558 7 298 718 957 23 418 187 932 
559 7 326 121 910 22 43 546 108 
560 7 273 762 883 435 540 757 183 
561 7 396 451 523 39 598 210 24 
562 7 346 215 975 717 484 317 322 
563 7 576 538 806 428 974 160 182 
564 7 181 622 740 474 882 897 524 
565 7 935 437 164 956 981 177 400 
566 7 531 595 133 921 290 490 645 
567 6 906 602 147 863 819 638 
568 7 555 726 34 618 279 827 229 
569 7 775 270 310 193 219 252 931 
570 7 814 73 928 264 286 524 260 
571 7 309 160 914 88 978 902 137 
572 7 21 88 174 389 982 573 406 
573 7 509 21 132 572 406 982 269 
574 7 507 280 722 877 501 32 971 
575 7 963 475 699 934 821 352 813 
576 7 563 974 48 538 586 571 806 
577 7 228 852 578 300 778 257 628 
578 7 628 962 401 577 228 72 380 
579 7 236 272 98 337 661 163 626 
580 7 703 173 455 758 682 600 463 
581 7 875 61 456 150 395 695 239 
582 7 895 333 672 383 126 763 404 
583 7 42 407 960 290 645 347 403 
584 7 255 855 751 242 825 660 126 
585 7 632 714 798 633 285 415 69 
586 7 974 48 576 363 118 959 18 
587 7 385 60 154 205 747 256 141 
588 7 83 398 443 725 189 654 872 
589 7 413 608 166 446 521 229 753 
590 7 830 687 17 436 758 50 441 
591 7 104 702 658 971 262 278 266 
592 7 197 164 223 508 400 521 177 
593 7 510 186 870 402 481 55 334 
594 7 518 217 552 894 624 749 92 
595 7 566 531 921 133 232 290 490 
596 6 261 351 896 505 19 535 
597 3 678 604 183 
598 7 39 523 712 210 953 396 561 
599 7 357 267 249 387 307 46 927 
600 6 682 455 467 551 532 173 
601 7 6 461 786 504 123 154 271 
602 7 638 906 144 567 168 799 169 
603 6 76 878 153 432 371 724 
604 5 678 912 597 157 183 
605 7 469 449 476 984 37 420 339 
606 7 837 893 522 536 924 152 655 
607 7 884 107 282 226 973 495 519 
608 7 166 413 589 229 446 15 473 
609 7 149 630 865 348 361 656 781 
610 7 903 259 251 175 227 155 103 
611 7 711 479 274 732 222 248 397 
612 7 300 109 706 228 257 577 852 
613 7 170 327 756 324 320 871 822 
614 6 811 65 985 539 777 688 
615 7 823 399 100 504 125 460 719 
616 7 820 206 472 693 224 342 71 
617 7 779 150 395 414 793 494 752 
618 7 279 557 106 15 196 229 555 
619 6 8 377 670 873 707 445 
620 5 663 846 248 44 885 
621 7 286 289 848 492 318 570 901 
622 7 564 789 181 925 740 38 474 
623 7 938 112 636 258 671 901 419 
624 7 749 518 92 552 894 7 594 
625 7 365 130 223 521 758 436 589 
626 7 661 320 272 871 337 327 98 
627 7 108 99 546 22 326 559 746 
628 7 578 401 962 228 577 117 380 
629 7 356 362 10 16 960 95 500 
630 7 609 149 865 348 361 656 781 
631 7 743 101 156 800 457 757 485 
632 7 798 585 714 415 69 453 208 
633 7 285 585 526 498 714 283 632 
634 5 508 197 532 670 592 
635 7 544 102 281 940 195 650 917 
636 7 668 258 527 889 623 705 938 
637 7 516 429 766 691 191 933 867 
638 7 144 168 602 169 567 810 906 
639 7 680 464 364 374 514 648 335 
640 7 96 454 470 754 986 297 51 
641 7 79 213 250 371 153 553 334 
642 7 700 977 397 732 115 222 826 
643 6 713 526 498 28 285 733 
644 7 967 192 325 3 708 671 844 
645 7 133 290 531 566 81 595 583 
646 7 916 876 816 209 411 705 537 
647 7 331 375 244 919 414 143 368 
648 7 268 364 374 367 242 825 464 
649 7 287 788 541 715 770 961 332 
650 7 843 544 635 459 338 102 917 
651 7 146 204 120 736 56 520 14 
652 7 958 831 849 372 474 312 139 
653 7 409 692 659 920 812 19 794 
654 7 189 725 443 379 885 44 83 
655 7 302 81 729 500 321 858 133 
656 7 839 348 514 865 216 630 361 
657 7 336 761 659 866 692 409 19 
658 7 702 266 262 172 591 104 53 
659 7 692 409 653 761 19 866 920 
660 7 584 855 255 751 404 126 242 
661 7 626 272 320 871 98 337 579 
662 7 676 84 394 162 879 715 541 
663 5 846 620 950 872 44 
664 7 965 742 234 384 416 226 127 
665 7 515 754 470 274 425 129 328 
666 7 458 804 401 954 117 145 628 
667 7 62 480 441 473 753 17 50 
668 7 889 636 527 254 258 623 938 
669 7 710 296 68 477 556 27 496 
670 6 377 619 873 8 508 634 
671 7 419 112 938 623 644 289 330 
672 7 333 582 763 895 12 549 343 
673 7 78 27 293 951 556 710 496 
674 7 93 29 787 921 408 199 241 
675 7 66 252 545 679 899 354 826 
676 7 662 84 394 879 162 269 4 
677 7 904 887 942 121 731 275 208 
678 5 604 597 183 157 912 
679 5 66 675 912 724 604 
680 7 639 464 514 364 374 648 656 
681 7 502 426 253 694 503 162 234 
682 7 551 358 600 410 173 455 941 
683 7 773 288 421 386 363 182 159 
684 7 308 781 478 731 942 887 429 
685 7 240 349 822 870 723 128 47 
686 7 712 598 720 210 39 792 953 
687 7 50 441 590 62 176 830 529 
688 6 810 777 811 614 860 168 
689 7 64 165 905 11 123 907 856 
690 7 106 874 557 196 15 279 618 
691 7 766 429 191 216 637 516 839 
692 7 659 409 653 19 920 761 866 
693 7 206 616 820 565 224 472 935 
694 7 503 253 426 525 681 31 502 
695 7 239 422 456 136 61 494 875 
696 7 797 142 16 362 10 629 356 
697 7 220 739 391 176 459 380 40 
698 7 250 213 432 79 908 641 881 
699 7 934 575 963 475 821 352 224 
700 7 642 397 732 115 977 222 214 
701 7 75 716 491 124 704 768 980 
702 7 658 591 104 266 262 172 971 
703 7 580 455 173 758 600 682 590 
704 7 221 491 832 283 75 701 818 
705 7 258 527 537 636 938 623 668 
706 7 109 24 612 300 396 790 561 
707 5 445 873 216 191 8 
708 7 3 35 769 330 967 644 419 
709 7 179 225 70 735 972 340 540 
710 7 27 556 669 68 477 496 296 
711 7 611 479 274 732 425 222 248 
712 7 953 598 686 39 523 210 96 
713 6 643 498 526 733 917 28 
714 7 585 632 463 798 69 633 285 
715 6 541 287 649 84 788 662 
716 7 124 701 75 22 746 491 980 
717 7 322 484 317 562 355 301 975 
718 7 957 558 418 187 298 968 23 
719 7 399 184 38 929 615 504 890 
720 7 886 137 548 976 902 978 174 
721 7 745 263 247 393 915 53 172 
722 7 280 507 90 574 452 971 501 
723 7 780 685 240 870 349 47 822 
724 7 908 354 66 432 76 438 499 
725 7 443 189 83 654 588 398 379 
726 7 555 568 34 827 279 352 618 
727 7 922 898 882 136 161 740 341 
728 6 151 486 923 539 147 863 
729 7 321 302 858 655 81 232 152 
730 6 759 180 911 815 896 116 
731 7 942 904 887 478 677 275 208 
732 7 397 222 115 700 214 642 479 
733 6 917 940 195 440 713 635 
734 7 529 417 861 28 687 590 50 
735 7 457 70 340 834 58 709 225 
736 7 56 14 231 520 900 651 146 
737 7 315 67 114 791 31 681 253 
738 7 487 857 817 319 310 511 786 
739 7 220 697 380 40 117 391 954 
740 7 181 882 564 922 727 622 161 
741 5 869 812 237 794 513 
742 6 664 965 416 234 384 226 
743 7 800 631 817 857 485 156 101 
744 7 256 154 835 385 205 461 931 
745 7 263 721 53 172 393 891 854 
746 7 124 980 768 716 22 701 627 
747 7 60 243 947 466 291 587 357 
748 7 776 952 424 444 169 483 144 
749 7 624 894 552 518 92 332 7 
750 7 497 824 341 353 57 304 85 
751 7 255 855 825 242 584 763 126 
752 7 203 230 494 793 427 909 304 
753 7 446 473 17 436 830 130 667 
754 7 470 665 515 640 328 96 129 
755 7 804 954 458 117 480 667 391 
756 7 324 194 613 939 138 626 128 
757 7 183 273 157 101 540 156 972 
758 7 703 436 580 830 130 455 17 
759 6 730 946 896 188 815 911 
760 7 408 246 49 490 241 832 294 
761 7 659 657 336 692 409 866 19 
762 7 435 560 465 803 883 273 540 
763 7 343 12 335 672 825 374 582 
764 7 135 271 890 184 85 38 504 
765 7 77 80 4 114 879 791 509 
766 7 691 191 429 216 637 516 839 
767 7 927 387 431 947 207 243 357 
768 7 980 491 746 701 124 241 26 
769 7 35 330 708 3 967 492 289 
770 7 862 788 389 287 269 21 132 
771 7 836 918 161 969 61 875 859 
772 7 55 217 594 518 593 986 51 
773 7 683 288 421 363 386 182 159 
774 7 442 913 969 859 311 836 848 
775 7 270 569 310 193 817 857 931 
776 7 952 748 424 444 169 120 483 
777 6 860 811 688 614 65 810 
778 6 852 872 257 950 577 300 
779 7 617 414 150 395 793 494 647 
780 7 127 47 723 384 495 685 965 
781 7 308 684 429 630 149 609 478 
782 7 373 943 536 482 180 522 837 
783 7 139 312 524 474 814 218 260 
784 7 185 939 138 167 277 128 194 
785 7 493 833 801 212 102 281 877 
786 7 319 6 461 601 487 970 738 
787 7 232 674 858 321 921 199 926 
788 7 770 287 649 862 715 541 389 
789 7 925 929 622 38 399 719 184 
790 6 950 257 300 451 852 663 
791 7 67 114 4 879 676 315 662 
792 7 450 210 201 91 119 24 987 
793 7 909 752 919 203 414 617 494 
794 6 812 235 741 237 869 653 
795 7 105 198 403 323 299 347 818 
796 7 802 158 979 30 25 838 907 
797 7 696 142 16 362 10 629 356 
798 7 632 415 585 453 208 892 714 
799 7 111 554 482 906 602 943 373 
800 7 743 817 857 631 485 156 511 
801 7 785 877 32 102 493 507 574 
802 7 158 796 378 489 979 462 838 
803 7 190 465 435 762 540 972 883 
804 7 458 755 954 666 117 480 401 
805 7 284 202 249 46 267 307 968 
806 7 428 160 563 978 512 902 571 
807 7 881 499 303 328 698 250 908 
808 7 140 945 488 207 431 767 947 
809 7 238 815 911 188 924 152 522 
810 6 688 168 144 89 777 638 
811 6 614 65 777 985 860 688 
812 6 794 741 235 869 237 653 
813 7 821 345 475 352 159 575 963 
814 7 264 570 524 260 928 73 783 
815 7 911 809 238 180 188 730 759 
816 7 876 36 916 325 646 192 209 
817 7 857 800 738 743 270 487 775 
818 7 323 105 832 221 246 795 299 
819 7 863 97 147 142 906 567 728 
820 7 616 472 206 693 224 342 350 
821 7 813 475 345 575 352 963 159 
822 7 349 240 685 870 170 128 613 
823 7 100 970 615 125 504 460 319 
824 7 341 898 750 497 353 427 304 
825 7 751 255 855 242 763 343 584 
826 7 977 306 545 438 642 354 700 
827 7 305 2 279 726 555 352 196 
828 7 543 951 423 78 20 673 411 
829 7 301 237 235 869 741 322 484 
830 7 17 436 590 753 758 130 62 
831 7 958 652 849 474 372 139 312 
832 7 704 221 241 818 760 408 491 
833 7 212 493 785 198 281 801 102 
834 7 457 58 735 340 74 70 517 
835 7 131 314 82 141 744 54 205 
836 7 771 918 969 161 859 311 897 
837 7 606 522 893 536 924 152 782 
838 7 979 113 25 907 796 802 462 
839 7 656 216 348 514 865 691 630 
840 7 360 447 265 245 182 538 52 
841 7 955 163 276 339 98 579 236 
842 7 528 871 949 320 327 547 98 
843 7 650 338 544 635 459 102 40 
844 7 192 964 967 644 3 325 708 
845 7 370 344 926 45 346 199 868 
846 5 663 620 950 248 790 
847 7 2 376 874 52 245 196 305 
848 7 492 621 289 73 913 928 570 
849 7 372 652 831 958 155 227 474 
850 7 542 376 145 52 392 874 847 
851 7 41 342 383 350 333 895 582 
852 6 778 257 950 872 577 300 
853 6 388 122 883 547 371 949 
854 7 891 53 263 864 393 745 278 
855 7 255 751 584 825 242 126 763 
856 7 165 85 11 135 57 271 750 
857 7 817 800 738 487 743 511 270 
858 7 321 232 729 787 215 302 655 
859 7 969 875 836 61 771 581 774 
860 7 777 811 65 329 614 158 489 
861 6 28 417 734 529 713 643 
862 7 770 389 788 21 132 269 287 
863 7 147 819 97 567 728 906 151 
864 7 891 854 393 506 263 53 745 
865 7 348 361 609 630 149 656 514 
866 7 19 692 659 761 351 261 920 
867 7 551 933 191 682 358 941 516 
868 7 178 199 344 26 926 845 29 
869 5 741 513 237 235 829 
870 7 240 349 822 685 510 593 723 
871 7 320 327 626 661 842 528 272 
872 6 778 852 950 588 663 257 
873 6 8 619 707 445 377 670 
874 7 196 690 557 106 847 376 850 
875 7 61 581 456 695 239 859 422 
876 7 816 916 646 325 36 192 209 
877 7 32 574 801 507 501 102 280 
878 5 603 76 153 371 432 
879 7 394 676 4 84 662 77 269 
880 7 550 316 517 936 460 125 110 
881 7 807 698 250 499 303 213 328 
882 7 740 922 181 727 353 564 898 
883 6 435 560 762 465 388 853 
884 7 607 107 282 973 519 5 495 
885 7 379 44 248 654 189 725 443 
886 7 137 720 902 548 978 914 174 
887 7 942 677 904 731 121 275 478 
888 7 7 961 92 332 749 624 33 
889 7 668 636 527 258 254 705 610 
890 7 504 184 764 719 271 38 615 
891 7 854 393 263 864 53 745 721 
892 7 43 910 415 87 453 208 275 
893 7 924 152 522 606 837 809 729 
894 7 552 518 749 594 624 217 332 
895 7 582 333 383 672 126 763 350 
896 5 759 596 946 730 351 
897 7 260 524 918 264 311 814 928 
898 7 341 824 727 922 136 353 427 
899 7 252 219 193 675 314 54 131 
900 7 14 520 736 56 13 231 261 
901 7 318 286 112 366 623 621 419 
902 7 978 137 886 160 720 548 914 
903 7 259 175 610 103 251 155 227 
904 7 677 942 887 731 275 121 208 
905 7 64 11 689 165 907 25 113 
906 7 567 602 863 819 799 147 638 
907 7 25 905 979 64 11 113 838 
908 7 724 432 499 698 354 303 250 
909 7 919 533 143 793 203 752 375 
910 7 892 43 275 415 453 559 121 
911 7 815 180 809 730 238 759 188 
912 6 604 678 597 569 679 157 
913 7 311 774 928 73 969 848 442 
914 7 309 88 571 137 886 174 548 
915 7 247 721 379 393 885 745 263 
916 7 646 876 816 209 411 325 36 
917 6 733 940 195 440 635 281 
918 7 161 897 771 836 311 260 264 
919 7 143 909 375 533 793 647 329 
920 5 19 351 692 409 653 
921 7 595 566 531 232 133 490 290 
922 7 727 882 898 740 161 136 341 
923 7 151 728 486 539 985 147 944 
924 7 152 893 522 809 238 606 815 
925 7 789 929 622 38 399 719 184 
926 7 344 845 346 199 370 868 215 
927 7 387 767 431 207 357 418 599 
928 7 73 264 311 570 814 260 524 
929 7 399 925 789 719 38 200 184 
930 7 932 187 356 957 418 558 718 
931 7 219 314 193 310 569 131 775 
932 7 930 356 957 558 187 418 629 
933 7 941 412 867 410 551 358 69 
934 7 699 575 963 475 352 224 821 
935 7 565 177 400 164 471 437 592 
936 7 316 110 880 517 200 550 460 
937 7 54 115 214 397 222 700 732 
938 7 623 112 258 636 671 705 527 
939 7 185 784 138 167 194 324 128 
940 7 195 281 917 440 733 635 544 
941 7 412 410 358 933 551 69 682 
942 7 887 904 677 731 275 478 121 
943 7 373 782 482 536 180 111 522 
944 7 985 539 65 30 614 486 811 
945 7 488 140 808 207 431 767 30 
946 6 759 513 188 433 896 355 
947 7 243 767 747 927 357 387 599 
948 7 292 211 430 512 434 392 233 
949 7 547 528 842 390 122 327 388 
950 6 257 790 778 852 872 663 
951 7 78 543 673 293 423 828 27 
952 7 776 748 169 424 120 444 204 
953 7 712 96 598 39 523 686 640 
954 7 117 380 401 804 755 458 666 
955 7 841 276 339 163 98 465 579 
956 7 437 981 229 565 34 413 521 
957 7 718 558 418 187 298 932 968 
958 7 831 652 849 474 372 139 312 
959 7 118 406 18 982 48 88 571 
960 7 500 583 10 362 16 645 629 
961 7 332 749 888 894 552 624 7 
962 7 578 628 72 40 380 401 117 
963 7 575 475 352 934 699 821 813 
964 7 844 192 36 967 644 3 325 
965 7 664 742 384 127 234 416 226 
966 7 530 13 261 900 14 866 520 
967 7 644 3 708 35 192 844 769 
968 7 134 284 805 718 452 267 357 
969 7 859 836 774 913 771 311 918 
970 7 100 823 319 511 615 786 125 
971 7 501 104 574 507 722 591 452 
972 7 540 273 757 709 179 225 70 
973 7 5 282 884 607 277 107 519 
974 7 586 576 48 363 563 538 182 
975 7 562 215 317 355 717 346 433 
976 7 720 548 174 405 886 137 902 
977 7 826 642 700 306 545 732 397 
978 7 902 137 160 886 720 309 914 
979 7 25 838 113 907 796 802 158 
980 7 768 746 491 124 701 716 26 
981 7 437 956 521 164 413 565 229 
982 7 406 88 572 959 914 309 118 
983 7 519 128 47 138 495 784 107 
984 7 37 449 469 476 605 382 420 
985 6 539 944 65 614 811 486 
986 7 51 454 297 33 640 92 7 
987 7 201 313 91 434 430 233 119 
DEPOT_SECTION
   1
   -1
EOF
