NAME :  X-n115-kX-w11-c11.cctp
COMMENT : 	Adapted by Maziero, Usberti and Cavellucci from the Uchoa, Pecin, Pessoa, Poggi, Subramanian, and Vidal (2013)
TYPE :  CCTP
DIMENSION :    93
EDGE_WEIGHT_TYPE : 	EUC_2D	
CAPACITY : 	169
VERTICES_WITHIN_COVERAGE :  11
VERTICES_WITH_DEMAND : 	11
NODE_COORD_SECTION
1 500 500
2 865 693
3 633 220
4 173 361
5 89 714
6 350 102
7 301 24
8 834 663
9 841 997
10 394 790
11 276 488
12 779 312
13 939 66
14 940 964
15 379 338
16 128 439
17 401 22
18 69 887
19 633 46
20 713 182
21 806 525
22 540 169
23 577 888
24 298 725
25 410 644
26 512 889
27 756 352
28 405 407
29 850 365
30 731 588
31 90 553
32 691 383
33 926 631
34 955 351
35 998 736
36 921 854
37 532 257
38 238 513
39 976 912
40 565 912
41 893 74
42 99 355
43 294 39
44 58 429
45 520 109
46 409 682
47 296 843
48 717 390
49 152 711
50 934 255
51 257 539
52 270 31
53 823 409
54 203 849
55 770 627
56 786 186
57 380 300
58 973 847
59 985 975
60 690 428
61 910 568
62 181 186
63 814 694
64 702 927
65 385 696
66 48 323
67 813 293
68 490 676
69 729 923
70 719 883
71 167 14
72 98 159
73 476 709
74 402 339
75 911 734
76 590 230
77 122 698
78 154 418
79 165 998
80 217 599
81 766 21
82 831 607
83 70 494
84 220 740
85 19 855
86 818 409
87 503 304
88 254 282
89 205 607
90 331 57
91 118 404
92 893 182
93 435 1000
DEMAND_SECTION
2 86
3 98
4 89
5 91
6 74
7 87
8 65
9 62
10 60
11 99
12 96
COVERAGE_SECTION
2 11 8 63 75 33 82 55 61 35 30 36 21 
3 11 76 20 22 37 87 56 45 12 32 19 27 
4 11 78 91 42 16 88 66 44 11 38 83 62 
5 11 77 49 84 85 89 31 80 18 54 24 83 
6 10 90 43 7 17 52 45 62 57 22 71 
7 11 43 52 90 6 17 71 62 45 72 88 22 
8 9 63 2 82 55 33 75 61 30 21 
9 11 14 69 59 64 39 36 70 58 75 23 40 
10 10 65 46 47 73 24 25 68 26 84 54 
11 10 38 51 80 89 78 28 16 4 91 15 
12 10 67 27 29 48 86 53 32 56 20 60 
13 10 41 92 81 50 56 20 67 34 12 19 
14 11 59 39 9 36 58 69 75 35 70 64 2 
15 9 74 57 28 87 88 37 11 4 38 
16 11 78 91 44 83 42 4 31 38 66 11 51 
17 10 90 6 7 43 52 45 22 19 71 37 
18 11 85 54 79 5 49 77 84 47 24 89 80 
19 11 45 81 22 20 3 76 56 17 37 41 6 
20 11 56 3 76 12 67 19 81 22 27 92 37 
21 7 82 30 55 61 53 86 8 
22 10 45 76 37 3 87 19 20 6 17 57 
23 9 40 26 64 70 69 93 73 10 68 
24 11 84 65 10 47 46 25 49 80 89 54 77 
25 6 46 65 68 73 24 10 
26 9 40 23 93 10 73 64 70 68 69 
27 9 12 48 32 67 86 53 29 60 56 
28 7 74 15 57 87 11 88 37 
29 8 53 86 67 12 27 34 48 50 
30 5 55 21 82 8 63 
31 11 83 16 89 44 80 77 78 91 38 5 51 
32 8 48 60 27 12 86 53 67 29 
33 9 61 2 8 82 75 35 63 55 21 
34 6 50 29 53 86 67 12 
35 11 75 58 33 2 36 39 8 63 61 82 14 
36 11 58 39 14 75 59 35 9 2 63 69 70 
37 10 87 76 22 3 45 74 57 15 20 28 
38 11 51 11 80 89 78 16 31 91 4 83 28 
39 11 14 59 58 36 9 35 75 2 69 70 63 
40 9 23 26 64 70 93 69 10 73 68 
41 10 13 92 81 56 50 20 67 19 12 34 
42 11 91 66 4 78 44 16 83 88 62 72 31 
43 11 7 52 90 6 17 71 62 72 45 88 57 
44 11 91 83 16 42 78 66 31 4 38 11 51 
45 10 22 19 76 17 37 3 6 87 90 20 
46 6 65 25 73 68 10 24 
47 11 54 10 24 84 65 49 46 79 93 26 73 
48 8 32 60 27 12 86 53 29 67 
49 11 77 5 84 89 80 24 54 31 18 47 85 
50 8 92 34 67 29 56 12 41 13 
51 11 38 11 80 89 78 16 31 25 24 83 91 
52 11 43 7 90 71 6 17 62 72 88 45 57 
53 7 86 29 27 12 48 67 21 
54 11 47 84 18 49 79 24 77 5 85 10 65 
55 6 30 82 8 63 21 2 
56 11 20 92 67 12 41 3 50 81 27 29 13 
57 9 15 74 28 87 88 37 6 22 11 
58 11 36 39 35 14 59 75 2 9 33 63 8 
59 11 14 39 58 36 9 35 75 69 70 64 2 
60 6 32 48 27 86 53 12 
61 7 33 82 21 8 2 55 63 
62 11 72 88 71 4 52 43 42 6 66 90 7 
63 9 8 2 55 82 75 33 30 61 21 
64 9 69 70 23 40 9 26 36 14 63 
65 8 46 25 24 73 10 68 84 47 
66 11 42 44 91 4 16 78 72 83 62 88 31 
67 11 12 29 27 56 53 86 50 48 92 20 32 
68 5 73 46 25 65 10 
69 9 64 70 9 23 40 36 14 26 63 
70 9 69 64 23 40 9 36 26 63 14 
71 11 52 43 7 72 90 62 6 17 88 66 4 
72 11 62 71 66 42 88 52 4 43 7 91 90 
73 5 68 46 65 25 10 
74 9 15 57 28 87 37 88 11 76 22 
75 11 2 35 33 8 63 36 58 82 61 55 39 
76 10 3 37 22 87 20 45 32 19 56 48 
77 11 49 5 84 89 80 31 54 24 85 18 51 
78 11 16 91 4 42 44 83 38 11 66 31 51 
79 11 18 54 47 85 84 93 49 5 77 24 10 
80 11 89 51 38 11 49 31 77 84 24 5 83 
81 11 19 41 56 20 13 92 3 45 22 76 67 
82 8 8 55 21 61 63 2 33 30 
83 11 31 44 16 91 78 42 4 38 66 89 80 
84 11 49 24 77 54 47 5 89 80 65 10 46 
85 11 18 5 54 77 49 79 84 47 24 31 89 
86 8 53 29 27 48 12 67 21 60 
87 8 37 74 76 57 15 22 28 3 
88 10 4 62 57 15 74 78 42 91 28 72 
89 11 80 51 38 49 77 31 84 11 24 5 83 
90 10 43 7 6 52 17 71 45 62 22 88 
91 11 16 78 42 44 4 83 66 31 38 11 88 
92 10 50 56 41 13 67 12 20 34 29 81 
93 10 26 40 23 47 10 79 54 64 73 69 
DEPOT_SECTION
   1
   -1
EOF
