NAME :  X-n148-kX-w14-c9.cctp
COMMENT : 	Adapted by Maziero, Usberti and Cavellucci from the Uchoa, Pecin, Pessoa, Poggi, Subramanian, and Vidal (2013)
TYPE :  CCTP
DIMENSION :    74
EDGE_WEIGHT_TYPE : 	EUC_2D	
CAPACITY : 	18
VERTICES_WITHIN_COVERAGE :  9
VERTICES_WITH_DEMAND : 	14
NODE_COORD_SECTION
1 707 633
2 405 122
3 811 419
4 11 667
5 336 612
6 366 50
7 98 836
8 414 996
9 243 713
10 100 232
11 891 946
12 132 204
13 25 642
14 994 18
15 636 897
16 214 651
17 108 619
18 882 399
19 409 585
20 247 882
21 25 182
22 251 111
23 263 799
24 172 127
25 231 650
26 964 107
27 936 70
28 229 744
29 161 214
30 154 860
31 23 374
32 61 889
33 129 248
34 161 301
35 180 836
36 427 670
37 833 860
38 450 926
39 468 157
40 288 484
41 574 955
42 41 65
43 907 13
44 579 912
45 765 835
46 176 189
47 470 22
48 110 670
49 22 369
50 89 934
51 89 973
52 765 469
53 111 694
54 572 872
55 134 794
56 85 912
57 79 911
58 132 871
59 170 677
60 847 462
61 732 383
62 281 669
63 84 809
64 83 648
65 45 944
66 84 965
67 779 427
68 216 721
69 954 764
70 339 814
71 21 341
72 67 772
73 92 325
74 100 342
DEMAND_SECTION
2 10
3 4
4 7
5 4
6 8
7 1
8 4
9 1
10 5
11 5
12 1
13 4
14 4
15 4
COVERAGE_SECTION
2 4 39 6 47 22 
3 5 67 60 52 18 61 
4 8 13 64 48 53 17 72 59 63 
5 7 19 62 36 25 16 9 40 
6 8 2 47 22 39 24 46 29 12 
7 9 63 58 55 30 32 72 56 57 35 
8 9 38 41 44 70 54 20 15 23 35 
9 8 68 28 62 25 16 59 23 53 
10 9 33 12 29 46 21 34 73 74 24 
11 6 37 45 69 15 44 41 
12 9 29 10 33 46 24 34 21 73 74 
13 7 4 64 17 48 53 72 59 
14 3 27 43 26 
15 7 44 54 41 45 38 37 8 
16 8 25 59 9 62 68 28 48 17 
17 6 64 48 53 59 13 4 
18 2 60 3 
19 4 5 36 62 40 
20 9 35 23 30 70 58 28 55 7 68 
21 9 10 12 42 33 29 46 24 73 71 
22 8 24 46 6 29 12 2 33 10 
23 9 28 70 20 9 35 68 30 55 62 
24 9 46 22 12 29 10 33 42 21 34 
25 8 16 62 9 59 68 28 5 48 
26 3 27 14 43 
27 3 26 43 14 
28 9 68 9 23 59 62 16 25 35 55 
29 9 46 12 33 10 34 24 73 22 21 
30 9 58 35 7 55 56 63 57 20 32 
31 7 49 71 74 73 34 10 33 
32 9 57 56 50 65 7 58 66 63 51 
33 9 10 12 29 34 46 73 74 21 24 
34 9 33 73 74 29 10 12 46 71 49 
35 9 30 58 55 20 7 23 63 28 68 
36 5 19 5 62 70 9 
37 4 45 11 69 15 
38 9 8 41 44 54 70 15 20 23 36 
39 3 2 47 6 
40 2 5 19 
41 8 44 54 15 38 8 45 70 37 
42 9 21 24 12 10 46 29 33 22 34 
43 3 27 14 26 
44 8 54 41 15 38 8 45 37 70 
45 6 37 15 11 54 44 69 
46 9 29 12 24 33 10 22 34 21 73 
47 4 6 2 39 22 
48 8 53 64 17 59 13 4 16 72 
49 7 31 71 73 74 34 10 33 
50 9 56 57 66 51 65 32 58 7 30 
51 9 66 50 65 56 57 32 58 30 7 
52 3 67 3 60 
53 8 48 64 59 17 72 13 55 4 
54 6 44 15 41 38 45 8 
55 8 63 7 35 30 72 58 53 28 
56 9 57 50 32 65 66 51 58 7 30 
57 9 56 50 32 65 66 51 58 7 30 
58 9 30 7 35 56 57 32 50 55 63 
59 8 16 48 53 68 25 9 17 28 
60 3 3 18 67 
61 4 67 3 52 60 
62 8 25 9 16 5 68 28 59 23 
63 8 7 72 55 58 32 30 35 57 
64 7 48 17 53 13 4 59 72 
65 9 66 50 57 56 51 32 58 7 30 
66 9 51 50 65 56 57 32 58 30 7 
67 4 3 52 61 60 
68 8 28 9 59 16 25 62 23 53 
69 3 37 11 45 
70 9 23 20 28 9 68 62 38 35 36 
71 7 49 31 73 74 10 33 34 
72 8 63 7 55 53 48 32 58 4 
73 8 74 34 71 49 31 33 10 12 
74 7 73 34 71 31 49 33 10 
DEPOT_SECTION
   1
   -1
EOF
