NAME :  X-n153-kX-w60-c7.cctp
COMMENT : 	Adapted by Maziero, Usberti and Cavellucci from the Uchoa, Pecin, Pessoa, Poggi, Subramanian, and Vidal (2013)
TYPE :  CCTP
DIMENSION :    152
EDGE_WEIGHT_TYPE : 	EUC_2D	
CAPACITY : 	144
VERTICES_WITHIN_COVERAGE :  7
VERTICES_WITH_DEMAND : 	60
NODE_COORD_SECTION
1 500 500
2 238 446
3 749 750
4 960 879
5 955 866
6 202 336
7 720 788
8 695 743
9 739 603
10 217 419
11 922 870
12 703 733
13 843 856
14 233 682
15 259 459
16 226 305
17 732 722
18 747 858
19 949 784
20 904 891
21 880 795
22 591 661
23 984 926
24 246 438
25 183 501
26 546 966
27 742 771
28 110 698
29 193 441
30 215 388
31 232 516
32 907 954
33 133 526
34 750 680
35 397 553
36 103 488
37 663 731
38 784 686
39 754 821
40 280 456
41 236 424
42 287 454
43 598 728
44 996 821
45 853 710
46 744 473
47 887 907
48 286 422
49 857 633
50 272 484
51 934 625
52 939 892
53 810 732
54 631 723
55 822 694
56 769 768
57 977 840
58 639 736
59 727 765
60 950 896
61 206 433
62 207 535
63 164 586
64 754 691
65 662 768
66 348 308
67 254 455
68 130 482
69 764 726
70 713 758
71 965 934
72 693 734
73 890 801
74 808 675
75 393 484
76 727 808
77 955 756
78 854 640
79 249 552
80 188 479
81 187 506
82 901 767
83 664 770
84 558 530
85 714 742
86 979 683
87 200 416
88 294 391
89 344 471
90 240 449
91 735 633
92 944 952
93 157 421
94 768 750
95 813 936
96 534 720
97 986 914
98 963 798
99 905 579
100 175 397
101 972 940
102 184 561
103 357 399
104 859 770
105 661 762
106 298 469
107 14 438
108 275 561
109 856 919
110 219 453
111 272 465
112 294 296
113 754 775
114 229 467
115 946 778
116 711 803
117 858 879
118 665 347
119 981 802
120 924 973
121 267 545
122 760 764
123 942 894
124 219 465
125 665 756
126 92 212
127 920 940
128 937 814
129 804 654
130 281 489
131 669 647
132 308 309
133 998 876
134 900 910
135 753 900
136 873 706
137 209 467
138 991 966
139 766 729
140 341 458
141 897 957
142 224 368
143 818 679
144 707 703
145 280 450
146 252 462
147 717 683
148 989 489
149 278 356
150 144 446
151 991 818
152 831 812
DEMAND_SECTION
2 92
3 90
4 65
5 80
6 69
7 64
8 73
9 96
10 74
11 81
12 67
13 58
14 79
15 85
16 57
17 90
18 84
19 84
20 92
21 87
22 95
23 66
24 86
25 90
26 94
27 84
28 98
29 65
30 68
31 73
32 51
33 6
34 7
35 6
36 3
37 2
38 3
39 7
40 2
41 9
42 1
43 6
44 4
45 8
46 2
47 8
48 5
49 9
50 2
51 1
52 3
53 9
54 8
55 9
56 6
57 1
58 4
59 8
60 3
61 5
COVERAGE_SECTION
2 7 90 24 67 110 146 41 114 
3 7 122 94 27 113 56 59 139 
4 7 5 60 123 52 133 11 57 
5 7 4 60 52 123 11 57 133 
6 7 16 142 30 100 149 87 10 
7 7 116 76 59 27 70 113 85 
8 7 72 12 85 70 125 37 59 
9 7 91 34 129 131 147 64 38 
10 7 87 61 41 30 29 2 110 
11 7 20 52 123 5 60 4 134 
12 7 72 8 85 70 144 17 37 
13 7 117 152 109 47 20 21 73 
14 7 63 28 108 79 102 121 62 
15 7 67 146 111 40 90 145 2 
16 7 6 142 112 149 132 30 100 
17 7 85 12 144 69 3 139 64 
18 7 39 135 76 116 7 113 27 
19 7 115 98 77 128 119 82 151 
20 7 134 47 11 52 123 60 117 
21 7 73 104 82 152 128 115 19 
22 7 43 54 131 96 58 37 125 
23 7 97 101 71 138 60 92 133 
24 7 2 90 41 67 15 146 110 
25 7 81 80 62 137 31 124 33 
26 7 135 18 65 83 116 105 76 
27 7 113 59 122 3 56 7 70 
28 7 14 63 102 33 62 79 81 
29 7 61 87 110 137 10 124 80 
30 7 142 10 87 100 41 61 6 
31 7 62 79 121 81 114 25 50 
32 7 141 127 120 92 134 47 71 
33 7 68 36 25 81 102 63 80 
34 7 64 147 38 17 69 91 144 
35 7 75 89 140 108 106 121 130 
36 7 68 33 150 25 80 81 93 
37 7 58 125 72 105 54 8 65 
38 7 74 64 34 143 129 55 69 
39 7 76 18 113 7 116 27 56 
40 7 145 42 111 15 106 67 50 
41 7 24 10 2 90 61 110 67 
42 7 40 145 106 111 15 48 67 
43 7 54 58 96 37 22 105 125 
44 7 151 119 57 98 133 128 19 
45 7 136 55 143 53 74 104 78 
46 7 9 118 91 131 129 99 84 
47 7 134 20 109 117 127 11 32 
48 7 145 42 88 40 24 111 15 
49 7 78 129 143 74 55 99 136 
50 7 130 111 15 40 106 146 42 
51 7 99 86 49 78 136 45 143 
52 7 123 60 4 11 5 20 134 
53 7 55 139 69 94 45 38 143 
54 7 58 37 43 125 105 65 83 
55 7 143 74 45 38 53 129 136 
56 7 122 113 94 3 27 139 59 
57 7 151 44 5 119 133 4 98 
58 7 54 37 125 105 65 43 83 
59 7 27 70 7 85 3 113 122 
60 7 123 52 4 5 11 97 71 
61 7 29 10 87 110 41 137 2 
62 7 31 81 102 25 79 80 121 
63 7 102 62 33 81 25 79 31 
64 7 34 38 69 17 147 139 144 
65 7 83 105 125 37 58 8 72 
66 7 132 112 149 103 88 16 48 
67 7 15 146 90 2 24 111 40 
68 7 36 150 33 25 80 81 93 
69 7 139 94 3 17 64 122 56 
70 7 59 85 8 12 7 72 27 
71 7 101 23 92 97 60 138 127 
72 7 8 12 85 37 70 144 125 
73 7 21 82 104 128 152 19 115 
74 7 143 129 55 38 64 45 53 
75 7 89 140 35 103 106 42 130 
76 7 116 7 39 27 59 113 70 
77 7 115 19 98 119 82 128 151 
78 7 49 129 143 74 55 136 45 
79 7 121 108 31 62 102 130 50 
80 7 25 137 81 124 29 110 114 
81 7 25 80 62 137 31 124 102 
82 7 21 73 104 115 19 77 128 
83 7 65 105 125 37 8 58 72 
84 7 22 131 35 75 96 9 46 
85 7 12 70 8 72 59 17 3 
86 7 51 77 115 19 136 82 98 
87 7 10 61 29 100 30 41 110 
88 7 48 149 145 42 103 40 24 
89 7 140 106 75 42 40 130 145 
90 7 2 24 67 146 15 110 114 
91 7 9 34 147 64 131 38 129 
92 7 127 71 120 101 32 141 23 
93 7 150 100 29 87 61 10 80 
94 7 122 56 3 139 69 113 27 
95 7 109 135 117 47 13 141 134 
96 7 43 22 54 58 37 105 125 
97 7 23 71 101 60 133 4 123 
98 7 119 19 115 128 151 44 77 
99 7 51 49 78 148 129 86 136 
100 7 93 87 30 10 29 61 142 
101 7 71 23 92 97 138 60 127 
102 7 63 62 81 25 33 31 79 
103 7 140 88 89 48 42 149 66 
104 7 21 82 73 152 45 53 136 
105 7 65 125 83 37 58 8 72 
106 7 42 40 111 130 145 50 15 
107 7 36 68 150 93 33 100 29 
108 7 121 79 31 130 62 50 102 
109 7 47 117 134 95 20 141 32 
110 7 124 114 137 2 90 61 29 
111 7 40 15 145 42 50 146 67 
112 7 132 66 149 16 88 6 142 
113 7 27 122 56 3 59 94 7 
114 7 124 110 137 90 2 146 67 
115 7 19 77 98 128 119 82 151 
116 7 7 76 59 27 70 39 113 
117 7 13 47 109 20 134 11 152 
118 6 46 84 9 91 131 75 
119 7 98 151 44 19 57 115 128 
120 7 32 92 141 127 71 101 134 
121 7 108 79 31 130 50 62 111 
122 7 56 113 94 3 27 59 139 
123 7 52 60 4 5 11 20 134 
124 7 114 137 110 90 2 146 80 
125 7 105 65 83 37 8 58 72 
126 7 16 6 100 142 30 93 112 
127 7 32 92 141 120 134 71 47 
128 7 98 19 115 119 57 73 151 
129 7 74 143 38 55 78 49 34 
130 7 50 106 111 40 42 15 145 
131 7 147 91 144 22 9 37 54 
132 7 112 66 149 16 88 103 142 
133 7 4 97 57 5 23 60 44 
134 7 47 20 127 52 32 109 123 
135 7 18 95 39 76 13 109 116 
136 7 45 55 143 104 82 53 78 
137 7 124 110 114 80 29 61 2 
138 7 101 23 71 92 97 120 127 
139 7 69 94 3 17 122 56 64 
140 7 89 106 42 75 40 103 145 
141 7 32 127 120 92 134 47 109 
142 7 30 6 10 87 149 41 100 
143 7 74 55 129 38 45 78 53 
144 7 147 12 17 72 85 8 34 
145 7 40 42 111 15 67 106 48 
146 7 67 15 90 111 2 114 24 
147 7 144 34 64 17 12 91 72 
148 7 99 51 86 49 78 46 136 
149 7 88 142 132 112 48 30 16 
150 7 93 68 29 80 100 36 61 
151 7 44 119 57 98 19 128 133 
152 7 13 104 21 73 117 56 39 
DEPOT_SECTION
   1
   -1
EOF
