NAME :  X-n167-kX-w16-c9.cctp
COMMENT : 	Adapted by Maziero, Usberti and Cavellucci from the Uchoa, Pecin, Pessoa, Poggi, Subramanian, and Vidal (2013)
TYPE :  CCTP
DIMENSION :    97
EDGE_WEIGHT_TYPE : 	EUC_2D	
CAPACITY : 	133
VERTICES_WITHIN_COVERAGE :  9
VERTICES_WITH_DEMAND : 	16
NODE_COORD_SECTION
1 0 0
2 832 885
3 777 632
4 406 257
5 620 467
6 58 70
7 116 423
8 104 445
9 714 722
10 188 503
11 856 594
12 932 448
13 749 982
14 818 889
15 377 493
16 337 419
17 772 605
18 373 448
19 610 417
20 69 583
21 988 324
22 110 550
23 791 590
24 785 614
25 321 305
26 804 556
27 939 685
28 948 479
29 309 141
30 269 351
31 251 512
32 897 572
33 316 461
34 825 529
35 474 152
36 510 453
37 778 928
38 254 539
39 167 28
40 64 165
41 249 525
42 49 605
43 990 375
44 833 561
45 84 571
46 713 485
47 489 204
48 815 905
49 286 204
50 864 397
51 35 597
52 918 632
53 395 570
54 87 97
55 893 805
56 82 392
57 349 360
58 138 560
59 398 467
60 92 22
61 127 74
62 727 975
63 755 589
64 975 954
65 820 502
66 802 744
67 585 600
68 248 369
69 868 476
70 275 194
71 930 933
72 233 587
73 198 35
74 312 573
75 694 813
76 446 264
77 586 483
78 967 362
79 194 330
80 846 717
81 32 487
82 250 367
83 989 392
84 473 274
85 408 84
86 762 800
87 917 560
88 606 445
89 551 528
90 605 583
91 427 571
92 168 479
93 679 371
94 354 415
95 638 444
96 243 535
97 796 796
DEMAND_SECTION
2 6
3 9
4 7
5 5
6 9
7 5
8 9
9 7
10 10
11 8
12 6
13 5
14 9
15 8
16 9
17 10
COVERAGE_SECTION
2 9 14 48 37 97 55 71 86 13 62 
3 9 24 17 23 63 26 11 44 80 9 
4 8 76 84 25 47 57 35 49 70 
5 9 88 95 77 19 89 46 36 93 90 
6 7 54 60 61 40 39 73 70 
7 9 8 56 92 81 10 79 22 58 68 
8 9 7 56 92 81 10 22 58 45 20 
9 9 66 86 75 3 97 24 17 80 63 
10 9 92 31 96 41 38 58 22 72 8 
11 9 44 32 26 23 87 34 52 24 17 
12 9 28 69 83 50 43 78 87 65 32 
13 6 62 37 48 14 2 75 
14 9 2 48 37 97 86 55 13 71 62 
15 9 59 18 33 53 94 16 91 74 31 
16 9 94 18 33 57 59 15 30 82 68 
17 9 24 63 23 3 26 44 11 34 65 
18 9 59 94 15 16 33 57 53 91 36 
19 8 88 95 5 77 93 36 46 89 
20 8 45 42 51 22 58 81 8 10 
21 5 78 43 83 12 50 
22 9 58 45 20 42 51 10 92 81 8 
23 9 17 24 26 63 3 44 11 34 65 
24 9 17 3 23 63 26 44 11 34 65 
25 8 57 30 82 68 4 49 16 94 
26 8 44 34 23 65 17 63 24 11 
27 9 52 80 32 11 87 55 66 44 3 
28 9 12 69 87 83 32 43 50 78 65 
29 6 70 49 85 4 73 25 
30 8 82 68 25 79 57 16 94 33 
31 9 41 96 38 10 72 33 74 92 58 
32 9 87 11 52 44 34 26 69 65 28 
33 9 16 18 94 15 59 31 41 38 96 
34 7 65 44 26 69 23 11 32 
35 5 47 85 76 84 4 
36 8 77 89 88 19 5 59 95 18 
37 7 48 14 13 2 62 86 97 
38 9 96 41 31 72 74 10 33 92 58 
39 7 73 61 60 54 6 40 29 
40 7 54 6 61 60 39 73 79 
41 9 96 31 38 72 10 74 33 92 58 
42 8 51 20 45 22 58 81 8 10 
43 7 83 78 21 12 28 50 69 
44 8 26 34 11 23 65 32 24 17 
45 8 20 22 42 51 58 81 10 92 
46 7 95 5 65 63 88 26 93 
47 4 35 84 76 4 
48 9 14 2 37 13 97 62 71 86 55 
49 6 70 29 25 4 30 79 
50 5 69 12 78 65 28 
51 8 42 20 45 22 58 81 8 92 
52 9 27 32 87 11 44 80 23 24 26 
53 6 91 15 74 59 18 33 
54 7 6 61 40 60 39 73 70 
55 9 97 80 2 66 14 48 27 86 71 
56 9 7 8 81 92 79 10 22 68 82 
57 9 94 16 25 30 18 82 68 33 4 
58 9 22 45 20 10 92 72 42 96 51 
59 9 18 15 94 16 33 53 91 36 57 
60 7 6 61 39 54 73 40 29 
61 7 54 39 60 6 73 40 70 
62 6 13 37 48 14 2 75 
63 8 17 23 24 3 26 44 34 11 
64 9 71 2 48 14 55 37 13 97 62 
65 7 34 69 26 44 23 11 32 
66 9 80 97 86 9 55 3 75 24 17 
67 4 90 89 77 5 
68 9 82 30 79 25 57 16 33 94 92 
69 7 65 34 12 50 28 44 87 
70 6 49 29 25 4 30 79 
71 9 64 2 48 14 55 37 13 97 62 
72 7 38 96 41 31 74 10 58 
73 7 39 61 60 54 6 29 70 
74 7 38 41 96 72 53 31 15 
75 4 86 9 97 66 
76 6 84 4 47 35 25 57 
77 8 5 88 89 95 19 36 90 67 
78 6 43 83 21 12 50 28 
79 8 68 82 30 7 56 25 8 92 
80 9 66 97 27 55 3 52 86 24 11 
81 9 8 45 22 20 7 56 51 42 58 
82 9 68 30 79 25 57 16 33 94 92 
83 7 43 78 21 12 28 50 69 
84 6 76 4 47 35 57 25 
85 5 35 29 47 49 4 
86 9 97 66 75 9 14 2 48 80 37 
87 9 32 11 52 44 28 34 69 12 26 
88 8 5 19 95 77 36 89 93 46 
89 5 77 90 67 36 5 
90 5 67 89 77 5 88 
91 5 53 15 59 74 89 
92 9 10 8 7 58 31 22 41 96 38 
93 5 19 95 88 5 46 
94 9 16 18 57 33 59 15 30 25 82 
95 9 5 88 19 77 93 46 89 36 90 
96 9 38 41 31 72 10 74 92 33 58 
97 9 86 66 80 2 14 55 75 9 48 
DEPOT_SECTION
   1
   -1
EOF
