NAME :  X-n162-kX-w64-c9.cctp
COMMENT : 	Adapted by Maziero, Usberti and Cavellucci from the Uchoa, Pecin, Pessoa, Poggi, Subramanian, and Vidal (2013)
TYPE :  CCTP
DIMENSION :    146
EDGE_WEIGHT_TYPE : 	EUC_2D	
CAPACITY : 	1174
VERTICES_WITHIN_COVERAGE :  9
VERTICES_WITH_DEMAND : 	64
NODE_COORD_SECTION
1 500 500
2 300 71
3 434 4
4 257 798
5 718 17
6 879 206
7 929 330
8 353 793
9 389 540
10 202 55
11 417 253
12 921 572
13 94 788
14 870 327
15 281 124
16 411 288
17 882 116
18 307 240
19 359 935
20 352 858
21 502 776
22 269 33
23 440 814
24 850 461
25 909 404
26 339 458
27 767 535
28 86 47
29 758 532
30 426 282
31 534 10
32 826 830
33 911 79
34 270 791
35 391 794
36 908 787
37 929 858
38 938 281
39 941 579
40 752 162
41 579 68
42 323 570
43 238 700
44 853 970
45 329 805
46 651 486
47 291 631
48 286 481
49 855 547
50 972 378
51 561 490
52 205 741
53 528 672
54 664 605
55 462 532
56 340 54
57 929 941
58 936 46
59 864 654
60 501 495
61 339 10
62 324 595
63 585 893
64 73 401
65 244 926
66 190 659
67 900 929
68 525 878
69 832 622
70 228 662
71 36 578
72 897 292
73 492 426
74 958 546
75 312 781
76 320 557
77 226 264
78 446 702
79 470 746
80 613 620
81 439 15
82 148 352
83 693 626
84 703 31
85 798 932
86 294 172
87 710 588
88 701 370
89 632 147
90 909 889
91 745 985
92 771 946
93 248 178
94 265 408
95 808 699
96 867 883
97 725 58
98 688 875
99 546 149
100 108 303
101 401 225
102 824 878
103 336 115
104 683 219
105 428 19
106 691 745
107 624 46
108 6 539
109 652 923
110 513 262
111 639 753
112 112 114
113 478 46
114 440 219
115 780 270
116 354 105
117 885 963
118 403 32
119 403 386
120 392 52
121 769 967
122 811 683
123 968 26
124 644 82
125 339 122
126 413 22
127 459 198
128 643 391
129 733 200
130 361 229
131 726 749
132 480 250
133 837 983
134 427 197
135 731 579
136 741 135
137 421 23
138 315 178
139 676 530
140 729 107
141 668 471
142 715 728
143 542 296
144 607 43
145 727 283
146 223 283
DEMAND_SECTION
2 60
3 88
4 74
5 56
6 95
7 95
8 83
9 94
10 93
11 79
12 61
13 83
14 68
15 86
16 96
17 75
18 67
19 74
20 92
21 71
22 92
23 74
24 82
25 88
26 95
27 69
28 100
29 91
30 83
31 78
32 63
33 88
34 84
35 59
36 77
37 89
38 74
39 74
40 85
41 71
42 72
43 61
44 99
45 65
46 88
47 75
48 82
49 100
50 96
51 89
52 97
53 52
54 57
55 54
56 64
57 78
58 67
59 80
60 85
61 83
62 54
63 68
64 80
65 76
COVERAGE_SECTION
2 7 56 22 15 103 116 125 61 
3 7 81 105 137 126 118 113 120 
4 9 34 75 45 52 8 43 20 65 35 
5 9 84 97 140 107 124 144 136 41 40 
6 9 72 17 38 115 14 33 7 40 129 
7 9 38 72 14 50 25 6 24 115 145 
8 9 45 35 75 20 34 23 4 79 78 
9 9 76 42 55 62 26 48 60 47 73 
10 9 22 2 15 112 28 93 56 61 103 
11 9 30 101 16 114 134 130 132 127 110 
12 9 39 74 49 59 69 24 122 27 25 
13 9 52 66 4 43 34 70 65 71 75 
14 9 72 7 38 25 115 50 6 24 145 
15 7 86 2 103 125 93 138 116 
16 9 30 11 101 114 130 132 134 119 127 
17 9 33 58 6 123 40 136 140 97 129 
18 7 130 138 86 77 93 146 101 
19 9 20 65 45 8 35 23 75 34 4 
20 9 45 8 35 19 75 23 34 4 65 
21 9 79 23 78 68 53 35 111 63 8 
22 9 2 10 56 61 15 103 116 125 120 
23 9 35 21 79 8 20 68 45 78 75 
24 9 25 49 27 29 12 14 74 50 39 
25 9 50 7 24 14 72 38 74 49 12 
26 9 48 94 9 119 76 42 62 55 73 
27 9 29 135 87 49 139 69 24 83 141 
28 9 112 10 22 93 15 2 86 56 61 
29 9 27 135 87 139 49 141 83 24 46 
30 9 16 11 101 132 114 130 134 110 127 
31 9 113 41 144 81 107 3 105 137 126 
32 9 102 96 36 90 85 37 67 92 131 
33 9 58 17 123 6 40 136 140 97 5 
34 9 4 75 45 52 8 43 20 35 70 
35 9 8 23 45 20 75 79 78 21 34 
36 9 37 32 90 96 102 95 59 67 122 
37 9 90 96 36 67 57 32 102 117 44 
38 9 72 7 14 6 50 25 115 17 24 
39 9 12 74 49 59 69 24 122 25 27 
40 9 136 129 140 104 97 115 89 145 6 
41 8 144 107 124 31 99 89 113 84 
42 9 76 62 47 9 48 26 70 55 43 
43 9 70 52 66 47 34 4 75 62 45 
44 9 133 117 67 85 57 121 92 96 102 
45 9 8 75 20 34 35 4 23 19 43 
46 9 141 139 51 128 29 87 54 135 27 
47 9 62 42 70 76 43 66 9 52 48 
48 9 26 94 76 42 9 62 47 119 55 
49 9 12 69 24 27 39 29 74 59 135 
50 9 7 25 38 14 72 24 74 6 12 
51 9 60 46 73 55 141 139 128 80 54 
52 9 43 4 34 70 66 75 13 45 47 
53 9 78 79 80 21 111 54 55 23 83 
54 9 83 87 80 135 139 29 46 27 142 
55 9 60 9 51 73 26 42 76 62 53 
56 6 2 61 120 116 103 118 
57 9 67 117 90 44 37 96 133 102 85 
58 9 123 33 17 6 97 136 140 40 5 
59 9 69 122 95 12 39 49 36 74 135 
60 9 55 51 73 9 119 46 26 80 141 
61 8 56 118 120 2 22 126 137 105 
62 9 42 76 47 9 70 48 43 26 66 
63 9 68 109 98 21 111 23 106 91 79 
64 9 82 100 108 71 146 94 77 48 26 
65 9 19 20 4 34 45 75 8 52 35 
66 9 70 43 52 47 62 4 34 42 13 
67 9 57 117 90 96 44 37 133 102 85 
68 9 63 21 23 109 79 35 98 111 20 
69 9 59 122 49 95 12 27 135 29 39 
70 9 66 43 47 52 62 42 34 4 76 
71 9 108 66 64 70 13 52 43 82 47 
72 9 38 14 7 6 25 50 115 145 24 
73 8 60 51 119 55 143 9 128 26 
74 9 39 12 49 24 59 69 25 50 27 
75 9 45 8 34 4 35 20 43 52 23 
76 9 42 62 9 47 48 26 70 55 94 
77 9 146 18 93 86 82 100 138 130 94 
78 9 79 53 21 35 23 8 45 75 62 
79 9 21 78 23 35 53 8 68 45 75 
80 9 54 83 53 87 139 135 111 46 51 
81 7 3 105 137 126 118 113 120 
82 9 100 64 146 77 94 48 18 93 26 
83 9 54 87 135 80 139 142 29 27 106 
84 9 5 97 124 107 140 144 136 41 89 
85 9 92 121 102 133 44 91 96 117 67 
86 7 138 93 15 125 18 103 130 
87 9 135 83 54 139 29 27 80 46 141 
88 5 128 145 141 46 115 
89 8 124 99 104 41 107 140 144 136 
90 9 37 67 96 57 117 102 44 32 36 
91 9 121 92 85 133 44 109 98 102 117 
92 9 121 85 91 133 44 102 98 96 117 
93 8 86 15 138 18 77 125 103 146 
94 9 48 26 82 146 119 77 76 42 18 
95 9 122 59 69 131 142 106 32 36 83 
96 9 90 102 67 32 37 117 57 85 44 
97 9 84 5 140 136 124 107 40 144 89 
98 9 109 63 92 121 85 91 106 111 131 
99 6 89 41 127 110 124 132 
100 9 82 64 146 77 93 94 112 18 86 
101 8 11 134 114 130 30 16 127 132 
102 9 96 32 85 90 92 67 44 117 121 
103 5 125 116 15 2 56 
104 5 129 145 89 40 136 
105 7 137 81 126 3 118 120 113 
106 9 142 131 111 83 95 98 122 54 80 
107 9 144 124 41 84 31 5 89 97 140 
108 9 71 64 66 82 70 100 13 43 52 
109 9 98 63 91 92 121 68 85 111 102 
110 7 132 143 127 114 30 11 16 
111 9 106 142 131 98 80 53 83 21 54 
112 9 28 10 93 15 22 77 100 86 2 
113 6 81 105 3 137 31 126 
114 9 134 127 101 11 132 30 16 130 110 
115 7 145 129 14 104 40 6 72 
116 3 103 125 56 
117 9 44 67 57 133 90 96 85 102 37 
118 7 126 137 120 105 81 3 56 
119 9 26 16 73 30 11 94 60 48 9 
120 6 118 126 137 105 56 81 
121 9 92 91 85 133 44 102 117 98 109 
122 9 95 59 69 142 131 83 135 106 87 
123 9 58 33 17 6 97 5 136 140 40 
124 9 107 144 41 89 84 97 140 5 136 
125 4 103 116 15 138 
126 7 137 118 105 81 3 120 113 
127 7 114 134 132 101 11 110 30 
128 5 88 141 46 51 145 
129 7 40 104 136 145 115 140 89 
130 7 101 18 11 138 134 16 114 
131 9 142 106 111 95 122 83 32 98 54 
132 9 110 114 127 11 30 134 143 16 101 
133 9 44 117 85 121 92 67 91 57 96 
134 6 114 127 101 11 130 132 
135 9 87 29 27 83 54 139 69 46 80 
136 9 40 140 129 97 104 89 84 124 5 
137 7 105 126 81 118 3 120 113 
138 7 86 125 18 15 103 93 130 
139 9 46 141 87 135 54 29 27 83 80 
140 9 136 97 40 84 124 5 129 89 104 
141 9 46 139 128 88 29 51 27 87 135 
142 9 131 106 111 95 83 122 54 87 80 
143 6 110 132 30 114 127 16 
144 9 107 41 124 31 84 89 5 97 99 
145 5 115 104 129 88 40 
146 9 77 18 82 93 100 86 94 138 130 
DEPOT_SECTION
   1
   -1
EOF
