NAME :  X-n120-kX-w11-c11.cctp
COMMENT : 	Adapted by Maziero, Usberti and Cavellucci from the Uchoa, Pecin, Pessoa, Poggi, Subramanian, and Vidal (2013)
TYPE :  CCTP
DIMENSION :    103
EDGE_WEIGHT_TYPE : 	EUC_2D	
CAPACITY : 	21
VERTICES_WITHIN_COVERAGE :  11
VERTICES_WITH_DEMAND : 	11
NODE_COORD_SECTION
1 0 0
2 927 318
3 319 475
4 471 281
5 894 615
6 712 832
7 677 210
8 336 967
9 490 360
10 367 685
11 153 169
12 799 63
13 247 455
14 492 585
15 131 701
16 309 721
17 210 256
18 511 753
19 447 796
20 394 856
21 131 13
22 181 425
23 892 585
24 161 651
25 964 365
26 706 842
27 793 53
28 364 841
29 51 277
30 682 45
31 778 300
32 928 438
33 95 240
34 391 368
35 586 170
36 645 731
37 381 396
38 387 491
39 388 753
40 429 276
41 547 989
42 840 945
43 88 969
44 331 421
45 55 132
46 904 771
47 63 190
48 731 528
49 320 84
50 891 182
51 836 473
52 209 741
53 864 533
54 852 600
55 180 150
56 544 140
57 956 881
58 432 487
59 129 968
60 597 962
61 827 605
62 776 619
63 354 297
64 552 106
65 148 944
66 396 492
67 425 338
68 178 511
69 168 274
70 775 603
71 481 465
72 281 777
73 216 211
74 784 740
75 127 992
76 544 117
77 92 170
78 846 755
79 614 326
80 720 252
81 171 186
82 868 613
83 291 119
84 427 974
85 481 557
86 403 645
87 915 919
88 581 85
89 527 743
90 953 893
91 955 912
92 269 924
93 216 84
94 601 952
95 441 439
96 170 949
97 614 92
98 439 212
99 413 509
100 545 336
101 166 86
102 658 870
103 178 170
DEMAND_SECTION
2 1
3 1
4 1
5 1
6 1
7 1
8 1
9 1
10 1
11 1
12 1
COVERAGE_SECTION
2 9 25 32 50 31 51 80 53 23 7 
3 11 44 38 13 66 37 99 58 95 34 68 22 
4 11 40 67 98 9 100 34 63 37 79 56 35 
5 9 82 23 54 61 53 62 70 78 51 
6 10 26 102 74 36 78 94 42 60 46 89 
7 11 80 35 79 97 31 56 88 76 64 30 100 
8 10 92 84 20 28 96 65 72 19 59 75 
9 11 100 67 4 95 34 40 71 37 79 58 63 
10 11 86 16 39 72 19 28 18 14 52 89 85 
11 11 81 103 55 77 73 101 33 47 17 45 69 
12 11 27 30 50 97 7 80 88 31 35 64 76 
13 7 22 3 68 44 38 37 66 
14 11 85 86 99 58 71 66 38 95 10 89 18 
15 6 24 52 72 16 68 10 
16 11 72 10 39 52 86 28 19 20 24 15 18 
17 7 73 69 81 103 11 55 33 
18 10 89 19 39 36 86 20 10 14 28 102 
19 10 39 18 20 28 89 10 16 86 72 84 
20 10 28 19 39 84 8 72 92 18 16 10 
21 11 101 93 45 55 11 77 103 81 47 83 49 
22 4 13 68 3 44 
23 9 5 82 54 53 61 70 62 51 32 
24 6 15 52 68 16 72 10 
25 9 2 32 51 53 31 50 23 5 54 
26 10 6 102 36 74 94 60 78 42 89 46 
27 11 12 30 50 97 7 80 88 35 31 64 76 
28 10 20 39 19 72 92 8 16 84 10 18 
29 7 33 47 77 69 45 11 81 
30 11 97 88 27 12 64 76 35 7 56 80 50 
31 9 80 7 2 50 79 51 25 32 35 
32 9 25 51 53 2 23 54 5 82 61 
33 8 29 47 77 69 11 81 103 45 
34 10 37 67 44 63 95 9 40 4 38 66 
35 11 56 76 64 97 88 7 98 80 30 79 4 
36 10 89 6 26 18 74 102 62 70 78 19 
37 11 34 44 67 95 38 66 3 63 58 9 99 
38 11 66 99 58 3 95 44 37 71 85 34 14 
39 10 10 19 16 28 20 86 72 18 89 52 
40 9 4 67 98 63 34 9 37 100 95 
41 10 60 94 84 102 20 8 19 26 6 28 
42 11 87 91 90 57 26 6 46 78 102 74 94 
43 9 59 75 65 96 92 8 52 15 72 
44 11 3 37 34 38 13 66 95 99 58 67 63 
45 11 77 47 11 33 101 55 81 103 21 29 93 
46 11 78 57 74 90 87 91 5 82 54 61 42 
47 9 77 33 45 29 11 81 103 55 69 
48 9 70 62 51 61 53 54 82 23 5 
49 9 83 93 101 55 73 103 98 81 11 
50 11 2 12 27 31 80 25 7 30 32 97 51 
51 9 53 32 48 23 54 61 70 82 5 
52 9 72 15 16 24 10 39 28 92 65 
53 9 23 51 54 82 61 5 70 32 62 
54 9 82 61 23 5 53 70 62 51 48 
55 11 103 11 81 101 73 93 77 17 83 33 47 
56 11 76 64 35 88 97 98 7 4 30 40 100 
57 11 90 91 87 46 42 78 74 6 26 5 82 
58 11 99 66 38 95 71 85 37 3 14 44 34 
59 9 75 65 43 96 92 8 52 72 15 
60 10 94 41 102 26 84 6 19 18 20 89 
61 9 54 82 70 62 5 23 53 48 51 
62 9 70 61 54 82 48 5 23 74 53 
63 9 40 34 67 37 4 98 44 9 17 
64 11 76 56 88 97 35 30 98 7 4 40 80 
65 10 96 59 75 43 92 8 52 72 28 15 
66 11 38 99 58 95 3 71 44 37 85 34 14 
67 10 34 40 9 4 37 63 95 100 44 98 
68 5 22 13 24 3 44 
69 6 17 73 33 81 103 11 
70 9 62 61 54 48 82 53 23 5 74 
71 11 95 58 99 66 85 38 9 14 37 34 67 
72 11 16 52 28 39 10 20 92 19 15 24 86 
73 8 17 81 103 55 11 69 83 33 
74 11 78 6 62 46 26 70 36 61 82 54 5 
75 9 59 43 65 96 92 8 52 72 28 
76 11 64 56 88 35 97 98 30 7 4 40 100 
77 11 47 45 11 33 81 103 55 101 29 69 73 
78 11 46 74 82 5 61 62 6 54 26 57 70 
79 11 100 9 80 7 4 35 31 67 40 71 56 
80 11 7 31 79 35 50 97 100 12 56 30 27 
81 11 103 11 55 73 17 77 69 33 101 47 93 
82 9 54 5 23 61 53 62 70 51 78 
83 9 49 93 55 73 103 101 81 11 17 
84 10 8 41 20 28 92 60 94 19 39 18 
85 11 14 99 58 71 66 38 86 95 10 3 37 
86 11 10 14 39 85 16 99 18 66 38 19 89 
87 11 91 90 57 42 46 78 6 74 26 102 5 
88 11 97 64 76 56 35 30 7 98 27 80 12 
89 10 18 19 36 39 86 14 10 20 102 28 
90 11 57 91 87 42 46 78 74 6 26 5 82 
91 11 90 57 87 42 46 78 74 6 26 102 5 
92 11 8 96 65 28 20 59 72 75 84 43 52 
93 10 101 55 83 103 49 11 21 81 73 77 
94 10 60 41 102 26 6 84 18 19 89 36 
95 11 71 58 66 37 38 99 34 9 67 44 85 
96 10 65 59 75 43 92 8 72 52 28 20 
97 11 88 64 76 30 35 56 7 27 12 80 98 
98 9 40 4 63 56 67 76 35 64 9 
99 11 66 58 38 95 71 85 3 14 37 44 86 
100 11 9 79 4 67 40 71 95 34 98 35 37 
101 11 93 55 21 11 103 81 77 45 83 73 47 
102 10 26 6 94 60 36 41 74 89 18 42 
103 11 81 55 11 73 101 77 17 93 69 33 47 
DEPOT_SECTION
   1
   -1
EOF
