NAME :  X-n153-kX-w15-c11.cctp
COMMENT : 	Adapted by Maziero, Usberti and Cavellucci from the Uchoa, Pecin, Pessoa, Poggi, Subramanian, and Vidal (2013)
TYPE :  CCTP
DIMENSION :    107
EDGE_WEIGHT_TYPE : 	EUC_2D	
CAPACITY : 	144
VERTICES_WITHIN_COVERAGE :  11
VERTICES_WITH_DEMAND : 	15
NODE_COORD_SECTION
1 500 500
2 238 446
3 749 750
4 960 879
5 955 866
6 202 336
7 720 788
8 695 743
9 739 603
10 217 419
11 922 870
12 703 733
13 843 856
14 233 682
15 259 459
16 226 305
17 732 722
18 747 858
19 904 891
20 880 795
21 984 926
22 246 438
23 742 771
24 110 698
25 193 441
26 215 388
27 663 731
28 754 821
29 280 456
30 236 424
31 287 454
32 598 728
33 996 821
34 744 473
35 887 907
36 286 422
37 272 484
38 939 892
39 631 723
40 769 768
41 977 840
42 639 736
43 727 765
44 950 896
45 206 433
46 754 691
47 662 768
48 348 308
49 254 455
50 764 726
51 713 758
52 965 934
53 693 734
54 890 801
55 727 808
56 664 770
57 558 530
58 714 742
59 200 416
60 294 391
61 240 449
62 735 633
63 157 421
64 768 750
65 813 936
66 986 914
67 963 798
68 175 397
69 972 940
70 859 770
71 661 762
72 298 469
73 275 561
74 856 919
75 219 453
76 272 465
77 294 296
78 754 775
79 229 467
80 711 803
81 858 879
82 665 347
83 981 802
84 267 545
85 760 764
86 942 894
87 219 465
88 665 756
89 92 212
90 937 814
91 281 489
92 669 647
93 308 309
94 998 876
95 900 910
96 753 900
97 209 467
98 766 729
99 224 368
100 707 703
101 280 450
102 252 462
103 717 683
104 458 236
105 278 356
106 991 818
107 831 812
DEMAND_SECTION
2 92
3 90
4 65
5 80
6 69
7 64
8 73
9 96
10 74
11 81
12 67
13 58
14 79
15 85
16 57
COVERAGE_SECTION
2 11 61 22 49 75 102 30 79 15 87 10 45 
3 11 85 64 23 78 40 43 98 50 17 58 51 
4 11 5 44 86 38 94 11 41 66 21 52 19 
5 11 4 44 38 86 11 41 94 90 19 66 106 
6 11 16 99 26 68 105 59 10 30 63 45 77 
7 11 80 55 43 23 51 78 58 28 85 3 8 
8 11 53 12 58 51 88 27 43 71 47 56 100 
9 6 62 92 103 46 100 17 
10 11 59 45 30 26 25 2 75 22 61 87 68 
11 11 19 38 86 5 44 4 95 35 90 41 81 
12 11 53 8 58 51 100 17 27 43 88 3 71 
13 11 81 107 74 35 19 20 54 95 11 65 70 
14 3 24 73 84 
15 11 49 102 76 29 61 101 2 22 31 37 79 
16 11 6 99 77 105 93 26 68 60 10 59 30 
17 11 58 12 100 50 3 98 46 51 53 103 8 
18 11 28 96 55 80 7 78 23 40 43 85 13 
19 10 95 35 11 38 86 44 81 74 4 5 
20 7 54 70 107 90 13 67 11 
21 8 66 69 52 44 94 4 86 38 
22 11 2 61 30 49 15 102 75 79 10 101 76 
23 11 78 43 85 3 40 7 51 64 55 58 80 
24 2 14 73 
25 10 45 59 75 97 10 87 63 79 2 30 
26 11 99 10 59 68 30 45 6 25 22 2 75 
27 11 42 88 53 71 39 8 47 56 12 58 100 
28 11 55 18 78 7 80 23 40 85 43 3 64 
29 11 101 31 76 15 72 49 37 102 91 36 22 
30 11 22 10 2 61 45 75 49 59 102 15 26 
31 11 29 101 72 76 15 36 49 37 91 102 22 
32 9 39 42 27 71 88 47 56 53 8 
33 8 106 83 41 67 94 90 5 4 
34 5 9 82 62 92 57 
35 8 95 19 74 81 11 38 86 44 
36 11 101 31 60 29 22 76 15 49 72 30 102 
37 11 91 76 15 29 72 102 31 49 101 79 61 
38 10 86 44 4 11 5 19 95 52 66 35 
39 10 42 27 32 88 71 47 56 53 8 12 
40 10 85 78 64 3 23 98 43 50 7 28 
41 10 106 33 5 83 94 4 67 90 44 11 
42 11 39 27 88 71 47 32 56 53 8 12 58 
43 11 23 51 7 58 3 78 85 8 12 80 40 
44 11 86 38 4 5 11 66 52 21 19 69 94 
45 11 25 10 59 75 30 97 2 87 61 22 79 
46 8 50 17 103 98 100 3 62 64 
47 11 56 71 88 27 42 8 53 51 12 39 58 
48 9 93 77 105 60 16 36 104 99 6 
49 11 15 102 61 2 22 76 29 101 79 31 37 
50 8 98 64 3 17 46 85 40 23 
51 11 43 58 8 12 7 53 23 3 17 78 80 
52 7 69 21 66 44 86 38 4 
53 11 8 12 58 27 51 100 88 17 71 43 47 
54 7 20 70 90 107 13 67 11 
55 11 80 7 28 23 43 78 51 18 85 40 3 
56 11 47 71 88 27 8 42 53 51 12 39 58 
57 7 92 9 34 32 62 39 82 
58 11 12 51 8 53 43 17 3 23 100 7 85 
59 11 10 45 25 68 26 30 75 63 2 22 61 
60 10 36 105 101 31 29 22 30 99 49 15 
61 11 2 22 49 102 15 75 79 30 87 76 97 
62 6 9 103 46 92 100 17 
63 8 68 25 59 45 10 26 97 75 
64 10 85 40 3 98 50 78 23 43 17 58 
65 8 74 96 81 35 13 95 18 19 
66 9 21 52 69 44 94 4 86 38 5 
67 7 83 90 106 33 41 5 54 
68 10 63 59 26 10 25 45 99 6 30 75 
69 7 52 21 66 44 86 38 4 
70 5 20 54 107 13 40 
71 11 47 88 56 27 42 8 53 39 12 51 58 
72 9 31 29 76 91 101 37 15 49 102 
73 7 84 91 37 72 76 102 15 
74 8 35 81 95 65 19 13 11 38 
75 11 87 79 97 2 61 45 25 22 10 30 102 
76 11 29 15 101 31 37 102 49 72 91 61 22 
77 10 93 48 105 16 60 6 99 26 36 30 
78 11 23 85 40 3 43 64 7 55 51 28 98 
79 10 87 75 97 61 2 102 49 15 22 45 
80 11 7 55 43 23 51 28 78 56 47 58 8 
81 11 13 35 74 19 95 11 107 65 38 54 86 
82 7 34 57 104 9 62 92 48 
83 8 67 106 33 41 90 5 94 4 
84 7 73 91 37 76 72 102 15 
85 11 40 78 64 3 23 43 98 50 7 51 17 
86 10 38 44 4 5 11 19 95 52 66 21 
87 10 79 97 75 61 2 102 25 45 49 22 
88 11 71 47 56 27 8 42 53 12 39 51 58 
89 10 16 6 68 99 26 63 77 59 105 93 
90 8 67 83 41 54 106 5 11 33 
91 10 37 72 76 29 31 15 101 102 49 79 
92 9 103 62 100 9 27 39 53 12 42 
93 10 77 48 105 16 60 99 6 36 26 30 
94 11 4 66 41 5 21 44 33 106 86 38 52 
95 8 35 19 38 74 86 11 44 81 
96 11 18 65 28 55 13 74 80 81 7 107 78 
97 8 87 75 79 25 45 2 61 102 
98 9 50 64 3 17 85 40 46 23 78 
99 11 26 6 10 59 105 30 68 16 45 22 60 
100 10 103 12 17 53 58 8 46 27 51 50 
101 11 29 31 76 15 49 72 36 102 37 22 91 
102 11 49 15 61 76 2 79 22 29 37 101 87 
103 10 100 46 17 12 62 53 58 92 8 50 
104 8 48 93 77 105 60 82 16 36 
105 11 60 99 93 77 36 26 16 6 30 48 10 
106 8 33 83 41 67 90 94 5 4 
107 9 13 70 20 54 81 40 28 78 85 
DEPOT_SECTION
   1
   -1
EOF
