NAME :  X-n157-kX-w62-c7.cctp
COMMENT : 	Adapted by Maziero, Usberti and Cavellucci from the Uchoa, Pecin, Pessoa, Poggi, Subramanian, and Vidal (2013)
TYPE :  CCTP
DIMENSION :    155
EDGE_WEIGHT_TYPE : 	EUC_2D	
CAPACITY : 	12
VERTICES_WITHIN_COVERAGE :  7
VERTICES_WITH_DEMAND : 	62
NODE_COORD_SECTION
1 769 259
2 91 377
3 108 338
4 816 567
5 725 520
6 117 357
7 766 559
8 90 417
9 255 430
10 63 384
11 35 276
12 122 318
13 85 322
14 267 348
15 937 546
16 865 461
17 863 547
18 724 431
19 148 144
20 243 571
21 871 512
22 782 596
23 77 272
24 776 650
25 166 371
26 69 239
27 972 607
28 320 521
29 91 434
30 20 305
31 81 271
32 776 669
33 830 553
34 148 243
35 160 202
36 741 527
37 877 561
38 587 551
39 808 435
40 26 278
41 58 394
42 755 444
43 817 557
44 165 367
45 216 510
46 124 330
47 96 587
48 132 369
49 163 234
50 915 492
51 753 657
52 161 319
53 37 227
54 898 747
55 770 524
56 745 582
57 695 469
58 124 355
59 11 283
60 258 406
61 72 335
62 713 399
63 866 626
64 214 344
65 213 349
66 864 577
67 98 440
68 701 512
69 884 559
70 842 518
71 125 379
72 352 410
73 206 228
74 825 592
75 93 252
76 863 511
77 98 347
78 115 326
79 71 392
80 96 248
81 65 404
82 75 342
83 140 300
84 129 340
85 129 273
86 846 696
87 109 463
88 863 586
89 139 356
90 77 351
91 154 322
92 231 323
93 115 394
94 844 558
95 98 454
96 739 568
97 179 443
98 862 618
99 764 764
100 844 554
101 174 319
102 703 319
103 863 569
104 72 473
105 632 575
106 823 578
107 26 42
108 47 381
109 71 336
110 754 484
111 80 355
112 172 296
113 28 310
114 754 579
115 531 662
116 87 382
117 866 481
118 93 337
119 942 567
120 788 567
121 824 451
122 926 901
123 182 500
124 98 384
125 104 370
126 48 462
127 952 629
128 239 324
129 138 516
130 747 605
131 136 460
132 748 624
133 43 268
134 792 597
135 95 352
136 109 413
137 67 224
138 104 386
139 817 672
140 183 360
141 922 652
142 779 419
143 863 721
144 40 456
145 66 395
146 862 465
147 383 357
148 307 434
149 233 421
150 329 280
151 623 554
152 103 349
153 736 688
154 75 266
155 174 406
DEMAND_SECTION
2 1
3 1
4 1
5 1
6 1
7 1
8 1
9 1
10 1
11 1
12 1
13 1
14 1
15 1
16 1
17 1
18 1
19 1
20 1
21 1
22 1
23 1
24 1
25 1
26 1
27 1
28 1
29 1
30 1
31 1
32 1
33 1
34 1
35 1
36 1
37 1
38 1
39 1
40 1
41 1
42 1
43 1
44 1
45 1
46 1
47 1
48 1
49 1
50 1
51 1
52 1
53 1
54 1
55 1
56 1
57 1
58 1
59 1
60 1
61 1
62 1
63 1
COVERAGE_SECTION
2 7 116 124 125 138 79 111 135 
3 7 152 77 78 118 46 135 6 
4 7 43 106 33 74 120 94 100 
5 7 36 68 55 110 96 7 57 
6 7 58 152 125 48 3 77 84 
7 7 114 120 96 56 55 22 36 
8 7 29 136 67 81 79 145 93 
9 7 60 149 148 97 14 155 45 
10 7 41 79 145 108 81 116 2 
11 7 40 133 59 30 113 154 23 
12 7 78 46 84 3 83 91 118 
13 7 118 61 109 82 3 77 78 
14 7 128 92 64 65 60 149 9 
15 7 119 69 50 37 27 17 21 
16 7 146 117 121 76 21 50 70 
17 7 37 100 94 103 69 66 33 
18 7 42 62 57 142 110 39 68 
19 7 35 49 34 73 137 80 75 
20 7 45 28 123 129 9 97 47 
21 7 76 70 117 17 50 146 37 
22 7 134 120 114 130 7 56 74 
23 7 31 154 75 80 26 133 11 
24 7 32 51 132 139 22 130 134 
25 7 44 140 89 48 155 71 58 
26 7 137 75 80 154 23 31 53 
27 7 127 119 141 15 69 37 63 
28 7 148 20 45 9 72 60 149 
29 7 67 8 95 136 87 81 104 
30 7 113 59 40 11 133 61 109 
31 7 23 154 75 80 26 133 11 
32 7 24 51 139 153 132 130 22 
33 7 43 100 94 4 106 17 70 
34 7 49 85 35 80 75 83 112 
35 7 49 34 73 19 85 80 75 
36 7 5 55 7 96 68 110 114 
37 7 69 103 17 66 88 94 100 
38 7 151 105 68 115 57 5 96 
39 7 121 142 42 146 16 110 117 
40 7 11 59 133 30 113 154 23 
41 7 145 10 81 79 108 116 2 
42 7 18 142 110 39 62 57 121 
43 7 4 33 106 94 100 120 74 
44 7 25 140 89 48 155 71 58 
45 5 123 20 97 129 9 
46 7 78 84 12 3 58 6 152 
47 6 129 104 123 87 95 131 
48 7 71 89 58 6 125 84 93 
49 7 34 35 73 85 112 80 83 
50 7 21 117 76 15 16 146 69 
51 7 24 32 132 153 130 139 22 
52 7 91 101 112 83 84 12 46 
53 7 137 26 133 11 40 154 23 
54 7 143 86 141 139 63 127 98 
55 7 36 7 110 5 120 96 43 
56 7 114 96 130 7 22 132 120 
57 7 68 18 5 110 42 62 36 
58 7 6 89 48 84 152 3 71 
59 7 40 30 11 113 133 53 154 
60 7 9 149 148 14 65 64 128 
61 7 109 82 90 13 118 111 77 
62 7 18 42 142 57 102 110 39 
63 7 98 88 66 74 103 141 106 
64 7 65 92 128 140 101 14 44 
65 7 64 92 140 128 101 44 25 
66 7 103 88 37 69 94 17 100 
67 7 29 95 8 87 136 104 131 
68 7 5 36 57 110 96 55 7 
69 7 37 103 17 66 88 94 100 
70 7 76 21 17 100 33 94 117 
71 7 48 93 138 6 125 58 89 
72 7 148 147 60 9 14 28 149 
73 7 49 35 34 112 85 101 83 
74 7 106 4 134 43 88 33 94 
75 7 80 31 154 23 26 137 85 
76 7 21 70 117 17 146 100 16 
77 7 152 135 118 3 111 6 90 
78 7 46 12 3 84 118 152 77 
79 7 145 10 41 81 116 2 108 
80 7 75 31 26 154 23 137 85 
81 7 145 41 79 10 8 108 116 
82 7 109 61 90 111 118 13 135 
83 7 12 91 52 85 112 46 78 
84 7 46 58 89 78 3 6 12 
85 7 83 34 80 75 12 31 112 
86 7 143 139 54 63 32 98 24 
87 5 95 67 131 29 104 
88 7 66 103 37 98 69 94 100 
89 7 48 58 84 6 71 44 46 
90 7 111 82 109 61 135 77 118 
91 7 52 101 83 46 84 12 112 
92 7 128 64 65 14 101 140 112 
93 7 138 71 124 136 125 2 48 
94 7 100 33 17 103 43 66 4 
95 6 67 87 29 104 8 131 
96 7 56 114 7 130 36 120 5 
97 5 155 131 123 149 25 
98 7 63 88 66 74 103 106 37 
99 7 153 32 139 86 51 143 24 
100 7 94 33 17 103 43 66 4 
101 7 52 91 112 83 140 64 44 
102 7 62 18 142 42 57 39 110 
103 7 66 37 88 17 94 69 100 
104 7 126 95 144 87 67 29 8 
105 7 151 38 68 96 5 56 36 
106 7 4 74 43 33 94 100 134 
107 7 19 53 137 26 35 80 75 
108 7 10 41 145 79 81 116 90 
109 7 61 82 90 13 111 118 77 
110 7 42 55 36 5 68 18 57 
111 7 90 82 135 77 109 61 118 
112 7 101 52 83 91 85 12 34 
113 7 30 40 59 11 133 109 61 
114 7 56 96 7 130 22 120 134 
115 7 38 105 151 153 132 51 130 
116 7 2 124 138 79 125 10 145 
117 7 146 16 76 21 70 50 121 
118 7 77 3 135 152 13 82 61 
119 7 15 27 69 127 37 66 103 
120 7 7 4 22 134 43 114 106 
121 7 39 146 16 117 142 42 70 
122 7 54 143 99 86 141 139 127 
123 5 45 129 97 131 87 
124 7 138 2 116 125 93 71 79 
125 7 2 124 138 6 135 116 152 
126 7 144 104 29 95 67 81 87 
127 7 27 141 119 15 63 98 69 
128 7 92 64 65 14 101 140 112 
129 5 123 131 87 95 45 
130 7 132 56 114 22 96 134 7 
131 5 87 95 67 97 29 
132 7 130 51 24 56 22 114 134 
133 7 11 40 154 23 59 31 26 
134 7 22 120 74 106 4 114 7 
135 7 77 152 111 118 90 3 125 
136 7 8 93 138 29 67 124 71 
137 7 26 53 75 80 154 23 31 
138 7 124 93 2 125 116 71 136 
139 7 86 32 24 51 63 143 98 
140 7 44 25 65 64 101 89 52 
141 7 127 63 27 98 119 86 88 
142 7 39 42 121 18 62 110 146 
143 7 86 54 139 141 63 32 98 
144 7 126 104 29 81 95 67 8 
145 7 79 41 81 10 108 116 2 
146 7 16 117 121 76 21 70 50 
147 7 72 150 148 14 60 9 128 
148 7 72 9 60 149 28 14 147 
149 7 9 60 97 155 65 148 64 
150 7 14 147 128 92 64 72 73 
151 7 105 38 68 5 57 96 36 
152 7 77 135 3 6 118 125 58 
153 7 51 32 24 132 99 139 130 
154 7 23 31 75 26 80 133 11 
155 6 25 97 44 140 48 71 
DEPOT_SECTION
   1
   -1
EOF
