NAME :  X-n190-kX-w37-c7.cctp
COMMENT : 	Adapted by Maziero, Usberti and Cavellucci from the Uchoa, Pecin, Pessoa, Poggi, Subramanian, and Vidal (2013)
TYPE :  CCTP
DIMENSION :    161
EDGE_WEIGHT_TYPE : 	EUC_2D	
CAPACITY : 	138
VERTICES_WITHIN_COVERAGE :  7
VERTICES_WITH_DEMAND : 	37
NODE_COORD_SECTION
1 0 0
2 425 323
3 806 514
4 853 637
5 564 311
6 871 502
7 803 526
8 822 680
9 827 577
10 834 646
11 636 403
12 699 724
13 830 479
14 486 257
15 411 384
16 881 642
17 424 422
18 807 718
19 949 612
20 362 135
21 836 662
22 791 570
23 822 508
24 794 622
25 823 464
26 803 367
27 390 502
28 868 651
29 732 456
30 356 253
31 794 481
32 356 312
33 994 676
34 817 658
35 591 333
36 776 532
37 811 509
38 298 246
39 813 517
40 793 488
41 944 655
42 847 594
43 696 429
44 454 303
45 369 330
46 874 502
47 860 564
48 381 508
49 773 575
50 901 482
51 852 672
52 805 608
53 828 575
54 434 177
55 715 450
56 827 622
57 757 746
58 977 648
59 826 595
60 439 212
61 514 184
62 836 661
63 503 227
64 499 447
65 792 564
66 791 599
67 932 582
68 904 484
69 453 362
70 636 374
71 781 639
72 911 613
73 834 510
74 786 449
75 772 732
76 776 461
77 749 533
78 825 882
79 401 275
80 965 597
81 760 479
82 841 501
83 443 318
84 771 511
85 854 615
86 821 631
87 773 573
88 646 327
89 842 630
90 806 436
91 960 576
92 350 337
93 828 580
94 876 502
95 532 332
96 770 509
97 251 3
98 264 445
99 817 655
100 777 522
101 525 263
102 793 632
103 713 403
104 810 633
105 837 649
106 766 750
107 411 544
108 315 293
109 362 490
110 484 275
111 736 784
112 911 461
113 882 671
114 845 506
115 453 298
116 581 300
117 828 569
118 296 298
119 766 642
120 461 360
121 771 657
122 883 400
123 853 527
124 748 466
125 447 363
126 884 716
127 953 573
128 818 424
129 761 559
130 754 551
131 802 462
132 411 333
133 797 466
134 981 614
135 843 695
136 796 701
137 459 378
138 781 616
139 726 474
140 407 302
141 782 644
142 832 667
143 575 296
144 788 619
145 430 313
146 490 287
147 419 448
148 499 256
149 427 245
150 701 703
151 859 496
152 790 585
153 811 591
154 991 637
155 405 298
156 861 389
157 394 306
158 942 611
159 876 663
160 399 126
161 850 696
DEMAND_SECTION
2 3
3 7
4 2
5 4
6 3
7 2
8 4
9 1
10 6
11 6
12 9
13 2
14 4
15 1
16 8
17 4
18 2
19 5
20 4
21 9
22 10
23 8
24 1
25 8
26 5
27 7
28 10
29 3
30 3
31 9
32 1
33 3
34 9
35 6
36 5
37 7
38 8
COVERAGE_SECTION
2 7 145 132 83 140 155 44 157 
3 7 37 39 7 23 73 40 100 
4 7 89 105 10 28 85 16 62 
5 7 143 116 35 95 101 146 88 
6 7 46 94 151 114 82 123 50 
7 7 3 39 37 23 100 36 73 
8 7 142 21 34 62 99 135 51 
9 7 53 93 117 59 153 42 47 
10 7 105 62 21 89 99 86 4 
11 7 70 43 88 103 35 55 29 
12 6 150 57 111 106 75 121 
13 7 25 82 23 73 114 131 151 
14 7 148 110 146 63 101 115 44 
15 6 17 125 69 137 132 120 
16 7 28 159 4 113 85 89 51 
17 6 147 15 137 125 69 120 
18 7 136 75 8 135 161 106 57 
19 7 158 80 134 67 72 91 127 
20 7 160 54 60 30 38 149 79 
21 7 62 142 105 10 34 51 99 
22 7 65 152 87 49 66 153 129 
23 7 37 73 39 3 82 114 7 
24 7 144 102 138 52 104 71 66 
25 7 13 131 133 90 31 40 74 
26 6 128 156 90 74 122 131 
27 7 48 109 107 147 17 15 64 
28 7 159 16 4 113 51 105 89 
29 6 55 124 139 81 76 43 
30 7 79 108 38 32 157 155 140 
31 7 40 133 131 76 37 74 25 
32 7 45 92 157 108 155 140 79 
33 7 58 154 41 134 19 158 80 
34 7 99 142 21 62 10 105 8 
35 7 116 5 143 88 95 70 11 
36 7 100 84 96 77 7 130 129 
37 7 3 39 23 7 73 40 82 
38 7 108 118 30 32 92 79 45 
39 7 3 37 7 23 73 82 114 
40 7 31 133 37 131 3 96 76 
41 7 58 19 158 154 72 33 134 
42 7 59 85 93 9 53 117 47 
43 6 55 103 29 139 124 11 
44 7 115 83 145 2 146 110 140 
45 7 92 32 157 132 140 155 2 
46 7 94 6 151 114 82 123 50 
47 4 117 42 53 9 
48 7 27 109 107 147 17 15 64 
49 5 87 22 129 152 65 
50 5 68 112 94 46 6 
51 7 21 62 142 161 135 28 159 
52 7 66 24 153 144 59 104 138 
53 7 9 93 117 59 153 42 47 
54 7 60 160 149 61 20 63 14 
55 6 29 139 43 124 103 81 
56 7 86 89 104 10 52 59 85 
57 7 106 75 111 18 136 12 150 
58 7 154 33 41 134 19 158 80 
59 7 93 153 9 53 42 52 117 
60 7 54 149 14 63 79 148 110 
61 7 63 148 14 54 60 101 110 
62 7 21 142 105 10 34 51 99 
63 7 148 14 101 61 110 146 60 
64 4 17 137 147 120 
65 7 22 87 152 49 129 153 66 
66 7 152 52 138 144 153 24 22 
67 6 127 91 158 19 80 72 
68 5 50 112 94 46 6 
69 6 125 120 137 83 15 2 
70 7 11 88 35 43 103 116 5 
71 7 141 102 119 24 121 144 138 
72 4 158 67 19 16 
73 7 82 23 114 39 37 123 3 
74 6 76 133 131 90 31 25 
75 7 106 57 18 136 111 8 12 
76 6 74 133 81 131 31 124 
77 4 130 36 129 100 
78 7 111 106 57 75 18 126 136 
79 7 155 140 157 149 145 30 2 
80 7 19 91 134 127 158 67 154 
81 5 124 76 96 31 40 
82 7 114 73 151 23 13 123 6 
83 7 145 2 44 115 132 140 155 
84 6 96 100 36 77 40 81 
85 7 89 4 42 56 59 10 86 
86 7 56 104 10 89 99 105 34 
87 5 49 22 129 65 152 
88 7 70 35 116 11 143 5 103 
89 7 4 56 10 85 105 86 62 
90 6 128 74 131 133 25 76 
91 6 127 80 67 19 158 134 
92 7 45 32 157 108 132 118 140 
93 7 9 53 117 59 153 42 47 
94 7 46 6 151 114 50 68 123 
95 6 5 143 35 116 146 101 
96 6 84 100 36 40 77 81 
97 7 20 160 38 54 30 60 108 
98 7 109 48 27 92 118 147 45 
99 7 34 10 142 21 62 105 104 
100 7 36 84 96 7 3 77 37 
101 7 148 14 63 146 110 143 5 
102 7 24 71 144 141 104 138 52 
103 6 43 55 29 124 139 11 
104 7 86 102 24 56 99 52 34 
105 7 10 62 21 142 4 89 99 
106 7 57 75 111 18 136 12 150 
107 7 27 48 109 147 17 64 15 
108 7 118 32 38 92 30 45 157 
109 7 48 27 147 107 17 98 15 
110 7 146 14 148 115 44 101 63 
111 7 57 106 75 12 150 18 136 
112 5 50 68 94 46 6 
113 7 159 28 16 51 161 4 126 
114 7 82 73 151 123 23 6 46 
115 7 44 83 145 2 110 146 140 
116 7 143 5 35 95 101 88 70 
117 7 53 9 93 59 153 42 47 
118 7 108 38 32 92 30 45 157 
119 7 71 121 141 102 138 144 24 
120 5 69 125 137 83 2 
121 7 119 141 71 102 24 138 144 
122 6 156 112 128 50 90 26 
123 6 114 73 82 6 151 46 
124 5 81 29 139 76 55 
125 6 69 120 137 15 83 2 
126 7 161 113 135 51 159 28 142 
127 6 91 67 80 19 158 134 
128 6 90 25 74 131 133 156 
129 6 130 87 49 77 36 65 
130 4 129 77 36 87 
131 7 133 25 31 74 76 90 40 
132 7 2 145 140 157 83 155 45 
133 6 131 31 74 40 76 25 
134 7 80 154 19 58 158 91 127 
135 7 161 51 8 142 21 62 18 
136 7 18 8 75 135 34 142 99 
137 5 69 120 125 15 17 
138 7 144 24 66 102 71 52 141 
139 5 29 124 55 81 76 
140 7 155 157 145 2 79 132 83 
141 7 71 102 119 121 24 144 138 
142 7 21 62 8 34 99 105 10 
143 7 116 5 35 95 101 88 146 
144 7 24 138 102 52 66 71 104 
145 7 2 83 140 44 115 132 155 
146 7 110 14 148 44 115 101 83 
147 7 17 27 15 48 109 64 137 
148 7 14 110 101 63 146 115 44 
149 7 60 79 155 115 14 140 44 
150 5 12 57 75 106 121 
151 7 6 46 114 94 82 73 123 
152 7 66 22 49 65 87 153 52 
153 7 59 52 93 9 66 152 53 
154 7 58 134 33 80 19 41 158 
155 7 140 157 79 145 2 132 83 
156 6 122 128 26 90 25 112 
157 7 140 155 79 132 2 45 145 
158 7 19 80 67 72 91 134 127 
159 7 113 28 16 51 4 21 62 
160 7 20 54 60 149 61 30 63 
161 7 135 51 8 142 21 62 126 
DEPOT_SECTION
   1
   -1
EOF
