NAME :  X-n110-kX-w21-c11.cctp
COMMENT : 	Adapted by Maziero, Usberti and Cavellucci from the Uchoa, Pecin, Pessoa, Poggi, Subramanian, and Vidal (2013)
TYPE :  CCTP
DIMENSION :    104
EDGE_WEIGHT_TYPE : 	EUC_2D	
CAPACITY : 	66
VERTICES_WITHIN_COVERAGE :  11
VERTICES_WITH_DEMAND : 	21
NODE_COORD_SECTION
1 500 500
2 740 442
3 261 710
4 578 522
5 482 914
6 628 644
7 551 651
8 828 54
9 541 270
10 450 1000
11 521 127
12 738 809
13 323 289
14 803 214
15 556 488
16 758 937
17 875 326
18 113 509
19 491 726
20 415 355
21 946 632
22 136 120
23 117 971
24 817 246
25 491 845
26 454 801
27 676 995
28 145 557
29 166 494
30 977 318
31 363 711
32 164 501
33 833 501
34 444 958
35 828 672
36 714 57
37 51 676
38 922 16
39 673 571
40 211 471
41 590 220
42 305 311
43 953 745
44 154 753
45 918 227
46 819 671
47 675 667
48 617 176
49 706 179
50 512 443
51 302 453
52 753 786
53 331 450
54 765 990
55 249 360
56 292 887
57 371 804
58 786 186
59 382 284
60 44 552
61 523 264
62 397 120
63 98 623
64 946 978
65 815 696
66 314 361
67 447 695
68 878 243
69 341 648
70 363 0
71 675 83
72 998 520
73 98 111
74 628 746
75 940 409
76 786 488
77 323 674
78 986 151
79 790 150
80 533 816
81 750 789
82 589 125
83 640 911
84 99 216
85 754 659
86 828 357
87 597 587
88 929 655
89 159 781
90 955 6
91 63 435
92 130 302
93 954 687
94 866 879
95 131 686
96 519 220
97 454 928
98 415 916
99 468 833
100 806 568
101 907 703
102 821 135
103 622 561
104 482 689
DEMAND_SECTION
2 8
3 10
4 8
5 5
6 10
7 5
8 9
9 10
10 6
11 5
12 10
13 5
14 9
15 10
16 7
17 9
18 7
19 8
20 5
21 8
22 10
COVERAGE_SECTION
2 11 76 33 86 100 39 103 17 4 15 75 87 
3 11 77 69 31 44 89 95 57 56 63 67 28 
4 11 15 103 87 50 39 6 7 47 2 104 76 
5 11 97 34 98 25 99 10 80 26 57 83 19 
6 11 47 87 7 103 39 74 85 4 104 19 15 
7 11 6 87 104 19 67 103 74 47 4 39 15 
8 11 102 38 79 36 90 58 71 14 49 78 24 
9 11 61 96 41 48 11 20 82 59 50 49 62 
10 10 34 97 98 5 25 99 56 26 80 83 
11 11 82 96 48 41 62 61 9 71 49 70 36 
12 11 81 52 74 16 65 83 94 85 47 46 35 
13 11 42 59 66 55 20 53 51 62 92 61 96 
14 11 58 24 79 68 102 49 45 17 86 8 36 
15 11 4 50 103 87 39 7 6 2 20 104 47 
16 11 54 27 83 94 12 81 52 64 74 65 80 
17 11 86 68 24 30 75 45 14 58 2 33 76 
18 11 32 29 28 60 91 40 63 37 95 51 55 
19 11 104 67 26 7 80 99 25 31 74 57 6 
20 11 59 66 13 42 53 50 61 51 9 55 96 
21 11 88 93 101 43 72 35 46 65 100 33 85 
22 11 73 84 92 13 42 70 62 55 59 66 91 
23 5 56 89 44 95 3 
24 11 14 68 58 17 79 45 102 86 49 30 8 
25 11 99 80 26 5 97 98 19 34 57 67 104 
26 11 99 25 80 57 19 67 104 5 98 97 31 
27 11 54 83 16 12 5 81 52 94 10 80 97 
28 11 18 32 29 63 60 40 95 91 37 51 3 
29 11 32 40 18 28 91 60 51 63 55 53 92 
30 11 75 17 45 68 86 78 24 14 72 58 33 
31 11 77 69 67 57 3 104 26 19 99 25 56 
32 11 29 18 40 28 91 60 63 51 55 53 95 
33 11 76 100 2 75 86 72 35 46 21 39 85 
34 10 97 10 98 5 25 99 26 56 80 57 
35 11 46 65 85 101 88 100 21 93 52 81 43 
36 11 71 8 79 49 102 82 58 48 14 11 41 
37 9 63 95 60 44 89 28 18 32 3 
38 11 90 8 78 102 79 45 36 58 14 68 24 
39 11 103 87 6 47 4 85 100 76 15 2 7 
40 11 29 32 51 18 28 55 53 66 91 42 60 
41 11 48 9 96 61 82 11 49 71 58 36 79 
42 11 13 66 55 59 20 53 51 92 40 62 61 
43 11 93 101 88 21 35 65 46 94 52 81 85 
44 6 89 95 3 37 63 77 
45 11 68 78 24 17 30 14 102 58 79 86 75 
46 11 35 65 85 101 100 88 21 52 93 81 47 
47 11 6 85 74 39 87 103 7 52 65 81 46 
48 11 41 82 49 96 11 71 9 61 36 58 79 
49 11 58 48 79 71 14 36 41 102 82 24 8 
50 11 15 4 20 103 87 9 61 53 59 39 51 
51 11 53 40 66 55 29 42 32 20 13 59 28 
52 11 81 12 65 85 74 46 35 47 94 16 83 
53 11 51 66 40 55 20 42 13 29 59 32 50 
54 11 16 27 83 94 64 12 81 52 74 80 5 
55 11 66 42 13 51 40 53 92 59 29 32 20 
56 8 57 98 97 34 89 3 26 99 
57 10 26 31 99 56 98 25 67 77 19 3 
58 11 14 79 102 24 49 68 45 8 36 71 17 
59 11 13 20 42 66 61 96 55 9 62 53 51 
60 10 18 63 28 91 37 32 29 95 40 44 
61 11 9 96 41 48 11 20 59 82 50 62 13 
62 11 11 70 96 59 13 61 82 9 42 41 48 
63 10 37 95 28 60 18 32 44 29 89 3 
64 11 94 54 16 43 12 27 52 81 101 93 65 
65 11 46 35 85 101 52 81 88 100 12 93 47 
66 11 42 55 13 53 51 20 59 40 92 29 32 
67 11 104 19 31 26 7 69 77 57 99 80 25 
68 11 45 24 14 17 58 102 30 86 79 78 75 
69 11 77 31 3 67 104 57 19 26 53 51 7 
70 11 62 11 22 82 96 59 73 13 48 61 41 
71 11 36 82 49 48 79 58 102 8 11 41 14 
72 11 21 75 88 33 93 100 30 101 76 35 43 
73 11 22 84 92 13 70 42 55 62 91 66 59 
74 11 47 6 80 7 12 81 52 19 85 104 87 
75 11 30 17 86 72 33 76 68 45 2 24 100 
76 11 33 2 100 86 39 75 85 103 17 46 35 
77 11 69 31 3 67 57 104 19 26 44 95 89 
78 11 45 68 90 38 102 30 8 14 24 79 58 
79 11 102 58 14 49 24 8 36 68 71 45 48 
80 11 25 99 26 19 5 74 97 104 83 67 98 
81 11 52 12 65 74 85 46 35 47 94 16 83 
82 11 48 11 41 71 96 49 36 9 61 62 79 
83 11 27 16 12 80 54 5 25 81 74 52 97 
84 11 92 22 73 55 91 42 13 66 40 29 59 
85 11 46 65 35 47 100 39 6 52 81 12 74 
86 11 17 24 2 75 68 76 33 14 30 45 58 
87 11 103 6 4 39 7 15 47 104 74 50 85 
88 11 21 93 101 43 35 46 65 100 72 85 33 
89 5 44 95 3 37 63 
90 11 38 8 78 102 79 45 36 58 68 14 24 
91 11 18 29 60 32 28 92 40 63 55 84 51 
92 11 84 55 91 42 22 40 13 66 73 29 32 
93 11 88 101 21 43 35 46 65 72 100 85 94 
94 11 16 64 12 52 81 54 43 101 65 35 93 
95 9 44 63 37 89 28 3 60 18 32 
96 11 61 9 41 11 48 82 59 62 20 49 13 
97 11 5 34 98 10 25 99 26 80 57 56 83 
98 10 97 34 5 10 99 25 57 26 56 80 
99 11 25 26 80 5 97 98 57 19 34 67 104 
100 11 33 76 46 85 35 65 39 2 88 21 47 
101 11 93 88 43 21 35 65 46 85 100 52 81 
102 11 79 58 8 14 24 68 49 36 45 71 38 
103 11 87 39 4 6 15 7 47 50 85 2 76 
104 11 67 19 7 26 31 80 99 69 6 87 25 
DEPOT_SECTION
   1
   -1
EOF
