NAME :  X-n190-kX-w18-c9.cctp
COMMENT : 	Adapted by Maziero, Usberti and Cavellucci from the Uchoa, Pecin, Pessoa, Poggi, Subramanian, and Vidal (2013)
TYPE :  CCTP
DIMENSION :    132
EDGE_WEIGHT_TYPE : 	EUC_2D	
CAPACITY : 	138
VERTICES_WITHIN_COVERAGE :  9
VERTICES_WITH_DEMAND : 	18
NODE_COORD_SECTION
1 0 0
2 425 323
3 806 514
4 853 637
5 564 311
6 871 502
7 803 526
8 822 680
9 827 577
10 834 646
11 636 403
12 699 724
13 830 479
14 486 257
15 411 384
16 881 642
17 424 422
18 807 718
19 949 612
20 836 662
21 791 570
22 822 508
23 823 464
24 390 502
25 868 651
26 794 481
27 994 676
28 817 658
29 591 333
30 776 532
31 811 509
32 813 517
33 793 488
34 944 655
35 847 594
36 696 429
37 454 303
38 369 330
39 874 502
40 860 564
41 381 508
42 901 482
43 828 575
44 434 177
45 827 622
46 757 746
47 977 648
48 826 595
49 439 212
50 514 184
51 836 661
52 503 227
53 499 447
54 932 582
55 904 484
56 453 362
57 636 374
58 911 613
59 834 510
60 772 732
61 825 882
62 401 275
63 965 597
64 841 501
65 443 318
66 771 511
67 854 615
68 821 631
69 646 327
70 842 630
71 806 436
72 960 576
73 350 337
74 828 580
75 876 502
76 532 332
77 518 383
78 770 509
79 264 445
80 817 655
81 493 395
82 777 522
83 525 263
84 713 403
85 810 633
86 837 649
87 766 750
88 411 544
89 362 490
90 484 275
91 736 784
92 911 461
93 882 671
94 845 506
95 453 298
96 581 300
97 472 372
98 828 569
99 461 360
100 853 527
101 447 363
102 884 716
103 953 573
104 818 424
105 802 462
106 411 333
107 797 466
108 873 543
109 981 614
110 843 695
111 796 701
112 459 378
113 407 302
114 832 667
115 575 296
116 430 313
117 490 287
118 419 448
119 499 256
120 427 245
121 701 703
122 859 496
123 925 476
124 811 591
125 991 637
126 405 298
127 861 389
128 394 306
129 942 611
130 876 663
131 399 126
132 850 696
DEMAND_SECTION
2 3
3 7
4 2
5 4
6 3
7 2
8 4
9 1
10 6
11 6
12 9
13 2
14 4
15 1
16 8
17 4
18 2
19 5
COVERAGE_SECTION
2 9 116 106 65 113 126 37 128 95 101 
3 9 31 32 7 22 59 33 82 26 30 
4 9 70 86 10 25 67 16 51 20 45 
5 9 115 96 29 76 83 117 69 77 119 
6 9 39 75 122 94 64 100 42 55 59 
7 9 3 32 31 22 82 30 59 66 78 
8 8 114 20 28 51 80 110 132 111 
9 8 43 74 98 48 124 35 40 21 
10 9 86 51 20 70 80 68 4 28 114 
11 6 57 36 69 84 29 5 
12 6 121 46 91 87 60 111 
13 9 23 64 22 59 94 105 122 107 26 
14 9 119 90 117 52 83 95 37 120 49 
15 9 17 101 56 112 106 99 97 2 118 
16 8 25 130 4 93 67 70 58 86 
17 9 118 15 112 101 56 97 99 81 53 
18 9 111 60 8 110 132 87 46 114 28 
19 9 129 63 109 54 58 72 103 34 47 
20 8 51 114 86 10 28 80 8 4 
21 2 124 9 
22 9 31 59 32 3 64 94 7 13 33 
23 8 13 105 107 71 26 33 104 64 
24 9 41 89 88 118 17 15 53 79 112 
25 8 130 16 4 93 86 70 10 20 
26 6 33 107 105 31 23 3 
27 9 47 125 34 109 19 129 63 58 72 
28 9 80 114 20 51 10 86 8 85 68 
29 9 96 5 115 69 76 57 11 77 83 
30 5 82 66 78 7 3 
31 9 3 32 22 7 59 33 64 26 94 
32 9 3 31 7 22 59 64 94 33 82 
33 7 26 107 31 105 3 78 66 
34 9 47 19 129 125 58 27 109 63 16 
35 9 48 67 74 9 43 98 40 45 70 
36 3 84 11 57 
37 9 95 65 116 2 117 90 113 126 106 
38 8 73 128 106 113 126 2 116 62 
39 8 75 6 122 94 64 100 42 55 
40 7 108 98 35 43 9 74 100 
41 9 24 89 88 118 17 15 53 79 112 
42 7 55 92 123 75 39 6 122 
43 8 9 74 98 48 124 35 40 21 
44 8 49 131 120 50 52 14 119 62 
45 8 68 70 85 10 48 67 86 4 
46 8 87 60 91 18 111 12 121 8 
47 9 125 27 34 109 19 129 63 72 58 
48 8 74 124 9 43 35 98 45 67 
49 9 44 120 14 52 62 119 90 50 95 
50 9 52 119 14 44 49 83 90 117 120 
51 8 20 114 86 10 28 80 8 4 
52 9 119 14 83 50 90 117 49 120 44 
53 9 81 77 17 97 112 118 99 56 101 
54 6 103 72 129 19 63 58 
55 6 42 123 92 75 39 6 
56 9 101 99 112 97 65 15 2 106 81 
57 8 11 69 29 36 84 96 5 115 
58 6 129 54 19 16 34 63 
59 9 64 22 94 32 31 100 3 122 13 
60 8 87 46 18 111 91 8 12 121 
61 9 91 87 46 60 18 102 111 110 132 
62 7 126 113 128 120 116 2 95 
63 9 19 72 109 103 129 54 125 47 58 
64 9 94 59 122 22 13 100 6 31 32 
65 9 116 2 37 95 106 113 126 56 101 
66 6 78 82 30 33 3 7 
67 9 70 4 35 45 48 10 68 16 86 
68 7 45 85 10 70 80 86 28 
69 9 57 29 96 11 115 5 84 36 76 
70 9 4 45 10 67 86 68 51 85 20 
71 6 104 105 107 23 26 13 
72 7 103 63 54 19 129 109 58 
73 6 38 128 106 113 126 2 
74 8 9 43 98 48 124 35 40 21 
75 8 39 6 122 94 42 55 100 64 
76 9 5 77 115 29 96 117 83 97 81 
77 9 81 97 76 112 99 53 56 101 5 
78 6 66 82 30 33 3 7 
79 7 89 41 24 73 118 38 15 
80 9 28 10 114 20 51 86 85 68 8 
81 9 77 97 112 99 53 56 101 17 76 
82 7 30 66 78 7 3 31 32 
83 9 119 14 52 117 90 115 5 96 76 
84 3 36 11 57 
85 5 68 45 80 28 10 
86 9 10 51 20 114 4 70 80 28 68 
87 8 46 60 91 18 111 12 121 8 
88 9 24 41 89 118 17 53 15 81 112 
89 9 41 24 118 88 17 79 15 53 112 
90 9 117 14 119 95 37 83 52 65 120 
91 8 46 87 60 12 121 18 111 61 
92 7 123 42 55 75 39 6 122 
93 8 130 25 16 132 4 102 110 20 
94 9 64 59 122 100 22 6 39 13 75 
95 9 37 65 116 2 90 117 113 126 14 
96 9 115 5 29 76 83 69 57 117 119 
97 9 112 99 56 101 81 77 65 15 2 
98 8 43 9 74 48 124 35 40 21 
99 9 56 101 97 112 65 81 2 15 116 
100 8 94 59 108 64 6 122 39 75 
101 9 56 99 112 97 15 65 2 106 116 
102 8 132 93 110 130 25 114 8 20 
103 7 72 54 63 19 129 109 58 
104 6 71 23 105 107 127 13 
105 6 107 23 26 71 33 13 
106 9 2 116 113 128 65 126 38 101 15 
107 6 105 26 33 23 71 13 
108 3 40 100 6 
109 9 63 125 19 47 129 72 103 34 54 
110 8 132 8 114 20 51 18 28 86 
111 8 18 8 60 110 28 114 80 132 
112 9 97 56 99 101 81 15 17 77 65 
113 9 126 128 116 2 62 106 65 95 37 
114 8 20 51 8 28 80 86 10 110 
115 9 96 5 29 76 83 69 117 119 90 
116 9 2 65 113 37 95 106 126 128 62 
117 9 90 14 119 37 95 83 65 52 76 
118 9 17 24 15 41 89 53 112 101 81 
119 9 14 90 83 52 117 95 37 120 49 
120 9 49 62 126 95 14 113 37 90 44 
121 5 12 46 60 87 91 
122 9 6 39 94 75 64 59 100 13 22 
123 6 92 55 42 75 39 6 
124 6 48 74 9 43 98 21 
125 9 47 109 27 63 19 34 129 72 103 
126 9 113 128 62 116 2 106 65 38 95 
127 6 104 71 23 92 105 13 
128 8 113 126 62 106 2 38 116 65 
129 9 19 63 54 58 72 109 103 34 47 
130 8 93 25 16 4 20 51 86 132 
131 7 44 49 120 50 52 62 14 
132 8 110 8 114 20 51 102 93 130 
DEPOT_SECTION
   1
   -1
EOF
