NAME :  X-n153-kX-w15-c7.cctp
COMMENT : 	Adapted by Maziero, Usberti and Cavellucci from the Uchoa, Pecin, Pessoa, Poggi, Subramanian, and Vidal (2013)
TYPE :  CCTP
DIMENSION :    86
EDGE_WEIGHT_TYPE : 	EUC_2D	
CAPACITY : 	144
VERTICES_WITHIN_COVERAGE :  7
VERTICES_WITH_DEMAND : 	15
NODE_COORD_SECTION
1 500 500
2 238 446
3 749 750
4 960 879
5 955 866
6 202 336
7 720 788
8 695 743
9 739 603
10 217 419
11 922 870
12 703 733
13 843 856
14 233 682
15 259 459
16 226 305
17 732 722
18 747 858
19 904 891
20 246 438
21 742 771
22 110 698
23 193 441
24 215 388
25 663 731
26 754 821
27 280 456
28 236 424
29 287 454
30 744 473
31 887 907
32 286 422
33 272 484
34 939 892
35 769 768
36 977 840
37 727 765
38 950 896
39 206 433
40 662 768
41 348 308
42 254 455
43 764 726
44 713 758
45 693 734
46 727 808
47 664 770
48 558 530
49 714 742
50 200 416
51 240 449
52 735 633
53 157 421
54 768 750
55 813 936
56 986 914
57 175 397
58 661 762
59 298 469
60 219 453
61 272 465
62 294 296
63 754 775
64 229 467
65 711 803
66 858 879
67 665 347
68 760 764
69 942 894
70 219 465
71 665 756
72 92 212
73 281 489
74 669 647
75 308 309
76 998 876
77 753 900
78 209 467
79 766 729
80 224 368
81 707 703
82 280 450
83 252 462
84 717 683
85 278 356
86 831 812
DEMAND_SECTION
2 92
3 90
4 65
5 80
6 69
7 64
8 73
9 96
10 74
11 81
12 67
13 58
14 79
15 85
16 57
COVERAGE_SECTION
2 7 51 20 42 60 83 28 64 
3 7 68 54 21 63 35 37 79 
4 7 5 38 69 34 76 11 36 
5 7 4 38 34 69 11 36 76 
6 7 16 80 24 57 85 50 10 
7 7 65 46 37 21 44 63 49 
8 7 45 12 49 44 71 25 37 
9 3 52 74 84 
10 7 50 39 28 24 23 2 60 
11 6 19 34 69 5 38 4 
12 7 45 8 49 44 81 17 25 
13 4 66 86 31 19 
14 1 22 
15 7 42 83 61 27 51 82 2 
16 7 6 80 62 85 75 24 57 
17 6 49 12 81 43 3 79 
18 7 26 77 46 65 7 63 21 
19 6 31 11 34 69 38 66 
20 7 2 51 28 42 15 83 60 
21 7 63 37 68 3 35 7 44 
22 1 14 
23 6 39 50 60 78 10 70 
24 7 80 10 50 57 28 39 6 
25 5 71 45 58 8 40 
26 7 46 18 63 7 65 21 35 
27 7 82 29 61 15 59 42 33 
28 7 20 10 2 51 39 60 42 
29 7 27 82 59 61 15 32 42 
30 5 9 67 52 74 48 
31 3 19 66 11 
32 6 82 29 27 20 61 15 
33 7 73 61 15 27 59 83 29 
34 6 69 38 4 11 5 19 
35 7 68 63 54 3 21 79 37 
36 3 5 76 4 
37 7 21 44 7 49 3 63 68 
38 6 69 34 4 5 11 56 
39 7 23 10 50 60 28 78 2 
40 6 47 58 71 25 8 45 
41 5 75 62 85 16 32 
42 7 15 83 51 2 20 61 27 
43 6 79 54 3 17 68 35 
44 7 37 49 8 12 7 45 21 
45 7 8 12 49 25 44 81 71 
46 7 65 7 26 21 37 63 44 
47 6 40 58 71 25 8 45 
48 3 74 9 30 
49 7 12 44 8 45 37 17 3 
50 7 10 39 23 57 24 28 60 
51 7 2 20 42 83 15 60 64 
52 3 9 84 74 
53 5 57 23 50 39 10 
54 7 68 35 3 79 43 63 21 
55 4 77 66 31 13 
56 4 38 76 4 69 
57 7 53 50 24 10 23 39 80 
58 6 40 71 47 25 8 45 
59 7 29 27 61 73 82 33 15 
60 7 70 64 78 2 51 39 23 
61 7 27 15 82 29 33 83 42 
62 6 75 41 85 16 6 80 
63 7 21 68 35 3 37 54 7 
64 7 70 60 78 51 2 83 42 
65 7 7 46 37 21 44 26 63 
66 5 13 31 19 11 86 
67 5 30 48 9 52 74 
68 7 35 63 54 3 21 37 79 
69 6 34 38 4 5 11 19 
70 6 64 78 60 51 2 83 
71 6 58 40 47 25 8 45 
72 7 16 6 57 80 24 53 62 
73 7 33 59 61 27 29 15 82 
74 5 84 52 81 9 25 
75 5 62 41 85 16 80 
76 5 4 56 36 5 38 
77 6 18 55 26 46 13 65 
78 6 70 60 64 23 39 2 
79 6 43 54 3 17 68 35 
80 7 24 6 10 50 85 28 57 
81 6 84 12 17 45 49 8 
82 7 27 29 61 15 42 59 32 
83 7 42 15 51 61 2 64 20 
84 5 81 17 12 52 45 
85 6 80 75 62 32 24 16 
86 4 13 66 35 26 
DEPOT_SECTION
   1
   -1
EOF
