NAME :  X-n143-kX-w14-c11.cctp
COMMENT : 	Adapted by Maziero, Usberti and Cavellucci from the Uchoa, Pecin, Pessoa, Poggi, Subramanian, and Vidal (2013)
TYPE :  CCTP
DIMENSION :    96
EDGE_WEIGHT_TYPE : 	EUC_2D	
CAPACITY : 	1190
VERTICES_WITHIN_COVERAGE :  11
VERTICES_WITH_DEMAND : 	14
NODE_COORD_SECTION
1 0 0
2 175 821
3 62 495
4 662 959
5 109 216
6 156 748
7 178 957
8 347 184
9 89 814
10 257 265
11 662 892
12 881 69
13 478 9
14 76 79
15 898 650
16 711 766
17 325 163
18 42 411
19 366 190
20 907 497
21 924 738
22 954 524
23 253 89
24 746 971
25 655 716
26 234 979
27 337 173
28 488 878
29 289 151
30 935 667
31 659 800
32 248 436
33 97 623
34 30 810
35 577 83
36 265 688
37 19 913
38 415 49
39 312 683
40 177 874
41 609 113
42 701 895
43 640 112
44 504 95
45 161 8
46 223 393
47 329 371
48 130 888
49 857 128
50 709 966
51 642 967
52 872 705
53 0 414
54 207 911
55 883 147
56 184 48
57 114 737
58 244 783
59 522 41
60 607 806
61 144 513
62 695 974
63 343 206
64 244 929
65 976 38
66 120 988
67 691 853
68 986 418
69 566 975
70 625 733
71 166 787
72 605 798
73 209 194
74 19 892
75 169 840
76 756 913
77 666 928
78 13 829
79 103 304
80 63 384
81 564 787
82 271 50
83 949 738
84 357 228
85 363 898
86 912 704
87 167 348
88 5 76
89 188 65
90 229 41
91 632 968
92 75 96
93 982 492
94 600 833
95 65 277
96 508 995
DEMAND_SECTION
2 95
3 35
4 81
5 12
6 3
7 99
8 47
9 64
10 20
11 47
12 27
13 77
14 50
15 75
COVERAGE_SECTION
2 11 75 71 40 6 58 48 9 54 57 64 7 
3 10 61 18 53 80 33 87 46 32 79 95 
4 11 51 77 91 62 50 11 42 24 69 76 67 
5 11 95 79 73 92 14 87 10 89 80 88 56 
6 11 71 57 2 75 9 58 36 40 33 34 48 
7 11 54 26 66 64 40 48 75 2 37 9 71 
8 11 27 19 63 17 84 29 10 23 73 38 82 
9 11 34 78 57 71 75 48 2 6 74 40 37 
10 11 73 63 84 29 8 27 87 17 47 19 46 
11 11 77 42 67 4 51 91 94 50 62 31 76 
12 5 49 55 65 43 41 
13 10 59 38 44 35 41 43 82 19 27 17 
14 11 92 88 45 56 89 5 90 73 23 82 95 
15 9 30 86 52 21 83 22 20 93 16 
16 9 31 25 67 70 60 72 42 94 11 
17 11 27 8 29 63 19 84 23 73 10 82 38 
18 11 80 53 3 79 95 87 61 46 5 32 33 
19 10 8 63 27 84 17 29 10 38 23 73 
20 5 22 93 68 15 30 
21 5 83 86 52 30 15 
22 8 93 20 68 15 30 86 52 83 
23 11 82 90 89 29 56 17 73 27 45 8 63 
24 10 50 62 76 4 42 77 51 91 11 67 
25 10 70 16 31 72 60 81 94 67 11 42 
26 11 64 7 54 66 40 48 85 75 2 58 71 
27 11 8 17 19 63 29 84 23 10 73 82 38 
28 9 81 96 94 69 85 60 72 91 11 
29 11 17 27 8 23 63 19 73 82 84 10 90 
30 8 15 86 21 83 52 22 20 93 
31 10 60 72 16 67 94 70 25 11 81 42 
32 5 46 47 87 61 10 
33 10 57 61 3 6 71 36 9 34 2 58 
34 11 78 9 74 37 57 48 71 6 75 2 40 
35 6 41 43 59 44 13 38 
36 7 39 58 6 71 57 2 33 
37 11 74 78 34 48 9 66 40 7 75 2 54 
38 11 13 44 59 82 17 27 19 8 29 35 23 
39 3 36 58 6 
40 11 75 54 48 2 7 64 71 9 58 26 66 
41 5 43 35 44 59 13 
42 11 11 67 77 76 50 4 62 24 51 91 31 
43 5 41 35 44 59 13 
44 8 59 35 13 38 41 43 19 8 
45 11 56 89 90 14 82 23 92 88 29 73 5 
46 9 32 87 47 10 61 79 80 18 3 
47 4 32 46 10 84 
48 11 40 75 54 2 7 9 66 71 74 37 64 
49 4 55 12 65 43 
50 11 62 24 4 77 51 42 76 91 11 67 69 
51 11 91 4 77 62 50 69 11 42 24 67 76 
52 7 86 15 21 30 83 16 22 
53 11 18 80 3 79 95 61 87 46 5 33 32 
54 11 64 40 7 26 48 75 2 66 71 58 9 
55 4 49 12 65 43 
56 11 89 45 90 23 82 14 92 29 73 88 17 
57 11 6 71 9 2 34 33 75 78 58 40 48 
58 9 71 2 75 6 36 40 39 54 57 
59 8 13 44 35 38 41 43 19 8 
60 10 72 94 81 31 70 67 11 25 16 42 
61 9 3 33 32 18 46 80 87 53 36 
62 11 50 4 24 51 77 91 42 76 11 67 69 
63 10 8 84 19 27 17 29 10 73 23 47 
64 11 54 26 7 40 75 48 85 2 66 58 71 
65 5 12 55 49 43 41 
66 11 7 48 26 54 37 40 64 74 75 2 9 
67 11 42 11 31 77 76 16 94 60 72 4 50 
68 5 93 22 20 15 30 
69 11 96 91 51 4 77 28 11 62 50 94 42 
70 10 25 72 31 60 81 16 94 67 11 42 
71 11 2 6 75 57 58 9 40 48 54 34 36 
72 10 60 94 81 31 70 25 67 11 16 42 
73 11 10 29 5 23 17 27 89 63 8 56 84 
74 11 37 78 34 9 48 66 40 75 2 7 71 
75 11 2 40 71 48 54 9 6 58 64 7 57 
76 10 42 24 50 62 67 77 11 4 51 91 
77 11 4 11 51 42 91 62 50 67 24 76 69 
78 11 34 74 9 37 48 57 75 71 2 6 40 
79 11 95 87 5 80 18 46 53 73 10 3 32 
80 11 18 53 79 95 87 3 61 46 5 32 10 
81 10 72 60 94 70 31 25 28 67 11 16 
82 11 23 90 89 56 29 45 17 27 38 8 73 
83 5 21 86 30 52 15 
84 9 63 19 8 27 17 29 10 47 73 
85 8 64 28 26 54 58 96 40 7 
86 6 21 52 30 83 15 22 
87 11 46 79 80 32 10 95 18 5 73 47 61 
88 11 14 92 45 5 56 89 95 90 73 23 79 
89 11 56 90 45 23 82 14 92 73 29 17 5 
90 11 82 56 89 23 45 29 73 17 14 92 27 
91 11 51 4 77 62 69 50 11 42 24 96 67 
92 11 14 88 89 56 45 5 90 73 23 95 82 
93 6 22 68 20 15 30 86 
94 10 60 72 81 31 11 67 70 77 42 28 
95 11 79 5 80 87 18 53 73 92 10 46 14 
96 11 69 28 91 51 4 77 85 11 94 62 50 
DEPOT_SECTION
   1
   -1
EOF
