NAME :  X-n120-kX-w23-c9.cctp
COMMENT : 	Adapted by Maziero, Usberti and Cavellucci from the Uchoa, Pecin, Pessoa, Poggi, Subramanian, and Vidal (2013)
TYPE :  CCTP
DIMENSION :    115
EDGE_WEIGHT_TYPE : 	EUC_2D	
CAPACITY : 	21
VERTICES_WITHIN_COVERAGE :  9
VERTICES_WITH_DEMAND : 	23
NODE_COORD_SECTION
1 0 0
2 927 318
3 319 475
4 471 281
5 894 615
6 712 832
7 677 210
8 336 967
9 490 360
10 367 685
11 153 169
12 799 63
13 247 455
14 492 585
15 131 701
16 309 721
17 210 256
18 511 753
19 447 796
20 394 856
21 131 13
22 181 425
23 892 585
24 161 651
25 964 365
26 82 353
27 706 842
28 793 53
29 364 841
30 126 306
31 86 477
32 192 360
33 52 568
34 682 45
35 778 300
36 10 737
37 928 438
38 95 240
39 391 368
40 586 170
41 645 731
42 381 396
43 387 491
44 388 753
45 429 276
46 547 989
47 840 945
48 88 969
49 331 421
50 55 132
51 904 771
52 63 190
53 308 276
54 891 182
55 836 473
56 209 741
57 864 533
58 852 600
59 180 150
60 544 140
61 956 881
62 432 487
63 129 968
64 597 962
65 51 423
66 827 605
67 776 619
68 354 297
69 552 106
70 148 944
71 502 869
72 396 492
73 815 500
74 425 338
75 178 511
76 168 274
77 775 603
78 481 465
79 281 777
80 216 211
81 784 740
82 127 992
83 544 117
84 92 170
85 846 755
86 614 326
87 180 372
88 720 252
89 262 291
90 171 186
91 868 613
92 291 119
93 427 974
94 481 557
95 403 645
96 819 502
97 915 919
98 581 85
99 527 743
100 953 893
101 955 912
102 269 924
103 216 84
104 601 952
105 441 439
106 170 949
107 614 92
108 439 212
109 413 509
110 545 336
111 50 806
112 166 86
113 658 870
114 122 511
115 178 170
DEMAND_SECTION
2 1
3 1
4 1
5 1
6 1
7 1
8 1
9 1
10 1
11 1
12 1
13 1
14 1
15 1
16 1
17 1
18 1
19 1
20 1
21 1
22 1
23 1
24 1
COVERAGE_SECTION
2 9 25 37 54 35 55 96 73 88 57 
3 9 49 43 13 72 42 109 62 105 39 
4 9 45 74 108 9 110 39 68 42 86 
5 9 91 23 58 66 57 67 77 96 73 
6 9 27 113 81 41 85 104 47 64 51 
7 9 88 40 86 107 35 60 98 83 69 
8 9 102 93 20 29 106 70 71 79 19 
9 9 110 74 4 105 39 45 78 42 86 
10 9 95 16 44 79 19 29 18 14 56 
11 9 90 115 59 84 80 112 38 52 17 
12 9 28 34 54 107 7 88 98 35 40 
13 9 22 3 75 49 87 32 114 43 42 
14 9 94 95 109 62 78 72 43 105 10 
15 9 24 56 36 111 33 79 16 114 75 
16 9 79 10 44 56 95 29 19 20 24 
17 9 80 76 89 90 115 30 53 11 32 
18 9 99 19 71 44 41 95 20 10 14 
19 9 44 18 20 71 29 99 10 16 95 
20 9 29 19 44 71 93 8 79 102 18 
21 9 112 103 50 59 11 84 115 90 52 
22 9 87 32 13 75 114 31 26 65 30 
23 9 5 91 58 57 66 96 73 77 67 
24 9 15 56 33 75 114 16 36 79 31 
25 9 2 37 55 57 35 54 96 73 23 
26 7 30 65 87 32 38 76 22 
27 9 6 113 41 81 104 64 85 47 99 
28 9 12 34 54 107 7 88 98 40 35 
29 9 20 44 19 79 102 8 16 71 93 
30 7 76 26 38 32 87 17 90 
31 9 114 65 33 75 22 26 87 32 13 
32 9 87 22 30 76 89 17 13 26 53 
33 9 114 31 24 75 65 15 36 22 26 
34 9 107 98 28 12 69 83 40 7 60 
35 9 88 7 2 54 86 55 25 73 37 
36 9 111 15 24 33 56 48 70 114 63 
37 9 25 55 57 2 96 73 23 58 5 
38 7 52 84 30 76 11 90 115 
39 9 42 74 49 68 105 9 45 4 43 
40 9 60 83 69 107 98 7 108 88 34 
41 9 99 6 27 18 81 113 67 77 71 
42 9 39 49 74 105 43 72 3 68 62 
43 9 72 109 62 3 105 49 42 78 94 
44 9 10 19 16 29 20 95 79 18 99 
45 9 4 74 108 68 39 9 53 42 110 
46 9 64 104 93 71 113 20 8 19 27 
47 9 97 101 100 61 27 6 51 85 113 
48 9 63 82 70 106 111 102 36 8 56 
49 9 3 42 39 43 13 72 105 109 62 
50 9 84 52 11 38 112 59 90 115 21 
51 9 85 61 81 100 97 101 5 91 58 
52 8 84 38 50 11 90 115 59 30 
53 9 89 68 17 80 45 39 74 42 76 
54 9 2 12 28 35 88 25 7 34 37 
55 8 73 96 57 37 23 58 66 77 
56 9 79 15 16 24 10 111 44 29 102 
57 9 96 23 73 55 58 91 66 5 77 
58 9 91 66 23 5 57 77 67 96 73 
59 9 115 11 90 112 80 103 84 17 92 
60 9 83 69 40 98 107 108 7 4 34 
61 9 100 101 97 51 47 85 81 6 27 
62 9 109 72 43 105 78 94 42 3 14 
63 9 82 70 48 106 102 111 8 56 79 
64 9 104 46 113 71 27 93 6 19 18 
65 7 31 26 114 22 30 87 33 
66 9 58 91 77 67 5 23 57 96 73 
67 8 77 66 58 91 5 23 81 57 
68 9 53 45 39 74 89 42 4 108 49 
69 9 83 60 98 107 40 34 108 7 4 
70 9 106 63 82 48 102 111 8 56 79 
71 9 19 20 18 46 99 93 104 64 29 
72 9 43 109 62 105 3 78 49 42 94 
73 8 96 55 57 66 58 77 23 67 
74 9 39 45 9 4 42 68 105 110 49 
75 9 114 22 13 31 33 87 24 3 32 
76 9 17 30 80 38 90 32 89 87 115 
77 8 67 66 58 91 73 96 57 23 
78 9 105 62 109 72 94 43 9 14 42 
79 9 16 56 29 44 10 20 102 19 15 
80 9 17 90 115 59 11 76 89 53 92 
81 9 85 6 67 51 27 77 41 66 91 
82 9 63 48 70 106 102 111 8 56 79 
83 9 69 60 98 40 107 108 34 7 4 
84 8 52 50 11 38 90 115 59 112 
85 9 51 81 91 5 66 67 6 58 27 
86 9 110 9 88 7 4 40 35 74 45 
87 9 32 22 30 76 26 13 89 17 65 
88 9 7 35 86 40 54 107 110 12 60 
89 9 53 17 68 80 76 32 87 30 90 
90 9 115 11 59 80 17 84 76 38 112 
91 9 58 5 23 66 57 67 77 96 73 
92 7 103 59 80 115 112 90 11 
93 9 8 46 20 71 29 102 64 104 19 
94 9 14 109 62 78 72 43 95 105 10 
95 9 10 14 44 94 16 109 18 72 43 
96 8 73 55 57 58 66 77 23 91 
97 9 101 100 61 47 51 85 6 81 27 
98 9 107 69 83 60 40 34 7 108 28 
99 9 18 19 41 71 44 95 14 10 20 
100 9 61 101 97 47 51 85 81 6 27 
101 9 100 61 97 47 51 85 81 6 27 
102 9 8 106 70 29 20 63 79 82 93 
103 7 112 59 92 115 11 21 90 
104 9 64 46 113 71 27 6 93 18 19 
105 9 78 62 72 42 43 109 39 9 74 
106 9 70 63 82 48 102 8 111 79 56 
107 9 98 69 83 34 40 60 7 28 12 
108 8 45 4 68 60 74 83 53 40 
109 9 72 62 43 105 78 94 3 14 42 
110 9 9 86 4 74 45 78 105 39 108 
111 9 36 15 48 70 56 63 106 24 82 
112 9 103 59 21 11 115 90 84 50 92 
113 9 27 6 104 64 41 71 46 81 99 
114 9 31 75 33 22 65 13 24 87 26 
115 9 90 59 11 80 112 84 17 103 76 
DEPOT_SECTION
   1
   -1
EOF
