NAME :  X-n181-kX-w72-c11.cctp
COMMENT : 	Adapted by Maziero, Usberti and Cavellucci from the Uchoa, Pecin, Pessoa, Poggi, Subramanian, and Vidal (2013)
TYPE :  CCTP
DIMENSION :    181
EDGE_WEIGHT_TYPE : 	EUC_2D	
CAPACITY : 	8
VERTICES_WITHIN_COVERAGE :  11
VERTICES_WITH_DEMAND : 	72
NODE_COORD_SECTION
1 894 510
2 463 887
3 704 177
4 424 368
5 420 800
6 492 610
7 607 749
8 455 819
9 343 457
10 387 275
11 466 653
12 607 348
13 428 546
14 764 848
15 403 298
16 315 738
17 457 902
18 597 584
19 219 552
20 526 359
21 414 340
22 398 401
23 579 780
24 518 563
25 531 597
26 501 827
27 687 200
28 670 234
29 488 981
30 673 222
31 359 256
32 537 675
33 788 95
34 433 820
35 397 770
36 444 799
37 367 288
38 253 774
39 570 853
40 379 843
41 388 736
42 565 785
43 608 193
44 430 657
45 775 142
46 721 600
47 434 876
48 683 311
49 592 740
50 500 315
51 428 915
52 710 258
53 709 272
54 426 803
55 409 639
56 535 572
57 502 916
58 528 728
59 351 371
60 657 782
61 493 265
62 751 112
63 469 594
64 720 165
65 463 624
66 751 96
67 496 833
68 565 459
69 471 361
70 448 969
71 361 559
72 529 582
73 515 809
74 497 434
75 429 879
76 483 715
77 264 574
78 793 916
79 448 386
80 325 199
81 327 370
82 484 861
83 432 873
84 412 853
85 641 155
86 712 163
87 456 612
88 301 921
89 480 400
90 700 165
91 690 213
92 478 811
93 665 56
94 430 368
95 414 943
96 709 235
97 296 297
98 380 773
99 459 423
100 498 910
101 464 939
102 677 704
103 420 381
104 398 872
105 554 512
106 486 614
107 584 809
108 429 336
109 461 529
110 470 360
111 494 769
112 407 661
113 687 711
114 454 745
115 593 471
116 537 648
117 666 111
118 452 797
119 430 742
120 481 958
121 636 741
122 405 576
123 666 234
124 603 683
125 473 466
126 378 867
127 611 739
128 342 688
129 446 280
130 585 888
131 496 418
132 711 27
133 791 198
134 660 828
135 414 839
136 504 592
137 665 921
138 448 320
139 550 637
140 637 758
141 743 166
142 504 869
143 708 432
144 664 343
145 499 493
146 878 706
147 396 920
148 275 924
149 727 669
150 728 203
151 367 739
152 444 808
153 755 303
154 445 864
155 561 848
156 597 660
157 386 700
158 652 240
159 344 301
160 209 369
161 571 812
162 454 353
163 497 781
164 697 220
165 296 787
166 517 506
167 409 893
168 339 886
169 518 788
170 719 99
171 607 654
172 218 312
173 533 847
174 523 938
175 598 705
176 481 772
177 461 431
178 375 722
179 460 681
180 524 610
181 771 752
DEMAND_SECTION
2 1
3 1
4 1
5 1
6 1
7 1
8 1
9 1
10 1
11 1
12 1
13 1
14 1
15 1
16 1
17 1
18 1
19 1
20 1
21 1
22 1
23 1
24 1
25 1
26 1
27 1
28 1
29 1
30 1
31 1
32 1
33 1
34 1
35 1
36 1
37 1
38 1
39 1
40 1
41 1
42 1
43 1
44 1
45 1
46 1
47 1
48 1
49 1
50 1
51 1
52 1
53 1
54 1
55 1
56 1
57 1
58 1
59 1
60 1
61 1
62 1
63 1
64 1
65 1
66 1
67 1
68 1
69 1
70 1
71 1
72 1
73 1
COVERAGE_SECTION
2 11 17 154 47 82 83 75 100 51 142 57 101 
3 11 90 86 64 27 150 91 141 164 30 96 28 
4 11 94 103 21 79 108 162 22 110 69 138 89 
5 11 54 34 36 152 118 35 135 8 98 84 40 
6 11 106 136 63 65 180 87 25 72 11 24 56 
7 11 127 49 121 140 23 175 42 60 107 124 161 
8 11 152 34 118 36 92 54 5 67 135 154 26 
9 11 22 59 81 71 103 4 99 177 13 94 79 
10 11 37 15 31 159 129 21 108 138 97 80 4 
11 11 65 179 44 87 106 6 55 63 112 76 116 
12 11 144 20 48 50 158 68 115 53 123 28 131 
13 11 109 122 63 71 87 65 106 136 145 6 24 
14 11 78 181 134 137 60 140 113 121 102 146 130 
15 11 10 37 21 108 129 138 159 31 4 94 162 
16 11 151 165 128 178 38 41 98 157 35 119 112 
17 11 2 51 47 75 83 101 154 100 57 82 167 
18 11 56 25 72 139 171 156 180 24 105 116 136 
19 11 77 71 9 128 160 122 13 16 55 81 112 
20 11 50 69 110 89 131 162 74 12 79 138 99 
21 11 108 4 94 138 103 162 15 79 110 69 22 
22 11 103 4 94 79 59 21 99 177 108 162 81 
23 11 42 107 161 7 49 127 140 169 121 73 155 
24 11 56 72 136 25 180 6 166 63 106 105 109 
25 11 72 180 56 136 24 6 139 106 116 63 18 
26 11 67 73 92 82 173 142 169 163 8 118 111 
27 11 91 164 30 3 90 28 123 96 150 86 64 
28 11 123 30 158 91 164 27 96 52 53 3 150 
29 11 120 70 101 174 57 100 95 17 51 2 147 
30 11 28 123 91 164 27 158 96 52 3 150 53 
31 11 37 10 159 15 80 97 129 21 108 138 59 
32 11 116 139 58 156 124 180 76 175 171 11 179 
33 11 66 62 45 170 141 64 86 132 133 90 3 
34 11 152 54 8 5 36 135 118 84 92 154 83 
35 11 98 41 5 119 151 54 178 36 152 118 34 
36 11 118 152 54 8 5 34 92 176 135 35 114 
37 11 10 159 31 15 21 97 108 129 59 138 81 
38 11 165 16 151 128 98 178 41 168 35 40 148 
39 11 155 173 130 161 107 42 142 73 23 26 67 
40 11 126 84 104 135 167 5 34 168 83 54 75 
41 11 178 151 35 157 98 119 128 114 5 16 54 
42 11 23 161 107 169 49 7 73 155 127 39 58 
43 11 85 158 30 123 28 27 91 164 90 3 117 
44 11 112 55 11 179 65 87 157 106 63 6 76 
45 11 62 141 33 66 133 64 86 170 150 90 3 
46 11 149 102 113 18 171 156 124 181 175 121 143 
47 11 83 75 154 167 2 84 17 104 51 135 82 
48 11 144 53 52 153 158 28 123 96 12 30 164 
49 11 7 127 175 23 121 140 42 124 58 107 161 
50 11 61 20 138 69 110 162 129 108 89 79 94 
51 11 167 95 17 147 75 47 83 101 2 104 154 
52 11 53 96 164 28 91 123 30 150 48 158 27 
53 11 52 96 48 164 28 153 123 30 91 158 150 
54 11 5 34 36 152 118 8 135 35 84 92 98 
55 11 112 44 87 65 11 122 157 179 63 106 128 
56 11 72 24 25 136 180 6 18 105 106 139 166 
57 11 100 174 101 17 120 142 2 82 29 51 70 
58 11 76 111 32 163 169 176 49 42 23 175 114 
59 11 81 22 21 103 159 4 94 37 108 9 15 
60 11 140 121 134 7 127 49 113 23 107 102 161 
61 11 129 50 138 15 108 162 69 110 20 10 21 
62 11 66 170 45 33 141 64 86 90 3 117 132 
63 11 87 106 6 65 136 180 24 11 72 25 13 
64 11 86 3 90 141 150 27 91 45 164 62 170 
65 11 87 106 11 63 6 44 136 55 179 180 112 
66 11 62 170 33 45 141 64 86 132 90 117 3 
67 11 26 92 82 73 142 173 8 169 163 118 152 
68 11 115 105 166 74 145 131 125 89 20 177 99 
69 11 110 162 79 89 94 138 4 108 50 20 103 
70 11 101 120 29 95 51 17 147 57 100 174 2 
71 11 122 13 55 77 9 109 87 112 63 44 65 
72 11 56 25 24 136 180 6 106 139 63 116 18 
73 11 169 26 67 163 92 173 111 176 42 161 155 
74 11 131 177 89 99 125 145 79 68 166 69 110 
75 11 47 83 154 167 84 104 2 17 51 135 126 
76 11 179 114 58 111 176 119 11 32 163 44 169 
77 11 19 71 128 9 122 55 13 112 16 157 178 
78 11 14 137 134 181 60 130 140 146 113 39 107 
79 11 94 103 4 69 110 162 89 99 177 22 108 
80 11 31 10 37 97 159 15 129 172 21 81 108 
81 11 59 159 22 97 9 37 21 103 4 94 15 
82 11 142 67 2 26 154 17 92 8 100 173 47 
83 11 47 75 154 84 167 2 104 17 135 51 34 
84 11 135 104 83 75 47 40 154 126 34 167 54 
85 11 43 117 90 27 3 86 30 91 64 123 28 
86 11 64 90 3 141 150 27 91 164 62 170 45 
87 11 65 63 106 6 11 44 136 55 122 180 112 
88 11 148 168 126 147 104 40 167 95 51 84 165 
89 11 131 99 79 177 74 69 110 162 94 20 103 
90 11 86 3 64 27 141 150 91 164 85 30 117 
91 11 164 27 30 28 96 123 3 150 158 52 90 
92 11 8 26 67 118 152 36 163 73 176 111 34 
93 11 132 117 170 66 85 62 90 86 64 3 33 
94 11 4 103 79 162 21 108 110 69 22 138 89 
95 11 147 51 70 101 167 17 75 120 47 83 104 
96 11 164 52 91 53 150 30 28 27 123 158 3 
97 11 159 37 31 81 172 59 10 80 15 160 21 
98 11 35 151 41 5 178 54 119 36 40 34 152 
99 11 177 89 131 79 74 125 103 94 69 110 4 
100 11 57 174 142 2 17 101 82 120 51 154 29 
101 11 120 70 17 51 57 100 29 95 2 174 75 
102 11 113 121 149 140 127 124 175 60 7 171 156 
103 11 4 94 79 22 21 162 108 110 69 99 89 
104 11 126 84 167 75 83 40 47 135 147 154 51 
105 11 166 68 115 145 24 56 72 18 25 125 136 
106 11 6 65 63 136 87 180 11 25 72 24 116 
107 11 161 23 42 155 39 7 173 49 73 169 140 
108 11 21 138 162 4 94 15 103 110 69 79 129 
109 11 13 145 166 125 63 24 122 136 87 56 72 
110 11 69 162 79 89 94 138 4 108 50 103 20 
111 11 163 176 169 73 92 114 118 58 76 26 36 
112 11 55 44 157 179 11 65 87 178 128 41 119 
113 11 102 149 121 140 60 127 7 124 175 181 171 
114 11 119 176 76 111 118 36 163 35 54 152 179 
115 11 68 105 166 145 74 131 18 56 24 125 143 
116 11 139 32 180 25 6 106 156 136 72 171 11 
117 11 85 170 93 90 86 3 64 62 66 27 132 
118 11 36 152 8 54 34 92 5 176 163 111 114 
119 11 114 41 35 5 36 76 98 118 176 178 54 
120 11 29 101 70 57 174 100 17 51 95 2 142 
121 11 140 127 7 49 60 175 102 113 124 23 42 
122 11 13 71 87 55 63 109 65 44 112 106 6 
123 11 28 30 158 91 164 27 96 52 53 3 150 
124 11 175 156 171 127 49 7 32 121 139 116 102 
125 11 145 177 74 99 131 166 109 89 79 13 68 
126 11 104 40 84 167 168 135 75 83 147 47 154 
127 11 7 49 121 140 175 23 124 60 42 102 107 
128 11 157 178 16 151 41 112 55 44 98 35 119 
129 11 138 15 61 10 108 50 21 162 37 110 69 
130 11 39 155 173 161 107 174 142 137 57 100 134 
131 11 74 89 99 177 125 79 69 110 20 145 162 
132 11 93 170 66 62 117 33 45 86 64 90 141 
133 11 45 141 150 64 86 3 96 62 90 164 52 
134 11 60 140 107 121 161 39 137 23 7 130 155 
135 11 84 34 40 104 54 83 5 154 47 75 152 
136 11 6 25 72 180 106 24 63 56 65 87 139 
137 11 130 134 39 14 155 78 107 60 174 161 173 
138 11 108 162 21 129 110 69 15 94 50 4 79 
139 11 116 180 32 25 156 72 171 6 136 56 106 
140 11 121 7 60 127 49 23 175 102 113 107 134 
141 11 64 86 45 150 3 90 62 133 27 66 91 
142 11 82 173 67 100 26 2 57 17 154 73 155 
143 11 144 115 48 12 153 68 53 46 52 105 18 
144 11 48 12 53 52 143 153 158 28 123 96 30 
145 11 166 125 109 105 74 24 177 68 131 99 56 
146 11 181 149 14 46 113 102 78 60 121 140 134 
147 11 95 167 51 104 75 126 47 83 17 168 84 
148 11 88 168 126 147 40 104 167 165 95 38 51 
149 11 113 102 46 181 121 171 124 140 156 60 175 
150 11 3 164 96 64 91 141 27 86 90 30 52 
151 11 178 41 98 35 157 16 128 119 5 165 54 
152 11 36 118 8 34 54 5 92 135 176 84 154 
153 11 53 52 48 96 144 164 150 28 91 133 123 
154 11 47 83 75 2 84 82 17 135 8 34 167 
155 11 39 173 161 107 130 73 142 42 26 67 23 
156 11 171 124 175 139 116 32 18 49 127 180 7 
157 11 178 41 151 112 128 119 44 55 35 98 179 
158 11 123 28 30 91 164 27 96 52 43 53 48 
159 11 37 31 97 10 15 59 81 21 108 4 80 
160 11 172 97 81 59 159 9 37 19 31 22 10 
161 11 107 42 23 155 39 173 73 169 26 7 49 
162 11 110 69 94 108 4 79 138 21 103 89 50 
163 11 111 176 169 73 92 26 118 67 36 114 8 
164 11 91 96 27 30 28 123 150 52 3 158 53 
165 11 38 16 98 151 40 35 178 41 168 128 126 
166 11 145 105 24 125 109 68 56 74 72 115 136 
167 11 75 104 51 47 83 147 84 126 154 17 95 
168 11 126 88 40 104 147 167 148 84 135 75 51 
169 11 73 163 111 176 26 92 42 67 161 58 173 
170 11 66 62 117 86 64 33 90 93 45 141 132 
171 11 156 124 175 139 116 18 32 127 102 49 121 
172 11 160 97 81 159 59 37 31 80 10 15 9 
173 11 155 142 39 26 67 73 82 161 169 107 92 
174 11 57 100 120 29 101 142 17 2 130 70 82 
175 11 124 49 127 7 156 121 171 140 32 58 23 
176 11 111 163 114 118 92 169 36 73 152 8 76 
177 11 99 74 89 125 131 79 103 22 94 69 110 
178 11 41 151 157 128 98 35 119 16 112 114 44 
179 11 11 44 76 65 112 114 55 119 87 106 157 
180 11 25 136 72 6 139 106 56 116 24 63 65 
181 11 113 149 14 102 146 60 140 121 134 46 127 
DEPOT_SECTION
   1
   -1
EOF
