NAME :  X-n143-kX-w56-c11.cctp
COMMENT : 	Adapted by Maziero, Usberti and Cavellucci from the Uchoa, Pecin, Pessoa, Poggi, Subramanian, and Vidal (2013)
TYPE :  CCTP
DIMENSION :    143
EDGE_WEIGHT_TYPE : 	EUC_2D	
CAPACITY : 	1190
VERTICES_WITHIN_COVERAGE :  11
VERTICES_WITH_DEMAND : 	56
NODE_COORD_SECTION
1 0 0
2 175 821
3 62 495
4 662 959
5 109 216
6 156 748
7 178 957
8 347 184
9 89 814
10 257 265
11 662 892
12 881 69
13 478 9
14 76 79
15 898 650
16 711 766
17 325 163
18 42 411
19 722 221
20 366 190
21 378 521
22 907 497
23 924 738
24 954 524
25 594 724
26 253 89
27 746 971
28 655 716
29 627 301
30 994 958
31 384 833
32 234 979
33 337 173
34 865 383
35 488 878
36 531 291
37 289 151
38 935 667
39 659 800
40 965 898
41 248 436
42 97 623
43 953 932
44 30 810
45 683 120
46 577 83
47 376 751
48 804 302
49 265 688
50 425 392
51 392 371
52 438 417
53 373 511
54 19 913
55 415 49
56 663 461
57 583 355
58 569 522
59 312 683
60 288 508
61 177 874
62 609 113
63 905 309
64 701 895
65 640 112
66 504 95
67 466 606
68 367 726
69 161 8
70 944 892
71 223 393
72 329 371
73 130 888
74 450 443
75 857 128
76 709 966
77 642 967
78 872 705
79 0 414
80 207 911
81 993 855
82 883 147
83 740 490
84 600 372
85 184 48
86 489 259
87 114 737
88 244 783
89 420 439
90 522 41
91 617 177
92 575 340
93 607 806
94 144 513
95 695 974
96 603 507
97 855 318
98 343 206
99 244 929
100 418 513
101 976 38
102 435 672
103 120 988
104 691 853
105 986 418
106 566 975
107 625 733
108 166 787
109 605 798
110 209 194
111 19 892
112 169 840
113 756 913
114 666 928
115 13 829
116 103 304
117 63 384
118 564 787
119 271 50
120 949 738
121 357 228
122 363 898
123 912 704
124 765 462
125 167 348
126 848 405
127 5 76
128 188 65
129 229 41
130 632 968
131 75 96
132 936 903
133 982 492
134 658 258
135 600 833
136 299 593
137 65 277
138 695 468
139 508 995
140 651 522
141 824 865
142 842 802
143 684 432
DEMAND_SECTION
2 95
3 35
4 81
5 12
6 3
7 99
8 47
9 64
10 20
11 47
12 27
13 77
14 50
15 75
16 14
17 24
18 3
19 58
20 65
21 98
22 35
23 35
24 45
25 52
26 11
27 13
28 11
29 76
30 98
31 5
32 9
33 87
34 71
35 83
36 2
37 54
38 63
39 63
40 21
41 36
42 17
43 15
44 44
45 62
46 87
47 90
48 92
49 18
50 41
51 85
52 62
53 72
54 9
55 18
56 76
57 17
COVERAGE_SECTION
2 11 112 108 61 6 88 73 9 80 87 99 7 
3 11 94 18 79 117 42 125 71 41 116 137 60 
4 11 77 114 130 95 76 11 64 27 106 113 104 
5 11 137 116 110 131 14 125 10 128 117 127 85 
6 11 108 87 2 112 9 88 49 61 42 44 73 
7 11 80 32 103 99 61 73 112 2 54 9 108 
8 11 33 20 98 17 121 37 10 26 110 55 119 
9 11 44 115 87 108 112 73 2 6 111 61 54 
10 11 110 98 121 37 8 33 125 17 72 20 71 
11 11 114 64 104 4 77 130 135 76 95 39 113 
12 11 75 82 101 45 19 63 48 65 97 62 91 
13 11 90 55 66 46 62 65 119 20 33 17 91 
14 11 131 127 69 85 128 5 129 110 26 119 137 
15 11 38 123 78 23 120 24 22 142 133 16 83 
16 11 39 28 104 107 93 109 25 64 135 11 142 
17 11 33 8 37 98 20 121 26 110 10 119 55 
18 11 117 79 3 116 137 125 94 71 5 41 42 
19 11 134 45 91 48 29 65 62 75 97 82 92 
20 11 8 98 33 121 17 37 10 86 55 26 110 
21 11 53 100 60 89 74 136 52 67 50 51 41 
22 11 24 133 126 105 34 124 15 83 38 97 63 
23 11 120 123 78 38 15 142 81 70 141 40 132 
24 11 133 22 105 15 38 126 34 123 78 124 120 
25 11 107 28 118 109 93 39 135 16 104 102 67 
26 11 119 129 128 37 85 17 110 33 69 8 98 
27 11 76 95 113 4 64 114 77 130 11 104 141 
28 11 107 25 16 39 109 93 118 135 104 11 64 
29 11 134 92 57 84 36 19 91 143 86 56 48 
30 11 43 40 132 70 81 141 142 120 23 113 27 
31 11 122 47 68 35 88 59 102 99 118 49 80 
32 11 99 7 80 103 61 73 122 112 2 88 108 
33 11 8 17 20 98 37 121 26 10 110 119 55 
34 11 126 97 63 48 22 105 124 133 83 24 143 
35 11 31 118 139 135 106 122 93 109 47 130 11 
36 11 86 92 57 29 84 134 91 50 52 51 74 
37 11 17 33 8 26 98 20 110 119 121 10 129 
38 11 15 123 23 120 78 24 142 22 133 81 70 
39 11 93 109 16 104 135 107 28 11 118 25 64 
40 11 70 132 43 81 30 141 142 120 23 123 113 
41 11 71 60 72 125 94 53 21 51 136 10 89 
42 11 87 94 3 6 108 49 9 44 136 2 88 
43 11 132 40 70 30 81 141 142 120 23 113 27 
44 11 115 9 111 54 87 73 108 6 112 2 61 
45 11 65 62 91 19 46 134 75 90 66 29 82 
46 11 62 65 90 66 91 45 13 55 134 86 19 
47 11 68 31 59 102 49 88 122 35 67 136 118 
48 11 97 34 63 126 19 134 124 82 29 143 75 
49 11 59 88 136 68 6 47 108 87 2 102 42 
50 11 52 51 89 74 72 100 53 21 36 86 92 
51 11 50 72 52 89 74 53 100 121 86 21 41 
52 11 50 89 74 51 100 53 72 21 36 92 57 
53 11 21 100 60 89 74 136 52 50 67 51 41 
54 11 111 115 44 73 9 103 61 7 112 2 80 
55 11 13 66 90 119 17 33 20 8 37 46 26 
56 11 138 143 140 96 83 124 84 58 57 92 29 
57 11 92 84 29 36 134 143 56 86 96 52 74 
58 11 96 140 56 67 138 74 143 100 84 52 57 
59 11 49 68 136 47 88 102 31 6 67 21 60 
60 11 41 53 136 21 100 71 72 94 89 51 52 
61 11 112 80 73 2 7 99 108 9 88 32 103 
62 11 65 46 91 45 66 90 134 19 13 29 86 
63 11 97 34 48 126 105 82 75 22 133 19 124 
64 11 11 104 114 113 76 4 95 27 77 130 39 
65 11 62 45 46 91 19 66 90 134 29 13 36 
66 11 90 46 13 55 62 65 91 86 20 8 45 
67 11 102 100 21 53 58 68 74 136 96 47 59 
68 11 47 59 102 31 49 88 136 67 122 35 21 
69 11 85 128 129 14 119 26 131 127 37 110 5 
70 11 132 40 43 81 30 141 142 120 23 113 123 
71 11 41 125 72 10 60 94 116 117 51 18 3 
72 11 51 50 41 71 89 52 10 74 60 121 53 
73 11 61 112 80 2 7 9 103 108 111 54 99 
74 11 52 89 50 100 51 53 21 72 58 57 92 
75 11 82 12 101 19 45 48 63 97 65 134 91 
76 11 95 27 4 114 77 64 113 130 11 104 106 
77 11 130 4 114 95 76 106 11 64 27 104 113 
78 11 123 15 23 38 120 142 141 16 81 24 70 
79 11 18 117 3 116 137 94 125 71 5 42 41 
80 11 99 61 7 32 73 112 2 103 108 88 9 
81 11 40 70 132 43 30 120 23 142 141 123 78 
82 11 75 12 101 63 97 48 19 45 34 65 134 
83 11 124 138 143 56 140 126 96 34 22 58 84 
84 11 57 92 29 143 36 56 134 96 138 58 86 
85 11 128 69 129 26 119 14 131 37 110 127 17 
86 11 36 92 57 121 20 29 50 51 91 98 84 
87 11 6 108 9 2 44 42 112 115 88 61 73 
88 11 108 2 112 6 49 61 59 80 47 68 87 
89 11 52 74 50 51 100 53 21 72 60 58 41 
90 11 13 66 46 55 62 65 91 45 20 86 8 
91 11 62 65 45 134 46 19 29 66 36 86 90 
92 11 57 84 29 36 134 86 143 56 52 50 74 
93 11 109 135 118 39 107 25 104 11 28 16 64 
94 11 3 42 41 18 60 71 117 125 136 79 49 
95 11 76 4 27 77 114 130 64 113 11 104 106 
96 11 58 140 56 138 143 84 83 57 74 124 67 
97 11 63 48 34 126 19 105 124 82 22 75 134 
98 11 8 121 20 33 17 37 10 110 26 86 72 
99 11 80 32 7 61 112 73 122 2 103 88 108 
100 11 21 53 89 74 52 67 50 60 136 51 58 
101 11 12 82 75 63 45 97 19 48 65 34 62 
102 11 67 68 47 59 136 100 21 25 31 49 53 
103 11 7 73 32 80 54 61 99 111 112 2 9 
104 11 64 11 39 114 113 16 135 93 109 4 76 
105 11 133 24 22 34 63 126 97 48 124 15 38 
106 11 139 130 77 4 114 35 11 95 76 135 64 
107 11 25 28 109 39 93 118 16 135 104 11 64 
108 11 2 6 112 87 88 9 61 73 80 44 49 
109 11 93 135 118 39 107 25 28 104 11 16 64 
110 11 10 37 5 26 17 33 128 98 8 85 121 
111 11 54 115 44 9 73 103 61 112 2 7 108 
112 11 2 61 108 73 80 9 6 88 99 7 87 
113 11 64 27 76 141 95 104 114 11 4 77 130 
114 11 4 11 77 64 130 95 76 104 27 113 106 
115 11 44 111 9 54 73 87 112 108 2 6 61 
116 11 137 125 5 117 18 71 79 110 10 3 41 
117 11 18 79 116 137 125 3 94 71 5 41 10 
118 11 109 93 135 25 107 39 28 35 104 11 16 
119 11 26 129 128 85 37 69 17 33 55 8 110 
120 11 23 123 38 78 15 81 142 70 40 132 141 
121 11 98 20 8 33 17 37 10 86 72 51 110 
122 11 31 99 35 47 32 80 88 68 139 61 7 
123 11 23 78 38 120 15 142 81 141 24 70 132 
124 11 83 138 143 126 56 34 140 22 48 96 97 
125 11 71 116 117 41 10 137 18 5 110 72 94 
126 11 34 97 124 22 48 63 83 105 24 133 138 
127 11 14 131 69 5 85 128 137 129 110 26 116 
128 11 85 129 69 26 119 14 131 110 37 17 5 
129 11 119 85 128 26 69 37 110 17 14 131 33 
130 11 77 4 114 95 106 76 11 64 27 139 104 
131 11 14 127 128 85 69 5 129 110 26 137 119 
132 11 70 40 43 81 30 141 142 23 120 113 123 
133 11 24 105 22 34 126 15 38 63 97 124 123 
134 11 29 19 91 92 57 84 36 45 65 48 62 
135 11 93 109 118 39 11 104 107 25 114 64 35 
136 11 60 59 49 21 53 100 68 102 41 67 94 
137 11 116 5 117 125 18 79 110 131 10 71 14 
138 11 56 143 83 124 140 96 84 58 57 126 92 
139 11 106 35 130 77 4 114 122 11 135 95 76 
140 11 96 56 138 58 83 143 124 84 57 28 92 
141 11 142 113 132 70 64 27 104 40 43 16 76 
142 11 141 78 23 123 120 16 70 132 113 40 104 
143 11 56 138 83 124 140 84 96 57 29 92 58 
DEPOT_SECTION
   1
   -1
EOF
