NAME :  X-n143-kX-w14-c7.cctp
COMMENT : 	Adapted by Maziero, Usberti and Cavellucci from the Uchoa, Pecin, Pessoa, Poggi, Subramanian, and Vidal (2013)
TYPE :  CCTP
DIMENSION :    78
EDGE_WEIGHT_TYPE : 	EUC_2D	
CAPACITY : 	1190
VERTICES_WITHIN_COVERAGE :  7
VERTICES_WITH_DEMAND : 	14
NODE_COORD_SECTION
1 0 0
2 175 821
3 62 495
4 662 959
5 109 216
6 156 748
7 178 957
8 347 184
9 89 814
10 257 265
11 662 892
12 881 69
13 478 9
14 76 79
15 898 650
16 325 163
17 42 411
18 366 190
19 907 497
20 924 738
21 954 524
22 746 971
23 234 979
24 337 173
25 289 151
26 935 667
27 97 623
28 30 810
29 577 83
30 265 688
31 19 913
32 415 49
33 177 874
34 701 895
35 504 95
36 161 8
37 223 393
38 329 371
39 130 888
40 857 128
41 709 966
42 642 967
43 872 705
44 0 414
45 207 911
46 883 147
47 184 48
48 114 737
49 244 783
50 522 41
51 144 513
52 695 974
53 343 206
54 244 929
55 976 38
56 120 988
57 691 853
58 566 975
59 166 787
60 209 194
61 19 892
62 169 840
63 666 928
64 13 829
65 103 304
66 63 384
67 949 738
68 357 228
69 912 704
70 167 348
71 5 76
72 188 65
73 632 968
74 75 96
75 982 492
76 600 833
77 65 277
78 508 995
DEMAND_SECTION
2 95
3 35
4 81
5 12
6 3
7 99
8 47
9 64
10 20
11 47
12 27
13 77
14 50
15 75
COVERAGE_SECTION
2 7 62 59 33 6 49 39 9 
3 7 51 17 44 66 27 70 37 
4 7 42 63 73 52 41 11 34 
5 7 77 65 60 74 14 70 10 
6 7 59 48 2 62 9 49 30 
7 7 45 23 56 54 33 39 62 
8 7 24 18 53 16 68 25 10 
9 7 28 64 48 59 62 39 2 
10 7 60 53 68 25 8 24 70 
11 7 63 34 57 4 42 73 76 
12 3 40 46 55 
13 4 50 32 35 29 
14 6 74 71 36 47 72 5 
15 7 26 69 43 20 67 21 19 
16 6 24 8 25 53 18 68 
17 7 66 44 3 65 77 70 51 
18 7 8 53 24 68 16 25 10 
19 3 21 75 15 
20 5 67 69 43 26 15 
21 4 75 19 15 26 
22 6 41 52 4 34 63 42 
23 6 54 7 45 56 33 39 
24 6 8 16 18 53 25 68 
25 6 16 24 8 53 18 60 
26 6 15 69 20 67 43 21 
27 7 48 51 3 6 59 30 9 
28 7 64 9 61 31 48 39 59 
29 3 50 35 13 
30 3 49 6 59 
31 7 61 64 28 39 9 56 33 
32 6 13 35 50 16 24 18 
33 7 62 45 39 2 7 54 59 
34 6 11 57 63 41 4 52 
35 4 50 29 13 32 
36 4 47 72 14 74 
37 5 70 38 10 51 65 
38 2 37 10 
39 7 33 62 45 2 7 9 56 
40 3 46 12 55 
41 6 52 22 4 63 42 34 
42 7 73 4 63 52 41 58 11 
43 5 69 15 20 26 67 
44 7 17 66 3 65 77 51 70 
45 7 54 33 7 23 39 62 2 
46 3 40 12 55 
47 4 72 36 14 74 
48 7 6 59 9 2 28 27 62 
49 6 59 2 62 6 30 33 
50 4 13 35 29 32 
51 5 3 27 17 37 66 
52 7 41 4 22 42 63 73 34 
53 7 8 68 18 24 16 25 10 
54 6 45 23 7 33 62 39 
55 3 12 46 40 
56 7 7 39 23 45 31 33 54 
57 4 34 11 63 76 
58 6 78 73 42 4 63 11 
59 7 2 6 62 48 49 9 33 
60 6 10 25 5 16 24 72 
61 7 31 64 28 9 39 56 33 
62 7 2 33 59 39 45 9 6 
63 7 4 11 42 34 73 52 41 
64 7 28 61 9 31 39 48 62 
65 7 77 70 5 66 17 37 44 
66 7 17 44 65 77 70 3 51 
67 5 20 69 26 43 15 
68 7 53 18 8 24 16 25 10 
69 5 20 43 26 67 15 
70 6 37 65 66 10 77 17 
71 7 14 74 36 5 47 72 77 
72 4 47 36 14 74 
73 7 42 4 63 52 58 41 11 
74 6 14 71 72 47 36 5 
75 4 21 19 15 26 
76 2 11 57 
77 7 65 5 66 70 17 44 60 
78 5 58 73 42 4 63 
DEPOT_SECTION
   1
   -1
EOF
