NAME :  X-n129-kX-w25-c11.cctp
COMMENT : 	Adapted by Maziero, Usberti and Cavellucci from the Uchoa, Pecin, Pessoa, Poggi, Subramanian, and Vidal (2013)
TYPE :  CCTP
DIMENSION :    123
EDGE_WEIGHT_TYPE : 	EUC_2D	
CAPACITY : 	39
VERTICES_WITHIN_COVERAGE :  11
VERTICES_WITH_DEMAND : 	25
NODE_COORD_SECTION
1 0 0
2 51 570
3 691 985
4 66 119
5 502 415
6 434 289
7 427 584
8 342 576
9 790 87
10 312 475
11 908 531
12 840 566
13 863 232
14 284 833
15 515 175
16 9 243
17 768 209
18 777 582
19 84 508
20 380 523
21 255 267
22 544 961
23 408 661
24 57 588
25 278 44
26 168 722
27 223 385
28 495 70
29 560 632
30 235 655
31 643 127
32 765 267
33 459 976
34 585 962
35 154 796
36 650 444
37 931 52
38 377 19
39 178 633
40 917 803
41 871 677
42 667 164
43 208 651
44 35 437
45 503 680
46 462 870
47 322 123
48 677 829
49 878 407
50 223 251
51 671 94
52 218 351
53 375 220
54 367 567
55 986 869
56 236 769
57 202 998
58 761 712
59 75 520
60 14 737
61 895 632
62 224 725
63 328 387
64 36 300
65 817 531
66 31 283
67 209 574
68 490 395
69 659 121
70 410 207
71 768 348
72 873 349
73 439 179
74 51 269
75 886 558
76 151 752
77 208 186
78 897 547
79 469 396
80 607 437
81 202 433
82 642 100
83 180 703
84 873 595
85 103 184
86 466 416
87 71 321
88 8 357
89 51 200
90 899 471
91 67 236
92 482 432
93 991 388
94 933 309
95 649 131
96 497 404
97 626 195
98 776 626
99 624 275
100 55 288
101 877 515
102 821 533
103 456 317
104 625 410
105 662 97
106 733 533
107 499 470
108 766 340
109 206 385
110 822 285
111 571 304
112 934 461
113 533 242
114 442 24
115 303 249
116 675 92
117 467 432
118 575 338
119 385 239
120 272 512
121 567 124
122 379 165
123 610 408
DEMAND_SECTION
2 9
3 8
4 8
5 4
6 4
7 3
8 6
9 10
10 8
11 8
12 3
13 2
14 8
15 4
16 9
17 4
18 6
19 5
20 1
21 2
22 2
23 4
24 2
25 3
26 6
COVERAGE_SECTION
2 11 24 59 19 44 39 67 60 43 83 26 30 
3 11 34 22 48 33 46 58 40 55 41 45 98 
4 10 85 89 91 16 74 77 66 100 64 87 
5 11 96 68 92 86 79 117 107 118 80 103 123 
6 11 103 119 70 53 73 113 79 68 86 96 122 
7 11 54 20 23 8 45 107 29 117 10 92 120 
8 11 54 20 7 120 10 23 30 67 43 39 107 
9 11 116 51 17 105 69 37 42 95 82 31 13 
10 11 120 20 63 8 54 81 27 109 67 52 7 
11 11 78 75 101 90 84 112 12 102 65 61 49 
12 11 102 65 84 75 78 101 18 11 61 98 90 
13 9 110 17 32 94 72 108 71 9 49 
14 11 56 62 35 76 26 83 46 57 30 43 23 
15 11 113 121 73 28 70 97 122 31 6 95 111 
16 10 66 74 91 89 64 100 87 85 88 4 
17 11 32 110 13 42 9 108 71 69 95 97 31 
18 11 98 12 65 102 106 84 75 101 78 61 58 
19 11 59 2 24 44 81 67 39 88 109 27 87 
20 11 54 8 7 10 120 117 107 86 92 23 63 
21 10 50 115 52 77 27 109 53 119 63 47 
22 11 34 33 46 3 48 45 14 23 29 58 57 
23 11 7 45 54 8 20 29 30 62 43 120 56 
24 11 2 59 19 39 44 67 60 43 83 26 76 
25 11 47 38 77 122 114 53 115 70 73 50 28 
26 11 83 76 62 35 43 56 39 30 67 60 14 
27 10 109 52 81 63 21 10 50 120 115 87 
28 11 114 121 15 73 38 82 122 31 70 95 105 
29 11 45 7 23 107 106 80 54 36 20 92 58 
30 11 43 39 62 83 67 26 56 76 8 120 54 
31 11 95 69 82 105 51 42 116 97 121 15 17 
32 8 17 110 108 71 13 72 99 42 
33 11 22 46 34 14 3 57 48 45 56 23 62 
34 11 22 3 33 46 48 45 58 14 29 23 40 
35 11 76 26 56 83 62 14 60 43 30 39 57 
36 7 104 80 123 106 118 5 71 
37 11 9 13 17 94 110 116 51 32 105 69 42 
38 11 114 25 47 28 122 73 70 53 15 121 119 
39 11 43 30 67 83 26 62 76 24 2 56 59 
40 11 55 41 61 58 84 98 48 75 12 78 18 
41 11 61 84 98 12 58 75 78 18 40 11 102 
42 11 95 31 69 97 105 82 51 116 121 17 99 
43 11 30 39 83 62 67 26 76 56 120 8 35 
44 10 88 19 59 87 2 64 100 24 66 81 
45 11 29 23 7 54 8 46 20 107 48 92 117 
46 11 33 22 34 14 45 23 48 56 3 29 62 
47 11 122 25 53 38 70 115 73 77 119 114 21 
48 11 58 3 34 22 46 98 29 45 40 41 33 
49 8 72 90 112 101 94 93 71 11 
50 10 21 77 115 52 27 109 85 53 91 47 
51 11 116 105 69 82 31 95 42 121 97 9 17 
52 10 27 109 81 21 50 63 115 87 10 77 
53 11 119 70 122 73 115 6 47 103 21 15 50 
54 11 8 20 7 23 10 120 67 30 107 117 45 
55 11 40 41 61 58 84 48 3 98 75 78 12 
56 11 62 14 26 35 76 83 30 43 39 67 23 
57 11 14 35 56 76 33 62 26 46 83 60 22 
58 11 98 41 18 48 61 84 12 40 106 65 102 
59 11 19 2 24 44 67 39 81 88 43 109 120 
60 11 76 35 24 26 83 2 39 62 43 56 59 
61 11 84 41 75 78 12 11 101 98 102 18 65 
62 11 56 83 26 30 43 76 35 39 14 67 8 
63 11 10 27 52 109 81 120 21 115 79 86 6 
64 10 66 100 74 87 16 88 91 89 85 44 
65 10 102 12 101 18 75 78 106 84 11 90 
66 10 64 74 100 16 87 91 88 89 85 44 
67 11 39 43 30 120 83 8 19 81 10 59 62 
68 11 96 79 5 86 92 117 107 103 118 6 123 
69 11 95 31 105 82 51 116 42 97 121 9 17 
70 11 53 73 119 122 6 15 115 103 47 113 28 
71 6 108 32 110 72 49 17 
72 9 49 94 110 71 108 13 93 90 112 
73 11 70 122 15 53 119 6 113 28 47 103 121 
74 10 100 66 64 91 16 87 89 88 85 4 
75 11 78 11 84 101 12 102 65 61 90 112 18 
76 11 26 35 83 62 56 43 39 30 60 14 67 
77 10 50 21 85 115 47 91 4 25 89 52 
78 11 75 11 101 84 12 90 102 65 61 112 18 
79 11 86 68 96 117 5 92 103 107 6 118 111 
80 9 123 104 36 118 5 107 96 68 92 
81 10 109 27 52 120 10 63 19 67 59 44 
82 11 105 31 69 51 95 116 42 121 97 15 9 
83 11 26 62 76 43 39 30 56 35 67 14 24 
84 11 75 61 12 78 11 101 102 41 65 18 98 
85 10 89 91 4 74 77 16 100 66 64 50 
86 11 117 79 92 68 96 5 107 103 6 118 20 
87 10 100 64 66 74 88 91 16 44 89 85 
88 10 64 87 66 100 44 74 16 91 89 19 
89 10 91 85 16 74 4 66 100 64 87 77 
90 11 112 101 11 49 78 75 102 65 12 93 72 
91 10 74 89 100 16 66 85 64 87 4 88 
92 11 117 86 5 96 68 79 107 103 80 123 118 
93 10 112 94 49 72 90 11 101 78 110 75 
94 10 72 93 13 49 110 112 90 71 108 32 
95 11 31 69 82 105 42 51 116 97 121 15 17 
96 11 68 5 79 92 86 117 107 103 118 123 80 
97 11 42 95 31 99 69 121 82 105 113 51 15 
98 11 18 58 12 84 106 65 102 41 61 75 78 
99 11 111 97 118 113 42 123 104 32 95 15 31 
100 10 74 64 66 87 91 16 88 89 85 44 
101 11 11 78 75 90 102 65 12 112 84 49 61 
102 10 65 12 101 18 75 78 84 11 106 90 
103 11 6 79 68 96 86 119 113 5 111 117 92 
104 9 123 80 36 118 111 5 96 99 68 
105 11 51 116 82 69 31 95 42 121 97 9 17 
106 7 18 65 102 98 12 36 101 
107 11 92 117 5 86 96 68 79 80 123 20 7 
108 6 71 32 110 72 17 49 
109 10 27 52 81 63 21 50 10 120 87 115 
110 8 32 13 108 72 71 17 94 49 
111 11 118 99 113 123 103 104 68 97 96 5 79 
112 11 90 11 49 101 93 78 75 72 102 65 12 
113 11 15 111 99 97 118 103 6 73 121 70 119 
114 11 38 28 122 73 47 121 25 15 70 53 82 
115 11 21 53 50 119 122 77 70 47 52 6 63 
116 11 51 105 69 82 31 95 42 121 97 9 17 
117 11 92 86 79 5 96 68 107 103 20 80 118 
118 11 111 123 99 104 68 96 80 113 5 79 103 
119 11 53 70 6 122 73 115 103 47 21 15 113 
120 11 10 67 8 81 20 54 27 63 109 30 39 
121 11 15 31 82 95 28 69 97 105 42 51 116 
122 11 70 53 73 47 119 115 6 15 38 28 114 
123 10 104 80 36 118 5 111 96 68 107 92 
DEPOT_SECTION
   1
   -1
EOF
