NAME :  X-n101-kX-w10-c7.cctp
COMMENT : 	Adapted by Maziero, Usberti and Cavellucci from the Uchoa, Pecin, Pessoa, Poggi, Subramanian, and Vidal (2013)
TYPE :  CCTP
DIMENSION :    51
EDGE_WEIGHT_TYPE : 	EUC_2D	
CAPACITY : 	206
VERTICES_WITHIN_COVERAGE :  7
VERTICES_WITH_DEMAND : 	10
NODE_COORD_SECTION
1 365 689
2 146 180
3 792 5
4 658 510
5 461 270
6 299 531
7 812 228
8 643 90
9 615 630
10 258 42
11 616 299
12 425 473
13 202 467
14 318 21
15 579 587
16 458 354
17 47 512
18 568 742
19 128 436
20 197 696
21 615 300
22 916 176
23 584 572
24 134 554
25 912 173
26 827 233
27 598 322
28 627 472
29 94 442
30 688 274
31 977 176
32 597 461
33 931 23
34 170 640
35 797 95
36 260 107
37 332 45
38 685 613
39 635 356
40 634 540
41 658 261
42 346 29
43 75 79
44 356 39
45 704 236
46 576 587
47 199 135
48 268 97
49 688 588
50 708 522
51 615 750
DEMAND_SECTION
2 38
3 51
4 73
5 70
6 58
7 54
8 1
9 98
10 62
11 98
COVERAGE_SECTION
2 4 47 43 36 48 
3 7 35 33 8 25 22 7 26 
4 5 40 28 50 32 49 
5 6 16 27 21 11 39 41 
6 6 13 12 24 34 20 19 
7 7 26 45 25 22 30 35 41 
8 7 35 45 3 41 30 11 21 
9 7 15 46 23 38 49 40 51 
10 5 48 14 36 37 42 
11 5 21 27 41 39 30 
12 6 16 6 32 23 46 15 
13 7 19 24 29 6 17 34 12 
14 5 37 42 44 10 48 
15 7 46 23 9 40 38 49 4 
16 6 5 12 27 21 11 32 
17 7 29 24 19 13 34 20 6 
18 3 51 9 15 
19 7 29 13 17 24 6 34 2 
20 4 34 24 6 13 
21 5 11 27 41 39 30 
22 7 25 31 26 7 35 33 3 
23 7 15 46 40 9 4 49 28 
24 7 34 17 13 19 29 20 6 
25 7 22 31 26 7 35 33 3 
26 7 7 25 22 45 35 30 31 
27 4 21 11 39 41 
28 4 32 4 40 50 
29 7 19 17 13 24 34 6 2 
30 5 41 45 11 21 39 
31 7 22 25 26 33 7 35 3 
32 3 28 4 40 
33 7 3 25 35 22 31 26 7 
34 5 20 24 6 13 17 
35 7 3 7 25 26 22 33 8 
36 3 48 10 47 
37 4 42 44 14 10 
38 7 49 9 40 50 4 15 23 
39 3 27 21 11 
40 7 4 23 28 15 49 46 50 
41 6 30 45 11 21 27 39 
42 4 44 37 14 10 
43 5 2 47 10 36 48 
44 4 42 37 14 10 
45 6 30 41 7 11 21 26 
46 7 15 23 9 40 4 38 49 
47 4 36 2 48 10 
48 2 36 10 
49 7 38 50 40 4 9 23 15 
50 5 4 49 40 38 28 
51 3 18 9 38 
DEPOT_SECTION
   1
   -1
EOF
