NAME :  X-n153-kX-w30-c9.cctp
COMMENT : 	Adapted by Maziero, Usberti and Cavellucci from the Uchoa, Pecin, Pessoa, Poggi, Subramanian, and Vidal (2013)
TYPE :  CCTP
DIMENSION :    135
EDGE_WEIGHT_TYPE : 	EUC_2D	
CAPACITY : 	144
VERTICES_WITHIN_COVERAGE :  9
VERTICES_WITH_DEMAND : 	30
NODE_COORD_SECTION
1 500 500
2 238 446
3 749 750
4 960 879
5 955 866
6 202 336
7 720 788
8 695 743
9 739 603
10 217 419
11 922 870
12 703 733
13 843 856
14 233 682
15 259 459
16 226 305
17 732 722
18 747 858
19 949 784
20 904 891
21 880 795
22 591 661
23 984 926
24 246 438
25 183 501
26 546 966
27 742 771
28 110 698
29 193 441
30 215 388
31 232 516
32 907 954
33 133 526
34 750 680
35 103 488
36 663 731
37 754 821
38 280 456
39 236 424
40 287 454
41 598 728
42 996 821
43 744 473
44 887 907
45 286 422
46 272 484
47 939 892
48 631 723
49 769 768
50 977 840
51 639 736
52 727 765
53 950 896
54 206 433
55 207 535
56 164 586
57 754 691
58 662 768
59 348 308
60 254 455
61 130 482
62 764 726
63 713 758
64 965 934
65 693 734
66 890 801
67 727 808
68 955 756
69 249 552
70 188 479
71 187 506
72 901 767
73 664 770
74 558 530
75 714 742
76 979 683
77 200 416
78 294 391
79 240 449
80 735 633
81 944 952
82 157 421
83 768 750
84 813 936
85 534 720
86 986 914
87 963 798
88 175 397
89 972 940
90 184 561
91 859 770
92 661 762
93 298 469
94 14 438
95 275 561
96 856 919
97 219 453
98 272 465
99 294 296
100 754 775
101 229 467
102 946 778
103 711 803
104 858 879
105 665 347
106 981 802
107 924 973
108 267 545
109 760 764
110 942 894
111 219 465
112 665 756
113 92 212
114 920 940
115 937 814
116 281 489
117 669 647
118 308 309
119 998 876
120 900 910
121 753 900
122 209 467
123 991 966
124 766 729
125 897 957
126 224 368
127 707 703
128 280 450
129 252 462
130 717 683
131 458 236
132 278 356
133 144 446
134 991 818
135 831 812
DEMAND_SECTION
2 92
3 90
4 65
5 80
6 69
7 64
8 73
9 96
10 74
11 81
12 67
13 58
14 79
15 85
16 57
17 90
18 84
19 84
20 92
21 87
22 95
23 66
24 86
25 90
26 94
27 84
28 98
29 65
30 68
31 73
COVERAGE_SECTION
2 9 79 24 60 97 129 39 101 15 111 
3 9 109 83 27 100 49 52 124 62 17 
4 9 5 53 110 47 119 11 50 86 23 
5 9 4 53 47 110 11 50 119 115 20 
6 9 16 126 30 88 132 77 10 39 82 
7 9 103 67 52 27 63 100 75 37 109 
8 9 65 12 75 63 112 36 52 92 58 
9 6 80 34 117 130 57 127 
10 9 77 54 39 30 29 2 97 24 79 
11 9 20 47 110 5 53 4 120 44 115 
12 9 65 8 75 63 127 17 36 52 112 
13 9 104 135 96 44 20 21 66 120 11 
14 9 56 28 95 69 90 108 55 31 71 
15 9 60 129 98 38 79 128 2 24 40 
16 9 6 126 99 132 118 30 88 78 10 
17 9 75 12 127 62 3 124 57 63 65 
18 9 37 121 67 103 7 100 27 49 52 
19 9 102 87 68 115 106 72 134 42 66 
20 9 120 44 11 47 110 53 104 114 96 
21 9 66 91 72 135 115 102 19 13 87 
22 9 41 48 117 85 51 36 112 92 127 
23 9 86 89 64 123 53 81 119 4 110 
24 9 2 79 39 60 15 129 97 101 10 
25 9 71 70 55 122 31 111 33 61 101 
26 9 121 18 58 73 103 92 67 112 41 
27 9 100 52 109 3 49 7 63 83 67 
28 9 14 56 90 33 55 69 71 25 35 
29 9 54 77 97 122 10 111 70 82 101 
30 9 126 10 77 88 39 54 6 29 24 
31 9 55 69 108 71 101 25 46 111 122 
32 9 125 114 107 81 120 44 64 96 20 
33 9 61 35 25 71 90 56 70 55 133 
34 7 57 130 17 62 80 127 124 
35 9 61 33 133 25 70 71 82 29 94 
36 9 51 112 65 92 48 8 58 73 12 
37 9 67 18 100 7 103 27 49 109 52 
38 9 128 40 98 15 93 60 46 129 116 
39 9 24 10 2 79 54 97 60 77 129 
40 9 38 128 93 98 15 45 60 46 116 
41 9 48 51 85 36 22 92 112 58 73 
42 9 134 106 50 87 119 115 19 5 102 
43 5 9 105 80 117 74 
44 9 120 20 96 104 114 11 32 125 47 
45 9 128 40 78 38 24 98 15 60 93 
46 9 116 98 15 38 93 129 40 60 128 
47 9 110 53 4 11 5 20 120 64 86 
48 9 51 36 41 112 92 58 73 65 8 
49 9 109 100 83 3 27 124 52 62 7 
50 9 134 42 5 106 119 4 87 115 53 
51 9 48 36 112 92 58 41 73 65 8 
52 9 27 63 7 75 3 100 109 8 12 
53 9 110 47 4 5 11 86 64 23 20 
54 9 29 10 77 97 39 122 2 111 79 
55 9 31 71 90 25 69 70 108 56 122 
56 9 90 55 33 71 25 69 31 61 70 
57 7 34 62 17 130 124 127 3 
58 9 73 92 112 36 51 8 65 63 12 
59 8 118 99 132 78 16 45 131 126 
60 9 15 129 79 2 24 98 38 128 101 
61 9 35 133 33 25 70 71 82 29 122 
62 7 124 83 3 17 57 109 49 
63 9 52 75 8 12 7 65 27 3 17 
64 9 89 23 81 86 53 123 114 110 47 
65 9 8 12 75 36 63 127 112 17 92 
66 9 21 72 91 115 135 19 102 13 87 
67 9 103 7 37 27 52 100 63 18 109 
68 9 102 19 87 106 72 115 134 42 76 
69 9 108 95 31 55 90 116 46 71 25 
70 9 25 122 71 111 29 97 101 54 133 
71 9 25 70 55 122 31 111 90 101 33 
72 8 21 66 91 102 19 68 115 87 
73 9 58 92 112 36 8 51 65 63 12 
74 7 22 117 85 9 43 41 80 
75 9 12 63 8 65 52 17 3 27 127 
76 6 68 102 19 72 87 106 
77 9 10 54 29 88 30 39 97 82 2 
78 8 45 132 128 40 38 24 39 126 
79 9 2 24 60 129 15 97 101 39 111 
80 6 9 34 130 57 117 127 
81 9 114 64 107 89 32 125 23 123 53 
82 9 133 88 29 77 54 10 70 30 61 
83 9 109 49 3 124 62 100 27 52 17 
84 9 96 121 104 44 13 125 120 32 18 
85 9 41 22 48 51 36 92 112 58 73 
86 9 23 64 89 53 119 4 110 47 123 
87 9 106 19 102 115 134 42 68 50 5 
88 9 82 77 30 10 29 54 126 133 6 
89 9 64 23 81 86 123 53 114 110 47 
90 9 56 55 71 25 33 31 69 70 108 
91 5 21 72 66 135 13 
92 9 58 112 73 36 51 8 65 48 12 
93 8 40 38 98 116 128 46 15 60 
94 9 35 61 133 82 33 88 29 70 25 
95 9 108 69 31 116 55 46 90 93 98 
96 9 44 104 120 84 20 125 32 13 114 
97 9 111 101 122 2 79 54 29 24 10 
98 9 38 15 128 40 46 129 60 93 116 
99 8 118 59 132 16 78 6 126 30 
100 9 27 109 49 3 52 83 7 67 63 
101 9 111 97 122 79 2 129 60 15 24 
102 9 19 68 87 115 106 72 134 66 42 
103 9 7 67 52 27 63 37 100 73 58 
104 9 13 44 96 20 120 11 135 84 47 
105 7 43 74 131 9 80 117 59 
106 9 87 134 42 19 50 102 115 68 5 
107 9 32 81 125 114 64 89 120 123 23 
108 9 95 69 31 116 46 55 98 93 129 
109 9 49 100 83 3 27 52 124 62 7 
110 9 47 53 4 5 11 20 120 64 86 
111 9 101 122 97 79 2 129 70 29 54 
112 9 92 58 73 36 8 51 65 12 48 
113 9 16 6 88 126 30 82 99 77 132 
114 9 32 81 125 107 120 64 44 110 20 
115 9 87 19 102 106 50 66 134 5 11 
116 9 46 93 98 38 40 15 128 129 60 
117 9 130 80 127 22 9 36 48 34 65 
118 8 99 59 132 16 78 126 6 45 
119 9 4 86 50 5 23 53 42 134 110 
120 9 44 20 114 47 32 96 110 11 125 
121 9 18 84 37 67 13 96 103 104 7 
122 9 111 97 101 70 29 54 2 79 25 
123 9 89 23 64 81 86 107 114 53 32 
124 7 62 83 3 17 109 49 57 
125 9 32 114 107 81 120 44 96 20 64 
126 9 30 6 10 77 132 39 88 16 54 
127 9 130 12 17 65 75 8 34 57 36 
128 9 38 40 98 15 60 93 45 129 46 
129 9 60 15 79 98 2 101 24 38 46 
130 9 127 34 57 17 12 80 65 75 117 
131 7 59 118 99 132 78 105 16 
132 9 78 126 118 99 45 30 16 6 39 
133 9 82 61 29 70 88 35 54 77 25 
134 9 42 106 50 87 19 115 119 5 102 
135 8 13 91 21 66 104 49 37 72 
DEPOT_SECTION
   1
   -1
EOF
