NAME :  X-n176-kX-w70-c7.cctp
COMMENT : 	Adapted by Maziero, Usberti and Cavellucci from the Uchoa, Pecin, Pessoa, Poggi, Subramanian, and Vidal (2013)
TYPE :  CCTP
DIMENSION :    176
EDGE_WEIGHT_TYPE : 	EUC_2D	
CAPACITY : 	142
VERTICES_WITHIN_COVERAGE :  7
VERTICES_WITH_DEMAND : 	70
NODE_COORD_SECTION
1 0 0
2 628 103
3 291 573
4 129 447
5 973 643
6 830 868
7 398 563
8 731 423
9 201 995
10 167 174
11 13 605
12 446 262
13 229 774
14 740 231
15 21 546
16 224 615
17 605 837
18 473 759
19 758 880
20 93 900
21 580 935
22 622 494
23 513 236
24 659 797
25 606 204
26 267 688
27 28 888
28 606 754
29 841 676
30 823 611
31 1 247
32 195 486
33 644 771
34 524 45
35 581 366
36 769 471
37 78 800
38 940 790
39 867 441
40 243 453
41 410 464
42 465 161
43 417 304
44 616 944
45 609 356
46 822 489
47 738 932
48 462 718
49 847 459
50 563 619
51 792 940
52 434 318
53 1000 647
54 566 413
55 492 83
56 764 550
57 145 182
58 540 249
59 208 760
60 759 988
61 66 221
62 520 521
63 260 508
64 307 468
65 747 308
66 370 136
67 421 505
68 373 597
69 876 881
70 281 18
71 419 69
72 502 242
73 343 764
74 275 610
75 434 161
76 314 40
77 744 675
78 698 364
79 600 881
80 9 893
81 875 724
82 728 253
83 502 969
84 867 464
85 237 907
86 868 263
87 680 306
88 740 688
89 534 615
90 450 898
91 126 415
92 565 260
93 172 126
94 137 674
95 789 958
96 853 147
97 762 111
98 416 626
99 63 237
100 194 75
101 616 133
102 104 804
103 304 699
104 758 40
105 249 141
106 848 770
107 316 426
108 791 803
109 884 980
110 618 107
111 858 644
112 116 388
113 939 880
114 217 912
115 138 217
116 639 588
117 542 965
118 775 294
119 325 154
120 839 459
121 21 751
122 248 883
123 34 101
124 274 824
125 408 641
126 923 320
127 838 846
128 83 772
129 938 432
130 913 766
131 758 816
132 481 156
133 548 809
134 660 393
135 773 579
136 261 97
137 380 849
138 433 893
139 312 347
140 295 480
141 277 519
142 833 970
143 760 470
144 33 455
145 289 176
146 283 845
147 953 937
148 2 939
149 164 71
150 539 756
151 679 880
152 309 113
153 857 842
154 184 455
155 181 70
156 136 928
157 23 17
158 127 710
159 657 422
160 248 593
161 525 519
162 109 805
163 754 487
164 484 90
165 923 157
166 195 38
167 74 961
168 261 663
169 984 135
170 281 227
171 673 176
172 78 322
173 177 543
174 590 199
175 559 609
176 9 343
DEMAND_SECTION
2 94
3 65
4 69
5 89
6 74
7 95
8 87
9 96
10 56
11 94
12 79
13 91
14 75
15 54
16 97
17 93
18 81
19 100
20 75
21 56
22 71
23 100
24 54
25 100
26 62
27 51
28 58
29 79
30 65
31 52
32 65
33 65
34 59
35 77
36 89
37 66
38 71
39 10
40 10
41 1
42 9
43 4
44 9
45 8
46 4
47 8
48 7
49 9
50 10
51 6
52 2
53 6
54 9
55 5
56 3
57 4
58 5
59 6
60 6
61 6
62 1
63 8
64 9
65 6
66 5
67 8
68 5
69 9
70 2
71 3
COVERAGE_SECTION
2 7 110 101 171 25 174 34 97 
3 7 74 160 141 63 16 68 140 
4 7 91 154 112 32 144 173 40 
5 7 53 111 81 29 130 38 30 
6 7 127 153 69 19 108 51 131 
7 7 68 67 98 125 41 3 62 
8 7 143 36 78 163 159 134 46 
9 7 114 156 85 122 167 20 146 
10 7 57 93 115 105 100 149 155 
11 7 15 94 121 144 158 173 128 
12 7 43 52 72 23 58 75 42 
13 7 59 124 146 26 103 122 73 
14 7 82 118 65 171 87 97 86 
15 7 11 144 4 173 91 94 32 
16 7 160 74 168 3 26 173 94 
17 7 79 133 24 33 28 151 21 
18 7 48 150 133 137 73 28 125 
19 7 47 131 51 6 151 95 108 
20 7 156 167 27 80 162 102 148 
21 7 44 117 79 83 17 151 133 
22 7 159 116 54 161 62 134 8 
23 7 72 58 92 12 174 132 42 
24 7 33 17 28 151 131 79 133 
25 7 174 92 101 171 58 23 110 
26 7 168 103 74 16 59 13 160 
27 7 80 148 20 167 37 102 156 
28 7 33 150 24 133 17 79 18 
29 7 111 81 30 106 77 88 130 
30 7 111 135 29 56 77 88 46 
31 7 99 61 176 172 115 123 57 
32 7 154 40 173 63 4 141 91 
33 7 24 28 17 133 150 151 79 
34 7 55 164 71 110 2 132 101 
35 7 45 54 134 159 92 87 78 
36 7 143 163 46 8 120 49 56 
37 7 102 128 162 121 20 27 158 
38 7 130 113 81 106 153 69 127 
39 7 84 49 120 46 129 36 143 
40 7 32 63 140 154 64 141 107 
41 7 67 7 107 64 140 62 161 
42 7 132 75 164 55 23 72 66 
43 7 52 12 72 139 23 58 75 
44 7 21 79 117 151 17 83 47 
45 7 35 134 54 159 87 78 92 
46 7 120 49 84 36 143 39 163 
47 7 51 19 95 60 151 142 6 
48 7 18 150 125 98 133 89 73 
49 7 120 84 39 46 36 143 129 
50 7 175 89 116 62 161 22 150 
51 7 95 142 47 60 19 6 109 
52 7 43 12 72 23 139 58 92 
53 7 5 111 81 130 38 29 30 
54 7 35 45 159 134 22 161 62 
55 7 164 34 71 132 42 75 110 
56 7 135 163 36 143 46 30 120 
57 7 10 115 93 61 99 105 149 
58 7 92 23 72 174 25 12 132 
59 7 13 124 26 158 162 168 94 
60 7 95 51 47 142 19 109 151 
61 7 99 31 115 57 172 10 123 
62 7 161 89 175 67 22 50 54 
63 7 141 140 40 64 32 3 160 
64 7 140 107 141 63 40 41 3 
65 7 118 82 87 78 14 8 134 
66 7 119 152 75 71 145 42 76 
67 7 41 7 62 68 161 64 98 
68 7 7 98 125 3 74 67 103 
69 7 153 6 127 113 147 109 142 
70 7 76 136 166 152 100 155 105 
71 7 164 55 66 75 42 132 34 
72 7 23 58 12 92 42 132 174 
73 7 103 124 137 146 26 13 48 
74 7 160 3 16 168 26 141 103 
75 7 42 132 66 164 71 55 12 
76 7 70 152 136 71 66 119 166 
77 7 88 29 135 30 111 56 108 
78 7 134 87 8 159 65 45 118 
79 7 17 21 44 151 133 117 24 
80 7 27 148 20 167 37 102 156 
81 7 106 130 29 111 38 108 153 
82 7 14 65 118 87 171 78 25 
83 7 117 21 90 138 44 79 133 
84 7 49 39 120 46 129 36 143 
85 7 114 122 146 124 9 156 13 
86 7 126 118 96 165 65 14 82 
87 7 78 65 82 45 134 14 118 
88 7 77 29 30 135 108 111 33 
89 7 175 50 62 161 116 98 48 
90 7 138 137 83 117 133 21 18 
91 7 112 4 154 32 144 172 40 
92 7 58 23 72 174 25 45 35 
93 7 10 100 149 155 57 105 166 
94 7 158 16 59 128 168 26 102 
95 7 51 60 142 47 19 109 6 
96 7 165 97 86 169 14 104 82 
97 7 104 96 171 14 2 110 82 
98 7 125 68 7 48 89 67 103 
99 7 61 31 115 172 57 176 10 
100 7 155 149 166 93 136 105 10 
101 7 110 2 171 174 25 34 55 
102 7 162 37 128 20 158 121 27 
103 7 26 168 73 74 13 59 16 
104 7 97 96 2 110 171 101 14 
105 7 136 145 152 119 93 100 10 
106 7 81 130 108 153 127 29 38 
107 7 64 140 40 139 63 41 141 
108 7 131 127 106 6 153 19 69 
109 7 142 147 95 69 51 113 6 
110 7 2 101 171 174 25 34 55 
111 7 29 30 81 135 5 77 88 
112 7 91 4 172 154 144 176 32 
113 7 147 69 38 153 127 6 109 
114 7 85 122 156 9 146 124 20 
115 7 57 10 61 99 93 172 105 
116 7 50 175 22 89 56 161 135 
117 7 83 21 44 79 90 138 17 
118 7 65 82 14 87 86 78 8 
119 7 145 152 66 105 170 136 75 
120 7 49 84 39 46 36 143 163 
121 7 128 37 102 162 158 27 94 
122 7 85 114 146 124 13 9 156 
123 7 157 61 149 57 99 93 31 
124 7 146 122 13 73 85 59 114 
125 7 98 68 7 48 103 89 3 
126 7 86 129 39 118 84 49 120 
127 7 153 6 69 108 106 131 19 
128 7 37 102 162 121 158 94 59 
129 7 39 84 49 120 126 46 36 
130 7 38 81 106 153 127 29 113 
131 7 108 19 127 6 24 106 151 
132 7 42 75 164 55 23 72 71 
133 7 150 17 28 79 18 33 24 
134 7 159 78 45 8 35 87 54 
135 7 56 30 163 77 46 111 36 
136 7 105 152 100 76 70 145 155 
137 7 138 90 73 146 124 18 122 
138 7 90 137 83 117 18 133 21 
139 7 107 43 64 170 52 40 140 
140 7 64 141 63 107 40 3 32 
141 7 63 140 3 64 40 160 32 
142 7 95 51 109 60 69 6 47 
143 7 36 163 8 46 56 120 49 
144 7 15 4 91 112 176 172 11 
145 7 119 170 105 152 136 66 10 
146 7 124 122 85 13 114 137 73 
147 7 113 109 69 142 153 6 127 
148 7 80 27 167 20 156 37 102 
149 7 155 100 166 93 136 10 105 
150 7 133 18 28 48 17 33 24 
151 7 19 47 79 24 17 44 131 
152 7 119 136 66 105 145 76 70 
153 7 127 6 69 106 108 113 130 
154 7 32 4 40 91 173 63 112 
155 7 100 149 166 93 136 105 10 
156 7 20 167 114 9 85 27 122 
157 7 123 149 155 166 100 93 57 
158 7 94 128 59 102 162 37 121 
159 7 134 78 8 22 45 54 35 
160 7 74 16 3 168 141 63 173 
161 7 62 89 175 22 67 50 54 
162 7 102 37 128 20 158 121 59 
163 7 143 36 56 8 46 120 135 
164 7 55 34 132 71 42 75 66 
165 7 169 96 86 126 97 14 104 
166 7 155 100 149 70 136 93 105 
167 7 20 156 148 27 80 9 114 
168 7 26 74 103 16 160 3 59 
169 7 165 96 86 126 97 104 14 
170 7 145 119 105 152 139 10 66 
171 7 101 25 2 174 14 110 82 
172 7 176 112 99 61 91 31 115 
173 7 32 16 160 154 63 141 4 
174 7 25 92 58 101 23 171 110 
175 7 50 89 116 62 161 22 98 
176 7 172 31 144 112 99 61 91 
DEPOT_SECTION
   1
   -1
EOF
