NAME :  X-n186-kX-w37-c11.cctp
COMMENT : 	Adapted by Maziero, Usberti and Cavellucci from the Uchoa, Pecin, Pessoa, Poggi, Subramanian, and Vidal (2013)
TYPE :  CCTP
DIMENSION :    177
EDGE_WEIGHT_TYPE : 	EUC_2D	
CAPACITY : 	974
VERTICES_WITHIN_COVERAGE :  11
VERTICES_WITH_DEMAND : 	37
NODE_COORD_SECTION
1 159 917
2 635 200
3 278 907
4 875 93
5 10 732
6 586 657
7 482 75
8 526 176
9 153 622
10 452 945
11 456 137
12 884 968
13 688 793
14 117 915
15 149 746
16 495 325
17 539 967
18 917 58
19 590 316
20 611 998
21 963 878
22 141 5
23 383 531
24 685 124
25 39 781
26 534 29
27 213 837
28 874 734
29 180 943
30 789 541
31 343 949
32 537 248
33 626 147
34 56 596
35 112 344
36 738 977
37 941 193
38 437 386
39 743 623
40 521 398
41 488 747
42 521 778
43 90 89
44 716 652
45 333 12
46 244 424
47 199 115
48 83 719
49 126 148
50 789 437
51 504 704
52 933 949
53 232 78
54 382 130
55 346 2
56 61 985
57 357 505
58 199 892
59 930 154
60 400 95
61 148 261
62 41 527
63 29 335
64 913 885
65 293 784
66 102 962
67 372 866
68 144 223
69 684 899
70 402 636
71 138 705
72 715 745
73 914 323
74 287 3
75 461 953
76 780 165
77 935 38
78 927 350
79 754 709
80 784 423
81 849 726
82 74 778
83 628 487
84 362 568
85 898 759
86 563 171
87 721 637
88 136 83
89 341 955
90 892 938
91 671 542
92 659 306
93 805 670
94 930 778
95 791 763
96 641 347
97 846 685
98 598 253
99 45 585
100 654 70
101 887 421
102 310 854
103 527 787
104 602 66
105 878 10
106 351 797
107 995 987
108 697 200
109 722 246
110 847 208
111 577 295
112 102 478
113 899 185
114 123 601
115 230 342
116 438 547
117 968 649
118 214 379
119 242 769
120 66 727
121 354 338
122 725 735
123 632 849
124 411 272
125 481 165
126 121 414
127 492 78
128 794 406
129 736 937
130 701 496
131 87 12
132 963 619
133 61 688
134 387 244
135 740 242
136 209 571
137 631 208
138 643 521
139 280 11
140 226 40
141 161 296
142 839 54
143 814 504
144 967 668
145 236 704
146 218 618
147 526 667
148 87 981
149 768 197
150 976 122
151 177 712
152 449 902
153 492 63
154 761 122
155 609 621
156 614 240
157 478 599
158 175 312
159 239 636
160 347 199
161 619 620
162 275 24
163 565 769
164 120 871
165 140 957
166 68 736
167 661 294
168 604 737
169 91 956
170 16 561
171 680 254
172 852 978
173 533 757
174 352 957
175 409 939
176 630 902
177 487 220
DEMAND_SECTION
2 74
3 74
4 80
5 85
6 99
7 81
8 85
9 100
10 74
11 57
12 60
13 74
14 60
15 77
16 72
17 87
18 89
19 53
20 72
21 62
22 53
23 54
24 98
25 65
26 72
27 81
28 84
29 64
30 52
31 60
32 95
33 55
34 79
35 97
36 51
37 93
38 50
COVERAGE_SECTION
2 11 137 156 33 108 98 171 86 24 109 167 32 
3 11 102 31 89 58 174 27 67 29 65 106 175 
4 11 142 18 77 59 105 113 150 110 154 76 37 
5 11 120 25 166 133 48 82 71 15 34 99 151 
6 11 155 161 147 168 51 173 163 157 44 41 87 
7 11 127 153 11 26 60 125 8 54 104 86 177 
8 11 86 125 177 32 11 33 127 98 156 7 137 
9 11 114 146 136 71 159 151 34 133 99 145 48 
10 10 75 152 175 17 174 31 89 67 20 102 
11 11 125 7 127 60 54 8 153 177 86 160 134 
12 11 90 172 52 64 107 21 36 129 94 85 69 
13 11 72 122 123 168 69 79 95 176 163 44 129 
14 11 164 165 66 169 29 148 58 56 27 82 25 
15 11 71 151 48 82 166 120 119 145 133 27 25 
16 11 40 38 111 32 19 124 177 98 134 121 156 
17 11 20 75 10 152 176 175 123 69 103 174 42 
18 11 77 4 105 142 150 59 113 37 110 154 76 
19 11 111 96 98 92 167 156 32 16 40 171 137 
20 11 17 176 69 36 129 123 75 10 152 175 13 
21 11 64 52 90 94 107 12 85 172 28 81 95 
22 10 131 88 140 43 53 47 162 139 49 74 
23 11 57 84 116 70 157 38 46 159 136 146 40 
24 11 100 33 154 108 2 137 104 76 149 109 135 
25 11 82 166 5 120 48 133 15 164 71 151 14 
26 11 153 127 7 104 100 11 86 125 8 60 33 
27 11 58 119 3 65 102 164 15 29 14 151 145 
28 11 81 85 97 94 95 93 144 79 117 132 122 
29 11 165 58 14 66 169 164 148 3 27 56 102 
30 11 143 39 130 50 80 87 91 93 44 128 138 
31 11 89 174 175 3 67 102 10 152 75 106 58 
32 11 177 98 111 8 156 86 19 16 125 137 2 
33 11 2 137 24 86 100 104 108 156 8 98 171 
34 11 99 170 114 62 133 9 48 112 120 71 166 
35 10 141 126 158 63 61 118 115 68 112 46 
36 11 129 69 172 20 176 12 90 123 13 52 64 
37 11 59 113 150 110 4 73 18 77 78 76 142 
38 11 16 40 121 124 57 134 23 116 111 19 32 
39 11 87 44 93 79 30 91 122 97 161 72 130 
40 11 16 38 19 111 96 83 32 98 92 124 116 
41 9 42 51 173 103 163 147 168 6 70 
42 10 103 173 41 163 51 168 147 123 6 152 
43 9 88 49 131 22 47 53 68 140 61 
44 11 87 39 79 122 93 72 161 155 91 6 30 
45 10 55 74 139 162 60 140 53 54 7 153 
46 11 118 115 126 158 57 121 136 112 141 35 23 
47 8 53 88 49 140 43 162 68 22 
48 11 120 166 133 71 82 15 5 25 151 9 114 
49 10 88 43 68 47 61 53 131 22 140 141 
50 8 80 128 143 101 30 130 91 78 
51 10 147 41 173 42 103 163 6 168 157 70 
52 11 90 12 64 107 21 172 94 85 36 129 28 
53 8 140 47 162 139 74 88 22 45 
54 9 60 11 160 125 7 134 127 45 153 
55 10 45 74 139 162 60 140 54 53 7 153 
56 11 148 169 66 165 14 29 164 58 25 82 27 
57 11 23 84 116 46 70 38 157 136 121 159 146 
58 11 29 27 3 164 14 165 102 66 169 119 65 
59 11 37 113 150 4 18 110 77 142 76 105 149 
60 10 54 11 7 127 153 45 125 55 160 162 
61 9 141 68 158 35 49 115 118 63 47 
62 11 170 99 34 112 114 126 9 133 136 63 35 
63 11 35 126 141 61 158 68 112 118 62 115 49 
64 11 21 90 52 12 94 172 85 107 28 81 95 
65 9 119 106 102 27 145 67 3 151 58 
66 11 169 148 165 56 14 29 164 58 27 3 82 
67 10 102 106 175 152 31 174 89 3 10 65 
68 9 61 141 49 158 47 35 88 43 115 
69 11 176 129 123 36 13 20 72 17 122 95 163 
70 8 84 157 116 23 51 147 57 41 
71 11 151 15 48 120 166 133 9 82 145 114 146 
72 11 122 79 13 95 44 87 168 93 39 123 81 
73 9 78 101 37 110 113 128 80 50 59 
74 10 139 162 45 55 140 53 47 22 60 54 
75 11 10 152 175 17 174 31 89 67 20 176 103 
76 10 149 154 110 135 108 109 24 4 113 142 
77 11 18 105 4 150 142 59 113 37 110 154 76 
78 9 73 101 128 37 80 50 110 113 143 
79 11 122 72 93 95 44 87 39 97 81 13 28 
80 8 50 128 143 101 130 30 78 96 
81 11 28 97 85 95 93 94 79 122 144 72 117 
82 11 25 166 120 48 5 15 133 71 164 151 14 
83 11 138 91 130 161 155 40 96 50 80 30 6 
84 9 23 57 70 116 157 159 146 136 145 
85 11 28 94 81 97 95 144 64 93 117 21 79 
86 11 8 33 137 2 32 125 156 98 177 11 104 
87 11 44 39 79 93 122 161 91 72 155 30 97 
88 9 43 49 47 22 131 53 140 68 162 
89 11 31 174 175 3 67 102 10 75 152 58 106 
90 11 12 52 64 172 21 107 129 36 94 85 95 
91 11 138 130 83 161 155 87 39 30 44 6 143 
92 9 167 96 171 19 156 98 111 109 137 
93 11 97 79 81 39 87 44 28 95 122 72 85 
94 11 85 28 81 21 64 144 97 117 95 132 90 
95 11 79 81 122 72 28 93 97 13 85 44 94 
96 9 92 167 19 111 171 98 156 109 40 
97 11 81 93 28 85 79 95 39 144 94 117 122 
98 11 156 111 137 32 19 2 167 92 171 86 96 
99 11 34 170 62 114 133 9 112 48 120 5 71 
100 11 104 24 33 154 26 2 86 108 137 76 127 
101 8 78 128 50 73 80 143 30 130 
102 10 3 67 106 65 27 31 89 119 174 58 
103 10 42 173 163 41 51 168 147 123 152 6 
104 11 100 26 33 24 153 127 86 7 8 2 137 
105 11 142 18 77 4 150 59 154 113 76 37 110 
106 8 65 102 67 119 3 27 152 41 
107 11 52 12 21 90 64 172 94 85 36 129 28 
108 10 109 171 135 2 137 149 24 33 76 156 
109 9 135 171 108 149 167 92 2 137 76 
110 10 113 76 149 37 59 135 4 154 109 73 
111 11 19 98 32 156 96 92 167 16 137 2 171 
112 11 126 62 170 99 114 34 35 136 118 46 9 
113 11 37 59 110 4 150 76 18 149 73 142 77 
114 11 9 34 99 136 146 71 133 62 170 159 151 
115 9 118 158 46 141 61 35 121 126 68 
116 11 23 157 84 57 70 147 38 51 40 6 155 
117 11 144 132 28 97 85 94 81 93 30 95 143 
118 11 115 46 158 141 126 35 61 121 112 68 63 
119 9 65 145 27 151 15 102 106 71 58 
120 11 166 48 133 82 5 25 71 15 151 34 9 
121 10 124 38 134 115 160 46 16 118 57 40 
122 11 72 79 13 95 44 87 93 39 168 81 97 
123 11 176 69 13 163 168 103 42 72 173 129 122 
124 11 134 121 177 160 16 38 32 125 11 54 8 
125 11 11 8 177 86 127 7 32 153 54 60 134 
126 11 112 35 118 158 63 46 141 115 62 61 136 
127 11 7 153 26 11 125 60 8 104 86 54 177 
128 8 80 50 101 143 130 30 78 73 
129 11 36 69 176 172 123 20 12 13 90 95 64 
130 11 91 138 83 30 50 80 143 128 39 87 161 
131 10 22 43 88 49 140 47 53 162 139 74 
132 11 117 144 97 28 85 81 94 93 143 30 101 
133 11 48 120 166 5 71 82 34 25 99 15 114 
134 10 124 160 121 177 54 125 11 16 32 60 
135 9 109 149 108 171 76 167 92 110 2 
136 11 146 159 9 114 145 112 151 46 71 84 34 
137 11 2 156 98 33 108 171 86 167 109 24 32 
138 11 91 83 130 161 155 87 39 6 30 44 50 
139 10 74 162 45 140 55 53 47 22 60 54 
140 9 53 162 139 74 47 22 88 45 55 
141 9 158 61 35 68 115 118 126 63 49 
142 11 4 105 18 77 154 76 59 113 150 110 149 
143 10 30 50 80 128 101 130 39 91 87 93 
144 11 117 132 28 85 94 97 81 93 95 21 79 
145 9 151 119 159 146 15 65 71 9 27 
146 10 159 136 9 145 114 151 71 15 84 119 
147 11 51 6 157 41 173 155 161 168 163 42 103 
148 11 66 169 56 165 14 29 164 58 27 82 3 
149 10 76 135 109 108 154 110 171 24 113 2 
150 11 59 37 18 77 113 4 105 142 110 76 73 
151 11 71 15 145 119 9 48 159 146 120 166 133 
152 10 10 75 175 67 17 174 31 89 103 42 
153 11 127 7 26 11 60 125 104 8 54 86 177 
154 11 76 149 24 108 142 4 100 110 135 109 33 
155 11 161 6 147 91 138 44 87 168 157 39 51 
156 11 98 137 2 111 171 167 32 19 92 86 108 
157 11 116 147 70 51 23 84 6 155 161 41 57 
158 9 141 61 115 35 118 68 126 46 63 
159 10 146 145 136 9 151 114 71 119 84 15 
160 9 134 54 124 60 11 125 121 177 53 
161 11 155 6 91 44 138 87 147 168 39 83 51 
162 10 139 74 140 45 53 55 47 22 60 54 
163 10 173 103 42 168 41 51 123 147 6 13 
164 11 14 58 165 169 66 29 27 82 148 25 15 
165 11 66 29 14 169 148 56 58 164 27 3 82 
166 11 120 48 82 133 25 5 71 15 151 34 9 
167 9 92 171 96 156 19 98 109 111 137 
168 11 163 173 6 103 42 13 51 147 72 123 41 
169 11 66 148 56 14 165 29 164 58 27 82 25 
170 11 99 62 34 114 112 133 9 5 48 120 126 
171 9 109 167 92 108 135 137 156 2 98 
172 11 12 90 52 64 36 129 107 21 69 94 95 
173 10 42 103 163 41 51 168 147 6 123 155 
174 11 89 31 175 3 67 10 75 102 152 106 58 
175 11 10 75 152 174 31 89 67 102 17 3 106 
176 11 123 69 20 17 129 13 36 163 103 42 168 
177 11 125 32 8 11 86 124 134 16 98 111 156 
DEPOT_SECTION
   1
   -1
EOF
