NAME :  X-n134-kX-w13-c7.cctp
COMMENT : 	Adapted by Maziero, Usberti and Cavellucci from the Uchoa, Pecin, Pessoa, Poggi, Subramanian, and Vidal (2013)
TYPE :  CCTP
DIMENSION :    91
EDGE_WEIGHT_TYPE : 	EUC_2D	
CAPACITY : 	643
VERTICES_WITHIN_COVERAGE :  7
VERTICES_WITH_DEMAND : 	13
NODE_COORD_SECTION
1 113 195
2 377 239
3 364 39
4 306 316
5 795 18
6 560 115
7 501 147
8 704 68
9 762 62
10 357 33
11 359 353
12 314 186
13 338 303
14 522 80
15 735 15
16 324 12
17 409 32
18 279 297
19 844 27
20 796 4
21 735 111
22 373 461
23 793 7
24 347 256
25 742 75
26 339 244
27 334 391
28 323 314
29 345 69
30 426 446
31 286 335
32 374 34
33 356 74
34 767 236
35 789 61
36 357 21
37 386 207
38 389 234
39 281 344
40 312 3
41 317 163
42 582 186
43 822 6
44 386 268
45 425 55
46 382 251
47 351 385
48 701 32
49 384 214
50 866 243
51 546 186
52 815 29
53 734 57
54 377 235
55 793 31
56 392 248
57 308 314
58 396 27
59 580 142
60 733 38
61 312 293
62 764 45
63 351 284
64 321 318
65 451 423
66 487 175
67 346 248
68 485 24
69 542 109
70 813 117
71 344 170
72 325 343
73 349 90
74 389 302
75 769 51
76 489 165
77 376 210
78 320 191
79 339 138
80 390 222
81 376 262
82 688 80
83 289 193
84 322 311
85 303 228
86 829 13
87 315 212
88 326 136
89 287 298
90 319 176
91 323 291
DEMAND_SECTION
2 53
3 73
4 60
5 20
6 23
7 3
8 46
9 28
10 84
11 72
12 64
13 100
14 10
COVERAGE_SECTION
2 7 54 38 46 56 80 81 49 
3 7 10 32 36 58 29 33 17 
4 7 57 64 28 84 61 89 31 
5 7 23 55 20 52 43 86 62 
6 7 69 59 14 7 51 42 76 
7 7 76 66 69 51 6 14 59 
8 7 82 53 48 25 60 21 9 
9 7 75 62 25 35 53 60 55 
10 7 3 36 32 29 16 58 33 
11 7 47 72 27 64 28 13 84 
12 7 78 90 41 83 87 71 85 
13 7 84 28 91 63 64 61 57 
14 7 69 6 68 7 59 76 45 
15 7 60 48 53 62 75 9 23 
16 6 40 36 10 3 32 29 
17 7 58 45 32 3 10 36 33 
18 4 89 4 61 57 
19 7 86 52 43 5 55 20 23 
20 7 23 5 43 55 52 86 62 
21 7 25 8 53 9 82 75 62 
22 5 30 47 27 65 11 
23 7 20 5 55 43 52 86 62 
24 7 67 26 63 81 2 46 54 
25 7 53 9 75 21 62 60 8 
26 6 67 24 2 54 85 87 
27 3 47 11 72 
28 7 84 64 57 4 13 91 61 
29 6 33 73 3 10 32 36 
30 5 65 22 47 27 11 
31 5 39 4 57 89 18 
32 7 3 10 36 58 17 33 29 
33 6 29 73 3 10 32 36 
34 7 50 70 21 25 9 82 35 
35 7 75 9 55 62 52 5 25 
36 7 10 3 32 16 58 40 29 
37 6 49 77 80 38 54 2 
38 6 54 80 2 56 46 49 
39 4 31 4 57 72 
40 5 16 36 10 3 32 
41 7 90 12 71 78 88 79 83 
42 7 51 59 6 69 7 76 66 
43 7 86 52 20 23 5 19 55 
44 7 81 46 56 2 38 54 74 
45 6 17 58 32 3 68 10 
46 7 56 2 81 44 54 38 80 
47 4 27 11 72 64 
48 7 60 8 15 53 82 25 62 
49 6 37 77 80 38 54 2 
50 5 34 70 21 35 9 
51 7 42 59 7 66 76 6 69 
52 7 86 55 5 43 19 20 23 
53 7 60 25 9 8 62 75 48 
54 7 2 38 46 80 56 49 77 
55 7 5 52 23 20 35 75 62 
56 6 46 38 2 54 44 81 
57 7 4 64 84 28 61 89 91 
58 7 17 32 3 10 36 45 33 
59 7 6 42 69 51 7 14 76 
60 7 53 15 62 48 9 25 75 
61 6 91 57 84 4 28 89 
62 7 75 9 35 53 55 60 25 
63 7 13 24 91 81 67 44 61 
64 7 28 84 57 4 13 72 61 
65 5 30 22 47 11 27 
66 4 76 7 51 69 
67 7 24 26 2 81 54 46 63 
68 7 14 45 17 58 69 32 6 
69 7 6 14 59 7 51 76 66 
70 7 35 9 21 75 25 62 52 
71 6 90 41 78 79 12 88 
72 6 64 28 84 4 57 11 
73 5 33 29 79 88 3 
74 5 44 63 81 13 46 
75 7 62 9 35 55 25 53 60 
76 5 66 7 51 69 6 
77 6 49 37 80 54 38 2 
78 7 12 90 87 41 83 71 85 
79 6 88 71 41 90 73 12 
80 6 49 38 37 54 77 2 
81 7 44 46 56 2 54 24 38 
82 7 8 48 53 25 21 60 9 
83 6 12 78 87 90 85 41 
84 7 28 64 57 4 13 91 61 
85 5 87 83 26 78 12 
86 7 43 19 52 5 20 23 55 
87 7 85 78 12 83 90 26 67 
88 6 79 41 71 90 12 73 
89 5 18 61 4 57 31 
90 7 12 41 78 71 83 87 88 
91 6 61 13 84 28 57 64 
DEPOT_SECTION
   1
   -1
EOF
