NAME :  X-n134-kX-w53-c11.cctp
COMMENT : 	Adapted by Maziero, Usberti and Cavellucci from the Uchoa, Pecin, Pessoa, Poggi, Subramanian, and Vidal (2013)
TYPE :  CCTP
DIMENSION :    134
EDGE_WEIGHT_TYPE : 	EUC_2D	
CAPACITY : 	643
VERTICES_WITHIN_COVERAGE :  11
VERTICES_WITH_DEMAND : 	53
NODE_COORD_SECTION
1 113 195
2 377 239
3 364 39
4 306 316
5 795 18
6 560 115
7 501 147
8 704 68
9 762 62
10 357 33
11 359 353
12 314 186
13 338 303
14 522 80
15 291 58
16 735 15
17 324 12
18 275 278
19 409 32
20 279 297
21 844 27
22 447 303
23 796 4
24 735 111
25 373 461
26 385 100
27 281 378
28 793 7
29 965 64
30 347 256
31 742 75
32 339 244
33 334 391
34 323 314
35 345 69
36 295 370
37 462 240
38 426 446
39 286 335
40 374 34
41 201 153
42 356 74
43 767 236
44 450 218
45 789 61
46 467 332
47 437 293
48 357 21
49 386 207
50 389 234
51 281 344
52 312 3
53 317 163
54 582 186
55 301 411
56 822 6
57 197 437
58 386 268
59 294 74
60 425 55
61 279 81
62 382 251
63 351 385
64 701 32
65 384 214
66 866 243
67 546 186
68 815 29
69 734 57
70 377 235
71 793 31
72 392 248
73 308 314
74 396 27
75 250 345
76 903 66
77 266 264
78 580 142
79 191 288
80 408 225
81 297 283
82 733 38
83 312 293
84 180 250
85 764 45
86 351 284
87 321 318
88 208 348
89 451 423
90 365 142
91 487 175
92 267 51
93 346 248
94 575 294
95 585 346
96 199 136
97 485 24
98 542 109
99 813 117
100 442 280
101 212 192
102 344 170
103 574 426
104 325 343
105 426 272
106 349 90
107 389 302
108 769 51
109 489 165
110 174 288
111 285 419
112 434 257
113 376 210
114 400 124
115 320 191
116 304 260
117 339 138
118 390 222
119 129 47
120 376 262
121 416 240
122 688 80
123 289 193
124 270 418
125 322 311
126 303 228
127 829 13
128 315 212
129 266 239
130 326 136
131 287 298
132 319 176
133 79 221
134 323 291
DEMAND_SECTION
2 53
3 73
4 60
5 20
6 23
7 3
8 46
9 28
10 84
11 72
12 64
13 100
14 10
15 74
16 29
17 87
18 95
19 51
20 67
21 17
22 51
23 33
24 12
25 85
26 54
27 79
28 26
29 26
30 58
31 35
32 99
33 97
34 73
35 93
36 54
37 56
38 89
39 86
40 85
41 79
42 60
43 9
44 98
45 23
46 78
47 53
48 92
49 53
50 80
51 54
52 89
53 94
54 47
COVERAGE_SECTION
2 11 70 50 62 72 118 120 65 113 58 93 49 
3 11 10 40 48 74 35 42 19 17 106 52 60 
4 11 73 87 34 125 83 131 39 134 20 104 81 
5 11 28 71 23 68 56 127 85 108 45 21 9 
6 11 98 78 14 7 67 54 109 91 97 122 60 
7 11 109 91 98 67 6 14 78 44 54 37 114 
8 11 122 69 64 31 82 24 9 16 85 108 45 
9 11 108 85 31 45 69 82 71 16 5 24 8 
10 11 3 48 40 35 17 74 42 19 52 106 15 
11 11 63 104 33 87 34 13 125 107 73 4 36 
12 11 115 132 53 123 128 102 126 130 117 32 113 
13 11 125 34 134 86 87 83 73 4 104 81 30 
14 11 98 6 97 7 78 109 60 91 67 54 19 
15 11 59 92 61 35 17 52 106 42 10 3 48 
16 11 82 64 69 85 108 9 28 5 31 71 8 
17 11 52 48 10 3 40 15 35 59 92 42 74 
18 11 77 20 81 131 116 83 129 4 73 134 125 
19 11 74 60 40 3 10 48 42 26 35 97 106 
20 11 131 18 81 4 83 73 77 39 134 116 125 
21 11 127 68 56 5 71 23 28 45 76 108 85 
22 11 47 100 46 105 112 107 37 58 121 72 120 
23 11 28 5 56 71 68 127 85 21 108 45 16 
24 11 31 8 69 9 122 108 85 82 45 99 64 
25 11 38 63 33 89 55 111 11 124 36 27 104 
26 11 114 106 42 90 35 60 117 3 40 130 19 
27 11 36 51 55 111 124 39 75 33 104 4 73 
28 11 23 5 71 56 68 127 85 108 45 21 16 
29 11 76 21 127 56 68 99 71 5 45 23 28 
30 11 93 32 86 120 2 62 70 58 134 116 72 
31 11 69 9 108 24 85 82 8 45 122 64 16 
32 11 93 30 2 116 70 126 128 120 86 62 113 
33 11 63 55 36 11 104 27 111 124 51 39 87 
34 11 125 87 73 4 13 134 83 104 131 81 86 
35 11 42 106 3 10 40 48 26 59 15 17 74 
36 11 27 51 39 104 55 33 111 75 124 4 73 
37 11 44 112 100 121 105 80 47 22 72 91 50 
38 11 89 25 63 33 11 46 55 104 111 22 103 
39 11 51 4 73 36 75 131 20 87 104 27 34 
40 11 3 10 48 74 19 42 35 17 60 106 26 
41 11 96 101 123 84 61 129 53 12 132 92 59 
42 11 35 106 3 26 10 40 48 59 74 117 15 
43 11 66 99 24 31 9 122 45 8 69 108 85 
44 11 37 121 112 80 91 105 118 50 100 49 72 
45 11 108 9 71 85 68 5 31 28 69 23 82 
46 11 22 47 100 105 112 107 37 89 58 121 11 
47 11 22 100 105 112 46 107 58 121 37 72 120 
48 11 10 3 40 17 74 52 35 19 42 106 15 
49 11 65 113 118 50 80 70 2 72 62 121 102 
50 11 70 118 2 72 62 65 80 49 113 121 120 
51 11 39 36 75 27 4 73 104 131 20 87 34 
52 11 17 48 10 15 3 92 40 59 35 42 61 
53 11 132 12 102 115 130 117 123 128 90 126 113 
54 11 67 78 6 98 7 109 91 94 14 37 44 
55 11 111 124 27 33 36 63 51 104 39 11 75 
56 11 127 68 23 28 5 21 71 45 85 108 9 
57 11 124 88 111 27 75 55 36 51 39 33 79 
58 11 120 62 72 2 50 70 107 86 105 30 121 
59 11 15 61 92 35 106 42 17 130 52 10 3 
60 11 19 74 40 26 3 97 10 42 114 48 35 
61 11 59 15 92 35 106 130 42 17 117 52 53 
62 11 72 2 120 58 70 50 118 30 93 121 65 
63 11 33 11 104 55 36 27 87 111 34 25 125 
64 11 82 8 16 69 122 31 85 9 108 24 71 
65 11 49 113 118 50 70 2 80 72 62 121 120 
66 11 43 99 76 24 45 29 9 31 108 21 68 
67 11 54 78 7 91 109 6 98 37 44 14 94 
68 11 127 71 5 56 21 23 28 45 108 85 9 
69 11 82 31 9 8 85 108 64 16 122 24 45 
70 11 2 50 62 118 72 65 113 120 49 80 58 
71 11 5 68 28 23 45 108 85 56 127 9 21 
72 11 62 50 2 70 58 120 121 118 80 65 49 
73 11 4 87 125 34 83 131 134 39 13 81 20 
74 11 19 40 3 10 48 60 42 35 17 26 106 
75 11 51 39 88 27 36 20 131 4 73 18 104 
76 11 29 21 127 68 56 99 45 71 5 23 28 
77 11 18 129 20 81 116 131 126 83 134 73 4 
78 11 6 54 98 67 7 14 109 91 122 8 44 
79 11 110 84 88 77 75 18 20 129 131 101 39 
80 11 121 118 50 65 49 72 70 2 113 62 112 
81 11 83 131 18 20 116 134 73 4 77 125 34 
82 11 69 16 85 64 9 31 108 8 71 45 122 
83 11 134 81 73 125 4 34 131 87 13 20 116 
84 11 110 79 101 77 129 18 41 88 133 20 96 
85 11 108 9 45 69 71 82 31 5 16 28 23 
86 11 13 30 134 120 93 58 83 125 34 32 107 
87 11 34 125 73 4 13 104 83 134 39 131 81 
88 11 75 79 110 51 27 39 20 36 57 131 124 
89 11 38 25 46 63 11 22 33 103 47 107 100 
90 11 117 102 114 130 26 53 106 132 12 115 49 
91 11 109 7 44 67 37 98 80 6 54 121 112 
92 11 15 61 59 52 17 35 106 10 42 48 3 
93 11 30 32 2 120 70 62 86 116 50 58 72 
94 11 95 54 67 46 37 22 103 100 47 44 112 
95 11 94 103 46 22 89 47 100 54 37 67 105 
96 11 41 101 61 123 92 59 119 84 15 53 129 
97 11 14 60 19 74 98 40 6 3 7 26 10 
98 11 6 14 78 7 67 109 91 54 97 60 44 
99 11 45 9 24 108 31 85 68 71 21 69 5 
100 11 47 105 22 112 37 121 58 107 46 72 44 
101 11 41 96 84 129 123 77 79 126 12 110 128 
102 11 132 53 115 117 12 90 130 113 128 49 65 
103 11 95 89 94 46 38 22 47 100 25 105 37 
104 11 87 34 125 4 73 11 36 39 13 51 33 
105 11 112 100 47 121 22 58 72 37 107 62 80 
106 11 42 35 26 117 130 3 90 59 10 40 114 
107 11 58 86 120 105 47 13 62 72 100 22 11 
108 11 85 9 45 71 31 69 82 5 16 28 68 
109 11 91 7 67 44 98 37 6 14 78 54 114 
110 11 79 84 88 75 77 18 101 129 20 131 133 
111 11 124 55 27 36 33 63 51 75 39 104 57 
112 11 105 100 121 37 47 80 44 72 22 58 50 
113 11 65 49 118 70 50 2 80 62 72 93 32 
114 11 26 90 106 117 42 102 60 130 35 49 113 
115 11 12 132 128 53 123 102 126 130 32 117 113 
116 11 81 126 18 83 134 32 77 131 30 129 93 
117 11 130 90 102 53 132 106 12 115 26 114 42 
118 11 65 50 49 70 80 113 2 72 62 121 120 
119 11 96 41 92 61 15 59 101 133 52 17 84 
120 11 58 62 72 2 70 30 50 86 93 32 107 
121 11 80 72 112 50 118 105 62 2 70 44 58 
122 11 8 64 69 31 24 82 9 16 85 108 45 
123 11 12 115 128 132 126 53 129 102 130 116 32 
124 11 111 55 27 36 33 51 57 75 39 63 104 
125 11 34 87 73 4 13 134 83 104 131 81 86 
126 11 128 116 123 32 129 115 12 93 30 77 132 
127 11 56 21 68 5 23 28 71 45 108 85 9 
128 11 126 115 12 123 132 32 93 53 116 102 30 
129 11 77 126 18 116 123 81 128 20 131 83 12 
130 11 117 53 102 90 132 12 106 115 123 26 42 
131 11 20 81 18 83 4 73 39 125 134 34 87 
132 11 12 53 115 102 123 128 130 117 126 90 113 
133 11 84 110 79 101 41 96 88 119 129 77 18 
134 11 83 13 125 34 73 81 87 86 4 116 131 
DEPOT_SECTION
   1
   -1
EOF
