NAME :  X-n1001-kX-w200-c9.cctp
COMMENT : 	Adapted by Maziero, Usberti and Cavellucci from the Uchoa, Pecin, Pessoa, Poggi, Subramanian, and Vidal (2013)
TYPE :  CCTP
DIMENSION :    920
EDGE_WEIGHT_TYPE : 	EUC_2D	
CAPACITY : 	131
VERTICES_WITHIN_COVERAGE :  9
VERTICES_WITH_DEMAND : 	200
NODE_COORD_SECTION
1 2 857
2 407 102
3 915 965
4 797 45
5 997 241
6 650 683
7 748 248
8 99 174
9 2 545
10 277 689
11 568 771
12 76 105
13 117 973
14 171 971
15 327 183
16 277 697
17 269 246
18 670 18
19 51 901
20 951 696
21 710 102
22 61 465
23 348 606
24 551 243
25 524 793
26 89 582
27 900 748
28 235 368
29 122 587
30 449 781
31 970 38
32 362 490
33 742 267
34 289 115
35 898 957
36 996 922
37 951 633
38 713 779
39 603 247
40 402 363
41 143 0
42 274 608
43 81 422
44 550 408
45 43 699
46 482 575
47 909 254
48 613 37
49 202 575
50 297 297
51 736 288
52 464 127
53 499 491
54 635 531
55 796 328
56 184 941
57 641 824
58 863 673
59 396 950
60 555 631
61 664 966
62 301 260
63 425 990
64 559 746
65 431 827
66 724 472
67 847 51
68 888 721
69 136 331
70 859 627
71 206 5
72 429 381
73 798 918
74 886 684
75 123 488
76 779 445
77 764 43
78 938 743
79 800 398
80 734 20
81 211 678
82 601 545
83 512 403
84 796 106
85 644 810
86 416 973
87 115 435
88 667 91
89 395 941
90 374 546
91 546 191
92 754 255
93 124 588
94 423 929
95 314 637
96 668 268
97 321 786
98 960 423
99 11 499
100 721 692
101 803 584
102 337 475
103 806 773
104 429 478
105 214 547
106 361 166
107 944 218
108 12 468
109 527 255
110 789 724
111 250 862
112 892 896
113 545 806
114 832 12
115 628 495
116 194 884
117 395 309
118 655 39
119 558 175
120 247 947
121 36 394
122 877 451
123 599 724
124 83 489
125 754 703
126 65 35
127 889 230
128 938 307
129 662 394
130 248 220
131 642 549
132 747 86
133 201 643
134 400 574
135 653 798
136 653 904
137 643 138
138 951 307
139 793 865
140 500 726
141 585 586
142 285 769
143 511 898
144 336 912
145 454 207
146 239 951
147 335 815
148 911 708
149 2 239
150 602 984
151 372 799
152 177 756
153 816 435
154 617 639
155 806 796
156 793 584
157 803 561
158 479 831
159 397 20
160 618 113
161 702 902
162 838 111
163 989 451
164 215 154
165 581 757
166 294 174
167 997 332
168 350 909
169 335 941
170 906 354
171 920 675
172 493 469
173 187 284
174 678 127
175 831 755
176 316 319
177 188 134
178 73 608
179 884 613
180 193 831
181 717 851
182 508 52
183 809 556
184 705 769
185 983 312
186 847 359
187 415 658
188 132 789
189 520 413
190 913 564
191 90 256
192 960 936
193 693 559
194 980 347
195 300 456
196 376 144
197 192 177
198 272 525
199 88 626
200 772 743
201 540 206
202 474 559
203 241 949
204 583 602
205 215 48
206 460 683
207 585 234
208 294 501
209 788 392
210 621 498
211 81 236
212 788 277
213 817 861
214 678 560
215 351 354
216 156 507
217 617 486
218 218 189
219 213 23
220 884 616
221 923 177
222 829 814
223 285 153
224 176 928
225 166 656
226 507 183
227 907 171
228 995 412
229 149 784
230 649 933
231 885 309
232 131 560
233 502 640
234 462 970
235 465 114
236 192 569
237 547 473
238 557 408
239 480 579
240 775 395
241 845 753
242 701 529
243 962 95
244 31 68
245 627 629
246 918 853
247 823 774
248 775 894
249 109 935
250 478 480
251 511 488
252 785 899
253 487 121
254 453 440
255 470 598
256 756 89
257 728 583
258 647 753
259 973 391
260 842 559
261 637 397
262 72 370
263 948 485
264 999 268
265 471 517
266 350 131
267 381 534
268 310 467
269 973 212
270 164 485
271 429 565
272 838 897
273 779 143
274 452 1
275 866 928
276 214 623
277 532 586
278 915 772
279 204 585
280 343 558
281 877 720
282 730 272
283 364 617
284 210 569
285 514 296
286 202 695
287 706 395
288 376 83
289 679 434
290 483 578
291 0 299
292 639 101
293 709 590
294 774 925
295 804 864
296 528 192
297 660 561
298 888 7
299 788 712
300 854 884
301 710 665
302 939 390
303 156 683
304 62 737
305 207 501
306 944 334
307 952 915
308 14 440
309 923 386
310 693 370
311 485 885
312 890 951
313 478 956
314 782 216
315 104 50
316 822 370
317 73 108
318 7 981
319 987 382
320 397 439
321 986 513
322 871 661
323 154 39
324 70 100
325 75 647
326 383 5
327 86 692
328 263 570
329 26 218
330 892 317
331 76 883
332 648 837
333 713 447
334 98 769
335 316 688
336 470 613
337 157 295
338 499 223
339 482 100
340 3 209
341 280 692
342 525 6
343 54 122
344 220 208
345 838 860
346 455 989
347 923 705
348 41 665
349 829 426
350 809 821
351 238 811
352 57 114
353 490 911
354 445 135
355 126 154
356 502 856
357 543 422
358 395 335
359 873 378
360 947 675
361 127 46
362 895 216
363 590 641
364 415 0
365 456 639
366 881 466
367 721 116
368 884 403
369 323 319
370 495 158
371 534 496
372 784 89
373 600 973
374 582 263
375 630 484
376 498 412
377 737 749
378 187 137
379 433 302
380 864 360
381 262 566
382 63 28
383 698 186
384 669 65
385 280 605
386 163 577
387 7 891
388 156 301
389 144 312
390 272 181
391 112 407
392 865 155
393 232 344
394 418 650
395 889 916
396 952 677
397 443 10
398 644 925
399 982 797
400 328 995
401 652 395
402 954 103
403 614 890
404 583 127
405 54 278
406 534 176
407 457 678
408 769 423
409 111 776
410 537 183
411 887 534
412 263 242
413 238 143
414 481 223
415 276 463
416 301 278
417 813 997
418 522 400
419 342 979
420 121 219
421 282 213
422 495 110
423 974 643
424 567 187
425 588 289
426 415 542
427 711 288
428 192 263
429 634 955
430 836 650
431 401 251
432 757 708
433 640 675
434 512 860
435 179 319
436 902 529
437 526 587
438 15 596
439 979 645
440 647 323
441 182 123
442 184 38
443 302 219
444 781 849
445 330 18
446 991 649
447 887 717
448 616 448
449 331 231
450 822 365
451 230 835
452 359 963
453 60 730
454 776 660
455 376 810
456 481 728
457 495 862
458 192 598
459 121 520
460 854 951
461 305 495
462 603 933
463 916 240
464 889 765
465 608 852
466 250 676
467 385 490
468 977 120
469 695 732
470 168 907
471 487 552
472 379 518
473 175 165
474 741 69
475 859 350
476 741 665
477 542 145
478 87 291
479 784 685
480 785 260
481 943 254
482 183 988
483 239 180
484 206 769
485 597 257
486 780 886
487 227 435
488 918 839
489 257 337
490 100 996
491 194 631
492 164 219
493 524 887
494 909 704
495 169 906
496 241 785
497 538 74
498 399 812
499 855 575
500 802 150
501 451 192
502 979 779
503 342 445
504 692 472
505 9 452
506 897 431
507 665 139
508 128 106
509 768 689
510 150 279
511 791 248
512 836 385
513 235 877
514 315 98
515 895 755
516 363 154
517 373 633
518 42 430
519 850 534
520 592 274
521 95 712
522 565 82
523 736 849
524 227 124
525 770 512
526 191 627
527 334 855
528 307 97
529 718 570
530 808 903
531 630 96
532 694 101
533 714 65
534 380 514
535 581 60
536 452 330
537 269 422
538 986 414
539 207 280
540 645 986
541 97 50
542 258 620
543 19 60
544 159 382
545 594 3
546 575 648
547 505 396
548 271 186
549 259 278
550 440 484
551 204 169
552 839 329
553 796 265
554 184 633
555 110 901
556 794 510
557 612 243
558 471 610
559 168 254
560 651 691
561 317 884
562 788 451
563 778 532
564 999 602
565 223 747
566 951 203
567 290 179
568 5 237
569 848 785
570 511 279
571 919 357
572 409 840
573 726 723
574 198 57
575 563 987
576 330 143
577 112 165
578 564 379
579 841 919
580 736 821
581 895 875
582 772 252
583 233 210
584 956 386
585 29 477
586 440 322
587 300 683
588 19 243
589 804 616
590 139 376
591 177 425
592 164 188
593 330 450
594 894 845
595 81 292
596 327 908
597 52 153
598 681 294
599 806 403
600 650 476
601 238 416
602 930 935
603 220 643
604 487 945
605 352 425
606 224 959
607 800 833
608 1 880
609 530 411
610 205 696
611 1 975
612 463 461
613 12 909
614 9 25
615 960 395
616 808 103
617 555 364
618 881 187
619 640 356
620 423 259
621 312 251
622 874 740
623 135 158
624 904 910
625 102 78
626 926 747
627 133 610
628 712 498
629 801 94
630 46 372
631 792 533
632 744 492
633 49 160
634 910 98
635 161 275
636 462 5
637 892 299
638 623 197
639 280 296
640 390 873
641 569 740
642 382 176
643 67 260
644 22 899
645 224 74
646 976 106
647 643 937
648 286 733
649 343 347
650 768 396
651 281 2
652 646 481
653 113 496
654 449 469
655 209 276
656 146 512
657 541 265
658 108 218
659 909 962
660 873 616
661 891 741
662 632 229
663 254 413
664 174 367
665 801 148
666 94 483
667 70 736
668 396 630
669 722 757
670 652 154
671 524 473
672 390 532
673 865 278
674 739 441
675 522 405
676 315 92
677 676 875
678 367 807
679 174 702
680 161 844
681 52 348
682 628 479
683 294 425
684 245 335
685 849 644
686 188 955
687 898 25
688 369 346
689 795 493
690 704 846
691 872 179
692 774 620
693 635 620
694 512 482
695 67 510
696 527 626
697 316 970
698 777 242
699 622 844
700 35 70
701 285 224
702 652 328
703 358 274
704 950 346
705 824 571
706 228 251
707 133 826
708 166 573
709 5 941
710 876 539
711 74 80
712 668 777
713 773 7
714 71 263
715 94 533
716 895 963
717 744 131
718 710 940
719 790 311
720 470 10
721 778 994
722 726 581
723 301 968
724 425 873
725 551 998
726 880 251
727 13 286
728 229 807
729 791 870
730 980 301
731 319 503
732 678 661
733 131 647
734 756 147
735 752 792
736 833 41
737 570 210
738 550 937
739 237 533
740 484 801
741 281 735
742 126 383
743 261 867
744 765 621
745 340 504
746 483 824
747 904 551
748 380 261
749 450 572
750 581 121
751 504 708
752 162 788
753 379 894
754 415 846
755 357 10
756 794 896
757 168 803
758 981 897
759 192 525
760 307 810
761 193 59
762 348 6
763 896 319
764 718 704
765 635 865
766 44 81
767 677 455
768 365 89
769 993 748
770 264 253
771 794 836
772 299 507
773 837 673
774 625 578
775 726 948
776 225 753
777 529 813
778 57 217
779 493 88
780 977 476
781 926 415
782 370 421
783 960 959
784 56 666
785 568 361
786 418 120
787 830 947
788 799 823
789 447 171
790 136 12
791 864 465
792 510 511
793 37 62
794 610 786
795 155 680
796 710 998
797 443 869
798 243 357
799 736 125
800 323 814
801 526 532
802 20 222
803 54 930
804 124 270
805 76 619
806 872 318
807 938 393
808 518 361
809 114 189
810 398 156
811 666 975
812 976 884
813 362 501
814 799 452
815 791 71
816 778 700
817 691 851
818 870 506
819 957 214
820 547 416
821 645 140
822 41 367
823 747 223
824 686 750
825 520 508
826 86 411
827 196 752
828 790 247
829 100 49
830 116 857
831 754 899
832 387 843
833 653 877
834 682 525
835 156 967
836 861 886
837 628 139
838 829 776
839 48 367
840 553 756
841 308 857
842 525 768
843 739 419
844 534 906
845 74 407
846 829 489
847 174 812
848 756 539
849 783 958
850 651 110
851 551 459
852 980 868
853 295 427
854 729 915
855 518 915
856 46 872
857 172 627
858 130 202
859 677 872
860 374 795
861 181 760
862 751 788
863 83 664
864 459 649
865 792 917
866 813 502
867 746 768
868 377 708
869 676 582
870 367 690
871 124 298
872 280 13
873 209 128
874 794 714
875 636 512
876 901 875
877 970 319
878 301 452
879 146 305
880 45 362
881 239 811
882 423 798
883 477 717
884 102 815
885 504 648
886 524 158
887 902 424
888 951 766
889 296 959
890 647 246
891 395 299
892 970 492
893 260 138
894 394 642
895 795 836
896 657 44
897 263 655
898 776 212
899 436 346
900 982 977
901 879 198
902 99 1000
903 927 947
904 419 592
905 714 685
906 410 503
907 858 581
908 988 225
909 576 24
910 673 162
911 624 134
912 520 801
913 86 528
914 245 156
915 671 77
916 944 270
917 951 622
918 412 813
919 732 304
920 532 201
DEMAND_SECTION
2 6
3 1
4 10
5 7
6 6
7 2
8 8
9 7
10 3
11 5
12 1
13 4
14 10
15 4
16 10
17 3
18 6
19 4
20 3
21 10
22 8
23 6
24 7
25 7
26 4
27 1
28 5
29 3
30 6
31 8
32 5
33 9
34 6
35 9
36 9
37 4
38 1
39 9
40 10
41 2
42 4
43 1
44 10
45 1
46 10
47 2
48 10
49 1
50 4
51 5
52 5
53 6
54 6
55 9
56 4
57 4
58 9
59 3
60 7
61 6
62 8
63 5
64 9
65 3
66 9
67 1
68 1
69 5
70 7
71 6
72 6
73 9
74 3
75 8
76 5
77 9
78 10
79 9
80 5
81 9
82 5
83 10
84 1
85 2
86 9
87 3
88 8
89 2
90 6
91 1
92 3
93 1
94 8
95 8
96 6
97 9
98 5
99 5
100 9
101 1
102 9
103 6
104 3
105 4
106 9
107 7
108 1
109 9
110 6
111 10
112 2
113 3
114 9
115 6
116 4
117 9
118 10
119 3
120 7
121 6
122 6
123 4
124 5
125 9
126 2
127 2
128 4
129 5
130 6
131 1
132 5
133 4
134 3
135 4
136 9
137 4
138 3
139 5
140 10
141 2
142 5
143 8
144 8
145 10
146 7
147 3
148 6
149 9
150 5
151 2
152 10
153 4
154 9
155 2
156 6
157 1
158 6
159 1
160 1
161 7
162 10
163 7
164 3
165 6
166 4
167 4
168 3
169 5
170 4
171 2
172 5
173 1
174 10
175 7
176 3
177 7
178 10
179 10
180 2
181 3
182 10
183 6
184 3
185 1
186 4
187 3
188 10
189 10
190 4
191 8
192 5
193 2
194 8
195 2
196 5
197 8
198 7
199 10
200 1
201 5
COVERAGE_SECTION
2 9 786 288 768 354 196 810 235 52 266 
3 9 659 35 716 903 312 602 783 192 395 
4 9 815 77 736 713 372 114 629 67 616 
5 9 908 264 269 819 481 107 566 916 730 
6 9 560 433 732 154 245 301 905 123 693 
7 9 92 33 582 823 282 698 480 51 828 
8 9 577 809 355 623 858 658 420 597 633 
9 9 99 438 585 695 108 913 505 715 26 
10 9 341 16 587 466 897 335 648 741 95 
11 9 165 840 64 641 113 842 794 25 123 
12 9 317 324 352 711 343 625 766 508 597 
13 9 490 902 249 835 14 482 555 686 56 
14 9 835 482 686 56 224 13 606 470 495 
15 9 166 567 106 576 443 516 449 223 421 
16 9 341 10 587 466 648 741 335 897 81 
17 9 412 770 701 130 549 62 421 706 443 
18 9 118 896 384 915 48 80 533 88 545 
19 9 644 803 856 331 613 387 608 555 709 
20 9 396 360 347 171 148 494 78 626 423 
21 9 532 367 799 533 132 174 88 474 717 
22 9 124 585 666 518 695 43 108 308 505 
23 9 283 517 95 280 668 894 134 90 385 
24 9 657 109 207 374 737 201 920 485 520 
25 9 912 777 113 842 740 840 11 746 64 
26 9 178 29 93 805 199 232 715 627 913 
27 9 515 661 464 626 622 278 68 447 281 
28 9 798 393 684 489 601 663 664 537 487 
29 9 93 627 232 26 386 708 199 178 805 
30 9 882 740 65 918 746 158 498 456 883 
31 7 243 402 646 687 468 634 298 
32 9 813 467 745 102 534 472 731 267 503 
33 9 282 92 7 51 582 427 919 698 480 
34 9 528 514 676 893 223 576 413 166 914 
35 9 716 312 659 3 903 602 395 275 460 
36 8 758 192 812 307 783 852 900 602 
37 9 917 423 439 360 446 396 171 564 20 
38 9 184 669 867 377 862 824 735 712 580 
39 9 557 485 207 374 520 662 890 425 737 
40 9 358 72 688 899 215 117 586 536 649 
41 8 790 323 361 442 71 315 829 541 
42 9 385 542 328 381 897 95 276 603 466 
43 8 826 845 391 87 518 22 121 262 
44 9 238 820 357 609 675 418 189 578 83 
45 9 348 453 784 304 327 667 863 521 325 
46 9 290 239 202 471 255 749 558 336 437 
47 9 463 726 127 481 916 362 637 107 673 
48 9 535 545 909 118 896 18 531 384 522 
49 9 279 284 236 458 105 708 386 276 759 
50 9 639 416 176 369 62 549 621 770 489 
51 9 919 282 33 427 92 7 582 212 598 
52 9 235 354 253 339 422 370 786 789 779 
53 9 251 694 172 792 250 825 671 371 265 
54 9 131 875 210 82 115 297 375 834 217 
55 8 719 552 450 316 212 186 553 209 
56 9 224 686 14 470 495 835 606 482 146 
57 8 85 332 699 135 765 465 794 712 
58 9 322 74 773 685 430 70 281 447 68 
59 9 89 86 94 452 63 753 419 168 169 
60 9 546 696 363 204 277 437 141 233 885 
61 9 811 540 429 230 647 398 718 796 136 
62 9 621 416 17 50 770 701 443 412 449 
63 9 86 346 234 59 89 94 313 452 604 
64 9 641 840 165 11 842 123 25 113 140 
65 9 918 754 572 882 498 797 724 832 158 
66 8 333 632 628 504 674 767 843 289 
67 9 736 114 4 687 815 298 162 629 616 
68 9 447 281 661 622 148 494 27 515 74 
69 9 389 879 871 388 337 435 590 664 742 
70 9 660 685 220 179 430 322 58 907 773 
71 9 219 442 205 574 761 323 41 790 645 
72 9 40 899 536 358 586 254 320 688 782 
73 9 865 530 756 252 294 248 486 579 787 
74 9 58 322 494 447 148 171 68 281 347 
75 9 653 666 459 656 216 124 270 87 715 
76 9 562 814 408 153 674 843 240 599 650 
77 9 4 474 713 80 815 132 256 372 533 
78 9 626 888 278 27 347 148 515 661 20 
79 9 599 209 240 650 316 512 153 349 408 
80 9 77 713 474 533 18 132 4 256 815 
81 9 286 610 133 603 466 679 225 491 554 
82 9 54 131 774 141 875 210 115 204 217 
83 9 418 547 675 189 376 609 357 820 44 
84 9 616 629 372 815 273 162 665 256 500 
85 9 57 135 332 699 712 794 465 765 258 
86 9 63 59 89 346 94 234 452 313 419 
87 9 391 43 826 845 666 742 75 653 22 
88 9 915 850 384 532 292 531 174 21 507 
89 9 59 94 86 452 753 168 63 169 419 
90 9 267 672 472 280 534 134 426 813 745 
91 9 410 201 920 296 406 119 424 737 226 
92 9 7 33 582 698 282 480 823 828 51 
93 9 29 627 232 26 386 708 199 178 805 
94 9 89 59 86 724 753 234 63 313 797 
95 9 23 385 587 42 335 283 897 517 542 
96 9 598 890 427 662 440 557 282 702 39 
97 9 760 800 147 142 678 151 860 455 648 
98 9 538 615 259 781 228 584 807 302 163 
99 9 585 108 9 505 695 308 22 124 518 
100 9 905 764 301 573 476 125 432 509 469 
101 9 156 157 705 183 589 260 692 631 499 
102 9 593 268 32 745 503 731 813 461 195 
103 9 247 155 838 175 241 569 200 222 350 
104 9 550 654 906 612 254 467 250 320 265 
105 9 284 739 49 236 759 279 305 381 328 
106 9 516 642 196 266 15 810 576 166 449 
107 9 819 566 269 463 481 908 221 362 47 
108 9 505 585 308 99 518 22 695 124 9 
109 9 657 24 570 285 338 201 920 374 414 
110 9 874 299 200 816 432 479 125 509 103 
111 9 743 513 451 351 881 841 728 116 180 
112 9 624 395 581 876 836 300 275 246 594 
113 9 777 25 912 11 842 840 165 740 64 
114 9 736 67 4 298 713 687 815 77 629 
115 8 210 375 217 682 875 652 600 54 
116 9 495 470 513 224 680 180 56 111 451 
117 9 891 358 379 688 586 748 703 40 899 
118 9 896 18 384 915 48 88 531 292 533 
119 9 424 91 410 406 296 477 201 737 920 
120 9 203 146 606 889 723 686 56 513 224 
121 9 630 822 839 880 518 845 262 681 308 
122 8 366 791 506 887 368 349 818 781 
123 9 641 165 64 11 258 840 560 794 433 
124 9 666 695 653 22 913 75 715 459 585 
125 9 432 509 816 573 100 299 479 764 476 
126 9 382 541 829 793 315 700 711 244 766 
127 9 362 726 463 47 901 618 673 691 107 
128 9 138 306 877 916 704 730 763 185 330 
129 6 401 261 310 289 287 619 
130 9 583 412 344 17 421 701 706 770 483 
131 9 54 297 774 875 214 82 834 869 193 
132 9 256 474 372 533 21 367 799 717 77 
133 9 491 526 603 554 276 857 81 225 458 
134 9 904 271 426 90 672 267 749 283 668 
135 9 85 712 57 332 258 794 699 824 184 
136 8 398 833 230 647 677 859 403 765 
137 9 821 837 670 911 507 850 160 174 292 
138 9 128 877 306 730 185 916 704 194 167 
139 9 729 295 444 213 486 771 895 756 607 
140 9 751 456 883 842 206 840 64 407 641 
141 9 204 774 82 277 60 363 437 245 693 
142 9 741 648 97 496 760 800 776 881 351 
143 9 493 855 844 353 311 434 457 356 604 
144 9 596 168 169 561 753 452 527 697 841 
145 9 501 414 789 338 226 620 370 431 354 
146 9 203 120 606 686 56 889 723 224 482 
147 9 800 760 97 678 151 527 455 860 841 
148 9 494 347 68 447 171 74 281 661 27 
149 7 568 588 802 340 329 727 778 
150 9 373 575 429 540 462 725 647 61 811 
151 9 860 678 455 498 147 918 832 800 882 
152 9 861 827 484 752 229 565 757 776 679 
153 9 349 814 562 599 76 79 408 209 512 
154 9 245 693 363 433 546 204 6 141 560 
155 9 103 350 247 788 222 838 607 895 771 
156 9 101 157 183 589 705 692 744 631 563 
157 9 183 101 705 156 631 563 260 556 848 
158 9 746 740 356 457 434 65 912 797 777 
159 8 326 364 755 397 762 274 288 445 
160 9 531 911 292 837 850 137 404 750 821 
161 9 854 677 718 859 136 775 817 831 181 
162 9 616 629 84 392 665 500 372 67 815 
163 9 780 538 228 98 892 263 259 321 615 
164 9 551 413 873 914 524 197 378 177 218 
165 9 11 641 64 840 123 794 842 113 258 
166 9 567 223 390 548 15 421 443 576 893 
167 9 194 185 877 730 704 319 138 306 128 
168 9 144 596 753 169 561 640 89 452 527 
169 9 144 452 596 168 697 419 723 889 400 
170 9 571 309 763 330 359 380 306 704 475 
171 9 360 347 494 396 148 74 20 322 37 
172 9 250 53 694 251 612 671 654 792 825 
173 9 539 428 655 635 337 388 435 559 510 
174 9 507 532 850 821 910 137 670 88 21 
175 9 241 247 838 103 569 622 155 110 874 
176 9 369 50 649 639 416 215 688 62 489 
177 9 378 441 873 164 473 551 524 197 413 
178 9 805 199 26 325 29 93 863 438 627 
179 9 220 660 70 907 685 499 322 190 430 
180 9 847 680 451 757 728 351 881 116 752 
181 9 690 523 817 580 859 677 161 831 444 
182 9 497 779 342 339 720 422 522 636 253 
183 9 157 705 101 631 156 260 563 519 556 
184 9 38 669 824 377 469 712 867 862 573 
185 9 730 877 167 138 194 128 306 264 704 
186 9 475 380 450 316 512 552 359 806 368 
187 9 394 894 668 365 864 407 517 206 870 
188 9 229 409 752 707 334 757 884 847 152 
189 9 675 609 83 418 376 547 357 820 44 
190 9 747 436 411 710 179 907 499 220 660 
191 9 714 211 643 478 595 804 405 658 420 
192 9 307 783 602 903 36 758 900 3 812 
193 9 214 529 869 242 297 293 834 722 257 
194 9 167 704 877 185 319 306 259 584 730 
195 9 878 268 415 853 593 683 461 102 503 
196 9 516 810 106 266 642 576 786 2 768 
197 9 551 473 218 592 164 378 344 177 483 
198 9 772 208 739 381 461 328 731 105 415 
199 9 805 178 325 863 26 627 733 784 29 
200 9 110 299 377 867 874 432 816 125 103 
201 9 920 91 296 410 737 406 424 119 24 
202 9 471 46 239 290 749 255 265 271 558 
203 9 146 120 606 686 889 56 723 224 482 
204 9 141 60 363 546 774 154 245 277 693 
205 8 574 219 761 645 442 71 323 872 
206 8 407 864 883 365 456 187 751 394 
207 9 39 485 557 737 374 24 520 662 424 
208 9 772 461 731 198 268 415 195 745 878 
209 9 79 240 650 599 408 316 450 512 153 
210 9 115 217 375 682 875 652 54 600 448 
211 8 191 643 714 778 658 420 405 478 
212 9 553 480 511 582 828 719 698 92 33 
213 8 295 345 139 729 607 895 771 444 
214 9 193 297 869 834 131 242 529 293 54 
215 8 649 688 369 358 176 40 117 782 
216 8 656 270 459 75 759 653 305 232 
217 9 210 375 682 115 652 875 600 448 54 
218 9 344 483 551 583 197 164 130 914 473 
219 9 71 205 442 574 761 645 323 872 651 
220 9 179 660 70 907 685 322 499 430 190 
221 8 227 566 618 107 362 901 819 691 
222 8 350 155 788 569 607 838 247 895 
223 9 166 567 893 390 548 34 914 576 413 
224 9 56 470 495 686 14 835 116 606 482 
225 9 795 303 554 857 733 133 491 526 679 
226 8 296 370 406 410 886 920 91 201 
227 8 221 618 691 901 392 362 566 107 
228 9 538 259 319 98 163 615 584 302 807 
229 9 752 188 757 847 409 152 861 707 334 
230 9 647 398 429 136 61 811 462 540 403 
231 9 330 637 763 806 673 475 170 552 128 
232 8 29 93 386 708 459 715 26 627 
233 8 885 696 336 558 864 365 255 60 
234 8 346 313 604 63 86 94 353 59 
235 9 52 339 253 354 422 779 786 370 2 
236 8 49 284 279 708 458 386 105 759 
237 9 851 671 371 694 251 825 53 357 792 
238 9 44 820 357 609 578 675 418 189 617 
239 9 290 46 202 255 471 749 558 336 437 
240 7 650 209 79 408 599 843 76 
241 9 175 838 247 569 622 103 281 464 661 
242 9 834 193 628 214 529 297 848 632 504 
243 7 402 646 468 634 31 221 227 
244 8 700 793 543 766 711 126 614 324 
245 9 693 154 363 433 774 204 546 6 141 
246 5 488 594 876 581 112 
247 9 838 103 175 569 155 241 222 350 788 
248 9 486 252 756 831 729 865 294 73 139 
249 9 555 13 803 835 331 490 470 902 19 
250 9 172 53 612 654 251 694 265 550 792 
251 9 694 53 671 825 792 371 172 250 237 
252 9 756 248 486 865 73 530 294 729 831 
253 7 422 339 235 52 779 370 354 
254 9 612 654 104 550 250 172 376 320 72 
255 9 558 336 239 290 46 749 202 365 471 
256 9 132 474 372 815 799 84 367 717 629 
257 5 722 529 293 193 848 
258 9 712 824 135 794 469 123 85 184 560 
259 9 615 319 584 538 228 302 98 807 194 
260 9 499 705 519 907 183 157 710 101 411 
261 6 401 129 619 448 289 310 
262 7 839 630 880 681 822 845 121 
263 9 892 780 321 163 98 436 366 781 506 
264 9 5 730 908 185 916 481 877 138 269 
265 9 53 250 471 792 202 550 251 825 172 
266 9 576 516 196 106 768 514 676 810 288 
267 9 672 90 472 534 426 813 906 134 467 
268 9 195 878 593 102 461 415 731 208 503 
269 9 819 908 566 107 5 481 221 264 463 
270 8 216 656 75 305 759 653 459 591 
271 9 749 426 904 134 202 672 239 255 46 
272 9 300 579 836 530 345 213 275 756 73 
273 8 665 734 500 717 84 799 616 372 
274 9 636 397 720 364 159 326 342 182 755 
275 9 395 460 579 312 112 787 272 624 836 
276 9 603 491 526 133 554 458 279 857 542 
277 9 437 696 290 46 60 239 141 204 801 
278 9 515 464 626 27 888 78 661 622 68 
279 9 49 284 458 236 105 276 708 386 526 
280 9 90 267 23 472 672 745 534 134 731 
281 9 447 68 622 661 27 148 494 74 515 
282 9 33 51 427 92 7 919 582 823 598 
283 9 517 23 668 894 95 134 904 280 394 
284 9 49 279 236 105 458 708 739 386 759 
285 3 570 657 109 
286 9 610 81 679 303 795 133 466 225 603 
287 5 310 843 129 289 333 
288 8 768 2 266 786 196 676 514 159 
289 7 767 333 504 129 287 401 600 
290 9 46 239 202 255 471 558 749 336 437 
291 7 727 405 588 149 568 681 880 
292 9 531 850 160 88 911 137 821 837 915 
293 6 722 257 529 869 193 214 
294 9 865 73 252 248 831 849 756 486 530 
295 9 139 213 729 444 895 771 607 486 345 
296 9 920 410 406 91 201 226 119 886 424 
297 9 214 131 869 193 54 774 834 242 875 
298 9 687 114 67 736 31 634 4 162 243 
299 9 874 110 816 479 509 432 125 200 454 
300 8 836 272 345 579 112 581 213 275 
301 5 905 100 476 732 764 
302 8 807 309 584 615 781 259 98 571 
303 8 795 679 225 733 286 610 81 554 
304 6 453 667 521 45 334 327 
305 7 759 739 270 105 216 656 284 
306 9 704 128 138 877 571 194 170 185 730 
307 9 192 602 758 812 903 36 783 624 852 
308 9 505 108 518 585 121 22 99 845 43 
309 8 302 807 571 781 584 170 615 368 
310 6 287 129 401 619 702 261 
311 9 457 353 143 356 434 493 797 855 844 
312 9 35 716 659 3 275 395 460 903 602 
313 8 604 234 346 353 855 94 63 86 
314 8 898 698 828 511 823 582 480 7 
315 8 829 541 361 625 126 711 382 790 
316 9 450 512 186 79 599 209 475 380 552 
317 8 12 324 352 343 711 766 625 597 
318 9 611 709 803 613 644 387 19 490 902 
319 9 259 615 228 584 538 194 98 302 807 
320 9 782 605 104 467 503 254 654 32 550 
321 9 892 780 263 163 436 190 564 747 98 
322 9 58 74 685 70 773 430 660 220 179 
323 8 361 442 790 41 761 574 315 829 
324 9 12 317 352 711 343 766 625 700 244 
325 9 863 199 784 805 348 178 327 733 45 
326 7 159 755 364 762 445 397 274 
327 7 521 863 784 45 325 453 667 
328 9 381 385 42 739 198 542 284 105 49 
329 7 802 340 588 568 778 149 211 
330 9 763 231 637 806 170 128 475 673 571 
331 7 19 856 555 830 803 644 249 
332 8 57 85 699 765 135 833 465 817 
333 7 66 674 504 289 767 843 628 
334 6 409 188 667 884 304 229 
335 9 587 341 10 16 95 870 648 741 897 
336 8 558 255 365 239 290 864 46 233 
337 9 388 879 510 635 389 173 435 871 804 
338 9 414 920 226 296 109 201 145 410 24 
339 8 422 779 235 253 52 354 182 370 
340 6 802 329 568 149 588 778 
341 9 10 16 587 466 335 648 897 741 95 
342 9 182 909 720 636 497 545 274 535 397 
343 7 352 317 324 12 597 633 766 
344 8 583 218 130 483 197 551 706 164 
345 8 213 300 295 836 272 139 222 607 
346 8 234 63 313 86 604 94 59 89 
347 9 148 494 20 171 68 360 447 396 78 
348 9 784 45 325 863 327 805 199 178 453 
349 9 153 599 79 814 512 562 791 76 209 
350 8 788 607 222 771 895 155 444 213 
351 9 881 728 451 496 180 111 484 776 743 
352 8 343 317 324 12 766 711 597 633 
353 9 143 311 855 604 493 844 313 457 356 
354 9 52 235 786 789 253 2 339 810 370 
355 9 623 577 8 809 508 858 473 592 378 
356 9 457 434 158 311 746 493 143 777 353 
357 9 820 44 609 238 189 675 418 83 851 
358 9 117 688 40 891 899 586 215 379 649 
359 8 380 368 475 186 512 170 309 571 
360 9 396 20 171 347 37 423 439 494 148 
361 8 315 829 323 541 790 625 41 442 
362 9 127 901 463 618 726 47 691 227 221 
363 9 546 154 60 245 204 693 141 433 696 
364 9 159 397 326 274 636 720 755 762 445 
365 8 864 336 558 407 394 255 206 187 
366 9 122 791 506 818 887 846 368 349 436 
367 9 799 21 717 532 132 174 256 734 474 
368 8 359 887 506 309 781 380 122 512 
369 9 176 50 649 215 416 639 688 703 62 
370 7 226 886 253 406 52 296 422 
371 9 825 251 671 237 694 792 53 801 851 
372 9 629 815 84 256 616 132 4 474 77 
373 9 150 429 462 575 540 725 647 738 230 
374 9 520 485 39 425 207 557 24 657 737 
375 8 682 115 217 652 210 600 875 448 
376 9 83 547 189 675 418 609 357 820 44 
377 9 669 867 573 200 38 184 862 469 432 
378 9 177 441 873 473 164 551 197 524 413 
379 7 586 536 891 117 620 899 358 
380 9 475 186 359 512 552 170 450 316 806 
381 9 328 739 198 385 42 105 284 542 49 
382 9 126 541 793 829 315 700 244 711 543 
383 9 910 670 507 823 174 734 821 717 799 
384 9 915 896 88 118 532 533 18 292 850 
385 9 42 542 328 381 95 897 23 276 603 
386 8 708 236 232 458 49 93 29 279 
387 7 608 644 613 856 19 709 803 
388 9 337 879 389 510 635 435 871 173 69 
389 9 879 388 69 337 871 510 435 635 804 
390 9 548 567 166 223 483 421 914 701 893 
391 7 826 87 742 43 845 590 544 
392 6 691 618 227 901 162 221 
393 9 684 798 28 489 435 664 639 539 549 
394 8 187 894 668 365 864 407 517 206 
395 9 624 112 275 312 581 836 35 876 602 
396 9 360 20 171 347 423 439 37 446 148 
397 9 274 636 720 364 159 326 182 342 755 
398 9 230 647 136 429 462 61 403 833 811 
399 5 502 888 769 78 852 
400 9 419 697 723 452 889 169 59 144 89 
401 6 129 261 619 289 310 287 
402 7 243 646 468 634 31 221 227 
403 4 765 465 136 833 
404 9 750 160 911 477 837 522 119 531 137 
405 8 643 714 595 478 191 727 588 211 
406 8 410 296 91 886 119 920 226 201 
407 8 206 864 365 883 187 394 456 751 
408 9 76 650 240 843 562 674 209 79 599 
409 6 334 188 229 884 752 707 
410 9 406 91 296 920 119 201 886 226 424 
411 9 710 436 747 818 519 190 260 499 907 
412 9 17 770 130 701 421 549 706 62 583 
413 9 914 524 893 164 873 483 551 223 218 
414 9 338 145 501 226 109 296 920 201 789 
415 8 195 878 268 853 208 537 683 461 
416 9 62 50 639 621 549 176 17 770 369 
417 8 721 849 787 460 73 294 579 865 
418 9 675 83 189 609 547 376 44 357 820 
419 9 400 452 697 169 723 889 59 89 144 
420 8 658 858 809 211 492 191 8 804 
421 9 701 443 548 390 17 130 412 567 166 
422 7 253 339 779 235 52 370 354 
423 9 439 446 37 917 396 360 564 20 171 
424 9 119 91 737 410 201 406 920 296 477 
425 8 520 374 485 39 557 657 207 24 
426 9 271 672 134 267 906 90 472 534 749 
427 9 51 282 919 598 33 96 7 92 582 
428 8 655 173 539 559 635 706 510 337 
429 9 647 230 61 398 540 373 462 811 150 
430 9 685 773 70 58 322 589 660 220 74 
431 9 620 748 891 703 117 379 145 449 501 
432 9 125 509 816 299 573 479 110 874 200 
433 9 6 560 732 154 245 693 363 123 546 
434 9 356 457 493 311 143 158 746 777 844 
435 9 388 337 173 389 879 69 539 635 664 
436 9 411 747 710 190 818 519 263 366 499 
437 9 277 696 290 46 239 471 60 801 255 
438 9 9 178 805 348 26 199 325 784 863 
439 9 423 446 37 917 396 360 564 20 171 
440 8 702 619 598 96 310 425 401 129 
441 9 177 378 873 473 164 524 551 197 508 
442 8 761 574 323 205 219 71 645 790 
443 9 701 421 449 621 62 567 17 15 412 
444 9 771 895 139 729 607 295 788 486 213 
445 6 762 755 872 651 326 159 
446 9 439 423 37 396 564 917 360 20 171 
447 9 68 281 661 148 494 622 74 27 347 
448 6 682 217 375 600 652 115 
449 9 621 443 62 701 15 703 421 416 748 
450 9 316 512 186 79 475 552 599 380 209 
451 9 351 881 728 111 180 513 743 496 116 
452 9 419 169 59 89 697 400 168 144 86 
453 6 304 667 45 521 327 334 
454 8 479 509 476 692 816 744 125 432 
455 9 678 151 860 498 832 918 147 572 882 
456 8 883 140 751 206 407 842 30 740 
457 9 356 434 311 158 493 143 746 353 797 
458 9 279 49 236 526 276 491 284 857 386 
459 8 653 656 715 75 913 216 232 666 
460 9 787 275 579 312 716 35 395 272 659 
461 9 208 772 731 268 745 102 195 415 878 
462 7 429 373 647 398 403 230 150 
463 9 47 127 481 362 107 726 916 819 566 
464 9 515 27 661 278 622 626 68 241 569 
465 6 699 765 403 57 332 833 
466 9 897 10 16 341 81 603 610 587 286 
467 9 32 534 813 906 472 672 267 104 745 
468 7 646 243 402 634 221 31 227 
469 9 824 573 764 669 184 377 100 38 905 
470 8 495 224 116 56 686 555 835 680 
471 9 202 46 290 239 265 749 801 792 255 
472 9 534 267 672 813 90 467 32 906 745 
473 9 197 592 551 378 177 164 623 441 218 
474 9 132 256 533 77 21 372 80 815 367 
475 9 380 186 552 359 806 450 316 512 170 
476 7 301 100 905 454 509 125 764 
477 7 886 406 119 410 404 91 750 
478 9 595 714 191 405 643 871 804 211 389 
479 9 509 816 454 299 874 125 432 110 476 
480 9 553 511 828 582 212 698 92 7 33 
481 9 916 463 47 107 819 269 566 128 138 
482 9 14 686 835 56 606 224 146 13 203 
483 9 218 914 583 390 548 344 164 413 551 
484 9 827 776 861 565 152 496 728 752 757 
485 9 39 374 520 557 207 425 662 24 890 
486 9 248 252 756 729 139 831 295 530 865 
487 7 601 663 537 591 415 28 683 
488 5 246 594 876 581 112 
489 9 684 798 393 28 639 50 549 176 369 
490 9 902 13 249 835 14 803 482 318 555 
491 9 526 554 133 276 857 603 458 225 279 
492 7 592 559 858 420 197 428 473 
493 8 143 844 855 434 356 457 311 353 
494 9 148 347 447 68 74 171 281 661 20 
495 8 470 224 116 56 686 555 835 680 
496 9 728 351 881 776 484 565 142 451 827 
497 8 522 182 535 779 422 339 909 750 
498 9 918 455 882 151 572 860 678 832 65 
499 9 907 260 705 519 710 660 179 183 220 
500 6 665 273 84 734 616 162 
501 9 145 789 414 370 226 338 354 810 52 
502 6 399 888 769 78 626 278 
503 9 593 605 102 782 268 878 195 32 853 
504 7 767 66 333 628 289 600 652 
505 9 308 108 585 518 99 22 121 43 845 
506 8 887 122 368 781 366 791 309 807 
507 9 174 670 821 137 910 850 837 911 292 
508 8 625 355 12 623 317 441 324 361 
509 9 816 479 125 432 299 454 476 874 110 
510 9 635 337 388 879 804 559 871 389 173 
511 9 828 480 698 553 582 212 314 92 898 
512 9 316 450 186 599 79 359 380 349 475 
513 9 111 743 116 451 180 351 881 728 120 
514 8 676 528 34 576 266 768 223 288 
515 9 27 464 661 278 622 626 68 281 447 
516 9 106 196 266 642 576 810 15 768 786 
517 9 283 668 894 23 394 187 870 95 904 
518 9 308 121 845 22 43 505 108 826 585 
519 9 260 710 818 411 499 705 183 907 866 
520 8 374 425 485 39 557 207 24 657 
521 6 327 667 453 304 863 45 
522 9 535 497 750 404 909 160 182 48 531 
523 9 181 580 690 444 817 831 486 139 729 
524 9 873 413 164 893 914 177 378 441 645 
525 9 563 556 631 848 689 632 866 157 183 
526 9 491 554 133 857 276 458 603 225 279 
527 9 841 561 147 800 760 596 832 168 144 
528 8 514 676 34 576 266 768 223 893 
529 8 722 257 293 193 214 242 869 848 
530 9 756 73 865 252 272 486 248 579 729 
531 9 292 160 850 88 911 837 137 915 821 
532 9 21 88 174 367 915 533 384 850 507 
533 9 474 21 132 532 384 915 256 80 367 
534 9 472 267 672 813 467 32 906 90 745 
535 9 522 909 48 497 545 531 750 160 404 
536 5 586 899 379 72 358 
537 8 663 683 853 601 415 487 878 195 
538 9 228 259 98 319 615 163 584 807 302 
539 9 655 173 428 706 635 559 435 337 549 
540 9 811 61 429 150 373 647 230 398 796 
541 8 829 315 625 361 126 711 382 790 
542 9 42 385 897 276 603 328 381 466 95 
543 7 244 793 700 766 614 126 382 
544 8 590 664 742 591 391 69 435 87 
545 9 909 48 535 342 118 896 18 522 497 
546 9 363 60 154 204 696 245 141 693 433 
547 8 83 376 418 675 189 609 808 357 
548 9 390 567 166 421 483 223 701 914 130 
549 9 770 639 17 412 706 50 416 62 655 
550 9 104 654 612 906 250 265 254 172 467 
551 9 197 164 218 473 378 483 177 873 344 
552 9 475 186 806 380 450 55 316 231 719 
553 9 480 212 511 828 582 698 92 719 7 
554 9 526 491 857 133 225 276 458 603 81 
555 8 249 331 830 470 19 495 803 856 
556 9 689 866 631 525 563 846 183 848 157 
557 9 39 485 662 207 890 374 520 638 425 
558 9 336 255 239 365 290 46 864 233 749 
559 7 635 428 510 492 173 337 539 
560 9 6 433 732 469 123 154 258 905 301 
561 9 596 841 144 527 168 743 169 753 800 
562 9 76 814 153 408 689 349 674 599 79 
563 9 631 525 848 556 157 183 689 866 632 
564 9 439 423 446 917 37 396 321 360 190 
565 9 776 827 484 496 861 152 610 286 741 
566 9 819 107 269 221 908 463 481 227 362 
567 9 166 390 548 223 421 15 443 701 483 
568 7 149 588 802 329 340 727 778 
569 8 838 247 241 175 222 155 103 464 
570 4 285 109 657 24 
571 8 170 309 704 306 302 807 763 584 
572 9 754 832 65 918 498 724 640 882 455 
573 9 764 377 100 469 125 432 669 905 824 
574 8 761 205 442 645 219 323 71 441 
575 7 725 150 373 738 462 429 540 
576 9 266 516 106 15 196 223 514 166 34 
577 9 8 355 623 809 858 658 420 592 508 
578 7 617 785 238 44 820 418 609 
579 9 272 275 787 460 300 530 836 73 395 
580 9 523 735 181 862 690 38 444 817 867 
581 7 876 112 594 246 624 836 395 
582 9 698 480 92 511 828 7 553 212 33 
583 9 344 130 218 483 706 412 548 390 421 
584 9 615 302 259 807 319 309 98 704 538 
585 9 108 99 505 22 308 518 695 124 666 
586 7 536 379 899 117 358 891 40 
587 9 335 341 10 16 897 95 466 648 741 
588 8 568 149 802 329 340 727 778 405 
589 9 692 101 156 744 430 705 454 685 157 
590 7 742 544 664 391 69 591 87 
591 7 544 487 664 270 590 601 87 
592 7 473 197 492 858 623 551 809 
593 9 503 102 268 878 195 605 853 683 782 
594 5 246 488 581 876 112 
595 8 478 405 714 643 191 871 804 211 
596 9 144 168 561 169 527 753 841 889 697 
597 5 633 343 352 317 8 
598 9 96 427 440 702 919 282 51 890 33 
599 9 79 209 240 349 153 512 316 650 450 
600 8 652 375 682 115 217 767 210 875 
601 7 663 487 537 28 683 853 798 
602 9 903 192 307 3 659 624 783 35 312 
603 9 133 276 491 526 81 554 542 466 897 
604 8 313 353 234 855 143 346 311 844 
605 8 782 503 593 320 102 853 683 878 
606 9 146 203 120 686 56 482 14 224 835 
607 9 895 771 788 350 444 295 139 213 222 
608 6 387 644 613 856 19 709 
609 9 189 675 418 357 820 44 83 238 547 
610 9 286 81 679 466 303 795 133 565 603 
611 9 318 709 613 803 644 387 19 608 490 
612 9 654 254 250 172 550 104 53 694 251 
613 9 644 387 608 709 19 803 856 611 331 
614 8 543 793 244 700 382 126 766 711 
615 9 584 259 302 807 98 319 538 309 228 
616 9 629 84 372 162 815 665 500 273 256 
617 6 785 578 808 44 238 418 
618 7 901 691 227 362 392 221 127 
619 7 702 440 261 401 129 310 785 
620 9 431 748 379 891 117 145 586 703 414 
621 9 62 449 416 443 701 17 50 421 770 
622 9 661 281 68 447 515 27 464 241 175 
623 9 355 577 809 8 473 592 858 508 378 
624 9 395 112 876 581 602 275 312 903 35 
625 8 315 541 711 829 12 508 324 361 
626 9 78 27 278 888 515 661 464 148 347 
627 9 93 29 733 857 386 199 232 708 26 
628 9 66 242 504 632 834 333 767 525 848 
629 9 616 84 372 815 162 256 4 273 665 
630 6 839 822 880 121 681 262 
631 9 563 556 183 157 525 848 866 689 705 
632 9 66 525 628 848 674 689 563 556 333 
633 4 597 343 352 8 
634 8 402 243 646 468 162 227 392 687 
635 9 510 337 559 388 173 428 879 804 389 
636 9 720 274 397 364 342 182 159 326 779 
637 9 231 330 763 806 673 128 47 726 170 
638 9 662 557 670 207 39 737 890 424 837 
639 9 50 416 549 62 176 770 489 369 17 
640 9 753 832 724 754 572 797 168 527 65 
641 9 64 165 840 11 123 842 794 25 113 
642 9 106 810 516 196 15 266 576 789 786 
643 8 714 405 191 211 595 478 778 588 
644 8 613 387 608 19 856 709 803 331 
645 9 205 574 761 524 219 442 873 441 177 
646 7 468 243 402 634 31 221 227 
647 9 230 398 429 136 61 462 811 540 403 
648 9 741 142 16 341 10 587 335 97 776 
649 8 215 688 369 176 358 40 117 50 
650 7 240 209 408 79 843 599 76 
651 6 872 445 762 219 71 755 
652 8 600 375 682 115 217 210 875 767 
653 9 75 666 459 124 656 715 913 216 695 
654 9 612 550 104 254 250 172 906 265 53 
655 8 539 428 173 706 559 635 549 435 
656 8 216 459 270 75 653 759 232 715 
657 8 109 24 570 285 374 520 425 207 
658 8 420 858 809 211 191 8 778 577 
659 9 3 35 716 312 903 602 395 783 624 
660 9 179 220 70 685 907 322 499 430 58 
661 9 27 515 622 68 447 464 281 626 148 
662 9 890 557 638 39 485 207 96 374 520 
663 8 601 537 487 683 853 28 415 798 
664 8 544 590 435 742 69 591 28 393 
665 6 500 273 84 734 616 162 
666 9 124 653 75 22 695 459 913 715 87 
667 6 304 453 521 334 45 327 
668 9 894 517 394 187 283 904 23 134 365 
669 9 377 184 38 867 573 469 824 862 735 
670 9 821 137 507 910 837 911 174 850 638 
671 9 694 251 237 371 851 53 172 825 792 
672 9 267 472 90 534 426 906 467 813 134 
673 9 726 637 231 806 330 47 763 127 552 
674 7 843 333 66 408 76 562 632 
675 9 418 189 83 609 547 376 357 820 44 
676 7 514 528 34 768 266 576 288 
677 8 859 833 817 136 161 690 765 332 
678 9 151 455 860 498 147 832 800 918 97 
679 8 303 286 795 610 81 225 152 827 
680 8 707 180 847 757 830 116 752 229 
681 6 880 839 822 630 262 121 
682 8 375 217 115 652 210 600 448 875 
683 8 853 537 878 195 415 663 593 268 
684 9 489 393 798 28 639 549 50 539 435 
685 9 430 70 322 773 58 660 220 179 589 
686 9 56 14 224 482 835 606 146 470 203 
687 9 298 67 114 736 31 634 243 402 4 
688 8 215 649 358 40 117 369 891 176 
689 9 556 866 525 846 631 814 562 563 76 
690 9 181 817 523 859 677 580 161 332 833 
691 7 618 901 392 227 362 221 127 
692 7 744 589 454 156 101 476 257 
693 9 245 154 774 363 204 433 869 732 141 
694 9 251 671 53 172 371 825 792 250 237 
695 9 124 913 715 666 22 653 585 459 99 
696 8 60 233 885 437 277 546 336 558 
697 9 723 889 400 419 169 452 144 596 168 
698 9 582 828 511 480 92 314 7 553 898 
699 7 465 765 332 57 85 833 403 
700 8 244 793 766 543 711 126 324 352 
701 9 421 443 17 412 770 130 621 62 548 
702 8 440 619 598 310 96 129 401 261 
703 9 748 891 431 117 449 621 369 416 62 
704 9 306 194 571 877 138 584 128 170 302 
705 9 183 260 157 101 499 156 907 519 589 
706 9 655 412 539 770 130 428 17 549 583 
707 8 680 884 830 188 757 847 229 752 
708 8 386 236 49 458 232 279 284 93 
709 9 613 611 318 644 387 803 19 608 856 
710 9 411 519 436 747 818 260 499 190 907 
711 9 324 12 317 625 766 352 541 700 829 
712 9 135 258 824 184 85 38 469 57 669 
713 9 77 80 4 114 815 736 474 132 372 
714 9 643 191 405 211 595 478 778 804 588 
715 9 913 459 695 653 124 232 26 666 75 
716 9 35 312 659 3 903 460 275 602 395 
717 8 799 734 367 273 256 21 132 84 
718 8 775 854 161 61 811 796 831 230 
719 9 55 212 553 480 552 919 51 582 450 
720 9 636 274 397 342 364 182 159 779 326 
721 8 417 849 796 294 775 787 865 73 
722 6 257 529 293 193 869 214 
723 9 889 697 400 419 169 120 452 203 146 
724 9 797 754 640 572 65 832 753 94 311 
725 8 575 150 373 738 462 604 313 855 
726 9 127 47 673 362 463 637 901 231 481 
727 7 291 405 588 149 568 643 714 
728 9 351 881 496 451 180 484 776 847 111 
729 9 139 295 486 444 756 213 248 252 771 
730 9 185 877 138 167 264 128 194 916 306 
731 9 461 772 745 208 102 268 813 32 195 
732 7 301 6 433 560 905 100 693 
733 8 225 627 795 303 857 199 863 554 
734 8 717 273 799 665 500 367 84 256 
735 9 862 867 580 38 377 669 184 200 155 
736 9 67 114 4 815 629 298 616 687 77 
737 9 424 207 201 91 119 24 920 410 296 
738 6 844 855 575 462 143 493 
739 9 105 198 381 305 284 328 759 49 236 
740 9 746 158 912 30 25 777 842 356 65 
741 9 648 142 16 341 10 587 335 565 776 
742 7 590 391 544 826 664 69 87 
743 9 111 513 451 841 561 881 351 728 116 
744 7 692 589 454 156 476 101 257 
745 9 731 813 32 102 461 472 534 772 208 
746 9 158 740 356 457 912 434 777 25 65 
747 9 190 436 411 710 499 907 818 519 260 
748 9 431 703 891 620 117 449 379 621 358 
749 9 271 202 239 46 255 290 904 471 558 
750 8 404 160 522 911 477 837 531 119 
751 8 140 883 456 206 407 885 842 64 
752 9 229 757 847 188 861 152 484 707 827 
753 9 640 168 144 89 724 832 596 94 59 
754 9 572 65 832 724 918 797 640 498 882 
755 6 762 326 445 159 364 288 
756 9 252 530 486 248 865 73 729 139 295 
757 9 847 752 229 180 188 680 707 861 152 
758 7 812 36 852 307 192 602 783 
759 8 305 105 216 236 739 284 656 270 
760 9 800 97 147 142 841 527 678 151 881 
761 8 574 442 205 645 219 323 71 441 
762 6 755 445 326 159 364 651 
763 9 330 231 637 806 170 128 571 475 306 
764 9 100 905 573 125 469 432 301 476 377 
765 7 833 699 465 332 403 57 677 
766 8 700 244 793 711 324 543 352 12 
767 7 289 504 600 333 652 66 375 
768 8 288 2 266 676 514 196 528 786 
769 8 502 888 399 78 20 626 278 347 
770 9 17 412 549 701 706 130 62 421 416 
771 9 895 607 788 444 350 139 295 213 729 
772 9 208 461 731 198 268 745 102 415 195 
773 9 430 58 685 322 74 70 479 874 281 
774 9 131 297 82 141 693 54 204 245 869 
775 8 718 854 161 796 294 831 849 61 
776 9 565 484 827 496 861 152 728 351 741 
777 9 912 113 25 842 740 746 434 356 158 
778 7 211 329 802 643 588 714 191 
779 7 339 422 253 235 182 497 52 
780 9 892 163 263 321 98 538 228 781 615 
781 8 807 887 302 309 506 98 615 584 
782 8 605 320 503 593 102 40 32 215 
783 9 192 900 903 602 3 307 659 36 35 
784 9 348 325 863 45 327 199 805 178 521 
785 5 617 578 238 44 808 
786 9 2 354 810 52 235 196 288 789 768 
787 9 460 579 275 73 849 865 530 272 417 
788 9 350 607 771 895 155 222 444 295 139 
789 9 501 354 145 52 370 810 786 235 226 
790 8 41 323 361 315 829 541 442 71 
791 9 366 122 818 846 506 349 887 153 866 
792 9 825 53 251 801 371 694 265 671 172 
793 8 244 700 543 766 126 711 382 614 
794 9 165 85 11 135 57 258 699 712 641 
795 8 303 225 679 733 286 610 554 81 
796 8 811 775 61 718 540 721 849 854 
797 9 724 754 65 311 572 158 457 640 356 
798 9 28 393 684 489 663 601 537 664 639 
799 9 717 367 734 21 132 256 273 532 474 
800 9 147 760 97 527 678 841 151 455 860 
801 9 825 792 371 471 251 53 694 277 437 
802 7 329 340 568 588 149 778 643 
803 9 19 644 613 709 331 249 856 387 555 
804 8 510 871 191 635 337 879 478 388 
805 9 178 199 325 26 863 784 29 93 348 
806 9 231 330 763 637 475 552 673 380 186 
807 8 302 309 584 615 781 259 98 571 
808 4 547 617 418 83 
809 8 8 858 577 658 420 355 623 592 
810 9 196 642 516 106 786 354 789 266 2 
811 9 61 540 429 647 230 796 398 718 150 
812 6 758 852 307 36 192 246 
813 9 32 534 745 472 467 102 267 672 731 
814 9 562 76 153 349 689 408 846 599 866 
815 9 372 629 4 84 616 77 256 132 474 
816 9 509 299 479 874 432 125 110 454 200 
817 9 690 859 181 677 332 523 833 161 580 
818 9 411 519 710 436 366 791 846 122 747 
819 9 566 107 269 908 481 5 463 221 916 
820 9 357 44 238 609 189 675 418 83 578 
821 9 137 670 837 507 911 850 174 910 160 
822 6 880 630 839 681 121 262 
823 9 7 898 92 314 698 582 33 828 511 
824 9 469 184 712 669 258 38 573 377 764 
825 9 792 371 251 801 53 694 671 237 172 
826 7 43 845 391 87 262 518 742 
827 9 861 152 484 565 776 752 679 496 229 
828 9 511 480 698 553 582 212 314 92 898 
829 8 541 315 361 625 126 711 382 790 
830 6 707 555 884 680 331 188 
831 9 248 486 854 252 294 756 865 729 73 
832 9 572 754 640 498 455 918 678 151 65 
833 8 765 677 859 136 332 403 699 817 
834 9 242 214 193 628 297 54 131 875 504 
835 9 14 482 686 56 13 224 249 470 495 
836 9 300 272 112 345 581 579 395 876 275 
837 9 911 137 821 160 670 507 850 292 531 
838 9 247 175 569 103 241 155 222 350 788 
839 6 630 880 822 681 262 121 
840 9 64 11 641 165 842 25 113 123 912 
841 9 527 561 800 760 743 147 596 111 144 
842 9 25 840 912 64 11 113 777 140 641 
843 7 674 408 650 333 287 240 76 
844 7 855 493 143 738 353 434 311 
845 7 826 43 262 391 518 121 630 
846 9 866 689 556 791 818 814 519 153 562 
847 9 757 180 752 680 229 707 188 861 484 
848 9 563 525 631 556 529 632 157 257 722 
849 8 294 721 865 73 787 417 775 252 
850 9 292 88 531 137 821 174 507 160 911 
851 9 237 671 357 371 820 694 251 44 238 
852 4 812 758 307 36 
853 9 683 537 878 195 415 593 268 663 503 
854 9 161 831 718 775 294 248 252 486 865 
855 9 143 844 353 493 738 604 311 434 313 
856 6 19 331 644 387 608 613 
857 9 554 526 491 225 133 458 276 627 733 
858 8 420 809 658 592 492 577 8 623 
859 8 677 817 833 690 161 136 765 181 
860 9 151 678 455 498 918 147 882 832 97 
861 9 152 827 484 752 229 565 757 776 847 
862 9 735 867 580 38 377 669 184 200 155 
863 8 325 784 327 199 348 805 521 733 
864 8 365 407 206 336 394 558 233 187 
865 9 73 252 294 530 756 248 486 831 849 
866 9 689 556 846 631 525 563 519 814 183 
867 9 377 862 735 669 38 200 184 573 580 
868 9 870 187 335 894 394 517 668 587 407 
869 9 214 297 193 293 529 131 722 774 257 
870 9 868 335 894 517 187 394 587 668 283 
871 9 879 389 804 388 510 337 69 478 595 
872 6 651 445 219 762 71 205 
873 9 524 177 378 164 441 413 551 914 473 
874 9 299 110 816 479 200 509 432 125 175 
875 9 54 115 210 375 217 652 682 131 600 
876 8 581 112 246 594 624 488 836 395 
877 9 185 730 138 167 194 306 128 704 916 
878 9 195 268 853 415 683 593 503 102 461 
879 9 389 388 337 871 510 69 635 435 804 
880 6 822 839 630 681 262 121 
881 9 351 728 451 496 180 111 484 743 776 
882 9 918 498 65 30 572 455 754 860 151 
883 8 456 140 751 206 407 30 842 864 
884 5 707 188 409 830 334 
885 8 233 696 864 336 365 558 60 206 
886 7 406 477 410 370 226 296 119 
887 8 506 781 368 122 309 366 807 302 
888 8 78 502 626 278 399 769 27 515 
889 9 723 697 169 400 120 419 203 146 596 
890 9 662 96 557 39 485 638 598 520 207 
891 9 117 358 379 748 703 431 620 586 688 
892 9 780 263 321 163 98 436 538 228 747 
893 9 413 914 223 524 34 390 483 164 548 
894 9 668 517 394 187 283 870 904 23 365 
895 9 771 607 788 444 350 139 295 213 729 
896 9 118 384 18 915 48 88 531 292 533 
897 9 466 542 10 341 16 603 587 42 385 
898 9 314 698 823 828 511 582 7 92 480 
899 7 536 586 72 40 358 379 117 
900 9 783 192 36 903 602 3 307 659 758 
901 8 618 691 362 127 227 392 221 726 
902 9 490 13 249 835 14 803 482 318 555 
903 9 602 3 659 35 192 783 716 312 307 
904 9 134 271 749 668 426 255 336 558 894 
905 9 100 764 301 476 573 732 125 432 469 
906 9 467 104 534 472 672 550 426 267 813 
907 9 499 260 705 660 179 220 70 710 519 
908 9 5 269 819 566 264 107 481 916 463 
909 9 545 535 48 342 522 497 182 118 896 
910 9 670 507 174 383 821 137 837 850 911 
911 9 837 137 160 821 670 292 850 531 507 
912 9 25 777 113 842 740 746 158 840 11 
913 9 715 695 459 124 653 666 26 75 232 
914 9 413 893 483 164 390 524 223 548 218 
915 9 384 88 532 896 850 292 118 531 533 
916 9 481 128 47 138 463 730 107 264 877 
917 9 37 423 439 446 564 360 396 171 220 
918 9 498 882 65 572 754 455 832 151 860 
919 8 51 427 282 33 598 92 7 719 
920 9 201 296 91 410 406 226 119 424 737 
DEPOT_SECTION
   1
   -1
EOF
