NAME :  X-n125-kX-w49-c7.cctp
COMMENT : 	Adapted by Maziero, Usberti and Cavellucci from the Uchoa, Pecin, Pessoa, Poggi, Subramanian, and Vidal (2013)
TYPE :  CCTP
DIMENSION :    125
EDGE_WEIGHT_TYPE : 	EUC_2D	
CAPACITY : 	188
VERTICES_WITHIN_COVERAGE :  7
VERTICES_WITH_DEMAND : 	49
NODE_COORD_SECTION
1 989 944
2 5 730
3 769 200
4 698 515
5 72 561
6 52 397
7 771 177
8 81 537
9 43 371
10 716 202
11 106 406
12 627 172
13 10 338
14 776 432
15 761 469
16 759 287
17 593 363
18 773 290
19 129 398
20 709 193
21 99 564
22 163 418
23 48 619
24 907 406
25 929 527
26 69 672
27 675 960
28 50 763
29 736 240
30 46 518
31 128 793
32 699 581
33 58 398
34 43 393
35 783 186
36 58 360
37 45 712
38 38 393
39 652 524
40 37 364
41 37 617
42 61 534
43 664 358
44 555 445
45 712 465
46 38 469
47 2 729
48 65 620
49 156 497
50 857 475
51 773 234
52 879 98
53 685 466
54 21 421
55 109 536
56 60 738
57 897 564
58 96 383
59 76 582
60 739 193
61 669 548
62 284 462
63 193 813
64 15 696
65 102 541
66 28 578
67 828 292
68 73 519
69 70 645
70 40 433
71 745 159
72 0 486
73 75 511
74 228 312
75 732 427
76 61 407
77 495 621
78 84 538
79 751 246
80 22 714
81 63 571
82 641 350
83 873 540
84 211 418
85 287 618
86 155 796
87 627 595
88 546 199
89 795 58
90 805 15
91 649 486
92 145 377
93 673 319
94 700 678
95 86 623
96 158 613
97 673 619
98 738 444
99 17 449
100 122 182
101 108 334
102 100 550
103 677 505
104 23 365
105 20 512
106 892 41
107 452 457
108 70 541
109 224 931
110 67 692
111 198 317
112 513 731
113 159 369
114 51 378
115 556 137
116 800 100
117 795 278
118 158 773
119 43 656
120 41 488
121 70 375
122 132 545
123 203 328
124 728 467
125 759 208
DEMAND_SECTION
2 32
3 7
4 83
5 30
6 62
7 26
8 31
9 75
10 5
11 85
12 15
13 94
14 16
15 38
16 32
17 5
18 17
19 92
20 50
21 16
22 79
23 11
24 33
25 60
26 11
27 96
28 46
29 48
30 31
31 25
32 96
33 71
34 61
35 3
36 100
37 6
38 94
39 88
40 53
41 19
42 50
43 19
44 39
45 21
46 95
47 7
48 40
49 51
50 16
COVERAGE_SECTION
2 7 47 80 64 37 28 56 110 
3 7 125 35 7 60 51 71 79 
4 7 103 61 39 53 45 91 124 
5 7 81 108 59 8 78 21 42 
6 7 33 34 76 38 114 9 121 
7 7 35 3 71 125 60 51 10 
8 7 78 108 42 68 65 102 5 
9 7 40 114 36 104 34 38 121 
10 7 20 60 29 125 71 3 79 
11 7 19 58 76 121 33 92 6 
12 7 115 20 88 10 60 71 29 
13 7 104 40 9 36 114 38 34 
14 7 15 98 75 124 45 50 53 
15 7 124 98 14 45 75 53 4 
16 7 18 117 79 29 51 67 125 
17 7 82 43 44 93 91 53 75 
18 7 16 117 79 67 51 29 125 
19 7 11 92 58 22 113 121 101 
20 7 10 60 71 125 29 3 7 
21 7 102 65 5 59 55 78 8 
22 7 19 92 84 113 11 58 49 
23 7 41 48 69 119 95 59 66 
24 7 50 25 14 83 67 57 15 
25 7 57 83 50 24 15 14 98 
26 7 110 69 119 37 48 95 23 
27 7 112 94 97 87 32 77 61 
28 7 56 37 2 80 47 110 64 
29 7 79 51 125 10 60 3 16 
30 7 42 68 105 73 120 108 8 
31 7 86 118 63 28 56 37 110 
32 7 61 97 4 87 39 103 94 
33 7 6 76 34 38 114 121 9 
34 7 38 6 33 114 9 76 40 
35 7 7 3 125 60 71 51 79 
36 7 9 114 121 40 104 34 6 
37 7 80 56 110 64 2 47 26 
38 7 34 6 114 33 9 76 40 
39 7 61 103 91 4 53 32 87 
40 7 9 104 114 36 38 34 121 
41 7 23 48 119 66 69 95 59 
42 7 108 68 8 30 78 73 5 
43 7 82 93 17 75 53 98 45 
44 7 17 91 107 39 82 53 103 
45 7 124 53 98 75 15 4 103 
46 7 120 99 70 72 105 30 54 
47 7 2 80 64 37 28 56 110 
48 7 23 95 69 41 59 119 81 
49 7 122 55 65 102 22 73 78 
50 7 83 24 25 14 15 57 98 
51 7 79 125 3 29 35 117 60 
52 7 106 116 89 90 35 7 71 
53 7 45 103 91 124 4 98 75 
54 7 70 99 38 34 6 76 33 
55 7 65 102 78 122 8 21 108 
56 7 28 37 80 110 2 47 64 
57 7 83 25 50 24 15 14 124 
58 7 11 121 19 33 76 36 114 
59 7 81 5 21 48 102 108 95 
60 7 10 125 20 3 71 7 35 
61 7 39 4 103 32 87 91 97 
62 7 84 22 49 85 113 123 74 
63 7 86 118 31 109 28 56 110 
64 7 80 37 2 47 119 110 26 
65 7 55 102 78 8 21 122 108 
66 7 81 41 23 5 59 42 48 
67 7 117 18 16 51 79 29 3 
68 7 73 42 8 78 108 30 65 
69 7 48 26 95 119 23 41 110 
70 7 54 99 76 46 6 33 34 
71 7 7 60 35 3 20 125 10 
72 7 105 99 120 46 30 70 54 
73 7 68 8 42 78 30 108 65 
74 7 111 123 113 92 84 101 22 
75 7 98 124 45 14 15 53 4 
76 7 33 6 34 38 114 70 121 
77 7 112 87 107 97 39 44 61 
78 7 8 108 65 102 68 42 55 
79 7 29 51 125 16 3 18 60 
80 7 64 2 37 47 56 110 28 
81 7 5 59 108 66 21 42 8 
82 7 43 93 17 75 53 44 16 
83 7 57 25 50 15 24 14 124 
84 7 22 113 92 19 62 123 49 
85 7 96 62 122 49 21 55 102 
86 7 118 31 63 28 56 110 37 
87 7 97 61 32 39 103 4 91 
88 7 115 12 20 10 17 93 82 
89 7 116 90 52 106 71 7 35 
90 7 89 116 106 52 71 7 35 
91 7 103 39 53 4 61 45 124 
92 7 113 19 22 11 58 101 121 
93 7 43 82 17 16 29 18 79 
94 7 97 32 87 61 39 4 103 
95 7 48 69 23 59 41 26 119 
96 7 95 122 21 102 59 55 65 
97 7 32 87 94 61 39 4 103 
98 7 75 124 45 15 14 53 4 
99 7 54 70 46 72 120 38 76 
100 7 101 111 123 74 36 113 13 
101 7 58 36 121 92 113 19 11 
102 7 65 21 55 78 8 5 108 
103 7 4 39 91 53 61 45 124 
104 7 40 9 13 114 38 34 36 
105 7 30 120 72 42 46 68 73 
106 7 52 90 89 116 35 7 71 
107 7 44 62 17 77 91 39 82 
108 7 42 8 78 5 68 73 81 
109 7 63 86 31 118 28 56 37 
110 7 26 37 119 56 69 80 64 
111 7 123 74 113 92 101 84 19 
112 7 77 87 94 97 32 61 39 
113 7 92 19 22 123 101 11 58 
114 7 9 34 6 36 121 38 40 
115 7 88 12 20 10 71 60 29 
116 7 89 52 71 7 90 35 3 
117 7 18 67 16 51 79 29 125 
118 7 86 31 63 56 28 110 37 
119 7 69 26 23 41 48 110 64 
120 7 46 30 105 72 73 68 99 
121 7 36 114 33 9 58 6 34 
122 7 55 65 102 21 78 8 49 
123 7 111 74 113 92 84 101 22 
124 7 45 98 15 75 53 4 14 
125 7 3 60 51 7 35 29 79 
DEPOT_SECTION
   1
   -1
EOF
