NAME :  X-n172-kX-w17-c7.cctp
COMMENT : 	Adapted by Maziero, Usberti and Cavellucci from the Uchoa, Pecin, Pessoa, Poggi, Subramanian, and Vidal (2013)
TYPE :  CCTP
DIMENSION :    71
EDGE_WEIGHT_TYPE : 	EUC_2D	
CAPACITY : 	161
VERTICES_WITHIN_COVERAGE :  7
VERTICES_WITH_DEMAND : 	17
NODE_COORD_SECTION
1 500 500
2 363 697
3 120 259
4 555 718
5 522 918
6 239 935
7 304 517
8 856 96
9 38 904
10 174 951
11 294 935
12 942 324
13 402 176
14 766 450
15 473 862
16 262 550
17 661 92
18 440 655
19 345 691
20 564 903
21 698 352
22 297 930
23 66 244
24 143 946
25 697 32
26 473 995
27 342 252
28 437 42
29 263 549
30 105 251
31 986 452
32 486 773
33 679 851
34 619 809
35 681 336
36 260 655
37 46 832
38 667 428
39 871 548
40 181 252
41 211 597
42 82 390
43 114 189
44 659 852
45 169 845
46 124 861
47 289 778
48 464 148
49 377 32
50 802 86
51 89 157
52 391 594
53 904 106
54 649 92
55 134 331
56 389 254
57 796 197
58 304 381
59 881 145
60 849 115
61 890 105
62 368 725
63 819 266
64 324 181
65 435 652
66 355 700
67 354 552
68 472 663
69 862 251
70 554 709
71 405 594
DEMAND_SECTION
2 30
3 82
4 70
5 92
6 25
7 23
8 11
9 41
10 15
11 5
12 17
13 70
14 36
15 47
16 24
17 11
18 6
COVERAGE_SECTION
2 7 66 19 62 65 18 52 47 
3 5 30 23 40 43 55 
4 6 70 32 68 34 18 65 
5 7 20 15 26 34 32 44 33 
6 7 11 22 10 24 45 46 47 
7 3 29 16 67 
8 5 60 61 53 50 59 
9 5 37 46 24 10 45 
10 7 24 6 46 45 11 22 9 
11 7 22 6 10 24 45 47 46 
12 3 69 31 63 
13 5 48 64 56 27 28 
14 4 38 21 35 39 
15 7 5 32 20 26 34 4 62 
16 6 29 7 41 67 36 52 
17 6 54 25 50 57 60 8 
18 5 65 68 71 52 2 
19 7 66 2 62 36 65 18 47 
20 7 5 15 44 34 33 26 32 
21 3 35 38 14 
22 7 11 6 10 47 45 24 46 
23 6 30 3 43 51 55 40 
24 6 10 46 6 45 9 37 
25 7 17 54 50 8 60 57 61 
26 7 5 20 15 22 11 32 44 
27 3 56 64 13 
28 5 49 48 13 64 56 
29 6 16 7 41 67 36 52 
30 6 3 23 43 40 55 51 
31 3 12 39 14 
32 7 4 15 70 68 18 62 65 
33 6 44 34 20 5 4 70 
34 7 44 33 20 4 70 32 5 
35 3 21 38 14 
36 5 41 19 16 66 29 
37 4 9 46 45 24 
38 3 21 35 14 
39 1 14 
40 1 3 
41 3 16 29 36 
42 4 55 3 30 23 
43 5 51 30 3 23 40 
44 6 33 34 20 5 4 70 
45 5 46 24 10 6 37 
46 5 45 37 24 9 10 
47 6 62 66 19 2 36 45 
48 6 13 28 56 64 49 27 
49 4 28 48 13 64 
50 6 8 60 61 59 53 57 
51 4 43 23 30 3 
52 4 71 67 65 18 
53 3 61 59 8 
54 6 17 25 50 57 48 60 
55 5 3 42 30 40 23 
56 3 27 13 64 
57 6 63 69 60 59 50 8 
58 2 27 7 
59 4 61 60 53 8 
60 5 8 61 59 50 53 
61 4 53 8 59 60 
62 7 2 66 19 47 65 18 68 
63 4 69 57 12 59 
64 3 27 13 56 
65 6 18 68 71 52 2 66 
66 7 2 19 62 65 18 47 36 
67 3 52 7 71 
68 4 18 65 70 71 
69 3 63 57 12 
70 6 4 32 68 34 18 65 
71 4 52 65 67 18 
DEPOT_SECTION
   1
   -1
EOF
