NAME :  X-n157-kX-w62-c9.cctp
COMMENT : 	Adapted by Maziero, Usberti and Cavellucci from the Uchoa, Pecin, Pessoa, Poggi, Subramanian, and Vidal (2013)
TYPE :  CCTP
DIMENSION :    156
EDGE_WEIGHT_TYPE : 	EUC_2D	
CAPACITY : 	12
VERTICES_WITHIN_COVERAGE :  9
VERTICES_WITH_DEMAND : 	62
NODE_COORD_SECTION
1 769 259
2 91 377
3 108 338
4 816 567
5 725 520
6 117 357
7 766 559
8 90 417
9 255 430
10 63 384
11 35 276
12 122 318
13 85 322
14 267 348
15 937 546
16 865 461
17 863 547
18 724 431
19 148 144
20 243 571
21 871 512
22 782 596
23 77 272
24 776 650
25 166 371
26 69 239
27 972 607
28 320 521
29 91 434
30 20 305
31 81 271
32 776 669
33 830 553
34 148 243
35 160 202
36 741 527
37 877 561
38 587 551
39 808 435
40 26 278
41 58 394
42 755 444
43 817 557
44 165 367
45 216 510
46 124 330
47 96 587
48 132 369
49 163 234
50 915 492
51 753 657
52 161 319
53 37 227
54 898 747
55 770 524
56 745 582
57 695 469
58 124 355
59 11 283
60 258 406
61 72 335
62 713 399
63 866 626
64 214 344
65 213 349
66 864 577
67 98 440
68 701 512
69 884 559
70 842 518
71 125 379
72 352 410
73 206 228
74 825 592
75 93 252
76 863 511
77 98 347
78 115 326
79 71 392
80 96 248
81 65 404
82 75 342
83 140 300
84 129 340
85 129 273
86 846 696
87 109 463
88 863 586
89 139 356
90 77 351
91 154 322
92 231 323
93 115 394
94 844 558
95 98 454
96 739 568
97 179 443
98 862 618
99 764 764
100 844 554
101 174 319
102 703 319
103 863 569
104 72 473
105 632 575
106 823 578
107 26 42
108 47 381
109 71 336
110 754 484
111 137 465
112 80 355
113 172 296
114 28 310
115 754 579
116 531 662
117 87 382
118 866 481
119 93 337
120 942 567
121 788 567
122 824 451
123 926 901
124 182 500
125 98 384
126 104 370
127 48 462
128 952 629
129 239 324
130 138 516
131 747 605
132 136 460
133 748 624
134 43 268
135 792 597
136 95 352
137 109 413
138 67 224
139 104 386
140 817 672
141 183 360
142 922 652
143 779 419
144 863 721
145 40 456
146 66 395
147 862 465
148 383 357
149 307 434
150 233 421
151 329 280
152 623 554
153 103 349
154 736 688
155 75 266
156 174 406
DEMAND_SECTION
2 1
3 1
4 1
5 1
6 1
7 1
8 1
9 1
10 1
11 1
12 1
13 1
14 1
15 1
16 1
17 1
18 1
19 1
20 1
21 1
22 1
23 1
24 1
25 1
26 1
27 1
28 1
29 1
30 1
31 1
32 1
33 1
34 1
35 1
36 1
37 1
38 1
39 1
40 1
41 1
42 1
43 1
44 1
45 1
46 1
47 1
48 1
49 1
50 1
51 1
52 1
53 1
54 1
55 1
56 1
57 1
58 1
59 1
60 1
61 1
62 1
63 1
COVERAGE_SECTION
2 9 117 125 126 139 79 112 136 10 93 
3 9 153 77 78 119 46 136 6 84 58 
4 9 43 106 33 74 121 94 100 135 22 
5 9 36 68 55 110 96 7 57 56 115 
6 9 58 153 126 48 3 77 84 89 71 
7 9 115 121 96 56 55 22 36 135 131 
8 9 29 137 67 81 79 146 93 125 139 
9 9 60 150 149 97 14 156 45 65 64 
10 9 41 79 146 108 81 117 2 112 125 
11 9 40 134 59 30 114 155 23 31 53 
12 9 78 46 84 3 83 91 119 153 13 
13 9 119 61 109 82 3 77 78 90 136 
14 9 129 92 64 65 60 150 9 141 151 
15 9 120 69 50 37 27 17 21 103 66 
16 9 147 118 122 76 21 50 70 39 17 
17 9 37 100 94 103 69 66 33 21 70 
18 9 42 62 57 143 110 39 68 5 36 
19 9 35 49 34 73 138 80 75 26 85 
20 8 45 28 124 130 9 97 47 111 
21 9 76 70 118 17 50 147 37 69 100 
22 9 135 121 115 131 7 56 74 133 4 
23 9 31 155 75 80 26 134 11 138 13 
24 9 32 51 133 140 22 131 135 154 115 
25 9 44 141 89 48 156 71 58 84 91 
26 9 138 75 80 155 23 31 53 134 11 
27 9 128 120 142 15 69 37 63 88 98 
28 9 149 20 45 9 72 60 150 124 97 
29 9 67 8 95 137 87 81 104 146 79 
30 9 114 59 40 11 134 61 109 23 82 
31 9 23 155 75 80 26 134 11 85 138 
32 9 24 51 140 154 133 131 22 135 86 
33 9 43 100 94 4 106 17 70 103 74 
34 9 49 85 35 80 75 83 113 73 31 
35 9 49 34 73 19 85 80 75 113 138 
36 9 5 55 7 96 68 110 115 56 121 
37 9 69 103 17 66 88 94 100 33 21 
38 9 152 105 68 116 57 5 96 36 56 
39 9 122 143 42 147 16 110 118 18 70 
40 9 11 59 134 30 114 155 23 53 31 
41 9 146 10 81 79 108 117 2 8 125 
42 9 18 143 110 39 62 57 122 55 5 
43 9 4 33 106 94 100 121 74 70 17 
44 9 25 141 89 48 156 71 58 84 91 
45 8 124 20 97 130 9 111 150 132 
46 9 78 84 12 3 58 6 153 89 77 
47 9 130 104 124 87 111 95 132 127 145 
48 9 71 89 58 6 126 84 93 44 139 
49 9 34 35 73 85 113 80 83 75 52 
50 9 21 118 76 15 16 147 69 17 70 
51 9 24 32 133 154 131 140 22 135 56 
52 9 91 101 113 83 84 12 46 89 78 
53 9 138 26 134 11 40 155 23 75 31 
54 9 144 86 142 140 63 128 98 99 32 
55 9 36 7 110 5 121 96 43 115 4 
56 9 115 96 131 7 22 133 121 135 36 
57 9 68 18 5 110 42 62 36 55 143 
58 9 6 89 48 84 153 3 71 46 126 
59 9 40 30 11 114 134 53 155 23 31 
60 9 9 150 149 14 65 64 129 156 92 
61 9 109 82 90 13 119 112 77 136 153 
62 9 18 42 143 57 102 110 39 68 5 
63 9 98 88 66 74 103 142 106 37 140 
64 9 65 92 129 141 101 14 44 25 52 
65 9 64 92 141 129 101 44 25 14 52 
66 9 103 88 37 69 94 17 100 98 106 
67 9 29 95 8 87 137 104 132 111 81 
68 9 5 36 57 110 96 55 7 56 18 
69 9 37 103 17 66 88 94 100 21 76 
70 9 76 21 17 100 33 94 118 43 4 
71 9 48 93 139 6 126 58 89 125 2 
72 9 149 148 60 9 14 28 150 151 129 
73 9 49 35 34 113 85 101 83 92 19 
74 9 106 4 135 43 88 33 94 66 100 
75 9 80 31 155 23 26 138 85 134 34 
76 9 21 70 118 17 147 100 16 94 37 
77 9 153 136 119 3 112 6 90 82 126 
78 9 46 12 3 84 119 153 77 13 58 
79 9 146 10 41 81 117 2 108 125 8 
80 9 75 31 26 155 23 138 85 34 134 
81 9 146 41 79 10 8 108 117 2 125 
82 9 109 61 90 112 119 13 136 77 153 
83 9 12 91 52 85 113 46 78 101 84 
84 9 46 58 89 78 3 6 12 153 48 
85 9 83 34 80 75 12 31 113 23 49 
86 9 144 140 54 63 32 98 24 142 51 
87 8 95 67 132 111 29 104 8 137 
88 9 66 103 37 98 69 94 100 74 17 
89 9 48 58 84 6 71 44 46 25 3 
90 9 112 82 109 61 136 77 119 153 2 
91 9 52 101 83 46 84 12 113 89 78 
92 9 129 64 65 14 101 141 113 52 91 
93 9 139 71 125 137 126 2 48 117 8 
94 9 100 33 17 103 43 66 4 106 37 
95 9 67 87 29 104 8 132 111 137 127 
96 9 56 115 7 131 36 121 5 22 55 
97 8 156 132 111 124 150 25 87 137 
98 9 63 88 66 74 103 106 37 69 94 
99 9 154 32 140 86 51 144 24 54 133 
100 9 94 33 17 103 43 66 4 106 37 
101 9 52 91 113 83 141 64 44 65 84 
102 9 62 18 143 42 57 39 110 122 68 
103 9 66 37 88 17 94 69 100 33 106 
104 9 127 95 145 87 67 29 8 111 132 
105 9 152 38 68 96 5 56 36 131 115 
106 9 4 74 43 33 94 100 135 121 66 
107 9 19 53 138 26 35 80 75 134 155 
108 9 10 41 146 79 81 117 90 112 2 
109 9 61 82 90 13 112 119 77 136 153 
110 9 42 55 36 5 68 18 57 143 39 
111 8 132 87 95 67 97 130 29 124 
112 9 90 82 136 77 109 61 119 153 2 
113 9 101 52 83 91 85 12 34 46 84 
114 9 30 40 59 11 134 109 61 82 13 
115 9 56 96 7 131 22 121 135 133 36 
116 9 38 105 152 154 133 51 131 68 56 
117 9 2 125 139 79 126 10 146 112 93 
118 9 147 16 76 21 70 50 122 17 39 
119 9 77 3 136 153 13 82 61 90 109 
120 9 15 27 69 128 37 66 103 50 17 
121 9 7 4 22 135 43 115 106 33 74 
122 9 39 147 16 118 143 42 70 76 21 
123 9 54 144 99 86 142 140 128 32 63 
124 8 45 130 97 111 132 87 20 150 
125 9 139 2 117 126 93 71 79 137 136 
126 9 2 125 139 6 136 117 153 71 77 
127 9 145 104 29 95 67 81 87 8 41 
128 9 27 142 120 15 63 98 69 88 37 
129 9 92 64 65 14 101 141 113 52 60 
130 8 124 111 132 87 95 45 104 47 
131 9 133 56 115 22 96 135 7 51 24 
132 8 111 87 95 67 97 29 137 130 
133 9 131 51 24 56 22 115 135 32 96 
134 9 11 40 155 23 59 31 26 53 30 
135 9 22 121 74 106 4 115 7 131 43 
136 9 77 153 112 119 90 3 126 82 6 
137 9 8 93 139 29 67 125 71 117 2 
138 9 26 53 75 80 155 23 31 134 11 
139 9 125 93 2 126 117 71 137 6 48 
140 9 86 32 24 51 63 144 98 135 74 
141 9 44 25 65 64 101 89 52 156 91 
142 9 128 63 27 98 120 86 88 144 66 
143 9 39 42 122 18 62 110 147 16 57 
144 9 86 54 140 142 63 32 98 99 24 
145 9 127 104 29 81 95 67 8 41 146 
146 9 79 41 81 10 108 117 2 8 125 
147 9 16 118 122 76 21 70 50 39 17 
148 9 72 151 149 14 60 9 129 92 150 
149 9 72 9 60 150 28 14 148 45 65 
150 9 9 60 97 156 65 149 64 141 14 
151 9 14 148 129 92 64 72 73 65 60 
152 9 105 38 68 5 57 96 36 56 115 
153 9 77 136 3 6 119 126 58 112 78 
154 9 51 32 24 133 99 140 131 22 56 
155 9 23 31 75 26 80 134 11 138 40 
156 8 25 97 44 141 48 71 93 89 
DEPOT_SECTION
   1
   -1
EOF
