NAME :  X-n247-kX-w98-c11.cctp
COMMENT : 	Adapted by Maziero, Usberti and Cavellucci from the Uchoa, Pecin, Pessoa, Poggi, Subramanian, and Vidal (2013)
TYPE :  CCTP
DIMENSION :    247
EDGE_WEIGHT_TYPE : 	EUC_2D	
CAPACITY : 	134
VERTICES_WITHIN_COVERAGE :  11
VERTICES_WITH_DEMAND : 	98
NODE_COORD_SECTION
1 500 500
2 612 199
3 864 279
4 746 395
5 738 519
6 797 59
7 867 206
8 846 399
9 654 172
10 874 275
11 675 479
12 780 372
13 692 446
14 541 183
15 747 432
16 845 403
17 787 317
18 472 325
19 682 246
20 779 308
21 815 316
22 690 306
23 923 403
24 643 526
25 849 293
26 789 424
27 766 443
28 833 421
29 999 259
30 949 458
31 675 431
32 930 480
33 809 439
34 677 173
35 479 247
36 849 285
37 711 358
38 794 366
39 878 230
40 815 259
41 739 570
42 564 141
43 845 320
44 801 473
45 769 345
46 528 256
47 700 404
48 851 369
49 925 215
50 608 654
51 878 358
52 562 80
53 577 358
54 418 269
55 766 533
56 709 585
57 933 280
58 671 522
59 725 496
60 863 250
61 864 328
62 663 460
63 848 251
64 601 17
65 559 708
66 689 490
67 745 448
68 746 345
69 776 427
70 925 251
71 677 120
72 783 292
73 484 715
74 810 261
75 680 173
76 895 273
77 785 253
78 886 125
79 916 247
80 930 364
81 584 185
82 896 334
83 874 524
84 723 145
85 440 130
86 684 326
87 737 309
88 554 164
89 859 254
90 981 334
91 717 258
92 855 321
93 623 443
94 685 162
95 686 463
96 733 431
97 664 616
98 586 486
99 523 196
100 712 541
101 759 432
102 658 583
103 860 312
104 762 359
105 818 236
106 498 208
107 504 64
108 842 221
109 895 461
110 691 136
111 870 277
112 644 438
113 556 305
114 747 522
115 728 123
116 646 445
117 867 380
118 578 286
119 669 372
120 663 507
121 691 172
122 384 100
123 791 379
124 650 277
125 725 609
126 897 279
127 758 306
128 971 92
129 641 183
130 904 291
131 825 374
132 405 305
133 786 431
134 720 677
135 563 245
136 758 442
137 750 530
138 677 72
139 567 564
140 890 268
141 833 289
142 637 408
143 845 276
144 809 347
145 818 88
146 678 259
147 853 219
148 448 734
149 493 509
150 581 187
151 789 397
152 537 240
153 714 339
154 777 371
155 683 378
156 788 597
157 499 301
158 835 370
159 598 221
160 798 509
161 857 214
162 463 400
163 844 400
164 860 267
165 662 184
166 638 185
167 814 529
168 781 293
169 688 598
170 866 305
171 786 343
172 819 476
173 789 243
174 666 41
175 715 530
176 710 93
177 992 531
178 753 534
179 566 216
180 664 76
181 934 403
182 590 211
183 646 141
184 719 302
185 919 234
186 597 150
187 761 360
188 761 367
189 684 61
190 815 469
191 813 282
192 775 536
193 960 722
194 805 178
195 686 148
196 718 138
197 870 167
198 713 265
199 713 242
200 855 296
201 535 169
202 900 254
203 877 365
204 872 218
205 957 620
206 680 535
207 701 182
208 687 498
209 828 511
210 741 557
211 720 61
212 764 452
213 500 143
214 916 505
215 803 183
216 720 452
217 852 349
218 855 297
219 755 492
220 748 411
221 829 123
222 752 217
223 949 556
224 853 596
225 764 576
226 651 282
227 747 256
228 680 49
229 839 364
230 839 66
231 846 29
232 604 597
233 762 520
234 839 244
235 896 131
236 838 735
237 586 465
238 582 216
239 681 187
240 756 182
241 924 98
242 731 625
243 428 684
244 725 408
245 792 337
246 677 142
247 797 262
DEMAND_SECTION
2 99
3 72
4 87
5 77
6 78
7 76
8 74
9 78
10 92
11 96
12 75
13 96
14 72
15 99
16 63
17 93
18 64
19 68
20 82
21 53
22 91
23 74
24 67
25 65
26 85
27 52
28 77
29 91
30 58
31 73
32 62
33 94
34 84
35 74
36 95
37 62
38 62
39 78
40 89
41 87
42 54
43 73
44 81
45 84
46 51
47 84
48 100
49 69
50 52
51 99
52 95
53 85
54 89
55 96
56 60
57 75
58 97
59 65
60 57
61 57
62 97
63 86
64 97
65 52
66 66
67 100
68 53
69 54
70 3
71 8
72 1
73 3
74 2
75 8
76 6
77 9
78 8
79 8
80 5
81 6
82 4
83 7
84 9
85 1
86 7
87 1
88 6
89 7
90 6
91 10
92 3
93 6
94 5
95 1
96 10
97 5
98 2
99 2
COVERAGE_SECTION
2 11 182 159 166 81 129 150 238 179 9 186 165 
3 11 111 10 164 36 143 200 218 25 89 170 140 
4 11 220 244 188 15 96 187 101 104 154 12 151 
5 11 114 137 178 233 175 59 55 219 100 210 192 
6 11 145 230 231 221 211 176 115 78 196 84 189 
7 11 161 204 147 39 108 197 60 234 63 89 105 
8 11 163 16 28 117 48 158 131 229 203 217 51 
9 11 165 129 166 34 75 239 183 94 121 246 195 
10 11 111 3 164 140 76 126 89 36 60 200 143 
11 11 66 95 62 208 120 13 58 116 31 112 216 
12 11 154 123 38 188 104 187 151 45 171 245 144 
13 11 95 31 216 62 11 47 66 96 116 112 244 
14 11 201 99 88 150 179 81 42 106 238 182 152 
15 11 101 96 136 67 220 27 212 69 244 216 4 
16 11 163 8 28 117 158 48 131 229 203 33 217 
17 11 20 245 72 168 171 21 127 45 144 191 38 
18 11 157 132 162 35 54 113 46 152 53 118 106 
19 11 146 199 198 91 124 226 239 22 165 227 184 
20 11 17 168 72 127 245 171 21 45 87 191 144 
21 11 17 43 245 141 144 191 20 72 92 171 25 
22 11 86 184 153 226 87 198 124 146 91 37 19 
23 11 181 80 203 30 117 51 109 82 8 32 16 
24 11 58 120 206 208 11 66 102 62 98 100 175 
25 11 200 218 36 141 143 3 170 103 111 43 164 
26 11 133 69 33 151 27 101 136 212 15 220 28 
27 11 136 212 101 69 15 67 133 26 96 220 33 
28 11 16 163 8 33 26 131 133 151 158 190 117 
29 11 57 70 90 79 185 49 202 130 126 76 140 
30 11 32 109 181 214 23 177 80 223 83 117 16 
31 11 13 62 112 116 95 47 142 11 216 93 155 
32 11 30 214 109 83 23 181 223 177 209 172 28 
33 11 133 26 28 190 44 69 172 27 151 212 101 
34 11 75 94 121 239 165 9 207 195 246 129 110 
35 11 106 46 152 157 54 99 18 135 14 179 132 
36 11 25 143 200 218 3 141 164 111 170 10 103 
37 11 153 155 68 86 119 47 187 4 104 188 244 
38 11 123 12 154 144 171 245 151 131 45 104 188 
39 11 204 60 7 161 147 89 202 63 108 140 164 
40 11 74 247 105 191 234 77 173 63 143 141 36 
41 11 210 225 56 178 100 125 137 55 175 114 192 
42 11 88 186 201 14 81 150 52 213 99 2 179 
43 11 92 103 61 218 170 200 25 21 217 141 36 
44 11 190 172 33 160 212 133 27 209 26 219 69 
45 11 104 171 187 68 188 245 154 12 17 38 20 
46 11 152 135 35 157 179 113 106 118 99 238 14 
47 11 244 155 31 13 96 119 4 37 220 216 15 
48 11 229 158 117 217 131 203 51 8 163 16 61 
49 11 185 79 70 202 39 204 7 140 57 76 161 
50 11 232 97 65 102 169 139 134 56 125 242 24 
51 11 203 117 217 48 82 61 229 92 158 103 43 
52 11 107 42 64 186 88 213 201 180 183 14 81 
53 11 113 118 142 119 93 157 112 226 237 155 124 
54 11 132 35 18 157 106 46 152 99 162 85 113 
55 11 192 178 233 137 114 5 210 160 219 225 41 
56 11 169 125 41 210 100 242 102 97 175 225 206 
57 11 70 130 126 79 76 202 140 185 10 111 49 
58 11 206 120 24 208 66 11 100 175 59 95 102 
59 11 5 219 114 175 66 208 137 216 233 100 178 
60 11 89 63 164 39 234 10 111 3 140 143 147 
61 11 92 103 43 170 217 218 51 82 200 25 203 
62 11 11 95 116 112 31 13 66 93 208 120 142 
63 11 89 234 60 164 143 108 3 147 36 40 105 
64 11 174 52 228 180 138 189 107 211 71 42 183 
65 11 50 73 148 232 243 97 139 102 134 169 242 
66 11 208 11 95 120 59 58 62 13 206 175 216 
67 11 136 15 212 96 101 27 216 69 220 133 219 
68 11 104 187 45 188 153 37 87 154 171 127 12 
69 11 133 26 101 27 136 212 15 220 151 33 67 
70 11 79 185 202 57 49 76 140 126 130 39 10 
71 11 110 246 195 183 94 176 196 180 138 115 84 
72 11 168 20 17 127 191 247 77 21 74 40 245 
73 11 148 243 65 50 232 139 97 149 102 169 134 
74 11 40 247 191 77 105 173 234 141 143 63 72 
75 11 34 121 94 239 165 207 9 195 246 110 129 
76 11 126 140 130 202 10 111 3 79 164 70 57 
77 11 173 247 74 40 105 227 72 168 191 222 20 
78 11 235 197 241 221 230 145 7 128 161 204 194 
79 11 70 185 202 49 76 140 57 126 39 130 10 
80 11 181 23 82 51 203 90 117 61 130 48 217 
81 11 150 182 2 238 179 88 186 159 14 42 201 
82 11 51 61 203 103 170 92 130 80 217 43 117 
83 11 214 209 167 109 32 172 224 160 190 223 44 
84 11 196 115 110 195 94 121 207 246 240 75 71 
85 11 213 122 107 106 201 99 14 88 35 42 52 
86 11 22 153 37 184 119 155 226 87 124 68 146 
87 11 184 127 68 153 20 22 168 45 72 198 17 
88 11 201 14 42 150 81 99 186 179 213 182 238 
89 11 60 63 164 234 3 111 10 143 39 36 140 
90 11 80 57 29 181 82 130 23 70 126 76 51 
91 11 198 199 227 19 146 184 222 22 87 127 77 
92 11 43 103 61 170 218 200 217 25 36 141 21 
93 11 112 116 142 62 237 31 98 11 95 13 120 
94 11 75 121 34 195 246 239 207 110 165 9 196 
95 11 13 11 62 66 31 208 216 116 112 120 59 
96 11 15 67 244 216 220 101 136 27 212 4 47 
97 11 169 102 56 125 232 50 242 134 206 41 100 
98 11 237 93 24 116 112 120 139 62 11 58 142 
99 11 14 106 201 88 152 179 213 150 46 81 238 
100 11 175 206 210 5 41 114 137 178 56 58 59 
101 11 136 15 27 69 67 212 220 96 133 26 4 
102 11 97 169 56 206 232 24 58 100 125 120 175 
103 11 170 92 61 218 43 200 25 36 3 141 111 
104 11 187 188 45 154 68 12 171 38 123 245 4 
105 11 234 40 74 108 173 247 63 77 147 89 161 
106 11 99 35 14 152 201 46 213 179 88 135 238 
107 11 52 213 85 42 64 201 88 14 122 186 99 
108 11 147 161 234 105 7 204 63 60 39 89 40 
109 11 32 214 30 23 83 181 28 16 172 8 163 
110 11 195 246 71 94 196 84 121 75 115 34 183 
111 11 10 3 164 36 140 200 76 89 143 218 25 
112 11 116 93 62 142 31 13 95 11 237 47 66 
113 11 118 46 53 157 135 152 18 179 238 159 35 
114 11 5 137 178 233 55 192 219 175 59 210 100 
115 11 196 84 176 110 195 71 246 94 121 211 207 
116 11 112 62 93 31 142 95 11 13 66 237 120 
117 11 203 48 51 8 163 16 229 158 217 131 61 
118 11 113 135 46 152 159 238 179 53 124 226 182 
119 11 155 37 47 86 142 153 31 244 22 112 13 
120 11 58 208 24 11 66 206 62 95 175 100 59 
121 11 75 94 34 207 239 195 165 246 110 9 84 
122 11 85 213 107 106 201 99 54 35 14 52 88 
123 11 12 38 154 151 188 131 104 171 187 144 45 
124 11 226 146 19 22 86 198 91 199 118 184 159 
125 11 242 56 169 41 225 210 97 156 134 100 102 
126 11 76 140 130 10 202 111 3 57 79 164 70 
127 11 20 87 168 72 17 184 45 68 171 245 227 
128 11 241 235 78 197 49 230 231 221 185 145 7 
129 11 166 9 165 2 34 75 239 183 94 121 186 
130 11 126 76 140 57 10 111 202 170 3 82 70 
131 11 158 229 48 144 38 163 8 123 16 217 117 
132 11 54 18 35 157 162 46 106 152 113 99 135 
133 11 26 69 27 33 101 136 212 151 15 220 67 
134 11 242 125 97 169 56 156 41 225 102 50 210 
135 11 152 179 238 46 159 182 118 113 150 99 81 
136 11 27 101 212 67 15 69 96 133 220 26 216 
137 11 178 114 5 55 233 192 210 175 219 100 41 
138 11 189 180 228 174 176 211 71 110 246 115 183 
139 11 232 98 24 149 102 50 237 97 58 120 206 
140 11 76 126 10 202 111 130 3 164 60 79 89 
141 11 25 36 143 191 200 218 21 3 43 40 103 
142 11 112 93 116 31 119 155 62 47 13 95 237 
143 11 36 25 164 141 3 200 218 63 111 89 10 
144 11 245 171 38 131 21 229 158 17 123 12 45 
145 11 230 6 221 231 78 235 194 197 215 115 211 
146 11 19 124 226 198 91 199 22 184 86 227 239 
147 11 161 108 7 204 39 234 63 60 89 105 164 
148 11 73 243 65 50 139 232 149 97 102 169 134 
149 11 139 98 237 162 232 93 24 116 112 120 53 
150 11 81 182 238 2 179 88 159 14 186 42 201 
151 11 123 12 26 154 38 69 133 188 4 131 220 
152 11 46 135 179 99 106 238 14 35 182 118 159 
153 11 37 68 86 184 87 22 155 187 104 45 127 
154 11 12 123 188 38 104 187 45 151 171 245 4 
155 11 119 47 37 153 86 244 31 142 4 13 68 
156 11 225 41 192 210 125 242 224 55 178 167 137 
157 11 18 46 113 35 152 118 135 54 106 132 53 
158 11 229 131 48 217 8 163 16 117 144 38 203 
159 11 182 238 2 179 150 81 135 166 129 152 118 
160 11 167 209 192 44 233 172 55 190 219 178 137 
161 11 147 7 204 108 39 234 60 63 89 105 197 
162 11 18 157 132 149 53 113 54 237 98 35 46 
163 11 8 16 28 117 158 48 131 229 203 33 217 
164 11 3 89 111 10 60 143 63 36 25 200 140 
165 11 9 34 239 75 129 166 121 94 207 195 246 
166 11 129 9 165 2 34 239 75 183 94 81 159 
167 11 209 160 192 55 172 233 44 83 190 178 137 
168 11 72 20 17 127 191 247 77 21 74 245 87 
169 11 56 97 102 125 242 41 100 206 210 175 58 
170 11 103 200 218 92 25 61 3 36 43 111 10 
171 11 245 45 144 38 17 104 154 12 187 188 20 
172 11 190 44 209 33 160 167 133 28 26 212 27 
173 11 77 247 74 105 40 227 222 191 72 234 168 
174 11 228 189 138 180 211 176 64 71 110 183 246 
175 11 100 5 114 59 137 206 210 178 208 58 41 
176 11 211 115 138 189 71 196 110 180 228 84 246 
177 11 223 32 214 30 205 83 109 181 23 224 209 
178 11 137 55 114 233 5 192 210 175 41 100 219 
179 11 238 182 135 159 150 81 152 14 99 2 88 
180 11 138 189 228 174 71 176 211 110 183 246 195 
181 11 23 80 30 203 109 117 51 32 82 90 8 
182 11 238 159 2 179 150 81 135 166 14 129 88 
183 11 246 9 71 195 129 94 34 110 166 165 75 
184 11 87 22 153 198 127 86 91 68 227 37 146 
185 11 79 70 49 202 39 140 76 57 126 204 60 
186 11 42 81 150 88 183 2 166 129 9 182 14 
187 11 104 188 45 154 68 12 171 38 123 4 245 
188 11 187 104 154 12 45 68 4 123 38 171 151 
189 11 138 228 180 174 211 176 71 110 115 246 196 
190 11 172 44 33 160 209 133 28 26 212 27 69 
191 11 74 141 40 247 72 143 21 168 36 25 77 
192 11 55 233 178 137 114 160 167 210 5 225 219 
193 11 205 236 224 223 177 156 83 214 167 32 134 
194 11 215 240 108 105 221 147 161 197 222 173 7 
195 11 246 110 94 121 75 34 71 196 84 207 239 
196 11 84 115 110 195 94 246 121 71 176 207 75 
197 11 7 235 78 161 204 147 221 108 39 194 215 
198 11 91 199 227 19 146 184 22 87 127 222 124 
199 11 91 198 19 227 146 222 184 207 239 22 87 
200 11 218 25 36 170 103 3 143 141 111 92 43 
201 11 14 88 99 42 213 150 81 106 179 186 238 
202 11 79 140 76 70 126 185 10 39 60 130 111 
203 11 51 117 48 217 82 229 61 158 8 163 92 
204 11 7 39 161 147 108 60 89 63 234 202 164 
205 11 223 177 193 224 214 83 32 30 236 167 209 
206 11 58 100 120 175 24 208 66 102 11 56 5 
207 11 121 239 75 34 94 195 165 84 110 196 246 
208 11 66 11 120 58 95 59 206 175 62 100 13 
209 11 167 160 172 190 44 83 192 55 233 33 219 
210 11 41 178 137 225 100 55 114 175 5 192 56 
211 11 176 189 228 138 174 180 115 71 6 196 110 
212 11 27 136 67 101 15 69 133 96 26 219 44 
213 11 201 14 88 99 85 42 106 107 52 150 81 
214 11 32 83 109 30 223 177 209 172 23 181 167 
215 11 194 240 108 105 222 147 161 173 221 7 197 
216 11 67 96 13 15 95 136 59 101 212 244 27 
217 11 48 229 61 158 51 92 43 203 117 131 103 
218 11 200 25 36 170 103 3 141 143 92 43 111 
219 11 233 59 114 5 137 212 55 178 67 160 192 
220 11 4 15 244 101 96 69 136 27 67 26 133 
221 11 145 78 230 194 197 215 235 6 7 240 161 
222 11 240 227 173 199 77 91 215 198 207 247 194 
223 11 177 214 205 32 83 30 224 109 209 167 172 
224 11 156 83 167 209 225 192 160 223 55 205 214 
225 11 41 210 156 192 55 178 137 125 56 233 114 
226 11 124 146 22 19 86 198 91 184 118 199 159 
227 11 91 198 199 77 222 173 168 247 72 127 87 
228 11 189 174 138 180 211 176 71 64 110 115 246 
229 11 158 48 131 217 117 144 8 163 203 16 51 
230 11 145 231 6 221 78 235 241 197 194 211 215 
231 11 230 6 145 221 78 241 235 211 128 197 176 
232 11 139 102 50 97 24 169 206 58 56 120 98 
233 11 55 114 137 178 192 5 219 160 210 59 175 
234 11 63 89 105 108 60 40 147 164 143 74 161 
235 11 78 241 197 221 7 128 230 49 145 204 161 
236 11 193 134 224 156 242 205 125 225 41 56 169 
237 11 98 93 116 112 142 62 24 120 11 31 95 
238 11 182 179 159 150 81 2 135 152 14 88 99 
239 11 75 34 121 165 207 94 9 195 129 166 246 
240 11 222 215 194 84 207 196 115 121 173 94 199 
241 11 235 78 128 197 230 221 231 145 49 7 204 
242 11 125 56 169 134 41 225 156 97 210 102 100 
243 11 148 73 65 50 139 149 232 97 102 98 24 
244 11 220 96 4 47 15 101 216 67 136 13 37 
245 11 171 144 17 45 38 21 20 12 104 154 187 
246 11 195 110 71 94 34 75 183 121 9 196 165 
247 11 74 77 40 173 191 72 105 168 141 234 20 
DEPOT_SECTION
   1
   -1
EOF
