NAME :  X-n237-kX-w94-c7.cctp
COMMENT : 	Adapted by Maziero, Usberti and Cavellucci from the Uchoa, Pecin, Pessoa, Poggi, Subramanian, and Vidal (2013)
TYPE :  CCTP
DIMENSION :    232
EDGE_WEIGHT_TYPE : 	EUC_2D	
CAPACITY : 	18
VERTICES_WITHIN_COVERAGE :  7
VERTICES_WITH_DEMAND : 	94
NODE_COORD_SECTION
1 0 0
2 80 386
3 521 652
4 597 936
5 836 69
6 503 987
7 618 169
8 115 662
9 312 175
10 78 83
11 364 317
12 12 454
13 980 537
14 403 383
15 144 443
16 739 464
17 886 511
18 904 106
19 794 539
20 821 608
21 781 347
22 336 490
23 101 736
24 365 68
25 618 684
26 282 286
27 311 806
28 557 793
29 54 50
30 651 264
31 619 661
32 156 994
33 950 369
34 183 707
35 673 856
36 5 651
37 867 449
38 946 914
39 75 82
40 522 8
41 573 493
42 833 699
43 881 677
44 201 77
45 536 593
46 67 895
47 99 113
48 120 133
49 428 231
50 701 845
51 190 508
52 431 218
53 626 782
54 113 914
55 569 117
56 865 639
57 708 9
58 511 977
59 104 838
60 229 467
61 956 568
62 431 929
63 615 707
64 913 42
65 854 504
66 236 176
67 377 404
68 380 468
69 590 752
70 620 146
71 616 746
72 675 114
73 556 640
74 99 777
75 12 194
76 920 116
77 846 384
78 525 23
79 199 348
80 813 875
81 757 593
82 573 358
83 264 448
84 132 556
85 289 765
86 246 267
87 245 876
88 235 592
89 648 790
90 378 754
91 636 653
92 555 181
93 738 446
94 130 836
95 882 942
96 102 787
97 669 905
98 490 45
99 883 547
100 971 638
101 256 227
102 775 935
103 489 411
104 514 866
105 129 566
106 7 118
107 415 820
108 161 160
109 27 21
110 695 395
111 64 937
112 121 847
113 770 896
114 264 607
115 174 871
116 20 546
117 986 803
118 379 259
119 728 180
120 686 273
121 133 869
122 157 499
123 649 934
124 999 236
125 670 615
126 978 479
127 646 823
128 193 565
129 440 534
130 26 411
131 114 126
132 661 528
133 946 326
134 223 602
135 695 420
136 172 317
137 116 701
138 940 438
139 732 172
140 824 136
141 837 507
142 125 570
143 542 708
144 441 235
145 808 413
146 68 374
147 582 768
148 220 519
149 593 651
150 71 712
151 26 569
152 918 629
153 165 731
154 941 282
155 285 379
156 227 977
157 788 366
158 33 507
159 597 983
160 299 617
161 799 35
162 414 697
163 529 178
164 235 743
165 118 484
166 349 554
167 477 280
168 591 189
169 807 670
170 163 621
171 874 932
172 245 24
173 960 27
174 139 44
175 45 584
176 281 434
177 684 501
178 284 414
179 20 905
180 80 256
181 57 354
182 306 107
183 167 289
184 952 66
185 862 741
186 240 516
187 806 277
188 782 700
189 82 208
190 951 550
191 710 44
192 537 764
193 407 191
194 629 133
195 608 911
196 760 125
197 727 517
198 295 706
199 679 836
200 73 420
201 637 903
202 297 723
203 55 920
204 676 550
205 933 456
206 326 903
207 846 181
208 116 175
209 344 992
210 28 667
211 439 245
212 891 450
213 224 732
214 156 734
215 390 441
216 663 560
217 115 896
218 655 766
219 210 731
220 42 176
221 505 517
222 923 66
223 490 844
224 342 859
225 210 644
226 313 79
227 399 775
228 79 559
229 876 843
230 631 889
231 182 284
232 471 120
DEMAND_SECTION
2 1
3 1
4 1
5 1
6 1
7 1
8 1
9 1
10 1
11 1
12 1
13 1
14 1
15 1
16 1
17 1
18 1
19 1
20 1
21 1
22 1
23 1
24 1
25 1
26 1
27 1
28 1
29 1
30 1
31 1
32 1
33 1
34 1
35 1
36 1
37 1
38 1
39 1
40 1
41 1
42 1
43 1
44 1
45 1
46 1
47 1
48 1
49 1
50 1
51 1
52 1
53 1
54 1
55 1
56 1
57 1
58 1
59 1
60 1
61 1
62 1
63 1
64 1
65 1
66 1
67 1
68 1
69 1
70 1
71 1
72 1
73 1
74 1
75 1
76 1
77 1
78 1
79 1
80 1
81 1
82 1
83 1
84 1
85 1
86 1
87 1
88 1
89 1
90 1
91 1
92 1
93 1
94 1
95 1
COVERAGE_SECTION
2 7 146 200 181 130 15 12 165 
3 7 73 143 45 149 31 25 63 
4 7 195 159 123 201 230 97 58 
5 6 161 140 18 64 222 196 
6 7 58 62 159 4 104 195 223 
7 7 70 168 194 92 55 72 163 
8 7 137 170 150 23 34 214 153 
9 7 182 66 101 193 226 118 86 
10 7 39 47 29 131 48 174 106 
11 7 118 14 26 67 155 211 49 
12 7 130 158 200 116 2 146 165 
13 7 190 61 126 205 17 99 100 
14 7 67 215 11 68 103 155 178 
15 7 165 122 200 51 2 60 146 
16 7 93 197 135 177 110 145 19 
17 7 65 99 141 212 37 205 190 
18 7 76 222 184 64 5 140 207 
19 7 141 81 65 197 20 99 16 
20 7 56 169 81 19 99 43 42 
21 6 157 145 187 77 110 93 
22 7 68 166 215 176 83 178 67 
23 7 137 150 74 96 214 153 8 
24 7 226 182 232 9 98 172 193 
25 7 31 63 91 149 71 69 73 
26 7 86 101 11 155 231 118 79 
27 7 85 224 202 90 227 87 206 
28 7 147 192 69 53 71 223 104 
29 7 39 109 10 47 106 174 131 
30 6 120 168 7 119 70 82 
31 7 91 25 149 63 73 125 71 
32 7 156 54 217 111 115 203 121 
33 7 133 138 154 205 212 77 126 
34 7 153 219 214 213 164 137 225 
35 7 199 50 127 97 230 201 89 
36 7 210 175 151 150 116 8 228 
37 7 212 65 17 141 205 77 145 
38 7 95 171 229 117 80 102 113 
39 7 10 29 47 131 48 174 106 
40 7 78 98 55 232 194 24 70 
41 7 221 132 45 177 216 103 204 
42 7 169 185 188 43 56 20 152 
43 7 56 42 152 185 169 20 100 
44 7 172 174 108 48 131 66 47 
45 7 73 3 149 221 31 41 129 
46 7 203 111 179 217 54 59 121 
47 7 131 48 10 39 208 29 108 
48 7 131 47 208 108 10 39 189 
49 7 52 144 211 193 118 167 11 
50 7 199 35 127 97 89 230 113 
51 7 148 122 186 60 128 84 165 
52 7 49 144 211 193 118 167 163 
53 7 89 218 71 127 147 69 28 
54 7 217 121 46 111 203 112 115 
55 7 70 194 92 7 163 168 232 
56 7 43 20 152 169 42 99 185 
57 7 191 161 72 196 5 194 70 
58 7 6 159 62 4 104 195 223 
59 7 112 94 121 96 217 74 46 
60 7 83 186 148 51 176 178 122 
61 7 190 13 100 152 99 17 126 
62 7 6 58 223 104 209 206 107 
63 7 25 71 31 69 91 149 147 
64 7 222 184 173 18 76 5 161 
65 7 141 17 99 37 212 19 205 
66 7 101 9 108 86 182 44 26 
67 7 14 215 68 11 178 22 155 
68 7 215 22 67 14 129 166 176 
69 7 147 71 53 63 28 192 143 
70 7 194 7 168 55 72 92 163 
71 7 69 53 63 147 218 89 25 
72 7 194 70 191 7 139 119 196 
73 7 3 149 45 31 143 25 91 
74 7 96 23 59 94 150 214 112 
75 7 220 189 106 180 208 47 131 
76 7 18 222 184 64 5 140 173 
77 7 145 157 37 21 212 33 138 
78 7 40 98 55 232 194 70 163 
79 7 136 231 183 155 86 26 178 
80 7 113 102 229 171 95 50 38 
81 7 19 20 197 125 169 204 216 
82 7 103 30 167 110 41 135 120 
83 7 176 178 60 155 186 22 148 
84 7 105 142 228 122 128 170 165 
85 7 202 27 164 198 213 219 90 
86 7 26 101 231 183 136 66 79 
87 7 115 206 27 224 156 121 85 
88 7 134 114 128 225 160 148 186 
89 7 53 218 127 71 199 69 147 
90 7 227 162 107 27 202 85 198 
91 7 31 25 149 125 63 73 71 
92 7 163 168 7 55 70 194 232 
93 7 16 135 110 197 145 177 157 
94 7 112 59 121 96 115 217 74 
95 7 171 38 80 229 102 113 117 
96 7 74 23 59 94 112 214 150 
97 7 201 123 230 35 195 50 199 
98 7 78 40 232 55 24 163 92 
99 7 17 65 141 190 61 20 19 
100 7 152 61 190 43 13 56 99 
101 7 86 66 26 9 231 183 108 
102 7 113 80 171 95 97 50 123 
103 7 14 82 215 221 67 41 68 
104 7 223 28 62 195 192 4 107 
105 7 142 84 228 128 170 122 165 
106 7 220 75 39 10 29 47 109 
107 7 227 90 223 224 27 104 62 
108 7 208 48 131 66 47 44 189 
109 7 29 39 10 106 174 47 131 
110 7 135 93 16 157 21 177 145 
111 7 203 46 54 179 217 121 59 
112 7 94 59 121 217 115 96 54 
113 7 102 80 50 97 35 199 171 
114 7 88 160 134 225 128 186 148 
115 7 121 94 112 217 87 54 59 
116 7 151 158 175 228 12 36 142 
117 7 229 38 185 43 100 171 95 
118 7 49 11 211 52 144 193 167 
119 3 139 196 72 
120 5 30 119 139 21 187 
121 7 112 217 94 115 59 54 46 
122 7 51 165 15 84 148 105 128 
123 7 201 97 195 230 4 159 35 
124 6 154 133 33 76 18 207 
125 7 91 216 204 31 149 25 132 
126 7 205 138 13 190 61 212 17 
127 7 89 199 35 53 218 50 230 
128 7 134 88 148 51 84 105 170 
129 7 221 68 166 215 22 45 103 
130 7 12 200 146 2 181 158 165 
131 7 48 47 208 10 108 39 174 
132 7 204 216 177 197 125 41 16 
133 7 33 154 124 138 77 205 212 
134 7 88 114 225 128 170 160 148 
135 7 110 93 16 177 197 157 21 
136 7 183 231 79 86 180 26 2 
137 7 23 8 150 214 153 34 74 
138 7 205 212 126 33 37 17 13 
139 3 119 196 72 
140 4 207 196 5 18 
141 7 65 17 19 99 37 212 145 
142 7 105 84 228 170 128 122 175 
143 7 192 3 69 73 147 63 149 
144 7 211 49 52 193 167 118 163 
145 7 77 157 37 21 93 16 212 
146 7 2 181 200 130 12 15 136 
147 7 69 28 71 192 53 63 89 
148 7 186 51 60 128 122 88 134 
149 7 31 73 25 91 63 3 143 
150 7 23 137 210 8 74 96 214 
151 7 116 175 228 158 36 210 142 
152 7 56 100 43 61 190 99 20 
153 7 214 34 219 137 213 23 164 
154 6 133 124 33 187 77 207 
155 7 178 176 83 79 26 67 11 
156 7 32 87 209 115 206 54 217 
157 7 21 145 77 187 93 110 135 
158 7 116 12 151 228 175 165 130 
159 7 4 123 195 58 201 6 230 
160 7 114 88 134 166 198 225 202 
161 6 5 191 57 196 140 64 
162 7 90 227 3 198 202 107 143 
163 7 92 168 55 232 7 70 144 
164 7 213 219 85 34 202 198 153 
165 7 122 15 84 51 200 105 228 
166 7 22 160 68 129 114 186 88 
167 7 211 144 49 52 118 193 163 
168 7 7 92 70 163 194 55 30 
169 7 42 188 20 56 43 185 81 
170 7 225 8 134 128 142 105 84 
171 7 95 38 80 229 102 113 117 
172 7 44 226 182 174 24 66 108 
173 7 184 64 222 18 76 5 161 
174 7 44 10 39 47 29 131 48 
175 7 151 228 116 36 158 142 210 
176 7 178 83 155 60 22 186 67 
177 7 132 197 204 216 16 93 135 
178 7 176 155 83 60 22 67 79 
179 7 203 46 111 54 217 59 112 
180 7 189 208 220 75 183 181 231 
181 7 146 2 130 200 180 12 136 
182 7 226 9 24 66 172 44 101 
183 7 231 136 79 86 180 101 26 
184 7 222 173 64 76 18 5 140 
185 7 42 43 169 188 56 229 152 
186 7 148 60 51 128 83 88 122 
187 3 21 157 207 
188 7 169 42 185 20 43 56 81 
189 7 208 180 220 75 48 131 108 
190 7 61 13 99 17 126 152 100 
191 7 57 72 161 196 194 5 139 
192 7 28 147 69 143 71 53 223 
193 7 52 49 144 211 118 9 232 
194 7 70 7 72 55 168 92 119 
195 7 4 201 230 123 97 159 35 
196 5 139 119 140 72 5 
197 7 177 16 204 132 19 93 216 
198 7 202 85 164 213 160 219 90 
199 7 35 50 127 89 97 230 218 
200 7 2 146 130 181 12 15 165 
201 7 230 195 97 123 4 35 199 
202 7 198 85 164 213 27 90 219 
203 7 111 46 179 54 217 121 59 
204 7 216 132 177 197 125 81 16 
205 7 138 212 126 37 17 33 65 
206 7 224 87 209 27 62 107 156 
207 3 140 18 76 
208 7 48 108 189 131 47 220 180 
209 7 206 62 156 224 87 6 58 
210 7 36 150 175 8 137 151 23 
211 7 144 49 52 167 118 193 11 
212 7 37 205 138 17 65 141 77 
213 7 219 164 34 153 214 85 202 
214 7 153 34 137 219 23 213 74 
215 7 68 67 14 22 103 129 176 
216 7 204 132 125 177 197 91 81 
217 7 54 121 46 112 59 94 115 
218 7 89 53 71 127 69 63 147 
219 7 213 164 34 153 214 85 202 
220 7 75 189 106 208 47 131 48 
221 7 129 41 45 103 73 68 3 
222 7 64 184 18 76 173 5 140 
223 7 104 107 28 192 62 227 147 
224 7 206 27 107 87 227 85 90 
225 7 134 170 88 114 34 128 219 
226 7 182 24 172 9 44 66 193 
227 7 90 107 162 27 224 85 202 
228 7 175 142 105 84 151 116 158 
229 7 80 171 95 38 185 117 113 
230 7 201 195 97 123 35 4 127 
231 7 183 136 79 86 101 26 180 
232 7 98 163 193 55 92 52 78 
DEPOT_SECTION
   1
   -1
EOF
