NAME :  X-n261-kX-w52-c11.cctp
COMMENT : 	Adapted by Maziero, Usberti and Cavellucci from the Uchoa, Pecin, Pessoa, Poggi, Subramanian, and Vidal (2013)
TYPE :  CCTP
DIMENSION :    243
EDGE_WEIGHT_TYPE : 	EUC_2D	
CAPACITY : 	1081
VERTICES_WITHIN_COVERAGE :  11
VERTICES_WITH_DEMAND : 	52
NODE_COORD_SECTION
1 0 0
2 377 105
3 535 93
4 820 625
5 689 745
6 774 283
7 399 810
8 242 139
9 300 948
10 557 255
11 22 828
12 27 768
13 961 829
14 825 225
15 288 996
16 126 160
17 219 243
18 504 918
19 532 806
20 566 734
21 327 943
22 848 66
23 45 889
24 952 169
25 736 63
26 939 925
27 569 517
28 969 917
29 603 637
30 188 762
31 800 102
32 879 687
33 289 83
34 836 360
35 887 699
36 21 962
37 857 715
38 447 519
39 931 500
40 316 483
41 572 230
42 417 554
43 488 340
44 760 763
45 403 224
46 470 796
47 67 194
48 927 576
49 524 679
50 155 89
51 629 678
52 469 465
53 810 467
54 354 298
55 618 236
56 338 855
57 774 799
58 811 201
59 684 462
60 892 995
61 449 985
62 120 176
63 552 983
64 455 433
65 244 763
66 790 650
67 189 400
68 717 607
69 351 60
70 546 941
71 567 342
72 790 315
73 568 9
74 20 172
75 600 355
76 909 984
77 992 956
78 36 62
79 614 755
80 883 36
81 401 520
82 463 924
83 218 461
84 337 584
85 157 686
86 789 99
87 246 760
88 792 669
89 52 48
90 60 712
91 629 450
92 712 438
93 533 49
94 853 566
95 495 195
96 573 191
97 519 673
98 737 157
99 493 383
100 957 695
101 536 532
102 926 788
103 513 86
104 59 246
105 803 472
106 391 39
107 311 531
108 706 871
109 741 723
110 936 7
111 799 359
112 477 410
113 689 805
114 45 244
115 818 770
116 339 47
117 607 57
118 763 168
119 324 924
120 358 40
121 977 409
122 823 138
123 453 911
124 771 182
125 912 18
126 251 585
127 422 585
128 514 160
129 854 59
130 24 75
131 22 64
132 729 52
133 73 223
134 572 821
135 126 236
136 259 824
137 167 213
138 277 169
139 184 250
140 153 833
141 563 253
142 978 112
143 724 23
144 161 329
145 461 782
146 851 737
147 237 951
148 105 942
149 972 950
150 749 340
151 36 228
152 744 110
153 705 528
154 181 44
155 420 81
156 309 69
157 987 831
158 951 322
159 953 17
160 388 269
161 585 943
162 395 150
163 484 870
164 995 462
165 472 391
166 221 661
167 488 756
168 138 121
169 724 451
170 16 23
171 280 363
172 491 164
173 414 545
174 448 33
175 835 445
176 506 839
177 734 57
178 991 663
179 671 263
180 578 546
181 344 527
182 180 806
183 608 856
184 380 871
185 920 900
186 518 179
187 282 281
188 835 214
189 895 580
190 785 78
191 407 979
192 31 260
193 346 961
194 938 233
195 603 917
196 572 723
197 838 477
198 545 568
199 260 584
200 348 33
201 483 309
202 237 419
203 417 484
204 33 323
205 514 471
206 59 792
207 532 185
208 536 745
209 781 371
210 440 901
211 953 180
212 290 771
213 332 323
214 264 881
215 152 663
216 94 101
217 614 160
218 202 225
219 148 85
220 93 799
221 934 466
222 999 195
223 660 791
224 547 966
225 980 316
226 608 512
227 398 136
228 166 24
229 547 880
230 620 872
231 523 885
232 926 617
233 536 487
234 445 327
235 851 455
236 59 176
237 474 325
238 471 123
239 335 879
240 650 321
241 796 593
242 477 184
243 417 342
DEMAND_SECTION
2 64
3 73
4 98
5 36
6 76
7 13
8 74
9 43
10 80
11 59
12 95
13 33
14 68
15 35
16 64
17 59
18 22
19 10
20 60
21 36
22 20
23 49
24 67
25 69
26 83
27 99
28 25
29 94
30 34
31 96
32 8
33 49
34 89
35 99
36 21
37 70
38 71
39 45
40 32
41 11
42 48
43 35
44 21
45 90
46 99
47 41
48 55
49 59
50 1
51 36
52 94
53 97
COVERAGE_SECTION
2 10 227 162 155 69 106 120 116 156 200 33 
3 10 103 93 128 238 117 172 186 73 207 217 
4 11 66 241 88 94 32 189 37 35 68 232 146 
5 11 223 109 113 44 79 51 57 196 20 108 88 
6 11 72 150 14 111 209 58 188 34 124 179 118 
7 11 184 145 46 56 239 210 163 167 176 123 212 
8 11 138 33 218 156 50 137 168 17 219 154 16 
9 11 21 119 193 15 147 214 239 56 184 191 136 
10 11 141 41 55 96 207 186 95 71 201 128 242 
11 11 206 12 23 220 90 140 36 148 182 30 85 
12 9 206 11 90 220 23 140 85 182 30 
13 11 157 102 185 28 26 149 77 100 146 35 37 
14 11 188 58 124 6 118 122 72 98 194 31 86 
15 11 9 21 147 193 119 214 191 239 56 184 61 
16 11 62 168 137 216 47 236 135 50 219 133 218 
17 11 218 139 137 187 135 138 144 8 62 16 171 
18 11 231 82 70 123 163 229 224 210 176 63 161 
19 11 176 134 208 46 167 145 229 20 163 231 183 
20 11 196 208 79 49 97 19 167 51 134 29 223 
21 11 119 193 9 239 15 191 214 56 184 147 210 
22 11 129 80 31 190 86 122 125 110 25 152 177 
23 11 11 36 148 206 220 12 140 182 90 30 147 
24 11 211 222 142 194 188 122 14 58 22 129 80 
25 11 177 132 143 152 190 86 31 98 118 22 122 
26 10 28 185 149 77 76 60 13 157 102 115 
27 11 180 101 226 233 198 205 91 52 38 29 59 
28 10 26 149 77 185 13 157 76 60 102 115 
29 11 51 49 198 97 196 180 20 68 79 27 101 
30 11 182 65 87 140 85 136 212 220 215 166 206 
31 11 86 190 122 152 22 129 25 118 177 98 124 
32 11 35 37 146 100 232 4 88 66 115 189 102 
33 11 156 116 69 8 200 120 138 2 106 154 227 
34 11 111 209 72 175 150 235 6 53 105 197 158 
35 11 32 37 146 100 232 102 115 4 88 66 178 
36 11 23 148 11 206 220 140 12 147 182 90 214 
37 11 146 35 32 115 88 66 4 102 100 44 109 
38 11 173 42 81 203 52 127 205 64 101 233 181 
39 11 221 164 48 189 235 197 94 121 175 232 53 
40 11 107 181 81 83 203 202 84 199 173 126 42 
41 11 141 10 96 55 207 186 217 95 128 172 179 
42 11 173 127 81 38 203 181 84 52 107 101 40 
43 11 237 201 99 234 165 112 243 71 64 10 75 
44 11 57 109 115 5 113 146 88 223 37 66 108 
45 10 160 162 242 227 54 95 172 234 201 243 
46 11 145 167 176 19 7 163 208 231 134 210 20 
47 11 236 133 151 74 104 114 62 16 135 192 216 
48 11 189 232 94 39 178 221 4 32 100 35 241 
49 11 97 196 208 20 167 29 51 198 79 145 19 
50 11 219 168 154 216 228 16 62 8 89 78 137 
51 11 29 196 79 20 5 49 97 68 208 223 109 
52 11 64 205 203 112 38 233 165 99 81 101 173 
53 11 105 197 175 235 169 209 92 94 111 34 153 
54 11 213 160 187 243 45 234 171 237 201 43 17 
55 11 41 141 179 10 96 217 240 207 186 71 75 
56 11 239 184 119 7 214 136 21 212 9 193 210 
57 10 44 115 109 113 108 146 5 223 37 88 
58 11 188 14 124 118 122 98 6 31 86 152 72 
59 9 92 169 91 153 226 105 53 27 209 
60 9 76 26 149 185 77 28 13 157 102 
61 11 191 82 123 210 18 224 63 193 70 163 231 
62 11 16 47 168 135 137 236 133 216 104 50 219 
63 9 224 70 161 18 195 231 61 229 82 
64 11 112 52 165 99 203 205 38 233 43 243 81 
65 11 87 212 30 136 182 166 140 85 214 56 215 
66 11 88 4 241 68 109 37 32 94 146 35 44 
67 8 202 83 144 171 139 187 40 17 
68 11 153 241 66 88 4 51 29 109 5 94 226 
69 11 116 120 200 156 106 2 33 155 227 162 174 
70 10 224 161 63 18 229 231 195 82 163 123 
71 10 75 43 99 240 10 141 201 237 165 41 
72 10 6 111 150 209 34 14 188 58 179 124 
73 11 93 117 3 103 174 238 143 217 128 155 132 
74 11 236 47 151 133 114 104 192 130 62 216 16 
75 9 71 240 91 10 141 99 43 179 55 
76 9 60 26 149 185 77 28 13 157 102 
77 10 149 28 26 76 185 60 157 13 102 115 
78 11 131 130 89 170 216 74 219 236 168 50 16 
79 11 20 196 223 5 51 134 208 113 19 183 230 
80 11 125 129 22 110 159 31 190 86 122 142 25 
81 11 173 42 203 38 181 127 52 84 107 40 64 
82 11 123 210 18 163 61 231 191 70 224 176 229 
83 9 202 67 40 107 171 126 199 181 144 
84 11 181 107 199 42 127 126 173 81 40 38 203 
85 6 215 166 30 90 65 87 
86 11 31 190 152 122 25 22 177 118 129 132 98 
87 11 65 212 30 136 182 166 85 140 214 56 215 
88 11 66 4 109 241 37 32 146 68 44 35 115 
89 11 78 131 130 170 216 219 50 168 228 74 236 
90 7 12 206 220 85 215 11 30 
91 9 59 226 92 27 169 75 233 153 180 
92 9 169 59 91 153 209 105 53 150 111 
93 10 103 3 73 117 174 238 128 155 172 186 
94 11 189 241 4 48 232 197 39 66 105 53 235 
95 10 242 186 172 207 128 238 96 41 10 141 
96 11 41 207 217 186 141 55 10 128 95 172 242 
97 11 49 196 208 20 167 29 198 51 145 79 127 
98 11 118 124 152 86 31 58 122 190 25 177 132 
99 11 165 112 43 237 64 234 201 52 71 243 205 
100 11 178 35 32 232 102 37 146 48 189 13 157 
101 11 27 198 180 233 205 226 38 52 42 173 91 
102 11 13 157 146 35 100 37 115 32 185 28 26 
103 10 3 93 238 128 172 174 155 186 73 117 
104 10 114 133 151 192 47 135 236 204 74 62 
105 11 53 197 175 235 169 92 209 94 111 153 34 
106 11 120 200 69 155 116 174 2 156 227 33 162 
107 11 181 40 84 199 126 81 173 42 83 203 127 
108 8 113 230 223 57 183 195 44 5 
109 11 44 5 88 57 66 115 113 223 146 37 68 
110 11 159 125 80 129 22 142 24 31 190 86 122 
111 11 209 34 72 150 6 175 53 235 105 92 169 
112 11 165 99 64 52 43 205 237 234 243 203 233 
113 11 223 5 108 44 57 79 183 230 109 134 115 
114 10 104 151 192 133 47 236 74 204 135 62 
115 11 146 57 44 37 109 35 32 88 102 66 5 
116 11 200 69 120 156 106 33 2 155 227 174 162 
117 11 73 93 3 103 217 132 143 177 25 96 128 
118 11 124 98 58 152 122 86 31 14 188 190 25 
119 11 21 9 193 239 56 214 184 15 147 191 210 
120 11 200 116 69 106 156 2 155 33 174 227 162 
121 11 164 221 158 225 39 235 175 34 197 48 53 
122 11 31 86 58 118 124 190 22 188 152 129 14 
123 11 82 210 18 163 61 231 191 184 176 70 229 
124 11 118 98 58 122 14 188 152 31 86 6 190 
125 11 110 80 159 129 22 142 31 190 86 122 24 
126 9 199 107 166 84 181 40 215 83 85 
127 11 42 173 81 38 84 181 203 107 198 101 52 
128 10 186 172 207 95 242 238 96 3 103 41 
129 11 22 80 31 125 190 86 122 110 159 25 177 
130 11 131 78 89 170 216 74 236 168 219 47 50 
131 11 130 78 89 170 216 74 236 219 168 50 47 
132 11 177 25 143 152 190 86 31 98 22 118 117 
133 11 104 47 114 151 236 135 192 62 74 16 137 
134 11 19 183 229 176 230 79 231 208 20 223 196 
135 11 137 133 62 139 104 47 16 218 114 151 236 
136 11 214 212 65 87 182 56 30 239 140 119 147 
137 11 218 139 135 17 62 16 133 168 47 8 104 
138 11 8 33 17 218 156 187 137 2 162 139 227 
139 10 218 17 137 135 144 62 187 16 133 138 
140 11 182 220 30 206 136 65 87 148 214 23 11 
141 11 10 41 55 96 207 186 71 95 201 128 217 
142 11 24 211 222 159 110 125 80 194 129 22 122 
143 11 132 177 25 190 152 86 31 117 22 98 129 
144 8 67 139 135 17 218 137 202 171 
145 11 46 167 7 176 19 208 163 20 134 184 231 
146 11 37 115 35 32 88 102 44 57 66 109 100 
147 11 9 15 214 21 119 193 239 136 148 56 140 
148 11 23 36 140 147 11 220 182 206 214 12 15 
149 10 77 28 26 76 185 60 157 13 102 115 
150 9 209 72 111 6 34 240 92 179 169 
151 11 114 104 192 133 47 236 74 135 204 62 16 
152 11 86 25 98 190 177 31 132 118 124 122 143 
153 10 59 169 68 92 226 91 241 105 53 180 
154 11 228 50 219 168 216 8 33 16 89 156 62 
155 10 2 106 174 227 238 69 162 120 200 116 
156 11 33 116 69 200 120 2 106 8 138 227 155 
157 11 13 102 28 185 26 149 77 100 146 35 178 
158 11 225 194 121 34 222 211 221 164 24 111 188 
159 11 110 125 80 142 129 22 24 211 31 122 190 
160 11 54 45 213 243 234 201 237 187 162 43 242 
161 9 195 70 224 63 229 230 18 231 183 
162 10 227 2 155 45 238 242 172 69 95 106 
163 11 176 231 123 18 210 82 229 46 19 145 70 
164 11 121 221 39 48 235 158 225 189 197 175 232 
165 11 112 99 64 43 237 234 52 243 201 205 71 
166 8 85 215 126 199 87 65 30 212 
167 11 145 46 208 19 20 49 176 97 196 7 134 
168 11 50 219 16 216 62 154 137 236 228 47 8 
169 9 92 59 153 105 53 91 209 175 150 
170 11 131 78 89 130 216 219 74 228 50 168 236 
171 11 213 202 187 54 67 83 144 40 17 243 160 
172 10 128 242 95 186 207 238 103 3 96 162 
173 11 42 81 127 38 203 181 84 52 107 40 64 
174 11 155 106 103 93 120 238 200 2 69 3 116 
175 11 235 197 53 105 34 209 111 221 39 169 94 
176 11 163 19 231 46 229 134 145 18 167 123 210 
177 11 25 132 143 152 190 86 31 98 22 118 122 
178 11 100 232 48 35 32 189 102 37 146 157 13 
179 10 55 240 41 6 141 150 10 75 217 96 
180 11 27 198 101 226 233 29 205 91 153 38 59 
181 11 107 40 81 84 173 42 203 127 199 38 126 
182 11 140 30 65 87 136 220 214 212 85 206 215 
183 11 230 134 195 229 223 161 231 19 113 108 79 
184 11 56 239 7 210 119 123 21 193 82 163 9 
185 10 26 28 149 13 76 77 157 60 102 115 
186 10 207 128 95 172 242 96 238 41 10 141 
187 11 213 17 54 171 218 139 160 138 144 45 137 
188 11 14 58 124 122 118 6 194 72 98 31 211 
189 11 48 94 232 4 39 241 32 197 35 221 66 
190 11 86 31 25 152 177 132 22 122 129 143 98 
191 11 61 193 82 123 210 21 119 9 184 18 15 
192 10 114 104 151 133 204 47 74 236 135 62 
193 11 21 119 9 191 15 239 184 56 61 147 210 
194 11 211 24 222 158 225 188 14 142 58 122 34 
195 9 161 230 183 70 229 224 63 231 18 
196 11 20 208 79 49 51 97 167 29 19 134 223 
197 11 235 53 175 105 94 39 221 34 169 189 209 
198 11 101 180 27 233 226 29 205 97 38 49 127 
199 9 126 107 84 166 181 40 83 215 85 
200 11 120 116 69 106 156 33 2 155 174 227 162 
201 11 237 43 234 243 99 165 71 10 141 112 160 
202 9 83 67 171 40 144 107 213 187 181 
203 11 81 38 52 173 64 42 181 112 205 40 127 
204 8 192 114 104 151 133 135 144 47 
205 11 233 52 101 64 112 27 38 99 165 203 180 
206 11 220 12 11 90 23 140 182 30 85 148 215 
207 10 186 128 95 96 172 242 41 10 141 217 
208 11 20 196 167 19 49 97 79 46 134 145 176 
209 11 111 150 34 72 6 175 92 169 53 105 235 
210 11 123 82 163 18 184 61 191 231 176 7 239 
211 11 24 222 194 142 188 14 122 225 158 58 22 
212 11 87 65 136 56 30 214 182 7 239 166 184 
213 11 54 187 171 160 243 234 45 202 17 237 201 
214 11 136 239 119 147 9 56 21 182 212 193 184 
215 5 85 166 90 30 126 
216 11 168 219 50 16 89 78 130 62 131 236 47 
217 11 96 55 41 207 186 128 117 3 141 10 179 
218 11 17 139 137 135 138 8 62 187 16 144 168 
219 11 50 168 154 216 228 16 62 89 8 78 130 
220 11 206 140 12 11 182 90 23 30 85 148 215 
221 11 39 164 121 235 197 175 48 189 53 94 105 
222 11 211 24 194 142 225 158 188 14 159 122 58 
223 11 113 5 79 183 230 108 134 44 109 20 196 
224 10 63 70 161 18 195 231 229 82 61 123 
225 11 158 121 194 222 211 164 24 34 221 188 14 
226 10 27 180 91 101 233 198 59 153 205 29 
227 10 162 2 155 238 45 69 242 106 172 120 
228 11 154 219 50 168 216 89 78 33 8 16 131 
229 11 231 18 176 70 134 163 183 195 230 161 19 
230 11 183 195 134 229 161 108 223 113 231 70 19 
231 11 229 18 163 176 70 82 123 19 134 224 161 
232 11 48 189 178 32 100 94 35 4 39 37 241 
233 11 205 27 101 52 180 226 198 38 64 112 91 
234 11 237 243 201 43 165 99 160 112 54 64 45 
235 11 175 197 53 105 221 39 34 111 209 94 169 
236 11 47 74 133 151 62 16 114 104 216 192 135 
237 11 201 43 234 243 99 165 112 71 160 10 64 
238 10 172 103 128 242 155 3 186 227 95 162 
239 11 56 119 184 21 214 9 193 7 136 210 212 
240 9 75 179 71 55 150 141 10 41 6 
241 11 4 66 94 88 68 189 153 105 197 32 53 
242 10 95 172 186 128 207 238 45 162 227 96 
243 11 234 237 43 165 201 54 160 99 213 112 64 
DEPOT_SECTION
   1
   -1
EOF
