NAME :  X-n204-kX-w40-c11.cctp
COMMENT : 	Adapted by Maziero, Usberti and Cavellucci from the Uchoa, Pecin, Pessoa, Poggi, Subramanian, and Vidal (2013)
TYPE :  CCTP
DIMENSION :    160
EDGE_WEIGHT_TYPE : 	EUC_2D	
CAPACITY : 	836
VERTICES_WITHIN_COVERAGE :  11
VERTICES_WITH_DEMAND : 	40
NODE_COORD_SECTION
1 500 500
2 221 542
3 320 456
4 576 827
5 679 994
6 371 461
7 961 844
8 986 379
9 175 540
10 126 517
11 329 626
12 477 890
13 191 356
14 584 917
15 308 653
16 0 7
17 273 302
18 672 381
19 235 415
20 583 149
21 672 124
22 644 646
23 400 544
24 832 999
25 842 964
26 582 965
27 544 311
28 429 2
29 939 849
30 898 605
31 363 130
32 639 874
33 323 201
34 829 350
35 7 53
36 801 92
37 57 330
38 943 0
39 579 275
40 833 402
41 408 940
42 635 871
43 631 630
44 733 313
45 344 619
46 628 291
47 674 92
48 38 354
49 473 107
50 668 279
51 510 811
52 366 16
53 49 182
54 528 946
55 271 745
56 405 872
57 622 488
58 668 978
59 939 73
60 556 632
61 270 446
62 586 348
63 951 167
64 247 997
65 992 460
66 128 590
67 746 847
68 279 459
69 428 183
70 364 167
71 656 687
72 547 792
73 517 152
74 252 618
75 184 96
76 590 47
77 348 609
78 777 112
79 528 198
80 877 457
81 812 650
82 864 723
83 584 875
84 817 233
85 439 447
86 560 994
87 818 658
88 447 951
89 969 519
90 488 401
91 287 534
92 399 181
93 141 22
94 29 248
95 313 643
96 294 475
97 327 361
98 332 440
99 242 943
100 96 492
101 62 541
102 119 370
103 342 587
104 316 552
105 90 370
106 111 575
107 321 337
108 287 454
109 364 560
110 215 488
111 351 232
112 344 337
113 216 497
114 133 584
115 188 327
116 175 352
117 281 702
118 247 645
119 424 677
120 438 666
121 454 547
122 354 242
123 96 387
124 462 532
125 343 658
126 127 368
127 245 363
128 356 488
129 259 410
130 480 270
131 196 492
132 303 336
133 243 888
134 287 528
135 285 277
136 167 560
137 368 360
138 328 277
139 355 399
140 236 522
141 308 118
142 345 467
143 408 363
144 419 188
145 250 337
146 232 388
147 498 308
148 362 702
149 105 507
150 245 521
151 576 280
152 257 647
153 423 470
154 206 467
155 241 305
156 137 433
157 210 392
158 371 627
159 219 344
160 96 427
DEMAND_SECTION
2 61
3 96
4 52
5 58
6 81
7 76
8 51
9 98
10 65
11 84
12 63
13 79
14 89
15 70
16 93
17 84
18 100
19 70
20 52
21 86
22 69
23 50
24 59
25 79
26 53
27 66
28 65
29 70
30 74
31 86
32 77
33 83
34 50
35 76
36 62
37 73
38 54
39 100
40 99
41 59
COVERAGE_SECTION
2 9 140 150 113 9 110 131 136 91 134 
3 9 98 142 96 108 68 128 6 61 139 
4 11 72 83 51 42 32 14 12 54 26 71 86 
5 11 58 26 86 14 32 42 83 24 54 67 25 
6 11 142 128 98 3 153 139 85 96 108 23 68 
7 11 29 82 25 24 67 87 81 30 5 58 32 
8 11 65 80 89 40 34 63 84 30 44 59 18 
9 11 136 2 131 10 113 114 140 110 66 106 150 
10 10 149 100 9 136 106 114 101 66 131 156 
11 11 45 95 77 15 125 103 158 104 109 152 74 
12 11 88 56 54 41 51 83 14 4 72 26 86 
13 11 116 115 159 157 146 127 145 126 155 102 19 
14 11 83 26 54 42 32 86 4 58 12 5 51 
15 11 95 11 125 45 152 117 77 118 74 158 148 
16 11 35 93 53 75 94 141 37 48 52 115 105 
17 11 135 155 145 132 107 138 127 159 112 97 115 
18 11 44 62 46 50 57 151 39 27 34 40 90 
19 10 129 146 157 61 127 154 68 108 159 13 
20 8 73 79 21 76 47 49 39 151 
21 11 47 20 78 76 36 50 73 79 46 39 84 
22 11 43 71 60 57 81 87 72 4 120 51 121 
23 11 109 121 124 128 103 153 77 104 6 158 45 
24 11 25 5 58 67 29 7 32 42 26 14 86 
25 11 24 29 67 5 7 58 32 42 82 26 14 
26 11 86 14 54 58 83 5 32 42 12 88 4 
27 8 151 147 39 62 130 46 90 79 
28 10 52 49 31 76 141 73 70 69 92 144 
29 11 7 82 25 24 67 87 81 30 5 58 32 
30 11 87 81 89 82 80 65 40 8 7 29 71 
31 9 70 141 92 33 144 69 111 49 122 
32 11 42 83 14 4 26 58 67 72 5 54 51 
33 10 111 122 70 138 92 31 141 135 144 69 
34 11 40 44 80 84 8 18 50 65 46 89 63 
35 11 16 53 93 75 94 37 48 141 105 115 102 
36 11 78 47 21 59 84 63 38 76 20 50 44 
37 11 48 105 123 102 126 94 160 116 156 115 13 
38 11 59 63 36 78 84 47 21 76 34 44 8 
39 8 151 27 46 62 147 50 79 130 
40 11 34 80 44 8 18 65 84 89 50 30 57 
41 11 88 56 12 54 86 51 99 64 133 26 14 
42 11 32 83 14 4 26 58 67 72 5 54 51 
43 11 22 71 60 57 72 81 87 121 124 120 4 
44 11 50 18 34 46 84 40 62 39 151 27 21 
45 11 77 11 158 103 95 125 15 109 104 148 152 
46 10 50 39 151 62 27 18 44 147 79 20 
47 11 21 76 78 20 36 73 79 50 84 49 46 
48 11 37 105 123 102 126 160 94 156 116 100 115 
49 7 73 69 144 92 79 31 28 
50 11 46 44 39 151 18 62 27 20 21 84 79 
51 11 72 4 12 83 56 14 54 42 32 88 119 
52 10 28 31 141 49 70 92 69 144 33 75 
53 11 94 35 37 75 48 16 93 105 102 115 126 
54 11 26 86 14 12 88 83 41 4 42 32 51 
55 7 117 15 152 148 118 95 125 
56 11 41 12 88 51 54 72 133 148 4 99 83 
57 11 18 43 62 60 22 90 124 121 85 27 46 
58 11 5 26 14 32 86 42 83 54 67 24 25 
59 11 38 63 36 78 84 47 21 34 8 44 50 
60 11 43 22 71 120 121 124 119 57 72 23 51 
61 7 68 108 96 129 19 3 98 
62 10 27 151 46 39 18 147 50 90 130 57 
63 11 59 84 38 36 78 8 34 44 40 21 47 
64 5 99 133 41 56 88 
65 11 89 8 80 40 30 34 81 87 84 82 63 
66 5 114 106 136 9 10 
67 11 32 42 25 58 5 83 4 82 24 14 71 
68 7 108 61 96 3 129 98 19 
69 4 144 92 70 31 
70 8 31 92 33 144 69 111 141 122 
71 11 22 43 60 72 81 4 87 67 42 32 51 
72 11 51 4 83 42 12 32 14 71 54 60 56 
73 5 79 49 20 69 144 
74 11 118 152 15 95 11 2 117 91 45 104 103 
75 11 93 141 53 33 31 35 70 52 16 135 111 
76 9 47 20 21 73 49 79 28 78 69 
77 11 45 103 11 158 95 125 109 15 104 23 148 
78 11 36 47 21 84 59 63 20 76 50 38 44 
79 5 73 20 130 39 151 
80 11 40 89 65 34 8 30 44 81 87 18 84 
81 11 87 82 30 71 22 43 80 89 67 29 7 
82 11 87 81 30 29 7 67 71 89 22 25 43 
83 11 14 4 42 32 26 54 72 51 12 86 58 
84 11 44 34 78 36 63 50 40 21 46 47 59 
85 10 153 90 6 124 143 128 142 139 121 23 
86 11 26 54 14 58 5 83 88 12 32 42 41 
87 11 81 82 30 71 22 43 67 89 80 29 7 
88 11 41 12 54 56 86 26 14 51 83 4 72 
89 11 65 80 30 8 40 81 87 34 82 44 84 
90 9 85 143 147 153 27 62 137 6 130 
91 8 134 104 150 140 96 2 68 103 
92 6 144 69 70 31 111 122 
93 11 75 35 16 53 141 52 31 94 33 70 28 
94 11 53 37 48 105 102 123 126 115 116 160 13 
95 11 15 11 125 45 77 152 158 103 74 118 117 
96 8 68 108 3 61 98 142 134 91 
97 10 107 112 132 137 139 98 17 143 145 127 
98 10 3 142 6 108 139 96 128 68 61 97 
99 5 64 133 41 56 55 
100 10 149 10 101 160 156 106 9 136 114 131 
101 6 149 100 106 10 66 114 
102 11 126 105 123 116 160 156 13 37 115 48 157 
103 11 77 45 109 11 104 158 95 125 23 15 91 
104 10 91 134 103 109 77 45 11 128 150 96 
105 11 123 102 126 37 48 160 156 116 13 115 100 
106 6 66 114 136 10 101 149 
107 10 132 112 97 137 17 138 135 139 145 127 
108 7 68 61 96 3 98 129 142 
109 11 103 23 104 77 45 158 128 11 91 134 121 
110 7 113 131 154 140 150 2 9 
111 7 122 33 138 70 92 135 144 
112 9 107 97 137 132 138 139 143 17 135 
113 7 110 131 140 154 150 2 9 
114 5 66 106 136 9 10 
115 11 116 13 159 155 145 127 157 126 146 102 17 
116 11 13 115 159 126 157 102 146 127 145 155 123 
117 10 55 15 152 118 95 125 148 74 11 45 
118 10 152 74 15 95 117 11 125 45 55 2 
119 11 120 148 158 125 45 77 11 95 15 103 109 
120 11 119 158 148 125 45 77 11 121 60 103 95 
121 11 124 23 153 109 85 128 158 103 6 120 77 
122 7 111 138 33 70 92 135 144 
123 11 105 102 126 160 156 48 37 116 13 100 115 
124 11 121 23 153 85 109 6 128 103 158 90 142 
125 11 95 11 15 45 158 148 77 103 117 119 152 
126 11 102 123 105 116 13 156 160 115 37 157 48 
127 11 145 146 159 157 129 19 13 155 132 17 115 
128 11 142 6 3 98 96 153 23 109 104 108 134 
129 10 19 146 61 127 108 157 68 96 145 3 
130 2 147 27 
131 8 110 113 154 140 9 2 150 10 
132 11 107 97 112 17 145 135 127 138 137 155 139 
133 5 99 64 55 56 41 
134 8 91 104 150 140 96 2 68 108 
135 11 17 138 155 132 145 107 122 111 112 33 97 
136 10 9 114 66 2 106 10 131 140 113 149 
137 9 112 143 97 139 107 132 98 138 6 
138 10 135 122 111 17 107 112 132 33 97 155 
139 10 137 97 98 112 6 143 3 142 107 132 
140 7 150 2 113 110 131 134 91 
141 10 31 70 33 92 52 111 75 144 122 69 
142 10 128 3 6 98 96 108 68 139 61 153 
143 8 137 139 112 97 90 85 107 6 
144 4 69 92 70 31 
145 11 127 159 155 17 132 146 13 115 157 135 107 
146 11 157 19 127 129 159 13 145 116 61 115 154 
147 5 130 27 151 39 90 
148 11 125 119 15 158 95 117 11 120 45 77 55 
149 10 100 10 101 106 9 156 160 114 136 66 
150 7 140 2 113 134 91 110 131 
151 8 39 27 46 62 147 50 79 130 
152 10 118 74 15 95 117 11 125 45 55 77 
153 11 85 6 128 124 23 142 121 90 98 139 3 
154 8 110 131 113 19 140 61 150 68 
155 11 17 145 159 135 115 127 132 13 116 146 107 
156 11 160 123 102 126 100 154 105 149 131 157 10 
157 11 146 19 13 127 159 129 116 145 115 154 61 
158 11 45 77 11 125 103 95 109 15 119 148 120 
159 11 13 127 145 115 116 155 146 157 17 19 129 
160 11 123 156 105 102 100 126 149 48 10 37 116 
DEPOT_SECTION
   1
   -1
EOF
