NAME :  X-n298-kX-w118-c11.cctp
COMMENT : 	Adapted by Maziero, Usberti and Cavellucci from the Uchoa, Pecin, Pessoa, Poggi, Subramanian, and Vidal (2013)
TYPE :  CCTP
DIMENSION :    298
EDGE_WEIGHT_TYPE : 	EUC_2D	
CAPACITY : 	55
VERTICES_WITHIN_COVERAGE :  11
VERTICES_WITH_DEMAND : 	118
NODE_COORD_SECTION
1 440 732
2 221 348
3 117 545
4 493 645
5 135 12
6 775 997
7 745 444
8 950 311
9 530 150
10 900 508
11 48 519
12 269 217
13 722 349
14 480 733
15 977 422
16 999 220
17 636 332
18 851 162
19 559 567
20 389 69
21 529 835
22 303 427
23 400 638
24 894 904
25 482 109
26 579 800
27 184 82
28 669 753
29 906 424
30 374 692
31 174 613
32 75 37
33 38 563
34 838 157
35 710 709
36 176 67
37 449 326
38 71 389
39 710 115
40 237 547
41 530 27
42 631 223
43 171 342
44 226 65
45 6 998
46 24 635
47 668 165
48 318 608
49 429 82
50 212 237
51 853 126
52 387 47
53 677 144
54 111 790
55 957 32
56 511 647
57 457 561
58 86 687
59 290 456
60 473 563
61 807 725
62 461 468
63 739 235
64 257 340
65 588 545
66 6 311
67 268 976
68 552 414
69 994 946
70 452 534
71 422 545
72 248 611
73 43 366
74 977 96
75 822 580
76 940 650
77 86 263
78 715 99
79 668 981
80 424 638
81 297 607
82 251 282
83 237 413
84 202 573
85 181 385
86 126 528
87 386 811
88 978 846
89 70 99
90 333 357
91 49 870
92 157 734
93 627 268
94 818 433
95 738 555
96 350 909
97 337 926
98 978 59
99 42 595
100 870 933
101 19 120
102 165 679
103 131 984
104 232 755
105 319 417
106 187 376
107 251 482
108 657 219
109 209 397
110 800 377
111 228 116
112 566 559
113 490 156
114 216 547
115 964 677
116 85 897
117 292 807
118 600 893
119 938 222
120 543 747
121 572 976
122 569 59
123 712 574
124 971 515
125 616 306
126 695 837
127 421 821
128 604 995
129 537 957
130 1000 653
131 282 817
132 380 874
133 778 101
134 462 74
135 87 682
136 441 228
137 608 430
138 511 313
139 710 300
140 630 24
141 626 650
142 531 719
143 598 824
144 995 622
145 258 981
146 358 281
147 279 169
148 286 268
149 259 659
150 782 132
151 862 518
152 457 603
153 210 438
154 44 44
155 527 818
156 164 156
157 23 86
158 342 930
159 39 282
160 269 848
161 436 886
162 323 340
163 237 891
164 333 488
165 517 137
166 591 972
167 541 888
168 122 280
169 159 655
170 200 158
171 446 283
172 107 315
173 588 270
174 158 374
175 26 353
176 959 76
177 852 328
178 927 736
179 437 138
180 53 938
181 333 192
182 922 499
183 407 948
184 970 664
185 237 738
186 8 561
187 747 852
188 989 908
189 100 860
190 10 960
191 842 190
192 595 716
193 286 965
194 199 373
195 159 67
196 979 25
197 488 479
198 804 620
199 742 853
200 528 160
201 223 342
202 503 159
203 711 681
204 339 340
205 342 509
206 931 593
207 766 953
208 710 172
209 521 451
210 172 159
211 685 836
212 639 155
213 763 656
214 269 241
215 825 761
216 330 177
217 901 124
218 713 860
219 619 926
220 692 19
221 96 876
222 949 178
223 79 795
224 833 852
225 336 444
226 877 0
227 296 597
228 566 735
229 940 377
230 349 269
231 939 827
232 908 120
233 50 741
234 670 569
235 753 744
236 577 351
237 141 616
238 97 625
239 64 875
240 496 160
241 515 598
242 344 803
243 274 510
244 291 170
245 800 300
246 74 609
247 365 207
248 791 396
249 453 848
250 405 191
251 395 290
252 525 743
253 260 385
254 408 837
255 1 346
256 231 504
257 837 572
258 606 473
259 900 729
260 346 868
261 123 80
262 477 169
263 383 59
264 510 410
265 890 101
266 952 635
267 825 722
268 68 598
269 234 841
270 911 720
271 172 367
272 569 289
273 84 19
274 694 916
275 454 412
276 261 233
277 693 375
278 588 854
279 276 538
280 599 569
281 142 158
282 338 805
283 324 194
284 739 325
285 845 639
286 638 182
287 858 93
288 40 923
289 37 599
290 638 39
291 218 714
292 568 674
293 288 840
294 439 570
295 325 801
296 587 278
297 992 674
298 597 608
DEMAND_SECTION
2 2
3 9
4 1
5 4
6 9
7 5
8 7
9 2
10 4
11 7
12 2
13 9
14 5
15 10
16 5
17 8
18 5
19 8
20 8
21 6
22 7
23 2
24 1
25 3
26 9
27 1
28 1
29 10
30 3
31 4
32 8
33 10
34 7
35 9
36 6
37 1
38 1
39 9
40 9
41 5
42 9
43 3
44 6
45 4
46 2
47 8
48 3
49 10
50 6
51 9
52 5
53 5
54 7
55 10
56 5
57 8
58 1
59 4
60 4
61 10
62 7
63 8
64 9
65 8
66 1
67 5
68 9
69 8
70 4
71 7
72 5
73 2
74 9
75 1
76 6
77 10
78 10
79 7
80 10
81 6
82 6
83 9
84 2
85 6
86 1
87 9
88 8
89 10
90 3
91 9
92 3
93 8
94 10
95 6
96 10
97 9
98 7
99 7
100 4
101 1
102 3
103 4
104 5
105 10
106 4
107 2
108 9
109 1
110 6
111 4
112 7
113 5
114 1
115 3
116 4
117 4
118 6
119 6
COVERAGE_SECTION
2 11 201 194 64 106 43 109 271 85 253 83 174 
3 11 86 268 11 237 246 33 238 31 84 99 289 
4 11 56 241 152 80 292 142 60 14 57 294 23 
5 11 273 195 32 36 261 27 154 44 89 157 111 
6 11 207 79 100 274 187 199 218 24 224 128 219 
7 11 248 94 277 110 13 95 284 123 137 151 258 
8 11 229 119 177 16 15 29 222 245 191 110 18 
9 11 200 165 202 240 113 262 25 179 122 134 212 
10 11 182 151 124 29 206 257 75 94 15 229 266 
11 11 33 186 3 99 86 268 289 246 238 46 38 
12 11 276 214 147 244 148 50 283 82 181 216 170 
13 11 284 277 139 110 248 17 245 7 125 63 93 
14 11 252 142 120 228 4 56 155 127 292 80 21 
15 11 229 29 124 182 8 10 151 177 94 206 110 
16 11 119 222 8 74 232 217 176 18 191 265 98 
17 11 125 236 93 277 296 173 272 139 13 137 284 
18 11 34 191 51 217 287 232 265 150 133 222 119 
19 11 112 65 280 241 298 60 56 4 57 258 141 
20 11 263 52 49 134 179 25 216 250 113 262 181 
21 11 155 167 26 278 143 249 120 118 252 161 228 
22 11 105 59 225 253 83 164 90 107 243 162 205 
23 11 80 30 152 294 48 4 57 71 60 81 56 
24 11 100 224 231 188 88 69 207 6 187 215 199 
25 11 134 165 113 240 179 202 49 262 9 200 41 
26 11 143 155 278 21 120 228 252 192 142 118 167 
27 11 36 195 44 111 261 156 170 210 5 281 89 
28 11 35 192 203 235 211 126 143 26 228 141 218 
29 11 229 15 182 10 94 151 177 124 110 248 8 
30 11 23 80 48 14 81 242 282 87 149 295 152 
31 11 237 169 84 102 72 114 238 3 40 149 86 
32 11 273 154 89 261 5 157 195 101 36 27 281 
33 11 186 99 289 11 268 246 46 3 238 86 237 
34 11 18 191 51 150 287 217 265 232 133 222 119 
35 11 203 235 28 213 61 141 192 267 215 126 198 
36 11 27 195 44 261 5 111 156 210 170 281 273 
37 11 171 138 251 275 136 146 264 204 230 90 272 
38 11 73 175 172 255 174 66 271 43 85 159 106 
39 11 78 53 208 47 133 150 212 220 286 290 108 
40 11 114 279 256 84 243 72 107 227 81 31 48 
41 11 122 134 25 140 290 165 49 9 200 113 202 
42 11 108 286 93 173 212 47 296 125 53 272 208 
43 11 271 174 106 194 85 2 201 109 172 168 64 
44 11 27 36 111 195 170 261 5 210 156 147 244 
45 11 190 180 288 103 116 91 239 221 189 223 54 
46 11 289 99 246 268 33 238 186 135 58 233 11 
47 11 53 212 286 208 108 39 42 78 63 93 150 
48 11 81 227 72 149 279 23 30 40 205 243 80 
49 11 134 20 263 52 179 25 113 262 240 165 202 
50 11 276 214 12 82 148 170 210 156 147 168 244 
51 11 287 34 18 265 217 232 191 150 133 222 176 
52 11 263 20 49 134 179 25 216 41 250 113 262 
53 11 47 212 208 39 286 78 108 42 150 63 133 
54 11 223 189 92 233 221 239 91 58 116 135 102 
55 11 196 98 176 74 226 265 232 217 287 51 222 
56 11 4 241 292 152 142 80 14 60 19 298 252 
57 11 60 294 70 71 152 241 80 197 4 62 23 
58 11 135 238 233 102 246 169 46 92 237 268 289 
59 11 22 107 225 105 164 243 83 205 256 253 153 
60 11 57 294 70 152 71 241 4 197 19 80 56 
61 11 267 215 235 213 259 285 35 270 198 203 178 
62 11 197 275 209 70 264 71 57 60 294 68 205 
63 11 208 139 108 245 284 47 42 53 150 191 286 
64 11 201 2 253 82 162 194 109 83 90 148 106 
65 11 112 280 19 298 258 234 241 141 209 60 137 
66 11 255 159 175 73 77 172 38 168 174 43 271 
67 11 145 193 97 158 163 96 160 260 103 293 269 
68 11 264 209 137 236 258 197 275 62 138 17 125 
69 11 188 88 24 100 231 224 178 6 207 259 270 
70 11 57 71 60 294 197 62 152 241 80 209 19 
71 11 294 70 57 60 152 62 205 80 197 23 164 
72 11 81 149 227 84 40 48 114 31 279 169 243 
73 11 175 38 255 66 172 159 77 174 168 271 43 
74 11 176 98 55 196 232 217 222 265 287 16 51 
75 11 257 198 285 151 95 213 10 123 206 182 76 
76 11 266 184 115 297 206 130 144 270 178 259 285 
77 11 168 159 172 66 175 73 43 255 281 38 50 
78 11 39 53 133 208 150 47 220 212 290 140 286 
79 11 128 274 219 166 121 207 6 118 218 129 211 
80 11 23 152 4 294 30 57 56 60 71 241 70 
81 11 227 48 72 149 279 40 243 84 114 23 205 
82 11 148 214 276 64 50 201 12 2 162 230 43 
83 11 109 253 153 194 106 85 2 22 59 107 201 
84 11 114 40 31 72 237 256 279 86 3 169 243 
85 11 106 271 194 174 109 43 2 153 201 83 253 
86 11 3 11 84 237 268 114 33 246 31 238 99 
87 11 254 127 242 282 295 132 260 249 161 117 293 
88 11 231 188 69 24 178 100 259 270 224 115 297 
89 11 157 101 261 154 32 273 281 195 5 156 36 
90 11 204 162 105 22 64 253 146 225 230 251 148 
91 11 239 116 221 189 288 180 223 190 54 233 45 
92 11 102 291 54 104 169 185 58 135 223 233 237 
93 11 173 125 296 42 108 272 17 286 139 236 47 
94 11 248 110 7 29 151 177 10 182 13 229 245 
95 11 123 234 75 198 257 213 7 151 203 285 280 
96 11 97 158 260 132 183 193 161 254 293 160 87 
97 11 158 96 260 193 132 183 67 145 293 160 163 
98 11 176 55 196 74 232 265 217 226 222 287 51 
99 11 289 268 33 246 46 186 238 11 3 135 237 
100 11 24 224 207 6 188 69 231 88 187 199 218 
101 11 157 89 154 32 261 273 281 156 195 5 77 
102 11 169 92 291 31 237 135 58 238 185 149 104 
103 11 180 116 288 221 190 45 145 189 239 67 91 
104 11 185 291 92 117 131 269 149 160 102 293 295 
105 11 22 225 59 90 253 164 162 204 83 107 205 
106 11 85 194 271 174 109 43 2 201 83 153 253 
107 11 256 243 59 153 279 40 83 114 22 164 225 
108 11 42 286 47 93 212 208 53 63 173 296 125 
109 11 194 85 106 83 153 271 2 253 174 201 43 
110 11 248 94 177 245 284 13 7 277 29 139 229 
111 11 170 44 27 36 210 147 156 244 195 281 12 
112 11 19 65 280 298 241 60 258 56 234 57 141 
113 11 240 202 262 165 200 9 25 179 134 136 250 
114 11 40 84 256 279 243 72 107 31 86 227 3 
115 11 184 297 76 130 266 144 270 178 259 206 285 
116 11 221 239 189 91 180 288 103 190 223 54 45 
117 11 131 293 295 282 160 242 269 104 260 185 87 
118 11 219 278 167 143 166 121 129 21 26 274 128 
119 11 222 16 8 191 217 18 232 34 51 265 74 
120 11 252 228 142 192 26 14 155 292 21 143 56 
121 11 166 128 129 219 118 167 79 278 274 21 143 
122 11 41 140 290 165 9 25 134 200 212 202 113 
123 11 95 234 213 198 203 75 280 141 298 257 65 
124 11 182 10 206 15 151 144 29 266 76 130 229 
125 11 17 93 296 173 272 236 42 139 108 277 138 
126 11 211 218 199 187 274 28 143 278 118 235 219 
127 11 254 87 249 132 161 242 282 260 295 14 155 
128 11 166 121 79 219 129 118 274 167 278 207 6 
129 11 121 166 167 128 219 118 278 21 161 183 79 
130 11 297 144 184 115 266 76 206 178 270 259 124 
131 11 117 293 160 295 269 282 242 104 260 163 185 
132 11 260 96 254 161 87 97 127 158 249 183 242 
133 11 150 78 39 51 287 34 18 208 53 191 265 
134 11 49 25 179 20 52 263 41 165 113 240 202 
135 11 58 238 233 246 169 102 46 237 268 92 289 
136 11 250 171 262 251 247 113 240 179 202 37 146 
137 11 258 68 236 209 264 277 17 65 125 197 112 
138 11 37 272 171 236 296 173 264 125 68 136 275 
139 11 284 13 63 277 17 93 245 125 108 42 110 
140 11 290 220 122 41 78 39 53 212 47 286 165 
141 11 298 292 192 280 203 234 35 228 19 112 28 
142 11 252 120 228 14 292 192 56 4 26 155 21 
143 11 26 278 118 21 155 167 211 120 228 126 28 
144 11 130 266 184 297 76 115 206 124 270 178 182 
145 11 67 193 163 97 158 96 103 160 269 260 293 
146 11 230 251 204 162 148 247 90 171 181 283 136 
147 11 244 12 283 216 181 276 214 111 170 247 50 
148 11 214 82 276 12 230 146 64 50 162 283 181 
149 11 72 81 291 227 48 185 102 31 104 169 84 
150 11 133 34 51 39 18 78 208 191 287 53 63 
151 11 10 257 182 75 94 206 29 124 198 285 95 
152 11 294 57 60 80 4 241 23 71 70 56 19 
153 11 83 109 85 107 106 194 256 253 271 59 174 
154 11 32 157 273 89 101 261 5 195 36 27 281 
155 11 21 26 143 167 278 120 252 249 228 14 142 
156 11 210 281 170 111 27 261 195 36 50 44 89 
157 11 101 154 89 32 273 261 5 195 281 36 156 
158 11 97 96 260 193 183 132 67 145 161 293 160 
159 11 66 77 175 255 172 168 73 38 43 174 271 
160 11 293 131 269 117 163 295 260 282 242 104 96 
161 11 249 254 132 127 183 96 87 260 158 167 21 
162 11 204 90 64 146 230 105 253 148 251 22 82 
163 11 269 160 293 131 193 67 145 117 97 260 158 
164 11 205 225 59 243 22 105 279 107 256 71 40 
165 11 9 200 202 240 113 25 262 179 134 122 49 
166 11 121 128 219 129 79 118 167 274 278 143 21 
167 11 21 278 118 129 155 143 219 121 26 249 166 
168 11 172 77 43 159 50 271 174 106 73 201 2 
169 11 102 237 31 238 135 92 58 291 84 246 72 
170 11 210 156 111 281 27 50 147 12 244 36 44 
171 11 37 251 136 138 146 230 250 247 262 204 272 
172 11 168 77 43 159 174 38 73 271 175 66 106 
173 11 296 272 93 125 42 17 236 108 138 286 200 
174 11 271 85 106 43 194 109 2 201 172 153 38 
175 11 73 255 66 38 159 172 77 168 174 43 271 
176 11 98 74 55 196 232 265 217 222 287 226 51 
177 11 245 110 248 8 229 29 94 284 13 119 191 
178 11 270 259 115 184 76 297 231 267 266 215 130 
179 11 262 25 113 49 250 240 134 202 165 20 136 
180 11 288 190 116 239 91 221 45 103 189 223 54 
181 11 283 216 247 244 147 12 250 230 214 276 148 
182 11 10 124 151 29 206 15 257 94 229 75 266 
183 11 158 161 96 97 132 260 249 254 193 127 129 
184 11 115 297 130 76 266 144 206 270 178 259 285 
185 11 104 291 92 149 117 131 102 269 295 169 293 
186 11 33 99 289 11 268 46 246 3 238 86 237 
187 11 199 218 126 211 274 224 207 235 215 28 61 
188 11 69 88 24 231 100 224 178 259 270 215 207 
189 11 221 239 116 91 223 54 288 180 103 233 190 
190 11 45 180 288 91 116 239 221 103 189 223 54 
191 11 18 34 51 150 217 232 287 119 265 222 133 
192 11 228 292 120 142 141 252 28 26 143 298 56 
193 11 67 145 97 158 96 163 260 160 183 293 132 
194 11 106 85 109 271 2 201 174 43 83 253 153 
195 11 36 27 261 5 44 111 32 156 273 210 281 
196 11 55 98 176 74 226 265 232 217 287 222 51 
197 11 62 209 70 264 275 60 57 68 71 294 112 
198 11 75 285 213 257 95 123 267 61 203 151 35 
199 11 187 218 126 211 274 224 207 235 28 215 219 
200 11 9 165 202 240 113 262 25 179 134 122 136 
201 11 2 64 194 106 43 109 253 271 85 82 83 
202 11 240 113 200 165 9 262 25 179 136 134 250 
203 11 35 213 235 28 141 61 123 198 234 192 267 
204 11 162 90 146 230 251 105 64 148 253 22 225 
205 11 164 225 243 279 59 71 22 105 107 227 48 
206 11 266 76 144 184 124 10 115 130 182 257 285 
207 11 6 274 79 187 199 100 218 224 126 24 211 
208 11 47 53 39 63 108 78 212 286 150 42 133 
209 11 264 197 68 62 275 258 137 70 65 236 112 
210 11 156 170 281 111 27 50 36 195 261 147 44 
211 11 126 218 199 187 274 28 143 278 118 26 219 
212 11 286 47 53 108 42 208 39 78 9 200 93 
213 11 198 203 35 61 285 235 267 75 123 95 257 
214 11 276 12 148 82 50 283 147 244 181 230 216 
215 11 267 61 235 259 224 270 178 187 213 199 285 
216 11 181 283 244 247 147 12 250 214 276 230 148 
217 11 232 265 51 287 18 34 222 176 74 191 98 
218 11 126 199 187 211 274 207 219 28 118 224 143 
219 11 118 166 121 128 79 274 278 167 129 143 211 
220 11 290 140 78 39 133 53 122 150 212 47 208 
221 11 189 116 239 91 288 180 223 54 103 190 163 
222 11 119 16 232 217 74 265 18 176 191 51 34 
223 11 54 233 189 91 239 221 92 116 58 135 288 
224 11 24 187 100 199 215 231 218 207 61 267 235 
225 11 105 22 164 59 205 90 243 107 253 83 204 
226 11 55 287 265 196 176 98 232 217 51 74 133 
227 11 81 48 72 279 149 40 243 114 84 205 23 
228 11 120 192 142 252 292 26 14 155 143 56 141 
229 11 15 29 8 177 182 94 10 110 124 248 119 
230 11 146 251 148 247 204 162 181 283 214 90 216 
231 11 88 24 178 188 259 224 270 100 69 215 115 
232 11 217 265 51 287 176 18 222 74 34 98 191 
233 11 223 58 135 54 92 46 238 91 189 102 246 
234 11 123 95 280 298 65 141 112 19 258 203 213 
235 11 35 61 215 267 203 28 213 187 126 199 211 
236 11 125 17 272 68 296 138 173 137 264 93 209 
237 11 31 169 238 102 246 3 84 268 135 86 58 
238 11 246 268 237 135 58 99 289 169 46 31 3 
239 11 91 116 221 189 288 180 223 54 190 103 233 
240 11 113 202 262 165 200 9 25 179 136 134 250 
241 11 56 4 19 60 152 112 57 294 298 280 65 
242 11 282 295 87 117 131 260 293 254 127 132 160 
243 11 279 107 256 40 59 164 205 114 22 227 225 
244 11 147 216 283 181 12 276 214 111 247 170 148 
245 11 177 284 110 63 139 13 248 191 277 94 18 
246 11 268 238 99 289 46 33 237 135 3 58 186 
247 11 181 250 283 216 230 146 136 244 251 147 12 
248 11 110 94 7 13 284 177 245 277 29 139 151 
249 11 127 161 254 21 87 132 155 167 260 183 14 
250 11 247 136 179 181 262 216 283 113 230 240 251 
251 11 146 171 230 37 204 136 162 247 90 250 148 
252 11 120 142 228 14 155 192 26 292 21 56 4 
253 11 83 64 109 2 201 22 194 105 153 106 59 
254 11 127 87 132 249 161 260 242 282 295 96 183 
255 11 175 66 73 159 38 172 77 168 174 43 271 
256 11 107 40 243 114 279 153 84 59 83 164 22 
257 11 75 198 151 285 10 206 95 182 213 123 76 
258 11 137 65 68 209 112 280 19 234 264 197 236 
259 11 270 178 267 115 215 76 61 184 231 285 266 
260 11 132 96 97 158 282 293 242 254 87 295 160 
261 11 195 36 89 27 32 5 273 281 156 154 210 
262 11 113 240 202 165 179 200 9 25 136 250 134 
263 11 20 52 49 134 179 25 216 250 181 113 244 
264 11 68 209 275 197 62 236 138 137 37 258 272 
265 11 217 232 287 51 18 176 34 74 55 222 98 
266 11 76 184 115 144 206 130 297 270 178 259 285 
267 11 61 215 235 259 285 270 213 178 198 35 203 
268 11 246 99 289 238 33 46 186 3 237 11 135 
269 11 160 163 131 293 117 104 295 185 282 260 242 
270 11 259 178 115 76 184 267 297 266 215 61 285 
271 11 174 106 85 43 194 109 2 201 83 153 172 
272 11 296 173 125 93 138 236 17 42 108 171 37 
273 11 32 154 5 261 89 195 157 36 27 101 44 
274 11 218 79 219 126 199 207 211 187 118 6 166 
275 11 62 264 197 209 37 68 138 70 225 171 90 
276 11 214 12 148 50 82 147 244 283 181 216 230 
277 11 13 284 17 139 7 248 137 125 110 236 93 
278 11 143 118 26 167 21 155 219 211 126 129 120 
279 11 243 40 256 107 114 227 81 205 164 72 48 
280 11 65 112 298 19 234 141 241 258 292 123 56 
281 11 156 210 170 261 27 89 195 111 36 50 77 
282 11 242 295 117 87 131 293 260 254 132 160 127 
283 11 181 216 244 247 147 12 214 276 230 250 148 
284 11 13 139 245 277 110 248 63 17 177 7 125 
285 11 198 75 257 213 267 61 76 206 270 259 266 
286 11 212 47 42 108 53 208 93 39 173 296 200 
287 11 51 265 217 232 34 18 133 150 226 191 176 
288 11 180 190 116 91 239 221 45 189 103 223 54 
289 11 99 268 33 46 246 186 238 11 3 135 58 
290 11 140 220 122 78 39 41 53 212 47 286 208 
291 11 185 104 92 102 149 169 72 31 117 131 237 
292 11 192 142 228 56 141 298 120 4 252 241 14 
293 11 160 131 117 269 295 282 260 242 163 96 132 
294 11 57 71 60 70 152 80 23 241 4 197 62 
295 11 282 242 117 131 293 87 260 160 254 132 127 
296 11 173 272 125 93 42 17 236 138 108 286 139 
297 11 130 184 115 144 266 76 178 270 206 259 285 
298 11 280 141 19 112 65 292 234 241 56 192 4 
DEPOT_SECTION
   1
   -1
EOF
