NAME :  X-n298-kX-w59-c11.cctp
COMMENT : 	Adapted by Maziero, Usberti and Cavellucci from the Uchoa, Pecin, Pessoa, Poggi, Subramanian, and Vidal (2013)
TYPE :  CCTP
DIMENSION :    258
EDGE_WEIGHT_TYPE : 	EUC_2D	
CAPACITY : 	55
VERTICES_WITHIN_COVERAGE :  11
VERTICES_WITH_DEMAND : 	59
NODE_COORD_SECTION
1 440 732
2 221 348
3 117 545
4 493 645
5 135 12
6 775 997
7 745 444
8 950 311
9 530 150
10 900 508
11 48 519
12 269 217
13 722 349
14 480 733
15 977 422
16 999 220
17 636 332
18 851 162
19 559 567
20 389 69
21 529 835
22 303 427
23 400 638
24 894 904
25 482 109
26 579 800
27 184 82
28 669 753
29 906 424
30 374 692
31 174 613
32 75 37
33 38 563
34 838 157
35 710 709
36 176 67
37 449 326
38 71 389
39 710 115
40 237 547
41 530 27
42 631 223
43 171 342
44 226 65
45 6 998
46 24 635
47 668 165
48 318 608
49 429 82
50 212 237
51 853 126
52 387 47
53 677 144
54 111 790
55 957 32
56 511 647
57 457 561
58 86 687
59 290 456
60 473 563
61 807 725
62 461 468
63 739 235
64 257 340
65 588 545
66 6 311
67 552 414
68 994 946
69 452 534
70 422 545
71 248 611
72 43 366
73 977 96
74 822 580
75 86 263
76 715 99
77 668 981
78 424 638
79 297 607
80 251 282
81 237 413
82 202 573
83 181 385
84 126 528
85 978 846
86 70 99
87 333 357
88 49 870
89 157 734
90 627 268
91 818 433
92 738 555
93 978 59
94 42 595
95 870 933
96 19 120
97 165 679
98 131 984
99 319 417
100 187 376
101 251 482
102 657 219
103 209 397
104 800 377
105 228 116
106 566 559
107 490 156
108 216 547
109 85 897
110 600 893
111 938 222
112 543 747
113 572 976
114 569 59
115 971 515
116 616 306
117 695 837
118 421 821
119 604 995
120 537 957
121 778 101
122 462 74
123 87 682
124 441 228
125 608 430
126 511 313
127 710 300
128 630 24
129 626 650
130 531 719
131 598 824
132 279 169
133 286 268
134 259 659
135 782 132
136 862 518
137 457 603
138 210 438
139 44 44
140 527 818
141 164 156
142 23 86
143 39 282
144 436 886
145 323 340
146 333 488
147 517 137
148 591 972
149 541 888
150 122 280
151 159 655
152 200 158
153 446 283
154 107 315
155 588 270
156 158 374
157 26 353
158 959 76
159 852 328
160 437 138
161 53 938
162 333 192
163 922 499
164 8 561
165 747 852
166 989 908
167 100 860
168 10 960
169 842 190
170 595 716
171 199 373
172 159 67
173 979 25
174 488 479
175 804 620
176 742 853
177 528 160
178 223 342
179 503 159
180 711 681
181 339 340
182 342 509
183 931 593
184 766 953
185 710 172
186 172 159
187 685 836
188 639 155
189 763 656
190 269 241
191 330 177
192 901 124
193 713 860
194 692 19
195 96 876
196 949 178
197 79 795
198 833 852
199 336 444
200 877 0
201 296 597
202 566 735
203 940 377
204 939 827
205 908 120
206 50 741
207 670 569
208 753 744
209 577 351
210 141 616
211 97 625
212 64 875
213 496 160
214 515 598
215 274 510
216 291 170
217 800 300
218 74 609
219 365 207
220 791 396
221 453 848
222 395 290
223 525 743
224 260 385
225 1 346
226 231 504
227 837 572
228 606 473
229 123 80
230 477 169
231 383 59
232 510 410
233 890 101
234 825 722
235 68 598
236 172 367
237 569 289
238 84 19
239 694 916
240 454 412
241 261 233
242 693 375
243 588 854
244 276 538
245 599 569
246 142 158
247 324 194
248 739 325
249 638 182
250 858 93
251 40 923
252 37 599
253 638 39
254 218 714
255 568 674
256 439 570
257 587 278
258 597 608
DEMAND_SECTION
2 2
3 9
4 1
5 4
6 9
7 5
8 7
9 2
10 4
11 7
12 2
13 9
14 5
15 10
16 5
17 8
18 5
19 8
20 8
21 6
22 7
23 2
24 1
25 3
26 9
27 1
28 1
29 10
30 3
31 4
32 8
33 10
34 7
35 9
36 6
37 1
38 1
39 9
40 9
41 5
42 9
43 3
44 6
45 4
46 2
47 8
48 3
49 10
50 6
51 9
52 5
53 5
54 7
55 10
56 5
57 8
58 1
59 4
60 4
COVERAGE_SECTION
2 11 178 171 64 100 43 103 236 83 224 81 156 
3 11 84 235 11 210 218 33 211 31 82 94 252 
4 11 56 214 137 78 255 130 60 14 57 256 23 
5 11 238 172 32 36 229 27 139 44 86 142 105 
6 10 184 77 95 239 165 176 193 24 198 119 
7 10 220 91 242 104 13 92 248 125 136 228 
8 11 203 111 159 16 15 29 196 217 169 104 18 
9 11 177 147 179 213 107 230 25 160 114 122 188 
10 10 163 136 115 29 183 227 74 91 15 203 
11 11 33 164 3 94 84 235 252 218 211 46 38 
12 11 241 190 132 216 133 50 247 80 162 191 152 
13 11 248 242 127 104 220 17 217 7 116 63 90 
14 11 223 130 112 202 4 56 140 118 255 78 21 
15 11 203 29 115 163 8 10 136 159 91 183 104 
16 11 111 196 8 73 205 192 158 18 169 233 93 
17 11 116 209 90 242 257 155 237 127 13 125 248 
18 11 34 169 51 192 250 205 233 135 121 196 111 
19 11 106 65 245 214 258 60 56 4 57 228 129 
20 10 231 52 49 122 160 25 191 107 230 162 
21 11 140 149 26 243 131 221 112 110 223 144 202 
22 11 99 59 199 224 81 146 87 101 215 145 182 
23 11 78 30 137 256 48 4 57 70 60 79 56 
24 10 95 198 204 166 85 68 184 6 165 176 
25 11 122 147 107 213 160 179 49 230 9 177 41 
26 11 131 140 243 21 112 202 223 170 130 110 149 
27 11 36 172 44 105 229 141 152 186 5 246 86 
28 11 35 170 180 208 187 117 131 26 202 129 193 
29 11 203 15 163 10 91 136 159 115 104 220 8 
30 7 23 78 48 14 79 134 137 
31 11 210 151 82 97 71 108 211 3 40 134 84 
32 11 238 139 86 229 5 142 172 96 36 27 246 
33 11 164 94 252 11 235 218 46 3 211 84 210 
34 11 18 169 51 135 250 192 233 205 121 196 111 
35 10 180 208 28 189 61 129 170 234 117 175 
36 11 27 172 44 229 5 105 141 186 152 246 238 
37 9 153 126 222 240 124 232 181 87 237 
38 11 72 157 154 225 156 66 236 43 83 143 100 
39 11 76 53 185 47 121 135 188 194 249 253 102 
40 11 108 244 226 82 215 71 101 201 79 31 48 
41 11 114 122 25 128 253 147 49 9 177 107 179 
42 11 102 249 90 155 188 47 257 116 53 237 185 
43 11 236 156 100 171 83 2 178 103 154 150 64 
44 11 27 36 105 172 152 229 5 186 141 132 216 
45 11 168 161 251 98 109 88 212 195 167 197 54 
46 11 252 94 218 235 33 211 164 123 58 206 11 
47 11 53 188 249 185 102 39 42 76 63 90 135 
48 11 79 201 71 134 244 23 30 40 182 215 78 
49 11 122 20 231 52 160 25 107 230 213 147 179 
50 11 241 190 12 80 133 152 186 141 132 150 216 
51 11 250 34 18 233 192 205 169 135 121 196 158 
52 10 231 20 49 122 160 25 191 41 107 230 
53 11 47 188 185 39 249 76 102 42 135 63 121 
54 11 197 167 89 206 195 212 88 58 109 123 97 
55 11 173 93 158 73 200 233 205 192 250 51 196 
56 11 4 214 255 137 130 78 14 60 19 258 223 
57 11 60 256 69 70 137 214 78 174 4 62 23 
58 11 123 211 206 97 218 151 46 89 210 235 252 
59 11 22 101 199 99 146 215 81 182 226 224 138 
60 11 57 256 69 137 70 214 4 174 19 78 56 
61 6 234 208 189 35 175 180 
62 10 174 240 69 232 70 57 60 256 67 182 
63 11 185 127 102 217 248 47 42 53 135 169 249 
64 11 178 2 224 80 145 171 103 81 87 133 100 
65 10 106 245 19 258 228 207 214 129 60 125 
66 11 225 143 157 72 75 154 38 150 156 43 236 
67 10 232 125 209 228 174 240 62 126 17 116 
68 8 166 85 24 95 204 198 6 184 
69 10 57 70 60 256 174 62 137 214 78 19 
70 11 256 69 57 60 137 62 182 78 174 23 146 
71 11 79 134 201 82 40 48 108 31 244 151 215 
72 11 157 38 225 66 154 143 75 156 150 236 43 
73 11 158 93 55 173 205 192 196 233 250 16 51 
74 8 227 175 136 92 189 10 183 163 
75 11 150 143 154 66 157 72 43 225 246 38 50 
76 11 39 53 121 185 135 47 194 188 253 128 249 
77 10 119 239 148 113 184 6 110 193 120 187 
78 11 23 137 4 256 30 57 56 60 70 214 69 
79 11 201 48 71 134 244 40 215 82 108 23 182 
80 10 133 190 241 64 50 178 12 2 145 43 
81 11 103 224 138 171 100 83 2 22 59 101 178 
82 11 108 40 31 71 210 226 244 84 3 151 215 
83 11 100 236 171 156 103 43 2 138 178 81 224 
84 11 3 11 82 210 235 108 33 218 31 211 94 
85 6 204 166 68 24 95 198 
86 11 142 96 229 139 32 238 246 172 5 141 36 
87 9 181 145 99 22 64 224 199 222 133 
88 11 212 109 195 167 251 161 197 168 54 206 45 
89 9 97 254 54 151 58 123 197 206 210 
90 11 155 116 257 42 102 237 17 249 127 209 47 
91 11 220 104 7 29 136 159 10 163 13 203 217 
92 9 207 74 175 227 189 7 136 180 245 
93 11 158 55 173 73 205 233 192 200 196 250 51 
94 11 252 235 33 218 46 164 211 11 3 123 210 
95 11 24 198 184 6 166 68 204 85 165 176 193 
96 11 142 86 139 32 229 238 246 141 172 5 75 
97 9 151 89 254 31 210 123 58 211 134 
98 9 161 109 251 195 168 45 167 212 88 
99 11 22 199 59 87 224 146 145 181 81 101 182 
100 11 83 171 236 156 103 43 2 178 81 138 224 
101 11 226 215 59 138 244 40 81 108 22 146 199 
102 11 42 249 47 90 188 185 53 63 155 257 116 
103 11 171 83 100 81 138 236 2 224 156 178 43 
104 11 220 91 159 217 248 13 7 242 29 127 203 
105 11 152 44 27 36 186 132 141 216 172 246 12 
106 11 19 65 245 258 214 60 228 56 207 57 129 
107 10 213 179 230 147 177 9 25 160 122 124 
108 11 40 82 226 244 215 71 101 31 84 201 3 
109 11 195 212 167 88 161 251 98 168 197 54 45 
110 10 243 149 131 148 113 120 21 26 239 119 
111 11 196 16 8 169 192 18 205 34 51 233 73 
112 11 223 202 130 170 26 14 140 255 21 131 56 
113 10 148 119 120 110 149 77 243 239 21 131 
114 11 41 128 253 147 9 25 122 177 188 179 107 
115 7 163 10 183 15 136 29 203 
116 11 17 90 257 155 237 209 42 127 102 242 126 
117 10 187 193 176 165 239 28 131 243 110 208 
118 4 221 144 14 140 
119 10 148 113 77 120 110 239 149 243 184 6 
120 9 113 148 149 119 110 243 21 144 77 
121 11 135 76 39 51 250 34 18 185 53 169 233 
122 11 49 25 160 20 52 231 41 147 107 213 179 
123 11 58 211 206 218 151 97 46 210 235 89 252 
124 9 153 230 222 219 107 213 160 179 37 
125 10 228 67 209 232 242 17 65 116 174 106 
126 11 37 237 153 209 257 155 232 116 67 124 240 
127 11 248 13 63 242 17 90 217 116 102 42 104 
128 11 253 194 114 41 76 39 53 188 47 249 147 
129 11 258 255 170 245 180 207 35 202 19 106 28 
130 11 223 112 202 14 255 170 56 4 26 140 21 
131 11 26 243 110 21 140 149 187 112 202 117 28 
132 11 216 12 247 191 162 241 190 105 152 219 50 
133 9 190 80 241 12 64 50 145 247 162 
134 9 71 79 254 201 48 97 31 151 82 
135 11 121 34 51 39 18 76 185 169 250 53 63 
136 10 10 227 163 74 91 183 29 115 175 92 
137 11 256 57 60 78 4 214 23 70 69 56 19 
138 11 81 103 83 101 100 171 226 224 236 59 156 
139 11 32 142 238 86 96 229 5 172 36 27 246 
140 11 21 26 131 149 243 112 223 221 202 14 130 
141 11 186 246 152 105 27 229 172 36 50 44 86 
142 11 96 139 86 32 238 229 5 172 246 36 141 
143 11 66 75 157 225 154 150 72 38 43 156 236 
144 4 221 118 149 21 
145 9 181 87 64 99 224 133 222 22 80 
146 11 182 199 59 215 22 99 244 101 226 70 40 
147 11 9 177 179 213 107 25 230 160 122 114 49 
148 10 113 119 120 77 110 149 239 243 131 21 
149 10 21 243 110 120 140 131 113 26 221 148 
150 11 154 75 43 143 50 236 156 100 72 178 2 
151 11 97 210 31 211 123 89 58 254 82 218 71 
152 11 186 141 105 246 27 50 132 12 216 36 44 
153 8 37 222 124 126 219 230 181 237 
154 11 150 75 43 143 156 38 72 236 157 66 100 
155 11 257 237 90 116 42 17 209 102 126 249 177 
156 11 236 83 100 43 171 103 2 178 154 138 38 
157 11 72 225 66 38 143 154 75 150 156 43 236 
158 11 93 73 55 173 205 233 192 196 250 200 51 
159 11 217 104 220 8 203 29 91 248 13 111 169 
160 10 230 25 107 49 213 122 179 147 20 124 
161 11 251 168 109 212 88 195 45 98 167 197 54 
162 9 247 191 219 216 132 12 190 241 133 
163 10 10 115 136 29 183 15 227 91 203 74 
164 11 33 94 252 11 235 46 218 3 211 84 210 
165 10 176 193 117 187 239 198 184 208 28 61 
166 7 68 85 24 204 95 198 184 
167 11 195 212 109 88 197 54 251 161 98 206 168 
168 11 45 161 251 88 109 212 195 98 167 197 54 
169 11 18 34 51 135 192 205 250 111 233 196 121 
170 11 202 255 112 130 129 223 28 26 131 258 56 
171 11 100 83 103 236 2 178 156 43 81 224 138 
172 11 36 27 229 5 44 105 32 141 238 186 246 
173 11 55 93 158 73 200 233 205 192 250 196 51 
174 10 62 69 232 240 60 57 67 70 256 106 
175 9 74 189 227 92 234 61 180 136 35 
176 9 165 193 117 187 239 198 184 208 28 
177 11 9 147 179 213 107 230 25 160 122 114 124 
178 11 2 64 171 100 43 103 224 236 83 80 81 
179 10 213 107 177 147 9 230 25 160 124 122 
180 10 35 189 208 28 129 61 175 207 170 234 
181 9 145 87 222 99 64 133 224 22 199 
182 11 146 199 215 244 59 70 22 99 101 201 48 
183 4 115 10 163 227 
184 11 6 239 77 165 176 95 193 198 117 24 187 
185 11 47 53 39 63 102 76 188 249 135 42 121 
186 11 141 152 246 105 27 50 36 172 229 132 44 
187 10 117 193 176 165 239 28 131 243 110 26 
188 11 249 47 53 102 42 185 39 76 9 177 90 
189 9 175 180 35 61 208 234 74 92 227 
190 10 241 12 133 80 50 247 132 216 162 191 
191 9 162 247 216 219 132 12 190 241 133 
192 11 205 233 51 250 18 34 196 158 73 169 93 
193 10 117 176 165 187 239 184 28 110 198 131 
194 11 253 128 76 39 121 53 114 135 188 47 185 
195 10 167 109 212 88 251 161 197 54 98 168 
196 11 111 16 205 192 73 233 18 158 169 51 34 
197 11 54 206 167 88 212 195 89 109 58 123 251 
198 10 24 165 95 176 204 193 184 61 234 208 
199 11 99 22 146 59 182 87 215 101 224 81 181 
200 11 55 250 233 173 158 93 205 192 51 73 121 
201 11 79 48 71 244 134 40 215 108 82 182 23 
202 11 112 170 130 223 255 26 14 140 131 56 129 
203 11 15 29 8 159 163 91 10 104 115 220 111 
204 6 85 24 166 198 95 68 
205 11 192 233 51 250 158 18 196 73 34 93 169 
206 11 197 58 123 54 89 46 211 88 167 97 218 
207 10 92 245 258 65 129 106 19 228 180 189 
208 10 35 61 234 180 28 189 165 117 176 187 
209 10 116 17 237 67 257 126 155 125 232 90 
210 11 31 151 211 97 218 3 82 235 123 84 58 
211 11 218 235 210 123 58 94 252 151 46 31 3 
212 11 88 109 195 167 251 161 197 54 168 98 206 
213 10 107 179 230 147 177 9 25 160 124 122 
214 11 56 4 19 60 137 106 57 256 258 245 65 
215 11 244 101 226 40 59 146 182 108 22 201 199 
216 11 132 191 247 162 12 241 190 105 219 152 133 
217 11 159 248 104 63 127 13 220 169 242 91 18 
218 11 235 211 94 252 46 33 210 123 3 58 164 
219 8 162 247 191 124 216 222 132 12 
220 11 104 91 7 13 248 159 217 242 29 127 136 
221 6 118 144 21 140 149 14 
222 8 153 37 181 124 145 219 87 133 
223 11 112 130 202 14 140 170 26 255 21 56 4 
224 11 81 64 103 2 178 22 171 99 138 100 59 
225 11 157 66 72 143 38 154 75 150 156 43 236 
226 11 101 40 215 108 244 138 82 59 81 146 22 
227 8 74 175 136 10 183 92 163 189 
228 10 125 65 67 106 245 19 207 232 174 209 
229 11 172 36 86 27 32 5 238 246 141 139 186 
230 10 107 213 179 147 160 177 9 25 124 122 
231 10 20 52 49 122 160 25 191 162 107 216 
232 10 67 240 174 62 209 126 125 37 228 237 
233 11 192 205 250 51 18 158 34 73 55 196 93 
234 6 61 208 189 175 35 180 
235 11 218 94 252 211 33 46 164 3 210 11 123 
236 11 156 100 83 43 171 103 2 178 81 138 154 
237 11 257 155 116 90 126 209 17 42 102 153 37 
238 11 32 139 5 229 86 172 142 36 27 96 44 
239 10 193 77 117 176 184 187 165 110 6 148 
240 10 62 232 174 37 67 126 69 199 153 87 
241 10 190 12 133 50 80 132 216 247 162 191 
242 11 13 248 17 127 7 220 125 116 104 209 90 
243 10 131 110 26 149 21 140 187 117 120 112 
244 11 215 40 226 101 108 201 79 182 146 71 48 
245 10 65 106 258 19 207 129 214 228 255 56 
246 11 141 186 152 229 27 86 172 105 36 50 75 
247 9 162 191 216 219 132 12 190 241 133 
248 11 13 127 217 242 104 220 63 17 159 7 116 
249 11 188 47 42 102 53 185 90 39 155 257 177 
250 11 51 233 192 205 34 18 121 135 200 169 158 
251 11 161 168 109 88 212 195 45 167 98 197 54 
252 11 94 235 33 46 218 164 211 11 3 123 58 
253 11 128 194 114 76 39 41 53 188 47 249 185 
254 7 89 97 134 151 71 31 210 
255 11 170 130 202 56 129 258 112 4 223 214 14 
256 11 57 70 60 69 137 78 23 214 4 174 62 
257 11 155 237 116 90 42 17 209 126 102 249 127 
258 11 245 129 19 106 65 255 207 214 56 170 4 
DEPOT_SECTION
   1
   -1
EOF
