NAME :  X-n209-kX-w20-c7.cctp
COMMENT : 	Adapted by Maziero, Usberti and Cavellucci from the Uchoa, Pecin, Pessoa, Poggi, Subramanian, and Vidal (2013)
TYPE :  CCTP
DIMENSION :    122
EDGE_WEIGHT_TYPE : 	EUC_2D	
CAPACITY : 	101
VERTICES_WITHIN_COVERAGE :  7
VERTICES_WITH_DEMAND : 	20
NODE_COORD_SECTION
1 0 0
2 487 949
3 492 770
4 150 556
5 130 719
6 962 393
7 54 890
8 861 705
9 338 631
10 119 741
11 48 296
12 982 827
13 18 954
14 558 698
15 857 337
16 963 72
17 218 46
18 705 484
19 315 3
20 331 358
21 688 156
22 314 338
23 968 10
24 797 382
25 733 544
26 956 878
27 880 401
28 973 29
29 943 703
30 932 60
31 85 708
32 801 330
33 261 91
34 791 356
35 356 726
36 630 144
37 987 333
38 691 109
39 83 716
40 605 769
41 633 162
42 221 4
43 551 912
44 337 41
45 156 318
46 749 173
47 759 103
48 615 132
49 42 268
50 952 2
51 989 303
52 471 821
53 650 215
54 61 459
55 391 405
56 643 744
57 324 620
58 92 914
59 133 607
60 988 415
61 943 616
62 659 250
63 766 532
64 997 183
65 127 966
66 884 92
67 438 673
68 591 658
69 928 894
70 107 816
71 581 799
72 46 288
73 379 725
74 186 490
75 947 161
76 230 722
77 40 891
78 362 568
79 26 614
80 236 62
81 314 56
82 789 828
83 626 677
84 626 156
85 566 842
86 135 983
87 956 181
88 5 209
89 10 57
90 499 617
91 882 465
92 716 147
93 77 480
94 742 233
95 869 824
96 999 514
97 0 9
98 260 359
99 278 711
100 683 498
101 930 690
102 184 567
103 257 360
104 783 645
105 978 688
106 343 552
107 675 414
108 386 86
109 958 176
110 228 93
111 938 995
112 698 106
113 201 120
114 158 852
115 91 909
116 291 333
117 575 931
118 60 763
119 154 302
120 70 159
121 972 987
122 34 241
DEMAND_SECTION
2 7
3 6
4 7
5 8
6 10
7 7
8 7
9 10
10 8
11 5
12 6
13 5
14 6
15 5
16 8
17 5
18 8
19 6
20 6
21 7
COVERAGE_SECTION
2 4 43 117 52 85 
3 6 52 71 14 85 67 40 
4 6 102 59 74 93 54 79 
5 7 10 31 39 118 70 76 59 
6 6 60 37 27 51 91 15 
7 7 77 115 58 13 70 65 114 
8 5 101 29 104 105 95 
9 7 57 78 106 35 99 73 67 
10 7 5 39 31 118 70 76 114 
11 6 72 49 122 88 119 45 
12 6 26 69 95 29 105 101 
13 6 77 7 58 115 65 86 
14 7 68 83 40 56 3 90 71 
15 5 32 27 34 24 6 
16 7 30 28 23 50 66 75 109 
17 7 80 42 110 33 113 81 19 
18 4 100 25 107 63 
19 7 44 81 42 80 33 17 108 
20 5 22 116 98 103 55 
21 7 92 38 112 41 36 84 46 
22 5 116 20 98 103 55 
23 7 50 28 16 30 66 75 109 
24 3 34 32 15 
25 4 63 18 100 104 
26 5 69 12 95 121 111 
27 4 91 15 6 24 
28 7 23 50 16 30 66 75 109 
29 6 101 105 8 61 12 95 
30 6 16 28 66 50 23 75 
31 7 39 5 10 118 70 79 59 
32 3 34 24 15 
33 5 110 80 17 81 113 
34 3 24 32 15 
35 5 73 99 9 67 57 
36 7 84 41 48 21 38 53 112 
37 6 51 6 60 27 15 64 
38 7 112 92 21 47 36 41 48 
39 7 31 10 5 118 70 79 59 
40 7 71 56 85 14 83 68 3 
41 7 84 36 48 21 53 38 92 
42 7 17 80 110 19 33 81 113 
43 5 117 85 2 71 52 
44 6 81 19 108 33 80 17 
45 4 119 103 11 98 
46 7 92 94 21 47 112 38 53 
47 5 112 92 38 46 21 
48 6 36 84 41 21 38 112 
49 7 72 122 11 88 120 119 45 
50 7 23 28 30 16 66 75 109 
51 6 37 6 60 64 87 109 
52 5 3 85 71 43 2 
53 6 62 41 84 21 36 48 
54 3 93 74 4 
55 1 20 
56 4 40 83 71 14 
57 6 9 78 106 99 35 73 
58 6 115 7 77 65 86 13 
59 7 4 102 79 5 31 39 74 
60 6 6 37 96 27 51 91 
61 5 101 105 29 96 8 
62 5 53 94 41 21 84 
63 3 25 18 100 
64 4 109 87 75 16 
65 5 86 58 115 7 13 
66 5 30 16 75 28 109 
67 7 73 90 35 9 3 14 57 
68 5 83 14 56 90 40 
69 5 26 12 95 111 121 
70 6 114 118 10 7 115 58 
71 7 40 85 56 3 14 52 43 
72 6 11 49 122 88 119 45 
73 5 35 67 99 9 57 
74 2 4 102 
75 4 109 87 64 16 
76 6 99 5 10 35 57 9 
77 7 7 115 58 13 70 65 114 
78 3 106 57 9 
79 7 59 31 39 4 93 5 118 
80 7 17 110 33 42 113 81 19 
81 6 44 19 33 80 108 110 
82 2 95 8 
83 4 68 56 14 40 
84 7 41 36 48 21 53 38 112 
85 6 71 43 40 117 52 3 
86 5 65 58 115 13 7 
87 4 109 75 64 16 
88 7 122 49 120 72 11 89 119 
89 7 97 120 88 122 113 17 49 
90 5 67 14 68 83 78 
91 2 27 6 
92 7 21 46 38 112 47 41 36 
93 5 54 4 74 102 59 
94 6 46 62 92 21 53 32 
95 6 82 69 26 12 8 29 
96 4 60 61 6 91 
97 7 89 120 88 17 42 113 122 
98 4 103 116 22 20 
99 5 76 35 9 57 73 
100 4 18 25 107 63 
101 6 29 105 8 61 12 95 
102 4 4 59 74 93 
103 4 98 116 22 20 
104 1 8 
105 6 29 101 61 8 12 95 
106 3 78 57 9 
107 2 18 100 
108 3 44 81 19 
109 4 87 75 64 16 
110 6 80 33 113 17 42 81 
111 4 121 69 26 12 
112 7 38 92 21 47 36 46 41 
113 5 110 33 80 17 42 
114 4 70 115 58 7 
115 6 58 7 77 65 13 86 
116 4 22 98 103 20 
117 4 43 85 2 71 
118 7 39 31 10 70 5 7 77 
119 4 45 11 72 49 
120 7 88 122 49 89 72 113 11 
121 4 111 69 26 12 
122 7 49 88 72 11 120 119 45 
DEPOT_SECTION
   1
   -1
EOF
