NAME :  X-n256-kX-w102-c7.cctp
COMMENT : 	Adapted by Maziero, Usberti and Cavellucci from the Uchoa, Pecin, Pessoa, Poggi, Subramanian, and Vidal (2013)
TYPE :  CCTP
DIMENSION :    251
EDGE_WEIGHT_TYPE : 	EUC_2D	
CAPACITY : 	1225
VERTICES_WITHIN_COVERAGE :  7
VERTICES_WITH_DEMAND : 	102
NODE_COORD_SECTION
1 500 500
2 878 606
3 35 593
4 320 125
5 189 244
6 274 784
7 900 310
8 742 640
9 800 448
10 66 599
11 829 588
12 660 698
13 290 673
14 669 619
15 252 742
16 425 160
17 291 114
18 289 90
19 813 663
20 847 528
21 589 738
22 756 687
23 777 547
24 810 554
25 823 501
26 5 179
27 357 774
28 39 419
29 277 59
30 76 127
31 229 65
32 868 256
33 388 914
34 303 352
35 713 640
36 692 668
37 332 773
38 404 833
39 782 719
40 230 680
41 711 559
42 383 851
43 366 42
44 80 322
45 22 338
46 447 107
47 357 24
48 120 255
49 155 252
50 793 605
51 248 236
52 273 163
53 741 596
54 324 753
55 195 632
56 848 380
57 728 460
58 296 66
59 885 203
60 330 780
61 204 177
62 659 553
63 426 102
64 309 755
65 215 242
66 938 514
67 24 547
68 373 110
69 1000 475
70 862 596
71 974 551
72 83 155
73 816 433
74 917 345
75 62 661
76 981 720
77 874 602
78 247 231
79 248 946
80 908 590
81 812 701
82 959 401
83 270 347
84 714 567
85 796 520
86 367 947
87 88 235
88 30 230
89 189 199
90 774 664
91 732 579
92 146 730
93 188 748
94 958 533
95 954 296
96 279 160
97 956 608
98 882 389
99 853 195
100 730 640
101 56 562
102 136 499
103 819 427
104 873 663
105 308 101
106 256 669
107 272 320
108 280 122
109 800 663
110 193 65
111 951 676
112 334 987
113 583 843
114 940 363
115 523 797
116 753 415
117 786 576
118 60 623
119 512 166
120 945 499
121 928 312
122 823 802
123 249 288
124 266 776
125 166 204
126 793 691
127 906 599
128 217 20
129 124 271
130 880 572
131 708 428
132 53 561
133 386 713
134 764 423
135 98 577
136 77 608
137 875 607
138 266 847
139 861 673
140 79 525
141 657 665
142 784 424
143 116 834
144 882 574
145 349 113
146 519 674
147 568 693
148 412 715
149 681 739
150 710 603
151 132 317
152 243 887
153 328 130
154 682 184
155 907 505
156 25 513
157 952 672
158 364 107
159 47 524
160 809 640
161 950 586
162 873 414
163 97 278
164 775 601
165 194 309
166 266 276
167 825 357
168 246 850
169 268 168
170 181 782
171 700 492
172 695 698
173 708 454
174 213 701
175 147 72
176 940 661
177 213 214
178 931 586
179 175 243
180 466 38
181 39 521
182 697 594
183 307 170
184 76 554
185 991 434
186 797 286
187 84 346
188 794 695
189 24 575
190 184 367
191 231 285
192 775 559
193 989 420
194 897 309
195 415 180
196 201 293
197 42 891
198 39 267
199 366 205
200 265 765
201 17 290
202 729 846
203 707 632
204 825 342
205 274 809
206 961 401
207 901 604
208 685 725
209 860 244
210 37 367
211 209 189
212 319 167
213 234 177
214 221 697
215 379 190
216 629 657
217 740 486
218 94 552
219 272 173
220 884 628
221 967 297
222 913 279
223 196 313
224 276 84
225 692 632
226 824 348
227 284 743
228 253 739
229 874 303
230 695 657
231 124 313
232 705 456
233 248 819
234 781 843
235 866 544
236 364 870
237 884 375
238 686 590
239 482 177
240 912 176
241 287 794
242 764 592
243 944 112
244 254 616
245 790 281
246 352 320
247 827 593
248 98 906
249 920 321
250 98 555
251 18 534
DEMAND_SECTION
2 83
3 68
4 78
5 76
6 79
7 76
8 78
9 61
10 78
11 79
12 86
13 53
14 66
15 81
16 87
17 88
18 66
19 84
20 86
21 89
22 84
23 84
24 88
25 83
26 66
27 53
28 88
29 74
30 81
31 61
32 76
33 83
34 92
35 76
36 54
37 99
38 64
39 67
40 62
41 87
42 72
43 80
44 72
45 74
46 72
47 62
48 92
49 77
50 87
51 62
52 81
53 60
54 51
55 84
56 77
57 96
58 79
59 58
60 94
61 91
62 79
63 74
64 66
65 73
66 91
67 73
68 76
69 95
70 89
71 54
72 72
73 95
74 83
75 100
76 68
77 75
78 99
79 99
80 95
81 86
82 58
83 100
84 63
85 82
86 81
87 61
88 98
89 80
90 92
91 76
92 76
93 89
94 94
95 100
96 83
97 96
98 52
99 98
100 77
101 67
102 98
103 50
COVERAGE_SECTION
2 7 137 77 70 207 220 127 144 
3 7 189 10 101 132 118 136 67 
4 7 153 105 17 145 108 212 18 
5 7 179 65 49 177 89 125 196 
6 7 124 241 200 205 227 233 64 
7 7 194 249 229 121 222 74 95 
8 7 100 35 203 90 53 22 150 
9 7 73 103 142 134 116 25 217 
10 7 136 118 3 101 135 132 184 
11 7 247 70 24 50 117 77 137 
12 7 141 172 208 36 149 216 230 
13 7 106 40 244 227 214 228 15 
14 7 225 238 182 203 150 230 141 
15 7 228 200 227 124 6 214 174 
16 7 195 215 46 63 239 68 199 
17 7 108 105 18 4 224 153 58 
18 7 224 105 17 58 29 108 4 
19 7 109 160 126 188 81 90 139 
20 7 235 25 24 85 130 144 11 
21 7 147 12 115 216 149 146 208 
22 7 90 126 188 39 8 109 100 
23 7 192 117 85 24 242 164 91 
24 7 117 23 192 85 11 247 20 
25 7 85 20 24 9 235 23 73 
26 7 88 72 30 198 87 201 163 
27 7 37 60 54 64 133 241 38 
28 7 210 45 187 156 181 44 159 
29 7 58 224 18 31 105 17 108 
30 7 72 26 175 87 88 125 110 
31 7 110 128 29 224 18 58 108 
32 7 209 229 222 59 194 7 99 
33 7 86 236 42 38 112 138 27 
34 6 83 107 246 123 166 191 
35 7 203 100 225 230 8 36 150 
36 7 230 172 35 141 225 203 12 
37 7 60 54 27 64 241 227 6 
38 7 42 236 27 33 60 37 54 
39 7 188 126 81 22 90 109 19 
40 7 214 174 106 55 13 228 15 
41 7 84 91 182 238 150 53 62 
42 7 236 38 33 27 60 37 86 
43 7 47 158 68 145 58 105 63 
44 7 187 231 163 151 45 210 129 
45 7 210 201 44 187 198 28 163 
46 7 63 16 180 68 239 195 158 
47 7 43 58 158 29 68 145 105 
48 7 129 163 49 87 179 231 151 
49 7 179 5 48 129 125 65 196 
50 7 164 117 242 247 160 11 192 
51 7 78 65 177 166 123 191 5 
52 7 96 169 219 183 213 108 212 
53 7 91 242 150 164 84 8 182 
54 7 64 37 60 27 227 241 6 
55 7 40 244 214 106 174 13 92 
56 7 167 98 237 226 162 204 103 
57 7 173 232 217 131 171 116 134 
58 7 29 18 224 105 17 108 4 
59 7 99 240 209 32 222 229 194 
60 7 37 27 54 64 241 6 227 
61 7 211 89 213 177 125 169 65 
62 7 238 41 182 84 14 150 171 
63 7 46 68 16 158 180 145 195 
64 7 54 227 37 60 6 200 241 
65 7 5 177 51 78 179 191 89 
66 7 120 94 155 71 178 69 161 
67 7 251 189 181 132 159 156 101 
68 7 158 145 153 63 4 105 43 
69 7 185 193 120 94 66 71 206 
70 7 77 137 2 130 144 11 247 
71 7 94 161 66 178 97 120 80 
72 7 30 87 26 88 125 175 48 
73 7 103 9 142 134 162 56 116 
74 7 249 114 121 7 194 237 98 
75 7 118 136 10 3 135 189 101 
76 7 111 157 176 97 104 139 220 
77 7 137 2 70 207 220 144 130 
78 7 51 65 177 166 191 213 123 
79 7 152 112 168 138 86 233 205 
80 7 127 207 178 144 130 2 77 
81 7 188 126 39 19 109 90 139 
82 7 206 193 114 185 74 98 237 
83 7 107 34 123 166 191 223 165 
84 7 41 91 182 150 238 53 242 
85 7 23 25 24 192 20 117 217 
86 7 33 112 236 42 79 38 152 
87 7 48 163 129 88 198 49 72 
88 7 198 26 87 201 163 72 48 
89 7 211 125 61 177 5 179 65 
90 7 109 22 126 188 19 8 160 
91 7 53 84 41 150 242 182 192 
92 7 93 170 174 214 40 15 228 
93 7 170 92 174 214 15 228 200 
94 7 71 66 120 161 155 178 69 
95 7 221 121 249 222 7 194 74 
96 7 52 169 219 183 108 212 17 
97 7 161 178 80 127 176 207 71 
98 7 237 162 56 74 114 167 226 
99 7 59 209 240 32 222 186 245 
100 7 8 35 203 225 230 150 53 
101 7 132 184 67 189 3 10 159 
102 7 140 218 250 184 135 159 181 
103 7 73 9 142 56 134 162 116 
104 7 139 220 137 2 19 77 207 
105 7 17 18 4 108 153 224 58 
106 7 40 13 214 244 174 228 55 
107 7 83 123 166 34 191 196 223 
108 7 17 18 105 96 224 4 52 
109 7 19 160 90 126 188 81 22 
110 7 31 175 128 29 224 18 58 
111 7 157 176 76 97 104 220 207 
112 7 86 33 79 236 152 42 138 
113 7 115 21 149 202 147 208 12 
114 7 74 82 206 249 121 237 98 
115 7 113 21 147 146 38 148 42 
116 6 134 142 131 57 9 173 
117 7 192 164 242 23 50 24 247 
118 7 136 10 75 3 135 189 101 
119 7 239 16 46 195 63 215 180 
120 7 66 94 155 69 71 185 161 
121 7 249 7 95 194 74 222 221 
122 7 234 39 81 202 188 126 22 
123 7 191 166 107 196 51 65 78 
124 7 6 200 241 205 15 227 228 
125 7 89 179 5 211 61 177 49 
126 7 188 81 109 39 90 19 22 
127 7 207 80 178 2 77 137 144 
128 7 31 110 29 175 224 58 18 
129 7 48 163 49 231 151 87 179 
130 7 144 70 77 235 80 2 137 
131 7 173 232 57 116 134 171 217 
132 7 101 184 67 189 3 159 10 
133 7 148 27 54 37 60 64 13 
134 7 116 142 9 57 73 103 131 
135 7 250 218 184 136 10 101 132 
136 7 10 118 135 3 101 132 184 
137 7 2 77 70 220 207 127 144 
138 7 168 233 205 152 241 6 124 
139 7 104 19 220 81 109 160 137 
140 7 184 218 159 250 181 101 132 
141 7 216 12 36 230 14 225 172 
142 7 134 9 116 73 103 57 131 
143 7 248 170 197 92 93 168 233 
144 7 130 77 70 80 2 137 235 
145 7 158 68 153 4 105 17 212 
146 7 147 21 216 148 115 141 133 
147 7 21 146 216 12 141 115 208 
148 7 133 27 54 37 60 64 146 
149 7 208 172 12 36 141 230 22 
150 7 182 238 203 53 91 225 84 
151 7 231 129 44 163 187 48 165 
152 7 168 138 79 233 205 241 6 
153 7 4 145 105 212 17 158 183 
154 4 245 186 99 119 
155 7 66 120 235 94 20 130 144 
156 7 181 251 159 67 140 132 101 
157 7 111 176 76 97 104 220 207 
158 7 68 145 153 4 105 63 43 
159 7 181 156 251 140 67 132 101 
160 7 19 109 50 90 247 164 126 
161 7 178 97 71 80 127 207 94 
162 7 98 237 56 103 73 167 9 
163 7 129 48 87 231 44 151 198 
164 7 242 50 117 53 192 91 8 
165 7 223 196 191 123 190 151 5 
166 7 123 191 51 107 78 65 196 
167 7 226 204 56 237 98 103 229 
168 7 138 233 152 205 241 6 124 
169 7 219 52 96 213 183 108 212 
170 7 93 92 233 15 143 228 124 
171 7 232 173 217 57 131 41 62 
172 7 208 36 12 230 149 141 35 
173 7 232 57 131 171 217 116 134 
174 7 214 40 93 106 228 15 55 
175 7 110 31 128 30 72 61 224 
176 7 157 111 97 220 104 207 127 
177 7 211 65 89 5 61 78 51 
178 7 161 80 127 97 207 144 130 
179 7 5 49 65 125 89 177 48 
180 7 46 63 43 47 68 158 16 
181 7 159 156 251 67 140 132 101 
182 7 238 150 84 14 41 91 225 
183 7 212 96 52 219 169 153 4 
184 7 218 101 250 132 140 135 159 
185 7 193 69 206 82 120 114 66 
186 6 245 204 226 167 209 32 
187 7 44 210 231 151 45 163 129 
188 7 126 81 39 109 19 90 22 
189 7 3 67 132 101 251 10 159 
190 7 223 165 151 196 231 83 191 
191 7 123 196 166 165 223 65 51 
192 7 23 117 24 242 164 85 91 
193 7 185 206 82 69 114 120 74 
194 7 7 229 249 121 222 74 95 
195 7 16 215 199 239 63 46 68 
196 7 165 223 191 123 5 65 179 
197 7 248 143 170 92 152 93 168 
198 7 201 88 87 163 44 45 48 
199 6 215 195 212 183 16 153 
200 7 124 6 15 227 228 241 64 
201 7 198 45 88 44 210 163 187 
202 7 234 122 149 208 39 113 172 
203 7 35 225 100 230 150 8 36 
204 7 226 167 56 186 229 237 245 
205 7 241 6 233 124 138 200 168 
206 7 82 193 114 185 74 98 237 
207 7 127 80 2 137 77 220 178 
208 7 149 172 12 36 141 230 22 
209 7 32 59 99 229 222 194 186 
210 7 45 187 28 44 201 198 231 
211 7 61 89 177 213 125 65 78 
212 7 183 153 96 4 52 219 169 
213 7 211 61 169 219 52 177 96 
214 7 174 40 106 228 15 93 55 
215 6 199 195 16 212 183 153 
216 7 141 12 14 36 230 225 147 
217 7 57 171 173 232 85 131 134 
218 7 250 184 135 140 101 132 10 
219 7 169 52 96 183 213 212 108 
220 7 2 137 77 207 127 104 70 
221 7 95 121 249 222 7 74 114 
222 7 7 194 121 249 95 229 32 
223 7 165 196 191 190 123 151 5 
224 7 18 29 58 17 105 108 31 
225 7 203 35 230 14 150 36 182 
226 7 204 167 56 237 229 186 98 
227 7 64 200 228 15 124 54 6 
228 7 15 200 227 124 6 214 174 
229 7 194 7 222 32 249 121 74 
230 7 36 35 225 203 100 141 172 
231 7 151 129 163 44 187 48 49 
232 7 173 57 131 171 217 116 134 
233 7 205 168 138 6 241 124 200 
234 7 202 122 39 149 81 188 126 
235 7 20 130 144 70 11 24 155 
236 7 42 33 38 86 27 60 138 
237 7 98 56 162 74 114 167 249 
238 7 182 150 14 84 41 225 62 
239 7 119 16 195 46 63 215 199 
240 7 59 99 243 209 32 222 95 
241 7 6 205 124 200 60 64 233 
242 7 164 53 117 50 91 192 23 
243 7 240 59 99 209 32 222 95 
244 7 106 55 13 40 214 174 228 
245 6 186 204 226 209 32 167 
246 6 34 107 83 166 123 199 
247 7 11 70 50 24 117 77 137 
248 7 197 143 152 170 79 168 233 
249 7 121 7 74 194 95 222 114 
250 7 218 135 184 140 101 132 10 
251 7 67 156 181 159 189 132 101 
DEPOT_SECTION
   1
   -1
EOF
