NAME :  X-n242-kX-w24-c7.cctp
COMMENT : 	Adapted by Maziero, Usberti and Cavellucci from the Uchoa, Pecin, Pessoa, Poggi, Subramanian, and Vidal (2013)
TYPE :  CCTP
DIMENSION :    150
EDGE_WEIGHT_TYPE : 	EUC_2D	
CAPACITY : 	28
VERTICES_WITHIN_COVERAGE :  7
VERTICES_WITH_DEMAND : 	24
NODE_COORD_SECTION
1 0 0
2 346 793
3 692 966
4 171 666
5 287 795
6 93 919
7 712 216
8 991 988
9 475 266
10 71 307
11 83 987
12 518 392
13 807 134
14 377 164
15 692 127
16 701 530
17 831 255
18 938 210
19 873 127
20 569 817
21 796 379
22 6 182
23 917 620
24 728 936
25 157 644
26 668 333
27 564 876
28 330 931
29 513 308
30 230 725
31 896 107
32 234 758
33 911 970
34 177 587
35 697 37
36 947 615
37 861 54
38 739 572
39 555 473
40 992 303
41 556 781
42 627 213
43 19 93
44 837 398
45 694 875
46 575 428
47 752 458
48 432 417
49 881 966
50 101 210
51 72 873
52 681 319
53 149 612
54 799 203
55 92 644
56 997 104
57 364 966
58 119 969
59 931 207
60 630 384
61 721 103
62 209 814
63 176 751
64 76 178
65 737 499
66 42 123
67 194 726
68 521 825
69 659 941
70 122 683
71 111 386
72 657 234
73 688 921
74 676 942
75 463 128
76 875 97
77 982 861
78 445 748
79 828 305
80 387 303
81 768 421
82 859 222
83 130 599
84 52 803
85 888 289
86 600 549
87 877 51
88 992 969
89 80 304
90 805 76
91 990 256
92 306 119
93 836 204
94 74 223
95 150 894
96 979 964
97 733 939
98 599 860
99 801 106
100 860 100
101 472 765
102 605 123
103 752 426
104 996 198
105 803 935
106 361 801
107 170 958
108 786 418
109 646 977
110 892 113
111 486 445
112 174 964
113 599 871
114 957 677
115 93 349
116 506 454
117 792 919
118 55 284
119 116 755
120 368 125
121 523 837
122 907 303
123 719 842
124 913 538
125 499 296
126 296 811
127 664 100
128 232 621
129 252 659
130 474 107
131 804 296
132 180 632
133 405 387
134 475 300
135 992 105
136 454 340
137 821 145
138 307 108
139 453 269
140 120 954
141 512 344
142 672 964
143 247 606
144 834 425
145 115 328
146 621 421
147 701 511
148 937 537
149 664 187
150 840 406
DEMAND_SECTION
2 6
3 2
4 2
5 1
6 8
7 3
8 1
9 4
10 7
11 10
12 4
13 6
14 9
15 7
16 2
17 6
18 2
19 2
20 5
21 4
22 6
23 4
24 10
25 1
COVERAGE_SECTION
2 7 106 126 5 78 32 101 30 
3 7 142 74 69 73 24 109 97 
4 7 25 132 70 53 67 128 34 
5 7 126 2 32 106 62 30 67 
6 7 140 51 58 95 11 107 112 
7 7 149 72 42 54 15 52 61 
8 5 88 96 33 49 77 
9 7 139 134 125 29 136 141 80 
10 7 89 118 115 145 94 71 50 
11 7 58 140 6 107 112 51 95 
12 7 141 111 116 46 136 29 39 
13 7 137 99 90 100 19 54 93 
14 5 120 92 138 75 130 
15 6 61 127 149 102 35 7 
16 6 147 65 38 47 86 103 
17 6 82 131 79 93 54 85 
18 7 59 104 91 82 85 122 93 
19 7 110 31 76 100 137 13 37 
20 6 41 68 121 98 27 113 
21 6 108 44 81 150 144 103 
22 6 66 64 94 43 50 118 
23 4 36 114 124 148 
24 7 97 73 3 74 142 117 69 
25 7 4 132 53 70 83 34 55 
26 5 52 60 72 146 7 
27 6 113 98 121 20 68 41 
28 4 57 126 106 2 
29 7 125 141 134 9 136 139 12 
30 7 32 67 63 129 4 5 62 
31 7 110 76 19 100 87 37 137 
32 6 30 67 63 62 5 126 
33 6 49 96 88 8 105 117 
34 6 53 132 83 25 128 143 
35 6 61 127 15 90 99 102 
36 4 23 114 148 124 
37 7 87 76 100 90 31 110 19 
38 3 16 147 65 
39 6 46 116 111 146 86 12 
40 5 91 122 85 104 18 
41 7 20 68 121 101 98 27 113 
42 5 72 149 7 102 15 
43 3 66 22 64 
44 5 150 144 21 108 81 
45 7 123 73 74 24 69 97 3 
46 6 146 39 12 60 116 111 
47 6 103 81 65 108 147 16 
48 6 133 111 136 116 12 141 
49 6 33 105 96 117 88 8 
50 6 94 64 118 89 22 10 
51 6 6 84 95 140 58 11 
52 5 26 60 72 7 146 
53 6 83 25 132 34 4 55 
54 7 93 17 137 82 13 7 131 
55 4 70 83 25 53 
56 6 135 104 31 110 18 59 
57 4 28 106 126 2 
58 7 140 11 107 112 6 95 51 
59 7 18 104 82 91 85 93 19 
60 5 146 26 46 52 12 
61 6 15 127 35 99 90 13 
62 6 32 63 5 126 67 30 
63 6 67 32 30 119 62 4 
64 4 50 94 66 22 
65 7 147 47 16 38 103 81 108 
66 3 43 64 22 
67 6 63 30 32 4 119 70 
68 7 121 20 41 27 101 98 113 
69 7 74 142 73 109 3 24 97 
70 7 55 4 25 119 53 132 67 
71 4 115 145 89 10 
72 5 42 149 7 52 26 
73 7 74 69 24 3 45 142 97 
74 7 69 142 73 3 109 24 97 
75 3 130 14 120 
76 7 100 31 110 19 37 87 137 
77 4 96 88 8 33 
78 6 101 106 68 2 41 121 
79 5 131 17 85 122 21 
80 7 139 136 133 134 9 125 48 
81 6 103 108 47 21 144 44 
82 7 93 17 54 85 59 18 137 
83 5 53 34 25 55 132 
84 5 51 119 6 63 95 
85 4 122 79 17 82 
86 3 39 16 147 
87 7 37 76 100 31 110 19 90 
88 5 96 8 33 77 49 
89 7 10 118 145 115 94 71 50 
90 6 99 13 37 100 137 76 
91 6 40 104 18 59 122 85 
92 3 138 120 14 
93 7 82 54 17 137 13 19 59 
94 7 50 64 118 22 89 10 66 
95 7 6 107 140 112 51 58 62 
96 5 88 8 33 49 77 
97 7 24 73 3 74 117 142 105 
98 6 113 27 20 121 68 41 
99 7 13 90 137 100 19 76 37 
100 7 76 19 110 31 37 87 99 
101 6 78 68 41 121 20 106 
102 4 127 15 149 42 
103 6 81 47 108 21 65 144 
104 7 91 18 59 135 56 40 110 
105 4 117 97 24 49 
106 6 2 126 5 78 101 28 
107 7 112 140 58 95 6 11 51 
108 7 81 103 21 144 47 44 150 
109 5 142 69 74 3 73 
110 7 31 76 19 100 87 37 137 
111 6 116 48 12 39 46 133 
112 7 107 58 140 95 6 11 51 
113 6 98 27 20 121 68 69 
114 4 36 23 148 124 
115 6 145 71 10 89 118 94 
116 6 111 39 12 46 48 141 
117 4 105 97 24 49 
118 7 10 89 94 145 115 50 64 
119 6 63 70 84 67 4 62 
120 4 14 92 138 75 
121 7 68 20 27 41 98 113 101 
122 4 85 79 40 17 
123 4 45 73 24 97 
124 3 148 23 36 
125 7 29 134 9 141 139 136 12 
126 7 5 2 106 32 62 30 28 
127 5 15 61 102 35 149 
128 6 143 129 132 34 4 25 
129 6 128 143 30 132 4 67 
130 3 75 120 14 
131 5 79 17 21 85 82 
132 7 25 4 53 34 128 83 143 
133 7 48 136 80 111 134 12 141 
134 7 125 9 139 29 136 141 80 
135 6 56 104 31 110 76 18 
136 7 134 141 125 29 133 139 9 
137 7 13 99 19 100 93 54 90 
138 3 92 120 14 
139 7 9 134 125 136 29 80 141 
140 7 58 6 11 107 112 95 51 
141 7 29 12 125 134 136 9 139 
142 7 3 74 69 109 73 24 97 
143 5 128 129 132 34 4 
144 6 150 44 108 21 81 103 
145 7 115 89 10 71 118 94 50 
146 5 60 46 39 26 12 
147 6 16 65 38 47 103 86 
148 3 124 36 23 
149 6 42 72 7 15 102 127 
150 5 44 144 21 108 81 
DEPOT_SECTION
   1
   -1
EOF
