NAME :  X-n200-kX-w79-c11.cctp
COMMENT : 	Adapted by Maziero, Usberti and Cavellucci from the Uchoa, Pecin, Pessoa, Poggi, Subramanian, and Vidal (2013)
TYPE :  CCTP
DIMENSION :    200
EDGE_WEIGHT_TYPE : 	EUC_2D	
CAPACITY : 	402
VERTICES_WITHIN_COVERAGE :  11
VERTICES_WITH_DEMAND : 	79
NODE_COORD_SECTION
1 957 135
2 149 141
3 1 96
4 228 268
5 781 529
6 867 797
7 109 53
8 13 449
9 133 293
10 259 172
11 908 678
12 930 867
13 903 766
14 143 263
15 735 501
16 259 253
17 59 62
18 737 464
19 925 587
20 16 404
21 893 720
22 131 188
23 226 228
24 285 68
25 113 323
26 67 307
27 797 381
28 804 573
29 892 838
30 307 141
31 40 347
32 933 708
33 906 725
34 242 231
35 310 255
36 183 308
37 57 153
38 122 254
39 1 437
40 83 548
41 872 427
42 118 317
43 100 402
44 54 335
45 180 118
46 875 774
47 792 774
48 92 166
49 890 821
50 184 6
51 189 299
52 230 234
53 61 728
54 147 501
55 180 371
56 756 455
57 121 248
58 747 756
59 890 825
60 275 63
61 67 131
62 96 15
63 709 611
64 893 822
65 121 170
66 770 580
67 122 320
68 695 626
69 712 670
70 101 98
71 824 813
72 256 265
73 726 553
74 248 359
75 864 742
76 149 74
77 872 329
78 847 817
79 864 575
80 976 818
81 193 126
82 79 88
83 97 403
84 284 424
85 907 842
86 808 590
87 146 120
88 66 480
89 824 634
90 9 421
91 152 157
92 318 223
93 853 307
94 184 277
95 268 379
96 183 236
97 93 217
98 207 439
99 280 417
100 80 110
101 20 67
102 142 384
103 165 63
104 62 410
105 176 261
106 223 301
107 830 608
108 7 164
109 188 108
110 770 537
111 168 99
112 641 321
113 174 165
114 886 816
115 53 303
116 216 377
117 214 261
118 104 44
119 393 114
120 222 51
121 261 355
122 894 577
123 35 285
124 93 509
125 127 150
126 873 468
127 60 105
128 133 232
129 147 252
130 778 547
131 227 403
132 46 419
133 82 381
134 83 80
135 43 466
136 246 330
137 337 216
138 83 205
139 9 55
140 127 123
141 121 449
142 72 189
143 771 491
144 73 201
145 181 188
146 727 549
147 26 332
148 221 419
149 17 212
150 59 359
151 798 525
152 714 613
153 91 419
154 229 353
155 875 568
156 241 285
157 236 368
158 45 86
159 446 310
160 128 366
161 163 168
162 322 272
163 958 864
164 754 814
165 136 184
166 111 119
167 120 300
168 686 372
169 32 68
170 224 70
171 113 76
172 228 73
173 216 34
174 218 360
175 157 167
176 58 242
177 84 263
178 330 253
179 903 822
180 900 858
181 270 381
182 15 37
183 79 523
184 207 329
185 130 274
186 870 860
187 791 305
188 13 535
189 800 823
190 224 244
191 580 504
192 88 389
193 3 172
194 62 499
195 791 692
196 186 373
197 300 26
198 52 204
199 163 305
200 135 270
DEMAND_SECTION
2 83
3 52
4 73
5 70
6 86
7 51
8 74
9 84
10 52
11 93
12 91
13 89
14 64
15 75
16 64
17 61
18 2
19 86
20 95
21 100
22 73
23 61
24 83
25 60
26 85
27 48
28 66
29 70
30 91
31 54
32 55
33 64
34 56
35 62
36 89
37 100
38 96
39 67
40 21
41 15
42 55
43 58
44 84
45 85
46 91
47 55
48 79
49 79
50 82
51 91
52 89
53 22
54 31
55 85
56 22
57 72
58 59
59 95
60 99
61 98
62 54
63 96
64 69
65 97
66 67
67 80
68 65
69 86
70 90
71 72
72 69
73 80
74 72
75 62
76 78
77 24
78 88
79 70
80 71
COVERAGE_SECTION
2 11 91 87 125 175 140 161 113 45 65 166 165 
3 11 101 139 169 158 127 182 17 108 61 193 82 
4 11 117 156 190 72 106 16 52 23 34 94 51 
5 11 110 151 130 143 28 66 15 146 73 86 18 
6 11 46 114 78 49 59 64 179 71 13 29 75 
7 11 118 171 134 62 76 70 82 17 103 100 166 
8 11 39 90 135 20 132 88 104 194 153 188 83 
9 11 167 185 200 42 67 14 199 25 38 129 57 
10 11 30 34 23 52 92 81 145 190 16 113 137 
11 11 32 21 33 75 13 19 89 46 122 107 79 
12 11 163 180 85 29 179 59 64 186 49 80 114 
13 11 46 33 75 21 6 114 179 49 64 59 32 
14 11 200 129 185 38 57 9 105 128 94 167 199 
15 11 18 143 146 110 56 73 5 130 151 66 28 
16 11 72 34 4 52 190 156 23 117 35 106 92 
17 11 158 169 134 82 101 127 118 139 7 182 100 
18 11 56 15 143 5 110 146 151 73 130 27 168 
19 11 122 155 79 11 107 89 86 32 28 126 21 
20 11 90 132 39 8 104 31 150 135 133 147 192 
21 11 33 75 32 11 13 46 6 114 49 64 179 
22 11 165 65 175 91 125 161 128 48 97 113 2 
23 11 52 34 190 117 4 16 96 72 156 105 145 
24 11 60 197 172 170 120 30 173 109 10 81 45 
25 11 42 67 167 9 160 26 185 199 200 44 115 
26 11 115 44 123 177 31 147 25 42 150 167 67 
27 11 187 56 41 77 93 18 168 143 126 15 151 
28 11 86 66 130 107 151 5 110 79 89 155 73 
29 11 59 64 85 49 179 180 114 186 6 12 78 
30 11 10 24 137 92 60 119 172 170 34 35 178 
31 11 44 147 150 115 26 133 20 123 192 104 132 
32 11 33 11 21 13 75 46 6 80 114 179 19 
33 11 21 32 13 75 11 46 6 114 49 179 64 
34 11 52 23 190 16 72 4 117 156 96 10 35 
35 11 178 162 92 137 16 72 34 156 4 52 190 
36 11 51 199 94 184 106 105 9 117 4 14 200 
37 11 61 48 142 127 100 108 144 198 193 138 166 
38 11 57 200 185 14 128 129 177 9 167 97 105 
39 11 8 90 20 132 135 104 88 194 153 150 31 
40 11 183 124 194 88 188 54 135 141 8 153 132 
41 11 126 27 77 56 143 93 151 5 18 155 187 
42 11 67 25 167 9 185 199 160 200 26 14 38 
43 11 83 192 153 133 104 102 160 141 132 150 25 
44 11 31 150 147 26 115 123 133 25 192 42 67 
45 11 109 81 111 87 2 113 91 140 161 76 175 
46 11 6 13 75 114 49 64 78 59 179 21 33 
47 11 58 71 189 164 78 6 75 195 46 114 49 
48 11 65 142 37 125 138 144 61 22 165 97 166 
49 11 64 59 114 179 29 85 6 180 78 186 46 
50 11 173 120 103 170 76 172 62 7 118 111 171 
51 11 36 94 199 106 184 105 117 4 156 9 14 
52 11 23 34 190 117 4 16 72 96 156 105 94 
53 11 40 188 183 124 194 54 88 135 8 141 39 
54 11 124 141 183 40 88 194 98 153 43 83 135 
55 11 196 116 102 174 184 154 160 157 131 36 148 
56 11 18 143 15 5 151 110 27 130 146 73 168 
57 11 38 128 129 200 14 185 177 97 9 167 105 
58 11 47 164 195 189 69 71 78 75 6 46 68 
59 11 49 64 114 29 179 85 180 6 186 78 46 
60 11 24 197 172 170 120 173 30 109 81 50 10 
61 11 37 100 127 48 82 166 70 158 134 142 140 
62 11 118 7 17 171 134 82 76 70 169 103 182 
63 11 152 68 69 73 146 66 130 110 86 28 5 
64 11 49 59 114 179 29 85 6 180 186 78 46 
65 11 22 125 165 48 91 175 2 161 140 138 166 
66 11 130 28 86 110 5 73 146 151 152 107 63 
67 11 42 25 167 9 199 160 185 200 26 14 36 
68 11 63 152 69 73 146 66 130 110 195 86 28 
69 11 68 152 63 195 58 66 73 89 146 86 47 
70 11 166 82 100 134 171 140 127 7 61 87 76 
71 11 78 189 6 47 114 46 49 186 59 64 164 
72 11 16 156 4 34 190 52 117 23 106 35 136 
73 11 146 110 66 130 15 5 63 152 143 151 68 
74 11 121 157 154 95 136 174 181 116 131 184 106 
75 11 46 21 33 13 6 32 78 114 11 47 71 
76 11 103 111 171 7 87 109 45 70 118 140 166 
77 11 93 187 27 41 126 56 18 143 168 151 5 
78 11 71 6 114 49 59 64 189 186 29 46 179 
79 11 155 122 107 86 28 19 89 151 130 66 5 
80 11 163 12 85 179 64 29 49 59 180 13 114 
81 11 45 109 111 113 2 87 91 161 175 145 170 
82 11 134 100 70 127 17 158 171 61 166 7 118 
83 11 43 153 192 133 104 160 102 141 132 150 31 
84 11 99 181 95 131 148 121 74 157 98 116 154 
85 11 29 180 179 59 64 49 114 12 186 163 6 
86 11 28 107 66 89 130 79 110 151 5 155 122 
87 11 140 2 111 45 166 125 91 109 76 81 175 
88 11 194 135 124 183 8 141 132 153 40 104 188 
89 11 107 86 28 195 79 66 155 122 11 130 21 
90 11 20 39 8 132 104 135 31 150 88 153 133 
91 11 175 2 161 113 125 165 65 22 87 140 145 
92 11 137 178 35 162 16 72 34 10 30 52 23 
93 11 77 187 27 41 126 56 168 18 143 112 151 
94 11 105 51 36 117 199 96 14 4 129 106 200 
95 11 181 121 74 157 99 154 84 131 116 174 136 
96 11 105 129 117 94 190 23 52 14 145 128 4 
97 11 138 144 142 57 128 176 198 38 177 22 48 
98 11 148 131 116 196 55 99 157 84 174 102 54 
99 11 84 181 95 131 148 121 74 157 116 98 154 
100 11 127 82 70 61 134 166 158 171 37 140 17 
101 11 169 139 182 158 3 17 127 82 134 100 61 
102 11 160 55 196 43 83 192 133 153 67 25 141 
103 11 76 111 109 171 7 45 120 170 173 50 87 
104 11 132 153 192 133 83 43 20 150 90 135 8 
105 11 94 96 129 14 117 51 200 199 36 185 190 
106 11 156 184 4 51 136 36 117 94 72 154 190 
107 11 89 86 28 79 155 66 122 130 151 5 110 
108 11 193 149 37 198 3 61 142 144 127 48 138 
109 11 45 81 111 87 2 103 76 170 172 113 91 
110 11 130 5 151 66 146 143 73 15 28 86 18 
111 11 45 109 87 76 103 81 2 140 91 166 171 
112 11 168 187 27 18 56 191 159 15 93 143 77 
113 11 161 175 91 145 2 165 81 45 22 125 65 
114 11 49 64 59 179 29 6 85 78 46 180 186 
115 11 26 123 44 147 31 177 150 176 25 42 167 
116 11 174 157 154 131 196 55 74 148 184 121 95 
117 11 4 190 52 94 23 156 105 96 34 106 72 
118 11 7 62 171 134 17 82 70 76 103 100 158 
119 11 30 137 24 197 60 92 10 178 35 172 162 
120 11 173 170 172 60 103 50 24 109 111 76 45 
121 11 74 95 157 181 136 154 174 116 131 184 99 
122 11 155 79 19 107 86 28 89 11 151 126 130 
123 11 115 26 147 176 44 177 31 149 150 198 167 
124 11 183 194 40 88 54 135 141 188 153 8 132 
125 11 65 2 91 140 175 165 166 87 22 48 161 
126 11 41 151 155 143 79 5 122 27 56 110 130 
127 11 100 158 82 61 134 70 17 169 37 166 101 
128 11 57 129 38 14 200 185 97 22 165 96 105 
129 11 14 200 128 38 57 185 105 96 9 94 167 
130 11 110 5 151 66 28 146 73 86 143 15 107 
131 11 148 116 157 98 174 95 181 74 154 196 99 
132 11 104 20 90 8 153 135 39 133 192 83 43 
133 11 192 83 43 150 104 153 160 132 31 44 102 
134 11 82 70 17 100 171 127 7 158 118 166 169 
135 11 88 8 194 132 39 90 104 124 153 183 20 
136 11 74 121 154 106 157 184 174 156 95 116 181 
137 11 92 178 35 162 30 16 10 72 34 52 23 
138 11 144 97 142 198 48 176 22 65 57 128 165 
139 11 101 182 169 3 158 17 127 82 134 100 61 
140 11 166 87 125 2 70 91 65 111 100 171 45 
141 11 153 43 83 54 88 124 102 192 104 194 133 
142 11 144 138 198 48 97 37 65 176 61 22 149 
143 11 15 5 56 18 151 110 130 146 73 28 66 
144 11 138 142 198 97 48 176 37 65 149 22 177 
145 11 113 161 175 91 165 96 22 2 23 65 81 
146 11 73 110 15 130 66 5 63 152 143 151 28 
147 11 31 44 115 150 26 123 20 133 192 104 25 
148 11 131 98 116 157 196 99 174 95 181 55 84 
149 11 198 193 108 176 144 142 138 37 123 97 177 
150 11 31 44 133 192 147 104 26 115 83 43 132 
151 11 5 110 130 143 28 66 86 15 146 73 56 
152 11 63 68 69 73 66 146 130 110 86 28 5 
153 11 83 43 104 192 133 141 132 102 160 88 135 
154 11 174 157 74 116 136 121 184 95 196 131 181 
155 11 79 122 19 107 28 86 89 151 130 126 5 
156 11 4 106 72 117 16 190 136 52 34 51 184 
157 11 74 154 174 116 121 95 131 181 136 184 196 
158 11 169 127 17 101 82 134 100 3 139 61 70 
159 11 178 162 137 35 92 121 181 95 16 72 112 
160 11 102 25 43 67 192 83 133 42 55 196 153 
161 11 175 113 91 145 2 165 22 125 65 87 81 
162 11 35 178 92 137 16 72 156 34 4 136 52 
163 11 12 80 85 180 179 29 64 59 49 114 186 
164 11 189 47 58 71 78 6 186 46 195 75 114 
165 11 22 65 175 91 161 125 113 2 145 48 128 
166 11 140 70 100 87 125 171 2 82 61 134 48 
167 11 9 42 67 25 185 200 199 14 38 57 177 
168 11 112 18 56 27 187 15 143 191 93 146 5 
169 11 101 158 139 17 182 3 127 82 134 100 61 
170 11 172 120 173 60 109 103 24 111 81 45 50 
171 11 7 70 134 118 76 82 166 100 140 103 87 
172 11 170 120 173 60 109 24 81 103 111 45 76 
173 11 120 170 172 50 103 60 24 76 109 111 197 
174 11 154 116 157 74 184 196 55 136 121 131 95 
175 11 161 91 113 2 165 145 22 125 65 87 140 
176 11 177 198 97 144 138 123 149 142 115 57 38 
177 11 176 38 57 26 97 185 115 200 167 123 9 
178 11 35 162 92 137 16 72 34 156 52 4 190 
179 11 64 49 59 114 29 85 180 6 186 12 13 
180 11 85 29 186 12 59 179 64 49 114 163 78 
181 11 95 121 74 157 99 84 131 154 116 136 174 
182 11 139 101 169 17 158 3 134 82 127 62 118 
183 11 124 40 194 88 135 188 54 141 8 153 132 
184 11 36 106 154 174 51 136 116 157 196 55 199 
185 11 200 14 9 38 57 129 167 128 42 199 67 
186 11 180 29 59 85 49 64 114 78 179 12 6 
187 11 93 27 77 168 41 112 56 18 126 143 15 
188 11 194 183 40 135 88 124 8 39 90 132 20 
189 11 71 78 164 47 6 186 58 114 46 49 59 
190 11 52 23 117 34 4 16 72 96 156 105 94 
191 11 73 146 15 18 63 68 168 152 56 143 110 
192 11 133 83 43 153 104 150 160 132 102 31 44 
193 11 108 149 37 198 142 3 61 144 138 127 48 
194 11 88 183 124 135 40 188 8 141 132 54 153 
195 11 89 58 47 69 75 107 86 21 152 66 63 
196 11 55 116 174 102 154 184 157 131 148 160 74 
197 11 24 60 120 173 172 170 30 50 119 109 103 
198 11 144 142 138 149 176 97 37 48 193 108 177 
199 11 36 51 9 94 167 67 185 200 105 14 42 
200 11 185 14 38 129 9 57 167 128 105 199 94 
DEPOT_SECTION
   1
   -1
EOF
