NAME :  X-n266-kX-w53-c7.cctp
COMMENT : 	Adapted by Maziero, Usberti and Cavellucci from the Uchoa, Pecin, Pessoa, Poggi, Subramanian, and Vidal (2013)
TYPE :  CCTP
DIMENSION :    196
EDGE_WEIGHT_TYPE : 	EUC_2D	
CAPACITY : 	35
VERTICES_WITHIN_COVERAGE :  7
VERTICES_WITH_DEMAND : 	53
NODE_COORD_SECTION
1 143 12
2 206 907
3 895 855
4 640 970
5 865 716
6 993 356
7 618 966
8 963 539
9 50 979
10 241 998
11 32 206
12 288 926
13 299 507
14 336 180
15 589 726
16 665 488
17 36 521
18 112 895
19 814 442
20 843 474
21 17 258
22 360 273
23 814 537
24 775 524
25 825 471
26 321 87
27 773 958
28 119 166
29 368 928
30 193 250
31 452 919
32 736 322
33 386 911
34 624 313
35 694 398
36 186 803
37 948 721
38 216 973
39 915 641
40 238 810
41 946 172
42 23 561
43 613 657
44 359 434
45 604 96
46 56 554
47 862 723
48 222 161
49 974 838
50 775 67
51 815 880
52 204 362
53 435 760
54 593 358
55 203 435
56 882 803
57 194 739
58 836 461
59 537 136
60 789 669
61 956 1000
62 656 410
63 580 959
64 594 64
65 262 31
66 522 339
67 960 74
68 237 910
69 353 828
70 185 679
71 703 303
72 923 491
73 444 792
74 987 930
75 113 210
76 907 45
77 383 799
78 209 192
79 34 820
80 464 717
81 837 536
82 202 94
83 177 341
84 551 3
85 835 467
86 128 655
87 988 937
88 179 369
89 487 765
90 975 406
91 365 411
92 607 487
93 57 898
94 161 707
95 0 517
96 210 88
97 682 409
98 608 55
99 16 909
100 846 379
101 183 242
102 586 182
103 948 682
104 324 44
105 339 188
106 629 32
107 589 805
108 934 907
109 848 633
110 890 973
111 98 787
112 964 391
113 171 837
114 261 409
115 637 133
116 541 313
117 946 388
118 818 503
119 887 643
120 981 839
121 288 219
122 56 193
123 120 163
124 304 158
125 66 150
126 184 395
127 39 224
128 277 43
129 380 496
130 620 623
131 367 300
132 347 401
133 435 235
134 242 543
135 625 361
136 651 354
137 673 531
138 348 126
139 75 271
140 859 379
141 747 578
142 257 92
143 78 288
144 257 383
145 343 279
146 668 383
147 686 499
148 298 392
149 347 264
150 321 280
151 691 402
152 59 174
153 592 424
154 667 384
155 312 489
156 382 227
157 84 311
158 378 58
159 198 132
160 76 112
161 689 522
162 327 293
163 292 538
164 171 142
165 696 506
166 234 718
167 430 247
168 614 295
169 803 537
170 765 571
171 270 251
172 327 164
173 218 562
174 127 121
175 769 443
176 821 500
177 310 87
178 770 527
179 232 256
180 410 281
181 147 223
182 352 172
183 208 116
184 256 195
185 294 460
186 752 289
187 660 422
188 857 655
189 228 318
190 607 505
191 331 128
192 364 278
193 134 149
194 79 208
195 193 203
196 381 435
DEMAND_SECTION
2 5
3 5
4 5
5 5
6 6
7 10
8 10
9 10
10 9
11 9
12 5
13 9
14 5
15 6
16 7
17 6
18 10
19 6
20 5
21 10
22 6
23 10
24 7
25 6
26 9
27 5
28 5
29 8
30 7
31 9
32 6
33 10
34 8
35 9
36 7
37 9
38 5
39 9
40 8
41 10
42 8
43 10
44 10
45 8
46 6
47 7
48 9
49 8
50 8
51 9
52 10
53 5
54 10
COVERAGE_SECTION
2 7 68 38 113 12 18 10 40 
3 7 56 108 49 51 120 110 74 
4 7 7 63 27 107 31 51 15 
5 7 47 188 119 37 109 56 60 
6 7 112 90 117 140 100 72 8 
7 7 4 63 27 107 31 51 33 
8 7 72 39 81 119 90 20 103 
9 7 99 93 18 79 38 2 113 
10 7 38 12 68 2 29 18 33 
11 7 127 122 152 194 21 125 139 
12 7 68 29 2 10 38 33 69 
13 5 155 163 185 134 129 
14 7 105 172 182 124 191 138 121 
15 5 43 107 130 89 80 
16 6 147 165 161 137 92 190 
17 6 95 46 42 86 173 55 
18 7 93 113 2 99 9 79 111 
19 7 58 25 85 20 175 176 118 
20 7 85 58 25 176 118 19 81 
21 7 127 11 139 143 122 194 157 
22 7 192 149 145 131 162 150 156 
23 7 169 81 118 176 24 178 170 
24 6 178 169 23 118 170 176 
25 7 85 58 20 176 19 118 175 
26 7 177 191 104 138 128 142 158 
27 7 51 110 4 7 3 108 61 
28 7 123 193 75 174 125 164 194 
29 7 33 12 31 69 77 68 10 
30 7 101 179 195 181 78 189 171 
31 7 33 29 73 63 69 77 89 
32 7 186 71 35 136 146 151 154 
33 7 29 31 69 12 77 73 68 
34 7 168 135 136 54 71 116 146 
35 7 151 97 146 154 62 187 136 
36 7 113 40 57 111 166 94 2 
37 7 103 5 47 39 119 56 188 
38 7 10 68 2 12 18 113 29 
39 7 119 103 188 109 37 5 47 
40 7 36 113 57 166 68 2 69 
41 7 67 76 6 50 117 112 140 
42 6 46 17 95 86 173 70 
43 2 130 15 
44 6 196 91 132 129 185 155 
45 7 64 98 115 106 59 102 84 
46 6 42 17 95 86 173 70 
47 7 5 188 56 119 37 60 109 
48 7 78 159 183 184 195 164 82 
49 7 120 108 3 74 56 87 37 
50 7 76 106 115 98 45 64 67 
51 7 3 27 56 110 108 47 49 
52 7 88 83 126 189 144 55 114 
53 5 73 80 89 77 69 
54 7 135 34 136 153 168 116 66 
55 7 126 114 88 52 144 185 83 
56 7 3 47 5 49 51 37 120 
57 7 166 94 70 36 40 113 86 
58 7 85 20 25 19 176 118 175 
59 4 102 45 64 115 
60 7 109 188 5 47 141 119 170 
61 7 87 110 74 108 3 49 120 
62 6 187 97 154 146 151 35 
63 7 7 4 31 107 27 33 29 
64 7 98 45 106 84 115 59 102 
65 7 128 142 104 177 96 26 82 
66 3 116 54 168 
67 7 76 41 50 6 186 117 112 
68 7 2 12 38 10 113 40 36 
69 7 77 33 73 29 53 40 12 
70 6 94 57 86 166 173 36 
71 7 32 186 136 34 146 154 168 
72 7 8 20 85 58 81 25 90 
73 6 53 89 77 80 69 31 
74 7 87 108 61 120 49 110 3 
75 6 194 181 28 123 122 152 
76 7 67 41 50 106 115 186 98 
77 7 69 73 53 89 33 80 29 
78 7 195 48 184 101 30 159 164 
79 7 111 93 99 18 113 36 9 
80 3 53 89 73 
81 7 23 169 118 176 20 24 25 
82 6 96 183 159 142 164 48 
83 5 88 52 126 189 144 
84 4 64 98 106 45 
85 7 58 20 25 19 176 118 81 
86 6 70 94 57 166 46 173 
87 7 74 108 61 120 49 110 3 
88 6 52 126 83 55 189 144 
89 6 73 53 80 15 77 107 
90 7 112 117 6 72 140 100 8 
91 4 132 44 196 148 
92 3 190 16 153 
93 7 99 18 9 79 111 113 2 
94 6 70 57 86 166 36 111 
95 5 17 42 46 86 55 
96 6 82 183 159 142 164 48 
97 6 151 35 62 187 154 146 
98 7 64 106 45 84 115 59 102 
99 7 93 9 79 18 111 113 2 
100 7 140 19 58 85 25 20 117 
101 6 30 195 181 179 78 75 
102 5 59 115 45 168 64 
103 7 37 39 119 5 47 188 109 
104 7 26 177 128 158 65 142 191 
105 7 14 182 172 124 156 121 191 
106 7 98 64 45 84 115 59 50 
107 7 15 89 73 43 80 63 53 
108 7 74 87 3 110 49 120 61 
109 7 188 119 39 60 5 47 81 
110 7 61 108 87 74 3 27 51 
111 7 79 113 36 94 57 18 93 
112 7 117 90 6 140 72 100 58 
113 7 36 40 2 18 111 68 57 
114 7 144 148 185 55 52 126 132 
115 6 45 102 64 98 59 106 
116 5 66 54 168 34 135 
117 7 112 90 6 140 100 72 58 
118 7 176 25 23 169 20 81 85 
119 7 39 188 109 103 5 47 37 
120 7 49 108 3 74 87 56 37 
121 7 171 184 105 14 124 172 179 
122 7 152 11 194 127 125 75 28 
123 7 28 193 174 75 164 125 194 
124 7 172 14 191 105 182 138 184 
125 7 152 160 122 28 123 194 11 
126 7 88 52 55 83 144 114 189 
127 7 11 122 21 194 152 139 75 
128 7 65 104 142 177 26 96 82 
129 3 196 44 155 
130 3 43 137 15 
131 4 192 22 145 149 
132 4 91 44 196 148 
133 5 167 180 156 192 22 
134 5 173 163 13 155 185 
135 6 136 54 34 146 154 62 
136 7 135 146 154 34 62 54 35 
137 4 161 165 147 16 
138 7 191 172 182 26 124 177 14 
139 4 143 157 21 127 
140 7 100 19 58 117 85 20 25 
141 3 170 178 24 
142 7 96 128 177 82 183 65 26 
143 3 139 157 21 
144 6 114 148 52 189 126 55 
145 6 149 22 162 192 150 131 
146 7 154 35 62 97 151 136 187 
147 4 165 161 16 137 
148 6 114 144 132 185 91 44 
149 7 22 145 192 150 162 131 156 
150 6 162 145 149 22 192 131 
151 7 35 97 146 154 62 187 136 
152 7 122 125 194 11 127 28 123 
153 5 92 54 62 187 135 
154 7 146 62 97 35 151 136 187 
155 5 13 185 163 129 44 
156 7 22 149 167 133 192 105 180 
157 3 143 139 21 
158 4 104 26 138 177 
159 7 183 164 48 82 96 78 193 
160 6 125 174 152 123 28 193 
161 4 165 137 147 16 
162 6 150 145 149 22 192 131 
163 3 13 134 155 
164 7 159 193 183 174 48 123 28 
165 4 147 161 137 16 
166 6 57 70 94 40 36 86 
167 6 133 180 156 192 22 131 
168 7 34 54 135 136 116 71 66 
169 7 23 24 81 178 118 176 170 
170 5 141 178 24 169 23 
171 7 121 179 184 150 162 30 145 
172 7 14 124 182 105 191 138 121 
173 4 134 163 13 155 
174 6 193 123 28 164 160 125 
175 7 19 25 58 85 118 176 20 
176 7 118 25 20 85 23 81 169 
177 7 26 104 191 142 138 128 124 
178 5 24 169 170 23 118 
179 7 171 30 101 189 184 195 121 
180 4 167 192 131 22 
181 6 75 101 195 30 28 123 
182 7 14 105 172 138 191 124 156 
183 7 159 82 96 164 48 142 78 
184 7 121 78 48 171 124 195 179 
185 7 155 13 114 148 44 163 132 
186 7 32 71 136 35 146 154 151 
187 6 62 97 151 154 146 35 
188 7 109 119 39 5 47 60 103 
189 7 52 83 179 88 144 30 171 
190 2 92 16 
191 7 138 172 124 26 177 182 14 
192 7 22 145 131 149 162 150 180 
193 7 123 28 174 164 75 159 125 
194 7 122 75 152 127 11 28 125 
195 7 78 101 30 181 48 184 164 
196 4 44 91 132 129 
DEPOT_SECTION
   1
   -1
EOF
