NAME :  X-n256-kX-w51-c9.cctp
COMMENT : 	Adapted by Maziero, Usberti and Cavellucci from the Uchoa, Pecin, Pessoa, Poggi, Subramanian, and Vidal (2013)
TYPE :  CCTP
DIMENSION :    221
EDGE_WEIGHT_TYPE : 	EUC_2D	
CAPACITY : 	1225
VERTICES_WITHIN_COVERAGE :  9
VERTICES_WITH_DEMAND : 	51
NODE_COORD_SECTION
1 500 500
2 878 606
3 35 593
4 320 125
5 189 244
6 274 784
7 900 310
8 742 640
9 800 448
10 66 599
11 829 588
12 660 698
13 290 673
14 669 619
15 252 742
16 425 160
17 291 114
18 289 90
19 813 663
20 847 528
21 589 738
22 756 687
23 777 547
24 810 554
25 823 501
26 5 179
27 357 774
28 39 419
29 277 59
30 76 127
31 229 65
32 868 256
33 388 914
34 303 352
35 713 640
36 692 668
37 332 773
38 404 833
39 782 719
40 230 680
41 711 559
42 383 851
43 366 42
44 80 322
45 22 338
46 447 107
47 357 24
48 120 255
49 155 252
50 793 605
51 248 236
52 273 163
53 741 596
54 324 753
55 195 632
56 728 460
57 296 66
58 885 203
59 330 780
60 204 177
61 659 553
62 426 102
63 309 755
64 215 242
65 24 547
66 373 110
67 862 596
68 83 155
69 816 433
70 917 345
71 62 661
72 874 602
73 247 231
74 248 946
75 908 590
76 812 701
77 270 347
78 714 567
79 796 520
80 367 947
81 88 235
82 30 230
83 189 199
84 774 664
85 732 579
86 146 730
87 188 748
88 954 296
89 279 160
90 853 195
91 730 640
92 56 562
93 819 427
94 873 663
95 308 101
96 256 669
97 272 320
98 280 122
99 800 663
100 193 65
101 334 987
102 583 843
103 940 363
104 523 797
105 753 415
106 786 576
107 60 623
108 512 166
109 928 312
110 823 802
111 249 288
112 266 776
113 166 204
114 793 691
115 906 599
116 217 20
117 124 271
118 880 572
119 53 561
120 386 713
121 764 423
122 98 577
123 77 608
124 875 607
125 266 847
126 861 673
127 657 665
128 784 424
129 882 574
130 349 113
131 519 674
132 568 693
133 412 715
134 681 739
135 710 603
136 132 317
137 243 887
138 328 130
139 907 505
140 364 107
141 809 640
142 873 414
143 97 278
144 775 601
145 194 309
146 266 276
147 246 850
148 268 168
149 181 782
150 700 492
151 695 698
152 708 454
153 213 701
154 147 72
155 213 214
156 931 586
157 175 243
158 466 38
159 697 594
160 307 170
161 76 554
162 797 286
163 84 346
164 794 695
165 24 575
166 231 285
167 775 559
168 897 309
169 415 180
170 201 293
171 39 267
172 366 205
173 265 765
174 17 290
175 729 846
176 707 632
177 274 809
178 901 604
179 685 725
180 860 244
181 37 367
182 209 189
183 319 167
184 234 177
185 221 697
186 379 190
187 629 657
188 740 486
189 94 552
190 272 173
191 884 628
192 967 297
193 913 279
194 196 313
195 276 84
196 692 632
197 284 743
198 253 739
199 874 303
200 695 657
201 124 313
202 705 456
203 248 819
204 781 843
205 866 544
206 364 870
207 884 375
208 686 590
209 482 177
210 912 176
211 287 794
212 764 592
213 944 112
214 351 260
215 254 616
216 790 281
217 352 320
218 827 593
219 920 321
220 98 555
221 18 534
DEMAND_SECTION
2 83
3 68
4 78
5 76
6 79
7 76
8 78
9 61
10 78
11 79
12 86
13 53
14 66
15 81
16 87
17 88
18 66
19 84
20 86
21 89
22 84
23 84
24 88
25 83
26 66
27 53
28 88
29 74
30 81
31 61
32 76
33 83
34 92
35 76
36 54
37 99
38 64
39 67
40 62
41 87
42 72
43 80
44 72
45 74
46 72
47 62
48 92
49 77
50 87
51 62
52 81
COVERAGE_SECTION
2 9 124 72 67 178 191 115 129 75 118 
3 9 165 10 92 119 107 123 65 161 221 
4 9 138 95 17 130 98 183 18 160 140 
5 9 157 64 49 155 83 113 170 73 166 
6 9 112 211 173 177 197 203 63 15 198 
7 9 168 219 199 109 193 70 88 32 103 
8 9 91 35 176 84 53 22 135 200 144 
9 9 69 93 128 121 105 25 188 79 56 
10 9 123 107 3 92 122 119 161 165 220 
11 9 218 67 24 50 106 72 124 2 118 
12 9 127 151 179 36 134 187 200 196 35 
13 9 96 40 215 197 185 198 15 153 63 
14 9 196 208 159 176 135 200 127 35 36 
15 9 198 173 197 112 6 185 153 63 211 
16 9 169 186 46 62 209 66 172 140 108 
17 9 98 95 18 4 195 138 57 89 52 
18 9 195 95 17 57 29 98 4 138 130 
19 9 99 141 114 164 76 84 126 94 50 
20 9 205 25 24 79 118 129 11 139 218 
21 9 132 12 104 187 134 131 179 127 102 
22 9 84 114 164 39 8 99 91 76 19 
23 9 167 106 79 24 212 144 85 50 53 
24 9 106 23 167 79 11 218 20 50 25 
25 9 79 20 24 9 205 23 69 93 167 
26 9 82 68 30 171 81 174 143 48 117 
27 9 37 59 54 63 120 211 38 197 42 
28 5 181 45 163 44 221 
29 9 57 195 18 31 95 17 98 116 4 
30 9 68 26 154 81 82 113 100 83 48 
31 9 100 116 29 195 18 57 98 17 154 
32 9 180 199 193 58 168 7 90 162 109 
33 9 80 206 42 38 101 125 27 74 59 
34 9 77 97 217 111 146 166 214 194 145 
35 9 176 91 196 200 8 36 135 14 159 
36 9 200 151 35 127 196 176 12 91 14 
37 9 59 54 27 63 211 197 6 112 173 
38 9 42 206 27 33 59 37 54 133 80 
39 9 164 114 76 22 84 99 19 141 8 
40 9 185 153 96 55 13 198 15 215 87 
41 9 78 85 159 208 135 53 61 212 167 
42 9 206 38 33 27 59 37 80 211 54 
43 9 47 140 66 130 57 95 62 18 29 
44 9 163 201 143 136 45 181 117 171 174 
45 9 181 174 44 163 171 28 143 201 82 
46 9 62 16 158 66 209 169 140 108 130 
47 9 43 57 140 29 66 130 95 18 195 
48 9 117 143 49 81 157 201 136 113 5 
49 9 157 5 48 117 113 64 170 83 143 
50 9 144 106 212 218 141 11 167 53 24 
51 9 73 64 155 146 111 166 5 182 184 
52 9 89 148 190 160 184 98 183 17 4 
53 9 85 212 135 144 78 8 159 91 41 
54 9 63 37 59 27 197 211 6 173 112 
55 9 40 215 185 96 153 13 86 122 87 
56 8 152 202 188 150 105 121 128 9 
57 9 29 18 195 95 17 98 4 31 130 
58 9 90 210 180 32 193 199 168 7 213 
59 9 37 27 54 63 211 6 197 177 112 
60 9 182 83 184 155 113 148 64 190 5 
61 9 208 41 159 78 14 135 150 85 196 
62 9 46 66 16 140 158 130 169 43 209 
63 9 54 197 37 59 6 173 211 112 27 
64 9 5 155 51 73 157 166 83 170 182 
65 6 221 165 119 92 3 161 
66 9 140 130 138 62 4 95 43 16 46 
67 9 72 124 2 118 129 11 218 191 178 
68 9 30 81 26 82 113 154 48 83 171 
69 7 93 9 128 121 142 105 25 
70 8 219 103 109 7 168 207 199 88 
71 9 107 123 10 3 122 165 92 119 161 
72 9 124 2 67 178 191 129 118 115 75 
73 9 51 64 155 146 166 184 111 182 5 
74 9 137 101 147 125 80 203 177 206 33 
75 8 115 178 156 129 118 2 72 124 
76 9 164 114 39 19 99 84 126 22 141 
77 8 97 34 111 146 166 194 145 217 
78 9 41 85 159 135 208 53 212 61 167 
79 9 23 25 24 167 20 106 188 9 205 
80 9 33 101 206 42 74 38 137 125 147 
81 9 48 143 117 82 171 49 68 113 201 
82 9 171 26 81 174 143 68 48 117 44 
83 9 182 113 60 155 5 157 64 184 49 
84 9 99 22 114 164 19 8 141 91 76 
85 9 53 78 41 135 212 159 167 208 144 
86 8 87 149 153 185 40 15 198 71 
87 9 149 86 153 185 15 198 173 40 112 
88 9 192 109 219 193 7 168 70 103 199 
89 9 52 148 190 160 98 183 17 184 4 
90 9 58 180 210 32 193 162 216 199 168 
91 9 8 35 176 196 200 135 53 36 84 
92 8 119 161 65 165 3 10 189 220 
93 7 69 9 128 121 142 105 25 
94 8 126 191 124 2 19 72 178 67 
95 9 17 18 4 98 138 195 57 130 29 
96 9 40 13 185 215 153 198 55 15 197 
97 9 77 111 146 34 166 170 194 145 217 
98 9 17 18 95 89 195 4 52 148 138 
99 9 19 141 84 114 164 76 22 50 39 
100 9 31 154 116 29 195 18 57 98 17 
101 9 80 33 74 206 137 42 125 147 38 
102 9 104 21 134 175 132 179 12 38 131 
103 6 70 219 109 207 7 88 
104 9 102 21 132 131 38 133 42 120 27 
105 7 121 128 56 9 152 202 69 
106 9 167 144 212 23 50 24 218 11 53 
107 9 123 10 71 3 122 165 92 119 161 
108 9 209 16 46 169 62 186 158 66 172 
109 9 219 7 88 168 70 193 192 103 199 
110 9 204 39 76 175 164 114 22 126 19 
111 9 166 146 97 170 51 64 73 145 194 
112 9 6 173 211 177 15 197 198 203 63 
113 9 83 157 5 182 60 155 49 64 48 
114 9 164 76 99 39 84 19 22 141 126 
115 9 178 75 156 2 72 124 129 191 118 
116 9 31 100 29 154 195 57 18 17 98 
117 9 48 143 49 201 136 81 157 44 5 
118 9 129 67 72 205 75 2 124 115 178 
119 7 92 161 65 165 3 10 189 
120 9 133 27 54 37 59 63 13 197 38 
121 7 105 128 9 56 69 93 152 
122 8 220 189 161 123 10 92 119 107 
123 9 10 107 122 3 92 119 161 71 220 
124 9 2 72 67 191 178 115 129 118 75 
125 9 147 203 177 137 211 6 112 173 59 
126 9 94 19 191 76 99 141 124 2 114 
127 9 187 12 36 200 14 196 151 176 35 
128 7 121 9 105 69 93 56 188 
129 9 118 72 67 75 2 124 205 115 178 
130 9 140 66 138 4 95 17 183 18 98 
131 9 132 21 187 133 104 127 120 12 14 
132 9 21 131 187 12 127 104 179 134 14 
133 9 120 27 54 37 59 63 131 38 13 
134 9 179 151 12 36 127 200 22 21 187 
135 9 159 208 176 53 85 196 78 35 91 
136 9 201 117 44 143 163 48 145 194 49 
137 9 147 125 74 203 177 211 6 112 149 
138 9 4 130 95 183 17 140 160 66 98 
139 5 205 20 118 129 25 
140 9 66 130 138 4 95 62 43 17 183 
141 9 19 99 50 84 218 144 114 11 164 
142 5 207 93 69 9 70 
143 9 117 48 81 201 44 136 171 49 163 
144 9 212 50 106 53 167 85 8 141 218 
145 8 194 170 166 111 136 5 49 157 
146 9 111 166 51 97 73 64 170 77 145 
147 9 125 203 137 177 211 6 112 173 149 
148 9 190 52 89 184 160 98 183 17 182 
149 8 87 86 203 15 198 112 173 153 
150 8 202 152 188 56 41 61 78 85 
151 9 179 36 12 200 134 127 35 22 196 
152 8 202 56 150 188 105 121 128 9 
153 9 185 40 87 96 198 15 55 86 13 
154 9 100 31 116 30 68 60 195 29 182 
155 9 182 64 83 5 60 73 51 184 113 
156 6 75 115 178 129 118 2 
157 9 5 49 64 113 83 155 48 170 117 
158 9 46 62 43 47 66 140 16 108 130 
159 9 208 135 78 14 41 85 196 176 53 
160 9 183 89 52 190 148 138 4 98 17 
161 6 189 92 220 119 122 10 
162 4 216 180 32 199 
163 9 44 181 201 136 45 143 117 28 174 
164 9 114 76 39 99 19 84 22 141 126 
165 7 3 65 119 92 221 10 161 
166 9 111 170 146 145 194 64 51 97 73 
167 9 23 106 24 212 144 79 85 50 53 
168 9 7 199 219 109 193 70 88 32 207 
169 9 16 186 172 209 62 46 66 140 130 
170 9 145 194 166 111 5 64 157 49 146 
171 9 174 82 81 143 44 45 48 117 163 
172 9 186 169 214 183 160 16 138 4 130 
173 9 112 6 15 197 198 211 63 177 203 
174 9 171 45 82 44 181 143 163 81 48 
175 9 204 110 134 179 39 102 151 22 12 
176 9 35 196 91 200 135 8 36 159 14 
177 9 211 6 203 112 125 173 147 59 63 
178 9 115 75 2 124 72 191 156 129 118 
179 9 134 151 12 36 127 200 22 187 35 
180 9 32 58 90 199 193 168 162 7 216 
181 9 45 163 28 44 174 171 201 136 143 
182 9 60 83 155 184 113 64 73 5 51 
183 9 160 138 89 4 52 190 148 17 98 
184 9 182 60 148 190 52 155 89 83 73 
185 9 153 40 96 198 15 87 55 13 197 
186 9 172 169 16 183 160 214 138 66 130 
187 9 127 12 14 36 200 196 132 151 176 
188 8 56 150 152 202 79 121 9 23 
189 7 220 161 122 92 119 10 123 
190 9 148 52 89 160 184 183 98 17 73 
191 9 2 124 72 178 115 94 67 75 126 
192 9 88 109 219 193 7 70 103 168 199 
193 9 7 168 109 219 88 199 32 192 180 
194 8 145 170 166 111 136 5 201 49 
195 9 18 29 57 17 95 98 31 4 138 
196 9 176 35 200 14 135 36 159 91 208 
197 9 63 173 198 15 112 54 6 211 37 
198 9 15 173 197 112 6 185 153 63 40 
199 8 168 7 193 32 219 109 70 180 
200 9 36 35 196 176 91 127 151 14 8 
201 9 136 117 143 44 163 48 49 145 194 
202 8 152 56 150 188 105 121 128 9 
203 9 177 147 125 6 211 112 173 137 15 
204 9 175 110 39 134 76 164 114 179 22 
205 9 20 118 129 67 11 24 139 72 25 
206 9 42 33 38 80 27 59 125 37 211 
207 5 142 70 103 219 7 
208 9 159 135 14 78 41 196 61 85 176 
209 9 108 16 169 46 62 186 172 66 140 
210 9 58 90 213 180 32 193 88 192 199 
211 9 6 177 112 173 59 63 203 37 197 
212 9 144 53 106 50 85 167 23 8 135 
213 9 210 58 90 180 32 193 88 192 109 
214 9 172 217 186 146 183 97 160 169 34 
215 9 96 55 13 40 185 153 198 15 197 
216 4 162 180 32 199 
217 9 34 214 97 77 146 111 172 166 186 
218 9 11 67 50 24 106 72 124 141 2 
219 9 109 7 70 168 88 193 103 199 192 
220 7 189 122 161 92 119 10 123 
221 6 65 165 119 92 3 161 
DEPOT_SECTION
   1
   -1
EOF
