NAME :  X-n284-kX-w56-c7.cctp
COMMENT : 	Adapted by Maziero, Usberti and Cavellucci from the Uchoa, Pecin, Pessoa, Poggi, Subramanian, and Vidal (2013)
TYPE :  CCTP
DIMENSION :    256
EDGE_WEIGHT_TYPE : 	EUC_2D	
CAPACITY : 	109
VERTICES_WITHIN_COVERAGE :  7
VERTICES_WITH_DEMAND : 	56
NODE_COORD_SECTION
1 674 825
2 549 534
3 43 315
4 542 420
5 45 580
6 180 450
7 369 618
8 287 721
9 36 426
10 411 408
11 170 446
12 21 333
13 37 428
14 617 456
15 52 527
16 114 227
17 32 303
18 233 638
19 314 568
20 290 736
21 549 449
22 317 699
23 676 992
24 45 851
25 455 508
26 128 446
27 34 302
28 152 660
29 550 576
30 559 585
31 306 655
32 183 449
33 380 586
34 726 399
35 21 277
36 306 679
37 128 317
38 547 726
39 242 389
40 347 595
41 324 384
42 531 492
43 103 480
44 197 495
45 20 321
46 66 402
47 100 638
48 453 582
49 120 514
50 691 499
51 311 449
52 350 574
53 198 437
54 370 722
55 513 438
56 273 645
57 6 508
58 44 581
59 309 763
60 18 616
61 128 603
62 543 466
63 687 466
64 54 449
65 504 517
66 49 401
67 638 459
68 329 614
69 657 416
70 1 296
71 217 443
72 42 721
73 1 416
74 157 731
75 244 727
76 128 320
77 548 588
78 559 438
79 425 920
80 17 481
81 459 433
82 9 408
83 55 295
84 357 711
85 168 292
86 31 407
87 544 414
88 285 801
89 439 387
90 751 638
91 347 636
92 413 579
93 353 713
94 686 492
95 192 450
96 535 479
97 428 346
98 18 359
99 364 653
100 293 515
101 326 459
102 60 370
103 252 426
104 532 411
105 225 722
106 259 227
107 19 558
108 368 573
109 382 645
110 84 434
111 596 630
112 27 367
113 186 460
114 116 629
115 89 544
116 574 623
117 841 288
118 166 458
119 541 481
120 255 545
121 38 273
122 672 313
123 264 757
124 59 278
125 351 298
126 26 447
127 334 620
128 21 527
129 268 402
130 547 547
131 54 551
132 530 414
133 53 441
134 103 273
135 181 327
136 163 342
137 141 256
138 502 494
139 324 558
140 121 518
141 116 307
142 262 511
143 442 622
144 307 581
145 344 619
146 140 436
147 603 511
148 155 633
149 83 545
150 389 638
151 231 732
152 141 362
153 36 435
154 217 375
155 50 491
156 487 555
157 415 599
158 314 840
159 589 589
160 199 463
161 683 488
162 55 501
163 30 368
164 308 729
165 97 678
166 69 439
167 208 380
168 85 478
169 96 618
170 39 321
171 47 409
172 541 489
173 76 376
174 469 638
175 501 458
176 51 527
177 428 484
178 197 390
179 279 744
180 181 319
181 39 640
182 70 417
183 320 800
184 88 326
185 448 624
186 5 405
187 9 520
188 26 200
189 432 556
190 405 541
191 242 429
192 501 579
193 479 427
194 27 571
195 602 440
196 398 657
197 176 482
198 517 509
199 184 464
200 350 606
201 45 407
202 612 434
203 226 642
204 544 431
205 607 574
206 130 767
207 518 464
208 439 619
209 104 463
210 183 642
211 747 478
212 528 588
213 37 256
214 113 395
215 189 421
216 537 541
217 554 484
218 395 514
219 31 647
220 636 432
221 337 505
222 678 518
223 396 435
224 603 501
225 173 629
226 575 395
227 309 604
228 371 795
229 262 452
230 29 521
231 375 623
232 525 449
233 482 542
234 22 705
235 343 673
236 45 558
237 530 483
238 528 389
239 299 678
240 414 536
241 13 456
242 615 505
243 17 342
244 264 387
245 289 541
246 140 498
247 445 606
248 112 456
249 604 604
250 304 614
251 228 659
252 339 622
253 513 411
254 290 422
255 728 457
256 379 594
DEMAND_SECTION
2 7
3 3
4 3
5 5
6 4
7 8
8 1
9 2
10 9
11 5
12 2
13 2
14 4
15 1
16 3
17 4
18 10
19 2
20 2
21 3
22 9
23 2
24 1
25 6
26 8
27 9
28 7
29 8
30 8
31 4
32 6
33 2
34 7
35 5
36 10
37 4
38 9
39 6
40 8
41 1
42 5
43 5
44 8
45 5
46 5
47 4
48 8
49 3
50 6
51 7
52 7
53 9
54 9
55 5
56 4
57 3
COVERAGE_SECTION
2 7 130 216 198 29 42 172 65 
3 7 170 17 27 83 45 12 243 
4 7 87 204 104 132 78 21 253 
5 7 58 194 236 131 107 60 149 
6 7 32 11 95 113 199 118 53 
7 7 231 200 145 256 91 150 109 
8 7 20 164 179 22 75 123 239 
9 7 13 153 86 171 201 126 133 
10 7 223 89 81 97 193 177 41 
11 7 6 32 118 113 95 199 53 
12 7 243 45 170 98 3 17 27 
13 7 9 153 133 171 86 126 201 
14 5 67 195 202 220 224 
15 7 176 131 230 162 128 236 149 
16 7 137 134 124 141 213 85 121 
17 7 27 3 170 45 83 35 121 
18 7 203 251 56 210 225 31 250 
19 7 139 144 52 227 245 40 250 
20 7 179 8 164 59 123 22 75 
21 6 78 62 204 232 4 96 
22 7 36 239 164 8 235 93 84 
23 5 79 38 90 228 111 
24 6 206 72 234 74 165 219 
25 7 177 233 138 65 240 189 156 
26 7 146 248 209 118 11 43 110 
27 7 17 3 170 83 45 35 121 
28 7 148 210 225 114 47 165 61 
29 7 77 30 212 130 216 159 2 
30 7 77 29 159 212 130 116 205 
31 7 36 239 56 235 250 22 91 
32 7 6 95 113 11 199 53 118 
33 7 256 108 52 7 40 92 200 
34 7 255 69 63 211 220 161 94 
35 7 121 213 17 27 70 83 124 
36 7 239 22 31 235 8 56 164 
37 6 76 141 184 136 85 152 
38 6 116 111 174 249 77 212 
39 7 244 129 154 167 103 191 178 
40 7 200 52 145 68 127 252 108 
41 7 254 129 244 51 101 39 103 
42 6 237 172 96 119 198 217 
43 6 209 168 248 49 246 26 
44 7 197 160 199 113 95 6 32 
45 7 12 170 243 17 3 27 70 
46 7 182 66 171 201 173 102 86 
47 7 114 169 165 61 148 28 181 
48 7 247 189 92 208 143 157 185 
49 7 140 246 43 115 149 168 209 
50 7 94 161 222 63 255 211 67 
51 7 101 254 229 221 103 129 41 
52 7 108 40 139 33 200 256 19 
53 7 95 215 32 71 6 113 160 
54 7 84 93 235 22 164 99 196 
55 7 232 175 207 253 132 204 104 
56 7 31 18 239 250 36 203 251 
57 7 187 128 230 80 155 162 176 
58 7 5 194 236 131 107 60 149 
59 7 20 164 179 183 88 123 8 
60 7 181 219 58 5 194 107 236 
61 6 114 169 148 47 225 28 
62 6 96 119 21 217 237 172 
63 7 161 94 50 255 67 222 69 
64 5 133 166 153 13 126 
65 7 198 138 233 42 216 156 237 
66 7 201 171 46 86 182 9 13 
67 7 14 220 202 195 69 63 242 
68 7 127 252 145 200 227 250 40 
69 6 220 67 202 14 63 195 
70 7 35 45 17 27 12 121 170 
71 7 53 95 160 191 32 113 215 
72 7 234 165 219 181 206 47 60 
73 7 82 186 86 9 13 126 153 
74 6 206 105 28 151 165 75 
75 6 151 105 123 179 8 20 
76 6 37 141 184 136 152 85 
77 7 30 29 212 130 159 116 192 
78 6 21 204 4 87 62 232 
79 6 228 158 183 88 59 54 
80 6 241 57 155 126 187 230 
81 7 193 175 89 10 55 253 177 
82 7 186 73 86 9 13 201 153 
83 7 124 27 3 17 121 170 35 
84 7 93 54 235 22 164 99 36 
85 7 180 135 137 37 76 136 141 
86 7 201 171 66 9 13 82 186 
87 7 4 104 132 204 78 238 253 
88 7 183 59 123 158 179 20 164 
89 6 10 97 81 193 223 253 
90 7 222 50 249 111 205 94 211 
91 7 252 145 127 99 7 68 200 
92 7 157 189 33 256 190 48 247 
93 7 84 54 22 235 164 36 99 
94 7 161 50 63 222 255 67 211 
95 7 32 6 113 53 160 199 11 
96 6 119 237 172 42 62 217 
97 4 89 10 125 81 
98 6 112 163 243 12 45 102 
99 7 109 91 150 235 231 196 7 
100 7 245 142 221 120 139 19 101 
101 6 51 221 254 229 100 223 
102 4 173 163 46 66 
103 7 191 229 129 39 254 71 244 
104 7 132 87 4 253 238 204 55 
105 6 151 75 123 179 8 251 
106 7 85 125 180 137 135 16 136 
107 7 194 236 128 5 58 131 230 
108 7 33 52 256 40 200 7 92 
109 7 150 99 196 231 7 91 145 
110 7 166 182 133 64 209 248 46 
111 7 116 249 159 205 30 77 29 
112 6 163 98 243 102 12 66 
113 7 199 32 6 95 160 118 11 
114 7 47 169 61 148 28 165 225 
115 7 149 131 15 140 176 49 236 
116 7 111 249 159 30 77 29 212 
117 5 34 122 255 211 69 
118 7 11 6 32 199 113 197 95 
119 6 96 172 237 217 42 62 
120 7 245 142 100 19 144 139 44 
121 7 35 213 124 83 27 17 3 
122 1 34 
123 7 179 20 75 151 8 59 88 
124 7 83 121 213 27 17 35 3 
125 7 41 97 106 244 10 89 129 
126 6 153 241 13 9 64 133 
127 7 252 68 145 91 200 40 227 
128 7 230 187 57 176 15 107 236 
129 7 244 39 103 254 191 229 154 
130 7 216 2 29 30 77 212 198 
131 7 236 15 176 5 149 58 194 
132 7 104 4 87 253 204 238 55 
133 6 64 166 153 13 9 126 
134 7 141 137 124 16 37 76 83 
135 7 180 136 85 76 152 37 167 
136 6 135 180 152 76 37 85 
137 7 16 134 85 141 37 76 180 
138 7 198 65 42 237 207 96 175 
139 7 19 144 52 245 40 108 227 
140 7 49 246 115 43 149 168 209 
141 6 37 76 184 134 85 137 
142 7 100 120 245 229 44 221 19 
143 7 208 185 247 174 157 48 92 
144 7 19 227 139 250 68 40 52 
145 7 252 127 200 68 91 40 7 
146 7 26 11 118 248 6 32 209 
147 5 224 242 217 14 2 
148 6 225 28 210 114 61 47 
149 7 115 131 15 176 236 140 49 
150 7 109 196 231 7 99 91 256 
151 6 105 75 123 179 8 20 
152 5 136 214 76 37 135 
153 7 13 9 126 133 64 86 171 
154 7 167 178 39 244 215 129 135 
155 5 162 80 15 176 168 
156 7 233 192 65 48 216 212 189 
157 7 92 208 247 143 256 33 185 
158 7 183 88 228 59 123 179 20 
159 7 249 205 30 116 29 77 111 
160 7 113 95 199 32 6 53 71 
161 7 94 50 63 222 67 255 211 
162 5 155 15 176 230 168 
163 6 112 98 243 102 12 66 
164 7 20 8 22 179 59 93 36 
165 7 47 114 28 169 181 72 148 
166 6 110 133 64 182 153 13 
167 6 154 178 39 215 244 53 
168 5 43 209 248 155 162 
169 7 47 114 61 165 148 181 5 
170 7 3 17 45 27 12 243 83 
171 7 201 66 86 9 46 13 182 
172 6 119 42 96 237 217 62 
173 3 102 46 66 
174 6 185 143 208 247 48 157 
175 6 207 55 232 138 193 237 
176 7 15 230 131 162 128 236 155 
177 6 25 218 240 223 81 190 
178 6 167 154 215 39 53 71 
179 7 20 123 8 164 59 75 151 
180 7 135 136 85 37 76 152 141 
181 7 219 60 58 5 47 169 234 
182 7 46 110 166 171 66 201 133 
183 7 88 59 158 228 179 20 123 
184 3 141 76 37 
185 7 143 208 247 174 157 48 92 
186 7 82 73 86 9 13 201 171 
187 7 57 128 230 107 80 176 15 
188 7 213 121 35 124 16 70 83 
189 7 240 92 190 48 157 233 247 
190 6 240 218 189 92 108 33 
191 7 103 71 229 129 39 53 244 
192 7 156 212 233 48 77 29 216 
193 7 81 55 175 253 232 132 207 
194 7 107 5 58 236 131 128 60 
195 5 202 14 220 67 78 
196 7 109 150 99 231 7 91 143 
197 7 199 113 44 118 160 6 32 
198 7 65 138 42 237 172 96 119 
199 7 113 6 32 160 95 118 197 
200 7 40 145 252 127 7 68 91 
201 7 171 66 86 9 13 46 182 
202 5 195 14 220 67 69 
203 7 18 251 210 56 225 148 28 
204 7 4 78 87 21 132 104 232 
205 6 159 249 30 29 111 116 
206 6 74 165 72 105 151 28 
207 6 232 175 237 96 62 55 
208 7 143 185 247 157 174 48 92 
209 6 248 43 168 26 110 166 
210 6 225 148 28 203 251 18 
211 7 255 50 63 94 161 222 34 
212 7 77 29 192 30 130 216 156 
213 7 121 35 124 83 27 17 70 
214 5 173 152 46 182 110 
215 7 53 32 95 6 11 178 71 
216 7 130 2 29 198 65 77 212 
217 6 119 172 96 62 42 237 
218 6 190 240 177 189 221 25 
219 7 181 60 234 58 5 47 169 
220 5 202 69 67 14 195 
221 6 100 101 139 218 245 51 
222 6 50 94 161 63 242 67 
223 6 10 177 81 89 101 218 
224 5 147 242 14 217 67 
225 6 210 148 28 61 203 114 
226 3 87 4 78 
227 7 250 68 144 127 252 19 145 
228 7 183 59 54 158 93 84 88 
229 7 103 191 254 71 51 129 142 
230 7 128 187 176 15 57 162 155 
231 7 7 150 109 256 200 91 145 
232 6 55 207 21 62 175 204 
233 7 156 65 192 25 198 48 138 
234 7 72 219 181 165 60 47 169 
235 7 99 22 36 91 84 31 93 
236 7 131 5 194 58 107 15 176 
237 6 96 42 119 172 62 207 
238 7 104 132 253 87 4 204 226 
239 7 36 31 22 56 235 8 164 
240 6 190 189 218 92 25 177 
241 6 126 80 153 13 9 64 
242 5 147 224 14 67 222 
243 7 12 98 45 112 163 170 3 
244 7 129 39 103 254 191 154 167 
245 7 100 120 19 139 142 144 221 
246 7 49 140 197 43 118 209 248 
247 7 208 143 185 48 157 174 92 
248 7 209 26 43 146 168 110 166 
249 7 159 111 205 116 30 77 29 
250 7 227 68 127 144 252 145 31 
251 7 203 18 56 210 105 225 75 
252 7 127 145 68 91 200 40 7 
253 7 132 104 55 238 4 87 204 
254 7 129 51 103 229 244 191 41 
255 7 211 63 94 161 50 34 222 
256 7 33 108 7 231 200 40 52 
DEPOT_SECTION
   1
   -1
EOF
