NAME :  X-n228-kX-w22-c11.cctp
COMMENT : 	Adapted by Maziero, Usberti and Cavellucci from the Uchoa, Pecin, Pessoa, Poggi, Subramanian, and Vidal (2013)
TYPE :  CCTP
DIMENSION :    163
EDGE_WEIGHT_TYPE : 	EUC_2D	
CAPACITY : 	154
VERTICES_WITHIN_COVERAGE :  11
VERTICES_WITH_DEMAND : 	22
NODE_COORD_SECTION
1 550 574
2 177 24
3 448 476
4 934 619
5 323 122
6 430 76
7 364 9
8 988 994
9 91 636
10 938 641
11 979 764
12 4 748
13 420 164
14 294 15
15 304 89
16 362 207
17 770 344
18 67 634
19 90 44
20 712 418
21 299 6
22 997 871
23 38 695
24 830 1000
25 916 622
26 445 107
27 314 222
28 520 434
29 996 902
30 115 158
31 371 61
32 971 352
33 448 484
34 299 89
35 402 147
36 389 48
37 186 22
38 658 505
39 459 528
40 956 900
41 36 651
42 994 713
43 270 100
44 944 606
45 318 42
46 398 280
47 74 760
48 910 623
49 96 604
50 432 96
51 188 17
52 441 480
53 458 124
54 196 51
55 953 658
56 389 0
57 140 683
58 293 75
59 299 157
60 366 110
61 382 140
62 266 88
63 440 423
64 168 19
65 616 244
66 126 666
67 332 85
68 834 571
69 49 602
70 81 696
71 308 43
72 915 675
73 500 518
74 329 86
75 993 634
76 959 600
77 991 973
78 411 25
79 382 303
80 477 58
81 225 31
82 439 456
83 120 710
84 462 471
85 107 134
86 970 995
87 427 501
88 938 650
89 370 16
90 460 140
91 411 89
92 953 944
93 343 121
94 361 316
95 407 508
96 414 117
97 168 601
98 854 575
99 193 51
100 957 641
101 51 647
102 137 714
103 386 146
104 976 649
105 281 121
106 453 69
107 393 25
108 341 532
109 466 153
110 507 472
111 946 963
112 327 78
113 301 135
114 997 980
115 343 173
116 860 622
117 317 211
118 418 6
119 83 641
120 247 22
121 337 72
122 439 65
123 409 24
124 931 476
125 97 676
126 880 606
127 410 110
128 252 22
129 945 948
130 135 618
131 348 443
132 296 39
133 953 368
134 81 826
135 997 734
136 143 603
137 122 38
138 946 690
139 95 37
140 137 64
141 361 258
142 153 65
143 423 59
144 943 678
145 522 195
146 463 29
147 289 136
148 125 62
149 304 44
150 958 610
151 975 966
152 486 111
153 940 621
154 993 964
155 771 548
156 440 455
157 104 561
158 200 61
159 491 62
160 628 312
161 430 429
162 945 994
163 461 608
DEMAND_SECTION
2 79
3 57
4 88
5 54
6 92
7 84
8 61
9 100
10 61
11 69
12 78
13 54
14 59
15 60
16 61
17 85
18 67
19 96
20 57
21 57
22 52
23 80
COVERAGE_SECTION
2 10 37 64 51 99 54 158 142 81 137 140 
3 11 33 52 84 82 156 87 161 95 39 63 110 
4 11 153 44 25 10 48 150 76 88 100 55 104 
5 11 93 113 74 147 15 67 34 59 105 112 60 
6 10 122 143 50 91 106 26 127 96 36 80 
7 10 89 56 107 36 123 78 31 118 45 21 
8 11 114 86 77 154 151 162 111 92 129 29 40 
9 11 119 18 49 125 101 66 130 69 41 70 136 
10 11 88 100 153 4 55 25 48 44 144 150 104 
11 11 135 42 138 144 22 55 72 104 88 100 10 
12 11 23 47 70 41 134 101 125 83 18 119 102 
13 9 35 103 61 90 96 109 53 127 26 
14 8 21 132 71 149 45 128 120 58 
15 11 34 58 74 112 67 43 121 5 62 105 149 
16 9 115 117 27 141 103 61 13 35 59 
17 9 20 160 65 133 38 32 155 124 68 
18 11 119 101 9 41 69 49 125 70 66 23 130 
19 11 139 137 148 140 142 64 2 85 37 51 99 
20 7 17 38 160 155 28 68 65 
21 8 14 132 71 149 45 128 120 7 
22 11 29 40 92 129 154 151 77 111 11 114 8 
23 11 70 41 101 125 12 18 119 47 9 83 66 
24 9 162 111 129 92 86 151 8 40 77 
25 11 48 4 153 10 44 88 126 150 100 76 55 
26 10 50 53 96 6 127 90 91 106 152 122 
27 5 117 16 115 141 59 
28 5 110 84 63 3 156 
29 11 22 40 92 154 151 129 77 114 111 8 86 
30 8 85 140 148 142 19 137 139 158 
31 10 36 121 107 89 67 112 60 74 91 7 
32 11 133 124 17 76 98 44 68 150 20 4 126 
33 11 3 52 84 87 82 156 39 95 161 110 63 
34 11 15 58 74 112 43 62 67 105 5 121 149 
35 8 103 61 13 96 127 60 90 26 
36 9 31 107 123 78 143 89 7 91 56 
37 10 51 2 64 99 54 81 158 142 120 140 
38 6 20 155 28 110 73 68 
39 11 73 87 33 52 3 95 84 110 82 156 163 
40 11 29 92 129 22 111 151 154 77 114 162 86 
41 11 101 18 23 119 69 9 70 125 49 66 12 
42 11 135 11 138 144 104 55 75 100 88 72 10 
43 6 62 105 34 58 15 147 
44 11 150 4 76 153 25 10 100 48 88 55 104 
45 11 71 149 132 14 121 112 21 58 67 74 15 
46 8 79 141 94 16 27 117 13 115 
47 9 70 134 83 12 23 102 125 57 66 
48 11 25 4 153 10 126 44 88 100 116 150 72 
49 11 9 119 130 18 157 69 136 101 66 97 125 
50 10 26 6 91 127 96 122 106 53 143 90 
51 10 37 2 64 99 54 81 158 120 142 128 
52 11 3 33 84 82 87 156 95 39 161 63 110 
53 11 90 26 109 152 50 96 127 13 106 6 91 
54 8 99 158 37 2 51 81 64 142 
55 11 88 100 144 10 104 138 153 72 4 75 150 
56 9 89 107 7 118 123 78 36 31 143 
57 9 66 102 83 125 70 130 9 119 136 
58 9 34 15 62 149 43 112 71 132 74 
59 5 113 147 105 5 115 
60 7 93 61 103 67 74 127 5 
61 7 103 35 60 96 127 93 13 
62 5 43 58 34 105 15 
63 7 161 156 82 84 3 52 33 
64 11 2 37 51 99 54 142 137 158 140 81 148 
65 4 160 145 109 17 
66 10 57 125 83 9 102 130 119 70 136 18 
67 10 74 112 121 15 34 5 93 58 60 45 
68 9 98 116 126 155 48 25 4 44 153 
69 11 18 101 49 41 119 9 157 130 125 23 136 
70 11 125 83 23 66 119 101 102 57 9 18 41 
71 10 149 45 132 14 58 21 112 121 15 34 
72 10 144 88 138 10 55 48 25 100 4 153 
73 11 39 110 84 33 3 52 87 28 82 156 95 
74 10 67 112 121 15 34 5 58 93 60 45 
75 11 104 100 150 55 76 10 153 44 88 4 144 
76 11 150 44 153 4 100 10 25 75 104 48 88 
77 11 114 154 151 8 86 111 92 162 129 29 40 
78 9 123 107 118 36 56 143 89 122 7 
79 6 94 46 141 16 27 117 
80 9 159 106 146 122 6 143 152 26 50 
81 8 120 128 54 99 158 37 51 2 
82 11 156 3 52 84 161 33 63 87 95 110 39 
83 9 102 57 70 125 66 47 119 9 23 
84 11 3 33 52 82 156 110 87 63 161 39 73 
85 8 30 148 140 142 19 137 139 158 
86 11 8 162 151 77 114 154 111 129 92 40 29 
87 11 95 52 33 3 39 84 82 156 161 73 63 
88 11 10 55 100 144 153 4 72 25 104 48 138 
89 9 7 56 107 36 123 78 31 118 45 
90 11 109 53 26 152 13 96 50 35 127 6 91 
91 8 127 50 6 96 143 122 26 36 
92 11 129 111 151 40 154 77 162 86 114 29 8 
93 8 5 60 67 74 61 113 112 121 
94 8 79 46 141 27 16 117 131 161 
95 11 87 52 33 3 39 82 156 84 108 161 131 
96 9 127 50 91 35 26 61 103 6 53 
97 8 136 130 49 157 66 9 57 119 
98 10 68 126 116 48 25 155 4 44 153 10 
99 9 54 158 37 2 51 81 64 142 140 
100 11 55 10 88 104 153 150 4 44 75 144 76 
101 11 41 18 119 9 69 23 125 70 49 66 130 
102 8 83 57 66 125 70 47 9 119 
103 8 61 35 13 96 60 127 93 115 
104 11 100 75 55 88 10 150 144 153 138 4 76 
105 9 147 43 113 62 34 15 59 5 58 
106 11 122 6 80 143 50 26 159 146 91 152 53 
107 9 123 78 36 56 89 118 7 31 143 
108 8 95 131 87 52 33 39 3 82 
109 10 90 53 13 152 26 96 35 50 145 127 
110 9 28 84 73 3 33 52 156 82 39 
111 11 129 92 151 162 86 77 154 8 114 40 29 
112 10 74 67 121 15 34 58 45 71 149 5 
113 8 147 59 105 5 93 15 34 43 
114 11 77 154 8 151 86 111 162 92 129 29 40 
115 9 16 117 59 61 103 93 5 27 113 
116 8 126 98 48 25 68 4 72 10 
117 6 27 16 115 59 141 113 
118 9 78 123 56 107 89 36 146 143 7 
119 11 9 18 101 125 49 41 66 69 70 130 23 
120 7 128 81 14 132 21 51 54 
121 10 112 67 74 31 45 15 71 34 149 58 
122 10 6 106 143 50 91 80 26 146 78 123 
123 9 78 107 118 36 56 143 89 7 122 
124 11 133 98 76 32 44 68 150 126 4 153 25 
125 11 70 66 119 9 83 57 18 101 102 23 41 
126 10 116 48 25 98 4 68 153 44 10 88 
127 9 96 91 50 26 35 6 61 103 60 
128 7 120 81 14 132 21 149 71 
129 11 92 111 151 162 40 154 77 86 114 8 29 
130 10 136 97 49 9 66 119 57 157 125 18 
131 9 161 95 108 82 156 63 87 52 3 
132 9 149 71 45 14 21 58 128 34 112 
133 11 32 124 17 98 76 68 44 150 20 126 4 
134 8 47 12 83 102 70 23 125 57 
135 11 42 11 138 144 55 104 75 72 100 88 10 
136 10 130 97 49 157 9 66 119 57 18 125 
137 11 148 139 140 19 142 64 2 37 51 99 54 
138 11 144 55 72 88 10 100 104 42 135 153 4 
139 11 19 137 148 140 142 64 2 37 51 85 99 
140 11 148 142 137 139 19 64 2 99 54 158 37 
141 7 46 79 16 94 27 117 115 
142 11 140 148 137 99 54 158 2 64 37 51 139 
143 9 122 6 91 106 36 78 50 123 107 
144 11 138 55 72 88 10 100 104 153 4 25 42 
145 8 109 90 152 53 65 13 26 35 
146 9 80 106 122 159 143 118 78 123 6 
147 6 113 105 59 5 43 34 
148 11 140 137 142 19 139 64 2 99 54 37 85 
149 9 71 132 45 14 58 21 112 121 15 
150 11 76 44 153 4 100 10 75 104 25 88 55 
151 11 77 154 114 86 111 8 92 129 162 29 40 
152 10 53 90 26 109 159 106 80 50 6 122 
153 11 4 44 10 150 25 100 76 88 48 55 104 
154 11 77 114 151 8 86 92 111 129 162 29 40 
155 8 68 98 116 38 126 20 48 25 
156 11 82 3 52 84 161 33 63 87 95 110 39 
157 9 49 136 130 69 97 9 18 119 101 
158 7 54 99 81 37 2 51 142 
159 8 80 106 146 152 122 6 26 50 
160 3 65 20 17 
161 9 63 82 156 3 52 84 33 87 95 
162 11 86 111 151 8 129 77 92 114 154 40 29 
163 7 39 73 87 95 33 52 3 
DEPOT_SECTION
   1
   -1
EOF
