NAME :  X-n275-kX-w54-c7.cctp
COMMENT : 	Adapted by Maziero, Usberti and Cavellucci from the Uchoa, Pecin, Pessoa, Poggi, Subramanian, and Vidal (2013)
TYPE :  CCTP
DIMENSION :    215
EDGE_WEIGHT_TYPE : 	EUC_2D	
CAPACITY : 	10
VERTICES_WITHIN_COVERAGE :  7
VERTICES_WITH_DEMAND : 	54
NODE_COORD_SECTION
1 409 418
2 378 220
3 469 585
4 91 695
5 351 130
6 424 101
7 70 693
8 324 133
9 367 215
10 218 906
11 90 688
12 417 223
13 42 693
14 134 482
15 594 488
16 431 269
17 383 606
18 100 597
19 85 697
20 378 218
21 196 640
22 213 635
23 520 537
24 509 542
25 388 549
26 476 583
27 409 565
28 155 828
29 60 690
30 415 269
31 127 578
32 363 304
33 392 329
34 424 660
35 505 683
36 372 120
37 438 620
38 578 421
39 116 716
40 107 719
41 117 677
42 324 275
43 246 789
44 363 223
45 139 682
46 376 197
47 397 52
48 107 727
49 64 671
50 369 275
51 96 659
52 129 627
53 45 581
54 403 585
55 70 731
56 528 736
57 379 320
58 424 608
59 436 607
60 54 687
61 342 544
62 595 525
63 338 90
64 269 820
65 316 293
66 575 485
67 335 179
68 571 436
69 15 696
70 227 760
71 324 538
72 523 519
73 620 500
74 217 427
75 206 622
76 602 506
77 486 347
78 100 740
79 161 660
80 528 559
81 330 295
82 301 729
83 334 243
84 219 610
85 70 560
86 334 161
87 589 420
88 428 605
89 478 509
90 76 753
91 18 327
92 451 63
93 406 145
94 431 608
95 95 635
96 550 573
97 172 811
98 348 210
99 364 347
100 591 428
101 436 611
102 416 528
103 504 383
104 255 720
105 82 693
106 426 244
107 153 648
108 124 719
109 419 70
110 12 653
111 370 686
112 160 691
113 204 673
114 57 666
115 627 541
116 332 114
117 497 575
118 469 605
119 49 648
120 547 588
121 305 746
122 192 805
123 370 621
124 89 757
125 380 129
126 441 683
127 402 577
128 260 288
129 502 313
130 106 701
131 390 398
132 335 272
133 390 225
134 194 867
135 170 621
136 311 241
137 358 323
138 374 566
139 388 263
140 82 671
141 451 565
142 292 609
143 466 592
144 561 488
145 567 525
146 635 481
147 404 512
148 459 694
149 91 725
150 128 824
151 517 442
152 97 705
153 263 806
154 381 215
155 386 164
156 311 737
157 100 611
158 414 525
159 79 643
160 284 318
161 155 706
162 426 661
163 297 164
164 454 197
165 499 697
166 480 310
167 145 692
168 390 236
169 350 333
170 605 460
171 709 391
172 426 192
173 98 767
174 141 672
175 399 684
176 107 853
177 309 266
178 376 510
179 205 771
180 105 676
181 59 713
182 307 278
183 566 711
184 430 559
185 85 479
186 376 276
187 171 400
188 430 237
189 201 588
190 478 593
191 291 132
192 464 582
193 562 733
194 298 173
195 438 567
196 402 206
197 364 561
198 415 580
199 87 693
200 502 751
201 132 831
202 574 481
203 19 707
204 486 590
205 399 205
206 165 712
207 63 746
208 50 740
209 400 617
210 497 582
211 260 817
212 58 721
213 332 614
214 190 878
215 346 218
DEMAND_SECTION
2 1
3 1
4 1
5 1
6 1
7 1
8 1
9 1
10 1
11 1
12 1
13 1
14 1
15 1
16 1
17 1
18 1
19 1
20 1
21 1
22 1
23 1
24 1
25 1
26 1
27 1
28 1
29 1
30 1
31 1
32 1
33 1
34 1
35 1
36 1
37 1
38 1
39 1
40 1
41 1
42 1
43 1
44 1
45 1
46 1
47 1
48 1
49 1
50 1
51 1
52 1
53 1
54 1
55 1
COVERAGE_SECTION
2 7 20 154 9 133 44 168 46 
3 7 192 26 143 190 204 118 141 
4 7 199 19 11 105 152 130 7 
5 7 36 116 8 125 86 63 155 
6 6 109 92 93 125 36 47 
7 7 29 105 19 60 199 4 11 
8 7 116 5 86 191 163 63 67 
9 7 44 20 2 154 46 98 215 
10 7 214 134 211 28 64 122 97 
11 7 199 4 105 19 152 140 180 
12 7 188 106 196 205 133 168 172 
13 7 60 29 181 69 203 7 49 
14 7 185 187 31 74 85 18 189 
15 7 66 76 202 73 170 144 62 
16 7 30 106 188 139 12 168 186 
17 7 123 209 54 127 58 138 198 
18 7 157 31 95 52 85 159 53 
19 7 199 105 4 11 152 7 130 
20 7 2 154 9 133 44 46 168 
21 7 22 75 135 113 84 79 107 
22 7 75 21 84 113 135 189 79 
23 7 24 72 80 117 96 145 89 
24 7 23 80 72 117 210 89 96 
25 7 138 27 197 127 102 158 54 
26 7 3 190 192 204 143 210 117 
27 7 127 198 54 184 25 195 138 
28 5 201 97 150 122 176 
29 7 60 7 13 49 105 181 114 
30 7 16 106 139 188 186 168 12 
31 7 18 157 52 85 135 95 107 
32 7 137 57 50 186 169 81 33 
33 7 57 99 137 32 169 186 50 
34 7 162 126 175 37 148 209 101 
35 6 165 148 56 126 183 200 
36 7 125 5 116 93 63 155 8 
37 7 101 59 94 58 88 118 209 
38 7 87 100 68 170 202 66 151 
39 7 40 108 48 130 152 149 78 
40 7 48 39 108 149 152 130 78 
41 7 180 45 174 130 51 11 4 
42 7 132 177 182 65 81 83 136 
43 7 153 211 70 64 179 122 104 
44 7 9 2 20 215 98 154 133 
45 7 174 167 41 112 161 79 180 
46 7 154 9 20 2 205 196 44 
47 7 109 92 6 63 36 125 116 
48 7 40 39 78 149 108 152 130 
49 7 114 140 29 60 7 119 105 
50 7 186 139 32 132 81 168 42 
51 7 140 180 159 95 41 11 49 
52 7 107 157 95 135 18 51 79 
53 7 85 18 157 119 159 95 110 
54 7 127 198 27 17 58 88 209 
55 7 212 207 181 149 208 90 78 
56 7 200 193 183 165 35 148 126 
57 7 33 137 32 99 169 186 50 
58 7 88 94 59 101 37 209 198 
59 7 101 94 88 58 37 118 143 
60 7 29 13 7 49 114 181 105 
61 7 71 197 138 25 178 127 27 
62 7 76 145 73 115 15 66 202 
63 7 116 5 8 36 125 191 47 
64 7 211 153 43 70 122 179 121 
65 7 81 182 42 132 177 160 32 
66 7 202 144 15 76 170 145 62 
67 7 86 98 194 163 215 46 8 
68 7 38 100 87 170 202 66 144 
69 4 203 13 60 110 
70 6 179 43 104 122 153 211 
71 7 61 197 138 178 25 213 142 
72 7 23 24 80 145 89 144 96 
73 7 76 146 15 62 115 170 66 
74 2 187 14 
75 7 22 84 21 189 135 113 79 
76 7 73 15 62 66 202 145 146 
77 4 166 129 103 16 
78 7 48 149 124 40 90 173 39 
79 7 107 174 45 112 167 21 135 
80 7 23 24 96 117 120 210 72 
81 7 65 42 132 182 32 177 137 
82 5 156 121 104 70 43 
83 7 136 215 132 42 177 44 98 
84 7 75 22 189 21 135 113 142 
85 7 53 18 157 31 95 185 159 
86 7 67 8 5 163 194 116 98 
87 7 100 38 68 170 202 66 15 
88 7 94 58 59 101 37 198 209 
89 6 24 72 23 141 102 158 
90 6 124 207 55 173 78 208 
91 3 185 187 14 
92 6 109 6 47 93 36 125 
93 4 155 125 36 6 
94 7 88 59 101 58 37 198 209 
95 7 159 51 157 52 18 140 180 
96 6 120 80 23 24 145 117 
97 5 122 28 201 150 179 
98 7 215 9 44 20 46 2 154 
99 7 169 137 57 33 32 131 81 
100 7 87 38 68 170 202 66 15 
101 7 59 94 37 88 58 118 143 
102 7 158 147 184 25 27 178 195 
103 5 77 151 129 166 38 
104 6 82 70 121 156 113 43 
105 7 19 199 4 11 7 152 29 
106 7 188 12 16 30 168 133 139 
107 7 79 174 52 135 45 21 112 
108 7 39 40 48 130 152 78 149 
109 7 47 6 92 36 125 93 63 
110 7 119 69 114 13 60 203 49 
111 5 175 34 162 123 126 
112 6 167 161 206 45 174 79 
113 5 21 22 79 112 75 
114 7 49 119 60 29 140 7 13 
115 6 62 73 76 146 15 145 
116 7 8 5 63 36 191 86 125 
117 7 210 204 26 190 3 192 24 
118 7 143 190 3 26 204 192 59 
119 7 114 49 159 110 60 140 29 
120 6 96 80 210 117 23 24 
121 5 156 82 104 43 153 
122 7 97 179 28 43 70 134 201 
123 7 17 209 213 54 127 138 58 
124 6 173 90 78 207 55 149 
125 6 36 5 93 155 116 6 
126 7 148 162 34 175 165 37 35 
127 7 54 198 27 138 25 184 17 
128 5 160 182 177 65 42 
129 4 166 77 103 16 
130 7 152 4 39 40 11 19 199 
131 3 99 33 169 
132 7 42 81 177 65 83 182 50 
133 7 168 2 154 20 196 205 9 
134 7 214 10 28 97 122 201 150 
135 7 21 107 75 79 52 22 189 
136 5 83 177 42 182 132 
137 7 169 32 57 99 33 81 50 
138 7 197 25 127 27 54 61 17 
139 7 186 50 168 30 133 106 16 
140 7 49 51 11 105 199 180 7 
141 7 195 192 184 3 26 143 190 
142 7 213 84 71 123 61 22 75 
143 7 3 192 190 26 118 204 141 
144 7 66 202 15 145 76 72 62 
145 7 62 144 76 66 72 202 15 
146 5 73 170 76 15 62 
147 6 158 102 178 25 27 184 
148 7 126 165 35 162 34 175 200 
149 7 48 40 78 152 55 39 130 
150 3 201 28 176 
151 7 68 103 144 38 202 66 87 
152 7 130 4 19 199 40 11 105 
153 7 211 64 43 70 179 122 121 
154 7 20 2 133 9 46 44 205 
155 6 93 46 125 205 196 36 
156 5 121 82 104 111 43 
157 7 18 95 52 159 31 51 85 
158 7 102 147 25 184 27 178 195 
159 7 95 51 140 119 49 114 157 
160 6 128 65 182 81 177 42 
161 6 206 112 167 45 108 174 
162 7 34 126 175 37 148 101 209 
163 5 194 191 86 8 67 
164 2 172 12 
165 7 35 148 56 200 126 183 193 
166 4 129 77 16 30 
167 7 45 112 161 174 206 41 108 
168 7 133 2 20 154 139 12 44 
169 7 137 99 32 57 33 81 65 
170 7 15 100 146 202 66 68 73 
171 5 146 87 100 170 38 
172 4 164 196 205 12 
173 4 124 90 78 48 
174 7 45 167 79 41 107 112 180 
175 6 111 34 162 126 148 209 
176 3 201 150 28 
177 7 182 42 136 132 65 83 81 
178 6 147 25 158 102 61 197 
179 6 70 122 43 97 153 104 
180 7 41 11 51 4 140 130 199 
181 7 212 55 7 29 13 60 208 
182 7 177 42 65 81 132 136 83 
183 6 193 56 35 165 200 148 
184 7 195 27 141 198 127 102 54 
185 7 14 85 31 53 187 18 157 
186 7 50 139 32 30 132 168 57 
187 3 74 14 185 
188 7 106 12 16 30 168 133 196 
189 7 84 75 135 22 21 31 107 
190 7 204 26 3 143 118 192 210 
191 7 8 163 194 116 86 5 63 
192 7 3 143 26 190 141 204 118 
193 6 183 56 200 165 35 148 
194 5 163 67 86 191 8 
195 7 184 141 198 27 192 3 127 
196 7 205 133 12 154 20 2 46 
197 7 138 25 61 127 27 54 71 
198 7 54 127 27 184 195 88 58 
199 7 4 19 105 11 152 7 130 
200 7 56 165 193 35 148 183 126 
201 4 150 28 176 97 
202 7 66 144 15 170 76 68 145 
203 3 69 13 60 
204 7 190 26 210 3 117 143 118 
205 7 196 154 133 46 12 20 2 
206 6 161 112 167 45 108 174 
207 5 208 90 55 212 124 
208 5 207 212 55 181 90 
209 7 17 58 88 123 54 94 101 
210 7 117 204 26 190 3 143 192 
211 7 64 153 43 70 122 179 134 
212 7 181 55 208 207 7 29 13 
213 7 123 142 17 197 138 209 61 
214 7 134 10 28 97 122 201 150 
215 7 98 44 9 83 2 20 154 
DEPOT_SECTION
   1
   -1
EOF
