NAME :  X-n266-kX-w106-c7.cctp
COMMENT : 	Adapted by Maziero, Usberti and Cavellucci from the Uchoa, Pecin, Pessoa, Poggi, Subramanian, and Vidal (2013)
TYPE :  CCTP
DIMENSION :    245
EDGE_WEIGHT_TYPE : 	EUC_2D	
CAPACITY : 	35
VERTICES_WITHIN_COVERAGE :  7
VERTICES_WITH_DEMAND : 	106
NODE_COORD_SECTION
1 143 12
2 206 907
3 895 855
4 640 970
5 865 716
6 993 356
7 618 966
8 963 539
9 50 979
10 241 998
11 32 206
12 288 926
13 299 507
14 336 180
15 589 726
16 665 488
17 36 521
18 112 895
19 814 442
20 843 474
21 17 258
22 360 273
23 814 537
24 775 524
25 825 471
26 321 87
27 773 958
28 119 166
29 368 928
30 193 250
31 452 919
32 736 322
33 386 911
34 624 313
35 694 398
36 186 803
37 948 721
38 216 973
39 915 641
40 238 810
41 946 172
42 23 561
43 613 657
44 359 434
45 604 96
46 56 554
47 862 723
48 222 161
49 974 838
50 775 67
51 815 880
52 204 362
53 435 760
54 593 358
55 203 435
56 882 803
57 194 739
58 380 323
59 836 461
60 537 136
61 789 669
62 956 1000
63 98 295
64 656 410
65 580 959
66 594 64
67 459 43
68 425 559
69 262 31
70 522 339
71 960 74
72 237 910
73 353 828
74 420 281
75 721 524
76 185 679
77 703 303
78 923 491
79 444 792
80 567 476
81 987 930
82 113 210
83 907 45
84 383 799
85 209 192
86 34 820
87 464 717
88 837 536
89 202 94
90 177 341
91 551 3
92 835 467
93 128 655
94 988 937
95 179 369
96 487 765
97 975 406
98 365 411
99 440 41
100 607 487
101 57 898
102 161 707
103 0 517
104 210 88
105 524 195
106 682 409
107 608 55
108 16 909
109 846 379
110 183 242
111 586 182
112 948 682
113 324 44
114 380 573
115 339 188
116 629 32
117 589 805
118 934 907
119 848 633
120 890 973
121 98 787
122 964 391
123 171 837
124 261 409
125 637 133
126 541 313
127 946 388
128 818 503
129 188 602
130 887 643
131 981 839
132 585 570
133 383 325
134 288 219
135 407 596
136 707 525
137 56 193
138 523 502
139 120 163
140 304 158
141 441 587
142 104 295
143 66 150
144 424 609
145 184 395
146 464 153
147 39 224
148 277 43
149 380 496
150 620 623
151 367 300
152 347 401
153 435 235
154 242 543
155 625 361
156 651 354
157 673 531
158 458 375
159 379 329
160 348 126
161 166 46
162 75 271
163 859 379
164 531 461
165 747 578
166 257 92
167 78 288
168 257 383
169 343 279
170 668 383
171 458 522
172 686 499
173 298 392
174 347 264
175 407 379
176 321 280
177 691 402
178 59 174
179 111 266
180 592 424
181 667 384
182 108 339
183 312 489
184 382 227
185 84 311
186 378 58
187 198 132
188 76 112
189 591 502
190 689 522
191 526 495
192 138 63
193 327 293
194 292 538
195 171 142
196 696 506
197 234 718
198 430 247
199 727 571
200 614 295
201 566 543
202 803 537
203 511 469
204 765 571
205 270 251
206 368 533
207 327 164
208 696 575
209 218 562
210 127 121
211 769 443
212 821 500
213 310 87
214 770 527
215 431 539
216 232 256
217 410 281
218 449 507
219 147 223
220 352 172
221 410 339
222 151 36
223 208 116
224 440 59
225 256 195
226 356 343
227 421 333
228 294 460
229 752 289
230 728 554
231 660 422
232 482 173
233 857 655
234 415 551
235 228 318
236 607 505
237 634 426
238 331 128
239 459 681
240 364 278
241 134 149
242 79 208
243 193 203
244 539 493
245 381 435
DEMAND_SECTION
2 5
3 5
4 5
5 5
6 6
7 10
8 10
9 10
10 9
11 9
12 5
13 9
14 5
15 6
16 7
17 6
18 10
19 6
20 5
21 10
22 6
23 10
24 7
25 6
26 9
27 5
28 5
29 8
30 7
31 9
32 6
33 10
34 8
35 9
36 7
37 9
38 5
39 9
40 8
41 10
42 8
43 10
44 10
45 8
46 6
47 7
48 9
49 8
50 8
51 9
52 10
53 5
54 10
55 5
56 6
57 5
58 7
59 10
60 8
61 9
62 9
63 7
64 10
65 10
66 9
67 7
68 9
69 10
70 7
71 6
72 7
73 9
74 10
75 9
76 7
77 10
78 9
79 9
80 6
81 7
82 8
83 6
84 10
85 6
86 5
87 5
88 8
89 8
90 8
91 5
92 9
93 8
94 10
95 5
96 10
97 9
98 5
99 6
100 6
101 7
102 10
103 10
104 6
105 10
106 10
107 5
COVERAGE_SECTION
2 7 72 38 123 12 18 10 40 
3 7 56 118 49 51 131 120 81 
4 7 7 65 27 117 31 51 15 
5 7 47 233 130 37 119 56 61 
6 7 122 97 127 163 109 78 8 
7 7 4 65 27 117 31 51 33 
8 7 78 39 88 130 97 20 112 
9 7 108 101 18 86 38 2 123 
10 7 38 12 72 2 29 18 33 
11 7 147 137 178 242 21 143 162 
12 7 72 29 2 10 38 33 73 
13 6 183 194 228 154 206 149 
14 7 115 207 220 140 238 160 134 
15 6 43 117 150 96 87 239 
16 7 172 196 190 157 136 100 236 
17 7 103 46 42 93 129 209 55 
18 7 101 123 2 108 9 86 121 
19 7 59 25 92 20 211 212 128 
20 7 92 59 25 212 128 19 88 
21 7 147 11 162 167 137 242 185 
22 7 240 174 169 151 193 176 184 
23 7 202 88 128 212 24 214 204 
24 7 214 202 23 128 204 212 75 
25 7 92 59 20 212 19 128 211 
26 7 213 238 113 160 148 166 186 
27 7 51 120 4 7 3 118 62 
28 7 139 241 82 210 143 195 242 
29 7 33 12 31 73 84 72 10 
30 7 110 216 243 219 85 235 205 
31 7 33 29 79 65 73 84 96 
32 7 229 77 35 156 170 177 181 
33 7 29 31 73 12 84 79 72 
34 7 200 155 156 54 77 126 170 
35 7 177 106 170 181 64 231 156 
36 7 123 40 57 121 197 102 2 
37 7 112 5 47 39 130 56 233 
38 7 10 72 2 12 18 123 29 
39 7 130 112 233 119 37 5 47 
40 7 36 123 57 197 72 2 73 
41 7 71 83 6 50 127 122 163 
42 7 46 17 103 93 129 209 76 
43 5 150 15 132 208 201 
44 6 245 98 152 149 228 183 
45 7 66 107 125 116 60 111 91 
46 7 42 17 103 93 129 209 76 
47 7 5 233 56 130 37 61 119 
48 7 85 187 223 225 243 195 89 
49 7 131 118 3 81 56 94 37 
50 7 83 116 125 107 45 66 71 
51 7 3 27 56 120 118 47 49 
52 7 95 90 145 235 168 55 124 
53 6 79 87 96 84 239 73 
54 7 155 34 156 180 200 126 70 
55 7 145 124 95 52 168 228 90 
56 7 3 47 5 49 51 37 131 
57 7 197 102 76 36 40 123 93 
58 7 133 159 151 226 221 227 240 
59 7 92 20 25 19 212 128 211 
60 7 105 232 111 146 45 66 125 
61 7 119 233 5 47 165 130 204 
62 7 94 120 81 118 3 49 131 
63 7 142 167 185 179 162 182 82 
64 7 231 106 237 181 170 177 35 
65 7 7 4 31 117 27 33 29 
66 7 107 45 116 91 125 60 111 
67 7 99 224 186 91 146 60 232 
68 7 234 215 141 135 114 144 171 
69 7 148 166 113 213 104 26 89 
70 5 126 54 158 227 200 
71 7 83 41 50 6 229 127 122 
72 7 2 12 38 10 123 40 36 
73 7 84 33 79 29 53 40 12 
74 7 217 198 153 227 151 240 133 
75 7 136 196 230 190 172 199 157 
76 7 102 57 93 197 129 209 36 
77 7 32 229 156 34 170 181 200 
78 7 8 20 92 59 88 25 97 
79 7 53 96 84 87 73 239 31 
80 7 244 189 164 100 191 236 138 
81 7 94 118 62 131 49 120 3 
82 7 242 219 28 139 179 137 178 
83 7 71 41 50 116 125 229 107 
84 7 73 79 53 96 33 87 29 
85 7 243 48 225 110 30 187 195 
86 7 121 101 108 18 123 36 9 
87 4 239 53 96 79 
88 7 23 202 128 212 20 24 25 
89 7 104 223 187 166 195 161 48 
90 7 95 52 145 235 182 142 168 
91 7 66 107 116 67 45 99 224 
92 7 59 20 25 19 212 128 88 
93 7 76 102 129 57 197 46 209 
94 7 81 118 62 131 49 120 3 
95 7 52 145 90 55 235 182 168 
96 7 79 53 87 239 15 84 117 
97 7 122 127 6 78 163 109 8 
98 6 152 44 245 175 226 173 
99 7 224 67 186 146 113 91 160 
100 7 236 189 80 16 180 237 244 
101 7 108 18 9 86 121 123 2 
102 7 76 57 93 197 36 121 129 
103 7 17 42 46 93 129 182 55 
104 7 89 223 187 166 161 195 48 
105 7 232 60 111 146 153 198 126 
106 7 177 35 64 231 181 170 237 
107 7 66 116 45 91 125 60 111 
108 7 101 9 86 18 121 123 2 
109 7 163 19 59 92 25 20 127 
110 7 30 243 219 216 85 179 82 
111 7 105 60 125 45 232 200 66 
112 7 37 39 130 5 47 233 119 
113 7 26 213 148 186 69 166 238 
114 4 135 234 206 68 
115 7 14 220 207 140 184 134 238 
116 7 107 66 45 91 125 60 50 
117 7 15 96 79 43 87 65 53 
118 7 81 94 3 120 49 131 62 
119 7 233 130 39 61 5 47 88 
120 7 62 118 94 81 3 27 51 
121 7 86 123 36 102 57 18 101 
122 7 127 97 6 163 78 109 59 
123 7 36 40 2 18 121 72 57 
124 7 168 173 228 55 52 145 152 
125 7 45 111 66 107 60 116 105 
126 6 70 54 200 34 155 158 
127 7 122 97 6 163 109 78 59 
128 7 212 25 23 202 20 88 92 
129 7 209 76 93 154 102 194 197 
130 7 39 233 119 112 5 47 37 
131 7 49 118 3 81 94 56 37 
132 6 201 150 189 236 100 244 
133 7 58 159 151 221 226 227 240 
134 7 205 225 115 14 140 207 216 
135 5 144 114 141 68 234 
136 7 75 190 196 172 157 230 199 
137 7 178 11 242 147 143 82 28 
138 6 191 244 203 164 80 201 
139 7 28 241 210 82 195 143 242 
140 7 207 14 238 115 220 160 225 
141 3 144 68 135 
142 7 63 185 167 179 162 182 219 
143 7 178 188 137 28 139 242 11 
144 3 135 141 68 
145 7 95 52 55 90 168 124 235 
146 7 232 105 60 153 224 198 67 
147 7 11 137 21 242 178 162 82 
148 7 69 113 166 213 26 104 89 
149 6 206 245 44 234 215 183 
150 6 43 132 208 201 157 15 
151 7 240 58 22 133 159 169 174 
152 7 98 44 245 173 226 175 159 
153 7 198 74 217 184 232 240 22 
154 6 209 194 13 129 183 228 
155 7 156 54 34 170 181 64 237 
156 7 155 170 181 34 64 54 35 
157 7 190 196 136 172 16 75 208 
158 5 175 227 221 70 133 
159 7 58 133 226 151 221 227 240 
160 7 238 207 220 26 140 213 14 
161 6 222 192 89 104 223 210 
162 7 167 63 179 142 185 21 147 
163 7 109 19 59 127 92 20 25 
164 6 203 244 191 80 138 180 
165 7 204 199 230 208 214 75 24 
166 7 104 148 213 89 223 69 26 
167 7 162 63 185 142 179 182 21 
168 6 124 173 52 235 145 55 
169 7 174 22 193 240 176 151 58 
170 7 181 35 64 106 177 156 231 
171 6 218 215 68 234 141 138 
172 7 196 190 16 136 157 75 230 
173 6 124 168 152 228 98 44 
174 7 22 169 240 176 193 151 184 
175 5 221 227 158 98 159 
176 6 193 169 174 22 240 151 
177 7 35 106 170 181 64 231 156 
178 7 137 143 242 11 147 28 139 
179 7 142 63 162 167 185 82 219 
180 7 237 80 100 54 64 231 155 
181 7 170 64 106 35 177 156 231 
182 7 185 142 63 167 90 179 162 
183 6 13 228 194 149 206 44 
184 7 22 174 198 153 240 115 217 
185 7 63 167 142 182 162 179 21 
186 7 113 224 26 99 160 213 67 
187 7 223 195 48 89 104 85 241 
188 6 143 210 178 139 28 241 
189 7 236 100 80 201 244 191 132 
190 7 196 136 157 172 75 16 230 
191 6 138 244 203 164 80 201 
192 6 222 161 210 89 104 188 
193 6 176 169 174 22 240 151 
194 4 13 154 183 206 
195 7 187 241 223 210 48 139 28 
196 7 172 190 136 75 157 16 230 
197 7 57 76 102 40 36 93 129 
198 7 153 74 217 184 240 22 151 
199 7 230 165 208 204 75 136 190 
200 7 34 54 155 156 126 77 70 
201 7 132 189 236 244 138 191 80 
202 7 23 24 88 214 128 212 204 
203 6 164 191 138 244 80 218 
204 7 165 199 230 214 24 202 23 
205 7 134 216 225 176 193 30 169 
206 4 149 114 234 68 
207 7 14 140 220 115 238 160 134 
208 7 199 230 157 136 165 190 75 
209 5 154 129 194 13 183 
210 7 241 139 28 195 188 192 143 
211 7 19 25 59 92 128 212 20 
212 7 128 25 20 92 23 88 202 
213 7 26 113 238 166 160 148 140 
214 7 24 202 204 23 75 230 128 
215 6 234 68 171 218 141 114 
216 7 205 30 110 235 225 243 134 
217 7 74 198 240 151 22 58 133 
218 5 171 215 234 68 149 
219 7 82 110 243 30 179 28 139 
220 7 14 115 207 160 238 140 184 
221 5 227 133 159 58 175 
222 6 161 192 89 104 210 223 
223 7 187 89 104 195 48 166 85 
224 7 99 67 186 146 160 113 232 
225 7 134 85 48 205 140 243 216 
226 6 159 58 133 151 221 193 
227 5 221 133 58 159 175 
228 7 183 13 124 173 44 194 152 
229 7 32 77 156 35 170 181 177 
230 7 199 75 165 136 208 204 190 
231 7 64 106 237 177 181 170 35 
232 7 146 105 60 153 198 111 184 
233 7 119 130 39 5 47 61 112 
234 7 68 215 114 141 135 206 171 
235 7 52 90 216 95 168 30 205 
236 7 189 100 80 201 16 132 244 
237 7 231 64 180 106 181 170 177 
238 7 160 207 140 26 213 220 14 
239 2 87 144 
240 7 22 169 151 174 193 176 217 
241 7 139 28 210 195 82 187 143 
242 7 137 82 178 147 11 28 143 
243 7 85 110 30 219 48 225 195 
244 6 191 138 80 164 203 189 
245 5 44 98 152 149 175 
DEPOT_SECTION
   1
   -1
EOF
