NAME :  X-n289-kX-w57-c11.cctp
COMMENT : 	Adapted by Maziero, Usberti and Cavellucci from the Uchoa, Pecin, Pessoa, Poggi, Subramanian, and Vidal (2013)
TYPE :  CCTP
DIMENSION :    238
EDGE_WEIGHT_TYPE : 	EUC_2D	
CAPACITY : 	267
VERTICES_WITHIN_COVERAGE :  11
VERTICES_WITH_DEMAND : 	57
NODE_COORD_SECTION
1 0 0
2 174 325
3 49 34
4 543 815
5 42 920
6 545 80
7 681 950
8 870 118
9 787 220
10 537 927
11 180 838
12 543 582
13 442 620
14 747 569
15 932 48
16 14 356
17 53 476
18 603 228
19 772 573
20 811 359
21 373 37
22 859 142
23 489 543
24 37 771
25 354 944
26 96 62
27 326 729
28 881 541
29 653 724
30 226 759
31 481 44
32 100 882
33 129 299
34 989 512
35 600 42
36 538 772
37 346 479
38 448 624
39 286 417
40 612 457
41 70 468
42 502 909
43 595 503
44 819 948
45 771 355
46 372 196
47 535 775
48 232 518
49 119 626
50 110 835
51 567 348
52 6 211
53 493 652
54 96 183
55 105 479
56 873 333
57 468 199
58 536 120
59 17 65
60 638 958
61 328 921
62 968 540
63 125 145
64 692 422
65 557 864
66 703 395
67 498 832
68 343 962
69 583 474
70 976 636
71 101 555
72 77 544
73 981 353
74 622 728
75 792 443
76 283 63
77 972 417
78 694 214
79 38 91
80 294 791
81 429 815
82 691 154
83 579 279
84 431 909
85 615 264
86 448 185
87 49 414
88 883 478
89 627 564
90 40 434
91 718 660
92 716 586
93 607 343
94 675 244
95 282 617
96 199 880
97 588 662
98 58 700
99 221 510
100 518 554
101 944 282
102 254 558
103 428 165
104 848 305
105 860 100
106 602 620
107 437 55
108 922 348
109 433 776
110 891 306
111 211 731
112 408 859
113 492 322
114 581 746
115 868 337
116 365 161
117 568 646
118 456 81
119 477 162
120 429 844
121 396 41
122 130 972
123 563 135
124 317 258
125 414 696
126 547 90
127 602 325
128 321 27
129 263 184
130 474 629
131 526 440
132 814 534
133 287 975
134 11 791
135 217 331
136 745 430
137 34 925
138 84 298
139 12 489
140 140 132
141 201 545
142 609 322
143 880 525
144 649 744
145 643 684
146 319 178
147 731 709
148 225 726
149 596 265
150 634 256
151 166 640
152 520 270
153 42 480
154 150 168
155 82 292
156 122 330
157 127 502
158 13 620
159 634 888
160 68 320
161 224 537
162 174 366
163 24 40
164 145 248
165 419 444
166 123 355
167 875 393
168 117 315
169 34 517
170 73 159
171 80 288
172 152 615
173 192 202
174 660 798
175 184 487
176 706 738
177 192 700
178 277 151
179 9 455
180 102 332
181 193 612
182 50 417
183 61 343
184 80 515
185 79 416
186 257 315
187 130 120
188 91 213
189 698 259
190 316 692
191 159 590
192 768 627
193 583 308
194 552 300
195 890 942
196 28 627
197 141 84
198 151 452
199 651 231
200 593 205
201 126 511
202 53 418
203 126 279
204 65 479
205 217 664
206 916 983
207 465 504
208 11 435
209 328 87
210 341 495
211 167 100
212 75 221
213 12 139
214 854 920
215 95 312
216 65 272
217 0 426
218 36 551
219 200 578
220 572 402
221 695 326
222 120 604
223 736 914
224 252 343
225 653 922
226 171 218
227 188 452
228 170 515
229 594 876
230 169 35
231 149 580
232 69 12
233 878 954
234 141 498
235 149 103
236 467 248
237 256 559
238 115 233
DEMAND_SECTION
2 73
3 71
4 59
5 29
6 19
7 79
8 27
9 13
10 77
11 21
12 99
13 24
14 71
15 38
16 59
17 56
18 41
19 87
20 28
21 81
22 18
23 49
24 28
25 35
26 86
27 40
28 89
29 75
30 25
31 56
32 43
33 57
34 88
35 37
36 88
37 76
38 37
39 67
40 3
41 64
42 53
43 72
44 55
45 22
46 56
47 51
48 30
49 15
50 1
51 46
52 78
53 18
54 62
55 100
56 43
57 87
58 4
COVERAGE_SECTION
2 11 162 135 33 156 168 166 203 180 215 224 164 
3 11 163 232 59 26 79 197 213 187 230 235 170 
4 11 47 36 67 65 114 229 42 10 81 109 159 
5 11 137 32 122 50 134 24 11 96 98 30 133 
6 11 126 58 123 35 31 118 119 107 200 57 86 
7 7 225 60 223 159 229 44 10 
8 11 105 22 15 9 101 82 104 110 78 56 115 
9 10 78 189 104 22 94 82 8 110 45 199 
10 11 42 65 229 67 159 60 84 4 225 120 7 
11 11 96 50 30 32 111 148 80 177 122 24 5 
12 11 100 23 117 106 130 53 89 97 43 38 13 
13 11 38 130 53 125 23 100 12 207 117 190 97 
14 10 19 92 192 132 91 89 75 28 136 143 
15 11 105 8 22 9 101 110 82 104 78 56 115 
16 10 183 160 87 182 217 202 208 90 185 138 
17 11 153 204 41 139 90 169 184 179 55 202 182 
18 7 200 85 149 150 199 83 94 
19 10 14 192 92 132 91 28 143 75 147 89 
20 11 45 115 104 56 167 75 110 136 108 66 221 
21 11 121 128 107 209 76 118 31 116 103 178 146 
22 11 8 105 9 15 104 101 110 82 78 56 115 
23 11 100 207 12 130 13 38 53 131 43 69 165 
24 11 134 98 50 32 196 5 158 137 11 49 177 
25 11 68 61 133 84 112 120 81 42 80 96 67 
26 11 197 3 232 79 187 235 163 230 59 211 140 
27 11 190 80 125 148 30 111 109 95 205 81 177 
28 10 143 88 132 62 34 19 75 70 14 192 
29 9 144 74 145 176 174 114 147 97 91 
30 11 111 148 177 80 11 205 27 190 96 151 50 
31 11 107 118 6 126 121 58 21 119 35 123 103 
32 11 50 5 137 11 122 96 134 24 30 98 111 
33 11 168 203 156 215 180 138 155 171 2 164 166 
34 10 62 77 143 88 28 70 73 167 132 108 
35 11 6 126 123 58 31 82 118 200 107 119 18 
36 11 47 4 114 67 65 74 109 144 81 229 97 
37 11 210 165 39 48 237 102 207 99 161 95 23 
38 11 13 130 53 125 23 100 12 207 117 97 190 
39 11 224 37 210 227 186 135 99 48 162 175 161 
40 8 69 43 220 64 131 89 66 93 
41 11 204 17 153 55 90 184 185 202 182 87 169 
42 11 10 65 84 67 120 229 4 112 81 159 47 
43 11 69 40 89 100 131 12 220 23 106 64 207 
44 5 214 233 195 223 206 
45 9 20 66 136 221 75 104 115 56 64 
46 11 116 146 103 86 124 57 178 236 119 129 209 
47 11 36 4 114 67 65 74 109 81 229 144 97 
48 11 99 161 141 102 237 175 228 219 227 234 181 
49 11 222 172 151 191 231 71 181 196 72 219 98 
50 11 32 11 24 96 134 5 137 122 30 98 111 
51 7 93 127 193 142 194 220 83 
52 11 212 213 170 188 216 54 171 155 238 138 79 
53 11 130 38 13 117 12 125 97 100 23 106 36 
54 11 188 170 212 63 238 154 140 187 164 226 52 
55 11 157 41 201 204 234 184 17 198 153 185 72 
56 11 115 110 104 108 167 20 101 45 73 77 75 
57 11 86 119 236 103 152 46 58 116 123 118 113 
58 11 123 126 6 119 118 31 35 200 57 86 103 
59 11 163 79 3 213 232 26 170 197 187 63 235 
60 8 225 7 159 229 10 223 65 42 
61 11 25 68 133 112 84 120 80 96 81 11 42 
62 9 34 28 143 70 88 77 132 167 73 
63 9 140 187 154 54 235 170 211 197 188 
64 7 66 136 40 221 75 45 93 
65 11 229 4 10 67 42 159 47 36 225 114 174 
66 5 64 136 221 45 75 
67 11 4 65 47 120 81 36 42 109 112 84 10 
68 11 25 61 133 84 112 120 96 42 81 80 10 
69 11 43 40 131 220 89 100 12 23 64 207 51 
70 5 62 34 28 143 88 
71 11 72 184 201 222 231 157 218 191 234 49 55 
72 11 71 184 218 169 201 157 204 55 17 153 222 
73 11 108 77 101 110 56 167 115 104 34 88 20 
74 11 29 144 114 145 97 174 176 36 117 47 106 
75 11 136 20 45 132 88 167 66 64 143 115 19 
76 9 209 128 178 21 121 230 146 211 129 
77 11 73 108 34 167 88 62 56 115 110 101 143 
78 10 94 189 199 82 150 18 9 85 200 149 
79 11 59 163 213 3 26 170 232 187 63 197 54 
80 11 27 30 148 190 111 11 96 112 61 81 177 
81 11 120 109 112 67 84 47 4 36 42 125 27 
82 10 78 199 94 189 200 18 9 150 123 85 
83 8 149 193 194 85 127 142 18 150 
84 11 112 120 42 25 81 67 68 61 10 109 65 
85 7 149 150 18 83 199 193 142 
86 11 57 103 119 236 46 116 118 58 152 123 146 
87 9 182 202 90 185 208 217 179 41 17 
88 11 143 28 167 132 75 62 77 34 108 20 115 
89 11 106 43 12 92 69 117 97 40 100 14 145 
90 11 182 202 87 208 179 217 185 17 41 153 204 
91 9 147 192 92 145 176 29 14 19 144 
92 10 14 19 192 91 89 132 106 145 147 43 
93 4 127 142 51 193 
94 8 189 199 78 150 85 18 149 221 
95 11 237 102 205 190 181 219 161 141 48 151 27 
96 11 11 32 50 122 30 133 80 61 111 148 5 
97 11 117 106 145 74 114 29 12 53 144 89 130 
98 11 24 196 158 49 134 222 151 172 177 50 191 
99 11 48 161 141 175 228 102 237 227 219 234 198 
100 11 23 12 207 130 43 38 13 53 69 117 106 
101 11 110 108 73 56 115 104 167 77 20 22 9 
102 11 237 161 48 141 99 219 95 181 228 175 191 
103 11 86 119 57 116 46 118 236 107 146 58 209 
104 11 56 115 110 20 108 45 167 101 9 73 75 
105 11 8 22 15 9 82 101 78 104 110 189 56 
106 11 117 97 89 12 145 100 74 53 29 43 92 
107 11 118 121 31 21 103 6 119 209 126 58 128 
108 11 56 110 115 73 167 101 77 104 20 88 45 
109 11 81 120 125 67 112 47 36 4 27 84 53 
110 11 56 115 104 108 101 167 20 73 45 9 77 
111 11 148 30 177 205 80 151 11 190 27 181 172 
112 11 120 81 84 109 67 25 61 42 68 80 4 
113 9 152 194 236 51 193 83 127 220 93 
114 11 74 36 47 144 29 4 97 145 174 117 65 
115 11 56 104 110 108 167 20 101 45 73 75 77 
116 11 46 146 103 209 86 178 129 124 57 119 118 
117 11 97 106 12 53 145 130 74 89 114 100 29 
118 11 107 31 121 119 6 58 103 126 21 86 57 
119 11 86 57 103 58 118 236 123 126 6 46 116 
120 11 112 81 84 109 67 42 4 25 47 61 65 
121 11 21 107 118 128 209 31 76 116 103 119 86 
122 11 32 5 137 96 50 11 133 61 68 134 24 
123 11 58 126 6 200 119 35 18 57 118 31 86 
124 10 146 46 186 129 224 116 178 135 173 103 
125 11 38 13 109 53 130 27 190 81 36 47 120 
126 11 6 58 123 35 31 118 119 107 200 57 86 
127 5 142 93 193 51 83 
128 10 76 21 209 121 107 178 116 118 146 230 
129 8 178 146 173 124 226 116 46 154 
130 11 38 53 13 12 23 100 125 117 97 207 106 
131 11 220 69 40 207 43 51 165 23 100 113 93 
132 11 19 28 143 14 88 75 192 92 136 62 167 
133 11 68 61 25 96 122 84 112 11 80 120 32 
134 11 24 98 50 32 5 137 196 158 11 49 177 
135 11 224 2 186 162 33 156 166 168 203 39 164 
136 7 75 64 66 45 20 221 132 
137 11 5 32 122 50 134 24 11 96 98 30 133 
138 11 155 171 215 160 216 168 180 33 203 156 183 
139 11 153 179 169 17 204 208 41 90 217 218 184 
140 8 187 63 235 154 211 197 54 170 
141 11 161 219 99 48 228 102 237 175 191 231 181 
142 5 127 93 193 51 83 
143 11 28 88 132 62 34 19 75 167 14 77 70 
144 8 29 74 174 176 145 114 147 97 
145 11 29 74 97 144 106 91 176 117 114 147 174 
146 9 116 178 46 129 124 209 103 76 86 
147 4 176 91 29 144 
148 11 111 30 177 205 80 190 27 151 181 11 95 
149 8 85 83 18 150 193 194 142 127 
150 6 85 199 149 18 94 83 
151 11 172 181 49 191 205 222 231 177 219 141 111 
152 8 194 236 113 83 193 149 57 51 
153 11 17 204 41 139 169 179 90 184 208 55 202 
154 8 63 140 187 173 226 54 235 211 
155 11 171 138 215 216 160 168 180 203 33 156 183 
156 11 168 180 166 33 215 138 203 2 155 160 171 
157 11 201 234 55 228 184 198 71 175 72 41 204 
158 11 196 218 98 72 169 49 222 71 184 139 172 
159 8 225 229 60 7 65 174 10 223 
160 10 183 138 215 155 171 180 216 168 156 16 
161 11 48 141 99 102 237 219 228 175 181 191 231 
162 10 2 166 135 156 168 180 33 224 227 198 
163 11 3 59 79 232 26 213 197 170 187 235 230 
164 11 238 203 226 33 188 173 168 212 171 155 138 
165 11 207 37 210 131 23 39 113 100 220 69 51 
166 9 156 180 168 215 162 33 2 183 160 
167 11 115 56 108 20 88 110 104 75 77 45 73 
168 11 156 33 215 180 138 203 166 155 171 160 2 
169 11 218 139 153 17 184 204 72 41 179 71 55 
170 11 54 63 188 212 213 187 140 79 154 52 238 
171 11 155 138 216 215 160 168 203 180 33 183 156 
172 11 191 151 222 49 231 181 219 71 205 141 177 
173 8 226 154 164 129 238 140 63 54 
174 6 144 29 176 74 159 114 
175 11 228 227 99 234 198 48 157 141 201 161 55 
176 5 147 29 144 174 91 
177 11 111 148 205 151 30 181 172 49 191 222 95 
178 8 129 146 209 76 116 173 46 124 
179 11 208 217 139 90 153 17 182 87 202 204 41 
180 10 156 215 168 166 160 138 183 33 155 171 
181 11 219 151 191 172 231 205 141 222 49 102 161 
182 10 87 202 90 185 208 217 41 179 17 153 
183 10 160 180 215 16 138 155 171 156 166 168 
184 11 72 204 55 71 169 201 17 41 157 153 218 
185 9 202 182 87 90 41 17 204 55 208 
186 11 224 135 124 2 162 39 33 173 226 129 164 
187 9 140 63 235 197 211 154 26 170 54 
188 11 212 54 238 170 164 216 154 203 63 171 155 
189 7 94 78 199 150 221 85 9 
190 11 27 95 148 125 80 205 30 111 177 109 13 
191 11 231 172 181 222 219 151 49 141 71 228 161 
192 7 19 91 14 92 147 132 176 
193 7 127 83 142 194 93 51 149 
194 8 193 83 152 51 127 149 142 113 
195 4 233 214 206 44 
196 11 158 218 98 49 222 72 71 169 184 172 231 
197 9 235 211 187 140 26 230 63 154 170 
198 10 227 234 175 55 157 201 228 185 41 162 
199 8 94 150 78 18 85 189 200 149 
200 9 18 149 85 199 150 83 123 94 152 
201 11 157 234 55 228 184 71 72 175 198 204 41 
202 9 182 87 90 185 208 41 217 179 17 
203 11 33 164 168 215 138 155 171 238 156 180 216 
204 11 17 41 153 184 55 169 90 139 179 202 182 
205 11 177 151 181 148 111 95 172 219 191 30 190 
206 4 233 195 214 44 
207 11 23 100 165 131 12 13 38 37 69 210 130 
208 11 217 179 90 87 182 202 139 153 17 41 204 
209 10 76 128 21 121 178 116 146 107 129 46 
210 11 37 165 39 237 102 48 99 161 207 95 141 
211 8 235 197 140 187 63 230 154 26 
212 11 188 238 54 216 170 171 52 155 164 203 138 
213 11 79 170 52 59 54 163 212 188 3 63 26 
214 4 195 233 44 206 
215 11 138 180 168 155 160 171 156 33 203 183 216 
216 11 171 155 138 160 215 212 203 238 188 168 33 
217 11 208 179 90 87 182 202 139 153 16 17 185 
218 11 169 72 184 71 139 153 158 196 17 204 41 
219 11 141 181 191 161 231 102 237 172 48 228 99 
220 8 51 131 40 93 69 127 142 193 
221 4 189 66 45 94 
222 11 49 172 231 191 71 151 181 72 219 201 196 
223 5 7 225 44 159 60 
224 11 186 135 2 39 162 124 227 166 33 156 168 
225 8 60 159 7 229 223 65 10 174 
226 9 173 164 154 238 203 188 54 63 33 
227 11 175 198 228 234 99 48 157 201 55 162 161 
228 11 175 234 141 201 157 99 161 48 198 227 231 
229 10 65 159 225 10 4 60 42 174 67 7 
230 9 197 211 235 26 187 140 232 76 63 
231 11 191 172 222 219 71 181 49 151 141 228 201 
232 11 3 163 26 59 79 197 230 235 187 211 140 
233 4 195 214 206 44 
234 11 157 201 228 55 175 198 184 227 71 141 41 
235 8 211 197 187 140 63 154 26 230 
236 11 57 152 86 113 119 103 194 46 83 149 193 
237 11 102 161 48 141 219 99 95 181 228 175 191 
238 11 188 164 212 203 54 226 216 171 33 155 138 
DEPOT_SECTION
   1
   -1
EOF
