NAME :  X-n233-kX-w23-c11.cctp
COMMENT : 	Adapted by Maziero, Usberti and Cavellucci from the Uchoa, Pecin, Pessoa, Poggi, Subramanian, and Vidal (2013)
TYPE :  CCTP
DIMENSION :    153
EDGE_WEIGHT_TYPE : 	EUC_2D	
CAPACITY : 	631
VERTICES_WITHIN_COVERAGE :  11
VERTICES_WITH_DEMAND : 	23
NODE_COORD_SECTION
1 500 500
2 816 981
3 349 338
4 22 205
5 385 344
6 913 54
7 524 123
8 239 335
9 150 84
10 84 860
11 645 647
12 507 516
13 153 940
14 429 602
15 596 759
16 776 399
17 942 767
18 871 2
19 714 950
20 72 400
21 765 315
22 666 798
23 287 851
24 3 201
25 896 240
26 253 251
27 37 22
28 973 599
29 726 13
30 82 262
31 834 714
32 37 861
33 290 110
34 423 350
35 406 414
36 804 581
37 846 956
38 849 683
39 79 883
40 433 93
41 686 486
42 229 248
43 382 597
44 544 618
45 732 387
46 563 807
47 780 940
48 665 561
49 591 536
50 35 216
51 577 969
52 811 927
53 592 744
54 280 384
55 866 228
56 153 27
57 401 481
58 72 488
59 381 300
60 139 848
61 386 572
62 36 764
63 660 422
64 719 264
65 761 560
66 231 203
67 769 312
68 905 645
69 304 372
70 970 966
71 51 257
72 189 934
73 516 6
74 756 36
75 47 139
76 428 61
77 100 853
78 923 919
79 751 480
80 555 726
81 463 190
82 130 131
83 105 943
84 83 892
85 869 706
86 668 913
87 954 694
88 321 587
89 282 907
90 339 810
91 339 296
92 367 511
93 72 181
94 323 183
95 684 125
96 415 387
97 882 359
98 485 115
99 368 424
100 991 97
101 198 817
102 634 849
103 37 450
104 899 115
105 983 90
106 696 466
107 629 807
108 11 521
109 50 515
110 677 876
111 171 930
112 919 111
113 129 852
114 504 181
115 469 662
116 656 281
117 563 555
118 213 837
119 645 830
120 384 375
121 65 890
122 561 523
123 390 934
124 481 236
125 725 818
126 998 76
127 866 252
128 439 687
129 470 303
130 636 804
131 912 114
132 637 870
133 652 948
134 117 832
135 648 144
136 371 627
137 634 872
138 235 979
139 271 865
140 553 750
141 723 813
142 570 761
143 159 883
144 294 874
145 265 793
146 999 125
147 999 75
148 662 727
149 724 174
150 814 812
151 568 454
152 220 931
153 162 792
DEMAND_SECTION
2 53
3 64
4 54
5 63
6 45
7 6
8 100
9 63
10 5
11 74
12 87
13 11
14 33
15 63
16 36
17 93
18 28
19 89
20 64
21 8
22 69
23 40
24 65
COVERAGE_SECTION
2 11 37 52 47 19 78 70 86 133 150 110 125 
3 11 5 91 59 120 69 34 96 54 99 35 8 
4 11 50 24 93 71 75 30 82 9 27 20 66 
5 11 120 3 34 59 96 91 35 99 69 129 54 
6 9 112 131 104 18 105 126 100 147 146 
7 8 98 114 81 40 76 73 124 135 
8 11 54 69 26 42 91 3 66 5 59 120 99 
9 11 82 56 75 93 27 33 66 50 4 42 24 
10 11 77 39 84 121 134 113 32 60 143 83 153 
11 11 148 48 44 53 80 15 49 117 142 140 65 
12 11 122 117 49 151 44 57 14 61 92 35 43 
13 11 111 72 83 143 152 84 113 138 39 60 121 
14 6 43 61 136 115 128 88 
15 10 53 142 140 80 46 107 130 148 22 119 
16 11 45 21 79 67 106 97 63 41 64 65 116 
17 11 87 85 31 38 68 150 78 28 70 52 37 
18 11 6 104 112 131 74 105 29 126 147 100 146 
19 11 86 133 47 110 52 2 132 137 102 37 125 
20 7 103 58 109 108 30 71 8 
21 10 67 64 45 16 116 127 97 55 149 63 
22 11 130 107 119 141 102 125 148 132 110 15 137 
23 8 139 144 89 145 90 118 101 152 
24 11 4 50 93 71 75 30 82 27 9 20 66 
25 8 55 127 97 104 131 112 67 21 
26 11 42 66 8 91 94 3 69 54 59 33 5 
27 11 56 75 9 82 93 24 4 50 71 30 66 
28 11 68 87 85 38 36 17 31 65 79 97 150 
29 11 74 95 18 135 149 6 104 73 131 112 7 
30 11 71 50 93 4 24 75 20 82 42 66 26 
31 11 38 85 68 150 17 87 36 141 125 65 148 
32 11 121 10 39 84 77 134 113 62 60 83 143 
33 10 94 66 9 40 26 76 42 56 82 81 
34 10 5 96 120 59 35 129 3 99 91 69 
35 11 96 99 120 34 57 5 3 92 69 59 129 
36 11 65 38 79 68 31 48 85 41 106 28 11 
37 11 2 52 47 78 70 19 150 86 125 110 141 
38 11 85 31 68 87 36 17 150 28 65 141 125 
39 11 84 121 10 77 32 113 134 83 60 143 13 
40 9 76 98 7 81 114 73 94 33 124 
41 11 106 79 63 48 65 49 45 151 16 122 117 
42 11 26 66 8 94 91 54 69 30 3 33 82 
43 6 61 136 14 88 92 128 
44 8 117 115 49 122 11 12 80 14 
45 10 16 21 63 67 106 79 41 64 116 97 
46 7 142 15 140 107 53 130 80 
47 11 52 2 19 37 86 110 133 150 125 141 78 
48 11 41 49 11 65 106 117 122 79 44 63 36 
49 11 122 117 48 151 12 44 41 11 106 63 79 
50 11 4 24 71 93 30 75 82 9 20 27 66 
51 7 133 86 137 132 102 110 19 
52 11 47 37 2 19 78 150 125 110 86 141 133 
53 10 15 142 140 80 46 148 107 130 22 119 
54 11 69 8 3 99 120 91 5 35 59 96 26 
55 8 127 25 104 131 67 112 97 21 
56 10 9 82 27 75 33 93 66 4 50 24 
57 11 92 99 35 61 96 120 12 43 14 34 88 
58 4 109 103 108 20 
59 10 91 5 3 34 120 129 96 69 35 124 
60 11 113 134 77 143 10 153 101 39 84 118 121 
61 6 43 14 136 92 88 57 
62 4 32 134 10 77 
63 9 106 41 45 151 79 16 49 48 116 
64 5 116 21 67 149 45 
65 11 36 79 48 41 106 11 38 16 68 31 63 
66 10 42 26 94 33 82 8 91 9 30 93 
67 10 21 64 45 16 127 116 97 55 149 25 
68 11 38 87 85 28 31 36 17 65 150 79 141 
69 11 54 3 8 120 99 91 5 59 35 96 34 
70 11 78 37 2 52 47 17 150 19 87 85 31 
71 11 30 50 4 24 93 75 20 82 42 66 103 
72 11 111 152 13 143 138 83 89 60 118 113 139 
73 9 76 98 7 40 114 81 135 95 29 
74 10 29 95 18 149 135 6 104 131 112 55 
75 11 93 4 24 50 82 9 27 71 30 56 66 
76 9 40 98 73 7 81 114 33 94 124 
77 11 10 134 113 39 60 84 121 32 143 153 83 
78 11 70 37 52 2 47 17 150 19 85 125 31 
79 11 106 41 65 16 45 63 36 48 21 67 49 
80 5 140 142 53 15 46 
81 6 114 124 98 7 40 129 
82 11 9 93 75 56 66 50 4 30 27 24 71 
83 11 13 84 39 121 111 143 72 10 77 113 60 
84 11 39 121 10 77 32 83 113 134 60 143 13 
85 11 38 31 68 87 17 150 36 28 141 65 125 
86 11 110 133 132 137 19 102 119 51 125 107 130 
87 11 68 17 85 28 38 31 150 36 78 65 125 
88 5 43 136 61 92 14 
89 11 144 139 23 152 138 72 118 123 90 111 145 
90 4 23 145 144 139 
91 11 59 3 5 69 120 26 34 54 8 94 96 
92 10 57 61 43 99 88 35 14 136 96 120 
93 11 75 50 4 24 82 71 30 9 66 27 42 
94 9 33 66 26 42 91 59 81 40 3 
95 7 135 149 74 29 64 116 7 
96 11 35 120 34 5 99 3 59 57 129 69 91 
97 8 127 16 25 67 21 55 45 79 
98 8 7 40 114 81 76 73 124 135 
99 11 35 120 96 57 5 69 92 3 34 54 59 
100 8 105 126 147 146 112 131 6 104 
101 9 118 153 60 145 113 143 134 139 23 
102 11 132 119 137 107 130 110 22 86 46 125 141 
103 4 58 20 109 108 
104 8 131 112 6 105 100 146 126 147 
105 8 100 126 147 146 112 131 6 104 
106 11 41 63 79 45 48 16 65 49 151 122 36 
107 11 130 119 22 102 15 132 137 46 53 142 110 
108 4 109 58 103 20 
109 4 58 108 103 20 
110 11 86 132 137 102 119 125 133 141 22 19 130 
111 11 72 13 143 152 83 138 60 113 84 118 39 
112 8 131 104 6 105 100 146 126 147 
113 11 60 134 77 143 10 39 84 153 121 101 118 
114 6 81 124 7 98 40 129 
115 3 128 14 44 
116 2 64 21 
117 11 122 49 44 12 151 48 11 41 14 115 106 
118 10 101 139 145 153 143 23 60 113 144 152 
119 11 102 107 130 22 132 137 110 141 125 46 15 
120 11 5 96 35 34 3 99 59 69 91 54 57 
121 11 39 84 10 32 77 83 113 134 60 143 13 
122 11 117 49 12 151 44 48 41 63 106 11 14 
123 3 89 144 23 
124 5 81 114 129 59 7 
125 11 141 22 110 119 150 130 102 107 132 137 86 
126 8 147 105 100 146 112 6 131 104 
127 8 55 25 97 67 21 104 131 64 
128 2 115 14 
129 5 34 124 59 5 96 
130 11 107 119 22 102 15 132 137 46 53 142 148 
131 8 112 104 6 105 100 146 126 147 
132 11 137 102 110 119 86 107 130 22 133 46 125 
133 10 86 19 110 51 137 132 102 119 47 107 
134 10 113 60 77 10 153 39 143 84 121 101 
135 6 95 149 7 116 64 114 
136 5 43 61 14 88 128 
137 11 132 102 110 119 86 107 130 133 22 46 125 
138 11 152 72 111 89 13 139 144 143 83 23 118 
139 10 23 144 89 118 145 152 90 101 72 143 
140 6 142 80 53 15 46 107 
141 11 125 22 110 119 130 150 107 102 132 148 137 
142 8 140 15 53 80 46 107 130 148 
143 11 60 113 111 13 72 77 134 118 84 101 10 
144 9 23 139 89 90 145 118 152 101 123 
145 7 23 118 101 139 90 144 153 
146 8 100 105 126 147 112 131 104 6 
147 8 126 105 100 146 112 6 131 104 
148 11 22 53 15 130 11 107 142 119 141 80 125 
149 8 95 135 64 116 74 67 21 55 
150 11 125 141 31 52 85 47 38 17 37 22 110 
151 8 122 49 12 63 117 41 106 48 
152 11 72 111 138 89 13 143 139 144 118 23 60 
153 9 101 134 60 113 118 77 143 10 145 
DEPOT_SECTION
   1
   -1
EOF
