NAME :  X-n200-kX-w39-c11.cctp
COMMENT : 	Adapted by Maziero, Usberti and Cavellucci from the Uchoa, Pecin, Pessoa, Poggi, Subramanian, and Vidal (2013)
TYPE :  CCTP
DIMENSION :    182
EDGE_WEIGHT_TYPE : 	EUC_2D	
CAPACITY : 	402
VERTICES_WITHIN_COVERAGE :  11
VERTICES_WITH_DEMAND : 	39
NODE_COORD_SECTION
1 957 135
2 149 141
3 1 96
4 228 268
5 781 529
6 867 797
7 109 53
8 13 449
9 133 293
10 259 172
11 908 678
12 930 867
13 903 766
14 143 263
15 735 501
16 259 253
17 59 62
18 737 464
19 925 587
20 16 404
21 893 720
22 131 188
23 226 228
24 285 68
25 113 323
26 67 307
27 797 381
28 804 573
29 892 838
30 307 141
31 40 347
32 933 708
33 906 725
34 242 231
35 310 255
36 183 308
37 57 153
38 122 254
39 1 437
40 83 548
41 872 427
42 118 317
43 100 402
44 54 335
45 180 118
46 875 774
47 792 774
48 92 166
49 890 821
50 184 6
51 189 299
52 230 234
53 61 728
54 147 501
55 180 371
56 756 455
57 121 248
58 747 756
59 890 825
60 275 63
61 67 131
62 96 15
63 709 611
64 893 822
65 121 170
66 770 580
67 122 320
68 695 626
69 101 98
70 824 813
71 256 265
72 726 553
73 864 742
74 149 74
75 872 329
76 847 817
77 864 575
78 976 818
79 193 126
80 79 88
81 97 403
82 907 842
83 808 590
84 146 120
85 66 480
86 824 634
87 9 421
88 152 157
89 318 223
90 853 307
91 184 277
92 183 236
93 93 217
94 80 110
95 20 67
96 142 384
97 165 63
98 62 410
99 176 261
100 223 301
101 830 608
102 7 164
103 188 108
104 770 537
105 168 99
106 641 321
107 174 165
108 886 816
109 53 303
110 214 261
111 104 44
112 393 114
113 222 51
114 894 577
115 35 285
116 93 509
117 127 150
118 873 468
119 60 105
120 133 232
121 147 252
122 778 547
123 46 419
124 82 381
125 83 80
126 43 466
127 337 216
128 83 205
129 9 55
130 127 123
131 72 189
132 771 491
133 73 201
134 181 188
135 727 549
136 26 332
137 17 212
138 59 359
139 798 525
140 714 613
141 875 568
142 241 285
143 45 86
144 446 310
145 128 366
146 163 168
147 322 272
148 958 864
149 754 814
150 136 184
151 111 119
152 120 300
153 686 372
154 32 68
155 224 70
156 113 76
157 228 73
158 216 34
159 157 167
160 58 242
161 84 263
162 330 253
163 903 822
164 900 858
165 15 37
166 79 523
167 207 329
168 130 274
169 870 860
170 791 305
171 13 535
172 800 823
173 224 244
174 580 504
175 88 389
176 3 172
177 62 499
178 791 692
179 300 26
180 52 204
181 163 305
182 135 270
DEMAND_SECTION
2 83
3 52
4 73
5 70
6 86
7 51
8 74
9 84
10 52
11 93
12 91
13 89
14 64
15 75
16 64
17 61
18 2
19 86
20 95
21 100
22 73
23 61
24 83
25 60
26 85
27 48
28 66
29 70
30 91
31 54
32 55
33 64
34 56
35 62
36 89
37 100
38 96
39 67
40 21
COVERAGE_SECTION
2 11 88 84 117 159 130 146 107 45 65 151 150 
3 11 95 129 154 143 119 165 17 102 61 176 80 
4 11 110 142 173 71 100 16 52 23 34 91 51 
5 11 104 139 122 132 28 66 15 135 72 83 18 
6 11 46 108 76 49 59 64 163 70 13 29 73 
7 11 111 156 125 62 74 69 80 17 97 94 151 
8 10 39 87 126 20 123 85 98 177 171 81 
9 11 152 168 182 42 67 14 181 25 38 121 57 
10 11 30 34 23 52 89 79 134 173 16 107 127 
11 11 32 21 33 73 13 19 86 46 114 101 77 
12 11 148 164 82 29 163 59 64 169 49 78 108 
13 11 46 33 73 21 6 108 163 49 64 59 32 
14 11 182 121 168 38 57 9 99 120 91 152 181 
15 11 18 132 135 104 56 72 5 122 139 66 28 
16 11 71 34 4 52 173 142 23 110 35 100 89 
17 11 143 154 125 80 95 119 111 129 7 165 94 
18 11 56 15 132 5 104 135 139 72 122 27 153 
19 11 114 141 77 11 101 86 83 32 28 118 21 
20 11 87 123 39 8 98 31 138 126 124 136 175 
21 11 33 73 32 11 13 46 6 108 49 64 163 
22 11 150 65 159 88 117 146 120 48 93 107 2 
23 11 52 34 173 110 4 16 92 71 142 99 134 
24 11 60 179 157 155 113 30 158 103 10 79 45 
25 11 42 67 152 9 145 26 168 181 182 44 109 
26 11 109 44 115 161 31 136 25 42 138 152 67 
27 11 170 56 41 75 90 18 153 132 118 15 139 
28 11 83 66 122 101 139 5 104 77 86 141 72 
29 11 59 64 82 49 163 164 108 169 6 12 76 
30 11 10 24 127 89 60 112 157 155 34 35 162 
31 11 44 136 138 109 26 124 20 115 175 98 123 
32 11 33 11 21 13 73 46 6 78 108 163 19 
33 11 21 32 13 73 11 46 6 108 49 163 64 
34 11 52 23 173 16 71 4 110 142 92 10 35 
35 11 162 147 89 127 16 71 34 142 4 52 173 
36 11 51 181 91 167 100 99 9 110 4 14 182 
37 11 61 48 131 119 94 102 133 180 176 128 151 
38 11 57 182 168 14 120 121 161 9 152 93 99 
39 10 8 87 20 123 126 98 85 177 138 31 
40 9 166 116 177 85 171 54 126 8 123 
41 11 118 27 75 56 132 90 139 5 18 141 170 
42 11 67 25 152 9 168 181 145 182 26 14 38 
43 9 81 175 124 98 96 145 123 138 25 
44 11 31 138 136 26 109 115 124 25 175 42 67 
45 11 103 79 105 84 2 107 88 130 146 74 159 
46 11 6 13 73 108 49 64 76 59 163 21 33 
47 11 58 70 172 149 76 6 73 178 46 108 49 
48 11 65 131 37 117 128 133 61 22 150 93 151 
49 11 64 59 108 163 29 82 6 164 76 169 46 
50 11 158 113 97 155 74 157 62 7 111 105 156 
51 11 36 91 181 100 167 99 110 4 142 9 14 
52 11 23 34 173 110 4 16 71 92 142 99 91 
53 10 40 171 166 116 177 54 85 126 8 39 
54 8 116 166 40 85 177 43 81 126 
55 4 96 167 145 36 
56 11 18 132 15 5 139 104 27 122 135 72 153 
57 11 38 120 121 182 14 168 161 93 9 152 99 
58 10 47 149 178 172 70 76 73 6 46 68 
59 11 49 64 108 29 163 82 164 6 169 76 46 
60 11 24 179 157 155 113 158 30 103 79 50 10 
61 11 37 94 119 48 80 151 69 143 125 131 130 
62 11 111 7 17 156 125 80 74 69 154 97 165 
63 10 140 68 72 135 66 122 104 83 28 5 
64 11 49 59 108 163 29 82 6 164 169 76 46 
65 11 22 117 150 48 88 159 2 146 130 128 151 
66 11 122 28 83 104 5 72 135 139 140 101 63 
67 11 42 25 152 9 181 145 168 182 26 14 36 
68 10 63 140 72 135 66 122 104 178 83 28 
69 11 151 80 94 125 156 130 119 7 61 84 74 
70 11 76 172 6 47 108 46 49 169 59 64 149 
71 10 16 142 4 34 173 52 110 23 100 35 
72 11 135 104 66 122 15 5 63 140 132 139 68 
73 11 46 21 33 13 6 32 76 108 11 47 70 
74 11 97 105 156 7 84 103 45 69 111 130 151 
75 11 90 170 27 41 118 56 18 132 153 139 5 
76 11 70 6 108 49 59 64 172 169 29 46 163 
77 11 141 114 101 83 28 19 86 139 122 66 5 
78 11 148 12 82 163 64 29 49 59 164 13 108 
79 11 45 103 105 107 2 84 88 146 159 134 155 
80 11 125 94 69 119 17 143 156 61 151 7 111 
81 9 43 175 124 98 145 96 123 138 31 
82 11 29 164 163 59 64 49 108 12 169 148 6 
83 11 28 101 66 86 122 77 104 139 5 141 114 
84 11 130 2 105 45 151 117 88 103 74 79 159 
85 9 177 126 116 166 8 123 40 98 171 
86 11 101 83 28 178 77 66 141 114 11 122 21 
87 10 20 39 8 123 98 126 31 138 85 124 
88 11 159 2 146 107 117 150 65 22 84 130 134 
89 11 127 162 35 147 16 71 34 10 30 52 23 
90 11 75 170 27 41 118 56 153 18 132 106 139 
91 11 99 51 36 110 181 92 14 4 121 100 182 
92 11 99 121 110 91 173 23 52 14 134 120 4 
93 11 128 133 131 57 120 160 180 38 161 22 48 
94 11 119 80 69 61 125 151 143 156 37 130 17 
95 11 154 129 165 143 3 17 119 80 125 94 61 
96 8 145 55 43 81 175 124 67 25 
97 11 74 105 103 156 7 45 113 155 158 50 84 
98 10 123 175 124 81 43 20 138 87 126 8 
99 11 91 92 121 14 110 51 182 181 36 168 173 
100 9 142 167 4 51 36 110 91 71 173 
101 11 86 83 28 77 141 66 114 122 139 5 104 
102 11 176 137 37 180 3 61 131 133 119 48 128 
103 11 45 79 105 84 2 97 74 155 157 107 88 
104 11 122 5 139 66 135 132 72 15 28 83 18 
105 11 45 103 84 74 97 79 2 130 88 151 156 
106 11 153 170 27 18 56 174 144 15 90 132 75 
107 11 146 159 88 134 2 150 79 45 22 117 65 
108 11 49 64 59 163 29 6 82 76 46 164 169 
109 11 26 115 44 136 31 161 138 160 25 42 152 
110 11 4 173 52 91 23 142 99 92 34 100 71 
111 11 7 62 156 125 17 80 69 74 97 94 143 
112 11 30 127 24 179 60 89 10 162 35 157 147 
113 11 158 155 157 60 97 50 24 103 105 74 45 
114 11 141 77 19 101 83 28 86 11 139 118 122 
115 11 109 26 136 160 44 161 31 137 138 180 152 
116 9 166 177 40 85 54 126 171 8 123 
117 11 65 2 88 130 159 150 151 84 22 48 146 
118 11 41 139 141 132 77 5 114 27 56 104 122 
119 11 94 143 80 61 125 69 17 154 37 151 95 
120 11 57 121 38 14 182 168 93 22 150 92 99 
121 11 14 182 120 38 57 168 99 92 9 91 152 
122 11 104 5 139 66 28 135 72 83 132 15 101 
123 10 98 20 87 8 126 39 124 175 81 43 
124 10 175 81 43 138 98 145 123 31 44 96 
125 11 80 69 17 94 156 119 7 143 111 151 154 
126 10 85 8 177 123 39 87 98 116 166 20 
127 11 89 162 35 147 30 16 10 71 34 52 23 
128 11 133 93 131 180 48 160 22 65 57 120 150 
129 11 95 165 154 3 143 17 119 80 125 94 61 
130 11 151 84 117 2 69 88 65 105 94 156 45 
131 11 133 128 180 48 93 37 65 160 61 22 137 
132 11 15 5 56 18 139 104 122 135 72 28 66 
133 11 128 131 180 93 48 160 37 65 137 22 161 
134 11 107 146 159 88 150 92 22 2 23 65 79 
135 11 72 104 15 122 66 5 63 140 132 139 28 
136 11 31 44 109 138 26 115 20 124 175 98 25 
137 11 180 176 102 160 133 131 128 37 115 93 161 
138 11 31 44 124 175 136 98 26 109 81 43 123 
139 11 5 104 122 132 28 66 83 15 135 72 56 
140 10 63 68 72 66 135 122 104 83 28 5 
141 11 77 114 19 101 28 83 86 139 122 118 5 
142 10 4 100 71 110 16 173 52 34 51 167 
143 11 154 119 17 95 80 125 94 3 129 61 69 
144 8 162 147 127 35 89 16 71 106 
145 9 96 25 43 67 175 81 124 42 55 
146 11 159 107 88 134 2 150 22 117 65 84 79 
147 10 35 162 89 127 16 71 142 34 4 52 
148 11 12 78 82 164 163 29 64 59 49 108 169 
149 11 172 47 58 70 76 6 169 46 178 73 108 
150 11 22 65 159 88 146 117 107 2 134 48 120 
151 11 130 69 94 84 117 156 2 80 61 125 48 
152 11 9 42 67 25 168 182 181 14 38 57 161 
153 11 106 18 56 27 170 15 132 174 90 135 5 
154 11 95 143 129 17 165 3 119 80 125 94 61 
155 11 157 113 158 60 103 97 24 105 79 45 50 
156 11 7 69 125 111 74 80 151 94 130 97 84 
157 11 155 113 158 60 103 24 79 97 105 45 74 
158 11 113 155 157 50 97 60 24 74 103 105 179 
159 11 146 88 107 2 150 134 22 117 65 84 130 
160 11 161 180 93 133 128 115 137 131 109 57 38 
161 11 160 38 57 26 93 168 109 182 152 115 9 
162 11 35 147 89 127 16 71 34 142 52 4 173 
163 11 64 49 59 108 29 82 164 6 169 12 13 
164 11 82 29 169 12 59 163 64 49 108 148 76 
165 11 129 95 154 17 143 3 125 80 119 62 111 
166 9 116 40 177 85 126 171 54 8 123 
167 5 36 100 51 55 181 
168 11 182 14 9 38 57 121 152 120 42 181 67 
169 11 164 29 59 82 49 64 108 76 163 12 6 
170 11 90 27 75 153 41 106 56 18 118 132 15 
171 11 177 166 40 126 85 116 8 39 87 123 20 
172 11 70 76 149 47 6 169 58 108 46 49 59 
173 11 52 23 110 34 4 16 71 92 142 99 91 
174 11 72 135 15 18 63 68 153 140 56 132 104 
175 10 124 81 43 98 138 145 123 96 31 44 
176 11 102 137 37 180 131 3 61 133 128 119 48 
177 9 85 166 116 126 40 171 8 123 54 
178 10 86 58 47 73 101 83 21 140 66 63 
179 11 24 60 113 158 157 155 30 50 112 103 97 
180 11 133 131 128 137 160 93 37 48 176 102 161 
181 11 36 51 9 91 152 67 168 182 99 14 42 
182 11 168 14 38 121 9 57 152 120 99 181 91 
DEPOT_SECTION
   1
   -1
EOF
