NAME :  X-n275-kX-w109-c9.cctp
COMMENT : 	Adapted by Maziero, Usberti and Cavellucci from the Uchoa, Pecin, Pessoa, Poggi, Subramanian, and Vidal (2013)
TYPE :  CCTP
DIMENSION :    274
EDGE_WEIGHT_TYPE : 	EUC_2D	
CAPACITY : 	10
VERTICES_WITHIN_COVERAGE :  9
VERTICES_WITH_DEMAND : 	109
NODE_COORD_SECTION
1 409 418
2 378 220
3 469 585
4 91 695
5 351 130
6 424 101
7 70 693
8 324 133
9 367 215
10 218 906
11 90 688
12 417 223
13 42 693
14 134 482
15 594 488
16 431 269
17 383 606
18 100 597
19 85 697
20 378 218
21 196 640
22 213 635
23 520 537
24 509 542
25 388 549
26 476 583
27 409 565
28 155 828
29 60 690
30 415 269
31 127 578
32 363 304
33 392 329
34 424 660
35 505 683
36 372 120
37 438 620
38 578 421
39 116 716
40 107 719
41 117 677
42 324 275
43 246 789
44 363 223
45 139 682
46 376 197
47 397 52
48 107 727
49 64 671
50 369 275
51 96 659
52 129 627
53 45 581
54 403 585
55 70 731
56 528 736
57 379 320
58 424 608
59 436 607
60 54 687
61 342 544
62 595 525
63 508 336
64 338 90
65 510 165
66 269 820
67 18 776
68 316 293
69 575 485
70 335 179
71 1 727
72 571 436
73 15 696
74 227 760
75 324 538
76 523 519
77 620 500
78 217 427
79 53 809
80 206 622
81 602 506
82 48 771
83 486 347
84 100 740
85 161 660
86 528 559
87 386 460
88 330 295
89 225 345
90 301 729
91 334 243
92 99 819
93 219 610
94 70 560
95 334 161
96 589 420
97 428 605
98 478 509
99 76 753
100 464 167
101 18 327
102 451 63
103 406 145
104 431 608
105 213 707
106 95 635
107 550 573
108 172 811
109 85 789
110 119 788
111 348 210
112 571 227
113 364 347
114 591 428
115 436 611
116 471 928
117 416 528
118 504 383
119 217 255
120 255 720
121 100 830
122 82 693
123 290 209
124 522 281
125 331 406
126 426 244
127 529 618
128 638 99
129 153 648
130 124 719
131 419 70
132 12 653
133 433 169
134 370 686
135 811 620
136 160 691
137 204 673
138 57 666
139 326 401
140 627 541
141 332 114
142 497 575
143 469 605
144 49 648
145 547 588
146 305 746
147 192 805
148 370 621
149 759 660
150 89 757
151 287 223
152 380 129
153 286 386
154 23 745
155 21 738
156 441 683
157 402 577
158 255 442
159 260 288
160 322 693
161 502 313
162 431 473
163 106 701
164 390 398
165 443 175
166 335 272
167 390 225
168 194 867
169 170 621
170 311 241
171 358 323
172 427 911
173 555 239
174 55 781
175 374 566
176 388 263
177 352 701
178 82 671
179 451 565
180 91 833
181 292 609
182 466 592
183 561 488
184 131 779
185 186 699
186 567 525
187 635 481
188 404 512
189 459 694
190 456 399
191 91 725
192 483 196
193 317 460
194 128 824
195 481 179
196 517 442
197 97 705
198 263 806
199 381 215
200 386 164
201 497 137
202 311 737
203 100 611
204 414 525
205 79 643
206 284 318
207 155 706
208 426 661
209 297 164
210 454 197
211 499 697
212 480 310
213 145 692
214 390 236
215 350 333
216 605 460
217 709 391
218 426 192
219 98 767
220 141 672
221 399 684
222 107 853
223 56 774
224 309 266
225 376 510
226 205 771
227 105 676
228 682 508
229 236 173
230 256 311
231 59 713
232 307 278
233 735 524
234 566 711
235 320 437
236 71 844
237 18 737
238 430 559
239 85 479
240 376 276
241 171 400
242 430 237
243 201 588
244 478 593
245 291 132
246 464 582
247 669 494
248 562 733
249 298 173
250 438 567
251 402 206
252 150 291
253 364 561
254 415 580
255 87 693
256 502 751
257 132 831
258 574 481
259 19 707
260 486 590
261 399 205
262 165 712
263 63 746
264 50 740
265 514 246
266 400 617
267 421 162
268 497 582
269 260 817
270 40 768
271 58 721
272 332 614
273 190 878
274 346 218
DEMAND_SECTION
2 1
3 1
4 1
5 1
6 1
7 1
8 1
9 1
10 1
11 1
12 1
13 1
14 1
15 1
16 1
17 1
18 1
19 1
20 1
21 1
22 1
23 1
24 1
25 1
26 1
27 1
28 1
29 1
30 1
31 1
32 1
33 1
34 1
35 1
36 1
37 1
38 1
39 1
40 1
41 1
42 1
43 1
44 1
45 1
46 1
47 1
48 1
49 1
50 1
51 1
52 1
53 1
54 1
55 1
56 1
57 1
58 1
59 1
60 1
61 1
62 1
63 1
64 1
65 1
66 1
67 1
68 1
69 1
70 1
71 1
72 1
73 1
74 1
75 1
76 1
77 1
78 1
79 1
80 1
81 1
82 1
83 1
84 1
85 1
86 1
87 1
88 1
89 1
90 1
91 1
92 1
93 1
94 1
95 1
96 1
97 1
98 1
99 1
100 1
101 1
102 1
103 1
104 1
105 1
106 1
107 1
108 1
109 1
110 1
COVERAGE_SECTION
2 9 20 199 9 167 44 214 46 261 251 
3 9 246 26 182 244 260 143 179 268 142 
4 9 255 19 11 122 197 163 7 227 178 
5 9 36 141 8 152 95 64 200 70 103 
6 9 131 102 103 152 36 47 267 133 200 
7 9 29 122 19 60 255 4 11 49 231 
8 9 141 5 95 245 209 64 70 249 36 
9 9 44 20 2 199 46 111 274 167 214 
10 9 273 168 269 28 66 147 108 198 257 
11 9 255 4 122 19 197 178 227 7 163 
12 9 242 126 251 261 167 214 218 199 2 
13 9 60 29 231 73 259 7 49 138 271 
14 9 239 241 31 78 94 18 243 158 53 
15 9 69 81 258 77 216 183 62 187 186 
16 9 30 126 242 176 12 214 240 167 50 
17 9 148 266 54 157 58 175 254 97 104 
18 9 203 31 106 52 94 205 53 51 144 
19 9 255 122 4 11 197 7 163 29 178 
20 9 2 199 9 167 44 46 214 261 251 
21 9 22 80 169 137 93 85 129 243 185 
22 9 80 21 93 137 169 243 85 129 185 
23 9 24 76 86 142 107 186 98 268 145 
24 9 23 86 76 142 268 98 107 26 260 
25 9 175 27 253 157 117 204 54 188 225 
26 9 3 244 246 260 182 268 142 143 179 
27 9 157 254 54 238 25 250 175 117 204 
28 9 257 108 194 147 110 222 121 168 184 
29 9 60 7 13 49 122 231 138 19 255 
30 9 16 126 176 242 240 214 12 50 167 
31 9 18 203 52 94 169 106 129 243 205 
32 9 171 57 50 240 215 88 33 113 166 
33 9 57 113 171 32 215 240 50 30 176 
34 9 208 156 221 37 189 266 115 58 104 
35 9 211 189 56 156 234 256 127 248 208 
36 9 152 5 141 103 64 200 8 6 95 
37 9 115 59 104 58 97 143 266 182 34 
38 9 96 114 72 216 258 69 196 15 183 
39 9 40 130 48 163 197 191 84 4 19 
40 9 48 39 130 191 197 163 84 4 19 
41 9 227 45 220 163 51 11 4 213 197 
42 9 166 224 232 68 88 91 170 50 32 
43 9 198 269 74 66 226 147 120 146 108 
44 9 9 2 20 274 111 199 167 46 214 
45 9 220 213 41 136 207 85 227 129 163 
46 9 199 9 20 2 261 251 44 111 167 
47 9 131 102 6 64 36 152 141 5 103 
48 9 40 39 84 191 130 197 163 150 4 
49 9 138 178 29 60 7 144 122 11 13 
50 9 240 176 32 166 88 214 42 30 57 
51 9 178 227 205 106 41 11 49 255 4 
52 9 129 203 106 169 18 51 85 220 31 
53 9 94 18 203 144 205 106 132 31 138 
54 9 157 254 27 17 58 97 266 175 104 
55 9 271 263 231 191 264 99 84 150 19 
56 9 256 248 234 211 35 189 156 127 208 
57 9 33 171 32 113 215 240 50 88 176 
58 9 97 104 59 115 37 266 254 54 157 
59 9 115 104 97 58 37 143 182 254 266 
60 9 29 13 7 49 138 231 122 178 19 
61 9 75 253 175 25 225 157 27 188 272 
62 9 81 186 77 140 15 69 258 183 187 
63 9 161 83 212 118 124 190 265 16 196 
64 9 141 5 8 36 152 245 47 95 131 
65 9 201 195 192 100 210 165 133 265 112 
66 9 269 198 43 74 147 226 146 168 202 
67 9 270 82 154 174 155 223 237 79 264 
68 9 88 232 42 166 224 206 32 170 171 
69 9 258 183 15 81 216 186 62 77 72 
70 9 95 111 249 209 274 46 8 9 5 
71 9 237 155 259 154 73 264 67 13 270 
72 9 38 114 96 216 258 69 183 196 15 
73 9 259 13 71 60 237 155 132 29 231 
74 9 226 43 120 105 147 198 269 66 185 
75 9 61 253 175 225 25 272 181 193 188 
76 9 23 24 86 186 98 183 107 69 142 
77 9 81 187 15 62 140 216 69 247 258 
78 9 158 241 153 89 14 235 193 139 125 
79 9 174 223 82 109 236 270 180 92 67 
80 9 22 93 21 243 169 137 85 129 52 
81 9 77 15 62 69 258 186 187 140 183 
82 9 223 270 174 263 67 264 99 154 79 
83 9 63 212 161 118 190 124 16 33 196 
84 9 48 191 150 40 99 219 39 55 130 
85 9 129 220 45 136 213 21 169 137 52 
86 9 23 24 107 142 145 268 76 186 260 
87 9 162 225 188 164 193 235 204 117 125 
88 9 68 42 166 232 32 224 171 215 50 
89 9 230 206 159 153 241 78 119 252 158 
90 9 202 146 160 120 177 74 43 134 198 
91 9 170 274 166 42 224 44 111 9 232 
92 9 121 180 194 109 222 257 110 236 79 
93 9 80 22 243 21 169 137 181 129 85 
94 9 53 18 203 31 106 239 205 52 144 
95 9 70 8 5 209 249 141 111 200 245 
96 9 114 38 72 216 258 69 15 183 196 
97 9 104 58 59 115 37 254 266 54 157 
98 9 24 76 23 162 179 117 204 142 238 
99 9 150 263 55 219 84 223 264 191 82 
100 9 195 165 133 210 192 267 201 218 65 
101 8 252 239 241 14 89 119 78 94 
102 9 131 6 47 201 103 36 152 267 100 
103 9 267 200 152 133 36 6 165 218 5 
104 9 97 59 115 58 37 254 266 54 143 
105 9 185 137 120 262 74 136 207 226 21 
106 9 205 51 203 52 18 178 227 41 49 
107 9 145 86 23 127 24 186 142 268 76 
108 9 147 28 257 194 184 226 110 168 273 
109 9 219 174 150 92 223 110 99 79 82 
110 9 184 219 109 92 194 150 257 121 84 
111 9 274 9 44 20 46 2 199 70 91 
112 9 173 265 124 65 192 195 161 201 210 
113 9 215 171 57 33 32 164 88 139 125 
114 9 96 38 72 216 258 69 15 183 187 
115 9 59 104 37 97 58 143 182 266 254 
116 9 172 256 56 248 66 211 189 234 269 
117 9 204 188 238 25 27 225 250 157 179 
118 9 83 63 190 196 161 212 38 72 96 
119 9 159 230 252 151 229 123 89 206 224 
120 9 105 90 74 146 202 137 43 226 160 
121 9 180 92 222 194 236 257 109 110 79 
122 9 19 255 4 11 7 197 29 178 163 
123 9 151 249 170 209 70 91 274 111 224 
124 9 265 161 212 173 63 112 83 16 192 
125 9 139 235 153 193 164 113 215 87 158 
126 9 242 12 16 30 214 167 176 251 261 
127 9 145 268 107 260 142 244 86 143 26 
128 9 65 112 201 173 195 192 100 102 265 
129 9 85 220 52 169 45 21 136 213 41 
130 9 39 40 48 163 197 84 191 207 213 
131 9 47 6 102 36 152 103 64 5 267 
132 9 144 73 138 13 60 259 49 29 205 
133 9 165 267 218 100 210 103 200 251 195 
134 9 177 221 160 34 208 148 156 266 202 
135 9 149 233 228 247 140 187 77 62 81 
136 9 213 207 262 45 185 220 85 129 41 
137 9 185 21 105 22 85 136 80 262 129 
138 9 49 144 60 29 178 7 13 205 122 
139 9 125 235 153 193 164 113 215 158 87 
140 9 62 77 81 187 15 186 247 228 69 
141 9 8 5 64 36 245 95 152 209 70 
142 9 268 260 26 244 3 246 24 86 182 
143 9 182 244 3 26 260 246 59 37 115 
144 9 138 49 205 132 60 178 29 13 51 
145 9 107 86 127 268 142 23 24 260 186 
146 9 202 90 120 160 177 43 198 74 66 
147 9 108 226 28 43 74 168 257 184 194 
148 9 17 266 272 54 157 175 58 97 253 
149 9 135 233 228 140 247 234 248 62 77 
150 9 219 99 84 263 55 109 191 48 223 
151 9 123 170 224 91 249 232 274 209 111 
152 9 36 5 103 200 141 6 267 8 95 
153 9 139 125 235 158 206 89 78 193 230 
154 9 155 237 264 71 270 67 82 259 263 
155 9 237 154 71 264 259 270 67 271 73 
156 9 189 208 34 221 211 37 35 134 115 
157 9 54 254 27 175 25 238 17 250 58 
158 9 78 153 193 235 139 125 241 89 75 
159 9 230 206 232 119 224 68 42 89 170 
160 9 177 90 202 134 146 120 221 272 148 
161 9 212 63 83 124 265 118 16 173 30 
162 9 87 188 204 117 98 225 190 164 238 
163 9 197 4 39 40 11 19 255 122 130 
164 9 113 125 87 139 190 33 215 57 235 
165 9 133 100 218 210 267 195 192 103 251 
166 9 42 88 224 68 91 232 50 170 240 
167 9 214 2 199 20 251 261 9 12 44 
168 9 273 10 28 108 147 257 194 269 222 
169 9 21 129 80 85 52 22 243 93 220 
170 9 91 224 151 42 232 123 166 274 111 
171 9 215 32 57 113 33 88 50 240 68 
172 9 116 256 66 269 198 56 146 10 202 
173 9 112 265 124 192 65 161 195 212 63 
174 9 223 82 270 79 109 99 263 67 264 
175 9 253 25 157 27 54 61 17 254 148 
176 9 240 50 214 30 167 126 16 2 20 
177 9 134 160 221 202 90 146 148 34 208 
178 9 49 51 11 122 255 227 7 138 4 
179 9 250 246 238 3 26 182 244 254 27 
180 9 121 92 236 222 194 257 109 79 110 
181 9 272 93 75 148 61 22 80 253 160 
182 9 3 246 244 26 143 260 179 268 59 
183 9 69 258 15 186 81 76 62 216 72 
184 9 110 219 194 109 150 84 92 108 257 
185 9 262 136 105 137 207 213 85 45 220 
186 9 62 183 81 69 76 258 15 23 107 
187 9 77 247 216 81 15 228 62 69 140 
188 9 204 117 225 25 162 27 238 87 175 
189 9 156 211 35 208 34 221 256 37 56 
190 9 118 83 164 196 162 63 212 87 33 
191 9 48 40 84 197 55 39 163 19 4 
192 9 195 210 100 65 165 133 218 265 201 
193 9 235 125 139 158 87 225 75 153 61 
194 9 257 28 92 121 222 110 180 184 108 
195 9 192 100 65 210 165 201 133 218 267 
196 9 72 118 183 38 258 69 96 114 190 
197 9 163 4 19 255 40 11 122 191 39 
198 9 269 66 43 74 226 147 146 202 90 
199 9 20 2 167 9 46 44 261 214 251 
200 9 103 46 267 152 261 251 36 133 5 
201 9 65 100 195 192 165 133 210 267 6 
202 9 146 90 160 177 120 134 43 198 74 
203 9 18 106 52 205 31 51 94 53 144 
204 9 117 188 25 238 27 225 250 157 179 
205 9 106 51 178 144 49 138 203 227 11 
206 9 230 159 68 232 88 224 42 89 153 
207 9 262 136 213 45 185 130 220 39 85 
208 9 34 156 221 37 189 115 266 58 104 
209 9 249 245 95 8 70 123 151 141 229 
210 9 165 218 192 100 195 133 12 242 267 
211 9 35 189 56 256 156 234 248 208 34 
212 9 161 83 63 124 16 265 30 118 126 
213 9 45 136 207 220 262 41 130 85 39 
214 9 167 2 20 199 176 12 44 9 251 
215 9 171 113 32 57 33 88 68 50 166 
216 9 15 114 187 258 69 72 77 96 81 
217 9 247 187 228 96 114 216 38 233 77 
218 9 133 165 210 251 261 267 12 100 242 
219 9 150 99 109 84 110 184 48 263 191 
220 9 45 213 85 41 129 136 227 207 163 
221 9 134 34 208 156 177 189 266 148 37 
222 9 121 180 257 92 194 236 28 110 109 
223 9 174 82 270 99 263 109 79 264 150 
224 9 232 42 170 166 68 91 88 151 159 
225 9 188 25 204 117 61 87 253 175 75 
226 9 74 147 43 108 105 198 120 262 269 
227 9 41 11 51 4 178 163 255 19 122 
228 9 247 187 233 77 140 81 62 15 216 
229 8 209 249 123 245 151 119 8 70 
230 9 159 206 89 232 68 119 224 88 42 
231 9 271 55 7 29 13 60 264 122 19 
232 9 224 42 68 88 166 170 91 206 159 
233 9 228 247 140 187 77 135 81 217 149 
234 9 248 56 35 211 256 127 189 145 156 
235 9 193 125 139 153 158 87 164 225 113 
236 9 180 121 222 92 79 109 194 257 174 
237 9 155 154 71 259 264 270 67 73 271 
238 9 250 27 179 254 157 117 54 204 246 
239 9 14 94 31 53 241 18 203 78 52 
240 9 50 176 32 30 166 214 57 88 171 
241 9 78 89 14 158 252 153 239 230 206 
242 9 126 12 16 30 214 167 251 218 261 
243 9 93 80 169 22 21 31 129 52 85 
244 9 260 26 3 182 143 246 268 142 179 
245 9 8 209 249 141 95 5 64 70 229 
246 9 3 182 26 244 179 260 143 250 268 
247 9 228 187 77 140 81 216 233 15 62 
248 9 234 56 256 211 35 189 127 156 145 
249 9 209 70 123 95 245 8 151 111 229 
250 9 238 179 254 27 246 3 157 182 54 
251 9 261 167 12 199 20 2 46 218 214 
252 8 119 89 230 159 241 101 206 229 
253 9 175 25 61 157 27 54 75 17 225 
254 9 54 157 27 238 250 97 58 104 59 
255 9 4 19 122 11 197 7 163 178 227 
256 9 56 211 248 35 189 234 156 208 34 
257 9 194 28 121 222 92 180 108 110 184 
258 9 69 183 15 216 81 72 186 62 77 
259 9 73 13 71 237 155 154 60 231 271 
260 9 244 26 268 3 142 182 143 246 179 
261 9 251 199 167 46 12 20 2 218 214 
262 9 207 136 185 213 45 130 220 105 39 
263 9 264 99 55 271 150 82 223 270 231 
264 9 263 271 55 154 231 99 155 270 82 
265 9 124 173 192 112 161 212 195 210 65 
266 9 17 58 97 148 54 104 115 59 37 
267 9 133 103 165 218 200 100 210 251 261 
268 9 142 260 26 244 3 182 246 143 86 
269 9 66 198 43 74 147 226 168 146 108 
270 9 82 223 174 67 154 264 263 155 237 
271 9 231 55 264 263 7 29 13 191 60 
272 9 148 181 17 253 175 266 61 75 54 
273 9 168 10 28 108 147 257 194 222 269 
274 9 111 44 9 91 2 20 199 46 70 
DEPOT_SECTION
   1
   -1
EOF
