NAME :  X-n275-kX-w27-c7.cctp
COMMENT : 	Adapted by Maziero, Usberti and Cavellucci from the Uchoa, Pecin, Pessoa, Poggi, Subramanian, and Vidal (2013)
TYPE :  CCTP
DIMENSION :    142
EDGE_WEIGHT_TYPE : 	EUC_2D	
CAPACITY : 	10
VERTICES_WITHIN_COVERAGE :  7
VERTICES_WITH_DEMAND : 	27
NODE_COORD_SECTION
1 409 418
2 378 220
3 469 585
4 91 695
5 351 130
6 424 101
7 70 693
8 324 133
9 367 215
10 218 906
11 90 688
12 417 223
13 42 693
14 134 482
15 594 488
16 431 269
17 383 606
18 100 597
19 85 697
20 378 218
21 196 640
22 213 635
23 520 537
24 509 542
25 388 549
26 476 583
27 409 565
28 155 828
29 60 690
30 415 269
31 127 578
32 372 120
33 117 677
34 363 223
35 376 197
36 397 52
37 64 671
38 96 659
39 129 627
40 45 581
41 403 585
42 54 687
43 342 544
44 595 525
45 338 90
46 575 485
47 335 179
48 15 696
49 324 538
50 523 519
51 620 500
52 217 427
53 206 622
54 602 506
55 486 347
56 161 660
57 528 559
58 219 610
59 70 560
60 334 161
61 589 420
62 478 509
63 18 327
64 451 63
65 406 145
66 95 635
67 550 573
68 172 811
69 348 210
70 591 428
71 416 528
72 82 693
73 426 244
74 153 648
75 419 70
76 12 653
77 204 673
78 57 666
79 627 541
80 332 114
81 497 575
82 469 605
83 547 588
84 192 805
85 370 621
86 380 129
87 402 577
88 502 313
89 106 701
90 390 225
91 194 867
92 170 621
93 374 566
94 388 263
95 82 671
96 451 565
97 292 609
98 466 592
99 561 488
100 567 525
101 635 481
102 404 512
103 128 824
104 97 705
105 381 215
106 100 611
107 414 525
108 297 164
109 454 197
110 480 310
111 390 236
112 605 460
113 426 192
114 107 853
115 376 510
116 105 676
117 59 713
118 430 559
119 85 479
120 171 400
121 430 237
122 201 588
123 478 593
124 291 132
125 464 582
126 298 173
127 438 567
128 402 206
129 364 561
130 415 580
131 87 693
132 132 831
133 574 481
134 19 707
135 486 590
136 399 205
137 400 617
138 497 582
139 58 721
140 332 614
141 190 878
142 346 218
DEMAND_SECTION
2 1
3 1
4 1
5 1
6 1
7 1
8 1
9 1
10 1
11 1
12 1
13 1
14 1
15 1
16 1
17 1
18 1
19 1
20 1
21 1
22 1
23 1
24 1
25 1
26 1
27 1
28 1
COVERAGE_SECTION
2 7 20 105 9 90 34 111 35 
3 7 125 26 98 123 135 82 96 
4 7 131 19 11 72 104 89 7 
5 6 32 80 8 86 60 45 
6 6 75 64 65 86 32 36 
7 7 29 72 19 42 131 4 11 
8 7 80 5 60 124 108 45 47 
9 7 34 20 2 105 35 69 142 
10 5 141 91 28 84 68 
11 7 131 4 72 19 104 95 116 
12 7 121 73 128 136 90 111 113 
13 7 42 29 117 48 134 7 37 
14 7 119 120 31 52 59 18 122 
15 7 46 54 133 51 112 99 44 
16 6 30 73 121 94 12 111 
17 6 85 137 41 87 93 130 
18 6 106 31 66 39 59 40 
19 7 131 72 4 11 104 7 89 
20 7 2 105 9 90 34 35 111 
21 7 22 53 92 77 58 56 74 
22 7 53 21 58 77 92 122 56 
23 7 24 50 57 81 67 100 62 
24 7 23 57 50 81 138 62 67 
25 7 93 27 129 87 71 107 41 
26 7 3 123 125 135 98 138 81 
27 7 87 130 41 118 25 127 93 
28 5 132 68 103 84 114 
29 7 42 7 13 37 72 117 78 
30 6 16 73 94 121 111 12 
31 7 18 106 39 59 92 66 74 
32 6 86 5 80 65 45 8 
33 5 116 89 38 11 4 
34 7 9 2 20 142 69 105 90 
35 7 105 9 20 2 136 128 34 
36 7 75 64 6 45 32 86 80 
37 6 78 95 29 42 7 72 
38 6 95 116 66 33 11 37 
39 7 74 106 66 92 18 38 56 
40 5 59 18 106 66 76 
41 5 87 130 27 17 137 
42 7 29 13 7 37 78 117 72 
43 7 49 129 93 25 115 87 27 
44 7 54 100 51 79 15 46 133 
45 7 80 5 8 32 86 124 36 
46 7 133 99 15 54 112 100 44 
47 7 60 69 126 108 142 35 8 
48 4 134 13 42 76 
49 7 43 129 93 115 25 140 97 
50 7 23 24 57 100 62 99 67 
51 7 54 101 15 44 79 112 46 
52 2 120 14 
53 7 22 58 21 122 92 77 56 
54 7 51 15 44 46 133 100 101 
55 3 110 88 16 
56 3 74 21 92 
57 7 23 24 67 81 83 138 50 
58 7 53 22 122 21 92 77 97 
59 6 40 18 106 31 66 119 
60 7 47 8 5 108 126 80 69 
61 5 70 112 133 46 15 
62 6 24 50 23 96 71 107 
63 3 119 120 14 
64 6 75 6 36 65 32 86 
65 3 86 32 6 
66 6 38 106 39 18 95 116 
67 6 83 57 23 24 100 81 
68 4 84 28 132 103 
69 7 142 9 34 20 35 2 105 
70 5 61 112 133 46 15 
71 7 107 102 118 25 27 115 127 
72 7 19 131 4 11 7 104 29 
73 7 121 12 16 30 111 90 94 
74 4 56 39 92 21 
75 7 36 6 64 32 86 65 45 
76 6 48 78 13 42 134 37 
77 4 21 22 56 53 
78 6 37 42 29 95 7 13 
79 6 44 51 54 101 15 100 
80 7 8 5 45 32 124 60 86 
81 7 138 135 26 123 3 125 24 
82 6 98 123 3 26 135 125 
83 6 67 57 138 81 23 24 
84 4 68 28 91 132 
85 6 17 137 140 41 87 93 
86 5 32 5 65 80 6 
87 7 41 130 27 93 25 118 17 
88 3 110 55 16 
89 5 104 4 11 19 131 
90 7 111 2 105 20 128 136 9 
91 7 141 10 28 68 84 132 103 
92 7 21 74 53 56 39 22 122 
93 7 129 25 87 27 41 43 17 
94 5 111 30 90 73 16 
95 7 37 38 11 72 131 116 7 
96 7 127 125 118 3 26 98 123 
97 7 140 58 49 85 43 22 53 
98 7 3 125 123 26 82 135 96 
99 7 46 133 15 100 54 50 44 
100 7 44 99 54 46 50 133 15 
101 5 51 112 54 15 44 
102 6 107 71 115 25 27 118 
103 3 132 28 114 
104 6 89 4 19 131 11 72 
105 7 20 2 90 9 35 34 136 
106 6 18 66 39 31 38 59 
107 7 71 102 25 118 27 115 127 
108 5 126 124 60 8 47 
109 2 113 12 
110 4 88 55 16 30 
111 7 90 2 20 105 94 12 34 
112 6 15 70 101 133 46 51 
113 4 109 128 136 12 
114 3 132 103 28 
115 6 102 25 107 71 43 129 
116 7 33 11 38 4 95 89 131 
117 5 139 7 29 13 42 
118 7 127 27 96 130 87 71 41 
119 7 14 59 31 40 120 18 106 
120 3 52 14 119 
121 7 73 12 16 30 111 90 128 
122 7 58 53 92 22 21 31 74 
123 7 135 26 3 98 82 125 138 
124 7 8 108 126 80 60 5 45 
125 7 3 98 26 123 96 135 82 
126 5 108 47 60 124 8 
127 7 118 96 130 27 125 3 87 
128 7 136 90 12 105 20 2 35 
129 7 93 25 43 87 27 41 49 
130 5 41 87 27 118 127 
131 7 4 19 72 11 104 7 89 
132 4 103 28 114 68 
133 6 46 99 15 112 54 100 
134 3 48 13 42 
135 7 123 26 138 3 81 98 82 
136 7 128 105 90 35 12 20 2 
137 3 17 85 41 
138 7 81 135 26 123 3 98 125 
139 4 117 7 29 13 
140 7 85 97 17 129 93 137 43 
141 7 91 10 28 68 84 132 103 
142 6 69 34 9 2 20 105 
DEPOT_SECTION
   1
   -1
EOF
