NAME :  X-n284-kX-w28-c7.cctp
COMMENT : 	Adapted by Maziero, Usberti and Cavellucci from the Uchoa, Pecin, Pessoa, Poggi, Subramanian, and Vidal (2013)
TYPE :  CCTP
DIMENSION :    176
EDGE_WEIGHT_TYPE : 	EUC_2D	
CAPACITY : 	109
VERTICES_WITHIN_COVERAGE :  7
VERTICES_WITH_DEMAND : 	28
NODE_COORD_SECTION
1 674 825
2 549 534
3 43 315
4 542 420
5 45 580
6 180 450
7 369 618
8 287 721
9 36 426
10 411 408
11 170 446
12 21 333
13 37 428
14 617 456
15 52 527
16 114 227
17 32 303
18 233 638
19 314 568
20 290 736
21 549 449
22 317 699
23 676 992
24 45 851
25 455 508
26 128 446
27 34 302
28 152 660
29 550 576
30 559 585
31 306 655
32 183 449
33 380 586
34 21 277
35 306 679
36 103 480
37 197 495
38 20 321
39 100 638
40 350 574
41 198 437
42 370 722
43 273 645
44 44 581
45 309 763
46 18 616
47 128 603
48 543 466
49 54 449
50 49 401
51 638 459
52 657 416
53 1 296
54 1 416
55 157 731
56 244 727
57 548 588
58 559 438
59 459 433
60 9 408
61 55 295
62 357 711
63 31 407
64 544 414
65 285 801
66 439 387
67 347 636
68 353 713
69 192 450
70 428 346
71 18 359
72 364 653
73 293 515
74 532 411
75 225 722
76 259 227
77 19 558
78 368 573
79 382 645
80 596 630
81 27 367
82 186 460
83 116 629
84 89 544
85 574 623
86 166 458
87 255 545
88 38 273
89 264 757
90 59 278
91 351 298
92 26 447
93 21 527
94 547 547
95 54 551
96 530 414
97 53 441
98 103 273
99 141 256
100 324 558
101 262 511
102 307 581
103 344 619
104 140 436
105 603 511
106 155 633
107 83 545
108 389 638
109 231 732
110 36 435
111 50 491
112 314 840
113 589 589
114 199 463
115 55 501
116 30 368
117 308 729
118 97 678
119 69 439
120 96 618
121 39 321
122 47 409
123 51 527
124 428 484
125 279 744
126 39 640
127 320 800
128 5 405
129 9 520
130 26 200
131 501 579
132 27 571
133 602 440
134 398 657
135 176 482
136 184 464
137 350 606
138 45 407
139 612 434
140 226 642
141 544 431
142 607 574
143 130 767
144 104 463
145 183 642
146 528 588
147 37 256
148 189 421
149 537 541
150 395 514
151 31 647
152 636 432
153 396 435
154 603 501
155 173 629
156 575 395
157 309 604
158 29 521
159 375 623
160 525 449
161 482 542
162 343 673
163 45 558
164 528 389
165 299 678
166 414 536
167 13 456
168 615 505
169 17 342
170 289 541
171 112 456
172 604 604
173 228 659
174 339 622
175 513 411
176 379 594
DEMAND_SECTION
2 7
3 3
4 3
5 5
6 4
7 8
8 1
9 2
10 9
11 5
12 2
13 2
14 4
15 1
16 3
17 4
18 10
19 2
20 2
21 3
22 9
23 2
24 1
25 6
26 8
27 9
28 7
29 8
COVERAGE_SECTION
2 3 94 149 29 
3 7 121 17 27 61 38 12 169 
4 7 64 141 74 96 58 21 175 
5 7 44 132 163 95 77 46 107 
6 7 32 11 69 82 136 86 41 
7 7 159 137 103 176 67 108 79 
8 7 20 117 125 22 56 89 165 
9 7 13 110 63 122 138 92 97 
10 5 153 66 59 70 124 
11 7 6 32 86 82 69 136 41 
12 7 169 38 121 71 3 17 27 
13 7 9 110 97 122 63 92 138 
14 5 51 133 139 152 154 
15 7 123 95 158 115 93 163 107 
16 5 99 98 90 147 88 
17 7 27 3 121 38 61 34 88 
18 6 140 173 43 145 155 31 
19 5 100 102 40 157 170 
20 7 125 8 117 45 89 22 56 
21 5 58 48 141 160 4 
22 7 35 165 117 8 162 68 62 
23 1 80 
24 4 143 55 118 151 
25 3 124 161 166 
26 6 104 171 144 86 11 36 
27 7 17 3 121 61 38 34 88 
28 7 106 145 155 83 39 118 47 
29 7 57 30 146 94 149 113 2 
30 7 57 29 113 146 94 85 142 
31 6 35 165 43 162 22 67 
32 7 6 69 82 11 136 41 86 
33 5 176 78 40 7 137 
34 7 88 147 17 27 53 61 90 
35 7 165 22 31 162 8 43 117 
36 3 144 171 26 
37 7 135 114 136 82 69 6 32 
38 7 12 121 169 17 3 27 53 
39 7 83 120 118 47 106 28 126 
40 6 78 100 33 137 176 19 
41 6 69 148 32 6 82 114 
42 7 62 68 162 22 117 72 134 
43 6 31 18 165 35 140 173 
44 7 5 132 163 95 77 46 107 
45 7 20 117 125 127 65 89 8 
46 7 126 151 44 5 132 77 163 
47 6 83 120 106 39 155 28 
48 1 21 
49 5 97 119 110 13 92 
50 5 138 122 63 9 13 
51 6 14 152 139 133 52 168 
52 5 152 51 139 14 133 
53 7 34 38 17 27 12 88 121 
54 7 60 128 63 9 13 92 110 
55 6 143 75 28 109 118 56 
56 6 109 75 89 125 8 20 
57 7 30 29 146 94 113 85 131 
58 6 21 141 4 64 48 160 
59 4 66 10 175 124 
60 7 128 54 63 9 13 138 110 
61 7 90 27 3 17 88 121 34 
62 7 68 42 162 22 117 72 35 
63 7 138 122 50 9 13 60 128 
64 7 4 74 96 141 58 164 175 
65 7 127 45 89 112 125 20 117 
66 5 10 70 59 153 175 
67 5 174 103 72 7 137 
68 7 62 42 22 162 117 35 72 
69 7 32 6 82 41 114 136 11 
70 4 66 10 91 59 
71 5 81 116 169 12 38 
72 7 79 67 108 162 159 134 7 
73 5 170 101 87 100 19 
74 6 96 64 4 175 164 141 
75 6 109 56 89 125 8 173 
76 3 91 99 16 
77 7 132 163 93 5 44 95 158 
78 5 33 40 176 137 7 
79 7 108 72 134 159 7 67 103 
80 7 85 172 113 142 30 57 29 
81 5 116 71 169 12 50 
82 7 136 32 6 69 114 86 11 
83 7 39 120 47 106 28 118 155 
84 5 107 95 15 123 163 
85 7 80 172 113 30 57 29 146 
86 7 11 6 32 136 82 135 69 
87 7 170 101 73 19 102 100 37 
88 7 34 147 90 61 27 17 3 
89 7 125 20 56 109 8 45 65 
90 7 61 88 147 27 17 34 3 
91 4 70 76 10 66 
92 6 110 167 13 9 49 97 
93 6 158 129 123 15 77 163 
94 6 149 2 29 30 57 146 
95 7 163 15 123 5 107 44 132 
96 6 74 4 64 175 141 164 
97 6 49 119 110 13 9 92 
98 4 99 90 16 61 
99 2 16 98 
100 6 19 102 40 170 78 157 
101 5 73 87 170 37 19 
102 4 19 157 100 40 
103 4 174 137 67 7 
104 7 26 11 86 171 6 32 144 
105 4 154 168 14 2 
106 6 155 28 145 83 47 39 
107 5 84 95 15 123 163 
108 7 79 134 159 7 72 67 176 
109 6 75 56 89 125 8 20 
110 7 13 9 92 97 49 63 122 
111 3 115 15 123 
112 6 127 65 45 89 125 20 
113 7 172 142 30 85 29 57 80 
114 6 82 69 136 32 6 41 
115 4 111 15 123 158 
116 5 81 71 169 12 50 
117 7 20 8 22 125 45 68 35 
118 6 39 83 28 120 126 106 
119 4 97 49 110 13 
120 7 39 83 47 118 106 126 5 
121 7 3 17 38 27 12 169 61 
122 5 138 50 63 9 13 
123 7 15 158 95 115 93 163 111 
124 5 25 150 166 153 59 
125 7 20 89 8 117 45 56 109 
126 6 151 46 44 5 39 120 
127 6 65 45 112 125 20 89 
128 7 60 54 63 9 13 138 122 
129 5 93 158 77 123 15 
130 7 147 88 34 90 16 53 61 
131 5 146 161 57 29 149 
132 7 77 5 44 163 95 93 46 
133 5 139 14 152 51 58 
134 6 79 108 72 159 7 67 
135 7 136 82 37 86 114 6 32 
136 7 82 6 32 114 69 86 135 
137 4 103 174 7 67 
138 5 122 50 63 9 13 
139 5 133 14 152 51 52 
140 7 18 173 145 43 155 106 28 
141 7 4 58 64 21 96 74 160 
142 6 113 172 30 29 80 85 
143 5 55 118 75 109 28 
144 4 171 36 26 119 
145 6 155 106 28 140 173 18 
146 6 57 29 131 30 94 149 
147 7 88 34 90 61 27 17 53 
148 5 41 32 69 6 11 
149 5 94 2 29 57 146 
150 3 166 124 25 
151 6 126 46 44 5 39 120 
152 5 139 52 51 14 133 
153 5 10 124 59 66 150 
154 4 105 168 14 51 
155 6 145 106 28 47 140 83 
156 3 64 4 58 
157 4 102 174 19 103 
158 6 93 129 123 15 115 111 
159 7 7 108 79 176 137 67 103 
160 3 21 48 141 
161 2 131 25 
162 7 72 22 35 67 62 31 68 
163 7 95 5 132 44 77 15 123 
164 7 74 96 175 64 4 141 156 
165 7 35 31 22 43 162 8 117 
166 3 150 25 124 
167 5 92 110 13 9 49 
168 4 105 154 14 51 
169 7 12 71 38 81 116 121 3 
170 6 73 87 19 100 101 102 
171 5 144 26 36 104 119 
172 7 113 80 142 85 30 57 29 
173 7 140 18 43 145 75 155 56 
174 4 103 67 137 7 
175 6 96 74 164 4 64 141 
176 6 33 78 7 159 137 40 
DEPOT_SECTION
   1
   -1
EOF
