NAME :  X-n298-kX-w29-c7.cctp
COMMENT : 	Adapted by Maziero, Usberti and Cavellucci from the Uchoa, Pecin, Pessoa, Poggi, Subramanian, and Vidal (2013)
TYPE :  CCTP
DIMENSION :    156
EDGE_WEIGHT_TYPE : 	EUC_2D	
CAPACITY : 	55
VERTICES_WITHIN_COVERAGE :  7
VERTICES_WITH_DEMAND : 	29
NODE_COORD_SECTION
1 440 732
2 221 348
3 117 545
4 493 645
5 135 12
6 775 997
7 745 444
8 950 311
9 530 150
10 900 508
11 48 519
12 269 217
13 722 349
14 480 733
15 977 422
16 999 220
17 636 332
18 851 162
19 559 567
20 389 69
21 529 835
22 303 427
23 400 638
24 894 904
25 482 109
26 579 800
27 184 82
28 669 753
29 906 424
30 374 692
31 75 37
32 38 563
33 838 157
34 710 709
35 176 67
36 530 27
37 171 342
38 226 65
39 318 608
40 429 82
41 212 237
42 853 126
43 387 47
44 511 647
45 290 456
46 473 563
47 257 340
48 588 545
49 994 946
50 822 580
51 668 981
52 424 638
53 251 282
54 237 413
55 181 385
56 126 528
57 978 846
58 333 357
59 627 268
60 818 433
61 738 555
62 870 933
63 319 417
64 187 376
65 209 397
66 800 377
67 228 116
68 566 559
69 490 156
70 938 222
71 543 747
72 569 59
73 971 515
74 616 306
75 695 837
76 778 101
77 462 74
78 608 430
79 710 300
80 531 719
81 598 824
82 279 169
83 286 268
84 782 132
85 862 518
86 457 603
87 44 44
88 527 818
89 164 156
90 23 86
91 333 488
92 517 137
93 541 888
94 200 158
95 588 270
96 158 374
97 852 328
98 437 138
99 333 192
100 922 499
101 8 561
102 989 908
103 842 190
104 595 716
105 199 373
106 159 67
107 528 160
108 223 342
109 503 159
110 711 681
111 342 509
112 931 593
113 766 953
114 172 159
115 685 836
116 269 241
117 330 177
118 901 124
119 949 178
120 833 852
121 336 444
122 566 735
123 940 377
124 939 827
125 908 120
126 753 744
127 577 351
128 141 616
129 496 160
130 515 598
131 291 170
132 800 300
133 791 396
134 453 848
135 525 743
136 260 385
137 837 572
138 606 473
139 123 80
140 477 169
141 383 59
142 890 101
143 172 367
144 569 289
145 84 19
146 261 233
147 693 375
148 588 854
149 599 569
150 142 158
151 324 194
152 739 325
153 858 93
154 439 570
155 587 278
156 597 608
DEMAND_SECTION
2 2
3 9
4 1
5 4
6 9
7 5
8 7
9 2
10 4
11 7
12 2
13 9
14 5
15 10
16 5
17 8
18 5
19 8
20 8
21 6
22 7
23 2
24 1
25 3
26 9
27 1
28 1
29 10
30 3
COVERAGE_SECTION
2 7 108 105 47 64 37 65 143 
3 4 56 11 128 32 
4 6 44 130 86 52 80 46 
5 7 145 106 31 35 139 27 87 
6 3 113 51 62 
7 7 133 60 147 66 13 61 152 
8 7 123 70 97 16 15 29 119 
9 7 107 92 109 129 69 140 25 
10 7 100 85 73 29 112 137 50 
11 4 32 101 3 56 
12 7 146 116 82 131 83 41 151 
13 7 152 147 79 66 133 17 132 
14 7 135 80 71 122 4 44 88 
15 7 123 29 73 100 8 10 85 
16 5 70 119 8 125 118 
17 7 74 127 59 147 155 95 144 
18 7 33 103 42 118 153 125 142 
19 7 68 48 149 130 156 46 44 
20 7 141 43 40 77 98 25 117 
21 7 88 93 26 148 81 134 71 
22 7 63 45 121 136 54 91 58 
23 6 52 30 86 154 39 4 
24 7 62 120 124 102 57 49 113 
25 7 77 92 69 129 98 109 40 
26 7 81 88 148 21 71 122 135 
27 7 35 106 38 67 139 89 94 
28 7 34 104 110 126 115 75 81 
29 7 123 15 100 10 60 85 97 
30 4 23 52 39 14 
31 6 145 87 139 5 90 106 
32 2 101 11 
33 7 18 103 42 84 153 118 142 
34 4 110 126 28 104 
35 7 27 106 38 139 5 67 89 
36 5 72 77 25 92 40 
37 7 143 96 64 105 55 2 108 
38 7 27 35 67 106 94 139 5 
39 2 23 30 
40 7 77 20 141 43 98 25 69 
41 7 146 116 12 53 83 94 114 
42 7 153 33 18 142 118 125 103 
43 7 141 20 40 77 98 25 117 
44 6 4 130 86 80 52 14 
45 5 22 121 63 91 54 
46 4 154 86 130 4 
47 6 108 2 136 53 105 65 
48 6 68 149 19 156 138 130 
49 6 102 57 24 62 124 120 
50 4 137 85 61 10 
51 2 113 6 
52 6 23 86 4 154 30 44 
53 7 83 116 146 47 41 108 12 
54 6 65 136 105 64 55 2 
55 7 64 143 105 96 65 37 2 
56 4 3 11 128 32 
57 5 124 102 49 24 62 
58 4 63 22 47 136 
59 5 95 74 155 144 17 
60 7 133 66 7 29 85 97 10 
61 3 50 137 7 
62 7 24 120 113 6 102 49 124 
63 6 22 121 45 58 136 91 
64 7 55 105 143 96 65 37 2 
65 6 105 55 64 54 143 2 
66 7 133 60 97 132 152 13 7 
67 7 94 38 27 35 114 82 89 
68 7 19 48 149 156 130 46 138 
69 7 129 109 140 92 107 9 25 
70 7 119 16 8 103 118 18 125 
71 7 135 122 80 104 26 14 88 
72 5 36 92 9 25 77 
73 6 100 10 112 15 85 29 
74 6 17 59 155 95 144 127 
75 3 115 28 81 
76 5 84 42 153 33 18 
77 7 40 25 98 20 43 141 36 
78 4 138 127 147 17 
79 6 152 13 147 17 59 132 
80 6 135 71 122 14 104 44 
81 6 26 148 21 88 93 115 
82 7 131 12 151 117 99 146 116 
83 5 116 53 146 12 47 
84 4 76 33 42 18 
85 7 10 137 100 50 60 112 29 
86 6 154 46 52 4 130 23 
87 5 31 90 145 139 5 
88 7 21 26 81 93 148 71 135 
89 7 114 150 94 67 27 139 106 
90 5 87 31 145 139 5 
91 5 111 121 45 22 63 
92 7 9 107 109 129 69 25 140 
93 4 21 148 88 81 
94 7 114 89 67 150 27 41 82 
95 6 155 144 59 74 17 127 
96 7 143 55 64 37 105 65 2 
97 7 132 66 133 8 123 29 60 
98 6 140 25 69 40 129 77 
99 5 151 117 131 82 12 
100 7 10 73 85 29 112 15 137 
101 2 32 11 
102 6 49 57 24 124 62 120 
103 7 18 33 42 84 118 125 153 
104 5 122 71 80 135 28 
105 7 64 55 65 143 2 108 96 
106 7 35 27 139 5 38 67 31 
107 7 9 92 109 129 69 140 25 
108 7 2 47 105 64 37 65 136 
109 7 129 69 107 92 9 140 25 
110 3 34 126 28 
111 4 91 121 45 22 
112 2 73 10 
113 3 6 51 62 
114 7 89 94 150 67 27 41 35 
115 3 75 28 81 
116 7 146 12 83 53 41 151 82 
117 5 99 151 131 82 12 
118 7 125 142 42 153 18 33 119 
119 6 70 16 125 118 142 18 
120 3 24 62 124 
121 6 63 22 91 45 111 58 
122 6 71 104 80 135 26 14 
123 7 15 29 8 97 100 60 10 
124 4 57 24 102 120 
125 6 118 142 42 153 18 119 
126 3 34 110 28 
127 5 74 17 144 155 95 
128 1 3 
129 7 69 109 140 92 107 9 25 
130 6 44 4 19 46 86 68 
131 7 82 117 151 99 12 146 116 
132 6 97 152 66 79 13 133 
133 7 66 60 7 13 152 97 132 
134 2 21 88 
135 7 71 80 122 14 88 104 26 
136 7 54 47 65 2 108 22 105 
137 5 50 85 10 112 61 
138 5 78 48 68 149 19 
139 6 106 35 27 31 5 145 
140 7 69 129 109 92 98 107 9 
141 7 20 43 40 77 98 25 117 
142 6 118 125 153 42 18 33 
143 7 96 64 55 37 105 65 2 
144 6 155 95 74 59 127 17 
145 6 31 87 5 139 106 90 
146 7 116 12 83 41 53 82 131 
147 7 13 152 17 79 7 133 78 
148 5 81 26 93 21 88 
149 5 48 68 156 19 130 
150 6 89 114 94 139 27 106 
151 6 99 117 131 82 12 116 
152 6 13 79 132 147 66 133 
153 7 42 142 118 125 33 18 76 
154 4 46 86 52 23 
155 6 95 144 74 59 17 127 
156 4 149 19 68 48 
DEPOT_SECTION
   1
   -1
EOF
