NAME :  X-n228-kX-w90-c11.cctp
COMMENT : 	Adapted by Maziero, Usberti and Cavellucci from the Uchoa, Pecin, Pessoa, Poggi, Subramanian, and Vidal (2013)
TYPE :  CCTP
DIMENSION :    226
EDGE_WEIGHT_TYPE : 	EUC_2D	
CAPACITY : 	154
VERTICES_WITHIN_COVERAGE :  11
VERTICES_WITH_DEMAND : 	90
NODE_COORD_SECTION
1 550 574
2 177 24
3 448 476
4 934 619
5 323 122
6 430 76
7 364 9
8 988 994
9 91 636
10 938 641
11 979 764
12 4 748
13 420 164
14 294 15
15 304 89
16 362 207
17 770 344
18 67 634
19 90 44
20 712 418
21 299 6
22 997 871
23 38 695
24 830 1000
25 916 622
26 445 107
27 314 222
28 292 519
29 183 344
30 520 434
31 262 283
32 996 902
33 115 158
34 371 61
35 971 352
36 448 484
37 299 89
38 402 147
39 537 431
40 389 48
41 186 22
42 658 505
43 459 528
44 956 900
45 486 383
46 36 651
47 994 713
48 270 100
49 944 606
50 813 917
51 318 42
52 17 369
53 398 280
54 74 760
55 910 623
56 96 604
57 432 96
58 188 17
59 441 480
60 458 124
61 557 620
62 196 51
63 253 137
64 953 658
65 389 0
66 386 127
67 140 683
68 293 75
69 475 386
70 224 487
71 299 157
72 556 346
73 366 110
74 681 864
75 220 97
76 382 140
77 266 88
78 440 423
79 168 19
80 616 244
81 270 177
82 126 666
83 332 85
84 234 26
85 834 571
86 49 602
87 248 74
88 81 696
89 308 43
90 915 675
91 500 518
92 510 353
93 329 86
94 830 724
95 993 634
96 959 600
97 991 973
98 411 25
99 382 303
100 477 58
101 225 31
102 439 456
103 120 710
104 462 471
105 107 134
106 970 995
107 427 501
108 938 650
109 370 16
110 460 140
111 263 59
112 411 89
113 953 944
114 79 357
115 757 867
116 343 121
117 361 316
118 407 508
119 414 117
120 576 591
121 544 44
122 418 27
123 837 660
124 174 487
125 168 601
126 854 575
127 615 52
128 193 51
129 458 659
130 957 641
131 51 647
132 137 714
133 203 140
134 386 146
135 976 649
136 281 121
137 453 69
138 393 25
139 341 532
140 466 153
141 507 472
142 946 963
143 327 78
144 301 135
145 256 139
146 997 980
147 343 173
148 860 622
149 151 798
150 317 211
151 418 6
152 833 694
153 83 641
154 229 449
155 283 204
156 513 697
157 232 96
158 247 22
159 651 664
160 857 701
161 337 72
162 439 65
163 398 106
164 409 24
165 931 476
166 368 92
167 97 676
168 880 606
169 281 199
170 410 110
171 252 22
172 181 147
173 945 948
174 135 618
175 348 443
176 296 39
177 953 368
178 81 826
179 997 734
180 533 134
181 372 134
182 231 681
183 317 479
184 143 603
185 122 38
186 220 898
187 946 690
188 95 37
189 429 9
190 137 64
191 361 258
192 153 65
193 536 296
194 509 404
195 423 59
196 162 759
197 525 342
198 943 678
199 522 195
200 463 29
201 371 335
202 289 136
203 191 568
204 505 381
205 265 55
206 125 62
207 304 44
208 958 610
209 975 966
210 277 631
211 285 169
212 486 111
213 940 621
214 993 964
215 771 548
216 484 276
217 440 455
218 104 561
219 200 61
220 491 62
221 277 169
222 177 695
223 628 312
224 430 429
225 945 994
226 461 608
DEMAND_SECTION
2 79
3 57
4 88
5 54
6 92
7 84
8 61
9 100
10 61
11 69
12 78
13 54
14 59
15 60
16 61
17 85
18 67
19 96
20 57
21 57
22 52
23 80
24 60
25 71
26 93
27 59
28 88
29 77
30 50
31 98
32 53
33 54
34 99
35 10
36 9
37 8
38 9
39 7
40 10
41 9
42 2
43 3
44 3
45 7
46 8
47 3
48 2
49 2
50 10
51 2
52 10
53 3
54 9
55 7
56 4
57 6
58 6
59 3
60 3
61 9
62 9
63 9
64 5
65 2
66 10
67 2
68 5
69 9
70 6
71 3
72 7
73 10
74 7
75 10
76 6
77 3
78 10
79 6
80 2
81 4
82 4
83 9
84 5
85 9
86 5
87 5
88 7
89 1
90 10
91 4
COVERAGE_SECTION
2 11 41 79 58 128 62 219 192 101 84 185 190 
3 11 36 59 104 102 217 107 224 118 43 78 141 
4 11 213 49 25 10 55 208 96 108 130 64 135 
5 11 116 144 93 202 15 83 37 71 136 143 73 
6 11 162 195 57 112 137 26 170 119 163 40 100 
7 11 109 65 138 40 164 98 34 151 51 122 21 
8 11 146 106 97 214 209 225 142 113 173 32 44 
9 11 153 18 56 167 131 82 174 86 46 88 184 
10 11 108 130 213 4 64 25 55 49 198 208 135 
11 11 179 47 187 198 22 64 90 135 108 130 10 
12 11 23 54 88 46 178 131 167 103 18 153 132 
13 11 38 134 76 110 119 140 66 60 170 181 26 
14 11 21 176 89 207 51 171 158 205 111 68 84 
15 11 37 68 93 143 83 48 161 5 77 136 207 
16 11 147 150 27 191 134 76 13 38 181 155 71 
17 11 20 223 80 177 42 35 215 165 72 85 193 
18 11 153 131 9 46 86 56 167 88 82 23 174 
19 11 188 185 206 190 192 79 2 105 41 58 128 
20 11 17 42 223 215 72 39 30 85 80 197 194 
21 11 14 176 89 207 51 171 158 205 111 7 84 
22 11 32 44 113 173 214 209 97 142 11 146 8 
23 11 88 46 131 167 12 18 153 54 9 103 82 
24 11 50 225 142 173 113 106 209 115 8 44 97 
25 11 55 4 213 10 49 108 168 208 130 96 64 
26 11 57 60 119 6 170 110 112 137 212 162 163 
27 11 150 155 169 16 147 191 211 81 221 71 31 
28 11 183 139 70 154 175 203 210 118 124 107 125 
29 11 31 114 154 124 70 52 155 169 27 117 81 
30 11 39 194 141 204 45 69 104 78 92 3 217 
31 11 27 155 169 150 29 191 117 81 221 211 201 
32 11 22 44 113 214 209 173 97 146 142 8 106 
33 11 105 172 133 190 206 192 19 185 75 188 219 
34 11 40 166 161 138 109 83 143 73 93 112 7 
35 11 177 165 17 96 126 49 85 208 20 4 168 
36 11 3 59 104 107 102 217 43 118 224 141 78 
37 11 15 68 93 143 48 77 83 136 5 161 207 
38 11 134 76 13 66 119 181 170 163 73 110 26 
39 11 30 194 141 204 45 69 92 104 72 197 91 
40 11 34 138 164 98 122 195 109 7 112 65 166 
41 11 58 2 79 128 62 101 219 84 192 158 190 
42 11 20 120 215 39 61 30 141 91 159 194 85 
43 11 91 107 36 59 3 118 104 141 102 217 226 
44 11 32 113 173 22 142 209 214 97 146 225 106 
45 11 69 204 194 92 197 30 78 39 224 72 217 
46 11 131 18 23 153 86 9 88 167 56 82 12 
47 11 179 11 187 198 135 64 95 130 108 90 10 
48 11 77 136 37 68 87 15 157 63 145 202 111 
49 11 208 4 96 213 25 10 130 55 108 64 135 
50 11 115 24 173 142 74 113 44 225 209 106 32 
51 11 89 207 176 14 161 143 21 68 83 93 15 
52 11 114 29 124 218 154 33 86 70 56 105 31 
53 11 99 191 117 201 16 216 27 150 13 147 69 
54 11 88 178 103 12 23 132 149 167 196 67 82 
55 11 25 4 213 10 168 49 108 130 148 208 90 
56 11 9 153 174 18 218 86 184 131 82 125 167 
57 11 26 6 112 170 119 162 137 163 60 195 110 
58 11 41 2 79 128 62 101 219 84 158 192 171 
59 11 3 36 104 102 107 217 118 43 224 78 141 
60 11 110 26 140 212 57 119 170 13 137 6 112 
61 11 120 156 226 159 129 91 43 42 141 36 107 
62 11 128 219 41 2 58 101 79 84 192 75 87 
63 11 145 136 202 221 48 81 211 157 144 71 133 
64 11 108 130 198 10 135 187 213 90 4 95 208 
65 11 109 138 7 151 164 98 122 189 40 34 195 
66 11 76 181 134 163 38 73 170 119 166 116 112 
67 11 82 132 103 222 167 88 174 9 153 196 184 
68 11 37 15 77 207 48 111 143 205 89 176 93 
69 11 45 204 194 92 78 224 30 197 39 217 102 
70 11 154 124 28 203 183 139 125 175 184 218 29 
71 11 211 144 202 221 81 136 5 169 145 147 63 
72 11 197 92 193 204 194 45 223 39 69 30 216 
73 11 166 116 181 66 163 76 134 83 93 170 5 
74 11 115 50 24 159 94 152 156 160 123 61 44 
75 11 157 87 219 133 77 48 62 63 128 145 111 
76 11 134 181 66 38 73 163 119 170 116 13 166 
77 11 48 87 111 68 37 205 157 136 15 75 63 
78 11 224 217 102 69 104 3 59 45 36 194 204 
79 11 2 41 58 128 62 192 185 219 190 101 206 
80 11 223 193 199 72 197 216 180 92 140 204 17 
81 11 221 211 169 155 71 145 63 202 144 136 150 
82 11 67 167 103 9 132 174 153 88 222 184 18 
83 11 93 143 161 15 37 166 5 116 68 73 51 
84 11 101 158 171 205 111 62 58 41 128 219 87 
85 11 126 148 168 215 123 55 25 4 49 213 152 
86 11 18 131 56 46 153 9 218 174 167 23 184 
87 11 111 77 205 157 48 75 68 101 84 219 158 
88 11 167 103 23 82 153 131 132 67 9 18 46 
89 11 207 51 176 14 68 21 143 161 205 15 37 
90 11 198 108 187 10 64 55 25 130 4 213 160 
91 11 43 141 104 36 3 59 107 30 102 217 118 
92 11 197 204 45 72 69 194 193 216 30 39 78 
93 11 83 143 161 15 37 5 68 116 166 73 51 
94 11 152 160 123 90 148 187 198 168 55 108 25 
95 11 135 130 208 64 96 10 213 49 108 4 198 
96 11 208 49 213 4 130 10 25 95 135 55 108 
97 11 146 214 209 8 106 142 113 225 173 32 44 
98 11 164 122 138 151 189 40 65 195 109 162 7 
99 11 117 53 201 191 16 27 216 150 31 69 45 
100 9 220 137 200 162 6 195 212 26 57 
101 11 84 158 171 62 128 219 41 58 111 205 2 
102 11 217 3 59 104 224 36 78 107 118 141 43 
103 11 132 67 88 167 82 222 196 54 153 9 23 
104 11 3 36 59 102 217 141 107 78 224 43 91 
105 11 33 206 172 190 192 19 133 185 188 219 75 
106 11 8 225 209 97 146 214 142 173 113 44 32 
107 11 118 59 36 3 43 104 102 217 224 91 78 
108 11 10 64 130 198 213 4 90 25 135 55 187 
109 11 7 65 138 40 164 98 34 122 151 51 189 
110 11 140 60 26 212 13 119 57 38 170 6 112 
111 11 205 87 77 68 171 176 158 48 84 207 37 
112 11 163 170 57 6 119 195 162 26 166 66 40 
113 11 173 142 209 44 214 97 225 106 146 32 8 
114 11 52 29 124 154 70 31 33 218 105 172 203 
115 11 50 74 24 94 152 160 44 173 113 142 123 
116 11 5 73 181 83 93 166 66 76 144 143 161 
117 11 201 99 53 191 31 27 16 150 175 216 224 
118 11 107 59 36 3 43 102 217 104 139 224 175 
119 11 170 163 57 112 66 38 26 76 134 6 60 
120 11 61 91 159 226 42 156 43 129 141 39 104 
121 9 220 100 127 200 212 180 137 162 26 
122 11 98 164 151 189 138 195 40 65 162 200 109 
123 11 152 148 160 94 168 90 55 126 25 85 108 
124 11 70 154 203 218 125 184 28 174 56 29 183 
125 11 184 174 203 56 218 82 9 67 153 222 182 
126 11 85 168 148 55 25 123 215 4 49 213 10 
127 9 121 180 220 100 212 200 137 199 60 
128 11 62 219 41 2 58 101 79 192 84 75 190 
129 11 226 156 61 43 120 91 118 107 139 36 59 
130 11 64 10 108 135 213 208 4 49 95 198 96 
131 11 46 18 153 9 86 23 167 88 56 82 174 
132 11 103 67 222 82 196 167 88 54 149 9 153 
133 11 172 75 63 145 157 81 48 219 221 87 136 
134 11 76 38 181 66 13 119 73 163 170 116 147 
135 11 130 95 64 108 10 208 198 213 187 4 96 
136 11 202 48 144 145 63 77 37 15 71 5 68 
137 11 162 6 100 195 57 26 220 200 112 212 60 
138 11 164 98 40 65 109 122 151 7 189 34 195 
139 11 28 183 118 175 107 59 36 43 210 3 102 
140 11 110 60 13 212 26 119 38 57 180 199 170 
141 11 30 104 91 39 3 36 59 194 217 102 43 
142 11 173 113 209 225 106 97 214 8 146 44 32 
143 11 93 83 161 15 37 68 51 89 207 166 5 
144 11 202 71 136 5 211 221 116 145 15 37 48 
145 11 63 136 202 221 81 48 211 144 71 157 77 
146 11 97 214 8 209 106 142 225 113 173 32 44 
147 11 16 150 71 181 76 134 116 5 27 144 211 
148 11 168 123 126 55 25 85 4 90 152 160 10 
149 11 196 178 132 54 103 222 67 186 88 167 82 
150 11 27 155 169 16 147 211 71 81 221 191 144 
151 11 189 98 164 122 65 138 109 40 200 195 7 
152 11 160 94 123 148 90 168 55 25 198 187 108 
153 11 9 18 131 167 56 46 82 86 88 174 23 
154 11 70 124 183 28 29 175 203 139 125 218 31 
155 11 169 81 150 211 27 221 71 147 202 145 144 
156 11 129 61 226 120 159 43 91 107 118 36 141 
157 11 75 87 77 48 63 219 111 145 133 205 136 
158 11 171 84 101 205 111 14 87 176 21 58 62 
159 11 61 120 156 42 215 152 123 94 129 226 74 
160 11 152 94 123 90 148 198 187 55 108 168 25 
161 11 143 83 93 34 51 15 166 89 37 207 68 
162 11 6 137 195 57 112 100 26 122 200 98 164 
163 11 170 119 112 66 73 166 57 76 181 38 134 
164 11 98 122 138 151 189 40 65 195 109 7 162 
165 11 177 126 96 35 49 85 208 168 4 213 25 
166 11 73 34 163 83 161 116 66 93 181 112 143 
167 11 88 82 153 9 103 67 18 131 132 23 46 
168 11 148 55 25 126 4 85 213 49 10 123 108 
169 11 155 81 211 221 150 27 71 202 145 144 147 
170 11 119 163 112 57 66 26 38 6 76 134 73 
171 11 158 84 101 205 111 14 176 21 87 207 89 
172 11 133 75 33 157 63 105 145 192 219 81 190 
173 11 113 142 209 225 44 214 97 106 146 8 32 
174 11 184 125 56 9 82 153 67 218 167 18 203 
175 11 183 224 118 139 102 217 28 78 107 59 3 
176 11 207 89 51 14 21 205 68 111 171 37 143 
177 11 35 165 17 126 96 85 49 208 20 168 4 
178 11 54 149 196 12 103 132 88 23 167 67 186 
179 11 47 11 187 198 64 135 95 90 130 108 10 
180 11 212 199 140 110 60 220 121 26 100 137 57 
181 11 76 66 134 73 116 38 163 166 119 170 147 
182 11 222 210 67 132 125 196 82 103 174 184 203 
183 11 28 175 139 70 154 118 107 59 102 224 217 
184 11 174 125 56 218 203 9 82 153 67 18 167 
185 11 206 188 190 19 192 79 2 41 58 128 62 
186 11 149 196 178 54 132 222 103 182 67 88 82 
187 11 198 64 90 108 10 130 135 47 179 213 4 
188 11 19 185 206 190 192 79 2 41 58 105 128 
189 11 151 122 98 164 138 200 65 195 40 162 109 
190 11 206 192 185 188 19 79 2 128 62 219 41 
191 11 53 99 16 117 27 150 201 147 155 169 31 
192 11 190 206 185 128 62 219 2 79 41 58 188 
193 11 197 72 216 92 204 223 80 45 199 69 194 
194 11 204 45 30 69 39 92 197 141 78 72 104 
195 11 162 6 112 122 137 40 98 57 164 138 189 
196 11 149 132 103 222 67 54 82 88 182 167 178 
197 11 92 72 204 193 45 194 69 216 39 30 223 
198 11 187 64 90 108 10 130 135 213 4 25 47 
199 11 180 140 110 216 212 60 193 80 13 26 38 
200 11 100 189 137 162 220 122 195 151 98 164 6 
201 11 117 99 53 191 175 224 78 69 31 45 27 
202 11 144 136 71 145 211 221 63 5 48 81 37 
203 11 125 184 174 124 70 218 56 210 28 82 182 
204 11 45 194 92 69 197 30 39 72 78 224 193 
205 11 111 87 77 68 171 176 158 207 84 48 89 
206 11 190 185 192 19 188 79 2 128 62 41 105 
207 11 89 176 51 14 68 21 143 205 161 111 15 
208 11 96 49 213 4 130 10 95 135 25 108 64 
209 11 97 214 146 106 142 8 113 173 225 32 44 
210 11 182 203 28 125 139 222 184 174 67 70 82 
211 11 221 81 71 169 202 155 144 145 63 136 150 
212 11 60 110 26 140 220 180 137 100 57 6 162 
213 11 4 49 10 208 25 130 96 108 55 64 135 
214 11 97 146 209 8 106 113 142 173 225 32 44 
215 11 85 126 148 42 168 123 20 55 152 25 159 
216 11 193 197 92 53 199 72 99 45 204 69 140 
217 11 102 3 59 104 224 36 78 107 118 141 43 
218 11 56 184 174 86 125 9 18 153 203 131 124 
219 11 62 128 101 41 75 2 58 157 192 84 87 
220 9 100 137 200 212 162 121 6 26 57 
221 11 211 81 71 169 202 155 145 63 144 136 150 
222 11 67 132 182 82 103 196 167 174 125 88 184 
223 11 80 72 193 197 92 20 204 17 216 39 194 
224 11 78 102 217 3 59 104 36 69 45 107 118 
225 11 106 142 209 8 173 97 113 146 214 44 32 
226 11 129 43 61 91 156 107 118 120 36 59 3 
DEPOT_SECTION
   1
   -1
EOF
