NAME :  X-n261-kX-w104-c11.cctp
COMMENT : 	Adapted by Maziero, Usberti and Cavellucci from the Uchoa, Pecin, Pessoa, Poggi, Subramanian, and Vidal (2013)
TYPE :  CCTP
DIMENSION :    261
EDGE_WEIGHT_TYPE : 	EUC_2D	
CAPACITY : 	1081
VERTICES_WITHIN_COVERAGE :  11
VERTICES_WITH_DEMAND : 	104
NODE_COORD_SECTION
1 0 0
2 377 105
3 535 93
4 820 625
5 689 745
6 774 283
7 399 810
8 242 139
9 300 948
10 557 255
11 22 828
12 27 768
13 961 829
14 825 225
15 288 996
16 126 160
17 219 243
18 504 918
19 532 806
20 566 734
21 327 943
22 848 66
23 45 889
24 952 169
25 736 63
26 939 925
27 569 517
28 969 917
29 603 637
30 188 762
31 800 102
32 879 687
33 289 83
34 836 360
35 887 699
36 21 962
37 857 715
38 447 519
39 931 500
40 316 483
41 572 230
42 417 554
43 488 340
44 760 763
45 403 224
46 470 796
47 67 194
48 927 576
49 524 679
50 155 89
51 629 678
52 469 465
53 810 467
54 354 298
55 87 548
56 618 236
57 338 855
58 774 799
59 811 201
60 684 462
61 892 995
62 449 985
63 120 176
64 552 983
65 455 433
66 244 763
67 790 650
68 189 400
69 717 607
70 351 60
71 546 941
72 138 585
73 567 342
74 790 315
75 568 9
76 20 172
77 600 355
78 909 984
79 992 956
80 36 62
81 614 755
82 883 36
83 401 520
84 463 924
85 109 540
86 218 461
87 337 584
88 157 686
89 789 99
90 246 760
91 792 669
92 52 48
93 60 712
94 629 450
95 712 438
96 661 974
97 533 49
98 853 566
99 495 195
100 573 191
101 519 673
102 737 157
103 493 383
104 957 695
105 536 532
106 926 788
107 513 86
108 59 246
109 803 472
110 391 39
111 311 531
112 706 871
113 741 723
114 936 7
115 100 581
116 799 359
117 477 410
118 689 805
119 45 244
120 818 770
121 339 47
122 607 57
123 763 168
124 324 924
125 358 40
126 977 409
127 823 138
128 453 911
129 771 182
130 912 18
131 251 585
132 422 585
133 514 160
134 854 59
135 24 75
136 22 64
137 729 52
138 73 223
139 572 821
140 126 236
141 259 824
142 167 213
143 277 169
144 184 250
145 153 833
146 563 253
147 978 112
148 724 23
149 161 329
150 15 579
151 461 782
152 851 737
153 237 951
154 105 942
155 972 950
156 749 340
157 36 228
158 744 110
159 705 528
160 181 44
161 420 81
162 671 370
163 309 69
164 987 831
165 951 322
166 953 17
167 388 269
168 585 943
169 395 150
170 484 870
171 995 462
172 472 391
173 221 661
174 488 756
175 138 121
176 724 451
177 102 334
178 16 23
179 280 363
180 491 164
181 414 545
182 448 33
183 835 445
184 506 839
185 734 57
186 991 663
187 671 263
188 578 546
189 344 527
190 180 806
191 608 856
192 93 625
193 731 998
194 380 871
195 920 900
196 518 179
197 80 406
198 282 281
199 835 214
200 895 580
201 785 78
202 407 979
203 31 260
204 346 961
205 938 233
206 603 917
207 144 637
208 572 723
209 838 477
210 545 568
211 260 584
212 348 33
213 483 309
214 237 419
215 417 484
216 33 323
217 79 619
218 514 471
219 108 359
220 59 792
221 532 185
222 536 745
223 781 371
224 440 901
225 953 180
226 290 771
227 332 323
228 264 881
229 152 663
230 94 101
231 614 160
232 202 225
233 148 85
234 93 799
235 934 466
236 999 195
237 660 791
238 761 946
239 547 966
240 980 316
241 608 512
242 398 136
243 166 24
244 547 880
245 620 872
246 634 985
247 457 149
248 682 442
249 523 885
250 926 617
251 536 487
252 445 327
253 851 455
254 59 176
255 474 325
256 471 123
257 335 879
258 650 321
259 796 593
260 477 184
261 417 342
DEMAND_SECTION
2 64
3 73
4 98
5 36
6 76
7 13
8 74
9 43
10 80
11 59
12 95
13 33
14 68
15 35
16 64
17 59
18 22
19 10
20 60
21 36
22 20
23 49
24 67
25 69
26 83
27 99
28 25
29 94
30 34
31 96
32 8
33 49
34 89
35 99
36 21
37 70
38 71
39 45
40 32
41 11
42 48
43 35
44 21
45 90
46 99
47 41
48 55
49 59
50 1
51 36
52 94
53 97
54 44
55 55
56 13
57 35
58 71
59 78
60 57
61 96
62 41
63 35
64 13
65 70
66 17
67 41
68 18
69 6
70 81
71 55
72 80
73 34
74 76
75 58
76 33
77 10
78 64
79 66
80 12
81 87
82 21
83 61
84 54
85 7
86 48
87 47
88 26
89 26
90 9
91 35
92 77
93 57
94 97
95 51
96 10
97 39
98 25
99 66
100 92
101 36
102 35
103 59
104 71
105 53
COVERAGE_SECTION
2 11 242 169 161 70 110 125 121 163 212 33 247 
3 11 107 97 133 256 122 180 196 75 221 247 231 
4 11 67 259 91 98 32 200 37 35 69 250 152 
5 11 237 113 118 44 81 51 58 208 20 112 91 
6 11 74 156 14 116 223 59 199 34 129 187 123 
7 11 194 151 46 57 257 224 170 174 184 128 226 
8 11 143 33 232 163 50 142 175 17 233 160 16 
9 11 21 124 204 15 153 228 257 57 194 202 141 
10 11 146 41 56 100 221 196 99 73 213 133 260 
11 11 220 12 23 234 93 145 36 154 190 30 88 
12 11 220 11 93 234 23 145 88 192 190 217 30 
13 11 164 106 195 28 26 155 79 104 152 35 37 
14 11 199 59 129 6 123 127 74 102 205 31 89 
15 11 9 21 153 204 124 228 202 257 57 194 62 
16 11 63 175 142 230 47 254 140 50 233 138 232 
17 11 232 144 142 198 140 143 149 8 63 16 179 
18 11 249 84 71 128 170 244 239 224 184 64 168 
19 11 184 139 222 46 174 151 244 20 170 249 191 
20 11 208 222 81 49 101 19 174 51 139 29 237 
21 11 124 204 9 257 15 202 228 57 194 153 224 
22 11 134 82 31 201 89 127 130 114 25 158 185 
23 11 11 36 154 220 234 12 145 190 93 30 153 
24 11 225 236 147 205 199 127 14 59 22 134 82 
25 11 185 137 148 158 201 89 31 102 123 22 127 
26 11 28 195 155 79 78 61 13 164 106 238 120 
27 11 188 105 241 251 210 218 94 52 38 29 60 
28 11 26 155 79 195 13 164 78 61 106 238 120 
29 11 51 49 210 101 208 188 20 69 81 27 105 
30 11 190 66 90 145 88 141 226 234 229 173 220 
31 11 89 201 127 158 22 134 25 123 185 102 129 
32 11 35 37 152 104 250 4 91 67 120 200 106 
33 11 163 121 70 8 212 125 143 2 110 160 242 
34 11 116 223 74 183 156 253 6 53 109 209 165 
35 11 32 37 152 104 250 106 120 4 91 67 186 
36 11 23 154 11 220 234 145 12 153 190 93 228 
37 11 152 35 32 120 91 67 4 106 104 44 113 
38 11 181 42 83 215 52 132 218 65 105 251 189 
39 11 235 171 48 200 253 209 98 126 183 250 53 
40 11 111 189 83 86 215 214 87 211 181 131 42 
41 11 146 10 100 56 221 196 231 99 133 180 187 
42 11 181 132 83 38 215 189 87 52 111 105 40 
43 11 255 213 103 252 172 117 261 73 65 10 77 
44 11 58 113 120 5 118 152 91 237 37 67 112 
45 11 167 169 260 242 54 247 99 180 252 213 261 
46 11 151 174 184 19 7 170 222 249 139 224 20 
47 11 254 138 157 76 108 119 63 16 140 203 230 
48 11 200 250 98 39 186 235 4 32 104 35 259 
49 11 101 208 222 20 174 29 51 210 81 151 19 
50 11 233 175 160 230 243 16 63 8 92 80 142 
51 11 29 208 81 20 5 49 101 69 222 237 113 
52 11 65 218 215 117 38 251 172 103 83 105 181 
53 11 109 209 183 253 176 223 95 98 116 34 159 
54 11 227 167 198 261 45 252 179 255 213 43 17 
55 11 85 115 72 217 192 150 207 229 197 88 86 
56 11 41 146 187 10 100 231 258 221 196 73 77 
57 11 257 194 124 7 228 141 21 226 9 204 224 
58 11 44 120 113 118 112 152 5 237 37 91 238 
59 11 199 14 129 123 127 102 6 31 89 158 74 
60 11 248 95 176 94 159 241 162 109 53 27 223 
61 11 78 26 155 195 79 28 238 193 13 164 106 
62 11 202 84 128 224 18 239 64 204 71 170 249 
63 11 16 47 175 140 142 254 138 230 108 50 233 
64 11 239 71 168 18 246 206 249 62 244 84 96 
65 11 117 52 172 103 215 218 38 251 43 261 83 
66 11 90 226 30 141 190 173 145 88 228 57 229 
67 11 91 4 259 69 113 37 32 98 152 35 44 
68 11 214 86 149 219 179 177 197 144 198 40 17 
69 11 159 259 67 91 4 51 29 113 5 98 241 
70 11 121 125 212 163 110 2 33 161 242 169 182 
71 11 239 168 64 18 244 249 206 84 170 128 246 
72 11 115 207 85 192 55 217 229 88 131 173 211 
73 11 77 43 103 258 10 146 213 255 172 162 41 
74 11 6 116 156 223 34 14 199 59 187 162 129 
75 11 97 122 3 107 182 256 148 231 133 161 137 
76 11 254 47 157 138 119 108 203 135 63 230 16 
77 11 73 258 162 94 10 146 103 43 187 56 248 
78 11 61 26 155 195 79 28 238 13 164 193 106 
79 11 155 28 26 78 195 61 164 13 106 238 120 
80 11 136 135 92 178 230 76 233 254 175 50 16 
81 11 20 208 237 5 51 139 222 118 19 191 245 
82 11 130 134 22 114 166 31 201 89 127 147 25 
83 11 181 42 215 38 189 132 52 87 111 40 65 
84 11 128 224 18 170 62 249 202 71 239 184 244 
85 11 55 115 72 217 192 150 207 229 86 197 131 
86 11 214 68 40 111 179 131 211 85 189 149 72 
87 11 189 111 211 42 132 131 181 83 40 38 215 
88 11 229 207 173 30 192 93 72 217 66 90 115 
89 11 31 201 158 127 25 22 185 123 134 137 102 
90 11 66 226 30 141 190 173 88 145 228 57 229 
91 11 67 4 113 259 37 32 152 69 44 35 120 
92 11 80 136 135 178 230 233 50 175 243 76 254 
93 11 12 220 192 234 217 88 229 207 11 30 115 
94 11 248 60 241 95 27 162 176 77 251 159 188 
95 11 176 248 60 162 94 159 223 109 53 156 116 
96 11 246 193 206 168 238 64 245 112 239 71 191 
97 11 107 3 75 122 182 256 133 161 180 247 196 
98 11 200 259 4 48 250 209 39 67 109 53 253 
99 11 260 196 180 221 133 247 256 100 41 10 146 
100 11 41 221 231 196 146 56 10 133 99 180 260 
101 11 49 208 222 20 174 29 210 51 151 81 132 
102 11 123 129 158 89 31 59 127 201 25 185 137 
103 11 172 117 43 255 65 252 213 52 73 261 218 
104 11 186 35 32 250 106 37 152 48 200 13 164 
105 11 27 210 188 251 218 241 38 52 42 181 94 
106 11 13 164 152 35 104 37 120 32 195 28 26 
107 11 3 97 256 133 180 182 247 161 196 75 122 
108 11 119 138 157 203 47 140 254 216 76 63 177 
109 11 53 209 183 253 176 95 223 98 116 159 34 
110 11 125 212 70 161 121 182 2 163 242 33 169 
111 11 189 40 87 211 131 83 181 42 86 215 132 
112 11 118 245 237 238 58 191 96 206 44 5 193 
113 11 44 5 91 58 67 120 118 237 152 37 69 
114 11 166 130 82 134 22 147 24 31 201 89 127 
115 11 55 72 85 217 192 207 150 229 88 93 173 
116 11 223 34 74 156 6 183 53 253 109 95 176 
117 11 172 103 65 52 43 218 255 252 261 215 251 
118 11 237 5 112 44 58 81 191 245 113 139 120 
119 11 108 157 203 138 47 254 76 216 140 63 177 
120 11 152 58 44 37 113 35 32 91 106 67 5 
121 11 212 70 125 163 110 33 2 161 242 182 169 
122 11 75 97 3 107 231 137 148 185 25 100 133 
123 11 129 102 59 158 127 89 31 14 199 201 25 
124 11 21 9 204 257 57 228 194 15 153 202 224 
125 11 212 121 70 110 163 2 161 33 182 242 169 
126 11 171 235 165 240 39 253 183 34 209 48 53 
127 11 31 89 59 123 129 201 22 199 158 134 14 
128 11 84 224 18 170 62 249 202 194 184 71 244 
129 11 123 102 59 127 14 199 158 31 89 6 201 
130 11 114 82 166 134 22 147 31 201 89 127 24 
131 11 211 111 173 87 189 72 207 40 229 86 88 
132 11 42 181 83 38 87 189 215 111 210 105 52 
133 11 196 180 221 99 260 256 247 100 3 107 41 
134 11 22 82 31 130 201 89 127 114 166 25 185 
135 11 136 80 92 178 230 76 254 175 233 47 50 
136 11 135 80 92 178 230 76 254 233 175 50 47 
137 11 185 25 148 158 201 89 31 102 22 123 122 
138 11 108 47 119 157 254 140 203 63 76 16 142 
139 11 19 191 244 184 245 81 249 222 20 237 208 
140 11 142 138 63 144 108 47 16 232 119 157 254 
141 11 228 226 66 90 190 57 30 257 145 124 153 
142 11 232 144 140 17 63 16 138 175 47 8 108 
143 11 8 33 17 232 163 198 142 2 169 144 242 
144 11 232 17 142 140 149 63 198 16 138 177 143 
145 11 190 234 30 220 141 66 90 154 228 23 11 
146 11 10 41 56 100 221 196 73 99 213 133 231 
147 11 24 225 236 166 114 130 82 205 134 22 127 
148 11 137 185 25 201 158 89 31 122 22 102 134 
149 11 177 219 68 144 140 17 197 232 142 214 179 
150 11 217 55 115 192 85 72 93 207 229 88 197 
151 11 46 174 7 184 19 222 170 20 139 194 249 
152 11 37 120 35 32 91 106 44 58 67 113 104 
153 11 9 15 228 21 124 204 257 141 154 57 145 
154 11 23 36 145 153 11 234 190 220 228 12 15 
155 11 79 28 26 78 195 61 164 13 106 238 120 
156 11 223 74 116 6 162 34 258 95 187 176 248 
157 11 119 108 203 138 47 254 76 140 216 63 16 
158 11 89 25 102 201 185 31 137 123 129 127 148 
159 11 60 176 69 248 95 241 94 259 109 53 188 
160 11 243 50 233 175 230 8 33 16 92 163 63 
161 11 2 110 182 242 256 70 169 125 247 212 121 
162 11 258 77 248 95 156 94 60 176 187 73 223 
163 11 33 121 70 212 125 2 110 8 143 242 161 
164 11 13 106 28 195 26 155 79 104 152 35 186 
165 11 240 205 126 34 236 225 235 171 24 116 199 
166 11 114 130 82 147 134 22 24 225 31 127 201 
167 11 54 45 227 261 252 213 255 198 169 43 260 
168 11 206 71 239 64 246 244 245 96 18 249 191 
169 11 242 2 247 161 45 256 260 180 70 99 110 
170 11 184 249 128 18 224 84 244 46 19 151 71 
171 11 126 235 39 48 253 165 240 200 209 183 250 
172 11 117 103 65 43 255 252 52 261 213 218 73 
173 11 88 229 207 131 211 90 66 30 72 226 192 
174 11 151 46 222 19 20 49 184 101 208 7 139 
175 11 50 233 16 230 63 160 142 254 243 47 8 
176 11 95 60 248 159 109 53 94 162 223 183 156 
177 11 219 149 216 197 108 140 203 119 68 138 144 
178 11 136 80 92 135 230 233 76 243 50 175 254 
179 11 227 214 198 54 68 86 149 40 17 261 167 
180 11 133 260 99 196 247 221 256 107 3 100 169 
181 11 42 83 132 38 215 189 87 52 111 40 65 
182 11 161 110 107 97 125 256 212 2 70 3 121 
183 11 253 209 53 109 34 223 116 235 39 176 98 
184 11 170 19 249 46 244 139 151 18 174 128 224 
185 11 25 137 148 158 201 89 31 102 22 123 127 
186 11 104 250 48 35 32 200 106 37 152 164 13 
187 11 56 258 41 6 162 146 156 10 77 231 100 
188 11 27 210 105 241 251 29 218 94 159 38 60 
189 11 111 40 83 87 181 42 215 132 211 38 131 
190 11 145 30 66 90 141 234 228 226 88 220 229 
191 11 245 139 206 244 237 168 249 19 118 112 81 
192 11 217 115 207 72 229 55 85 88 150 93 173 
193 11 238 96 246 112 206 168 61 245 78 64 239 
194 11 57 257 7 224 124 128 21 204 84 170 9 
195 11 26 28 155 13 78 79 164 61 106 120 238 
196 11 221 133 99 180 260 100 247 256 41 10 146 
197 11 219 177 216 68 149 85 55 86 203 214 108 
198 11 227 17 54 179 232 144 167 143 149 45 142 
199 11 14 59 129 127 123 6 205 74 102 31 225 
200 11 48 98 250 4 39 259 32 209 35 235 67 
201 11 89 31 25 158 185 137 22 127 134 148 102 
202 11 62 204 84 128 224 21 124 9 194 18 15 
203 11 119 108 157 138 216 47 76 254 140 177 63 
204 11 21 124 9 202 15 257 194 57 62 153 224 
205 11 225 24 236 165 240 199 14 147 59 127 34 
206 11 168 245 191 71 244 239 246 96 64 249 18 
207 11 229 88 72 192 217 115 173 85 55 93 131 
208 11 20 222 81 49 51 101 174 29 19 139 237 
209 11 253 53 183 109 98 39 235 34 176 200 223 
210 11 105 188 27 251 241 29 218 101 38 49 132 
211 11 131 111 87 173 189 40 72 207 86 229 88 
212 11 125 121 70 110 163 33 2 161 182 242 169 
213 11 255 43 252 261 103 172 73 10 146 117 167 
214 11 86 68 179 40 149 111 227 219 198 189 197 
215 11 83 38 52 181 65 42 189 117 218 40 132 
216 11 203 177 119 108 219 157 197 138 140 149 47 
217 11 192 115 207 72 55 150 85 229 93 88 173 
218 11 251 52 105 65 117 27 38 103 172 215 188 
219 11 177 197 149 216 68 108 140 203 119 144 138 
220 11 234 12 11 93 23 145 190 30 88 154 229 
221 11 196 133 99 100 180 260 41 10 146 247 231 
222 11 20 208 174 19 49 101 81 46 139 151 184 
223 11 116 156 34 74 6 183 95 176 53 109 253 
224 11 128 84 170 18 194 62 202 249 184 7 257 
225 11 24 236 205 147 199 14 127 240 165 59 22 
226 11 90 66 141 57 30 228 190 7 257 173 194 
227 11 54 198 179 167 261 252 45 214 17 255 213 
228 11 141 257 124 153 9 57 21 190 226 204 194 
229 11 88 207 173 192 72 217 115 93 30 131 85 
230 11 175 233 50 16 92 80 135 63 136 254 47 
231 11 100 56 41 221 196 133 122 3 146 10 187 
232 11 17 144 142 140 143 8 63 198 16 149 175 
233 11 50 175 160 230 243 16 63 92 8 80 135 
234 11 220 145 12 11 190 93 23 30 88 154 229 
235 11 39 171 126 253 209 183 48 200 53 98 109 
236 11 225 24 205 147 240 165 199 14 166 127 59 
237 11 118 5 81 191 245 112 139 44 113 20 208 
238 11 193 112 96 246 61 58 78 118 245 206 195 
239 11 64 71 168 18 206 249 244 246 84 62 128 
240 11 165 126 205 236 225 171 24 34 235 199 14 
241 11 27 188 94 105 251 210 60 159 248 218 29 
242 11 169 2 161 247 256 45 70 260 110 180 125 
243 11 160 233 50 175 230 92 80 33 8 16 136 
244 11 249 18 184 71 139 170 191 206 245 168 19 
245 11 191 206 139 244 168 112 237 118 249 71 19 
246 11 96 168 206 64 239 71 193 245 191 238 112 
247 11 256 180 260 133 99 242 169 196 161 221 107 
248 11 60 95 176 94 162 159 241 77 156 223 109 
249 11 244 18 170 184 71 84 128 19 139 239 168 
250 11 48 200 186 32 104 98 35 4 39 37 259 
251 11 218 27 105 52 188 241 210 38 65 117 94 
252 11 255 261 213 43 172 103 167 117 54 65 45 
253 11 183 209 53 109 235 39 34 116 223 98 176 
254 11 47 76 138 157 63 16 119 108 230 203 140 
255 11 213 43 252 261 103 172 117 73 167 10 65 
256 11 247 180 107 133 260 161 3 196 242 99 169 
257 11 57 124 194 21 228 9 204 7 141 224 226 
258 11 162 77 187 73 56 156 146 10 41 248 6 
259 11 4 67 98 91 69 200 159 109 209 32 53 
260 11 99 180 247 196 133 221 256 45 169 242 100 
261 11 252 255 43 172 213 54 167 103 227 117 65 
DEPOT_SECTION
   1
   -1
EOF
