NAME :  X-n214-kX-w21-c7.cctp
COMMENT : 	Adapted by Maziero, Usberti and Cavellucci from the Uchoa, Pecin, Pessoa, Poggi, Subramanian, and Vidal (2013)
TYPE :  CCTP
DIMENSION :    134
EDGE_WEIGHT_TYPE : 	EUC_2D	
CAPACITY : 	944
VERTICES_WITHIN_COVERAGE :  7
VERTICES_WITH_DEMAND : 	21
NODE_COORD_SECTION
1 500 500
2 753 355
3 663 83
4 725 286
5 581 444
6 700 205
7 630 475
8 560 407
9 848 374
10 752 315
11 454 310
12 685 227
13 747 468
14 540 348
15 882 346
16 762 228
17 884 307
18 681 274
19 761 254
20 791 205
21 699 559
22 694 352
23 838 395
24 769 381
25 710 296
26 653 489
27 711 447
28 516 322
29 704 265
30 742 358
31 578 423
32 923 378
33 449 254
34 701 203
35 751 293
36 640 218
37 465 361
38 894 399
39 824 388
40 561 443
41 663 9
42 768 339
43 735 280
44 842 365
45 671 124
46 680 251
47 558 451
48 884 356
49 746 384
50 687 227
51 855 350
52 656 450
53 560 459
54 591 433
55 739 215
56 742 304
57 509 418
58 667 17
59 534 297
60 817 366
61 728 264
62 856 360
63 666 107
64 538 317
65 875 290
66 725 237
67 563 394
68 775 378
69 587 443
70 696 387
71 704 153
72 557 440
73 762 279
74 824 522
75 764 259
76 759 334
77 893 283
78 900 308
79 641 474
80 852 182
81 526 330
82 735 460
83 901 303
84 545 395
85 741 339
86 795 456
87 783 343
88 694 224
89 698 323
90 683 222
91 704 269
92 769 321
93 605 103
94 567 464
95 743 205
96 622 449
97 745 269
98 603 447
99 634 194
100 662 86
101 489 267
102 569 497
103 683 355
104 682 81
105 701 170
106 683 308
107 659 582
108 668 329
109 662 288
110 897 399
111 770 366
112 582 485
113 848 381
114 828 150
115 770 259
116 702 94
117 823 162
118 552 317
119 626 88
120 860 274
121 654 285
122 637 568
123 449 359
124 552 440
125 810 205
126 728 294
127 733 311
128 750 327
129 727 278
130 725 355
131 723 556
132 449 346
133 731 373
134 678 44
DEMAND_SECTION
2 83
3 84
4 34
5 17
6 88
7 59
8 56
9 33
10 21
11 37
12 15
13 97
14 23
15 76
16 94
17 99
18 30
19 44
20 45
21 8
22 37
COVERAGE_SECTION
2 7 30 85 111 42 76 128 130 
3 7 100 104 63 119 116 45 134 
4 7 129 126 43 25 61 56 97 
5 7 69 54 40 31 98 47 72 
6 7 34 88 90 50 12 105 55 
7 5 79 26 96 52 98 
8 7 67 84 31 72 124 40 54 
9 7 113 44 62 23 51 39 60 
10 7 128 56 92 127 76 35 85 
11 7 132 123 37 101 33 28 81 
12 7 50 90 88 46 6 34 66 
13 3 82 27 86 
14 7 81 64 118 28 84 59 67 
15 7 48 51 62 17 78 9 44 
16 7 19 55 95 75 115 20 66 
17 7 78 83 65 77 15 120 48 
18 7 46 91 109 29 121 106 25 
19 7 75 115 97 73 16 61 43 
20 7 125 16 95 55 117 19 115 
21 4 131 107 122 26 
22 7 103 89 130 70 108 133 106 
23 7 39 113 9 44 60 62 51 
24 4 68 111 49 2 
25 7 4 126 129 127 91 43 89 
26 4 79 7 52 96 
27 2 82 13 
28 6 81 64 59 14 118 101 
29 7 91 61 18 129 46 4 25 
30 6 2 130 85 133 49 76 
31 7 54 5 69 8 40 72 124 
32 7 110 38 48 15 62 51 78 
33 4 101 11 132 28 
34 7 6 88 90 50 12 105 55 
35 7 56 73 43 10 126 97 127 
36 4 99 90 12 50 
37 7 123 132 11 28 81 57 14 
38 7 110 32 48 113 9 15 62 
39 7 23 60 113 9 44 62 51 
40 6 72 47 124 53 5 94 
41 4 58 134 3 104 
42 7 76 87 92 2 128 85 111 
43 7 129 4 97 126 61 35 56 
44 7 9 62 113 51 60 39 23 
45 5 63 100 3 116 71 
46 7 18 12 50 29 90 88 91 
47 6 53 40 72 124 94 5 
48 7 15 62 51 9 44 38 113 
49 4 133 24 30 2 
50 7 12 90 88 46 6 34 66 
51 7 62 44 9 15 48 113 60 
52 3 79 96 7 
53 6 47 94 40 72 124 5 
54 7 69 5 31 98 40 72 96 
55 7 95 16 66 6 34 19 88 
56 7 127 35 10 126 128 4 43 
57 3 84 124 8 
58 4 41 134 3 104 
59 5 64 118 28 81 14 
60 7 39 44 9 113 23 62 51 
61 7 129 43 97 4 29 91 66 
62 7 51 44 9 113 48 15 23 
63 6 45 100 3 104 116 119 
64 5 118 81 59 28 14 
65 5 17 77 120 83 78 
66 7 55 61 88 29 95 16 91 
67 6 8 84 31 72 124 54 
68 4 24 111 49 2 
69 7 5 54 98 31 40 94 47 
70 4 22 103 133 130 
71 5 105 45 34 6 116 
72 6 40 124 47 53 5 94 
73 7 35 75 97 115 19 43 56 
74 7 86 13 131 82 23 21 39 
75 7 19 115 73 97 16 35 43 
76 7 42 128 92 85 10 2 87 
77 5 65 83 17 78 120 
78 7 83 17 77 65 15 48 120 
79 4 7 26 52 96 
80 5 117 114 125 20 120 
81 6 28 64 14 118 59 37 
82 3 13 27 86 
83 7 78 17 77 65 15 120 48 
84 7 67 8 31 57 124 14 72 
85 7 128 30 76 2 130 10 42 
86 6 13 82 74 39 23 24 
87 6 42 76 92 111 2 68 
88 7 50 12 90 6 34 46 66 
89 7 106 22 25 108 103 127 126 
90 7 12 50 88 6 34 46 36 
91 7 29 18 61 129 4 25 46 
92 7 76 10 42 128 87 56 35 
93 4 119 100 3 63 
94 7 53 47 40 5 72 112 124 
95 7 55 16 66 34 6 20 19 
96 5 98 7 79 52 54 
97 7 43 61 73 129 75 19 35 
98 6 69 54 96 5 31 7 
99 4 36 90 12 50 
100 7 3 63 104 119 45 116 134 
101 4 33 59 11 28 
102 6 112 94 53 47 5 40 
103 5 22 108 70 89 130 
104 6 3 100 116 63 134 45 
105 5 71 34 6 88 45 
106 6 89 108 109 25 18 121 
107 4 122 21 131 26 
108 5 106 103 89 22 109 
109 6 121 18 106 46 108 91 
110 7 38 32 48 113 9 15 62 
111 6 68 24 2 87 42 30 
112 7 102 94 53 5 47 69 98 
113 7 9 23 44 62 39 51 60 
114 4 117 80 125 20 
115 7 75 19 73 97 16 35 43 
116 5 104 63 3 100 45 
117 5 114 80 125 20 16 
118 5 64 59 81 14 28 
119 5 93 100 3 63 104 
120 3 65 77 17 
121 5 109 18 106 46 108 
122 3 107 21 26 
123 7 132 37 11 28 81 57 14 
124 6 72 40 47 53 94 5 
125 5 20 117 80 16 114 
126 7 4 43 129 56 25 127 35 
127 7 56 126 10 128 35 4 25 
128 7 76 10 85 92 42 127 56 
129 7 4 43 61 126 97 25 91 
130 7 30 133 85 2 22 49 128 
131 6 21 107 122 13 26 82 
132 7 123 37 11 28 81 101 14 
133 4 30 49 130 2 
134 5 58 104 41 3 100 
DEPOT_SECTION
   1
   -1
EOF
