NAME :  X-n256-kX-w102-c9.cctp
COMMENT : 	Adapted by Maziero, Usberti and Cavellucci from the Uchoa, Pecin, Pessoa, Poggi, Subramanian, and Vidal (2013)
TYPE :  CCTP
DIMENSION :    253
EDGE_WEIGHT_TYPE : 	EUC_2D	
CAPACITY : 	1225
VERTICES_WITHIN_COVERAGE :  9
VERTICES_WITH_DEMAND : 	102
NODE_COORD_SECTION
1 500 500
2 878 606
3 35 593
4 320 125
5 189 244
6 274 784
7 900 310
8 742 640
9 800 448
10 66 599
11 829 588
12 660 698
13 290 673
14 669 619
15 252 742
16 425 160
17 291 114
18 289 90
19 813 663
20 847 528
21 589 738
22 756 687
23 777 547
24 810 554
25 823 501
26 5 179
27 357 774
28 39 419
29 277 59
30 76 127
31 229 65
32 868 256
33 388 914
34 303 352
35 713 640
36 692 668
37 332 773
38 404 833
39 782 719
40 230 680
41 711 559
42 383 851
43 366 42
44 80 322
45 22 338
46 447 107
47 357 24
48 120 255
49 155 252
50 793 605
51 248 236
52 273 163
53 741 596
54 324 753
55 195 632
56 848 380
57 728 460
58 296 66
59 885 203
60 330 780
61 204 177
62 659 553
63 426 102
64 309 755
65 215 242
66 938 514
67 24 547
68 373 110
69 1000 475
70 862 596
71 974 551
72 83 155
73 816 433
74 917 345
75 62 661
76 981 720
77 874 602
78 247 231
79 248 946
80 908 590
81 812 701
82 959 401
83 270 347
84 714 567
85 796 520
86 367 947
87 88 235
88 30 230
89 189 199
90 774 664
91 732 579
92 146 730
93 188 748
94 958 533
95 954 296
96 279 160
97 956 608
98 882 389
99 853 195
100 730 640
101 56 562
102 136 499
103 819 427
104 873 663
105 308 101
106 256 669
107 272 320
108 280 122
109 800 663
110 193 65
111 951 676
112 334 987
113 583 843
114 940 363
115 523 797
116 753 415
117 786 576
118 60 623
119 512 166
120 945 499
121 928 312
122 823 802
123 249 288
124 266 776
125 166 204
126 793 691
127 906 599
128 217 20
129 124 271
130 880 572
131 708 428
132 53 561
133 386 713
134 764 423
135 98 577
136 77 608
137 875 607
138 266 847
139 861 673
140 79 525
141 657 665
142 784 424
143 116 834
144 882 574
145 349 113
146 519 674
147 568 693
148 412 715
149 681 739
150 710 603
151 132 317
152 243 887
153 328 130
154 682 184
155 907 505
156 25 513
157 952 672
158 364 107
159 47 524
160 809 640
161 950 586
162 873 414
163 97 278
164 775 601
165 194 309
166 266 276
167 825 357
168 246 850
169 268 168
170 181 782
171 700 492
172 695 698
173 708 454
174 213 701
175 147 72
176 940 661
177 213 214
178 931 586
179 175 243
180 466 38
181 39 521
182 697 594
183 307 170
184 76 554
185 991 434
186 797 286
187 84 346
188 794 695
189 24 575
190 184 367
191 231 285
192 775 559
193 989 420
194 897 309
195 415 180
196 201 293
197 42 891
198 39 267
199 366 205
200 265 765
201 17 290
202 729 846
203 707 632
204 825 342
205 274 809
206 961 401
207 901 604
208 685 725
209 860 244
210 37 367
211 209 189
212 319 167
213 234 177
214 221 697
215 379 190
216 629 657
217 740 486
218 94 552
219 272 173
220 884 628
221 967 297
222 913 279
223 196 313
224 276 84
225 692 632
226 824 348
227 284 743
228 253 739
229 874 303
230 695 657
231 124 313
232 705 456
233 248 819
234 781 843
235 866 544
236 364 870
237 884 375
238 686 590
239 482 177
240 912 176
241 287 794
242 764 592
243 944 112
244 351 260
245 254 616
246 790 281
247 352 320
248 653 224
249 827 593
250 98 906
251 920 321
252 98 555
253 18 534
DEMAND_SECTION
2 83
3 68
4 78
5 76
6 79
7 76
8 78
9 61
10 78
11 79
12 86
13 53
14 66
15 81
16 87
17 88
18 66
19 84
20 86
21 89
22 84
23 84
24 88
25 83
26 66
27 53
28 88
29 74
30 81
31 61
32 76
33 83
34 92
35 76
36 54
37 99
38 64
39 67
40 62
41 87
42 72
43 80
44 72
45 74
46 72
47 62
48 92
49 77
50 87
51 62
52 81
53 60
54 51
55 84
56 77
57 96
58 79
59 58
60 94
61 91
62 79
63 74
64 66
65 73
66 91
67 73
68 76
69 95
70 89
71 54
72 72
73 95
74 83
75 100
76 68
77 75
78 99
79 99
80 95
81 86
82 58
83 100
84 63
85 82
86 81
87 61
88 98
89 80
90 92
91 76
92 76
93 89
94 94
95 100
96 83
97 96
98 52
99 98
100 77
101 67
102 98
103 50
COVERAGE_SECTION
2 9 137 77 70 207 220 127 144 80 130 
3 9 189 10 101 132 118 136 67 184 253 
4 9 153 105 17 145 108 212 18 183 158 
5 9 179 65 49 177 89 125 196 78 191 
6 9 124 241 200 205 227 233 64 15 228 
7 9 194 251 229 121 222 74 95 32 114 
8 9 100 35 203 90 53 22 150 230 164 
9 9 73 103 142 134 116 25 217 85 57 
10 9 136 118 3 101 135 132 184 189 252 
11 9 249 70 24 50 117 77 137 2 130 
12 9 141 172 208 36 149 216 230 225 35 
13 9 106 40 245 227 214 228 15 174 64 
14 9 225 238 182 203 150 230 141 35 36 
15 9 228 200 227 124 6 214 174 64 241 
16 9 195 215 46 63 239 68 199 158 119 
17 9 108 105 18 4 224 153 58 96 52 
18 9 224 105 17 58 29 108 4 153 145 
19 9 109 160 126 188 81 90 139 104 50 
20 9 235 25 24 85 130 144 11 155 249 
21 9 147 12 115 216 149 146 208 141 113 
22 9 90 126 188 39 8 109 100 81 19 
23 9 192 117 85 24 242 164 91 50 53 
24 9 117 23 192 85 11 249 20 50 25 
25 9 85 20 24 9 235 23 73 103 192 
26 9 88 72 30 198 87 201 163 48 129 
27 9 37 60 54 64 133 241 38 227 42 
28 9 210 45 187 156 181 44 159 140 253 
29 9 58 224 18 31 105 17 108 128 4 
30 9 72 26 175 87 88 125 110 89 48 
31 9 110 128 29 224 18 58 108 17 175 
32 9 209 229 222 59 194 7 99 186 121 
33 9 86 236 42 38 112 138 27 79 60 
34 9 83 107 247 123 166 191 244 223 165 
35 9 203 100 225 230 8 36 150 14 182 
36 9 230 172 35 141 225 203 12 100 14 
37 9 60 54 27 64 241 227 6 124 200 
38 9 42 236 27 33 60 37 54 148 86 
39 9 188 126 81 22 90 109 19 160 8 
40 9 214 174 106 55 13 228 15 245 93 
41 9 84 91 182 238 150 53 62 242 192 
42 9 236 38 33 27 60 37 86 241 54 
43 9 47 158 68 145 58 105 63 18 29 
44 9 187 231 163 151 45 210 129 198 201 
45 9 210 201 44 187 198 28 163 231 88 
46 9 63 16 180 68 239 195 158 119 145 
47 9 43 58 158 29 68 145 105 18 224 
48 9 129 163 49 87 179 231 151 125 5 
49 9 179 5 48 129 125 65 196 89 163 
50 9 164 117 242 249 160 11 192 53 24 
51 9 78 65 177 166 123 191 5 211 213 
52 9 96 169 219 183 213 108 212 17 4 
53 9 91 242 150 164 84 8 182 100 41 
54 9 64 37 60 27 227 241 6 200 124 
55 9 40 245 214 106 174 13 92 135 93 
56 9 167 98 237 226 162 204 103 73 74 
57 9 173 232 217 131 171 116 134 142 9 
58 9 29 18 224 105 17 108 4 31 145 
59 9 99 240 209 32 222 229 194 7 243 
60 9 37 27 54 64 241 6 227 205 124 
61 9 211 89 213 177 125 169 65 219 5 
62 9 238 41 182 84 14 150 171 91 225 
63 9 46 68 16 158 180 145 195 43 239 
64 9 54 227 37 60 6 200 241 124 27 
65 9 5 177 51 78 179 191 89 196 211 
66 9 120 94 155 71 178 69 161 235 80 
67 9 253 189 181 132 159 156 101 3 184 
68 9 158 145 153 63 4 105 43 16 46 
69 9 185 193 120 94 66 71 206 82 155 
70 9 77 137 2 130 144 11 249 220 207 
71 9 94 161 66 178 97 120 80 69 155 
72 9 30 87 26 88 125 175 48 89 198 
73 9 103 9 142 134 162 56 116 25 167 
74 9 251 114 121 7 194 237 98 229 95 
75 9 118 136 10 3 135 189 101 132 184 
76 9 111 157 176 97 104 139 220 161 207 
77 9 137 2 70 207 220 144 130 127 80 
78 9 51 65 177 166 191 213 123 211 5 
79 9 152 112 168 138 86 233 205 236 33 
80 9 127 207 178 144 130 2 77 137 161 
81 9 188 126 39 19 109 90 139 22 160 
82 9 206 193 114 185 74 98 237 69 162 
83 9 107 34 123 166 191 223 165 247 190 
84 9 41 91 182 150 238 53 242 62 192 
85 9 23 25 24 192 20 117 217 9 235 
86 9 33 112 236 42 79 38 152 138 168 
87 9 48 163 129 88 198 49 72 125 231 
88 9 198 26 87 201 163 72 48 129 44 
89 9 211 125 61 177 5 179 65 213 49 
90 9 109 22 126 188 19 8 160 100 81 
91 9 53 84 41 150 242 182 192 238 164 
92 9 93 170 174 214 40 15 228 143 75 
93 9 170 92 174 214 15 228 200 40 124 
94 9 71 66 120 161 155 178 69 97 80 
95 9 221 121 251 222 7 194 74 114 229 
96 9 52 169 219 183 108 212 17 213 4 
97 9 161 178 80 127 176 207 71 157 111 
98 9 237 162 56 74 114 167 226 103 204 
99 9 59 209 240 32 222 186 246 229 194 
100 9 8 35 203 225 230 150 53 36 90 
101 9 132 184 67 189 3 10 159 218 252 
102 9 140 218 252 184 135 159 181 101 132 
103 9 73 9 142 56 134 162 116 167 25 
104 9 139 220 137 2 19 77 207 176 70 
105 9 17 18 4 108 153 224 58 145 29 
106 9 40 13 214 245 174 228 55 15 227 
107 9 83 123 166 34 191 196 223 165 247 
108 9 17 18 105 96 224 4 52 169 153 
109 9 19 160 90 126 188 81 22 50 39 
110 9 31 175 128 29 224 18 58 108 17 
111 9 157 176 76 97 104 220 207 127 139 
112 9 86 33 79 236 152 42 138 168 38 
113 9 115 21 149 202 147 208 12 38 146 
114 9 74 82 206 251 121 237 98 7 95 
115 9 113 21 147 146 38 148 42 133 27 
116 8 134 142 131 57 9 173 232 73 
117 9 192 164 242 23 50 24 249 11 53 
118 9 136 10 75 3 135 189 101 132 184 
119 9 239 16 46 195 63 215 180 68 199 
120 9 66 94 155 69 71 185 161 178 193 
121 9 251 7 95 194 74 222 221 114 229 
122 9 234 39 81 202 188 126 22 139 19 
123 9 191 166 107 196 51 65 78 165 223 
124 9 6 200 241 205 15 227 228 233 64 
125 9 89 179 5 211 61 177 49 65 48 
126 9 188 81 109 39 90 19 22 160 139 
127 9 207 80 178 2 77 137 144 220 130 
128 9 31 110 29 175 224 58 18 17 108 
129 9 48 163 49 231 151 87 179 44 5 
130 9 144 70 77 235 80 2 137 127 207 
131 8 173 232 57 116 134 171 217 142 
132 9 101 184 67 189 3 159 10 181 218 
133 9 148 27 54 37 60 64 13 227 38 
134 8 116 142 9 57 73 103 131 173 
135 9 252 218 184 136 10 101 132 140 118 
136 9 10 118 135 3 101 132 184 75 252 
137 9 2 77 70 220 207 127 144 130 80 
138 9 168 233 205 152 241 6 124 200 60 
139 9 104 19 220 81 109 160 137 2 126 
140 9 184 218 159 252 181 101 132 135 156 
141 9 216 12 36 230 14 225 172 203 35 
142 8 134 9 116 73 103 57 131 217 
143 9 250 170 197 92 93 168 233 152 138 
144 9 130 77 70 80 2 137 235 127 207 
145 9 158 68 153 4 105 17 212 18 108 
146 9 147 21 216 148 115 141 133 12 14 
147 9 21 146 216 12 141 115 208 149 14 
148 9 133 27 54 37 60 64 146 38 13 
149 9 208 172 12 36 141 230 22 21 216 
150 9 182 238 203 53 91 225 84 35 100 
151 9 231 129 44 163 187 48 165 223 49 
152 9 168 138 79 233 205 241 6 124 170 
153 9 4 145 105 212 17 158 183 68 108 
154 6 248 246 186 99 119 209 
155 9 66 120 235 94 20 130 144 71 25 
156 9 181 253 159 67 140 132 101 189 184 
157 9 111 176 76 97 104 220 207 127 161 
158 9 68 145 153 4 105 63 43 17 212 
159 9 181 156 253 140 67 132 101 184 218 
160 9 19 109 50 90 249 164 126 11 188 
161 9 178 97 71 80 127 207 94 144 130 
162 9 98 237 56 103 73 167 9 74 226 
163 9 129 48 87 231 44 151 198 49 187 
164 9 242 50 117 53 192 91 8 160 249 
165 9 223 196 191 123 190 151 5 49 179 
166 9 123 191 51 107 78 65 196 83 165 
167 9 226 204 56 237 98 103 229 162 186 
168 9 138 233 152 205 241 6 124 200 170 
169 9 219 52 96 213 183 108 212 17 211 
170 9 93 92 233 15 143 228 124 200 174 
171 9 232 173 217 57 131 41 62 84 91 
172 9 208 36 12 230 149 141 35 22 225 
173 9 232 57 131 171 217 116 134 142 9 
174 9 214 40 93 106 228 15 55 92 13 
175 9 110 31 128 30 72 61 224 29 211 
176 9 157 111 97 220 104 207 127 76 161 
177 9 211 65 89 5 61 78 51 213 125 
178 9 161 80 127 97 207 144 130 71 2 
179 9 5 49 65 125 89 177 48 196 129 
180 9 46 63 43 47 68 158 16 119 145 
181 9 159 156 253 67 140 132 101 184 189 
182 9 238 150 84 14 41 91 225 203 53 
183 9 212 96 52 219 169 153 4 108 17 
184 9 218 101 252 132 140 135 159 10 181 
185 9 193 69 206 82 120 114 66 94 155 
186 7 246 204 226 167 209 32 229 
187 9 44 210 231 151 45 163 129 28 201 
188 9 126 81 39 109 19 90 22 160 139 
189 9 3 67 132 101 253 10 159 181 184 
190 9 223 165 151 196 231 83 191 107 123 
191 9 123 196 166 165 223 65 51 107 78 
192 9 23 117 24 242 164 85 91 50 53 
193 9 185 206 82 69 114 120 74 66 98 
194 9 7 229 251 121 222 74 95 32 237 
195 9 16 215 199 239 63 46 68 158 145 
196 9 165 223 191 123 5 65 179 49 166 
197 9 250 143 170 92 152 93 168 79 233 
198 9 201 88 87 163 44 45 48 129 187 
199 9 215 195 244 212 183 16 153 4 145 
200 9 124 6 15 227 228 241 64 205 233 
201 9 198 45 88 44 210 163 187 87 48 
202 9 234 122 149 208 39 113 172 22 12 
203 9 35 225 100 230 150 8 36 182 14 
204 9 226 167 56 186 229 237 246 98 194 
205 9 241 6 233 124 138 200 168 60 64 
206 9 82 193 114 185 74 98 237 69 162 
207 9 127 80 2 137 77 220 178 144 130 
208 9 149 172 12 36 141 230 22 216 35 
209 9 32 59 99 229 222 194 186 7 246 
210 9 45 187 28 44 201 198 231 151 163 
211 9 61 89 177 213 125 65 78 5 51 
212 9 183 153 96 4 52 219 169 17 108 
213 9 211 61 169 219 52 177 96 89 78 
214 9 174 40 106 228 15 93 55 13 227 
215 9 199 195 16 212 183 244 153 68 145 
216 9 141 12 14 36 230 225 147 172 203 
217 9 57 171 173 232 85 131 134 9 23 
218 9 252 184 135 140 101 132 10 159 136 
219 9 169 52 96 183 213 212 108 17 78 
220 9 2 137 77 207 127 104 70 80 139 
221 9 95 121 251 222 7 74 114 194 229 
222 9 7 194 121 251 95 229 32 221 209 
223 9 165 196 191 190 123 151 5 231 49 
224 9 18 29 58 17 105 108 31 4 153 
225 9 203 35 230 14 150 36 182 100 238 
226 9 204 167 56 237 229 186 98 246 103 
227 9 64 200 228 15 124 54 6 241 37 
228 9 15 200 227 124 6 214 174 64 40 
229 9 194 7 222 32 251 121 74 209 204 
230 9 36 35 225 203 100 141 172 14 8 
231 9 151 129 163 44 187 48 49 165 223 
232 9 173 57 131 171 217 116 134 142 9 
233 9 205 168 138 6 241 124 200 152 15 
234 9 202 122 39 149 81 188 126 208 22 
235 9 20 130 144 70 11 24 155 77 25 
236 9 42 33 38 86 27 60 138 37 241 
237 9 98 56 162 74 114 167 251 226 7 
238 9 182 150 14 84 41 225 62 91 203 
239 9 119 16 195 46 63 215 199 68 158 
240 9 59 99 243 209 32 222 95 221 229 
241 9 6 205 124 200 60 64 233 37 227 
242 9 164 53 117 50 91 192 23 8 150 
243 9 240 59 99 209 32 222 95 221 121 
244 9 199 247 215 166 212 107 183 195 34 
245 9 106 55 13 40 214 174 228 15 227 
246 7 186 204 226 209 32 167 229 
247 9 34 244 107 83 166 123 199 191 215 
248 6 154 246 119 186 239 99 
249 9 11 70 50 24 117 77 137 160 2 
250 9 197 143 152 170 79 168 233 138 92 
251 9 121 7 74 194 95 222 114 229 221 
252 9 218 135 184 140 101 132 10 136 159 
253 9 67 156 181 159 189 132 101 3 184 
DEPOT_SECTION
   1
   -1
EOF
