NAME :  X-n270-kX-w53-c9.cctp
COMMENT : 	Adapted by Maziero, Usberti and Cavellucci from the Uchoa, Pecin, Pessoa, Poggi, Subramanian, and Vidal (2013)
TYPE :  CCTP
DIMENSION :    213
EDGE_WEIGHT_TYPE : 	EUC_2D	
CAPACITY : 	585
VERTICES_WITHIN_COVERAGE :  9
VERTICES_WITH_DEMAND : 	53
NODE_COORD_SECTION
1 500 500
2 643 512
3 707 407
4 394 355
5 140 470
6 364 215
7 493 857
8 117 466
9 462 38
10 551 479
11 742 498
12 533 706
13 788 425
14 799 6
15 836 680
16 88 225
17 164 988
18 537 20
19 612 395
20 314 942
21 342 974
22 518 758
23 860 774
24 313 36
25 275 23
26 324 971
27 822 588
28 272 458
29 620 666
30 868 427
31 694 750
32 953 419
33 236 823
34 887 411
35 124 814
36 193 899
37 687 303
38 447 220
39 716 472
40 415 141
41 738 309
42 445 672
43 524 60
44 112 157
45 859 935
46 104 596
47 556 54
48 362 223
49 723 661
50 474 338
51 274 568
52 315 380
53 704 863
54 936 260
55 93 859
56 703 935
57 381 302
58 695 239
59 880 823
60 335 961
61 37 637
62 288 169
63 455 499
64 599 796
65 155 910
66 80 459
67 93 565
68 959 544
69 762 531
70 22 839
71 459 575
72 737 409
73 854 328
74 921 781
75 221 23
76 685 179
77 202 804
78 422 992
79 945 292
80 66 976
81 487 429
82 614 711
83 407 546
84 883 298
85 709 692
86 535 319
87 965 217
88 336 35
89 703 595
90 677 841
91 51 503
92 334 968
93 628 154
94 488 437
95 680 869
96 987 264
97 474 906
98 866 911
99 940 542
100 106 988
101 558 398
102 661 206
103 500 17
104 710 588
105 23 696
106 181 909
107 107 556
108 516 409
109 345 879
110 684 742
111 86 682
112 447 182
113 825 545
114 840 689
115 129 532
116 89 305
117 434 407
118 348 132
119 390 473
120 598 286
121 464 891
122 671 336
123 762 909
124 136 633
125 40 814
126 445 889
127 318 2
128 387 142
129 480 339
130 884 826
131 207 24
132 557 694
133 740 695
134 699 899
135 768 584
136 671 669
137 818 715
138 933 659
139 500 706
140 73 147
141 862 849
142 539 728
143 139 118
144 931 588
145 850 28
146 891 612
147 709 636
148 628 448
149 277 45
150 588 720
151 803 710
152 712 63
153 804 68
154 536 318
155 548 667
156 838 835
157 890 749
158 862 272
159 551 695
160 692 757
161 735 752
162 468 626
163 535 665
164 734 66
165 717 545
166 719 743
167 224 25
168 709 712
169 550 683
170 264 122
171 234 56
172 868 936
173 790 705
174 576 674
175 494 607
176 412 701
177 614 627
178 883 597
179 233 64
180 598 659
181 813 611
182 868 603
183 555 673
184 93 100
185 743 870
186 600 452
187 619 753
188 850 547
189 600 727
190 63 175
191 789 598
192 753 615
193 803 64
194 835 42
195 591 543
196 576 872
197 530 707
198 187 153
199 627 789
200 787 650
201 194 350
202 857 704
203 487 672
204 511 732
205 872 794
206 143 149
207 910 236
208 747 666
209 712 736
210 302 59
211 766 680
212 680 683
213 648 800
DEMAND_SECTION
2 77
3 91
4 67
5 69
6 68
7 64
8 65
9 83
10 64
11 77
12 87
13 99
14 84
15 74
16 89
17 76
18 68
19 87
20 69
21 97
22 87
23 59
24 82
25 75
26 55
27 95
28 63
29 87
30 72
31 53
32 66
33 95
34 58
35 76
36 66
37 53
38 67
39 56
40 71
41 67
42 52
43 85
44 99
45 62
46 51
47 53
48 63
49 71
50 78
51 71
52 77
53 85
54 82
COVERAGE_SECTION
2 9 195 148 186 165 39 10 11 104 89 
3 9 72 39 122 13 148 19 11 41 37 
4 9 57 117 50 52 129 119 81 94 108 
5 9 8 66 115 107 91 67 46 201 28 
6 9 48 128 38 118 57 62 112 40 170 
7 9 121 97 126 196 22 64 204 142 109 
8 9 5 66 115 91 107 67 46 201 28 
9 9 103 43 18 47 40 88 128 112 118 
10 9 186 195 94 108 81 101 148 2 63 
11 9 39 69 165 13 72 135 113 104 3 
12 9 197 159 142 132 169 139 204 183 163 
13 9 72 30 3 11 39 34 69 73 41 
14 6 194 145 193 153 164 152 
15 7 114 202 137 151 173 200 211 
16 8 190 44 140 116 206 143 198 184 
17 9 100 65 106 36 80 55 20 26 92 
18 8 103 47 43 9 93 40 152 112 
19 9 101 148 186 122 3 108 10 86 154 
20 9 60 26 92 21 109 78 36 106 126 
21 9 92 60 26 20 78 109 126 97 121 
22 9 204 142 197 12 139 159 132 150 169 
23 8 205 157 59 130 74 156 202 137 
24 9 88 210 127 149 25 171 179 167 75 
25 9 149 24 210 127 167 171 75 179 88 
26 9 92 60 21 20 109 78 126 36 106 
27 9 181 191 113 182 188 135 178 200 146 
28 9 52 51 119 5 201 8 4 83 115 
29 9 180 177 82 174 136 212 150 189 183 
30 9 34 13 32 73 188 113 84 72 99 
31 7 160 110 209 166 161 168 85 
32 9 34 30 99 68 79 73 84 96 54 
33 9 77 36 106 35 65 109 20 55 60 
34 9 30 32 73 13 84 79 99 158 188 
35 9 55 77 125 65 70 36 106 33 111 
36 9 106 65 33 17 77 55 35 100 20 
37 9 122 41 58 120 102 3 72 19 76 
38 9 112 6 40 48 128 57 50 129 86 
39 9 11 3 72 165 69 2 13 148 104 
40 9 128 112 118 38 6 48 9 62 88 
41 8 37 122 58 72 3 73 13 102 
42 7 203 176 162 139 175 204 163 
43 8 47 18 103 9 40 93 112 128 
44 7 206 140 143 190 184 16 198 
45 9 172 98 141 123 156 130 59 185 205 
46 9 67 107 124 115 61 111 91 105 5 
47 8 43 18 103 9 93 152 40 112 
48 9 6 57 38 128 62 118 112 40 4 
49 8 208 147 85 133 211 212 136 168 
50 9 129 86 154 117 4 108 81 57 94 
51 9 28 83 115 119 124 5 107 46 67 
52 9 4 28 57 119 117 201 48 50 129 
53 8 95 90 134 185 56 123 213 160 
54 6 79 207 96 87 84 158 
55 9 35 125 70 65 106 36 80 77 100 
56 9 134 123 95 53 185 90 196 213 45 
57 9 4 48 6 50 52 38 129 117 112 
58 7 102 76 37 41 122 93 120 
59 8 130 205 141 156 23 74 157 98 
60 9 92 21 26 20 109 78 126 121 97 
61 9 105 111 46 67 124 107 91 115 125 
62 9 170 118 6 48 198 128 210 179 149 
63 8 83 94 119 71 81 117 10 108 
64 9 199 187 213 189 150 196 82 22 90 
65 9 106 36 17 55 100 35 80 77 33 
66 9 8 91 5 115 107 67 46 116 201 
67 9 107 46 115 91 124 61 8 5 66 
68 9 99 144 178 146 182 188 138 32 113 
69 9 11 165 135 113 191 39 104 27 192 
70 9 125 55 35 105 80 65 111 100 106 
71 5 175 162 83 63 42 
72 9 3 13 39 11 122 41 148 37 69 
73 9 84 158 34 79 30 54 207 13 41 
74 9 157 205 130 59 23 141 156 202 137 
75 7 167 131 171 179 25 149 210 
76 7 102 58 93 152 164 37 120 
77 9 33 35 36 106 65 55 109 125 111 
78 9 21 92 60 26 97 126 121 20 109 
79 7 54 96 84 207 87 158 73 
80 9 100 17 65 55 106 70 36 125 35 
81 9 94 108 117 63 101 10 129 50 119 
82 9 189 150 187 29 174 180 132 159 169 
83 8 71 63 119 162 175 42 51 94 
84 8 158 73 79 54 207 96 34 87 
85 8 168 212 133 49 136 209 208 166 
86 9 154 129 50 120 101 108 19 81 94 
87 4 54 96 207 79 
88 9 24 127 210 149 25 118 171 179 167 
89 9 104 147 165 192 135 49 136 208 191 
90 9 95 53 213 134 185 199 160 64 31 
91 9 66 67 8 107 115 5 46 61 124 
92 9 60 21 26 20 109 78 126 121 97 
93 7 76 102 58 47 152 120 164 
94 9 81 108 117 63 10 101 129 50 119 
95 9 53 90 134 185 56 213 123 199 196 
96 6 79 54 87 207 84 158 
97 9 121 126 7 78 196 109 21 60 92 
98 9 45 172 141 156 130 59 123 205 185 
99 9 68 144 178 146 188 182 113 138 32 
100 9 80 17 65 106 36 55 70 35 125 
101 9 108 19 186 81 94 10 86 154 148 
102 7 76 58 93 37 120 41 122 
103 9 18 9 43 47 40 88 128 112 127 
104 9 89 165 147 192 135 49 69 191 208 
105 9 61 111 125 46 124 70 67 35 107 
106 9 36 65 17 55 33 77 100 35 80 
107 9 67 115 46 91 124 8 5 66 61 
108 9 81 94 101 10 129 50 117 86 154 
109 9 20 60 92 26 21 126 121 33 97 
110 8 31 160 209 166 168 161 85 212 
111 9 105 61 124 46 67 107 35 125 115 
112 9 38 40 128 6 48 118 57 43 9 
113 9 188 27 191 69 181 135 182 178 146 
114 6 15 202 137 151 173 200 
115 9 107 67 5 8 46 91 66 124 61 
116 9 16 201 190 44 66 140 8 206 5 
117 9 81 94 4 119 50 108 129 63 57 
118 9 128 40 62 6 170 210 48 88 24 
119 9 63 83 117 94 81 4 28 52 71 
120 9 154 86 122 37 102 58 19 101 129 
121 9 97 126 7 78 196 109 22 60 21 
122 9 37 41 3 19 120 72 58 148 101 
123 9 185 56 134 53 95 45 98 156 90 
124 9 46 111 67 107 61 115 105 51 91 
125 9 70 55 35 105 111 65 77 80 106 
126 9 121 97 7 109 78 60 196 21 92 
127 9 24 88 25 149 210 167 75 171 179 
128 9 40 118 112 6 48 38 62 88 210 
129 9 50 86 154 108 117 4 81 94 101 
130 8 59 141 205 156 23 74 157 98 
131 6 75 167 171 179 25 149 
132 9 159 169 183 12 155 174 197 163 142 
133 6 208 211 85 168 49 209 
134 9 53 56 95 185 90 123 213 196 199 
135 9 191 192 181 69 27 104 165 89 113 
136 8 212 85 147 29 49 168 82 177 
137 5 151 173 114 15 202 
138 8 146 144 178 182 202 114 15 157 
139 9 204 197 12 203 142 159 163 22 169 
140 6 190 44 184 206 143 16 
141 9 156 59 130 205 98 23 45 172 74 
142 9 12 197 204 159 22 132 139 169 150 
143 5 206 44 184 198 140 
144 8 99 146 178 68 182 138 188 27 
145 4 194 14 193 153 
146 9 178 182 144 138 27 188 181 99 15 
147 9 49 89 104 208 192 136 212 85 133 
148 9 186 19 2 10 101 3 39 195 72 
149 9 25 210 24 171 179 167 127 75 88 
150 9 189 82 132 159 187 174 142 169 12 
151 5 173 137 114 15 211 
152 6 164 193 153 14 76 93 
153 5 193 194 145 14 164 
154 9 86 129 50 120 101 108 19 81 94 
155 8 183 163 169 132 159 174 12 197 
156 6 141 59 130 205 23 98 
157 9 23 74 205 202 59 130 114 137 15 
158 6 84 73 207 54 79 87 
159 9 132 169 12 183 197 155 174 163 142 
160 7 31 110 209 166 161 168 213 
161 4 166 209 31 160 
162 6 175 203 42 71 163 139 
163 7 155 183 169 159 132 12 174 
164 6 152 193 153 14 194 145 
165 9 104 69 89 11 135 39 192 2 191 
166 6 209 161 31 160 168 110 
167 7 75 131 171 179 25 149 210 
168 8 85 209 166 133 110 31 212 160 
169 9 183 159 132 155 163 174 12 197 142 
170 9 62 179 171 210 149 198 118 24 25 
171 8 179 167 75 131 149 25 210 170 
172 9 45 98 141 156 123 130 59 185 205 
173 5 151 137 211 133 15 
174 9 183 180 132 169 155 159 163 29 150 
175 5 162 71 203 163 42 
176 8 42 203 139 162 204 197 22 12 
177 8 180 29 174 136 183 155 82 169 
178 9 182 146 144 188 27 181 113 99 138 
179 8 171 167 75 131 149 25 170 210 
180 9 29 174 177 183 155 82 132 169 159 
181 9 27 191 200 135 182 192 113 178 15 
182 9 178 146 27 181 188 144 113 191 15 
183 8 155 169 132 174 159 163 12 197 
184 3 143 140 44 
185 7 53 123 134 95 90 56 156 
186 9 148 10 19 101 2 195 108 94 81 
187 9 189 199 82 150 64 213 110 160 31 
188 9 113 27 182 178 181 146 191 69 99 
189 9 150 82 187 132 174 159 142 29 169 
190 6 140 44 16 184 206 143 
191 9 135 181 27 192 200 113 69 182 104 
192 9 135 191 147 200 104 208 89 49 181 
193 5 153 194 14 145 164 
194 4 145 193 153 14 
195 7 2 10 177 186 148 175 180 
196 9 64 7 199 213 95 90 97 121 134 
197 9 12 142 159 132 139 169 204 163 183 
198 7 206 143 44 170 179 62 171 
199 9 213 64 187 189 90 160 110 31 82 
200 9 211 208 181 192 191 173 15 151 49 
201 9 116 52 5 28 8 66 16 57 115 
202 7 114 15 137 151 157 173 23 
203 7 139 42 163 162 197 12 155 
204 9 22 139 142 197 12 159 132 169 203 
205 8 23 59 130 157 74 156 141 202 
206 7 143 44 198 140 184 190 16 
207 5 54 87 158 79 84 
208 7 211 49 133 200 85 147 192 
209 7 166 31 168 161 110 160 85 
210 9 24 149 88 25 127 171 179 170 167 
211 5 208 133 173 200 49 
212 8 136 85 168 49 147 110 133 29 
213 9 199 64 90 187 160 31 110 95 53 
DEPOT_SECTION
   1
   -1
EOF
