NAME :  X-n247-kX-w49-c11.cctp
COMMENT : 	Adapted by Maziero, Usberti and Cavellucci from the Uchoa, Pecin, Pessoa, Poggi, Subramanian, and Vidal (2013)
TYPE :  CCTP
DIMENSION :    232
EDGE_WEIGHT_TYPE : 	EUC_2D	
CAPACITY : 	134
VERTICES_WITHIN_COVERAGE :  11
VERTICES_WITH_DEMAND : 	49
NODE_COORD_SECTION
1 500 500
2 612 199
3 864 279
4 746 395
5 738 519
6 797 59
7 867 206
8 846 399
9 654 172
10 874 275
11 675 479
12 780 372
13 692 446
14 541 183
15 747 432
16 845 403
17 787 317
18 472 325
19 682 246
20 779 308
21 815 316
22 690 306
23 923 403
24 643 526
25 849 293
26 789 424
27 766 443
28 833 421
29 999 259
30 949 458
31 675 431
32 930 480
33 809 439
34 677 173
35 479 247
36 849 285
37 711 358
38 794 366
39 878 230
40 815 259
41 739 570
42 564 141
43 845 320
44 801 473
45 769 345
46 528 256
47 700 404
48 851 369
49 925 215
50 608 654
51 878 358
52 562 80
53 418 269
54 766 533
55 709 585
56 933 280
57 671 522
58 725 496
59 863 250
60 864 328
61 663 460
62 848 251
63 601 17
64 559 708
65 689 490
66 745 448
67 746 345
68 776 427
69 925 251
70 783 292
71 484 715
72 810 261
73 680 173
74 895 273
75 785 253
76 886 125
77 916 247
78 930 364
79 584 185
80 896 334
81 874 524
82 440 130
83 684 326
84 737 309
85 554 164
86 859 254
87 981 334
88 717 258
89 855 321
90 623 443
91 685 162
92 686 463
93 733 431
94 664 616
95 586 486
96 523 196
97 712 541
98 759 432
99 658 583
100 860 312
101 762 359
102 818 236
103 498 208
104 504 64
105 842 221
106 895 461
107 691 136
108 870 277
109 644 438
110 556 305
111 747 522
112 646 445
113 867 380
114 578 286
115 669 372
116 663 507
117 691 172
118 384 100
119 791 379
120 650 277
121 725 609
122 897 279
123 758 306
124 971 92
125 641 183
126 904 291
127 825 374
128 405 305
129 786 431
130 720 677
131 563 245
132 758 442
133 750 530
134 567 564
135 890 268
136 833 289
137 637 408
138 845 276
139 809 347
140 818 88
141 678 259
142 853 219
143 448 734
144 493 509
145 581 187
146 789 397
147 537 240
148 714 339
149 777 371
150 683 378
151 788 597
152 499 301
153 835 370
154 598 221
155 798 509
156 857 214
157 463 400
158 844 400
159 860 267
160 662 184
161 638 185
162 814 529
163 781 293
164 688 598
165 866 305
166 786 343
167 819 476
168 789 243
169 715 530
170 992 531
171 753 534
172 566 216
173 934 403
174 590 211
175 646 141
176 719 302
177 919 234
178 597 150
179 761 360
180 761 367
181 815 469
182 813 282
183 775 536
184 960 722
185 805 178
186 686 148
187 870 167
188 713 265
189 713 242
190 855 296
191 535 169
192 900 254
193 877 365
194 872 218
195 957 620
196 680 535
197 701 182
198 687 498
199 828 511
200 741 557
201 720 61
202 764 452
203 500 143
204 916 505
205 803 183
206 720 452
207 852 349
208 855 297
209 755 492
210 748 411
211 829 123
212 949 556
213 764 576
214 651 282
215 839 364
216 839 66
217 846 29
218 604 597
219 762 520
220 839 244
221 896 131
222 838 735
223 586 465
224 582 216
225 681 187
226 924 98
227 731 625
228 428 684
229 725 408
230 792 337
231 677 142
232 797 262
DEMAND_SECTION
2 99
3 72
4 87
5 77
6 78
7 76
8 74
9 78
10 92
11 96
12 75
13 96
14 72
15 99
16 63
17 93
18 64
19 68
20 82
21 53
22 91
23 74
24 67
25 65
26 85
27 52
28 77
29 91
30 58
31 73
32 62
33 94
34 84
35 74
36 95
37 62
38 62
39 78
40 89
41 87
42 54
43 73
44 81
45 84
46 51
47 84
48 100
49 69
50 52
COVERAGE_SECTION
2 11 174 154 161 79 125 145 224 172 9 178 160 
3 11 108 10 159 36 138 190 208 25 86 165 135 
4 11 210 229 180 15 93 179 98 101 149 12 146 
5 11 111 133 171 219 169 58 54 209 97 200 183 
6 6 140 216 217 211 201 76 
7 11 156 194 142 39 105 187 59 220 62 86 102 
8 11 158 16 28 113 48 153 127 215 193 207 51 
9 11 160 125 161 34 73 225 175 91 117 231 186 
10 11 108 3 159 135 74 122 86 36 59 190 138 
11 11 65 92 61 198 116 13 57 112 31 109 206 
12 11 149 119 38 180 101 179 146 45 166 230 139 
13 11 92 31 206 61 11 47 65 93 112 109 229 
14 11 191 96 85 145 172 79 42 103 224 174 147 
15 11 98 93 132 66 210 27 202 68 229 206 4 
16 11 158 8 28 113 153 48 127 215 193 33 207 
17 11 20 230 70 163 166 21 123 45 139 182 38 
18 10 152 128 157 35 53 110 46 147 114 103 
19 10 141 189 188 88 120 214 225 22 160 176 
20 11 17 163 70 123 230 166 21 45 84 182 139 
21 11 17 43 230 136 139 182 20 70 89 166 25 
22 11 83 176 148 214 84 188 120 141 88 37 19 
23 11 173 78 193 30 113 51 106 80 8 32 16 
24 11 57 116 196 198 11 65 99 61 95 97 169 
25 11 190 208 36 136 138 3 165 100 108 43 159 
26 11 129 68 33 146 27 98 132 202 15 210 28 
27 11 132 202 98 68 15 66 129 26 93 210 33 
28 11 16 158 8 33 26 127 129 146 153 181 113 
29 11 56 69 87 77 177 49 192 126 122 74 135 
30 11 32 106 173 204 23 170 78 212 81 113 16 
31 11 13 61 109 112 92 47 137 11 206 90 150 
32 11 30 204 106 81 23 173 212 170 199 167 28 
33 11 129 26 28 181 44 68 167 27 146 202 98 
34 11 73 91 117 225 160 9 197 186 231 125 107 
35 11 103 46 147 152 53 96 18 131 14 172 128 
36 11 25 138 190 208 3 136 159 108 165 10 100 
37 11 148 150 67 83 115 47 179 4 101 180 229 
38 11 119 12 149 139 166 230 146 127 45 101 180 
39 11 194 59 7 156 142 86 192 62 105 135 159 
40 11 72 232 102 182 220 75 168 62 138 136 36 
41 11 200 213 55 171 97 121 133 54 169 111 183 
42 11 85 178 191 14 79 145 52 203 96 2 172 
43 11 89 100 60 208 165 190 25 21 207 136 36 
44 11 181 167 33 155 202 129 27 199 26 209 68 
45 11 101 166 179 67 180 230 149 12 17 38 20 
46 11 147 131 35 152 172 110 103 114 96 224 14 
47 11 229 150 31 13 93 115 4 37 210 206 15 
48 11 215 153 113 207 127 193 51 8 158 16 60 
49 11 177 77 69 192 39 194 7 135 56 74 156 
50 11 218 94 64 99 164 134 130 55 121 227 24 
51 11 193 113 207 48 80 60 215 89 153 100 43 
52 10 104 42 63 178 85 203 191 175 14 79 
53 11 128 35 18 152 103 46 147 96 157 82 110 
54 11 183 171 219 133 111 5 200 155 209 213 41 
55 11 164 121 41 200 97 227 99 94 169 213 196 
56 11 69 126 122 77 74 192 135 177 10 108 49 
57 11 196 116 24 198 65 11 97 169 58 92 99 
58 11 5 209 111 169 65 198 133 206 219 97 171 
59 11 86 62 159 39 220 10 108 3 135 138 142 
60 11 89 100 43 165 207 208 51 80 190 25 193 
61 11 11 92 112 109 31 13 65 90 198 116 137 
62 11 86 220 59 159 138 105 3 142 36 40 102 
63 5 52 104 201 42 175 
64 11 50 71 143 218 228 94 134 99 130 164 227 
65 11 198 11 92 116 58 57 61 13 196 169 206 
66 11 132 15 202 93 98 27 206 68 210 129 209 
67 11 101 179 45 180 148 37 84 149 166 123 12 
68 11 129 26 98 27 132 202 15 210 146 33 66 
69 11 77 177 192 56 49 74 135 122 126 39 10 
70 11 163 20 17 123 182 232 75 21 72 40 230 
71 11 143 228 64 50 218 134 94 144 99 164 130 
72 11 40 232 182 75 102 168 220 136 138 62 70 
73 11 34 117 91 225 160 197 9 186 231 107 125 
74 11 122 135 126 192 10 108 3 77 159 69 56 
75 9 168 232 72 40 102 70 163 182 20 
76 11 221 187 226 211 216 140 7 124 156 194 185 
77 11 69 177 192 49 74 135 56 122 39 126 10 
78 11 173 23 80 51 193 87 113 60 126 48 207 
79 11 145 174 2 224 172 85 178 154 14 42 191 
80 11 51 60 193 100 165 89 126 78 207 43 113 
81 10 204 199 162 106 32 167 155 181 212 44 
82 11 203 118 104 103 191 96 14 85 35 42 52 
83 11 22 148 37 176 115 150 214 84 120 67 141 
84 11 176 123 67 148 20 22 163 45 70 188 17 
85 11 191 14 42 145 79 96 178 172 203 174 224 
86 11 59 62 159 220 3 108 10 138 39 36 135 
87 11 78 56 29 173 80 126 23 69 122 74 51 
88 9 188 189 19 141 176 22 84 123 75 
89 11 43 100 60 165 208 190 207 25 36 136 21 
90 11 109 112 137 61 223 31 95 11 92 13 116 
91 10 73 117 34 186 231 225 197 107 160 9 
92 11 13 11 61 65 31 198 206 112 109 116 58 
93 11 15 66 229 206 210 98 132 27 202 4 47 
94 11 164 99 55 121 218 50 227 130 196 41 97 
95 11 223 90 24 112 109 116 134 61 11 57 137 
96 11 14 103 191 85 147 172 203 145 46 79 224 
97 11 169 196 200 5 41 111 133 171 55 57 58 
98 11 132 15 27 68 66 202 210 93 129 26 4 
99 11 94 164 55 196 218 24 57 97 121 116 169 
100 11 165 89 60 208 43 190 25 36 3 136 108 
101 11 179 180 45 149 67 12 166 38 119 230 4 
102 11 220 40 72 105 168 232 62 75 142 86 156 
103 11 96 35 14 147 191 46 203 172 85 131 224 
104 11 52 203 82 42 63 191 85 14 118 178 96 
105 11 142 156 220 102 7 194 62 59 39 86 40 
106 11 32 204 30 23 81 173 28 16 167 8 158 
107 7 186 231 91 117 73 34 175 
108 11 10 3 159 36 135 190 74 86 138 208 25 
109 11 112 90 61 137 31 13 92 11 223 47 65 
110 10 114 46 152 131 147 18 172 224 154 35 
111 11 5 133 171 219 54 183 209 169 58 200 97 
112 11 109 61 90 31 137 92 11 13 65 223 116 
113 11 193 48 51 8 158 16 215 153 207 127 60 
114 10 110 131 46 147 154 224 172 120 214 174 
115 11 150 37 47 83 137 148 31 229 22 109 13 
116 11 57 198 24 11 65 196 61 92 169 97 58 
117 10 73 91 34 197 225 186 160 231 107 9 
118 11 82 203 104 103 191 96 53 35 14 52 85 
119 11 12 38 149 146 180 127 101 166 179 139 45 
120 11 214 141 19 22 83 188 88 189 114 176 154 
121 11 227 55 164 41 213 200 94 151 130 97 99 
122 11 74 135 126 10 192 108 3 56 77 159 69 
123 10 20 84 163 70 17 176 45 67 166 230 
124 11 226 221 76 187 49 216 217 211 177 140 7 
125 11 161 9 160 2 34 73 225 175 91 117 178 
126 11 122 74 135 56 10 108 192 165 3 80 69 
127 11 153 215 48 139 38 158 8 119 16 207 113 
128 11 53 18 35 152 157 46 103 147 110 96 131 
129 11 26 68 27 33 98 132 202 146 15 210 66 
130 11 227 121 94 164 55 151 41 213 99 50 200 
131 11 147 172 224 46 154 174 114 110 145 96 79 
132 11 27 98 202 66 15 68 93 129 210 26 206 
133 11 171 111 5 54 219 183 200 169 209 97 41 
134 11 218 95 24 144 99 50 223 94 57 116 196 
135 11 74 122 10 192 108 126 3 159 59 77 86 
136 11 25 36 138 182 190 208 21 3 43 40 100 
137 11 109 90 112 31 115 150 61 47 13 92 223 
138 11 36 25 159 136 3 190 208 62 108 86 10 
139 11 230 166 38 127 21 215 153 17 119 12 45 
140 10 216 6 211 217 76 221 185 187 205 201 
141 10 19 120 214 188 88 189 22 176 83 225 
142 11 156 105 7 194 39 220 62 59 86 102 159 
143 11 71 228 64 50 134 218 144 94 99 164 130 
144 10 134 95 223 157 218 90 24 112 109 116 
145 11 79 174 224 2 172 85 154 14 178 42 191 
146 11 119 12 26 149 38 68 129 180 4 127 210 
147 11 46 131 172 96 103 224 14 35 174 114 154 
148 11 37 67 83 176 84 22 150 179 101 45 123 
149 11 12 119 180 38 101 179 45 146 166 230 4 
150 11 115 47 37 148 83 229 31 137 4 13 67 
151 10 213 41 183 200 121 227 54 171 162 133 
152 10 18 46 110 35 147 114 131 53 103 128 
153 11 215 127 48 207 8 158 16 113 139 38 193 
154 11 174 224 2 172 145 79 131 161 125 147 114 
155 11 162 199 183 44 219 167 54 181 209 171 133 
156 11 142 7 194 105 39 220 59 62 86 102 187 
157 10 18 152 128 144 110 53 223 95 35 46 
158 11 8 16 28 113 153 48 127 215 193 33 207 
159 11 3 86 108 10 59 138 62 36 25 190 135 
160 11 9 34 225 73 125 161 117 91 197 186 231 
161 11 125 9 160 2 34 225 73 175 91 79 154 
162 11 199 155 183 54 167 219 44 81 181 171 133 
163 11 70 20 17 123 182 232 75 21 72 230 84 
164 11 55 94 99 121 227 41 97 196 200 169 57 
165 11 100 190 208 89 25 60 3 36 43 108 10 
166 11 230 45 139 38 17 101 149 12 179 180 20 
167 11 181 44 199 33 155 162 129 28 26 202 27 
168 9 75 232 72 102 40 182 70 220 163 
169 11 97 5 111 58 133 196 200 171 198 57 41 
170 10 212 32 204 30 195 81 106 173 23 199 
171 11 133 54 111 219 5 183 200 169 41 97 209 
172 11 224 174 131 154 145 79 147 14 96 2 85 
173 11 23 78 30 193 106 113 51 32 80 87 8 
174 11 224 154 2 172 145 79 131 161 14 125 85 
175 10 231 9 186 125 91 34 107 161 160 73 
176 10 84 22 148 188 123 83 88 67 37 141 
177 11 77 69 49 192 39 135 74 56 122 194 59 
178 11 42 79 145 85 175 2 161 125 9 174 14 
179 11 101 180 45 149 67 12 166 38 119 4 230 
180 11 179 101 149 12 45 67 4 119 38 166 146 
181 11 167 44 33 155 199 129 28 26 202 27 68 
182 11 72 136 40 232 70 138 21 163 36 25 75 
183 11 54 219 171 133 111 155 162 200 5 213 209 
184 10 195 222 212 170 151 81 204 162 32 130 
185 9 205 105 102 211 142 156 187 168 7 
186 8 231 107 91 117 73 34 197 225 
187 11 7 221 76 156 194 142 211 105 39 185 205 
188 9 88 189 19 141 176 22 84 123 120 
189 9 88 188 19 141 176 197 225 22 84 
190 11 208 25 36 165 100 3 138 136 108 89 43 
191 11 14 85 96 42 203 145 79 103 172 178 224 
192 11 77 135 74 69 122 177 10 39 59 126 108 
193 11 51 113 48 207 80 215 60 153 8 158 89 
194 11 7 39 156 142 105 59 86 62 220 192 159 
195 10 212 170 184 204 81 32 30 222 162 199 
196 11 57 97 116 169 24 198 65 99 11 55 5 
197 9 117 225 73 34 91 186 160 107 231 
198 11 65 11 116 57 92 58 196 169 61 97 13 
199 11 162 155 167 181 44 81 183 54 219 33 209 
200 11 41 171 133 213 97 54 111 169 5 183 55 
201 2 6 107 
202 11 27 132 66 98 15 68 129 93 26 209 44 
203 11 191 14 85 96 82 42 103 104 52 145 79 
204 11 32 81 106 30 212 170 199 167 23 173 162 
205 9 185 105 102 142 156 168 211 7 187 
206 11 66 93 13 15 92 132 58 98 202 229 27 
207 11 48 215 60 153 51 89 43 193 113 127 100 
208 11 190 25 36 165 100 3 136 138 89 43 108 
209 11 219 58 111 5 133 202 54 171 66 155 183 
210 11 4 15 229 98 93 68 132 27 66 26 129 
211 10 140 76 216 185 187 205 221 6 7 156 
212 10 170 204 195 32 81 30 106 199 162 167 
213 11 41 200 151 183 54 171 133 121 55 219 111 
214 11 120 141 22 19 83 188 88 176 114 189 154 
215 11 153 48 127 207 113 139 8 158 193 16 51 
216 11 140 217 6 211 76 221 226 187 185 201 205 
217 10 216 6 140 211 76 226 221 201 124 187 
218 11 134 99 50 94 24 164 196 57 55 116 95 
219 11 54 111 133 171 183 5 209 155 200 58 169 
220 11 62 86 102 105 59 40 142 159 138 72 156 
221 11 76 226 187 211 7 124 216 49 140 194 156 
222 10 184 130 151 227 195 121 213 41 55 164 
223 11 95 90 112 109 137 61 24 116 11 31 92 
224 11 174 172 154 145 79 2 131 147 14 85 96 
225 11 73 34 117 160 197 91 9 186 125 161 231 
226 11 221 76 124 187 216 211 217 140 49 7 194 
227 11 121 55 164 130 41 213 151 94 200 99 97 
228 11 143 71 64 50 134 144 218 94 99 95 24 
229 11 210 93 4 47 15 98 206 66 132 13 37 
230 11 166 139 17 45 38 21 20 12 101 149 179 
231 9 186 107 91 34 73 175 117 9 160 
232 11 72 75 40 168 182 70 102 163 136 220 20 
DEPOT_SECTION
   1
   -1
EOF
