NAME :  X-n228-kX-w45-c11.cctp
COMMENT : 	Adapted by Maziero, Usberti and Cavellucci from the Uchoa, Pecin, Pessoa, Poggi, Subramanian, and Vidal (2013)
TYPE :  CCTP
DIMENSION :    210
EDGE_WEIGHT_TYPE : 	EUC_2D	
CAPACITY : 	154
VERTICES_WITHIN_COVERAGE :  11
VERTICES_WITH_DEMAND : 	45
NODE_COORD_SECTION
1 550 574
2 177 24
3 448 476
4 934 619
5 323 122
6 430 76
7 364 9
8 988 994
9 91 636
10 938 641
11 979 764
12 4 748
13 420 164
14 294 15
15 304 89
16 362 207
17 770 344
18 67 634
19 90 44
20 712 418
21 299 6
22 997 871
23 38 695
24 830 1000
25 916 622
26 445 107
27 314 222
28 292 519
29 183 344
30 520 434
31 262 283
32 996 902
33 115 158
34 371 61
35 971 352
36 448 484
37 299 89
38 402 147
39 537 431
40 389 48
41 186 22
42 658 505
43 459 528
44 956 900
45 486 383
46 36 651
47 994 713
48 270 100
49 944 606
50 813 917
51 318 42
52 17 369
53 398 280
54 74 760
55 910 623
56 96 604
57 432 96
58 188 17
59 441 480
60 458 124
61 557 620
62 196 51
63 953 658
64 389 0
65 386 127
66 140 683
67 293 75
68 475 386
69 224 487
70 299 157
71 556 346
72 366 110
73 681 864
74 382 140
75 266 88
76 440 423
77 168 19
78 616 244
79 126 666
80 332 85
81 234 26
82 834 571
83 49 602
84 81 696
85 308 43
86 915 675
87 500 518
88 510 353
89 329 86
90 830 724
91 993 634
92 959 600
93 991 973
94 411 25
95 382 303
96 477 58
97 225 31
98 439 456
99 120 710
100 462 471
101 107 134
102 970 995
103 427 501
104 938 650
105 370 16
106 460 140
107 263 59
108 411 89
109 953 944
110 79 357
111 757 867
112 343 121
113 361 316
114 407 508
115 414 117
116 576 591
117 544 44
118 418 27
119 837 660
120 174 487
121 168 601
122 854 575
123 193 51
124 458 659
125 957 641
126 51 647
127 137 714
128 386 146
129 976 649
130 281 121
131 453 69
132 393 25
133 341 532
134 466 153
135 507 472
136 946 963
137 327 78
138 301 135
139 997 980
140 343 173
141 860 622
142 317 211
143 418 6
144 833 694
145 83 641
146 229 449
147 283 204
148 513 697
149 247 22
150 651 664
151 857 701
152 337 72
153 439 65
154 398 106
155 409 24
156 931 476
157 368 92
158 97 676
159 880 606
160 281 199
161 410 110
162 252 22
163 181 147
164 945 948
165 135 618
166 348 443
167 296 39
168 953 368
169 81 826
170 997 734
171 533 134
172 372 134
173 317 479
174 143 603
175 122 38
176 946 690
177 95 37
178 429 9
179 137 64
180 361 258
181 153 65
182 536 296
183 509 404
184 423 59
185 525 342
186 943 678
187 522 195
188 463 29
189 371 335
190 289 136
191 191 568
192 505 381
193 125 62
194 304 44
195 958 610
196 975 966
197 277 631
198 486 111
199 940 621
200 993 964
201 771 548
202 484 276
203 440 455
204 104 561
205 200 61
206 491 62
207 628 312
208 430 429
209 945 994
210 461 608
DEMAND_SECTION
2 79
3 57
4 88
5 54
6 92
7 84
8 61
9 100
10 61
11 69
12 78
13 54
14 59
15 60
16 61
17 85
18 67
19 96
20 57
21 57
22 52
23 80
24 60
25 71
26 93
27 59
28 88
29 77
30 50
31 98
32 53
33 54
34 99
35 10
36 9
37 8
38 9
39 7
40 10
41 9
42 2
43 3
44 3
45 7
46 8
COVERAGE_SECTION
2 11 41 77 58 123 62 205 181 97 81 175 179 
3 11 36 59 100 98 203 103 208 114 43 76 135 
4 11 199 49 25 10 55 195 92 104 125 63 129 
5 11 112 138 89 190 15 80 37 70 130 137 72 
6 11 153 184 57 108 131 26 161 115 154 40 96 
7 11 105 64 132 40 155 94 34 143 51 118 21 
8 11 139 102 93 200 196 209 136 109 164 32 44 
9 11 145 18 56 158 126 79 165 83 46 84 174 
10 11 104 125 199 4 63 25 55 49 186 195 129 
11 11 170 47 176 186 22 63 86 129 104 125 10 
12 11 23 54 84 46 169 126 158 99 18 145 127 
13 11 38 128 74 106 115 134 65 60 161 172 26 
14 10 21 167 85 194 51 162 149 107 67 81 
15 11 37 67 89 137 80 48 152 5 75 130 194 
16 11 140 142 27 180 128 74 13 38 172 147 70 
17 11 20 207 78 168 42 35 201 156 71 82 182 
18 11 145 126 9 46 83 56 158 84 79 23 165 
19 11 177 175 193 179 181 77 2 101 41 58 123 
20 11 17 42 207 201 71 39 30 82 78 185 183 
21 10 14 167 85 194 51 162 149 107 7 81 
22 11 32 44 109 164 200 196 93 136 11 139 8 
23 11 84 46 126 158 12 18 145 54 9 99 79 
24 11 50 209 136 164 109 102 196 111 8 44 93 
25 11 55 4 199 10 49 104 159 195 125 92 63 
26 11 57 60 115 6 161 106 108 131 198 153 154 
27 8 142 147 160 16 140 180 70 31 
28 11 173 133 69 146 166 191 197 114 120 103 121 
29 10 31 110 146 120 69 52 147 160 27 113 
30 11 39 183 135 192 45 68 100 76 88 3 203 
31 8 27 147 160 142 29 180 113 189 
32 11 22 44 109 200 196 164 93 139 136 8 102 
33 9 101 163 179 193 181 19 175 177 205 
34 11 40 157 152 132 105 80 137 72 89 108 7 
35 11 168 156 17 92 122 49 82 195 20 4 159 
36 11 3 59 100 103 98 203 43 114 208 135 76 
37 11 15 67 89 137 48 75 80 130 5 152 194 
38 11 128 74 13 65 115 172 161 154 72 106 26 
39 11 30 183 135 192 45 68 88 100 71 185 87 
40 11 34 132 155 94 118 184 105 7 108 64 157 
41 11 58 2 77 123 62 97 205 81 181 149 179 
42 11 20 116 201 39 61 30 135 87 150 183 82 
43 11 87 103 36 59 3 114 100 135 98 203 210 
44 11 32 109 164 22 136 196 200 93 139 209 102 
45 11 68 192 183 88 185 30 76 39 208 71 203 
46 11 126 18 23 145 83 9 84 158 56 79 12 
47 11 170 11 176 186 129 63 91 125 104 86 10 
48 7 75 130 37 67 15 190 107 
49 11 195 4 92 199 25 10 125 55 104 63 129 
50 11 111 24 164 136 73 109 44 209 196 102 32 
51 11 85 194 167 14 152 137 21 67 80 89 15 
52 11 110 29 120 204 146 33 83 69 56 101 31 
53 11 95 180 113 189 16 202 27 142 13 140 68 
54 9 84 169 99 12 23 127 158 66 79 
55 11 25 4 199 10 159 49 104 125 141 195 86 
56 11 9 145 165 18 204 83 174 126 79 121 158 
57 11 26 6 108 161 115 153 131 154 60 184 106 
58 11 41 2 77 123 62 97 205 81 149 181 162 
59 11 3 36 100 98 103 203 114 43 208 76 135 
60 11 106 26 134 198 57 115 161 13 131 6 108 
61 11 116 148 210 150 124 87 43 42 135 36 103 
62 9 123 205 41 2 58 97 77 81 181 
63 11 104 125 186 10 129 176 199 86 4 91 195 
64 11 105 132 7 143 155 94 118 178 40 34 184 
65 11 74 172 128 154 38 72 161 115 157 112 108 
66 9 79 127 99 158 84 165 9 145 174 
67 10 37 15 75 194 48 107 137 85 167 89 
68 11 45 192 183 88 76 208 30 185 39 203 98 
69 11 146 120 28 191 173 133 121 166 174 204 29 
70 6 138 190 130 5 160 140 
71 11 185 88 182 192 183 45 207 39 68 30 202 
72 11 157 112 172 65 154 74 128 80 89 161 5 
73 11 111 50 24 150 90 144 148 151 119 61 44 
74 11 128 172 65 38 72 154 115 161 112 13 157 
75 6 48 107 67 37 130 15 
76 11 208 203 98 68 100 3 59 45 36 183 192 
77 11 2 41 58 123 62 181 175 205 179 97 193 
78 11 207 182 187 71 185 202 171 88 134 192 17 
79 10 66 158 99 9 127 165 145 84 174 18 
80 11 89 137 152 15 37 157 5 112 67 72 51 
81 9 97 149 162 107 62 58 41 123 205 
82 11 122 141 159 201 119 55 25 4 49 199 144 
83 11 18 126 56 46 145 9 204 165 158 23 174 
84 11 158 99 23 79 145 126 127 66 9 18 46 
85 10 194 51 167 14 67 21 137 152 15 37 
86 11 186 104 176 10 63 55 25 125 4 199 151 
87 11 43 135 100 36 3 59 103 30 98 203 114 
88 11 185 192 45 71 68 183 182 202 30 39 76 
89 11 80 137 152 15 37 5 67 112 157 72 51 
90 11 144 151 119 86 141 176 186 159 55 104 25 
91 11 129 125 195 63 92 10 199 49 104 4 186 
92 11 195 49 199 4 125 10 25 91 129 55 104 
93 11 139 200 196 8 102 136 109 209 164 32 44 
94 11 155 118 132 143 178 40 64 184 105 153 7 
95 11 113 53 189 180 16 27 202 142 31 68 45 
96 9 206 131 188 153 6 184 198 26 57 
97 10 81 149 162 62 123 205 41 58 107 2 
98 11 203 3 59 100 208 36 76 103 114 135 43 
99 9 127 66 84 158 79 54 145 9 23 
100 11 3 36 59 98 203 135 103 76 208 43 87 
101 9 33 193 163 179 181 19 175 177 205 
102 11 8 209 196 93 139 200 136 164 109 44 32 
103 11 114 59 36 3 43 100 98 203 208 87 76 
104 11 10 63 125 186 199 4 86 25 129 55 176 
105 11 7 64 132 40 155 94 34 118 143 51 178 
106 11 134 60 26 198 13 115 57 38 161 6 108 
107 9 75 67 162 167 149 48 81 194 37 
108 11 154 161 57 6 115 184 153 26 157 65 40 
109 11 164 136 196 44 200 93 209 102 139 32 8 
110 11 52 29 120 146 69 31 33 204 101 163 191 
111 11 50 73 24 90 144 151 44 164 109 136 119 
112 11 5 72 172 80 89 157 65 74 138 137 152 
113 11 189 95 53 180 31 27 16 142 166 202 208 
114 11 103 59 36 3 43 98 203 100 133 208 166 
115 11 161 154 57 108 65 38 26 74 128 6 60 
116 11 61 87 150 210 42 148 43 124 135 39 100 
117 8 206 96 188 198 171 131 153 26 
118 11 94 155 143 178 132 184 40 64 153 188 105 
119 11 144 141 151 90 159 86 55 122 25 82 104 
120 11 69 146 191 204 121 174 28 165 56 29 173 
121 9 174 165 191 56 204 79 9 66 145 
122 11 82 159 141 55 25 119 201 4 49 199 10 
123 10 62 205 41 2 58 97 77 181 81 179 
124 11 210 148 61 43 116 87 114 103 133 36 59 
125 11 63 10 104 129 199 195 4 49 91 186 92 
126 11 46 18 145 9 83 23 158 84 56 79 165 
127 8 99 66 79 158 84 54 9 145 
128 11 74 38 172 65 13 115 72 154 161 112 140 
129 11 125 91 63 104 10 195 186 199 176 4 92 
130 9 190 48 138 75 37 15 70 5 67 
131 11 153 6 96 184 57 26 206 188 108 198 60 
132 11 155 94 40 64 105 118 143 7 178 34 184 
133 11 28 173 114 166 103 59 36 43 197 3 98 
134 11 106 60 13 198 26 115 38 57 171 187 161 
135 11 30 100 87 39 3 36 59 183 203 98 43 
136 11 164 109 196 209 102 93 200 8 139 44 32 
137 11 89 80 152 15 37 67 51 85 194 157 5 
138 8 190 70 130 5 112 15 37 48 
139 11 93 200 8 196 102 136 209 109 164 32 44 
140 10 16 142 70 172 74 128 112 5 27 138 
141 11 159 119 122 55 25 82 4 86 144 151 10 
142 8 27 147 160 16 140 70 180 138 
143 11 178 94 155 118 64 132 105 40 188 184 7 
144 11 151 90 119 141 86 159 55 25 186 176 104 
145 11 9 18 126 158 56 46 79 83 84 165 23 
146 11 69 120 173 28 29 166 191 133 121 204 31 
147 7 160 142 27 70 140 190 138 
148 11 124 61 210 116 150 43 87 103 114 36 135 
149 9 162 81 97 107 14 167 21 58 62 
150 11 61 116 148 42 201 144 119 90 124 210 73 
151 11 144 90 119 86 141 186 176 55 104 159 25 
152 11 137 80 89 34 51 15 157 85 37 194 67 
153 11 6 131 184 57 108 96 26 118 188 94 155 
154 11 161 115 108 65 72 157 57 74 172 38 128 
155 11 94 118 132 143 178 40 64 184 105 7 153 
156 11 168 122 92 35 49 82 195 159 4 199 25 
157 11 72 34 154 80 152 112 65 89 172 108 137 
158 11 84 79 145 9 99 66 18 126 127 23 46 
159 11 141 55 25 122 4 82 199 49 10 119 104 
160 7 147 142 27 70 190 138 140 
161 11 115 154 108 57 65 26 38 6 74 128 72 
162 9 149 81 97 107 14 167 21 194 85 
163 5 33 101 181 205 179 
164 11 109 136 196 209 44 200 93 102 139 8 32 
165 11 174 121 56 9 79 145 66 204 158 18 191 
166 11 173 208 114 133 98 203 28 76 103 59 3 
167 10 194 85 51 14 21 67 107 162 37 137 
168 11 35 156 17 122 92 82 49 195 20 159 4 
169 8 54 12 99 127 84 23 158 66 
170 11 47 11 176 186 63 129 91 86 125 104 10 
171 11 198 187 134 106 60 206 117 26 96 131 57 
172 11 74 65 128 72 112 38 154 157 115 161 140 
173 11 28 166 133 69 146 114 103 59 98 208 203 
174 11 165 121 56 204 191 9 79 145 66 18 158 
175 11 193 177 179 19 181 77 2 41 58 123 62 
176 11 186 63 86 104 10 125 129 47 170 199 4 
177 11 19 175 193 179 181 77 2 41 58 101 123 
178 11 143 118 94 155 132 188 64 184 40 153 105 
179 11 193 181 175 177 19 77 2 123 62 205 41 
180 11 53 95 16 113 27 142 189 140 147 160 31 
181 11 179 193 175 123 62 205 2 77 41 58 177 
182 11 185 71 202 88 192 207 78 45 187 68 183 
183 11 192 45 30 68 39 88 185 135 76 71 100 
184 11 153 6 108 118 131 40 94 57 155 132 178 
185 11 88 71 192 182 45 183 68 202 39 30 207 
186 11 176 63 86 104 10 125 129 199 4 25 47 
187 11 171 134 106 202 198 60 182 78 13 26 38 
188 11 96 178 131 153 206 118 184 143 94 155 6 
189 11 113 95 53 180 166 208 76 68 31 45 27 
190 6 138 130 70 5 48 37 
191 10 121 174 165 120 69 204 56 197 28 79 
192 11 45 183 88 68 185 30 39 71 76 208 182 
193 11 179 175 181 19 177 77 2 123 62 41 101 
194 10 85 167 51 14 67 21 137 152 107 15 
195 11 92 49 199 4 125 10 91 129 25 104 63 
196 11 93 200 139 102 136 8 109 164 209 32 44 
197 9 191 28 121 133 174 165 66 69 79 
198 11 60 106 26 134 206 171 131 96 57 6 153 
199 11 4 49 10 195 25 125 92 104 55 63 129 
200 11 93 139 196 8 102 109 136 164 209 32 44 
201 11 82 122 141 42 159 119 20 55 144 25 150 
202 11 182 185 88 53 187 71 95 45 192 68 134 
203 11 98 3 59 100 208 36 76 103 114 135 43 
204 11 56 174 165 83 121 9 18 145 191 126 120 
205 8 62 123 97 41 2 58 181 81 
206 9 96 131 188 198 153 117 6 26 57 
207 11 78 71 182 185 88 20 192 17 202 39 183 
208 11 76 98 203 3 59 100 36 68 45 103 114 
209 11 102 136 196 8 164 93 109 139 200 44 32 
210 11 124 43 61 87 148 103 114 116 36 59 3 
DEPOT_SECTION
   1
   -1
EOF
