NAME :  X-n214-kX-w42-c7.cctp
COMMENT : 	Adapted by Maziero, Usberti and Cavellucci from the Uchoa, Pecin, Pessoa, Poggi, Subramanian, and Vidal (2013)
TYPE :  CCTP
DIMENSION :    181
EDGE_WEIGHT_TYPE : 	EUC_2D	
CAPACITY : 	944
VERTICES_WITHIN_COVERAGE :  7
VERTICES_WITH_DEMAND : 	42
NODE_COORD_SECTION
1 500 500
2 753 355
3 663 83
4 725 286
5 581 444
6 700 205
7 630 475
8 560 407
9 848 374
10 752 315
11 454 310
12 685 227
13 747 468
14 540 348
15 882 346
16 762 228
17 884 307
18 681 274
19 761 254
20 791 205
21 699 559
22 694 352
23 679 11
24 656 446
25 428 487
26 838 395
27 554 590
28 567 250
29 769 381
30 753 20
31 710 296
32 653 489
33 711 447
34 516 322
35 704 265
36 742 358
37 578 423
38 923 378
39 451 120
40 449 254
41 626 264
42 701 203
43 751 293
44 835 0
45 640 218
46 493 226
47 483 445
48 465 361
49 894 399
50 824 388
51 605 238
52 561 443
53 663 9
54 768 339
55 634 426
56 735 280
57 842 365
58 671 124
59 680 251
60 558 451
61 884 356
62 746 384
63 687 227
64 855 350
65 656 450
66 560 459
67 591 433
68 451 36
69 747 26
70 753 384
71 530 259
72 739 215
73 537 267
74 742 304
75 509 418
76 667 17
77 534 297
78 470 482
79 817 366
80 728 264
81 778 44
82 856 360
83 666 107
84 538 317
85 715 34
86 875 290
87 725 237
88 563 394
89 775 378
90 587 443
91 535 665
92 696 387
93 704 153
94 667 448
95 557 440
96 682 461
97 762 279
98 824 522
99 764 259
100 759 334
101 750 391
102 893 283
103 900 308
104 641 474
105 597 236
106 294 448
107 852 182
108 526 330
109 735 460
110 901 303
111 545 395
112 494 2
113 741 339
114 795 456
115 783 343
116 694 224
117 698 323
118 683 222
119 704 269
120 769 321
121 605 103
122 567 464
123 743 205
124 622 449
125 745 269
126 603 447
127 634 194
128 662 86
129 608 618
130 489 267
131 478 510
132 569 497
133 611 550
134 749 387
135 683 355
136 682 81
137 701 170
138 653 414
139 683 308
140 659 582
141 668 329
142 662 288
143 897 399
144 770 366
145 540 212
146 606 309
147 581 254
148 582 485
149 848 381
150 828 150
151 707 424
152 770 259
153 702 94
154 823 162
155 570 186
156 552 317
157 626 88
158 999 631
159 860 274
160 354 662
161 654 285
162 785 82
163 637 568
164 449 359
165 552 440
166 810 205
167 628 24
168 728 294
169 733 311
170 750 327
171 727 278
172 718 413
173 725 355
174 723 556
175 449 346
176 731 373
177 349 465
178 572 542
179 711 417
180 678 44
181 604 593
DEMAND_SECTION
2 83
3 84
4 34
5 17
6 88
7 59
8 56
9 33
10 21
11 37
12 15
13 97
14 23
15 76
16 94
17 99
18 30
19 44
20 45
21 8
22 37
23 43
24 15
25 18
26 73
27 65
28 89
29 5
30 13
31 64
32 60
33 20
34 12
35 59
36 25
37 2
38 60
39 61
40 6
41 17
42 65
43 26
COVERAGE_SECTION
2 7 36 113 144 54 100 170 173 
3 7 128 136 83 157 153 58 180 
4 7 171 168 56 31 80 74 125 
5 7 90 67 52 37 126 60 95 
6 7 42 116 118 63 12 137 72 
7 7 104 32 124 65 24 126 94 
8 7 88 111 37 95 165 52 67 
9 7 149 57 82 26 64 50 79 
10 7 170 74 120 169 100 43 113 
11 7 175 164 48 130 40 34 108 
12 7 63 118 116 59 6 42 87 
13 7 109 33 114 151 172 179 96 
14 7 108 84 156 34 111 77 88 
15 7 61 64 82 17 103 9 57 
16 7 19 72 123 99 152 20 87 
17 7 103 110 86 102 15 159 61 
18 7 59 119 142 35 161 139 31 
19 7 99 152 125 97 16 80 56 
20 7 166 16 123 72 154 19 152 
21 7 174 140 163 32 133 96 181 
22 7 135 117 173 92 141 176 139 
23 7 76 53 180 85 167 69 136 
24 7 65 94 55 96 104 138 124 
25 5 78 131 47 177 75 
26 7 50 149 9 57 79 82 64 
27 7 181 178 129 133 91 163 132 
28 7 147 105 73 71 51 145 77 
29 7 89 144 70 101 134 62 2 
30 6 69 81 85 162 23 180 
31 7 4 168 171 169 119 56 117 
32 7 104 7 65 96 24 94 124 
33 7 151 109 179 96 172 13 94 
34 7 108 84 77 14 156 73 130 
35 7 119 80 18 171 59 4 31 
36 7 2 173 113 176 62 70 100 
37 7 67 5 90 8 52 95 165 
38 7 143 49 61 15 82 64 103 
39 4 68 46 112 145 
40 7 130 46 11 71 73 175 34 
41 7 51 161 105 142 147 45 146 
42 7 6 116 118 63 12 137 72 
43 7 74 97 56 10 168 125 169 
44 5 81 30 69 162 85 
45 7 127 51 118 12 105 41 63 
46 7 130 145 71 40 73 28 77 
47 4 75 78 131 25 
48 7 164 175 11 34 108 75 14 
49 7 143 38 61 149 9 15 82 
50 7 26 79 149 9 57 82 64 
51 6 105 147 41 28 45 127 
52 6 95 60 165 66 5 122 
53 7 76 23 167 180 85 3 136 
54 7 100 115 120 2 170 113 144 
55 6 138 124 24 65 126 94 
56 7 171 4 125 168 80 43 74 
57 7 9 82 149 64 79 50 26 
58 5 83 128 3 153 93 
59 7 18 12 63 35 118 116 119 
60 6 66 52 95 165 122 5 
61 7 15 82 64 9 57 49 149 
62 7 134 70 101 176 29 36 2 
63 7 12 118 116 59 6 42 87 
64 7 82 57 9 15 61 149 79 
65 7 24 94 96 104 55 124 7 
66 6 60 122 52 95 165 5 
67 7 90 5 37 126 52 95 124 
68 2 112 39 
69 6 30 85 81 162 23 180 
70 7 134 62 101 29 89 144 176 
71 7 73 28 77 130 145 46 147 
72 7 123 16 87 6 42 19 116 
73 7 71 77 28 147 130 84 156 
74 7 169 43 10 168 170 4 56 
75 4 47 111 165 8 
76 7 53 23 180 167 85 3 136 
77 7 84 156 73 34 108 71 14 
78 4 131 47 25 75 
79 7 50 57 9 149 26 82 64 
80 7 171 56 125 4 35 119 87 
81 5 30 69 162 85 44 
82 7 64 57 9 149 61 15 26 
83 6 58 128 3 136 153 157 
84 6 156 108 77 34 14 73 
85 7 69 180 30 23 76 136 53 
86 5 17 102 159 110 103 
87 7 72 80 116 35 123 16 119 
88 6 8 111 37 95 165 67 
89 7 29 144 70 101 134 62 2 
90 7 5 67 126 37 52 122 60 
91 7 27 129 181 178 133 163 140 
92 7 172 179 22 135 176 151 173 
93 5 137 58 42 6 153 
94 7 24 65 96 104 138 55 32 
95 6 52 165 60 66 5 122 
96 7 94 65 24 33 32 104 151 
97 7 43 99 125 152 19 56 74 
98 7 114 13 174 109 26 21 50 
99 7 19 152 97 125 16 43 56 
100 7 54 170 120 113 10 2 115 
101 7 134 62 70 29 176 89 144 
102 5 86 110 17 103 159 
103 7 110 17 102 86 15 61 159 
104 7 7 32 65 124 24 94 96 
105 6 51 147 28 41 45 127 
106 7 177 25 78 164 175 47 48 
107 5 154 150 166 20 159 
108 7 34 84 14 156 77 73 48 
109 7 13 33 151 179 172 96 114 
110 7 103 17 102 86 15 159 61 
111 7 88 8 37 75 165 14 95 
112 2 68 39 
113 7 170 36 100 2 173 10 54 
114 7 13 109 98 50 26 29 101 
115 6 54 100 120 144 2 89 
116 7 63 12 118 6 42 59 87 
117 7 139 22 31 141 135 169 168 
118 7 12 63 116 6 42 59 45 
119 7 35 18 80 171 4 31 59 
120 7 100 10 54 170 115 74 43 
121 4 157 128 3 83 
122 7 66 60 52 5 95 148 165 
123 7 72 16 87 42 6 20 19 
124 7 126 55 7 104 24 65 67 
125 7 56 80 97 171 99 19 43 
126 7 90 67 124 5 37 55 7 
127 6 45 51 105 118 12 63 
128 7 3 83 136 157 58 153 180 
129 7 181 163 27 140 133 178 91 
130 7 46 40 71 73 77 11 34 
131 4 78 25 47 132 
132 7 148 122 66 178 60 5 52 
133 7 163 178 181 140 129 132 27 
134 7 62 101 70 29 176 89 36 
135 5 22 141 92 117 173 
136 6 3 128 153 83 180 58 
137 5 93 42 6 116 58 
138 5 55 24 65 94 124 
139 6 117 141 142 31 18 161 
140 7 163 21 181 133 129 174 32 
141 5 139 135 117 22 142 
142 7 161 18 139 59 141 41 119 
143 7 49 38 61 149 9 15 82 
144 7 89 29 2 70 115 54 36 
145 6 155 28 71 46 73 147 
146 2 41 161 
147 7 28 105 51 41 73 71 145 
148 7 132 122 66 5 60 90 126 
149 7 9 26 57 82 50 64 79 
150 5 154 107 166 20 162 
151 7 179 172 33 92 96 109 94 
152 7 99 19 97 125 16 43 56 
153 5 136 83 3 128 58 
154 6 150 107 166 20 162 16 
155 4 145 105 51 28 
156 6 84 77 108 14 34 73 
157 5 121 128 3 83 136 
158 7 98 143 49 38 114 26 174 
159 3 86 102 17 
160 7 91 25 131 177 27 78 106 
161 6 142 18 41 139 59 141 
162 5 81 69 30 150 153 
163 7 140 133 181 129 21 178 32 
164 7 175 48 11 34 108 75 14 
165 6 95 52 60 66 122 5 
166 5 20 154 107 16 150 
167 4 53 76 23 180 
168 7 4 56 171 74 31 169 43 
169 7 74 168 10 170 43 4 31 
170 7 100 10 113 120 54 169 74 
171 7 4 56 80 168 125 31 119 
172 7 179 151 92 33 101 62 134 
173 7 36 176 113 2 22 62 170 
174 7 21 140 163 13 32 109 96 
175 7 164 48 11 34 108 130 14 
176 7 36 62 173 134 70 101 2 
177 6 106 25 78 47 131 164 
178 7 133 132 27 148 181 163 122 
179 7 151 172 33 92 101 62 134 
180 7 76 23 136 53 85 3 128 
181 7 129 163 133 27 140 178 91 
DEPOT_SECTION
   1
   -1
EOF
