NAME :  X-n251-kX-w100-c7.cctp
COMMENT : 	Adapted by Maziero, Usberti and Cavellucci from the Uchoa, Pecin, Pessoa, Poggi, Subramanian, and Vidal (2013)
TYPE :  CCTP
DIMENSION :    215
EDGE_WEIGHT_TYPE : 	EUC_2D	
CAPACITY : 	69
VERTICES_WITHIN_COVERAGE :  7
VERTICES_WITH_DEMAND : 	100
NODE_COORD_SECTION
1 112 700
2 363 779
3 245 896
4 238 19
5 184 351
6 305 763
7 366 814
8 137 857
9 564 31
10 303 157
11 523 830
12 134 231
13 851 445
14 740 311
15 163 95
16 275 499
17 470 814
18 453 217
19 818 525
20 311 911
21 177 374
22 230 4
23 590 302
24 196 103
25 553 879
26 316 446
27 665 375
28 587 609
29 510 95
30 907 455
31 805 956
32 342 345
33 785 309
34 649 584
35 850 24
36 26 126
37 447 817
38 145 527
39 218 825
40 405 151
41 389 436
42 452 619
43 407 367
44 948 514
45 836 996
46 578 334
47 491 929
48 325 696
49 838 842
50 983 788
51 623 549
52 915 72
53 774 336
54 81 238
55 534 537
56 295 406
57 853 358
58 742 581
59 32 964
60 747 352
61 610 799
62 786 853
63 506 168
64 755 957
65 408 67
66 485 734
67 419 256
68 508 155
69 941 589
70 68 42
71 817 595
72 397 274
73 727 302
74 216 237
75 821 320
76 516 531
77 614 163
78 561 920
79 128 834
80 162 534
81 279 644
82 188 329
83 520 301
84 336 782
85 728 230
86 139 848
87 350 154
88 242 162
89 791 925
90 907 497
91 52 593
92 786 457
93 629 745
94 935 439
95 641 78
96 78 835
97 232 226
98 123 479
99 205 840
100 932 357
101 917 917
102 325 559
103 413 373
104 362 477
105 827 881
106 845 263
107 11 938
108 88 535
109 436 200
110 940 319
111 325 59
112 34 264
113 47 470
114 322 89
115 757 29
116 825 289
117 287 304
118 657 82
119 288 406
120 287 623
121 616 828
122 60 445
123 978 511
124 956 171
125 818 184
126 605 464
127 462 934
128 599 895
129 364 90
130 304 854
131 753 926
132 343 127
133 422 270
134 472 104
135 453 844
136 526 137
137 230 995
138 675 278
139 495 428
140 684 158
141 446 37
142 507 67
143 654 332
144 526 932
145 479 288
146 708 108
147 588 159
148 473 898
149 618 85
150 433 373
151 409 207
152 470 925
153 534 887
154 770 74
155 546 47
156 612 177
157 597 299
158 630 398
159 538 29
160 524 66
161 326 841
162 533 86
163 503 136
164 557 307
165 350 13
166 720 957
167 515 103
168 496 204
169 482 329
170 338 918
171 427 792
172 441 297
173 764 238
174 504 147
175 488 66
176 509 204
177 596 931
178 578 922
179 496 161
180 361 962
181 539 869
182 460 149
183 468 807
184 448 49
185 609 100
186 537 7
187 697 29
188 440 120
189 400 190
190 469 264
191 440 203
192 628 934
193 632 84
194 508 184
195 635 25
196 490 104
197 528 2
198 482 957
199 457 847
200 495 287
201 183 354
202 814 278
203 359 893
204 598 325
205 552 367
206 665 287
207 549 277
208 474 937
209 499 922
210 522 337
211 442 130
212 559 398
213 524 193
214 515 935
215 605 773
DEMAND_SECTION
2 5
3 7
4 5
5 8
6 7
7 8
8 7
9 9
10 7
11 6
12 7
13 8
14 6
15 9
16 8
17 8
18 9
19 6
20 8
21 5
22 6
23 7
24 7
25 6
26 9
27 6
28 7
29 10
30 9
31 5
32 10
33 10
34 9
35 5
36 7
37 6
38 9
39 8
40 9
41 6
42 5
43 8
44 6
45 5
46 5
47 5
48 7
49 5
50 7
51 7
52 8
53 9
54 10
55 5
56 10
57 10
58 9
59 8
60 9
61 7
62 10
63 10
64 6
65 9
66 8
67 9
68 7
69 5
70 8
71 10
72 9
73 7
74 8
75 9
76 5
77 10
78 8
79 9
80 9
81 8
82 9
83 8
84 10
85 5
86 10
87 6
88 10
89 7
90 8
91 5
92 7
93 7
94 5
95 5
96 7
97 5
98 9
99 6
100 10
101 5
COVERAGE_SECTION
2 7 84 7 6 171 161 48 37 
3 7 20 99 130 39 170 161 137 
4 7 22 24 111 15 114 165 88 
5 7 201 82 21 117 74 119 56 
6 7 84 2 48 7 161 130 39 
7 7 2 84 161 171 130 203 6 
8 7 86 79 96 99 39 3 59 
9 4 155 159 186 197 
10 7 87 132 88 114 129 97 111 
11 7 181 17 25 153 183 199 135 
12 7 54 74 97 112 82 88 5 
13 7 30 92 90 94 19 57 44 
14 7 73 53 60 33 138 173 206 
15 7 24 88 4 70 22 12 36 
16 7 26 102 104 119 56 80 120 
17 7 183 37 135 199 171 11 66 
18 7 191 109 151 168 190 67 176 
19 7 71 92 13 90 58 30 44 
20 7 170 203 130 3 180 161 7 
21 7 201 5 82 119 98 56 117 
22 7 4 24 111 15 165 114 88 
23 7 157 204 164 46 207 83 143 
24 7 15 88 4 22 10 114 97 
25 7 181 153 78 128 178 11 144 
26 7 56 119 104 16 41 32 102 
27 7 158 143 204 60 206 46 73 
28 7 34 51 55 76 42 93 126 
29 6 167 196 162 142 160 175 
30 7 94 90 13 44 123 100 57 
31 7 89 64 45 131 105 166 62 
32 7 43 117 103 56 119 72 150 
33 7 53 75 202 14 116 60 73 
34 7 51 28 58 55 126 76 93 
35 7 52 115 154 187 125 146 124 
36 7 70 54 112 15 12 24 88 
37 7 17 183 135 171 199 11 7 
38 7 80 98 108 113 91 122 16 
39 7 99 3 86 8 79 130 6 
40 7 189 211 188 87 182 151 109 
41 7 104 103 43 26 150 56 32 
42 7 76 55 66 28 102 48 120 
43 7 103 150 32 41 172 169 72 
44 7 123 90 30 69 94 13 19 
45 7 31 89 64 131 101 105 166 
46 7 204 23 164 157 205 210 207 
47 7 209 208 152 214 127 198 144 
48 7 81 6 120 84 2 7 102 
49 7 105 62 89 101 31 131 64 
50 7 101 49 105 69 62 89 31 
51 7 34 28 126 55 76 58 158 
52 7 35 124 154 125 115 106 146 
53 7 33 60 14 75 73 116 202 
54 7 12 112 36 74 82 97 5 
55 7 76 28 51 126 42 139 34 
56 7 119 26 32 16 104 41 117 
57 7 75 116 100 53 33 13 202 
58 7 71 34 19 51 92 28 13 
59 7 107 96 8 86 79 137 99 
60 7 53 14 73 33 75 27 143 
61 7 215 121 93 11 128 25 181 
62 7 105 49 89 131 31 64 166 
63 7 179 68 194 174 213 163 176 
64 7 131 166 89 31 45 105 62 
65 6 184 141 129 188 211 134 
66 7 183 17 171 37 11 135 199 
67 7 133 72 172 151 190 18 191 
68 7 174 63 179 163 136 194 213 
69 7 44 123 90 71 30 19 94 
70 7 36 15 24 22 4 54 12 
71 7 19 58 69 90 92 13 44 
72 7 133 67 172 151 190 18 145 
73 7 14 60 138 33 53 206 85 
74 7 97 88 12 82 117 5 10 
75 7 116 33 202 53 57 106 14 
76 7 55 28 139 42 51 126 212 
77 3 156 147 185 
78 7 178 144 177 25 153 128 214 
79 7 86 8 96 99 39 3 107 
80 7 38 98 108 16 91 113 122 
81 7 120 48 102 6 16 84 2 
82 7 5 201 21 74 117 12 97 
83 6 200 210 164 207 145 169 
84 7 2 6 7 161 130 48 171 
85 7 173 73 138 14 140 206 33 
86 7 8 79 96 99 39 3 107 
87 7 132 10 40 189 129 114 151 
88 7 10 97 24 74 15 132 87 
89 7 31 131 64 105 62 166 45 
90 7 30 44 94 123 13 19 69 
91 7 108 38 113 80 98 122 81 
92 7 13 19 60 57 30 53 90 
93 7 215 61 121 11 28 66 128 
94 7 30 90 44 100 13 123 57 
95 5 193 118 149 185 195 
96 7 79 86 8 107 99 59 39 
97 7 74 88 117 12 10 82 24 
98 7 38 108 80 122 113 21 91 
99 7 39 86 3 8 79 130 161 
100 7 110 57 94 30 75 13 116 
101 7 105 49 45 31 89 50 62 
102 7 120 16 104 81 26 48 41 
103 7 43 150 41 32 172 169 139 
104 7 41 26 16 102 56 119 103 
105 7 49 62 89 31 131 101 64 
106 7 116 202 75 33 125 173 57 
107 7 59 96 8 86 79 99 137 
108 7 38 98 91 80 113 122 21 
109 7 191 18 151 189 182 40 67 
110 7 100 57 106 75 116 94 202 
111 7 114 129 165 132 65 4 87 
112 7 54 12 36 82 5 201 21 
113 7 122 98 108 38 91 80 21 
114 7 111 129 132 10 87 165 65 
115 7 154 187 35 146 118 195 95 
116 7 202 75 106 33 53 57 173 
117 7 32 97 74 56 82 119 5 
118 7 95 193 149 185 146 195 187 
119 7 56 26 32 16 117 104 41 
120 7 81 102 48 16 6 80 104 
121 7 61 215 128 25 93 181 11 
122 7 113 98 108 38 80 21 91 
123 7 44 90 94 69 30 13 19 
124 7 52 125 106 110 116 202 35 
125 7 173 106 202 85 116 154 33 
126 7 158 212 51 55 27 76 205 
127 3 152 208 47 
128 7 178 177 78 25 192 153 181 
129 7 114 132 65 111 87 40 165 
130 7 161 20 203 3 170 7 84 
131 7 64 89 166 31 62 105 45 
132 7 87 114 129 10 40 111 189 
133 7 67 72 172 190 145 18 151 
134 7 196 188 29 211 175 167 163 
135 6 199 37 17 183 148 171 
136 6 163 174 68 167 63 179 
137 7 3 20 170 180 99 130 203 
138 7 206 73 143 85 14 157 23 
139 7 212 150 205 210 103 169 76 
140 7 146 77 156 118 85 193 95 
141 3 184 65 175 
142 3 160 175 29 
143 7 27 206 204 138 157 158 23 
144 7 214 209 47 78 153 198 208 
145 6 200 190 172 169 83 133 
146 7 140 118 154 95 187 193 115 
147 2 77 156 
148 5 152 209 47 127 208 
149 5 193 185 95 118 195 
150 7 103 43 169 172 41 139 32 
151 7 189 109 191 18 67 40 133 
152 5 127 208 47 148 209 
153 7 181 25 78 144 209 214 178 
154 7 115 146 187 35 118 125 140 
155 4 159 9 160 162 
156 2 77 147 
157 7 23 204 46 164 207 143 206 
158 7 27 143 126 212 204 46 205 
159 4 155 186 9 197 
160 4 142 162 155 29 
161 7 130 7 84 203 2 20 170 
162 4 160 29 167 142 
163 7 174 68 136 179 63 167 196 
164 7 207 23 46 83 157 204 210 
165 6 111 129 65 114 141 184 
166 7 64 131 89 31 192 45 62 
167 6 29 162 196 163 136 142 
168 4 176 194 213 63 
169 7 145 210 200 83 172 150 190 
170 5 20 203 180 130 161 
171 7 37 183 17 135 199 2 7 
172 7 133 145 190 67 72 169 200 
173 7 85 202 33 73 125 14 116 
174 7 68 163 179 63 136 194 182 
175 3 142 29 160 
176 4 168 213 194 63 
177 7 178 192 128 78 25 144 153 
178 7 78 177 128 25 192 144 153 
179 7 63 68 174 163 194 136 182 
180 3 170 203 20 
181 7 25 153 11 78 144 128 178 
182 7 211 188 179 174 163 134 68 
183 7 17 37 135 199 171 11 66 
184 3 141 175 65 
185 4 149 193 95 118 
186 4 197 159 9 155 
187 7 115 195 118 95 146 193 154 
188 7 211 182 134 40 196 65 163 
189 7 151 109 40 191 18 87 67 
190 6 145 200 172 133 18 67 
191 7 109 18 151 189 168 67 182 
192 7 177 128 178 78 25 166 144 
193 5 95 149 118 185 195 
194 6 63 213 176 168 179 68 
195 7 95 193 118 149 187 9 185 
196 7 134 29 167 163 175 142 174 
197 3 186 159 9 
198 6 208 47 127 152 209 214 
199 6 135 37 17 183 148 171 
200 5 145 83 190 169 172 
201 7 5 21 82 117 119 74 56 
202 7 116 106 33 75 173 53 14 
203 6 170 20 161 130 180 7 
204 7 46 23 157 164 143 205 207 
205 7 212 46 210 164 204 83 23 
206 7 138 143 73 157 23 204 14 
207 3 164 83 23 
208 5 127 152 47 198 209 
209 7 47 214 144 152 208 148 127 
210 7 83 169 205 164 46 200 145 
211 7 188 182 134 40 196 163 179 
212 7 205 46 139 158 210 126 204 
213 4 194 176 168 63 
214 7 144 209 47 198 208 152 78 
215 7 61 93 121 11 181 25 128 
DEPOT_SECTION
   1
   -1
EOF
