NAME :  X-n204-kX-w81-c11.cctp
COMMENT : 	Adapted by Maziero, Usberti and Cavellucci from the Uchoa, Pecin, Pessoa, Poggi, Subramanian, and Vidal (2013)
TYPE :  CCTP
DIMENSION :    201
EDGE_WEIGHT_TYPE : 	EUC_2D	
CAPACITY : 	836
VERTICES_WITHIN_COVERAGE :  11
VERTICES_WITH_DEMAND : 	81
NODE_COORD_SECTION
1 500 500
2 221 542
3 320 456
4 576 827
5 679 994
6 371 461
7 961 844
8 986 379
9 175 540
10 126 517
11 329 626
12 477 890
13 191 356
14 584 917
15 308 653
16 0 7
17 273 302
18 672 381
19 235 415
20 583 149
21 672 124
22 644 646
23 400 544
24 832 999
25 842 964
26 582 965
27 544 311
28 429 2
29 939 849
30 898 605
31 363 130
32 639 874
33 323 201
34 829 350
35 7 53
36 801 92
37 57 330
38 943 0
39 579 275
40 833 402
41 408 940
42 635 871
43 631 630
44 733 313
45 344 619
46 628 291
47 674 92
48 74 602
49 38 354
50 473 107
51 668 279
52 510 811
53 366 16
54 49 182
55 528 946
56 271 745
57 405 872
58 65 893
59 622 488
60 668 978
61 939 73
62 556 632
63 270 446
64 586 348
65 951 167
66 385 308
67 247 997
68 992 460
69 128 590
70 746 847
71 279 459
72 428 183
73 364 167
74 656 687
75 547 792
76 517 152
77 252 618
78 464 284
79 184 96
80 457 269
81 590 47
82 348 609
83 777 112
84 528 198
85 877 457
86 812 650
87 864 723
88 584 875
89 817 233
90 186 909
91 439 447
92 560 994
93 818 658
94 134 903
95 447 951
96 969 519
97 488 401
98 142 666
99 287 534
100 399 181
101 141 22
102 29 248
103 313 643
104 20 974
105 294 475
106 439 214
107 327 361
108 79 657
109 110 653
110 332 440
111 242 943
112 96 492
113 62 541
114 478 199
115 267 486
116 184 686
117 119 370
118 342 587
119 316 552
120 90 370
121 417 225
122 111 575
123 458 221
124 321 337
125 287 454
126 364 560
127 121 609
128 215 488
129 351 232
130 84 585
131 14 718
132 344 337
133 233 472
134 216 497
135 133 584
136 188 327
137 175 352
138 281 702
139 247 645
140 215 837
141 424 677
142 438 666
143 454 547
144 354 242
145 96 387
146 462 532
147 25 980
148 343 658
149 127 368
150 100 613
151 245 363
152 356 488
153 259 410
154 480 270
155 196 492
156 303 336
157 243 888
158 453 226
159 32 993
160 287 528
161 492 238
162 54 698
163 442 195
164 17 930
165 285 277
166 75 932
167 167 560
168 368 360
169 328 277
170 355 399
171 53 641
172 236 522
173 421 346
174 308 118
175 345 467
176 408 363
177 101 658
178 419 188
179 36 952
180 250 337
181 232 388
182 498 308
183 18 945
184 362 702
185 429 256
186 105 507
187 245 521
188 576 280
189 269 485
190 257 647
191 106 618
192 269 505
193 423 470
194 206 467
195 228 795
196 241 305
197 137 433
198 210 392
199 371 627
200 219 344
201 96 427
DEMAND_SECTION
2 61
3 96
4 52
5 58
6 81
7 76
8 51
9 98
10 65
11 84
12 63
13 79
14 89
15 70
16 93
17 84
18 100
19 70
20 52
21 86
22 69
23 50
24 59
25 79
26 53
27 66
28 65
29 70
30 74
31 86
32 77
33 83
34 50
35 76
36 62
37 73
38 54
39 100
40 99
41 59
42 73
43 74
44 97
45 63
46 83
47 97
48 81
49 61
50 91
51 78
52 87
53 56
54 81
55 91
56 62
57 53
58 82
59 77
60 94
61 99
62 92
63 76
64 83
65 89
66 61
67 53
68 94
69 84
70 55
71 54
72 61
73 86
74 53
75 60
76 55
77 82
78 86
79 60
80 71
81 98
82 67
COVERAGE_SECTION
2 11 172 187 134 9 128 155 167 192 99 160 133 
3 11 110 175 105 125 71 152 6 63 189 115 170 
4 11 75 88 52 42 32 14 12 55 26 74 92 
5 11 60 26 92 14 32 42 88 24 55 70 25 
6 11 175 152 110 3 193 170 91 105 125 23 71 
7 11 29 87 25 24 70 93 86 30 5 60 32 
8 11 68 85 96 40 34 65 89 30 44 61 18 
9 11 167 2 155 10 134 135 172 128 69 122 187 
10 11 186 112 9 167 122 135 113 69 155 130 197 
11 11 45 103 82 15 148 118 199 119 126 190 77 
12 11 95 57 55 41 52 88 14 4 75 26 92 
13 11 137 136 200 198 181 151 180 149 196 117 19 
14 11 88 26 55 42 32 92 4 60 12 5 52 
15 11 103 11 148 45 190 138 82 139 77 199 184 
16 11 35 101 54 79 102 174 37 49 53 136 120 
17 11 165 196 180 156 124 169 151 200 132 107 136 
18 11 44 64 46 51 59 188 39 27 34 40 97 
19 11 153 181 198 63 151 133 194 71 125 200 13 
20 11 76 84 21 81 47 114 50 39 161 188 123 
21 11 47 20 83 81 36 51 76 84 46 39 89 
22 11 43 74 62 59 86 93 75 4 142 52 143 
23 11 126 143 146 152 118 193 82 119 6 199 45 
24 11 25 5 60 70 29 7 32 42 26 14 92 
25 11 24 29 70 5 7 60 32 42 87 26 14 
26 11 92 14 55 60 88 5 32 42 12 95 4 
27 11 188 182 39 64 154 78 46 161 80 97 84 
28 11 53 50 31 81 174 76 73 72 100 178 163 
29 11 7 87 25 24 70 93 86 30 5 60 32 
30 11 93 86 96 87 85 68 40 8 7 29 74 
31 11 73 174 100 33 178 72 163 129 121 50 144 
32 11 42 88 14 4 26 60 70 75 5 55 52 
33 11 129 144 73 169 100 31 174 165 121 178 72 
34 11 40 44 85 89 8 18 51 68 46 96 65 
35 11 16 54 101 79 102 37 49 174 120 136 117 
36 11 83 47 21 61 89 65 38 81 20 51 44 
37 11 49 120 145 117 149 102 201 137 197 136 13 
38 11 61 65 36 83 89 47 21 81 34 44 8 
39 11 188 27 46 64 182 51 84 161 154 78 80 
40 11 34 85 44 8 18 68 89 96 51 30 59 
41 11 95 57 12 55 92 52 111 67 157 26 14 
42 11 32 88 14 4 26 60 70 75 5 55 52 
43 11 22 74 62 59 75 86 93 143 146 142 4 
44 11 51 18 34 46 89 40 64 39 188 27 21 
45 11 82 11 199 118 103 148 15 126 119 184 190 
46 11 51 39 188 64 27 18 44 182 84 161 20 
47 11 21 81 83 20 36 76 84 51 89 50 46 
48 11 130 150 191 171 122 127 69 108 109 113 135 
49 11 37 120 145 117 149 201 102 197 137 112 136 
50 11 76 72 114 163 178 100 84 31 106 28 123 
51 11 46 44 39 188 18 64 27 20 21 89 84 
52 11 75 4 12 88 57 14 55 42 32 95 141 
53 11 28 31 174 50 73 100 72 178 33 163 79 
54 11 102 35 37 79 49 16 101 120 117 136 149 
55 11 26 92 14 12 95 88 41 4 42 32 52 
56 10 138 195 15 190 184 139 116 140 103 148 
57 11 41 12 95 52 55 75 157 184 4 111 88 
58 10 166 164 179 94 183 104 147 159 90 140 
59 11 18 43 64 62 22 97 146 143 91 27 46 
60 11 5 26 14 32 92 42 88 55 70 24 25 
61 11 38 65 36 83 89 47 21 34 8 44 51 
62 11 43 22 74 142 143 146 141 59 75 23 52 
63 11 71 125 105 153 189 115 133 19 3 192 110 
64 11 27 188 46 39 18 182 51 97 154 78 59 
65 11 61 89 38 36 83 8 34 44 40 21 47 
66 11 132 173 168 176 169 185 124 144 107 80 78 
67 11 111 90 157 94 140 41 166 57 195 95 58 
68 11 96 8 85 40 30 34 86 93 89 87 65 
69 11 135 127 122 150 191 130 167 48 109 9 10 
70 11 32 42 25 60 5 88 4 87 24 14 74 
71 11 125 63 105 189 115 3 192 133 153 110 19 
72 11 178 163 100 106 121 123 158 114 73 185 31 
73 11 31 100 33 178 72 129 174 144 121 163 106 
74 11 22 43 62 75 86 4 93 70 42 32 52 
75 11 52 4 88 42 12 32 14 74 55 62 57 
76 11 84 114 50 20 163 161 123 72 158 106 178 
77 11 139 190 15 103 11 2 138 99 45 119 118 
78 11 80 154 182 185 161 158 123 106 121 173 66 
79 11 101 174 54 33 31 35 73 53 16 165 129 
80 11 78 154 185 158 161 123 182 106 121 114 163 
81 11 47 20 21 76 50 84 28 114 83 163 72 
82 11 45 118 11 199 103 148 126 15 119 23 184 
83 11 36 47 21 89 61 65 20 81 51 38 44 
84 11 76 114 161 20 123 158 163 154 106 39 188 
85 11 40 96 68 34 8 30 44 86 93 18 89 
86 11 93 87 30 74 22 43 85 96 70 29 7 
87 11 93 86 30 29 7 70 74 96 22 25 43 
88 11 14 4 42 32 26 55 75 52 12 92 60 
89 11 44 34 83 36 65 51 40 21 46 47 61 
90 11 94 157 111 140 67 166 195 58 179 164 183 
91 11 193 97 6 146 176 152 175 170 143 173 23 
92 11 26 55 14 60 5 88 95 12 32 42 41 
93 11 86 87 30 74 22 43 70 96 85 29 7 
94 11 90 166 58 140 157 179 111 164 183 147 104 
95 11 41 12 55 57 92 26 14 52 88 4 75 
96 11 68 85 30 8 40 86 93 34 87 44 89 
97 11 91 173 176 182 193 27 64 78 168 6 154 
98 9 109 177 116 191 127 108 150 69 135 
99 11 160 119 192 187 115 172 189 105 2 71 118 
100 11 178 72 73 163 121 106 31 129 158 123 144 
101 11 79 35 16 54 174 53 31 102 33 73 28 
102 11 54 37 49 120 117 145 149 136 137 201 13 
103 11 15 11 148 45 82 190 199 118 77 139 138 
104 11 147 159 179 183 164 166 58 94 90 111 67 
105 11 71 125 189 115 3 63 192 110 175 160 99 
106 11 158 163 123 121 72 178 114 185 100 80 161 
107 11 124 132 156 168 170 66 110 17 176 180 151 
108 10 177 109 171 191 162 150 48 98 127 130 
109 10 177 108 98 191 150 127 171 48 69 162 
110 11 3 175 6 125 170 105 152 71 63 189 107 
111 11 67 157 90 140 94 195 41 166 57 58 56 
112 11 186 10 113 201 197 122 9 130 167 135 155 
113 11 130 186 112 122 48 10 150 69 135 191 127 
114 11 123 163 158 161 106 84 72 178 76 121 154 
115 11 189 192 105 71 133 125 63 187 160 172 99 
116 9 98 139 109 190 177 77 138 127 191 
117 11 149 120 145 137 201 197 13 37 136 49 198 
118 11 82 45 126 11 119 199 103 148 23 15 99 
119 11 99 160 118 126 82 192 45 11 152 187 105 
120 11 145 117 149 37 49 201 197 137 13 136 112 
121 11 106 185 158 178 163 123 72 100 80 144 114 
122 11 69 135 130 127 150 191 48 167 10 113 186 
123 11 158 106 114 163 161 121 185 72 80 178 154 
124 11 156 132 107 168 17 169 66 165 170 180 151 
125 11 71 63 105 3 189 115 110 153 192 133 175 
126 11 118 23 119 82 45 199 152 11 99 160 143 
127 10 191 69 150 135 122 130 109 48 177 98 
128 11 134 155 194 133 172 187 115 2 189 192 9 
129 11 144 33 169 73 121 100 165 178 185 66 106 
130 11 48 122 150 191 69 127 113 135 171 108 109 
131 9 162 171 108 177 109 48 150 191 98 
132 11 124 107 168 156 66 169 170 176 173 17 165 
133 11 128 194 134 115 189 155 63 71 192 172 187 
134 11 128 155 133 172 194 187 2 115 189 192 9 
135 11 69 122 127 167 191 150 130 9 48 10 109 
136 11 137 13 200 196 180 151 198 149 181 117 17 
137 11 13 136 200 149 198 117 181 151 180 196 145 
138 11 56 15 190 139 103 148 184 77 11 116 45 
139 11 190 77 15 103 138 116 11 148 45 56 2 
140 10 195 157 90 94 56 111 138 116 58 67 
141 11 142 184 199 148 45 82 11 103 15 118 126 
142 11 141 199 184 148 45 82 11 143 62 118 103 
143 11 146 23 193 126 91 152 199 118 6 142 82 
144 11 129 169 33 121 66 73 100 185 165 178 106 
145 11 120 117 149 201 197 49 37 137 13 112 136 
146 11 143 23 193 91 126 6 152 118 199 97 175 
147 11 104 159 179 183 164 166 58 94 90 111 67 
148 11 103 11 15 45 199 184 82 118 138 141 190 
149 11 117 145 120 137 13 197 201 136 37 198 49 
150 11 191 127 48 130 69 122 109 135 177 108 171 
151 11 180 181 200 198 153 19 13 196 156 17 136 
152 11 175 6 3 110 105 193 23 126 119 125 160 
153 11 19 181 63 151 125 198 71 133 105 180 3 
154 11 78 80 161 182 158 185 123 106 114 27 121 
155 11 128 134 194 133 172 9 2 187 115 189 10 
156 11 124 107 132 17 180 165 151 169 168 196 170 
157 11 111 140 90 195 67 94 56 57 41 166 58 
158 11 123 106 163 121 114 185 161 80 72 178 154 
159 11 147 104 179 183 164 166 58 94 90 67 111 
160 11 99 192 119 187 115 189 172 105 2 71 125 
161 11 154 123 114 158 80 78 84 106 163 185 182 
162 9 131 108 171 177 109 98 191 150 48 
163 11 72 106 178 123 158 114 121 100 185 161 80 
164 10 183 179 104 147 166 58 159 94 90 131 
165 11 17 169 196 156 180 124 144 129 132 33 107 
166 11 58 179 164 183 94 104 147 159 90 111 140 
167 11 9 135 69 2 122 10 127 155 172 134 186 
168 11 132 176 107 170 124 66 173 156 110 169 6 
169 11 165 144 129 17 124 132 156 66 33 107 196 
170 11 168 107 110 132 6 176 3 175 124 156 173 
171 10 108 48 177 150 162 109 191 130 127 131 
172 11 187 2 134 192 128 115 133 155 189 160 99 
173 11 176 66 168 78 132 80 170 182 97 185 107 
174 11 31 73 33 100 53 129 79 178 144 72 121 
175 11 152 3 6 110 105 125 71 170 63 189 193 
176 11 173 168 66 170 132 107 97 91 124 78 6 
177 10 109 108 191 98 150 171 127 48 162 69 
178 11 72 100 163 106 121 123 158 73 114 185 31 
179 11 183 104 164 147 159 166 58 94 90 111 140 
180 11 151 200 196 17 156 181 13 136 198 165 124 
181 11 198 19 151 153 200 13 180 137 63 136 194 
182 11 78 154 27 80 161 188 173 185 39 97 158 
183 10 164 179 104 147 159 166 58 94 90 111 
184 11 148 141 15 199 103 138 11 142 45 82 56 
185 11 80 121 158 106 78 123 154 163 161 66 178 
186 11 112 10 113 122 9 130 197 201 135 167 69 
187 11 172 192 2 134 115 160 189 99 128 133 155 
188 11 39 27 46 64 182 51 161 84 154 78 80 
189 11 115 192 105 71 125 133 63 187 160 172 99 
190 11 139 77 15 103 138 11 116 148 45 56 82 
191 10 150 127 109 48 69 130 177 122 135 108 
192 11 115 189 160 187 99 172 105 71 133 125 134 
193 11 91 6 152 146 23 175 143 97 110 170 3 
194 11 128 133 155 134 19 172 115 189 63 187 71 
195 10 140 56 157 138 116 90 94 111 139 190 
196 11 17 180 200 165 136 151 156 13 137 181 124 
197 11 201 145 117 149 112 194 120 186 155 198 10 
198 11 181 19 13 151 200 153 137 180 136 194 63 
199 11 45 82 11 148 118 103 126 15 141 184 142 
200 11 13 151 180 136 137 196 181 198 17 19 153 
201 11 145 197 120 117 112 149 186 49 10 37 137 
DEPOT_SECTION
   1
   -1
EOF
