NAME :  X-n242-kX-w24-c11.cctp
COMMENT : 	Adapted by Maziero, Usberti and Cavellucci from the Uchoa, Pecin, Pessoa, Poggi, Subramanian, and Vidal (2013)
TYPE :  CCTP
DIMENSION :    186
EDGE_WEIGHT_TYPE : 	EUC_2D	
CAPACITY : 	28
VERTICES_WITHIN_COVERAGE :  11
VERTICES_WITH_DEMAND : 	24
NODE_COORD_SECTION
1 0 0
2 346 793
3 692 966
4 171 666
5 287 795
6 93 919
7 712 216
8 991 988
9 475 266
10 71 307
11 83 987
12 518 392
13 807 134
14 377 164
15 692 127
16 701 530
17 831 255
18 938 210
19 873 127
20 569 817
21 796 379
22 6 182
23 917 620
24 728 936
25 157 644
26 668 333
27 564 876
28 861 333
29 70 79
30 330 931
31 513 308
32 230 725
33 896 107
34 234 758
35 911 970
36 177 587
37 697 37
38 947 615
39 861 54
40 739 572
41 555 473
42 992 303
43 588 974
44 556 781
45 627 213
46 19 93
47 837 398
48 277 133
49 521 177
50 694 875
51 575 428
52 752 458
53 432 417
54 881 966
55 101 210
56 270 113
57 951 30
58 959 856
59 72 873
60 681 319
61 149 612
62 799 203
63 30 618
64 92 644
65 997 104
66 163 790
67 364 966
68 119 969
69 931 207
70 630 384
71 721 103
72 209 814
73 176 751
74 76 178
75 737 499
76 42 123
77 194 726
78 835 589
79 521 825
80 11 702
81 659 941
82 122 683
83 111 386
84 253 262
85 338 989
86 844 543
87 596 175
88 657 234
89 688 921
90 676 942
91 463 128
92 875 97
93 982 861
94 67 607
95 445 748
96 828 305
97 659 433
98 43 98
99 387 303
100 768 421
101 859 222
102 130 599
103 52 803
104 888 289
105 600 549
106 877 51
107 992 969
108 80 304
109 893 539
110 805 76
111 990 256
112 306 119
113 101 574
114 836 204
115 74 223
116 150 894
117 979 964
118 733 939
119 716 390
120 787 27
121 599 860
122 893 538
123 801 106
124 627 625
125 553 193
126 435 902
127 860 100
128 472 765
129 605 123
130 887 327
131 752 426
132 996 198
133 789 612
134 803 935
135 361 801
136 170 958
137 786 418
138 646 977
139 892 113
140 486 445
141 438 499
142 572 1000
143 174 964
144 599 871
145 957 677
146 518 177
147 93 349
148 506 454
149 792 919
150 55 284
151 116 755
152 368 125
153 502 114
154 523 837
155 907 303
156 719 842
157 280 162
158 913 538
159 499 296
160 296 811
161 664 100
162 232 621
163 252 659
164 474 107
165 804 296
166 180 632
167 405 387
168 475 300
169 992 105
170 454 340
171 821 145
172 307 108
173 453 269
174 120 954
175 512 344
176 672 964
177 247 606
178 834 425
179 115 328
180 565 915
181 621 421
182 701 511
183 70 610
184 937 537
185 664 187
186 840 406
DEMAND_SECTION
2 6
3 2
4 2
5 1
6 8
7 3
8 1
9 4
10 7
11 10
12 4
13 6
14 9
15 7
16 2
17 6
18 2
19 2
20 5
21 4
22 6
23 4
24 10
25 1
COVERAGE_SECTION
2 11 135 160 5 95 34 128 32 30 72 126 163 
3 11 176 90 81 89 24 138 118 50 43 149 134 
4 11 25 166 82 61 77 162 36 102 163 64 32 
5 11 160 2 34 135 72 32 77 73 66 163 30 
6 11 174 59 68 116 11 136 143 103 66 72 151 
7 11 185 88 45 62 15 60 71 165 87 13 17 
8 8 107 117 35 54 93 58 134 149 
9 11 173 168 159 31 170 175 99 146 49 125 12 
10 9 108 150 147 179 115 83 55 74 22 
11 11 68 174 6 136 143 59 116 103 66 72 151 
12 11 175 140 148 51 170 31 41 53 159 168 181 
13 11 171 123 110 127 19 62 114 92 139 71 33 
14 11 152 112 172 91 157 48 164 56 173 153 99 
15 11 71 161 185 129 37 7 87 45 123 88 13 
16 10 182 75 40 52 105 97 131 124 133 100 
17 11 101 165 96 114 62 104 28 155 130 171 69 
18 11 69 132 111 101 104 155 114 19 139 42 33 
19 11 139 33 92 127 171 13 39 123 106 110 114 
20 10 44 79 154 121 27 144 180 128 50 95 
21 11 137 47 100 186 178 131 28 96 119 165 52 
22 10 76 74 115 46 98 55 150 29 10 108 
23 9 38 145 158 109 122 184 78 86 133 
24 11 118 89 3 90 176 149 81 50 134 138 156 
25 11 4 166 61 82 102 36 64 162 77 113 183 
26 11 60 70 119 88 97 181 7 131 45 51 100 
27 9 144 121 180 154 20 79 44 43 81 
28 9 130 96 104 155 165 47 186 21 17 
29 7 98 76 46 74 22 55 115 
30 10 67 85 126 160 135 2 5 143 136 72 
31 11 159 175 168 9 170 173 12 125 99 49 146 
32 11 34 77 73 163 4 5 72 66 162 166 160 
33 11 139 92 19 127 106 39 171 13 57 123 110 
34 11 32 77 73 72 5 66 160 163 4 2 151 
35 8 54 117 107 8 134 58 149 93 
36 8 61 166 102 25 162 177 113 4 
37 11 71 161 15 120 110 123 129 13 185 171 39 
38 9 23 145 184 158 109 122 78 86 133 
39 11 106 92 127 110 33 139 19 120 123 57 13 
40 7 16 133 182 75 78 86 52 
41 10 51 148 140 181 105 12 97 70 141 53 
42 8 111 155 104 132 18 130 69 28 
43 9 142 138 180 81 176 90 27 3 144 
44 9 20 79 154 128 121 27 144 95 180 
45 10 88 185 87 125 7 129 15 49 146 60 
46 7 98 76 29 22 74 115 55 
47 9 186 178 21 137 28 100 130 131 96 
48 7 56 157 112 172 152 14 84 
49 10 146 125 153 87 91 164 9 129 45 173 
50 10 156 89 90 24 81 118 3 176 144 121 
51 11 181 41 12 70 148 97 140 175 105 26 31 
52 11 131 100 75 137 182 119 16 178 21 97 186 
53 11 167 140 170 141 148 12 175 99 168 41 31 
54 8 35 134 117 149 107 8 58 93 
55 7 115 74 150 108 22 10 76 
56 6 48 112 172 157 152 14 
57 11 106 169 65 39 33 92 139 127 19 110 120 
58 6 93 117 107 35 54 8 
59 11 6 103 116 174 68 11 66 151 136 143 72 
60 11 26 119 70 88 7 97 181 45 165 131 21 
61 10 102 25 166 36 4 113 64 82 183 94 
62 11 114 17 171 101 13 7 165 123 19 96 127 
63 9 94 183 64 113 80 102 82 61 25 
64 11 183 94 82 102 25 61 63 113 4 166 80 
65 11 169 57 132 33 139 18 69 92 19 106 127 
66 11 73 72 151 77 34 32 116 103 82 59 4 
67 9 85 30 126 135 160 2 5 143 136 
68 11 174 11 136 143 6 116 59 72 103 66 30 
69 11 18 132 101 111 104 114 19 155 139 33 17 
70 11 181 97 26 51 60 119 12 41 175 131 31 
71 11 15 161 37 123 110 13 120 185 171 7 129 
72 11 66 34 73 5 160 77 32 116 151 2 59 
73 11 77 66 34 32 151 72 4 82 25 5 163 
74 7 55 115 76 22 98 29 46 
75 10 182 52 16 40 131 100 137 97 119 86 
76 7 98 46 29 74 22 55 115 
77 11 73 32 34 4 66 151 82 72 163 25 166 
78 8 86 133 109 122 23 158 40 184 
79 10 154 20 44 27 128 121 144 180 95 126 
80 11 63 64 103 183 94 82 151 113 25 102 4 
81 11 90 176 89 138 3 24 118 50 43 144 180 
82 11 64 4 25 151 61 166 77 102 73 183 94 
83 5 147 179 108 10 150 
84 9 157 48 99 56 112 179 14 55 172 
85 10 67 30 126 143 136 160 135 2 5 116 
86 8 78 109 122 158 133 184 23 40 
87 10 125 45 129 185 49 146 88 161 15 153 
88 11 45 185 7 87 60 26 125 15 129 161 62 
89 11 90 81 24 3 50 176 118 138 156 144 149 
90 11 81 176 89 3 138 24 118 50 43 144 156 
91 10 164 153 146 49 14 152 125 9 87 173 
92 11 127 33 139 19 39 106 171 110 123 13 57 
93 6 58 117 107 8 35 54 
94 9 183 63 64 113 102 61 82 25 80 
95 7 128 135 79 2 44 154 20 
96 11 165 28 17 104 130 155 21 101 47 114 186 
97 11 181 70 119 51 182 131 52 26 75 16 100 
98 7 46 76 29 74 22 55 115 
99 11 173 170 167 168 9 159 53 31 175 14 84 
100 11 131 137 52 21 119 178 47 186 75 97 182 
101 11 114 17 62 104 69 18 171 96 165 155 19 
102 10 61 113 36 25 64 166 183 94 4 82 
103 11 59 151 80 66 6 73 116 82 72 77 64 
104 10 155 130 28 96 17 101 165 18 69 114 
105 8 124 41 16 182 51 97 181 148 
106 11 39 92 127 33 139 19 110 57 120 123 13 
107 8 117 8 35 93 54 58 134 149 
108 9 10 150 179 147 115 83 55 74 22 
109 7 122 158 184 86 78 23 38 
110 11 123 120 13 39 127 171 92 106 19 71 139 
111 9 42 132 18 69 155 104 130 101 28 
112 8 172 48 56 157 152 14 84 91 
113 8 102 94 183 61 64 36 63 25 
114 11 101 62 17 171 13 19 69 165 104 96 18 
115 10 55 74 150 22 108 10 76 179 147 98 
116 11 6 136 174 143 59 68 72 66 11 103 151 
117 8 107 8 35 54 93 58 134 149 
118 11 24 89 3 90 149 176 134 81 50 138 156 
119 11 131 100 97 26 137 52 60 21 70 181 75 
120 11 110 39 123 37 106 71 127 13 92 171 19 
121 11 144 27 20 180 154 79 44 50 81 89 90 
122 7 109 158 184 86 78 23 38 
123 11 13 110 171 127 19 92 39 71 120 139 106 
124 3 105 16 40 
125 10 49 146 87 45 129 153 9 91 185 88 
126 10 67 30 154 79 135 85 180 27 2 128 
127 11 92 19 139 33 39 106 123 110 171 13 120 
128 9 95 79 44 154 20 135 2 126 27 
129 10 87 161 15 125 185 45 49 146 153 71 
130 9 28 155 104 96 47 165 17 186 21 
131 11 100 52 137 119 21 75 178 47 186 97 182 
132 11 111 18 69 169 65 42 139 33 155 101 104 
133 4 78 40 86 16 
134 8 149 118 24 54 35 3 89 50 
135 11 2 160 5 95 128 126 30 34 32 72 79 
136 11 143 174 68 116 6 11 59 72 30 66 85 
137 10 100 131 21 178 52 47 186 119 75 28 
138 9 176 81 90 3 43 89 142 24 118 
139 11 33 92 19 127 106 39 171 13 123 110 169 
140 11 148 53 12 141 41 51 167 175 170 181 31 
141 6 140 53 148 167 41 12 
142 9 43 138 180 81 176 90 27 3 144 
143 11 136 68 174 116 6 11 59 72 30 85 66 
144 11 121 27 180 20 154 79 81 50 44 89 43 
145 7 38 23 184 158 78 109 122 
146 10 49 125 153 91 87 164 9 129 173 45 
147 7 179 83 10 108 150 115 55 
148 11 140 41 12 51 141 53 175 181 167 170 105 
149 8 134 118 24 54 89 156 50 3 
150 10 10 108 115 179 147 55 74 22 83 76 
151 11 66 73 82 103 77 4 72 64 25 32 34 
152 9 14 112 172 48 91 157 56 164 153 
153 10 164 91 146 49 125 129 87 152 14 9 
154 10 79 20 27 44 121 144 128 180 126 95 
155 9 104 130 28 96 42 17 101 111 18 
156 6 50 89 24 118 149 90 
157 7 48 56 112 172 152 14 84 
158 7 109 122 184 86 23 38 78 
159 11 31 168 9 175 173 170 12 99 125 49 146 
160 11 5 2 135 34 72 32 30 77 73 66 163 
161 10 15 71 129 37 185 87 45 7 88 123 
162 9 177 163 166 36 4 25 61 32 102 
163 10 162 177 32 166 4 77 25 34 36 61 
164 10 91 153 146 49 152 14 125 129 87 9 
165 11 96 17 28 21 104 130 101 62 114 155 47 
166 11 25 4 61 36 162 102 177 82 163 64 77 
167 11 53 170 99 140 168 12 175 141 148 173 159 
168 11 159 9 173 31 170 175 99 12 167 53 146 
169 11 65 57 132 33 139 92 18 69 19 106 127 
170 11 168 175 159 31 167 173 9 99 53 12 140 
171 11 13 123 19 127 114 62 110 92 139 33 101 
172 8 112 56 48 157 152 14 91 84 
173 11 9 168 159 170 31 99 175 146 49 125 167 
174 11 68 6 11 136 143 116 59 72 103 66 151 
175 11 31 12 159 168 170 9 173 140 51 53 148 
176 10 3 90 81 138 89 24 118 43 50 142 
177 9 162 163 166 36 4 25 61 102 32 
178 8 186 47 137 21 100 131 52 28 
179 8 147 108 10 83 150 115 55 84 
180 9 27 144 43 121 142 154 20 81 79 
181 11 70 97 51 41 26 119 12 60 148 182 105 
182 11 16 75 40 52 97 131 105 100 181 119 137 
183 9 94 64 63 113 102 61 82 25 36 
184 6 158 109 122 38 23 86 
185 10 45 88 7 15 87 129 161 71 125 60 
186 9 47 178 21 137 100 28 131 130 52 
DEPOT_SECTION
   1
   -1
EOF
