NAME :  X-n280-kX-w55-c7.cctp
COMMENT : 	Adapted by Maziero, Usberti and Cavellucci from the Uchoa, Pecin, Pessoa, Poggi, Subramanian, and Vidal (2013)
TYPE :  CCTP
DIMENSION :    244
EDGE_WEIGHT_TYPE : 	EUC_2D	
CAPACITY : 	192
VERTICES_WITHIN_COVERAGE :  7
VERTICES_WITH_DEMAND : 	55
NODE_COORD_SECTION
1 0 0
2 909 919
3 878 721
4 969 85
5 591 195
6 955 148
7 587 903
8 994 792
9 625 129
10 544 703
11 461 167
12 37 644
13 615 22
14 773 788
15 384 364
16 51 291
17 109 732
18 570 124
19 692 985
20 62 150
21 358 5
22 188 450
23 674 658
24 676 904
25 815 984
26 710 16
27 74 658
28 576 1000
29 636 695
30 547 92
31 587 397
32 26 150
33 182 561
34 938 462
35 362 928
36 366 835
37 516 892
38 448 923
39 501 445
40 513 799
41 905 388
42 474 791
43 560 782
44 465 552
45 315 645
46 738 396
47 45 915
48 797 871
49 922 643
50 793 586
51 921 458
52 160 295
53 598 257
54 516 221
55 99 169
56 788 634
57 425 751
58 616 680
59 949 444
60 987 459
61 182 279
62 127 354
63 791 822
64 645 609
65 857 386
66 917 154
67 729 688
68 134 510
69 499 737
70 780 565
71 908 477
72 917 341
73 272 553
74 421 876
75 770 2
76 497 623
77 519 196
78 90 822
79 827 901
80 656 56
81 732 55
82 772 748
83 884 973
84 158 430
85 563 13
86 50 959
87 609 223
88 628 860
89 264 436
90 699 764
91 441 479
92 95 246
93 236 627
94 307 893
95 695 302
96 378 639
97 44 339
98 885 644
99 122 603
100 850 732
101 300 719
102 55 954
103 467 494
104 153 641
105 713 82
106 659 564
107 881 18
108 781 654
109 490 806
110 823 569
111 878 496
112 441 898
113 589 516
114 165 614
115 17 749
116 164 778
117 296 858
118 258 488
119 437 866
120 725 988
121 125 619
122 352 701
123 447 517
124 316 80
125 743 575
126 555 373
127 84 140
128 341 827
129 541 567
130 919 768
131 945 924
132 397 932
133 905 944
134 892 37
135 74 227
136 911 617
137 668 697
138 1 96
139 223 299
140 637 118
141 622 958
142 347 777
143 157 190
144 100 192
145 384 598
146 23 228
147 110 163
148 53 628
149 316 705
150 112 361
151 642 405
152 235 578
153 489 621
154 563 916
155 597 310
156 960 837
157 164 988
158 648 247
159 375 402
160 531 205
161 935 676
162 964 651
163 233 241
164 891 112
165 457 893
166 852 861
167 113 701
168 340 913
169 662 198
170 667 718
171 140 332
172 809 908
173 968 908
174 59 136
175 529 215
176 385 380
177 156 119
178 528 320
179 138 787
180 473 713
181 537 114
182 168 838
183 774 825
184 16 935
185 60 733
186 500 37
187 343 363
188 429 41
189 205 398
190 708 298
191 411 109
192 840 359
193 865 775
194 893 516
195 814 607
196 605 162
197 359 199
198 16 739
199 482 214
200 528 103
201 572 770
202 802 517
203 876 469
204 118 571
205 952 781
206 823 795
207 522 595
208 52 336
209 456 367
210 410 194
211 956 21
212 717 142
213 766 880
214 524 825
215 657 640
216 189 232
217 471 339
218 920 809
219 688 98
220 660 781
221 441 81
222 236 735
223 784 692
224 743 446
225 201 32
226 381 605
227 380 904
228 227 263
229 69 94
230 123 416
231 341 341
232 450 482
233 251 533
234 352 591
235 724 967
236 753 539
237 684 924
238 617 989
239 455 500
240 472 926
241 167 357
242 789 678
243 897 272
244 991 492
DEMAND_SECTION
2 92
3 88
4 93
5 90
6 73
7 100
8 53
9 66
10 82
11 59
12 100
13 76
14 84
15 56
16 91
17 58
18 65
19 56
20 68
21 88
22 54
23 76
24 80
25 53
26 1
27 2
28 2
29 7
30 10
31 9
32 8
33 3
34 3
35 2
36 9
37 6
38 10
39 3
40 1
41 4
42 6
43 1
44 4
45 3
46 7
47 7
48 2
49 1
50 1
51 4
52 4
53 5
54 4
55 7
56 3
COVERAGE_SECTION
2 7 133 131 83 173 166 79 156 
3 7 100 193 130 161 98 49 206 
4 6 6 211 164 66 134 107 
5 7 87 196 160 53 175 169 77 
6 6 66 4 164 211 134 243 
7 7 154 88 141 37 24 238 28 
8 7 205 156 218 130 173 161 193 
9 7 140 196 18 219 5 169 80 
10 7 69 180 201 58 43 29 76 
11 7 199 210 77 54 191 160 175 
12 6 148 27 121 185 99 167 
13 7 80 85 26 30 140 219 9 
14 7 183 63 82 206 90 48 213 
15 5 176 159 187 231 209 
16 7 208 97 92 135 146 150 171 
17 7 167 185 179 116 27 78 198 
18 7 181 30 200 196 9 140 5 
19 7 120 235 237 141 238 24 28 
20 7 174 127 32 55 147 229 144 
21 6 188 124 221 191 186 225 
22 6 84 189 230 89 118 68 
23 7 215 137 29 64 170 58 67 
24 7 237 88 141 235 19 7 213 
25 7 83 172 79 120 235 133 2 
26 6 81 75 105 80 219 13 
27 6 148 12 167 121 99 185 
28 7 238 141 154 7 19 37 240 
29 7 58 137 170 23 215 64 220 
30 7 200 181 18 186 85 9 196 
31 7 126 151 155 178 39 113 217 
32 7 20 174 127 138 229 55 146 
33 6 114 152 204 68 99 233 
34 7 51 59 71 60 244 203 111 
35 7 168 227 132 94 74 112 38 
36 7 128 142 74 227 117 119 168 
37 7 154 240 165 214 7 38 112 
38 7 240 112 165 132 74 119 227 
39 7 103 232 91 239 123 126 209 
40 7 109 214 42 43 69 201 37 
41 7 65 72 59 192 51 34 203 
42 7 109 40 69 214 57 180 119 
43 7 201 40 214 109 69 10 42 
44 7 123 239 103 207 232 153 91 
45 7 149 96 234 122 101 226 93 
46 6 224 151 190 95 192 65 
47 5 184 102 86 78 157 
48 7 213 172 79 63 183 166 206 
49 7 136 161 98 162 3 100 195 
50 7 70 195 110 56 125 236 108 
51 7 34 71 59 203 111 194 60 
52 7 61 171 241 139 62 216 228 
53 7 87 158 155 5 175 160 169 
54 7 175 160 77 199 11 5 53 
55 7 147 144 127 20 174 143 135 
56 7 108 195 242 50 223 70 110 
57 6 180 42 69 142 109 122 
58 7 29 137 215 23 170 10 64 
59 7 34 51 60 71 244 41 203 
60 7 244 59 34 51 71 41 194 
61 7 52 139 216 228 163 171 241 
62 7 150 171 241 230 52 208 84 
63 7 183 14 206 48 213 166 82 
64 7 215 106 23 58 29 137 125 
65 6 192 41 72 203 51 71 
66 5 6 164 4 134 243 
67 7 223 242 108 137 23 170 82 
68 5 204 33 22 84 99 
69 7 180 10 42 40 109 57 43 
70 7 50 236 125 110 202 195 56 
71 6 51 203 34 111 194 59 
72 6 41 243 65 192 59 51 
73 7 233 152 118 93 234 33 45 
74 7 119 112 165 227 38 132 36 
75 5 26 81 105 107 80 
76 7 153 207 129 44 10 180 69 
77 7 160 175 54 199 11 5 181 
78 5 179 182 116 17 185 
79 7 172 48 166 213 2 25 63 
80 7 13 219 105 140 26 81 9 
81 6 105 26 219 75 80 212 
82 7 14 223 206 242 67 90 63 
83 7 133 2 25 131 79 172 173 
84 6 22 230 189 241 62 150 
85 7 13 186 30 200 80 181 18 
86 5 102 184 47 157 78 
87 7 5 53 158 169 196 160 175 
88 7 7 24 220 237 154 141 43 
89 3 118 189 22 
90 7 220 170 137 82 14 67 29 
91 5 232 239 103 123 39 
92 7 135 144 16 146 55 52 143 
93 7 152 114 45 73 104 33 233 
94 7 117 168 35 128 227 36 132 
95 5 190 158 155 46 53 
96 6 226 145 234 45 122 149 
97 7 208 16 150 62 171 92 230 
98 7 49 136 161 3 162 195 100 
99 5 121 204 114 104 27 
100 7 3 193 206 223 130 82 242 
101 6 149 122 222 142 45 93 
102 5 86 47 184 157 78 
103 6 239 232 91 123 44 39 
104 6 114 121 99 167 204 27 
105 7 219 81 212 80 26 140 75 
106 7 64 215 113 125 23 236 129 
107 5 134 211 164 4 75 
108 7 56 242 223 195 67 50 125 
109 7 42 40 214 69 43 119 57 
110 6 50 195 70 202 56 236 
111 6 194 203 71 51 34 202 
112 7 165 38 74 119 240 132 227 
113 7 129 106 207 64 39 31 151 
114 6 104 121 99 33 204 93 
115 7 198 185 17 78 12 27 167 
116 5 179 182 17 222 78 
117 7 94 128 168 36 35 142 227 
118 5 233 89 73 22 152 
119 7 74 112 165 38 227 240 36 
120 7 235 19 237 25 24 141 238 
121 6 99 104 114 204 27 148 
122 6 149 101 45 96 142 57 
123 5 239 103 232 91 44 
124 5 21 191 188 221 225 
125 7 236 70 50 56 195 110 202 
126 7 31 178 155 39 217 151 209 
127 7 20 174 55 147 229 144 32 
128 7 36 142 117 94 168 227 74 
129 7 207 113 76 153 44 103 123 
130 7 205 218 193 3 100 8 156 
131 7 173 2 133 83 156 166 218 
132 7 227 35 38 112 168 74 165 
133 7 2 83 131 173 79 25 166 
134 4 107 211 164 4 
135 7 92 144 146 55 16 147 20 
136 7 49 98 162 161 195 110 194 
137 7 170 29 23 58 215 67 90 
138 7 32 229 174 20 127 55 147 
139 4 228 61 163 52 
140 7 9 196 219 80 18 105 169 
141 7 238 28 7 237 154 19 24 
142 7 128 36 101 122 149 57 117 
143 7 216 147 144 55 177 92 127 
144 7 55 147 135 92 127 20 143 
145 6 226 234 96 45 44 123 
146 7 135 16 92 32 144 20 55 
147 7 55 144 127 20 143 174 177 
148 5 12 27 99 121 204 
149 6 101 122 45 142 222 96 
150 7 62 171 241 230 208 97 52 
151 7 31 126 46 155 224 95 113 
152 7 73 233 93 33 114 118 104 
153 7 76 207 44 129 180 10 145 
154 7 7 37 141 28 88 238 240 
155 7 53 178 126 158 31 87 95 
156 7 218 8 205 173 130 131 2 
157 3 102 86 47 
158 7 87 53 169 95 5 190 155 
159 3 176 15 187 
160 7 175 77 54 199 5 11 87 
161 7 49 162 98 136 3 130 100 
162 7 161 49 136 98 3 130 205 
163 5 228 216 139 61 52 
164 4 66 6 134 4 
165 7 112 38 119 240 74 37 132 
166 7 79 48 172 63 206 2 183 
167 7 17 27 185 104 121 179 116 
168 7 35 94 227 132 117 36 128 
169 7 158 87 196 5 9 212 140 
170 7 137 29 90 23 220 58 67 
171 6 62 241 150 52 61 230 
172 7 79 48 213 166 25 63 183 
173 7 131 2 156 133 83 218 8 
174 7 20 127 32 229 55 147 144 
175 7 160 54 77 199 5 87 53 
176 5 15 159 187 231 209 
177 5 147 143 127 55 229 
178 7 126 217 155 209 53 31 54 
179 5 116 78 182 17 167 
180 6 69 57 10 42 76 153 
181 7 200 30 18 196 77 186 9 
182 4 179 116 78 17 
183 7 63 14 48 213 206 82 166 
184 5 47 86 102 78 157 
185 7 198 115 17 167 27 12 78 
186 7 85 188 30 200 221 181 18 
187 4 231 15 176 159 
188 6 221 191 186 21 200 124 
189 4 22 241 84 89 
190 4 95 158 46 169 
191 5 221 188 11 210 124 
192 5 65 41 72 243 46 
193 7 100 206 130 3 218 166 205 
194 6 111 71 203 51 34 110 
195 7 50 56 110 70 108 242 125 
196 7 5 9 18 140 87 169 181 
197 3 210 191 11 
198 7 115 185 17 12 27 167 78 
199 7 54 77 175 160 11 210 5 
200 7 181 30 18 186 221 11 77 
201 7 43 40 10 214 69 220 109 
202 6 70 236 110 50 111 125 
203 6 111 71 51 194 34 59 
204 5 99 121 68 114 33 
205 7 130 8 218 156 193 3 161 
206 7 63 193 14 183 82 100 166 
207 7 129 76 153 44 113 123 10 
208 7 97 16 150 62 171 92 230 
209 7 217 15 176 178 159 39 126 
210 4 197 11 199 191 
211 5 4 134 107 164 6 
212 6 219 105 169 140 81 9 
213 7 48 172 183 63 79 166 14 
214 7 40 109 43 42 37 201 69 
215 7 23 64 58 137 29 106 170 
216 6 163 61 228 143 52 139 
217 7 209 178 15 126 176 39 159 
218 7 130 205 156 193 8 166 3 
219 7 105 80 212 140 81 9 26 
220 7 90 170 137 88 29 201 43 
221 6 191 188 186 11 200 181 
222 7 101 116 149 93 179 142 45 
223 7 242 108 67 82 56 100 195 
224 7 46 202 236 151 70 65 125 
225 4 177 124 229 21 
226 6 145 234 96 45 44 122 
227 7 35 132 168 74 112 119 36 
228 5 163 139 61 216 52 
229 6 174 127 20 138 32 147 
230 7 84 150 62 22 241 189 171 
231 4 187 15 176 159 
232 6 91 239 103 123 39 44 
233 7 73 118 152 33 93 89 22 
234 6 226 145 96 45 73 122 
235 7 120 19 237 24 25 213 141 
236 7 70 125 202 50 110 195 224 
237 7 24 235 19 141 120 88 213 
238 7 141 28 19 7 154 237 24 
239 6 103 123 232 91 44 39 
240 7 38 165 112 37 119 74 132 
241 5 171 62 150 189 52 
242 7 223 108 56 67 82 195 100 
243 5 72 192 41 66 65 
244 7 60 34 59 51 71 194 111 
DEPOT_SECTION
   1
   -1
EOF
