NAME :  X-n228-kX-w22-c7.cctp
COMMENT : 	Adapted by Maziero, Usberti and Cavellucci from the Uchoa, Pecin, Pessoa, Poggi, Subramanian, and Vidal (2013)
TYPE :  CCTP
DIMENSION :    129
EDGE_WEIGHT_TYPE : 	EUC_2D	
CAPACITY : 	154
VERTICES_WITHIN_COVERAGE :  7
VERTICES_WITH_DEMAND : 	22
NODE_COORD_SECTION
1 550 574
2 177 24
3 448 476
4 934 619
5 323 122
6 430 76
7 364 9
8 988 994
9 91 636
10 938 641
11 979 764
12 4 748
13 420 164
14 294 15
15 304 89
16 362 207
17 770 344
18 67 634
19 90 44
20 712 418
21 299 6
22 997 871
23 38 695
24 916 622
25 445 107
26 314 222
27 996 902
28 115 158
29 971 352
30 448 484
31 299 89
32 402 147
33 186 22
34 658 505
35 459 528
36 956 900
37 36 651
38 994 713
39 270 100
40 944 606
41 318 42
42 398 280
43 74 760
44 910 623
45 96 604
46 432 96
47 188 17
48 441 480
49 196 51
50 953 658
51 389 0
52 293 75
53 299 157
54 440 423
55 168 19
56 126 666
57 332 85
58 49 602
59 81 696
60 308 43
61 915 675
62 500 518
63 329 86
64 993 634
65 959 600
66 991 973
67 382 303
68 477 58
69 439 456
70 462 471
71 107 134
72 970 995
73 427 501
74 938 650
75 370 16
76 460 140
77 411 89
78 343 121
79 361 316
80 407 508
81 168 601
82 193 51
83 957 641
84 51 647
85 386 146
86 976 649
87 453 69
88 466 153
89 507 472
90 327 78
91 301 135
92 997 980
93 343 173
94 860 622
95 317 211
96 83 641
97 247 22
98 337 72
99 439 65
100 97 676
101 880 606
102 252 22
103 135 618
104 296 39
105 953 368
106 81 826
107 997 734
108 143 603
109 122 38
110 946 690
111 95 37
112 137 64
113 361 258
114 153 65
115 423 59
116 943 678
117 125 62
118 304 44
119 958 610
120 975 966
121 940 621
122 993 964
123 771 548
124 440 455
125 104 561
126 200 61
127 628 312
128 430 429
129 945 994
DEMAND_SECTION
2 79
3 57
4 88
5 54
6 92
7 84
8 61
9 100
10 61
11 69
12 78
13 54
14 59
15 60
16 61
17 85
18 67
19 96
20 57
21 57
22 52
23 80
COVERAGE_SECTION
2 7 33 55 47 82 49 126 114 
3 7 30 48 70 69 124 73 128 
4 7 121 40 24 10 44 119 65 
5 6 78 91 63 15 57 31 
6 6 99 115 46 77 87 25 
7 2 75 51 
8 6 92 72 66 122 120 129 
9 7 96 18 45 100 84 56 103 
10 7 74 83 121 4 50 24 44 
11 7 107 38 110 116 22 50 61 
12 7 23 43 59 37 106 84 100 
13 4 32 85 76 88 
14 7 21 104 60 118 41 102 97 
15 7 31 52 63 90 57 39 98 
16 6 93 95 26 113 85 13 
17 6 20 127 105 34 29 123 
18 7 96 84 9 37 58 45 100 
19 7 111 109 117 112 114 55 2 
20 4 17 34 127 123 
21 7 14 104 60 118 41 102 97 
22 5 27 36 122 120 66 
23 7 59 37 84 100 12 18 96 
24 7 44 4 121 10 40 74 101 
25 4 46 6 76 77 
26 4 95 16 93 113 
27 5 22 36 122 120 66 
28 5 71 112 117 114 19 
29 4 105 17 65 40 
30 7 3 48 70 73 69 124 35 
31 6 15 52 63 90 39 57 
32 2 85 13 
33 6 47 2 55 82 49 126 
34 3 20 123 89 
35 7 62 73 30 48 3 80 70 
36 4 27 22 120 122 
37 7 84 18 23 96 58 9 59 
38 7 107 11 110 116 86 50 64 
39 3 31 52 15 
40 7 119 4 65 121 24 10 83 
41 7 60 118 104 14 98 90 21 
42 5 67 113 79 16 26 
43 4 59 106 12 23 
44 7 24 4 121 10 101 40 74 
45 7 9 96 103 18 125 58 108 
46 5 25 6 77 99 87 
47 6 33 2 55 82 49 126 
48 7 3 30 70 69 73 124 80 
49 6 82 126 33 2 47 55 
50 7 74 83 116 10 86 110 121 
51 2 75 7 
52 5 31 15 118 39 90 
53 2 91 5 
54 6 128 124 69 70 3 48 
55 7 2 33 47 82 49 114 109 
56 4 100 9 103 96 
57 6 63 90 98 15 31 5 
58 7 18 84 45 37 96 9 125 
59 5 100 23 56 96 84 
60 7 118 41 104 14 52 21 90 
61 7 116 74 110 10 50 44 24 
62 7 35 89 70 30 3 48 73 
63 7 57 90 98 15 31 5 52 
64 7 86 83 119 50 65 10 121 
65 7 119 40 121 4 83 10 24 
66 5 92 122 120 8 72 
67 5 79 42 113 16 26 
68 4 87 99 6 115 
69 7 124 3 48 70 128 30 54 
70 7 3 30 48 69 124 89 73 
71 5 28 117 112 114 19 
72 6 8 129 120 66 92 122 
73 7 80 48 30 3 35 70 69 
74 7 10 50 83 116 121 4 61 
75 2 7 51 
76 4 88 25 13 46 
77 4 46 6 115 99 
78 3 5 57 63 
79 5 67 42 113 26 16 
80 7 73 48 30 3 35 69 124 
81 6 108 103 45 125 56 9 
82 6 49 126 33 2 47 55 
83 7 50 10 74 86 121 119 4 
84 7 37 18 96 9 58 23 100 
85 2 32 13 
86 7 83 64 50 74 10 119 116 
87 6 99 6 68 115 46 25 
88 4 76 13 25 32 
89 5 70 62 3 30 48 
90 7 63 57 98 15 31 52 41 
91 3 53 5 78 
92 6 66 122 8 120 72 129 
93 5 16 95 53 85 78 
94 4 101 44 24 4 
95 4 26 16 93 53 
96 7 9 18 84 100 45 37 56 
97 2 102 14 
98 5 90 57 63 41 15 
99 7 6 87 115 46 77 68 25 
100 5 59 56 96 9 18 
101 5 94 44 24 4 121 
102 3 97 14 104 
103 6 108 81 45 9 56 96 
104 6 118 60 41 14 21 52 
105 4 29 17 65 40 
106 3 43 12 59 
107 7 38 11 110 116 50 86 64 
108 6 103 81 45 125 9 56 
109 7 117 111 112 19 114 55 2 
110 7 116 50 61 74 10 83 86 
111 7 19 109 117 112 114 55 2 
112 7 117 114 109 111 19 55 2 
113 6 42 67 16 79 26 95 
114 7 112 117 109 82 49 126 2 
115 4 99 6 77 87 
116 7 110 50 61 74 10 83 86 
117 7 112 109 114 19 111 55 2 
118 7 60 104 41 14 52 21 90 
119 7 65 40 121 4 83 10 64 
120 5 66 122 92 72 8 
121 7 4 40 10 119 24 83 65 
122 5 66 92 120 8 72 
123 4 94 34 101 20 
124 7 69 3 48 70 128 30 54 
125 7 45 108 103 58 81 9 18 
126 5 49 82 33 2 47 
127 1 20 
128 7 54 69 124 3 48 70 30 
129 4 72 120 8 66 
DEPOT_SECTION
   1
   -1
EOF
