NAME :  X-n200-kX-w39-c7.cctp
COMMENT : 	Adapted by Maziero, Usberti and Cavellucci from the Uchoa, Pecin, Pessoa, Poggi, Subramanian, and Vidal (2013)
TYPE :  CCTP
DIMENSION :    165
EDGE_WEIGHT_TYPE : 	EUC_2D	
CAPACITY : 	402
VERTICES_WITHIN_COVERAGE :  7
VERTICES_WITH_DEMAND : 	39
NODE_COORD_SECTION
1 957 135
2 149 141
3 1 96
4 228 268
5 781 529
6 867 797
7 109 53
8 13 449
9 133 293
10 259 172
11 908 678
12 930 867
13 903 766
14 143 263
15 735 501
16 259 253
17 59 62
18 737 464
19 925 587
20 16 404
21 893 720
22 131 188
23 226 228
24 285 68
25 113 323
26 67 307
27 797 381
28 804 573
29 892 838
30 307 141
31 40 347
32 933 708
33 906 725
34 242 231
35 310 255
36 183 308
37 57 153
38 122 254
39 1 437
40 83 548
41 872 427
42 118 317
43 54 335
44 180 118
45 875 774
46 792 774
47 92 166
48 890 821
49 189 299
50 230 234
51 61 728
52 147 501
53 756 455
54 121 248
55 890 825
56 275 63
57 67 131
58 96 15
59 893 822
60 121 170
61 770 580
62 122 320
63 824 813
64 256 265
65 726 553
66 864 742
67 149 74
68 872 329
69 847 817
70 864 575
71 976 818
72 193 126
73 79 88
74 907 842
75 808 590
76 146 120
77 66 480
78 824 634
79 9 421
80 152 157
81 318 223
82 853 307
83 184 277
84 183 236
85 20 67
86 165 63
87 62 410
88 176 261
89 223 301
90 830 608
91 7 164
92 188 108
93 770 537
94 168 99
95 641 321
96 174 165
97 886 816
98 53 303
99 214 261
100 104 44
101 393 114
102 222 51
103 894 577
104 35 285
105 93 509
106 127 150
107 873 468
108 60 105
109 133 232
110 147 252
111 778 547
112 46 419
113 83 80
114 43 466
115 337 216
116 83 205
117 9 55
118 127 123
119 72 189
120 771 491
121 73 201
122 181 188
123 727 549
124 26 332
125 59 359
126 798 525
127 875 568
128 241 285
129 45 86
130 446 310
131 128 366
132 163 168
133 322 272
134 958 864
135 754 814
136 136 184
137 111 119
138 120 300
139 686 372
140 32 68
141 224 70
142 113 76
143 228 73
144 216 34
145 157 167
146 84 263
147 330 253
148 903 822
149 900 858
150 15 37
151 79 523
152 207 329
153 130 274
154 870 860
155 791 305
156 13 535
157 800 823
158 224 244
159 580 504
160 3 172
161 62 499
162 300 26
163 52 204
164 163 305
165 135 270
DEMAND_SECTION
2 83
3 52
4 73
5 70
6 86
7 51
8 74
9 84
10 52
11 93
12 91
13 89
14 64
15 75
16 64
17 61
18 2
19 86
20 95
21 100
22 73
23 61
24 83
25 60
26 85
27 48
28 66
29 70
30 91
31 54
32 55
33 64
34 56
35 62
36 89
37 100
38 96
39 67
40 21
COVERAGE_SECTION
2 7 80 76 106 145 118 132 96 
3 7 85 117 140 129 108 150 17 
4 7 99 128 158 64 89 16 50 
5 7 93 126 111 120 28 61 15 
6 7 45 97 69 48 55 59 148 
7 6 100 142 113 58 67 73 
8 7 39 79 114 20 112 77 87 
9 7 138 153 165 42 62 14 164 
10 7 30 34 23 50 81 72 122 
11 7 32 21 33 66 13 19 78 
12 7 134 149 74 29 148 55 59 
13 7 45 33 66 21 6 97 148 
14 7 165 110 153 38 54 9 88 
15 7 18 120 123 93 53 65 5 
16 7 64 34 4 50 158 128 23 
17 7 129 140 113 73 85 108 100 
18 7 53 15 120 5 93 123 126 
19 7 103 127 70 11 90 78 75 
20 7 79 112 39 8 87 31 125 
21 7 33 66 32 11 13 45 6 
22 7 136 60 145 80 106 132 109 
23 7 50 34 158 99 4 16 84 
24 7 56 162 143 141 102 30 144 
25 7 42 62 138 9 131 26 153 
26 7 98 43 104 146 31 124 25 
27 7 155 53 41 68 82 18 139 
28 7 75 61 111 90 126 5 93 
29 7 55 59 74 48 148 149 97 
30 7 10 24 115 81 56 101 143 
31 6 43 124 125 98 26 20 
32 7 33 11 21 13 66 45 6 
33 7 21 32 13 66 11 45 6 
34 7 50 23 158 16 64 4 99 
35 7 147 133 81 115 16 64 34 
36 7 49 164 83 152 89 88 9 
37 6 57 47 119 108 91 121 
38 7 54 165 153 14 109 110 146 
39 7 8 79 20 112 114 87 77 
40 7 151 105 161 77 156 52 114 
41 7 107 27 68 53 120 82 126 
42 7 62 25 138 9 153 164 131 
43 6 31 125 124 26 98 104 
44 7 92 72 94 76 2 96 80 
45 7 6 13 66 97 48 59 69 
46 6 63 157 135 69 6 66 
47 7 60 119 37 106 116 121 57 
48 7 59 55 97 148 29 74 6 
49 7 36 83 164 89 152 88 99 
50 7 23 34 158 99 4 16 64 
51 7 40 156 151 105 161 52 77 
52 5 105 151 40 77 161 
53 7 18 120 15 5 126 93 27 
54 7 38 109 110 165 14 153 146 
55 7 48 59 97 29 148 74 149 
56 7 24 162 143 141 102 144 30 
57 5 37 108 47 73 137 
58 7 100 7 17 142 113 73 67 
59 7 48 55 97 148 29 74 6 
60 7 22 106 136 47 80 145 2 
61 7 111 28 75 93 5 65 123 
62 7 42 25 138 9 164 131 153 
63 7 69 157 6 46 97 45 48 
64 7 16 128 4 34 158 50 99 
65 6 123 93 61 111 15 5 
66 7 45 21 33 13 6 32 69 
67 7 86 94 142 7 76 92 44 
68 7 82 155 27 41 107 53 18 
69 7 63 6 97 48 55 59 157 
70 7 127 103 90 75 28 19 78 
71 7 134 12 74 148 59 29 48 
72 7 44 92 94 96 2 76 80 
73 5 113 108 17 129 142 
74 7 29 149 148 55 59 48 97 
75 7 28 90 61 78 111 70 93 
76 7 118 2 94 44 137 106 80 
77 6 161 114 105 151 8 112 
78 6 90 75 28 70 61 127 
79 7 20 39 8 112 87 114 31 
80 7 145 2 132 96 106 136 60 
81 7 115 147 35 133 16 64 34 
82 7 68 155 27 41 107 53 139 
83 7 88 49 36 99 164 84 14 
84 7 88 110 99 83 158 23 50 
85 7 140 117 150 129 3 17 108 
86 7 67 94 92 142 7 44 102 
87 2 112 20 
88 7 83 84 110 14 99 49 165 
89 6 128 152 4 49 36 99 
90 7 78 75 28 70 127 61 103 
91 6 160 37 163 3 57 119 
92 7 44 72 94 76 2 86 67 
93 7 111 5 126 61 123 120 65 
94 7 44 92 76 67 86 72 2 
95 7 139 155 27 18 53 159 130 
96 7 132 145 80 122 2 136 72 
97 7 48 59 55 148 29 6 74 
98 7 26 104 43 124 31 146 125 
99 7 4 158 50 83 23 128 88 
100 6 7 58 142 113 17 73 
101 7 30 115 24 162 56 81 10 
102 6 144 141 143 56 86 24 
103 7 127 70 19 90 75 28 78 
104 6 98 26 124 43 146 31 
105 6 151 161 40 77 52 114 
106 7 60 2 80 118 145 136 137 
107 7 41 126 127 120 70 5 103 
108 5 129 73 57 113 17 
109 6 54 110 38 14 165 153 
110 7 14 165 109 38 54 153 88 
111 7 93 5 126 61 28 123 65 
112 6 87 20 79 8 114 39 
113 5 73 17 142 108 7 
114 7 77 8 161 112 39 79 87 
115 7 81 147 35 133 30 16 10 
116 5 121 119 163 47 22 
117 7 85 150 140 3 129 17 108 
118 6 137 76 106 2 80 60 
119 6 121 116 163 47 37 60 
120 7 15 5 53 18 126 93 111 
121 5 116 119 163 47 37 
122 7 96 132 145 80 136 84 22 
123 6 65 93 15 111 61 5 
124 7 31 43 98 125 26 104 20 
125 5 31 43 124 87 26 
126 7 5 93 111 120 28 61 75 
127 7 70 103 19 90 28 75 78 
128 6 4 89 64 99 16 158 
129 6 140 108 17 85 73 113 
130 5 147 133 115 35 81 
131 2 25 62 
132 7 145 96 80 122 2 136 22 
133 7 35 147 81 115 16 64 128 
134 7 12 71 74 149 148 29 59 
135 6 157 46 63 69 6 154 
136 7 22 60 145 80 132 106 96 
137 5 118 76 106 142 2 
138 7 9 42 62 25 153 165 164 
139 7 95 18 53 27 155 15 120 
140 7 85 129 117 17 150 3 108 
141 7 143 102 144 56 92 86 24 
142 6 7 113 100 67 73 137 
143 7 141 102 144 56 92 24 72 
144 6 102 141 143 86 56 24 
145 7 132 80 96 2 136 122 22 
146 5 38 54 26 153 98 
147 7 35 133 81 115 16 64 34 
148 7 59 48 55 97 29 74 149 
149 7 74 29 154 12 55 148 59 
150 7 117 85 140 17 129 3 113 
151 7 105 40 161 77 114 156 52 
152 3 36 89 49 
153 7 165 14 9 38 54 110 138 
154 7 149 29 55 74 48 59 97 
155 7 82 27 68 139 41 95 53 
156 7 161 151 40 114 77 105 8 
157 6 63 69 135 46 6 154 
158 7 50 23 99 34 4 16 64 
159 5 65 123 15 18 139 
160 6 91 37 163 119 3 57 
161 7 77 151 105 114 40 156 8 
162 7 24 56 102 144 143 141 30 
163 4 121 119 116 37 
164 7 36 49 9 83 138 62 153 
165 7 153 14 38 110 9 54 138 
DEPOT_SECTION
   1
   -1
EOF
