NAME :  X-n266-kX-w26-c11.cctp
COMMENT : 	Adapted by Maziero, Usberti and Cavellucci from the Uchoa, Pecin, Pessoa, Poggi, Subramanian, and Vidal (2013)
TYPE :  CCTP
DIMENSION :    153
EDGE_WEIGHT_TYPE : 	EUC_2D	
CAPACITY : 	35
VERTICES_WITHIN_COVERAGE :  11
VERTICES_WITH_DEMAND : 	26
NODE_COORD_SECTION
1 143 12
2 206 907
3 895 855
4 640 970
5 865 716
6 993 356
7 618 966
8 963 539
9 50 979
10 241 998
11 32 206
12 288 926
13 299 507
14 336 180
15 589 726
16 665 488
17 36 521
18 112 895
19 814 442
20 843 474
21 17 258
22 360 273
23 814 537
24 775 524
25 825 471
26 321 87
27 773 958
28 368 928
29 452 919
30 386 911
31 186 803
32 948 721
33 216 973
34 915 641
35 238 810
36 946 172
37 23 561
38 613 657
39 359 434
40 56 554
41 862 723
42 974 838
43 815 880
44 203 435
45 882 803
46 194 739
47 380 323
48 836 461
49 789 669
50 956 1000
51 98 295
52 656 410
53 580 959
54 459 43
55 262 31
56 960 74
57 237 910
58 353 828
59 420 281
60 721 524
61 923 491
62 444 792
63 987 930
64 907 45
65 34 820
66 837 536
67 835 467
68 988 937
69 487 765
70 975 406
71 440 41
72 607 487
73 57 898
74 0 517
75 682 409
76 16 909
77 846 379
78 948 682
79 324 44
80 339 188
81 589 805
82 934 907
83 848 633
84 890 973
85 98 787
86 964 391
87 171 837
88 946 388
89 818 503
90 887 643
91 981 839
92 383 325
93 288 219
94 707 525
95 56 193
96 304 158
97 104 295
98 66 150
99 39 224
100 277 43
101 380 496
102 620 623
103 367 300
104 435 235
105 242 543
106 321 572
107 673 531
108 379 329
109 348 126
110 75 271
111 859 379
112 747 578
113 257 92
114 78 288
115 343 279
116 686 499
117 347 264
118 321 280
119 691 402
120 59 174
121 108 339
122 312 489
123 382 227
124 84 311
125 378 58
126 591 502
127 689 522
128 327 293
129 292 538
130 696 506
131 430 247
132 727 571
133 803 537
134 765 571
135 327 164
136 218 562
137 769 443
138 821 500
139 310 87
140 770 527
141 410 281
142 352 172
143 440 59
144 256 195
145 294 460
146 728 554
147 660 422
148 857 655
149 607 505
150 634 426
151 331 128
152 364 278
153 79 208
DEMAND_SECTION
2 5
3 5
4 5
5 5
6 6
7 10
8 10
9 10
10 9
11 9
12 5
13 9
14 5
15 6
16 7
17 6
18 10
19 6
20 5
21 10
22 6
23 10
24 7
25 6
26 9
27 5
COVERAGE_SECTION
2 11 57 33 87 12 18 10 35 31 73 85 28 
3 11 45 82 42 43 91 84 63 68 41 5 32 
4 11 7 53 27 81 29 43 15 84 69 30 62 
5 11 41 148 90 32 83 45 49 34 78 3 42 
6 11 86 70 88 111 77 61 8 48 36 20 67 
7 11 4 53 27 81 29 43 30 69 15 62 28 
8 11 61 34 66 90 70 20 78 67 138 86 23 
9 11 76 73 18 65 33 2 87 10 85 57 31 
10 11 33 12 57 2 28 18 30 87 35 9 31 
11 8 99 95 120 153 21 98 110 114 
12 10 57 28 2 10 33 30 58 35 87 31 
13 8 122 129 145 105 106 101 39 136 
14 11 80 135 142 96 151 109 93 123 144 117 26 
15 4 38 81 102 69 
16 11 116 130 127 107 94 72 149 147 60 150 126 
17 7 74 40 37 136 44 121 105 
18 11 73 87 2 76 9 65 85 31 57 33 35 
19 11 48 25 67 20 137 138 89 77 111 24 23 
20 11 67 48 25 138 89 19 66 23 133 137 61 
21 10 99 11 110 114 95 153 124 51 120 97 
22 11 152 117 115 103 128 118 123 141 47 92 108 
23 11 133 66 89 138 24 140 134 25 20 67 48 
24 11 140 133 23 89 134 138 60 146 112 66 132 
25 11 67 48 20 138 19 89 137 66 23 133 24 
26 11 139 151 79 109 100 113 125 96 135 55 142 
27 11 43 84 4 7 3 82 50 45 53 63 68 
28 10 30 12 29 58 57 10 62 33 2 35 
29 9 30 28 62 53 58 69 12 7 81 
30 9 28 29 58 12 62 57 10 69 35 
31 8 87 35 46 85 2 18 57 65 
32 11 78 5 41 34 90 45 148 42 91 83 3 
33 11 10 57 2 12 18 87 28 35 9 31 73 
34 11 90 78 148 83 32 5 41 8 49 66 23 
35 8 31 87 46 57 2 58 12 85 
36 8 56 64 6 88 86 111 77 70 
37 6 40 17 74 136 44 105 
38 4 102 15 107 132 
39 4 101 145 122 13 
40 6 37 17 74 136 105 44 
41 11 5 148 45 90 32 49 83 78 34 3 42 
42 11 91 82 3 63 45 68 32 78 84 41 50 
43 11 3 27 45 84 82 41 42 5 91 63 68 
44 3 145 105 13 
45 11 3 41 5 42 43 32 91 82 78 148 90 
46 5 31 35 87 85 2 
47 8 92 108 103 152 141 22 115 59 
48 11 67 20 25 19 138 89 137 66 23 77 133 
49 10 83 148 5 41 112 90 134 132 34 146 
50 11 68 84 63 82 3 42 91 43 27 45 32 
51 7 97 114 124 110 121 21 153 
52 5 147 75 150 119 16 
53 10 7 4 29 81 27 30 28 62 69 15 
54 6 71 143 125 79 109 26 
55 6 100 113 79 139 26 125 
56 8 64 36 6 88 86 111 77 70 
57 11 2 12 33 10 87 35 31 18 28 58 30 
58 8 30 62 28 35 12 29 57 69 
59 9 141 131 104 103 152 92 47 22 108 
60 10 94 130 146 127 116 132 107 140 24 112 
61 11 8 20 67 48 66 25 70 138 88 89 86 
62 7 69 58 29 30 81 28 15 
63 11 68 82 50 91 42 84 3 45 43 32 27 
64 3 56 36 6 
65 9 85 73 76 18 87 31 9 46 2 
66 11 23 133 89 138 20 24 25 140 67 48 134 
67 11 48 20 25 19 138 89 66 137 23 133 24 
68 11 63 82 50 91 42 84 3 45 43 27 32 
69 4 62 15 81 58 
70 11 86 88 6 61 111 77 8 20 48 67 25 
71 7 143 54 125 79 109 26 139 
72 6 149 126 16 150 107 116 
73 11 76 18 9 65 85 87 2 31 33 57 35 
74 7 17 37 40 121 44 124 136 
75 6 119 52 147 150 16 116 
76 11 73 9 65 18 85 87 2 31 33 57 10 
77 10 111 19 48 67 25 20 88 137 86 138 
78 11 32 34 90 5 41 148 83 45 8 42 49 
79 11 26 139 100 125 55 113 151 109 71 96 143 
80 11 14 142 135 96 123 93 151 109 117 144 22 
81 8 15 69 62 38 53 7 4 29 
82 11 63 68 3 84 42 91 50 45 43 27 32 
83 11 148 90 34 49 5 41 66 23 134 133 78 
84 11 50 82 68 63 3 27 43 42 91 45 4 
85 8 65 87 31 46 18 73 35 76 
86 11 88 70 6 111 61 77 48 20 8 67 19 
87 9 31 35 2 18 85 57 46 73 65 
88 11 86 70 6 111 77 61 48 20 67 19 25 
89 11 138 25 23 133 20 66 67 48 24 140 19 
90 11 34 148 83 78 5 41 32 49 66 8 23 
91 11 42 82 3 63 68 45 32 78 84 50 41 
92 7 47 108 103 152 141 22 59 
93 9 144 80 14 96 135 118 117 142 115 
94 10 60 127 130 116 107 146 132 16 140 112 
95 7 120 11 153 99 98 21 110 
96 11 135 14 151 80 142 109 144 93 139 26 113 
97 7 51 124 114 110 121 153 21 
98 5 120 95 153 11 99 
99 9 11 95 21 153 120 110 114 98 51 
100 8 55 79 113 139 26 151 125 109 
101 3 39 122 13 
102 6 38 107 15 132 149 127 
103 10 152 47 22 92 108 115 117 128 141 118 
104 8 131 59 141 123 152 22 117 103 
105 6 136 129 13 106 122 145 
106 3 129 13 122 
107 10 127 130 94 116 16 60 146 132 149 72 
108 6 47 92 103 152 141 22 
109 11 151 135 142 26 96 139 14 80 125 79 113 
110 9 114 51 97 124 21 99 153 121 11 
111 11 77 19 48 88 67 20 25 86 137 70 138 
112 10 134 132 146 140 60 24 94 133 23 127 
113 6 100 139 55 26 96 79 
114 9 110 51 124 97 121 21 99 153 11 
115 10 117 22 128 152 118 103 47 92 108 123 
116 10 130 127 16 94 107 60 146 149 72 147 
117 11 22 115 152 118 128 103 123 141 47 92 108 
118 8 128 115 117 22 152 103 93 47 
119 6 75 52 147 150 137 16 
120 5 95 98 153 11 99 
121 6 124 97 51 114 110 21 
122 7 13 145 129 101 39 106 105 
123 11 22 117 131 104 152 80 141 142 115 14 59 
124 8 51 114 97 121 110 21 99 153 
125 11 79 143 26 71 109 139 54 151 100 142 135 
126 3 149 72 16 
127 10 130 94 107 116 60 16 146 132 112 140 
128 9 118 115 117 22 152 103 47 108 92 
129 6 13 106 105 122 136 145 
130 10 116 127 94 60 107 16 146 132 140 24 
131 9 104 59 141 123 152 22 103 117 47 
132 10 146 112 134 60 94 127 140 24 107 130 
133 11 23 24 66 140 89 138 134 112 25 20 67 
134 10 112 132 146 140 24 133 23 60 94 66 
135 11 14 96 142 80 151 109 93 26 144 139 123 
136 6 105 129 13 106 122 145 
137 10 19 25 48 67 89 138 20 24 140 119 
138 11 89 25 20 67 23 66 133 48 24 19 140 
139 11 26 79 151 113 109 100 96 55 125 135 142 
140 11 24 133 134 23 60 146 89 112 138 132 94 
141 9 59 131 152 103 22 47 92 104 108 
142 11 14 80 135 109 151 96 123 93 26 117 139 
143 7 71 54 125 109 79 26 151 
144 5 93 96 135 14 80 
145 5 122 13 39 129 101 
146 10 132 60 112 94 134 127 140 24 130 107 
147 5 52 75 150 119 16 
148 11 83 90 34 5 41 49 78 32 66 134 23 
149 5 126 72 16 107 116 
150 6 147 52 75 119 72 16 
151 11 109 135 96 26 139 142 14 80 113 79 125 
152 11 22 115 103 117 128 118 141 47 92 108 123 
153 6 95 120 99 11 98 110 
DEPOT_SECTION
   1
   -1
EOF
