NAME :  X-n251-kX-w25-c11.cctp
COMMENT : 	Adapted by Maziero, Usberti and Cavellucci from the Uchoa, Pecin, Pessoa, Poggi, Subramanian, and Vidal (2013)
TYPE :  CCTP
DIMENSION :    150
EDGE_WEIGHT_TYPE : 	EUC_2D	
CAPACITY : 	69
VERTICES_WITHIN_COVERAGE :  11
VERTICES_WITH_DEMAND : 	25
NODE_COORD_SECTION
1 112 700
2 363 779
3 245 896
4 238 19
5 184 351
6 305 763
7 366 814
8 137 857
9 564 31
10 303 157
11 523 830
12 134 231
13 851 445
14 740 311
15 163 95
16 275 499
17 470 814
18 453 217
19 818 525
20 311 911
21 177 374
22 230 4
23 590 302
24 196 103
25 553 879
26 316 446
27 665 375
28 907 455
29 342 345
30 785 309
31 649 584
32 26 126
33 447 817
34 145 527
35 218 825
36 405 151
37 389 436
38 452 619
39 948 514
40 578 334
41 325 696
42 774 336
43 81 238
44 295 406
45 853 358
46 742 581
47 32 964
48 747 352
49 610 799
50 485 734
51 419 256
52 941 589
53 68 42
54 817 595
55 397 274
56 727 302
57 216 237
58 821 320
59 561 920
60 128 834
61 162 534
62 279 644
63 188 329
64 520 301
65 336 782
66 728 230
67 139 848
68 350 154
69 242 162
70 907 497
71 52 593
72 786 457
73 629 745
74 935 439
75 641 78
76 78 835
77 232 226
78 123 479
79 205 840
80 932 357
81 325 559
82 362 477
83 845 263
84 11 938
85 88 535
86 436 200
87 940 319
88 325 59
89 34 264
90 47 470
91 322 89
92 825 289
93 287 304
94 288 406
95 287 623
96 616 828
97 60 445
98 978 511
99 599 895
100 364 90
101 304 854
102 343 127
103 422 270
104 453 844
105 230 995
106 675 278
107 535 57
108 654 332
109 526 932
110 618 85
111 409 207
112 534 887
113 546 47
114 597 299
115 630 398
116 538 29
117 326 841
118 557 307
119 350 13
120 496 204
121 338 918
122 427 792
123 441 297
124 764 238
125 596 931
126 578 922
127 361 962
128 539 869
129 468 807
130 537 7
131 697 29
132 400 190
133 469 264
134 572 82
135 440 203
136 628 934
137 528 30
138 635 25
139 528 2
140 457 847
141 183 354
142 814 278
143 359 893
144 598 325
145 552 367
146 665 287
147 549 277
148 522 337
149 559 398
150 605 773
DEMAND_SECTION
2 5
3 7
4 5
5 8
6 7
7 8
8 7
9 9
10 7
11 6
12 7
13 8
14 6
15 9
16 8
17 8
18 9
19 6
20 8
21 5
22 6
23 7
24 7
25 6
26 9
COVERAGE_SECTION
2 11 65 7 6 122 117 41 33 101 129 104 17 
3 11 20 79 101 35 121 117 105 143 8 67 60 
4 11 22 24 88 15 91 119 69 100 102 10 53 
5 11 141 63 21 93 57 94 44 12 77 78 43 
6 11 65 2 41 7 117 101 35 62 122 79 95 
7 11 2 65 117 122 101 143 6 33 104 140 129 
8 11 67 60 76 79 35 3 47 84 105 101 20 
9 7 113 116 130 137 107 139 134 
10 11 68 102 69 91 100 77 88 36 132 111 57 
11 10 128 17 25 112 129 140 104 33 49 96 
12 11 43 57 77 89 63 69 5 141 15 24 21 
13 11 28 72 70 74 19 45 39 80 58 42 48 
14 11 56 42 48 30 106 124 146 58 142 66 92 
15 11 24 69 4 53 22 12 32 77 57 10 91 
16 11 26 81 82 94 44 61 95 37 34 62 78 
17 9 129 33 104 140 122 11 50 128 112 
18 8 135 86 111 120 133 51 132 103 
19 11 54 72 13 70 46 28 39 52 74 98 45 
20 8 121 143 101 3 127 117 7 105 
21 11 141 5 63 94 78 44 93 97 57 12 34 
22 11 4 24 88 15 119 91 69 100 53 102 10 
23 10 114 144 118 40 147 64 108 145 146 148 
24 11 15 69 4 22 10 91 77 57 88 12 53 
25 8 128 112 59 99 126 11 109 125 
26 8 44 94 82 16 37 29 81 93 
27 11 115 108 144 48 146 40 56 106 14 114 23 
28 11 74 70 13 39 98 80 45 19 72 52 87 
29 8 93 44 94 55 37 26 103 123 
30 11 42 58 142 14 92 48 56 124 83 45 66 
31 6 46 73 54 19 72 115 
32 11 53 43 89 15 12 24 69 57 77 4 22 
33 8 17 129 104 122 140 11 7 50 
34 11 61 78 85 90 71 97 16 21 95 141 62 
35 11 79 3 67 8 60 101 6 117 65 20 76 
36 8 132 68 111 86 135 102 100 18 
37 7 82 26 44 29 94 16 81 
38 8 50 81 41 95 82 62 122 2 
39 11 98 70 28 52 74 13 19 54 80 72 45 
40 11 144 23 118 114 145 148 147 64 149 108 115 
41 11 62 6 95 65 2 7 81 122 117 38 101 
42 11 30 48 14 58 56 92 142 45 124 83 106 
43 11 12 89 32 57 63 77 5 141 15 21 24 
44 9 94 26 29 16 82 37 93 21 141 
45 11 58 92 80 42 30 13 142 83 87 48 28 
46 8 54 31 19 72 13 70 52 73 
47 11 84 76 8 67 60 105 79 3 35 20 101 
48 11 42 14 56 30 58 27 108 92 142 106 146 
49 11 150 96 73 11 99 25 128 112 126 59 125 
50 11 129 17 122 33 11 104 140 38 150 2 49 
51 9 103 55 123 111 133 18 135 86 132 
52 10 39 98 70 54 28 19 74 13 46 72 
53 11 32 15 24 22 4 43 12 69 89 57 77 
54 11 19 46 52 70 72 13 39 28 31 98 74 
55 10 103 51 123 111 133 18 135 86 132 29 
56 11 14 48 106 30 42 146 66 124 108 142 27 
57 11 77 69 12 63 93 5 10 141 24 43 21 
58 11 92 30 142 42 45 83 14 48 56 124 80 
59 8 126 109 125 25 112 99 128 136 
60 11 67 8 76 79 35 3 84 47 101 6 105 
61 11 34 78 85 16 71 90 97 95 21 62 81 
62 11 95 41 81 6 16 65 2 61 38 34 82 
63 11 5 141 21 57 93 12 77 94 44 43 29 
64 6 148 118 147 133 40 23 
65 11 2 6 7 117 101 41 122 143 33 35 20 
66 9 124 56 106 14 146 30 142 92 42 
67 11 8 60 76 79 35 3 84 47 101 105 20 
68 9 102 10 36 132 100 91 111 86 88 
69 11 10 77 24 57 15 102 68 91 12 88 100 
70 11 28 39 74 98 13 19 52 72 54 80 45 
71 11 85 34 90 61 78 97 62 95 16 76 21 
72 11 13 19 48 45 28 42 70 46 54 58 27 
73 10 150 49 96 11 50 99 128 25 31 112 
74 11 28 70 39 80 13 98 45 87 19 52 72 
75 5 110 138 134 131 9 
76 11 60 67 8 84 79 47 35 3 105 101 6 
77 11 57 69 93 12 10 63 24 5 141 68 15 
78 11 34 85 61 97 90 21 71 141 5 16 63 
79 11 35 67 3 8 60 101 117 6 76 20 65 
80 11 87 45 74 28 58 13 92 83 70 142 30 
81 11 95 16 82 62 26 41 37 38 44 94 61 
82 7 37 26 16 81 44 94 29 
83 10 92 142 58 30 124 45 42 87 14 66 
84 11 47 76 8 67 60 79 105 35 3 20 101 
85 11 34 78 71 61 90 97 21 16 141 5 95 
86 8 135 18 111 132 36 51 120 103 
87 10 80 45 83 58 92 74 142 28 13 30 
88 9 91 100 119 102 4 68 10 22 36 
89 11 43 12 32 63 5 141 21 97 57 77 90 
90 11 97 78 85 34 71 61 21 141 5 63 89 
91 9 88 100 102 10 68 119 36 69 4 
92 10 142 58 83 30 42 45 124 14 56 48 
93 10 29 77 57 44 63 94 5 55 141 21 
94 10 44 26 29 16 93 82 37 21 141 5 
95 11 62 81 41 16 6 61 82 38 65 34 2 
96 11 49 150 99 25 73 128 11 112 126 125 59 
97 11 90 78 85 34 61 21 71 141 5 63 89 
98 11 39 70 74 52 28 13 19 80 54 87 45 
99 10 126 125 59 25 136 112 128 96 109 49 
100 7 91 102 88 68 36 119 10 
101 11 117 20 143 3 121 7 65 6 35 2 79 
102 8 68 91 100 10 36 88 132 111 
103 9 51 55 123 133 18 111 135 86 132 
104 6 140 33 17 129 122 11 
105 11 3 20 121 127 79 101 143 8 35 67 117 
106 11 146 56 108 66 14 114 23 144 27 124 48 
107 4 113 116 137 9 
108 11 27 146 144 106 114 115 23 40 56 14 48 
109 4 59 112 126 25 
110 4 75 134 138 9 
111 10 132 86 135 18 51 36 103 55 68 133 
112 7 128 25 59 109 126 11 99 
113 6 107 116 9 137 130 134 
114 8 23 144 40 118 147 108 146 64 
115 10 27 108 149 144 40 145 23 114 146 118 
116 6 137 113 130 9 107 139 
117 11 101 7 65 143 2 20 121 6 3 35 122 
118 8 147 23 40 64 114 144 148 145 
119 6 88 100 91 4 102 22 
120 1 18 
121 6 20 143 127 101 117 3 
122 10 33 129 17 104 140 2 7 50 65 11 
123 6 103 133 51 55 64 18 
124 10 66 142 30 56 14 92 83 106 42 58 
125 8 126 136 99 59 25 109 112 128 
126 8 59 125 99 25 136 109 112 128 
127 3 121 143 20 
128 7 25 112 11 59 109 99 126 
129 9 17 33 104 140 122 11 50 128 7 
130 6 139 116 137 9 113 107 
131 4 138 75 110 9 
132 8 111 86 36 135 18 68 51 103 
133 6 123 103 18 51 64 120 
134 4 113 107 110 9 
135 9 86 18 111 132 120 51 36 133 103 
136 9 125 99 126 59 25 109 112 96 128 
137 6 116 113 130 107 139 9 
138 7 75 110 131 9 134 113 116 
139 5 130 137 116 9 113 
140 6 104 33 17 129 122 11 
141 11 5 21 63 93 94 57 44 12 77 78 97 
142 10 92 83 30 58 124 42 14 45 56 66 
143 6 121 20 117 101 127 7 
144 11 40 23 114 118 108 145 147 146 148 115 64 
145 9 149 40 148 118 144 64 23 114 115 
146 10 106 108 56 114 23 144 14 66 27 40 
147 4 118 64 23 114 
148 8 64 145 118 40 147 149 23 144 
149 8 145 40 115 148 144 118 23 64 
150 11 49 73 96 11 128 25 99 50 112 17 129 
DEPOT_SECTION
   1
   -1
EOF
