NAME :  X-n223-kX-w88-c9.cctp
COMMENT : 	Adapted by Maziero, Usberti and Cavellucci from the Uchoa, Pecin, Pessoa, Poggi, Subramanian, and Vidal (2013)
TYPE :  CCTP
DIMENSION :    191
EDGE_WEIGHT_TYPE : 	EUC_2D	
CAPACITY : 	37
VERTICES_WITHIN_COVERAGE :  9
VERTICES_WITH_DEMAND : 	88
NODE_COORD_SECTION
1 284 167
2 6 711
3 874 746
4 483 894
5 733 189
6 336 29
7 488 684
8 825 903
9 98 412
10 206 306
11 497 641
12 499 745
13 481 40
14 500 390
15 851 268
16 51 278
17 805 796
18 554 771
19 576 984
20 734 251
21 325 414
22 658 81
23 279 467
24 1000 804
25 124 148
26 554 594
27 645 168
28 4 965
29 614 267
30 939 719
31 935 800
32 109 154
33 31 554
34 960 512
35 489 840
36 377 684
37 945 808
38 720 165
39 226 34
40 73 255
41 748 344
42 774 514
43 143 893
44 168 461
45 164 493
46 631 533
47 815 191
48 833 284
49 746 100
50 252 839
51 894 472
52 944 597
53 371 28
54 552 186
55 610 541
56 578 665
57 749 655
58 898 974
59 274 972
60 520 642
61 914 373
62 610 738
63 773 602
64 752 74
65 729 90
66 464 658
67 70 36
68 964 397
69 388 732
70 185 51
71 712 144
72 45 437
73 910 738
74 956 879
75 318 560
76 592 913
77 642 564
78 907 240
79 88 186
80 399 931
81 763 180
82 626 876
83 302 689
84 970 490
85 775 574
86 653 667
87 813 999
88 5 980
89 10 249
90 557 816
91 915 680
92 131 722
93 553 946
94 45 101
95 306 260
96 627 26
97 771 398
98 869 585
99 493 282
100 312 212
101 985 939
102 194 262
103 992 698
104 834 844
105 1 651
106 271 893
107 20 349
108 163 503
109 579 761
110 923 502
111 2 469
112 103 284
113 63 181
114 784 300
115 826 222
116 36 51
117 231 82
118 57 79
119 62 272
120 22 273
121 106 897
122 805 267
123 150 793
124 106 129
125 212 590
126 327 114
127 7 372
128 646 219
129 1 80
130 259 282
131 961 241
132 692 298
133 47 944
134 801 272
135 72 185
136 646 242
137 189 387
138 119 294
139 31 339
140 730 188
141 57 143
142 93 759
143 824 259
144 924 237
145 57 338
146 83 189
147 51 217
148 780 316
149 305 615
150 914 190
151 111 271
152 345 763
153 127 979
154 53 950
155 751 295
156 134 317
157 889 183
158 98 293
159 172 219
160 739 331
161 160 970
162 176 57
163 814 179
164 27 359
165 135 211
166 969 195
167 154 988
168 776 143
169 117 953
170 851 129
171 33 181
172 710 173
173 111 270
174 105 225
175 53 438
176 82 228
177 933 313
178 53 199
179 837 214
180 752 302
181 42 300
182 804 64
183 489 208
184 683 398
185 608 548
186 788 301
187 54 335
188 221 117
189 160 835
190 769 226
191 139 843
DEMAND_SECTION
2 6
3 6
4 9
5 2
6 4
7 10
8 2
9 3
10 3
11 1
12 4
13 3
14 8
15 6
16 4
17 4
18 6
19 3
20 5
21 10
22 7
23 3
24 8
25 9
26 2
27 2
28 9
29 2
30 2
31 1
32 2
33 9
34 9
35 1
36 9
37 5
38 9
39 8
40 6
41 2
42 10
43 3
44 10
45 10
46 1
47 8
48 1
49 7
50 1
51 9
52 3
53 5
54 5
55 5
56 9
57 2
58 2
59 2
60 2
61 5
62 7
63 10
64 9
65 10
66 4
67 4
68 9
69 1
70 5
71 1
72 5
73 8
74 3
75 9
76 6
77 10
78 6
79 3
80 9
81 8
82 9
83 9
84 3
85 6
86 10
87 1
88 2
89 4
COVERAGE_SECTION
2 3 105 142 92 
3 9 73 30 91 31 17 37 104 103 24 
4 9 35 93 80 90 76 19 18 82 12 
5 9 140 38 172 81 71 190 20 168 47 
6 9 53 126 39 117 13 188 70 162 100 
7 9 66 11 60 12 56 18 36 69 26 
8 9 104 87 58 17 74 31 37 3 101 
9 8 175 72 44 145 164 187 137 127 
10 6 102 130 156 137 138 159 
11 9 60 66 7 26 56 12 36 18 69 
12 9 18 7 109 90 66 35 11 60 62 
13 9 53 6 96 54 183 126 22 27 100 
14 9 99 29 21 183 184 55 185 46 136 
15 9 48 143 122 134 115 179 78 186 114 
16 9 119 181 120 40 158 89 112 187 176 
17 9 104 3 8 73 31 37 57 30 91 
18 9 109 90 12 62 35 7 56 82 60 
19 9 93 76 82 4 35 90 80 18 109 
20 9 190 155 180 5 132 140 114 134 122 
21 9 23 137 75 130 95 10 44 14 45 
22 9 96 65 71 27 49 64 38 172 140 
23 9 21 75 44 45 137 108 125 149 10 
24 9 37 31 74 30 103 73 101 3 91 
25 9 32 124 79 146 135 165 141 113 174 
26 9 60 185 11 56 55 77 46 66 7 
27 9 128 172 71 136 38 140 22 5 54 
28 4 88 133 154 169 
29 9 136 128 132 54 27 20 99 172 183 
30 9 73 91 103 3 31 37 24 52 98 
31 9 37 24 73 3 30 74 104 103 91 
32 9 25 124 79 146 135 113 141 165 174 
33 9 111 105 72 175 108 45 9 2 44 
34 9 84 110 51 52 68 98 61 91 42 
35 9 4 90 18 12 109 93 76 80 82 
36 9 69 83 152 66 149 7 11 12 75 
37 9 31 24 74 73 30 3 104 103 91 
38 9 172 71 140 5 81 168 49 27 65 
39 9 70 117 162 188 6 126 53 25 124 
40 9 119 176 16 151 173 112 147 174 158 
41 9 160 180 148 155 114 97 186 132 184 
42 9 85 63 97 98 51 77 57 46 184 
43 6 121 191 189 169 161 153 
44 8 45 108 137 9 23 175 72 125 
45 9 108 44 9 125 137 23 175 72 33 
46 9 55 185 77 26 86 56 42 184 85 
47 8 163 179 115 81 190 168 143 170 
48 9 15 143 122 134 186 114 115 148 179 
49 9 65 64 168 71 182 38 172 81 140 
50 9 106 189 123 191 152 43 59 121 83 
51 9 110 34 84 61 68 98 42 52 97 
52 9 98 34 91 110 84 103 30 51 73 
53 9 6 126 13 39 117 188 70 100 162 
54 9 183 27 128 29 136 99 22 172 13 
55 9 185 46 77 26 56 86 60 11 184 
56 9 60 26 86 62 11 7 109 18 12 
57 9 63 85 86 98 77 42 17 3 62 
58 9 87 101 8 74 104 37 31 24 17 
59 9 106 161 167 80 50 153 43 169 189 
60 9 11 7 66 26 56 12 185 62 18 
61 9 68 177 51 48 15 110 84 78 144 
62 9 109 18 56 86 90 12 60 7 82 
63 9 85 57 42 98 77 86 46 91 52 
64 8 49 65 182 168 71 22 38 81 
65 9 49 64 71 168 22 38 182 172 81 
66 9 7 11 60 36 12 69 26 56 18 
67 8 116 118 94 129 124 141 162 70 
68 9 61 177 84 51 110 34 131 144 78 
69 9 36 152 83 66 7 12 11 149 35 
70 9 162 39 117 188 124 25 67 32 118 
71 9 38 172 140 5 49 65 81 168 27 
72 9 175 111 9 127 164 107 139 145 187 
73 9 30 3 91 31 37 103 24 17 104 
74 9 101 37 31 24 58 104 8 73 3 
75 9 149 23 125 83 36 21 108 45 66 
76 9 82 93 19 90 4 35 18 109 62 
77 9 46 185 55 26 86 56 85 63 57 
78 9 144 150 131 157 15 179 166 177 115 
79 9 146 135 113 178 32 176 174 147 25 
80 9 4 35 59 106 93 50 152 19 76 
81 9 5 140 168 38 190 163 47 172 71 
82 9 76 90 93 19 109 18 62 35 4 
83 9 149 36 152 69 75 125 50 66 92 
84 9 34 110 51 68 52 61 98 177 42 
85 9 63 42 57 98 77 46 86 51 110 
86 9 56 62 57 77 109 26 185 55 60 
87 9 58 8 104 101 74 17 82 37 31 
88 5 28 133 154 169 153 
89 9 120 16 147 119 181 40 178 171 176 
90 9 18 109 35 82 12 62 76 4 93 
91 9 30 73 3 103 52 98 31 37 24 
92 6 142 123 189 191 2 105 
93 9 19 76 4 82 35 90 80 18 109 
94 8 118 141 129 116 124 67 171 113 
95 8 100 130 10 102 159 126 21 188 
96 9 22 65 64 49 27 71 13 38 172 
97 9 41 160 148 184 180 186 114 155 42 
98 9 52 85 63 110 91 51 34 42 57 
99 9 183 14 54 29 136 128 95 27 100 
100 9 95 130 126 102 188 159 10 117 165 
101 9 74 58 24 37 31 8 104 87 73 
102 7 10 159 130 165 156 138 151 
103 9 30 91 73 24 52 31 37 3 98 
104 9 17 8 3 31 37 74 73 58 87 
105 5 2 33 142 92 111 
106 9 50 59 189 43 80 161 191 152 167 
107 9 164 139 127 187 145 181 120 16 119 
108 9 45 44 125 9 137 23 175 72 33 
109 9 18 62 90 12 56 7 35 86 82 
110 9 34 51 84 52 98 68 61 42 85 
111 9 72 175 33 127 9 164 107 139 145 
112 7 158 151 173 138 40 119 156 
113 9 135 178 146 79 171 141 147 176 32 
114 9 186 148 180 134 155 122 48 160 41 
115 9 179 47 143 163 122 15 134 190 48 
116 8 118 67 129 94 141 124 32 171 
117 9 188 39 70 162 126 6 25 124 32 
118 8 94 116 67 129 141 124 32 25 
119 9 16 40 181 120 158 112 176 151 173 
120 9 89 16 181 119 40 147 139 187 145 
121 4 43 169 191 133 
122 9 134 143 48 186 114 15 115 148 190 
123 6 189 191 142 92 43 50 
124 9 32 25 141 79 146 135 94 113 118 
125 9 149 108 45 75 83 44 23 92 33 
126 9 6 53 100 117 188 39 95 70 162 
127 9 164 107 139 145 187 72 175 181 111 
128 9 136 27 29 172 140 132 5 38 20 
129 8 116 94 118 67 141 171 124 113 
130 7 95 10 102 100 159 137 156 
131 6 144 166 78 150 177 157 
132 9 160 155 180 20 41 136 29 148 128 
133 5 154 28 88 169 121 
134 9 122 143 186 114 48 148 15 155 115 
135 9 113 146 79 178 147 171 176 141 32 
136 9 128 29 132 27 20 172 140 5 38 
137 7 44 10 156 9 45 138 108 
138 6 112 158 151 173 156 40 
139 9 107 164 187 145 127 181 16 120 119 
140 9 5 38 172 81 71 190 20 168 163 
141 8 113 94 135 171 124 32 79 146 
142 4 92 123 191 2 
143 9 122 134 48 15 115 179 186 114 190 
144 8 78 131 150 166 157 177 15 179 
145 9 187 139 164 107 181 16 127 158 119 
146 9 79 135 113 178 176 174 147 32 171 
147 9 178 176 113 135 171 146 40 79 89 
148 9 114 186 180 155 41 160 134 122 48 
149 9 75 83 125 36 69 23 152 66 108 
150 5 157 144 78 166 131 
151 7 173 112 138 158 40 174 119 
152 9 69 36 83 50 106 149 12 66 7 
153 8 167 169 161 154 121 43 133 88 
154 6 133 28 88 169 121 153 
155 9 180 114 148 186 160 20 41 134 132 
156 6 138 158 112 151 173 10 
157 5 150 78 179 144 170 
158 7 112 138 151 173 119 156 40 
159 7 165 102 174 151 173 25 79 
160 9 41 180 155 148 114 132 186 97 20 
161 8 167 153 169 43 121 154 59 133 
162 9 70 39 117 188 124 25 67 32 118 
163 8 47 179 115 81 168 170 190 157 
164 9 107 139 127 187 145 181 72 175 16 
165 8 174 159 79 146 176 32 25 173 
166 4 131 150 144 78 
167 8 161 153 169 43 121 154 133 59 
168 9 81 49 163 38 47 5 71 140 65 
169 7 153 161 167 121 154 43 133 
170 4 163 157 47 168 
171 8 178 113 135 147 141 146 79 176 
172 9 38 140 5 71 81 27 168 128 190 
173 7 151 112 138 158 40 174 119 
174 8 176 165 146 79 40 173 151 135 
175 9 72 9 111 127 164 107 145 139 187 
176 9 174 40 147 146 178 79 135 119 113 
177 9 61 78 131 144 68 15 48 143 166 
178 9 147 113 135 171 146 79 176 141 174 
179 8 115 47 163 143 15 157 122 134 
180 9 155 148 114 160 186 41 20 134 132 
181 9 16 119 120 187 139 145 107 40 158 
182 5 64 49 65 170 168 
183 9 54 99 29 128 27 136 13 100 14 
184 9 41 160 97 132 180 155 148 114 186 
185 9 55 46 77 26 56 86 60 11 184 
186 9 114 148 134 180 155 122 48 143 160 
187 9 145 139 164 107 181 16 127 158 119 
188 9 117 70 162 39 25 126 159 124 32 
189 6 191 123 43 121 50 142 
190 9 20 81 5 140 122 134 115 47 143 
191 5 189 43 123 121 142 
DEPOT_SECTION
   1
   -1
EOF
