NAME :  X-n237-kX-w47-c11.cctp
COMMENT : 	Adapted by Maziero, Usberti and Cavellucci from the Uchoa, Pecin, Pessoa, Poggi, Subramanian, and Vidal (2013)
TYPE :  CCTP
DIMENSION :    229
EDGE_WEIGHT_TYPE : 	EUC_2D	
CAPACITY : 	18
VERTICES_WITHIN_COVERAGE :  11
VERTICES_WITH_DEMAND : 	47
NODE_COORD_SECTION
1 0 0
2 80 386
3 521 652
4 597 936
5 836 69
6 503 987
7 618 169
8 115 662
9 312 175
10 78 83
11 364 317
12 12 454
13 980 537
14 403 383
15 144 443
16 739 464
17 886 511
18 904 106
19 794 539
20 821 608
21 781 347
22 336 490
23 101 736
24 365 68
25 618 684
26 282 286
27 311 806
28 557 793
29 54 50
30 651 264
31 619 661
32 156 994
33 950 369
34 183 707
35 673 856
36 5 651
37 867 449
38 946 914
39 75 82
40 522 8
41 573 493
42 833 699
43 881 677
44 201 77
45 536 593
46 67 895
47 99 113
48 120 133
49 428 231
50 701 845
51 190 508
52 431 218
53 626 782
54 113 914
55 569 117
56 865 639
57 708 9
58 511 977
59 104 838
60 229 467
61 956 568
62 431 929
63 615 707
64 913 42
65 854 504
66 236 176
67 377 404
68 380 468
69 590 752
70 620 146
71 616 746
72 675 114
73 556 640
74 99 777
75 12 194
76 920 116
77 846 384
78 525 23
79 199 348
80 813 875
81 757 593
82 573 358
83 264 448
84 289 765
85 246 267
86 245 876
87 648 790
88 378 754
89 636 653
90 555 181
91 738 446
92 130 836
93 882 942
94 102 787
95 669 905
96 490 45
97 883 547
98 971 638
99 256 227
100 775 935
101 489 411
102 826 228
103 514 866
104 129 566
105 7 118
106 415 820
107 161 160
108 27 21
109 695 395
110 64 937
111 121 847
112 770 896
113 174 871
114 20 546
115 986 803
116 379 259
117 686 273
118 133 869
119 157 499
120 784 186
121 649 934
122 999 236
123 670 615
124 978 479
125 646 823
126 440 534
127 26 411
128 114 126
129 661 528
130 946 326
131 695 420
132 172 317
133 116 701
134 940 438
135 824 136
136 837 507
137 125 570
138 773 241
139 542 708
140 441 235
141 808 413
142 68 374
143 582 768
144 593 651
145 71 712
146 26 569
147 918 629
148 165 731
149 941 282
150 285 379
151 227 977
152 788 366
153 33 507
154 597 983
155 299 617
156 799 35
157 414 697
158 529 178
159 235 743
160 118 484
161 349 554
162 477 280
163 591 189
164 743 221
165 807 670
166 163 621
167 874 932
168 245 24
169 960 27
170 139 44
171 45 584
172 281 434
173 684 501
174 284 414
175 20 905
176 80 256
177 57 354
178 306 107
179 167 289
180 952 66
181 862 741
182 240 516
183 806 277
184 782 700
185 82 208
186 951 550
187 710 44
188 537 764
189 407 191
190 629 133
191 608 911
192 760 125
193 727 517
194 295 706
195 679 836
196 73 420
197 637 903
198 297 723
199 55 920
200 676 550
201 933 456
202 812 155
203 326 903
204 846 181
205 116 175
206 344 992
207 28 667
208 439 245
209 891 450
210 224 732
211 156 734
212 390 441
213 663 560
214 115 896
215 655 766
216 210 731
217 42 176
218 505 517
219 923 66
220 490 844
221 342 859
222 210 644
223 313 79
224 399 775
225 79 559
226 876 843
227 631 889
228 182 284
229 471 120
DEMAND_SECTION
2 1
3 1
4 1
5 1
6 1
7 1
8 1
9 1
10 1
11 1
12 1
13 1
14 1
15 1
16 1
17 1
18 1
19 1
20 1
21 1
22 1
23 1
24 1
25 1
26 1
27 1
28 1
29 1
30 1
31 1
32 1
33 1
34 1
35 1
36 1
37 1
38 1
39 1
40 1
41 1
42 1
43 1
44 1
45 1
46 1
47 1
48 1
COVERAGE_SECTION
2 11 142 196 177 127 15 12 160 132 79 153 176 
3 11 73 139 45 144 31 25 63 188 89 157 69 
4 11 191 154 121 197 227 95 58 6 103 35 125 
5 11 156 135 18 64 219 202 192 76 204 180 120 
6 11 58 62 154 4 103 191 220 121 197 206 227 
7 9 70 163 190 90 55 72 158 30 117 
8 11 133 166 145 23 34 211 148 207 137 104 222 
9 11 178 66 99 189 223 116 85 26 24 52 49 
10 11 39 47 29 128 48 170 105 108 205 217 107 
11 11 116 14 26 67 150 208 49 140 162 52 174 
12 11 127 153 196 114 2 142 160 177 146 225 15 
13 11 186 61 124 201 17 97 98 134 147 209 65 
14 11 67 212 11 68 101 150 174 22 116 162 172 
15 9 160 119 196 51 2 60 142 79 83 
16 11 91 193 131 173 109 141 19 129 136 200 152 
17 11 65 97 136 209 37 201 186 61 134 19 124 
18 11 76 219 180 64 5 135 204 169 202 156 120 
19 11 136 81 65 193 20 97 16 17 91 37 173 
20 11 56 165 81 19 97 43 42 147 184 136 65 
21 11 152 141 183 77 109 138 91 131 117 16 102 
22 10 68 161 212 172 83 174 67 182 60 126 
23 11 133 145 74 94 211 148 8 34 207 59 92 
24 11 223 178 229 9 96 168 189 44 52 78 40 
25 11 31 63 89 144 71 69 73 139 123 215 143 
26 11 85 99 11 150 228 116 79 132 9 179 66 
27 11 84 221 198 88 224 86 203 159 194 106 210 
28 11 143 188 69 53 71 220 103 139 87 125 215 
29 11 39 108 10 47 105 170 128 48 217 205 44 
30 9 117 163 7 164 70 82 138 90 190 
31 11 89 25 144 63 73 123 71 139 69 3 45 
32 11 151 54 214 110 113 199 118 46 86 111 92 
33 11 130 134 149 201 209 77 124 37 122 141 17 
34 11 148 216 211 210 159 133 222 8 23 166 74 
35 11 195 50 125 95 227 197 87 121 191 53 215 
36 11 207 171 146 145 114 8 225 133 23 137 153 
37 11 209 65 17 136 201 77 141 134 97 33 124 
38 11 93 167 226 115 80 100 112 181 42 43 50 
39 11 10 29 47 128 48 170 105 108 217 205 107 
40 11 78 96 55 229 190 24 70 158 90 57 72 
41 11 218 129 45 173 213 101 200 82 126 131 73 
42 11 165 181 184 43 56 20 147 81 226 98 97 
43 11 56 42 147 181 165 20 98 184 97 61 186 
44 11 168 170 107 48 128 66 47 178 223 10 39 
45 11 73 3 144 218 31 41 126 139 89 25 213 
46 11 199 110 175 214 54 59 118 111 92 113 94 
47 11 128 48 10 39 205 29 107 170 217 105 185 
48 11 128 47 205 107 10 39 185 217 170 44 29 
49 11 52 140 208 189 116 162 11 158 229 9 90 
50 11 195 35 125 95 87 227 112 197 215 53 121 
51 8 119 182 60 160 15 104 137 83 
52 11 49 140 208 189 116 162 158 229 11 9 90 
53 11 87 215 71 125 143 69 28 63 195 35 188 
54 11 214 118 46 110 199 111 113 59 92 32 175 
55 11 70 190 90 7 158 163 229 78 72 96 40 
56 11 43 20 147 165 42 97 181 184 98 61 81 
57 9 187 156 72 192 5 190 70 135 55 
58 11 6 154 62 4 103 191 220 121 197 227 206 
59 11 111 92 118 94 214 74 46 54 113 199 23 
60 9 83 182 51 172 174 119 15 150 22 
61 11 186 13 98 147 97 17 124 201 56 65 134 
62 11 6 58 220 103 206 203 106 221 224 4 27 
63 11 25 71 31 69 89 144 143 215 139 53 73 
64 11 219 180 169 18 76 5 156 135 202 204 192 
65 11 136 17 97 37 209 19 201 141 186 134 20 
66 11 99 9 107 85 178 44 26 205 228 48 223 
67 11 14 212 68 11 174 22 150 172 101 83 126 
68 11 212 22 67 14 126 161 172 174 83 101 150 
69 11 143 71 53 63 28 188 139 215 87 25 125 
70 9 190 7 163 55 72 90 158 30 187 
71 11 69 53 63 143 215 87 25 28 188 125 139 
72 9 190 70 187 7 192 55 57 163 164 
73 11 3 144 45 31 139 25 89 63 69 123 71 
74 11 94 23 59 92 145 211 111 133 148 118 34 
75 11 217 185 105 176 205 47 128 48 10 39 29 
76 11 18 219 180 64 5 135 169 204 202 122 102 
77 11 141 152 37 21 209 33 134 201 183 130 65 
78 11 40 96 55 229 190 70 158 90 24 7 72 
79 11 132 228 179 150 85 26 174 15 83 172 60 
80 11 112 100 226 167 93 50 38 195 35 181 95 
81 11 19 20 193 123 165 200 213 184 129 56 136 
82 11 101 30 162 109 41 131 117 163 14 218 208 
83 10 172 174 60 150 182 22 51 68 79 119 
84 11 198 27 159 194 210 216 88 221 224 86 34 
85 11 26 99 228 179 132 66 79 9 150 11 116 
86 11 113 203 27 221 151 118 84 92 111 214 159 
87 11 53 215 125 71 195 69 143 35 50 63 28 
88 11 224 157 106 27 198 84 194 221 159 220 210 
89 11 31 25 144 123 63 73 71 213 69 139 200 
90 11 158 163 7 55 70 190 229 140 162 30 52 
91 11 16 131 109 193 141 173 152 21 19 129 136 
92 11 111 59 118 94 113 214 74 54 46 23 211 
93 11 167 38 80 226 100 112 115 181 50 95 35 
94 11 74 23 59 92 111 211 145 148 133 118 214 
95 11 197 121 227 35 191 50 195 4 125 112 154 
96 11 78 40 229 55 24 158 90 70 190 189 163 
97 11 17 65 136 186 61 20 19 147 56 209 13 
98 11 147 61 186 43 13 56 97 181 42 17 20 
99 11 85 66 26 9 228 179 107 132 116 178 79 
100 11 112 80 167 93 95 50 121 35 226 195 197 
101 11 14 82 212 218 67 41 68 126 162 11 22 
102 9 204 183 138 120 202 164 135 192 21 
103 11 220 28 62 191 188 4 106 58 143 227 6 
104 8 137 225 166 119 160 51 171 8 
105 11 217 75 39 10 29 47 108 128 48 185 205 
106 11 224 88 220 221 27 103 62 203 157 188 84 
107 11 205 48 128 66 47 44 185 10 39 99 170 
108 11 29 39 10 105 170 47 128 48 217 75 205 
109 11 131 91 16 152 21 173 141 117 193 82 129 
110 11 199 46 54 175 214 118 59 111 32 92 113 
111 11 92 59 118 214 113 94 54 46 74 199 110 
112 11 100 80 50 95 35 195 167 226 93 121 197 
113 11 118 92 111 214 86 54 59 46 94 151 74 
114 10 146 153 171 225 12 36 137 104 160 207 
115 11 226 38 181 43 98 167 93 42 80 147 56 
116 11 49 11 208 52 140 189 162 26 9 14 99 
117 9 30 164 138 21 183 109 7 163 120 
118 11 111 214 92 113 59 54 46 94 199 110 74 
119 8 51 160 15 104 137 60 182 225 
120 9 202 164 138 102 204 135 192 183 5 
121 11 197 95 191 227 4 154 35 195 50 125 100 
122 11 149 130 33 76 18 204 102 180 219 183 135 
123 11 89 213 200 31 144 25 129 81 63 193 173 
124 11 201 134 13 186 61 209 17 33 37 97 65 
125 11 87 195 35 53 215 50 227 197 71 143 95 
126 11 218 68 161 212 22 45 101 41 3 67 14 
127 11 12 196 142 2 177 153 160 15 114 225 119 
128 11 48 47 205 10 107 39 170 185 217 29 44 
129 11 200 213 173 193 123 41 16 91 131 81 89 
130 11 33 149 122 134 77 201 209 37 183 102 124 
131 11 109 91 16 173 193 152 21 129 141 200 82 
132 11 179 228 79 85 176 26 2 142 177 99 15 
133 11 23 8 145 211 148 34 74 94 166 207 216 
134 11 201 209 124 33 37 17 13 65 77 130 186 
135 9 202 204 120 192 5 18 102 76 156 
136 11 65 17 19 97 37 209 141 20 16 201 193 
137 9 104 225 166 119 171 160 51 8 146 
138 9 164 183 102 120 117 202 204 21 135 
139 11 188 3 69 73 143 63 144 25 71 28 31 
140 11 208 49 52 189 162 116 158 11 229 90 9 
141 11 77 152 37 21 91 16 209 136 65 131 109 
142 11 2 177 196 127 12 15 132 176 160 179 79 
143 11 69 28 71 188 53 63 87 139 215 125 25 
144 11 31 73 25 89 63 3 139 45 123 71 69 
145 11 23 133 207 8 74 94 211 36 148 34 166 
146 10 114 171 225 153 36 207 137 104 12 160 
147 11 56 98 43 61 186 97 20 42 13 165 17 
148 11 211 34 216 133 210 23 159 74 94 8 145 
149 11 130 122 33 102 183 77 204 134 76 21 138 
150 11 174 172 83 79 26 67 11 60 14 85 22 
151 11 32 86 206 113 203 54 214 118 221 110 111 
152 11 21 141 77 183 91 109 131 16 37 138 209 
153 10 114 12 146 225 171 160 127 196 137 104 
154 11 4 121 191 58 197 6 227 95 103 35 125 
155 6 161 194 222 198 182 22 
156 11 5 187 57 192 135 64 202 18 219 76 72 
157 11 88 224 3 194 198 106 139 155 188 84 27 
158 11 90 163 55 229 7 70 140 52 190 208 49 
159 11 210 216 84 34 198 194 148 211 27 222 133 
160 9 119 15 51 196 104 225 137 153 2 
161 7 22 155 68 126 182 212 83 
162 11 208 140 49 52 116 189 158 11 82 90 14 
163 10 7 90 70 158 190 55 30 72 117 229 
164 9 138 120 117 102 183 202 192 30 204 
165 11 42 184 20 56 43 181 81 147 19 97 123 
166 6 222 8 137 104 34 133 
167 11 93 38 80 226 100 112 115 181 50 95 35 
168 11 44 223 178 170 24 66 107 9 48 128 47 
169 11 180 64 219 18 76 5 156 135 204 202 122 
170 11 44 10 39 47 29 128 48 168 108 107 205 
171 10 146 225 114 36 153 137 207 104 8 160 
172 10 174 83 150 60 22 182 67 68 212 51 
173 11 129 193 200 213 16 91 131 109 41 123 19 
174 11 172 150 83 60 22 67 79 212 68 182 14 
175 11 199 46 110 54 214 59 111 118 92 94 74 
176 11 185 205 217 75 179 177 228 132 142 107 48 
177 11 142 2 127 196 176 12 132 15 179 79 228 
178 11 223 9 24 66 168 44 99 189 107 229 52 
179 11 228 132 79 85 176 99 26 185 205 177 107 
180 11 219 169 64 76 18 5 135 156 204 202 122 
181 11 42 43 165 184 56 226 147 20 115 80 98 
182 6 60 51 83 119 172 22 
183 10 138 102 21 164 152 120 204 77 117 202 
184 11 165 42 181 20 43 56 81 123 215 89 147 
185 11 205 176 217 75 48 128 107 47 105 179 10 
186 11 61 13 97 17 124 147 98 201 65 134 209 
187 9 57 72 156 192 190 5 70 135 202 
188 11 28 143 69 139 71 53 220 63 103 3 25 
189 11 52 49 140 208 116 9 229 162 158 24 178 
190 9 70 7 72 55 163 90 158 187 192 
191 11 4 197 227 121 95 154 35 125 195 103 50 
192 9 202 135 120 72 5 187 164 156 204 
193 11 173 16 200 129 19 91 213 81 131 136 123 
194 10 198 84 159 210 155 216 88 27 222 34 
195 11 35 50 125 87 95 227 215 53 197 121 191 
196 11 2 142 127 177 12 15 160 153 119 114 225 
197 11 227 191 95 121 4 35 195 125 50 154 87 
198 11 194 84 159 210 27 88 216 155 224 34 222 
199 11 110 46 175 54 214 118 59 111 92 32 113 
200 11 213 129 173 193 123 81 16 89 41 19 91 
201 11 134 209 124 37 17 33 65 13 186 97 136 
202 9 135 120 204 192 102 5 138 164 18 
203 11 221 86 206 27 62 106 151 84 224 113 88 
204 11 202 135 102 120 138 18 76 192 183 164 5 
205 11 48 107 185 128 47 217 176 10 39 75 66 
206 11 203 62 151 221 86 6 58 106 32 27 220 
207 11 36 145 171 8 133 146 23 225 114 74 137 
208 11 140 49 52 162 116 189 11 158 229 90 14 
209 11 37 201 134 17 65 136 77 141 124 97 33 
210 11 216 159 34 148 211 84 198 194 222 133 27 
211 11 148 34 133 216 23 210 74 94 159 8 145 
212 11 68 67 14 22 101 126 172 174 161 150 83 
213 11 200 129 123 173 193 89 81 31 41 144 16 
214 11 54 118 46 111 59 92 113 110 199 175 32 
215 11 87 53 71 125 69 63 143 195 25 50 35 
216 11 210 159 34 148 211 84 198 222 194 133 23 
217 11 75 185 105 205 47 128 48 176 10 39 107 
218 11 126 41 45 101 73 68 3 212 129 144 161 
219 11 64 180 18 76 169 5 135 156 204 202 192 
220 11 103 106 28 188 62 224 143 58 69 191 4 
221 11 203 27 106 86 224 84 88 62 206 198 220 
222 7 166 34 216 210 155 8 148 
223 11 178 24 168 9 44 66 189 99 229 107 170 
224 11 88 106 157 27 221 84 198 220 194 188 103 
225 10 171 137 104 146 114 153 160 119 166 8 
226 11 80 167 93 38 181 115 112 100 42 43 184 
227 11 197 191 95 121 35 4 125 195 50 87 154 
228 11 179 132 79 85 99 26 176 66 107 185 205 
229 11 96 158 189 55 90 52 78 24 49 140 40 
DEPOT_SECTION
   1
   -1
EOF
