NAME :  X-n219-kX-w43-c11.cctp
COMMENT : 	Adapted by Maziero, Usberti and Cavellucci from the Uchoa, Pecin, Pessoa, Poggi, Subramanian, and Vidal (2013)
TYPE :  CCTP
DIMENSION :    206
EDGE_WEIGHT_TYPE : 	EUC_2D	
CAPACITY : 	3
VERTICES_WITHIN_COVERAGE :  11
VERTICES_WITH_DEMAND : 	43
NODE_COORD_SECTION
1 0 0
2 18 761
3 835 397
4 299 16
5 31 168
6 142 257
7 242 984
8 612 357
9 663 812
10 105 188
11 487 636
12 993 703
13 672 148
14 506 259
15 953 706
16 888 203
17 107 534
18 772 692
19 475 182
20 828 775
21 719 220
22 655 722
23 844 197
24 918 600
25 460 844
26 739 102
27 301 523
28 341 627
29 989 936
30 935 602
31 44 72
32 861 67
33 163 416
34 981 503
35 722 397
36 317 903
37 547 95
38 944 106
39 935 192
40 128 376
41 908 176
42 720 226
43 738 793
44 791 498
45 712 751
46 530 693
47 380 544
48 634 301
49 427 853
50 47 557
51 48 202
52 791 67
53 546 876
54 526 842
55 535 216
56 828 214
57 829 352
58 623 473
59 374 1000
60 74 187
61 275 415
62 726 789
63 51 597
64 894 395
65 159 743
66 301 893
67 755 946
68 978 261
69 709 153
70 391 153
71 876 370
72 846 725
73 604 107
74 117 709
75 507 89
76 348 744
77 476 204
78 181 957
79 948 710
80 158 788
81 414 685
82 358 66
83 456 931
84 5 468
85 459 43
86 555 414
87 94 964
88 558 360
89 641 424
90 132 16
91 777 947
92 25 205
93 852 45
94 5 686
95 400 682
96 501 234
97 905 968
98 492 971
99 817 114
100 651 941
101 817 643
102 735 937
103 333 829
104 223 584
105 306 412
106 206 549
107 542 691
108 296 10
109 148 641
110 9 553
111 411 59
112 382 800
113 824 612
114 608 727
115 481 574
116 169 950
117 350 608
118 396 536
119 36 459
120 798 917
121 10 569
122 813 10
123 569 627
124 692 467
125 166 178
126 247 413
127 738 487
128 508 327
129 158 986
130 983 244
131 637 109
132 177 207
133 361 972
134 365 701
135 932 452
136 847 981
137 60 66
138 252 267
139 944 435
140 338 688
141 900 168
142 583 871
143 852 59
144 921 72
145 845 534
146 387 253
147 812 354
148 5 404
149 590 575
150 930 128
151 832 466
152 548 976
153 32 531
154 966 58
155 31 40
156 162 539
157 621 425
158 802 495
159 385 493
160 769 329
161 921 15
162 64 106
163 854 678
164 943 122
165 103 285
166 304 739
167 398 212
168 335 459
169 43 108
170 400 255
171 935 851
172 179 147
173 822 749
174 60 32
175 829 992
176 783 760
177 218 360
178 321 463
179 403 172
180 32 134
181 218 490
182 44 456
183 430 570
184 896 875
185 509 572
186 424 936
187 639 505
188 914 852
189 984 435
190 479 341
191 207 937
192 709 700
193 557 130
194 270 964
195 482 320
196 60 761
197 836 272
198 413 327
199 509 379
200 961 329
201 819 754
202 176 910
203 648 809
204 640 892
205 838 79
206 552 232
DEMAND_SECTION
2 1
3 1
4 1
5 1
6 1
7 1
8 1
9 1
10 1
11 1
12 1
13 1
14 1
15 1
16 1
17 1
18 1
19 1
20 1
21 1
22 1
23 1
24 1
25 1
26 1
27 1
28 1
29 1
30 1
31 1
32 1
33 1
34 1
35 1
36 1
37 1
38 1
39 1
40 1
41 1
42 1
43 1
44 1
COVERAGE_SECTION
2 8 196 94 74 65 80 63 109 121 
3 11 57 71 147 64 151 160 158 44 135 35 139 
4 11 108 82 111 85 70 90 172 179 125 75 167 
5 11 180 92 51 60 169 162 10 31 137 155 125 
6 11 165 132 10 125 60 51 138 172 40 92 177 
7 11 194 191 78 116 129 202 66 36 133 59 87 
8 11 88 48 157 89 86 199 128 35 58 190 195 
9 11 203 62 43 45 204 22 142 114 192 100 176 
10 11 60 51 125 132 5 6 92 172 180 162 165 
11 11 115 185 46 107 123 183 81 95 149 118 134 
12 11 15 79 30 24 163 72 171 188 173 20 201 
13 11 69 131 73 26 21 42 193 37 52 206 99 
14 11 96 55 206 77 195 128 19 190 170 88 198 
15 11 79 12 163 30 72 24 173 201 20 171 101 
16 11 41 141 23 39 56 150 197 164 130 68 38 
17 11 156 50 153 63 106 110 182 119 121 109 181 
18 11 192 101 176 173 201 72 163 45 113 20 43 
19 11 77 96 55 179 14 167 70 206 193 75 170 
20 11 201 173 176 72 43 18 163 62 188 45 184 
21 11 42 69 13 56 48 26 160 23 197 131 99 
22 11 114 192 45 203 9 62 43 107 18 46 123 
23 11 56 16 141 41 197 99 39 150 205 164 21 
24 11 30 113 145 163 101 15 79 34 12 72 135 
25 11 49 54 83 112 53 186 142 103 98 76 36 
26 11 69 52 99 13 131 205 122 21 143 42 32 
27 11 178 168 47 159 181 118 106 117 104 28 61 
28 11 117 140 134 95 47 81 118 183 27 76 166 
29 11 97 171 184 188 136 175 120 91 20 79 12 
30 11 24 15 34 79 113 163 145 12 101 135 72 
31 11 137 155 169 162 174 180 5 90 60 51 10 
32 11 143 93 205 144 99 52 122 161 38 150 164 
33 10 40 177 126 181 61 156 182 17 119 106 
34 11 189 135 139 30 24 64 145 151 71 200 158 
35 11 124 160 89 127 147 157 3 57 8 44 58 
36 10 66 103 194 133 7 186 59 191 49 112 
37 11 193 75 73 131 85 19 55 77 13 206 111 
38 11 164 150 144 154 141 41 39 32 161 143 205 
39 11 41 141 16 150 164 130 68 38 23 56 144 
40 11 33 177 165 182 6 119 126 148 181 61 84 
41 11 141 39 16 150 164 23 38 56 130 144 68 
42 11 21 69 13 56 48 160 26 197 23 131 99 
43 11 62 45 176 9 201 203 20 173 192 18 22 
44 11 158 151 127 145 124 3 113 35 64 147 101 
45 11 62 43 192 22 176 9 18 203 114 201 173 
46 11 107 11 123 114 81 185 22 115 95 149 54 
47 11 118 159 183 117 27 28 168 178 115 185 95 
48 11 8 88 206 42 21 89 157 128 35 55 14 
49 11 25 112 83 186 103 54 36 53 66 76 98 
50 11 153 110 121 63 17 84 119 182 156 109 94 
51 11 92 60 5 10 180 169 162 165 6 125 132 
52 11 205 99 122 143 26 93 32 69 144 23 161 
53 9 142 54 25 204 152 83 98 49 203 
54 9 53 142 25 49 83 204 203 98 152 
55 11 206 96 14 77 19 193 128 195 37 73 48 
56 11 23 197 16 141 41 99 21 39 42 160 150 
57 11 147 3 71 160 64 197 151 35 200 56 139 
58 11 187 157 89 124 86 149 127 8 35 88 199 
59 11 133 186 83 194 36 98 66 7 49 103 152 
60 11 51 10 5 92 180 162 169 125 6 165 132 
61 8 126 105 178 168 177 181 27 33 
62 11 43 45 176 9 203 192 22 201 20 173 18 
63 10 50 121 110 153 17 94 109 156 74 84 
64 11 71 3 139 135 57 147 151 200 189 158 197 
65 5 80 74 196 109 2 
66 10 36 103 194 133 191 7 112 202 59 186 
67 9 91 102 120 175 136 100 204 97 43 
68 11 130 200 39 16 41 141 150 197 164 23 71 
69 11 13 26 21 42 131 73 99 52 56 23 205 
70 11 179 167 19 82 111 77 146 170 85 75 96 
71 11 64 3 57 147 139 200 135 151 197 160 189 
72 11 173 201 163 20 176 18 101 79 15 113 43 
73 11 131 193 37 13 75 69 55 26 206 19 85 
74 6 65 109 196 80 2 94 
75 11 37 193 85 19 73 111 77 55 70 131 179 
76 9 166 134 140 112 95 103 81 28 49 
77 11 19 96 55 14 167 179 206 170 70 146 193 
78 10 116 191 129 202 7 87 194 66 36 80 
79 11 15 12 163 72 30 24 173 20 201 171 188 
80 5 65 74 196 202 2 
81 11 95 134 140 11 76 28 117 46 183 112 166 
82 11 111 4 108 70 85 179 75 167 19 77 146 
83 10 186 98 49 25 152 133 53 59 54 142 
84 11 119 182 148 153 110 50 121 17 63 40 33 
85 11 111 75 37 82 70 193 19 179 73 4 77 
86 11 88 199 157 8 89 58 128 190 195 187 48 
87 11 129 116 78 202 191 7 194 80 196 2 66 
88 11 199 8 86 128 190 195 157 48 89 14 206 
89 11 157 58 124 8 187 35 86 88 127 48 199 
90 11 174 137 31 155 162 169 172 180 108 125 4 
91 10 67 120 102 175 136 100 97 184 204 43 
92 11 51 5 60 180 10 169 162 165 6 31 137 
93 11 143 32 205 122 52 144 161 99 38 150 154 
94 10 2 196 63 74 121 110 50 109 153 65 
95 11 81 134 140 28 76 117 11 166 183 112 46 
96 11 14 55 77 206 19 195 128 170 167 190 146 
97 10 136 175 29 184 188 120 171 91 67 102 
98 9 83 152 186 53 59 25 133 54 49 
99 11 205 52 32 143 93 26 23 141 56 122 41 
100 8 204 102 142 67 152 53 91 9 
101 11 113 163 18 72 173 24 201 145 176 192 30 
102 9 67 91 120 100 204 175 136 9 43 
103 10 112 66 36 76 166 49 25 134 186 140 
104 8 106 156 109 181 27 17 28 117 
105 7 61 178 168 126 177 27 159 
106 9 104 156 181 27 17 109 33 126 178 
107 11 46 123 114 11 22 185 149 81 115 95 54 
108 11 4 82 111 90 85 70 172 179 125 75 167 
109 7 74 104 65 156 63 106 17 
110 11 121 153 50 63 84 119 17 182 94 148 156 
111 11 85 82 70 75 179 4 108 19 37 167 77 
112 11 103 76 49 25 166 134 81 95 140 36 66 
113 11 101 163 145 18 24 30 72 44 158 173 201 
114 11 22 107 46 203 9 192 45 123 62 54 43 
115 11 185 183 11 118 123 47 149 159 46 81 107 
116 10 78 129 191 202 87 7 194 66 36 80 
117 11 28 47 140 118 95 183 134 27 81 159 104 
118 11 47 159 183 117 115 27 168 178 28 185 11 
119 11 182 84 148 153 110 50 17 121 40 33 63 
120 10 91 67 102 136 175 184 97 188 43 20 
121 11 110 50 153 63 84 17 119 94 182 156 109 
122 11 93 52 143 205 32 99 161 26 144 154 38 
123 11 149 107 46 185 11 115 114 22 187 183 192 
124 11 127 187 89 58 35 157 44 158 8 151 86 
125 11 132 172 10 6 60 51 138 165 162 5 180 
126 8 61 105 177 181 33 178 168 27 
127 11 124 44 158 35 151 187 58 89 145 3 157 
128 11 195 190 199 88 14 96 198 86 206 8 55 
129 11 78 116 87 191 202 7 194 66 36 80 133 
130 11 68 39 200 41 16 141 150 164 38 23 197 
131 11 73 13 193 69 37 26 75 21 42 55 206 
132 11 125 172 6 10 138 60 165 51 5 92 162 
133 11 59 186 36 194 66 83 7 98 49 103 191 
134 11 140 95 76 81 166 28 117 112 103 11 183 
135 11 139 189 64 34 71 151 3 145 200 158 57 
136 10 175 97 91 120 67 184 102 188 29 171 
137 11 31 174 155 162 169 180 90 5 60 10 51 
138 8 132 177 6 125 146 172 126 170 
139 11 135 189 64 34 71 200 3 151 145 57 158 
140 9 134 76 28 166 95 81 117 112 103 
141 11 41 16 39 150 23 164 38 56 144 99 32 
142 9 53 204 54 203 100 9 152 25 98 
143 11 32 93 205 52 122 99 144 161 38 150 164 
144 11 38 154 164 150 161 32 143 93 205 141 41 
145 11 158 44 151 113 24 30 101 127 135 3 34 
146 10 170 167 198 179 70 77 19 96 195 14 
147 11 57 3 160 71 197 64 35 151 56 158 44 
148 11 119 84 182 40 153 110 165 33 50 17 121 
149 11 123 185 187 58 115 11 107 46 124 114 157 
150 11 164 38 141 41 144 39 154 16 32 143 205 
151 11 158 44 3 145 64 127 135 71 57 147 139 
152 9 98 53 83 100 142 204 186 54 25 
153 11 50 110 121 63 84 119 17 182 148 156 94 
154 11 144 38 161 164 150 32 143 93 141 205 41 
155 11 174 31 137 169 162 180 90 5 60 51 10 
156 9 106 17 181 104 109 50 33 63 153 
157 11 89 58 86 8 124 187 88 35 199 48 127 
158 11 44 151 145 127 3 124 113 35 64 135 147 
159 10 118 47 168 178 27 183 105 117 115 61 
160 11 147 57 35 197 3 42 71 21 56 48 64 
161 11 144 154 93 32 143 38 205 122 164 150 52 
162 11 169 31 137 180 5 155 174 60 10 51 92 
163 11 72 101 113 173 18 201 79 20 24 15 176 
164 11 150 38 144 141 41 154 39 16 32 161 143 
165 11 6 40 10 51 60 132 92 125 5 177 33 
166 7 76 140 134 103 112 95 28 
167 10 179 146 170 70 77 19 96 198 14 55 
168 9 178 105 159 27 61 47 118 126 181 
169 11 162 180 31 137 5 155 174 60 51 92 10 
170 10 146 167 198 179 77 70 96 19 195 14 
171 11 188 184 29 97 20 79 15 201 120 173 72 
172 11 125 132 10 60 6 162 90 138 169 51 137 
173 11 201 20 72 176 18 163 43 62 101 45 192 
174 11 155 137 31 90 162 169 180 5 60 10 172 
175 10 136 91 97 120 67 102 184 188 29 171 
176 11 201 173 20 43 62 18 45 72 192 163 101 
177 9 126 33 61 40 138 105 6 181 165 
178 9 168 105 27 61 159 126 47 118 181 
179 11 70 167 19 77 146 170 111 82 96 75 14 
180 11 169 5 162 31 60 51 92 137 10 155 174 
181 11 106 156 126 27 33 61 104 178 105 17 168 
182 11 119 84 148 153 17 50 110 40 121 33 63 
183 11 118 115 47 185 11 117 159 28 81 95 27 
184 11 188 171 97 120 29 136 20 175 91 201 173 
185 11 115 11 183 123 149 118 46 107 47 187 159 
186 11 83 133 98 59 49 25 36 66 152 53 54 
187 11 58 124 89 157 149 127 86 35 123 185 8 
188 11 171 184 29 20 97 120 201 173 72 136 79 
189 11 139 135 34 64 200 71 3 151 145 30 68 
190 9 195 128 199 198 88 14 86 96 170 
191 10 78 116 202 7 129 194 66 36 87 80 
192 11 45 22 18 62 176 43 114 9 101 173 201 
193 11 37 73 75 131 55 19 206 77 13 96 85 
194 11 7 191 36 66 78 133 116 202 59 129 103 
195 11 190 128 199 14 198 88 96 170 206 77 146 
196 7 2 74 94 65 80 109 63 
197 11 56 23 57 147 16 160 71 41 141 3 42 
198 9 190 195 170 146 128 199 14 167 96 
199 11 190 128 88 86 195 8 198 14 157 89 96 
200 11 68 130 64 71 139 189 135 57 197 39 3 
201 11 173 20 176 72 18 163 43 62 45 101 192 
202 10 116 191 78 129 87 7 194 80 66 36 
203 11 9 62 204 45 22 142 43 114 53 192 54 
204 8 100 142 9 203 53 102 54 152 
205 11 143 32 93 99 52 122 144 26 150 161 141 
206 11 55 96 14 77 19 193 128 48 195 88 190 
DEPOT_SECTION
   1
   -1
EOF
