NAME :  X-n284-kX-w28-c11.cctp
COMMENT : 	Adapted by Maziero, Usberti and Cavellucci from the Uchoa, Pecin, Pessoa, Poggi, Subramanian, and Vidal (2013)
TYPE :  CCTP
DIMENSION :    231
EDGE_WEIGHT_TYPE : 	EUC_2D	
CAPACITY : 	109
VERTICES_WITHIN_COVERAGE :  11
VERTICES_WITH_DEMAND : 	28
NODE_COORD_SECTION
1 674 825
2 549 534
3 43 315
4 542 420
5 45 580
6 180 450
7 369 618
8 287 721
9 36 426
10 411 408
11 170 446
12 21 333
13 37 428
14 617 456
15 52 527
16 114 227
17 32 303
18 233 638
19 314 568
20 290 736
21 549 449
22 317 699
23 676 992
24 45 851
25 455 508
26 128 446
27 34 302
28 152 660
29 550 576
30 559 585
31 306 655
32 183 449
33 380 586
34 21 277
35 306 679
36 347 595
37 324 384
38 103 480
39 197 495
40 20 321
41 66 402
42 100 638
43 120 514
44 691 499
45 350 574
46 198 437
47 370 722
48 513 438
49 273 645
50 6 508
51 44 581
52 309 763
53 18 616
54 128 603
55 543 466
56 687 466
57 625 525
58 54 449
59 504 517
60 49 401
61 638 459
62 329 614
63 657 416
64 1 296
65 217 443
66 42 721
67 1 416
68 157 731
69 244 727
70 548 588
71 559 438
72 425 920
73 459 433
74 9 408
75 364 507
76 55 295
77 357 711
78 168 292
79 31 407
80 544 414
81 285 801
82 439 387
83 66 345
84 347 636
85 353 713
86 686 492
87 192 450
88 535 479
89 428 346
90 18 359
91 364 653
92 293 515
93 532 411
94 225 722
95 259 227
96 19 558
97 368 573
98 382 645
99 596 630
100 27 367
101 186 460
102 116 629
103 177 576
104 89 544
105 574 623
106 166 458
107 541 481
108 255 545
109 38 273
110 264 757
111 59 278
112 351 298
113 26 447
114 334 620
115 21 527
116 547 547
117 54 551
118 530 414
119 53 441
120 103 273
121 141 256
122 502 494
123 324 558
124 121 518
125 262 511
126 592 418
127 307 581
128 344 619
129 140 436
130 603 511
131 155 633
132 83 545
133 389 638
134 231 732
135 36 435
136 499 331
137 50 491
138 487 555
139 314 840
140 589 589
141 199 463
142 683 488
143 55 501
144 30 368
145 308 729
146 97 678
147 69 439
148 96 618
149 39 321
150 47 409
151 541 489
152 51 527
153 428 484
154 279 744
155 39 640
156 70 417
157 320 800
158 88 326
159 5 405
160 9 520
161 26 200
162 432 556
163 405 541
164 501 579
165 479 427
166 27 571
167 602 440
168 398 657
169 176 482
170 517 509
171 184 464
172 350 606
173 45 407
174 52 465
175 612 434
176 318 979
177 226 642
178 544 431
179 607 574
180 130 767
181 204 742
182 518 464
183 104 463
184 584 495
185 183 642
186 528 588
187 37 256
188 113 395
189 189 421
190 537 541
191 554 484
192 395 514
193 31 647
194 636 432
195 337 505
196 396 435
197 603 501
198 173 629
199 575 395
200 309 604
201 371 795
202 29 521
203 375 623
204 525 449
205 482 542
206 589 420
207 86 340
208 22 705
209 343 673
210 45 558
211 528 389
212 299 678
213 486 326
214 414 536
215 56 354
216 13 456
217 615 505
218 155 392
219 17 342
220 505 333
221 289 541
222 140 498
223 534 468
224 112 456
225 604 604
226 304 614
227 228 659
228 339 622
229 513 411
230 728 457
231 379 594
DEMAND_SECTION
2 7
3 3
4 3
5 5
6 4
7 8
8 1
9 2
10 9
11 5
12 2
13 2
14 4
15 1
16 3
17 4
18 10
19 2
20 2
21 3
22 9
23 2
24 1
25 6
26 8
27 9
28 7
29 8
COVERAGE_SECTION
2 10 116 190 170 29 151 59 191 30 184 70 
3 11 149 17 27 76 40 12 219 83 111 215 109 
4 11 80 178 93 118 71 21 229 48 204 211 199 
5 11 51 166 210 117 96 53 132 15 152 104 115 
6 11 32 11 87 101 171 106 46 141 189 169 65 
7 11 203 172 128 231 84 133 98 228 36 33 91 
8 11 20 145 154 22 69 110 212 35 52 134 94 
9 11 13 135 79 150 173 113 119 60 58 74 147 
10 9 196 82 73 89 165 153 37 229 48 
11 11 6 32 106 101 87 171 46 189 129 141 169 
12 11 219 40 149 90 3 17 27 100 144 215 64 
13 11 9 135 119 150 79 113 173 58 60 74 147 
14 11 61 167 175 194 126 206 197 217 184 63 130 
15 11 152 117 202 143 115 210 132 137 104 160 96 
16 8 121 120 111 187 78 109 76 161 
17 11 27 3 149 40 76 34 109 12 64 111 219 
18 11 177 227 49 185 198 31 226 212 131 200 28 
19 11 123 127 45 200 221 36 226 62 172 97 114 
20 11 154 8 145 52 110 22 69 35 134 212 81 
21 11 71 55 178 204 223 4 88 107 182 80 191 
22 11 35 212 145 8 209 85 77 31 20 47 154 
23 8 72 176 201 99 105 139 225 157 
24 11 180 66 208 68 146 181 193 155 28 42 94 
25 10 153 205 122 59 214 162 138 163 192 170 
26 9 129 224 183 106 11 38 6 188 222 
27 11 17 3 149 76 40 34 109 12 64 111 219 
28 11 131 185 198 102 42 146 54 148 68 177 227 
29 11 70 30 186 116 190 140 2 164 105 179 225 
30 11 70 29 140 186 116 105 179 190 225 2 99 
31 11 35 212 49 209 226 22 84 114 62 228 200 
32 11 6 87 101 11 171 46 106 141 189 169 65 
33 9 231 97 45 7 36 172 203 128 163 
34 11 109 187 17 27 64 76 111 3 40 149 12 
35 11 212 22 31 209 8 49 145 85 20 84 77 
36 11 172 45 128 62 114 228 97 7 231 33 200 
37 3 196 10 112 
38 8 183 224 43 222 26 124 143 147 
39 11 169 141 171 101 87 6 32 106 11 65 222 
40 11 12 149 219 17 3 27 64 90 34 76 100 
41 8 156 60 150 173 79 147 9 13 
42 11 102 148 146 54 131 28 155 193 198 5 51 
43 10 124 222 38 104 132 183 224 169 143 26 
44 9 86 142 56 230 61 57 217 14 194 
45 11 97 36 123 33 172 231 19 127 62 128 7 
46 10 87 189 32 65 6 101 141 11 171 106 
47 11 77 85 209 22 145 91 168 52 201 35 98 
48 10 204 182 229 118 178 93 4 165 223 21 
49 11 31 18 212 226 35 177 227 200 62 114 22 
50 10 160 115 202 137 143 152 15 96 216 174 
51 11 5 166 210 117 96 53 132 152 15 104 115 
52 11 20 145 154 157 81 110 8 22 85 201 77 
53 11 155 193 51 5 166 96 210 117 148 42 115 
54 11 102 148 131 42 198 103 28 185 104 132 146 
55 9 223 88 107 21 191 151 182 204 71 
56 8 142 86 44 230 61 63 194 14 
57 10 217 130 197 184 179 61 14 86 142 44 
58 9 119 174 147 135 13 113 9 156 150 
59 9 170 122 205 190 138 151 2 88 25 
60 9 173 150 41 79 156 9 13 135 144 
61 11 14 194 175 167 63 56 217 142 197 86 126 
62 11 114 228 128 172 200 226 36 84 7 127 45 
63 8 194 61 175 14 56 167 126 206 
64 11 34 40 17 27 12 109 149 3 219 76 187 
65 8 46 87 141 32 101 189 6 171 
66 11 208 146 193 155 180 42 53 68 148 102 28 
67 11 74 159 79 9 13 113 135 216 173 150 60 
68 11 180 181 94 28 134 146 69 185 131 227 198 
69 11 134 94 110 154 8 181 20 145 227 52 212 
70 11 30 29 186 116 140 105 164 190 2 225 179 
71 11 21 178 4 80 55 206 204 93 118 126 223 
72 11 176 201 139 157 81 52 47 85 77 145 20 
73 10 165 82 10 48 229 153 196 182 204 118 
74 11 159 67 79 9 13 173 135 150 60 113 100 
75 10 195 192 163 214 123 97 45 153 92 19 
76 11 111 27 3 17 109 149 34 187 40 158 12 
77 11 85 47 209 22 145 91 35 212 168 8 52 
78 4 121 120 16 158 
79 11 173 150 60 9 13 74 159 135 67 41 144 
80 11 4 93 118 178 71 211 229 21 199 48 204 
81 11 157 52 110 139 154 20 145 8 69 201 134 
82 11 10 89 73 165 196 213 229 136 220 211 48 
83 8 215 207 158 149 3 144 100 12 
84 11 228 128 114 91 7 62 172 203 98 209 36 
85 11 77 47 22 209 145 35 91 212 8 20 52 
86 9 142 44 56 230 61 57 217 14 194 
87 11 32 6 101 46 141 171 11 65 106 189 169 
88 9 107 223 151 55 191 182 204 21 170 
89 11 82 213 10 136 220 112 73 196 165 229 211 
90 10 100 144 219 12 40 215 149 159 74 79 
91 11 98 84 133 209 203 168 7 128 228 114 172 
92 8 221 125 195 108 123 19 127 75 
93 11 118 80 4 229 211 178 48 71 204 21 199 
94 11 134 69 181 110 154 8 227 20 68 177 145 
95 4 78 112 121 16 
96 11 166 210 115 5 51 117 202 160 15 152 50 
97 10 33 45 231 36 172 7 123 163 203 128 
98 11 133 91 168 203 7 84 128 209 228 172 231 
99 10 105 225 140 179 30 70 29 186 116 2 
100 10 144 90 219 215 12 60 79 159 173 74 
101 11 171 32 6 87 141 106 11 169 46 65 39 
102 11 42 148 54 131 28 146 198 185 155 103 5 
103 11 198 54 131 185 102 124 177 39 18 43 108 
104 11 132 117 15 124 152 43 210 143 5 51 202 
105 10 99 225 140 30 70 29 186 179 116 164 
106 11 11 6 32 171 101 169 87 141 129 46 26 
107 9 88 151 191 55 223 182 21 204 170 
108 11 221 125 92 19 127 123 39 200 103 226 195 
109 11 34 187 111 76 27 17 3 64 149 40 12 
110 11 154 20 69 134 8 52 81 94 145 181 157 
111 11 76 109 187 27 17 34 3 120 149 158 40 
112 7 37 89 95 10 82 213 196 
113 10 135 216 13 9 58 119 174 67 79 74 
114 11 228 62 128 84 172 36 200 226 7 203 31 
115 10 202 160 50 152 15 96 210 117 143 166 
116 10 190 2 29 30 70 186 170 59 164 151 
117 11 210 15 152 5 132 51 166 96 104 202 115 
118 11 93 4 80 229 178 211 48 204 71 21 199 
119 9 58 147 135 13 9 174 113 156 150 
120 8 121 111 16 76 158 109 78 187 
121 5 16 120 78 111 158 
122 8 170 59 182 88 151 107 223 25 
123 11 19 127 45 221 36 97 200 92 172 195 62 
124 10 43 222 104 38 132 183 224 169 143 15 
125 9 92 108 221 39 195 19 123 141 65 
126 9 206 167 175 199 71 14 194 80 4 
127 11 19 200 123 226 62 36 45 221 114 172 228 
128 11 228 114 172 62 84 36 7 203 200 91 226 
129 11 26 11 106 224 6 32 183 218 188 189 101 
130 11 197 217 184 57 191 14 2 61 179 151 116 
131 11 198 28 185 102 54 42 103 148 177 146 227 
132 11 104 117 15 152 210 124 43 5 143 51 202 
133 10 98 168 203 7 91 84 231 128 172 228 
134 11 94 69 181 110 154 8 20 227 68 145 52 
135 11 13 9 113 119 58 79 150 173 216 147 174 
136 11 220 213 211 89 229 82 93 118 80 165 4 
137 8 143 174 15 152 202 58 115 50 
138 10 205 164 59 190 186 162 170 25 116 122 
139 11 157 81 201 52 110 154 20 145 8 47 69 
140 11 225 179 30 105 29 70 99 116 186 2 190 
141 11 101 87 171 32 6 46 65 169 39 106 11 
142 9 86 44 56 61 230 57 217 14 194 
143 8 137 15 152 202 174 115 50 117 
144 10 100 90 219 215 12 60 79 173 83 150 
145 11 20 8 22 154 52 85 35 77 110 212 47 
146 11 42 102 28 148 155 66 131 193 68 208 54 
147 9 119 58 156 174 135 13 9 41 150 
148 11 42 102 54 146 131 155 5 51 28 193 104 
149 11 3 17 40 27 12 219 76 83 215 90 64 
150 11 173 60 79 9 41 13 156 135 119 147 74 
151 9 107 88 191 223 55 170 182 122 21 
152 11 15 202 117 143 115 210 137 132 104 160 96 
153 10 25 192 214 196 73 163 75 162 122 165 
154 11 20 110 8 145 52 69 134 81 94 22 157 
155 11 193 53 51 5 42 148 208 146 166 102 66 
156 10 41 147 150 60 173 119 9 13 58 135 
157 11 81 52 139 201 154 20 110 145 8 47 85 
158 6 207 83 215 76 3 149 
159 11 74 67 79 9 13 173 150 135 60 100 144 
160 10 50 115 202 96 152 15 137 143 210 166 
161 11 187 109 34 111 16 64 76 27 17 120 3 
162 7 214 163 205 25 138 192 33 
163 9 214 192 162 97 33 75 231 25 153 
164 9 138 186 205 70 29 190 116 30 59 
165 10 73 48 229 204 118 182 93 82 211 4 
166 11 96 5 51 210 117 115 53 152 202 15 160 
167 10 175 14 126 206 194 61 71 199 21 184 
168 7 98 133 91 203 7 84 209 
169 11 171 101 39 106 141 6 32 11 87 222 46 
170 9 59 122 151 88 107 190 2 223 182 
171 11 101 6 32 141 87 106 169 11 46 39 65 
172 11 36 128 228 114 7 62 84 203 231 45 33 
173 10 150 60 79 9 13 41 156 135 119 74 
174 8 58 119 137 147 113 135 143 13 
175 9 167 14 194 126 206 61 63 71 199 
176 11 72 139 157 81 201 52 110 154 20 145 8 
177 11 18 227 185 49 198 131 28 94 31 212 103 
178 11 4 71 80 21 118 93 204 48 55 229 223 
179 11 140 225 30 57 29 99 105 70 130 116 217 
180 11 68 181 146 66 94 134 28 24 69 208 42 
181 11 94 134 69 68 110 154 180 8 20 227 28 
182 8 223 204 88 55 48 107 21 122 
183 8 224 38 26 147 129 222 58 174 
184 11 197 130 191 217 151 107 55 14 57 2 88 
185 11 198 131 28 177 227 18 103 54 102 42 49 
186 11 70 29 164 30 116 190 138 2 105 140 205 
187 11 109 34 111 76 27 17 64 161 3 149 40 
188 5 218 41 156 129 26 
189 10 46 32 87 6 11 65 101 141 171 106 
190 10 116 2 29 170 59 70 186 30 138 151 
191 9 107 151 88 55 223 184 21 182 170 
192 10 163 214 75 153 162 195 25 97 33 45 
193 11 155 53 208 51 5 42 148 146 66 166 102 
194 9 175 63 61 14 167 126 206 56 199 
195 9 75 92 123 192 221 19 45 97 125 
196 9 10 153 73 82 75 192 165 37 195 
197 11 130 217 184 57 14 191 61 167 2 151 107 
198 11 185 131 28 54 103 177 102 18 227 42 148 
199 8 126 206 80 4 71 93 211 178 
200 11 226 62 127 114 228 19 128 36 172 123 84 
201 11 157 52 47 139 85 77 81 145 20 154 22 
202 10 115 160 152 15 50 143 137 96 117 210 
203 11 7 133 98 231 172 84 128 91 228 33 36 
204 9 48 182 223 21 55 178 88 4 118 
205 10 138 59 164 25 170 122 162 190 116 186 
206 9 126 167 175 199 71 80 14 178 4 
207 5 158 83 215 3 149 
208 11 66 193 155 146 53 42 148 102 180 51 5 
209 11 91 22 35 84 77 31 85 212 98 228 114 
210 11 117 5 166 51 96 15 152 115 132 202 104 
211 11 93 118 229 80 4 178 199 48 71 204 220 
212 11 35 31 22 49 209 8 145 20 84 85 226 
213 11 136 220 89 211 82 229 93 118 165 80 4 
214 8 163 162 192 25 153 75 97 33 
215 8 83 144 100 207 149 90 3 12 
216 10 113 135 13 9 174 58 67 119 74 137 
217 10 130 197 57 184 14 61 191 167 179 142 
218 6 188 189 129 11 26 46 
219 11 12 90 40 100 144 149 3 215 17 27 64 
220 11 136 213 211 89 229 93 82 118 80 199 4 
221 11 92 108 19 123 125 127 195 200 45 226 36 
222 10 43 124 169 38 106 183 224 26 171 39 
223 8 55 88 107 182 204 151 21 191 
224 8 183 26 38 129 147 222 106 156 
225 11 140 99 179 105 30 70 29 186 116 57 2 
226 11 200 62 114 127 228 128 31 49 19 36 172 
227 11 177 18 49 185 94 198 69 134 212 28 131 
228 11 114 128 62 84 172 36 7 200 203 226 91 
229 10 118 93 48 211 4 80 178 165 204 21 
230 8 56 86 142 44 63 61 194 14 
231 9 33 97 7 203 172 36 45 128 133 
DEPOT_SECTION
   1
   -1
EOF
