NAME :  X-n270-kX-w107-c7.cctp
COMMENT : 	Adapted by Maziero, Usberti and Cavellucci from the Uchoa, Pecin, Pessoa, Poggi, Subramanian, and Vidal (2013)
TYPE :  CCTP
DIMENSION :    218
EDGE_WEIGHT_TYPE : 	EUC_2D	
CAPACITY : 	585
VERTICES_WITHIN_COVERAGE :  7
VERTICES_WITH_DEMAND : 	107
NODE_COORD_SECTION
1 500 500
2 643 512
3 707 407
4 394 355
5 140 470
6 364 215
7 493 857
8 117 466
9 462 38
10 551 479
11 742 498
12 533 706
13 788 425
14 799 6
15 836 680
16 88 225
17 164 988
18 537 20
19 612 395
20 314 942
21 342 974
22 518 758
23 860 774
24 313 36
25 275 23
26 324 971
27 822 588
28 272 458
29 620 666
30 868 427
31 694 750
32 953 419
33 236 823
34 887 411
35 124 814
36 193 899
37 687 303
38 447 220
39 716 472
40 415 141
41 738 309
42 445 672
43 524 60
44 112 157
45 859 935
46 104 596
47 556 54
48 362 223
49 723 661
50 474 338
51 274 568
52 315 380
53 704 863
54 936 260
55 93 859
56 703 935
57 381 302
58 695 239
59 880 823
60 335 961
61 37 637
62 288 169
63 455 499
64 599 796
65 155 910
66 80 459
67 93 565
68 959 544
69 926 58
70 762 531
71 22 839
72 459 575
73 737 409
74 854 328
75 921 781
76 221 23
77 685 179
78 202 804
79 422 992
80 945 292
81 66 976
82 487 429
83 614 711
84 407 546
85 883 298
86 709 692
87 535 319
88 965 217
89 336 35
90 703 595
91 677 841
92 51 503
93 334 968
94 628 154
95 488 437
96 680 869
97 987 264
98 474 906
99 866 911
100 940 542
101 106 988
102 558 398
103 661 206
104 500 17
105 710 588
106 23 696
107 181 909
108 107 556
109 516 409
110 345 879
111 684 742
112 86 682
113 447 182
114 825 545
115 880 72
116 840 689
117 129 532
118 89 305
119 434 407
120 348 132
121 390 473
122 598 286
123 464 891
124 671 336
125 762 909
126 136 633
127 40 814
128 445 889
129 318 2
130 688 101
131 387 142
132 480 339
133 884 826
134 207 24
135 557 694
136 740 695
137 897 75
138 731 708
139 699 899
140 768 584
141 671 669
142 818 715
143 500 706
144 73 147
145 862 849
146 539 728
147 139 118
148 931 588
149 850 28
150 891 612
151 709 636
152 628 448
153 277 45
154 588 720
155 712 63
156 804 68
157 536 318
158 189 17
159 838 835
160 890 749
161 998 675
162 862 272
163 551 695
164 692 757
165 735 752
166 468 626
167 734 66
168 936 93
169 941 63
170 717 545
171 929 175
172 719 743
173 224 25
174 709 712
175 467 579
176 550 683
177 264 122
178 749 182
179 234 56
180 868 936
181 494 607
182 412 701
183 614 627
184 883 597
185 233 64
186 598 659
187 813 611
188 868 603
189 555 673
190 743 870
191 600 452
192 619 753
193 850 547
194 600 727
195 63 175
196 789 598
197 753 615
198 803 64
199 835 42
200 591 543
201 576 872
202 530 707
203 187 153
204 627 789
205 787 650
206 194 350
207 857 704
208 487 672
209 511 732
210 872 794
211 143 149
212 910 236
213 963 91
214 747 666
215 712 736
216 302 59
217 680 683
218 648 800
DEMAND_SECTION
2 77
3 91
4 67
5 69
6 68
7 64
8 65
9 83
10 64
11 77
12 87
13 99
14 84
15 74
16 89
17 76
18 68
19 87
20 69
21 97
22 87
23 59
24 82
25 75
26 55
27 95
28 63
29 87
30 72
31 53
32 66
33 95
34 58
35 76
36 66
37 53
38 67
39 56
40 71
41 67
42 52
43 85
44 99
45 62
46 51
47 53
48 63
49 71
50 78
51 71
52 77
53 85
54 82
55 94
56 67
57 54
58 66
59 64
60 94
61 75
62 72
63 66
64 95
65 59
66 68
67 94
68 84
69 94
70 62
71 73
72 66
73 97
74 71
75 62
76 60
77 86
78 99
79 51
80 90
81 72
82 84
83 78
84 81
85 50
86 55
87 56
88 80
89 63
90 52
91 71
92 75
93 71
94 59
95 78
96 89
97 89
98 93
99 74
100 73
101 85
102 68
103 71
104 78
105 90
106 60
107 95
108 75
COVERAGE_SECTION
2 7 200 152 191 170 39 10 11 
3 7 73 39 124 13 152 19 11 
4 7 57 119 50 52 132 121 82 
5 7 8 66 117 108 92 67 46 
6 7 48 131 38 120 57 62 113 
7 7 123 98 128 201 22 64 209 
8 7 5 66 117 92 108 67 46 
9 7 104 43 18 47 40 89 131 
10 7 191 200 95 109 82 102 152 
11 7 39 70 170 13 73 140 114 
12 7 202 163 146 135 176 143 209 
13 7 73 30 3 11 39 34 70 
14 5 199 149 198 156 167 
15 4 116 207 142 205 
16 7 195 44 144 118 211 147 203 
17 7 101 65 107 36 81 55 20 
18 7 104 47 43 9 94 130 40 
19 7 102 152 191 124 3 109 10 
20 7 60 26 93 21 110 79 36 
21 7 93 60 26 20 79 110 128 
22 7 209 146 202 12 143 163 135 
23 6 210 160 59 133 75 159 
24 7 89 216 129 153 25 179 185 
25 7 153 24 216 129 173 179 76 
26 7 93 60 21 20 110 79 128 
27 7 187 196 114 188 193 140 184 
28 7 52 51 121 5 206 8 4 
29 6 186 183 83 141 217 154 
30 7 34 13 32 74 193 114 85 
31 7 164 111 215 172 165 174 138 
32 7 34 30 100 68 80 74 85 
33 7 78 36 107 35 65 110 20 
34 7 30 32 74 13 85 80 100 
35 7 55 78 127 65 71 36 107 
36 7 107 65 33 17 78 55 35 
37 7 124 41 58 122 103 3 73 
38 7 113 6 40 48 131 57 50 
39 7 11 3 73 170 70 2 13 
40 7 131 113 120 38 6 48 9 
41 7 37 124 58 73 3 74 13 
42 5 208 182 166 143 181 
43 7 47 18 104 9 40 94 113 
44 6 211 144 147 195 16 203 
45 7 180 99 145 125 159 133 59 
46 7 67 108 126 117 61 112 92 
47 7 43 18 104 9 94 130 155 
48 7 6 57 38 131 62 120 113 
49 6 214 151 86 136 138 217 
50 7 132 87 157 119 4 109 82 
51 7 28 84 117 121 126 5 108 
52 7 4 28 57 121 119 206 48 
53 7 96 91 139 190 56 125 218 
54 7 80 212 97 88 85 162 171 
55 7 35 127 71 65 107 36 81 
56 7 139 125 96 53 190 91 201 
57 7 4 48 6 50 52 38 132 
58 7 103 77 37 178 41 124 94 
59 7 133 210 145 159 23 75 160 
60 7 93 21 26 20 110 79 128 
61 7 106 112 46 67 126 108 92 
62 7 177 120 6 48 203 131 216 
63 7 84 95 121 72 82 175 119 
64 7 204 192 218 194 154 201 83 
65 7 107 36 17 55 101 35 81 
66 7 8 92 5 117 108 67 46 
67 7 108 46 117 92 126 61 8 
68 6 100 148 184 150 188 193 
69 4 169 137 168 115 
70 7 11 170 140 114 196 39 105 
71 7 127 55 35 106 81 65 112 
72 5 175 181 166 84 63 
73 7 3 13 39 11 124 41 152 
74 7 85 162 34 80 30 54 212 
75 7 160 210 133 59 23 145 159 
76 7 173 134 158 179 185 25 153 
77 7 103 58 94 178 130 155 167 
78 7 33 35 36 107 65 55 110 
79 7 21 93 60 26 98 128 123 
80 7 54 97 85 212 88 162 74 
81 7 101 17 65 55 107 71 36 
82 7 95 109 119 63 102 10 132 
83 6 194 154 192 29 186 135 
84 7 72 63 175 121 166 181 42 
85 6 162 74 80 54 212 97 
86 7 174 138 217 136 49 141 215 
87 7 157 132 50 122 102 109 19 
88 5 54 97 171 212 80 
89 7 24 129 216 153 25 120 179 
90 7 105 151 170 197 140 49 141 
91 7 96 53 218 139 190 204 164 
92 7 66 67 8 108 117 5 46 
93 7 60 21 26 20 110 79 128 
94 7 77 103 130 58 47 155 178 
95 7 82 109 119 63 10 102 132 
96 7 53 91 139 190 56 218 125 
97 7 80 54 88 212 171 85 162 
98 7 123 128 7 79 201 110 21 
99 7 45 180 145 159 133 59 125 
100 7 68 148 184 150 193 188 114 
101 7 81 17 65 107 36 55 71 
102 7 109 19 191 82 95 10 87 
103 7 77 58 94 178 37 122 130 
104 7 18 9 43 47 40 89 131 
105 7 90 170 151 197 140 49 70 
106 7 61 112 127 46 126 71 67 
107 7 36 65 17 55 33 78 101 
108 7 67 117 46 92 126 8 5 
109 7 82 95 102 10 132 50 119 
110 7 20 60 93 26 21 128 123 
111 7 31 164 215 172 174 165 86 
112 7 106 61 126 46 67 108 35 
113 7 38 40 131 6 48 120 57 
114 7 193 27 196 70 187 140 188 
115 2 137 69 
116 4 15 207 142 205 
117 7 108 67 5 8 46 92 66 
118 7 16 206 195 44 66 144 8 
119 7 82 95 4 121 50 109 132 
120 7 131 40 62 6 177 216 48 
121 7 63 84 119 95 82 4 28 
122 7 157 87 124 37 103 58 19 
123 7 98 128 7 79 201 110 22 
124 7 37 41 3 19 122 73 58 
125 7 190 56 139 53 96 45 99 
126 7 46 112 67 108 61 117 106 
127 7 71 55 35 106 112 65 78 
128 7 123 98 7 110 79 60 201 
129 7 24 89 25 153 216 173 76 
130 7 155 167 77 94 178 103 156 
131 7 40 120 113 6 48 38 62 
132 7 50 87 157 109 119 4 82 
133 7 59 145 210 159 23 75 160 
134 6 76 173 158 179 185 25 
135 5 163 176 189 12 202 
136 5 138 214 86 174 49 
137 2 115 69 
138 5 136 174 86 215 172 
139 7 53 56 96 190 91 125 218 
140 7 196 197 187 70 27 105 170 
141 7 217 86 151 29 49 174 83 
142 3 116 15 207 
143 6 209 202 12 208 146 163 
144 4 195 44 211 147 
145 7 159 59 133 210 99 23 45 
146 7 12 202 209 163 22 135 143 
147 3 211 44 203 
148 6 100 150 184 68 188 193 
149 6 199 115 14 198 156 137 
150 6 184 188 148 27 193 187 
151 7 49 90 105 214 197 141 217 
152 7 191 19 2 10 102 3 39 
153 7 25 216 24 179 185 173 129 
154 6 194 83 135 163 192 146 
155 7 167 130 198 156 14 77 94 
156 5 198 199 149 14 167 
157 7 87 132 50 122 102 109 19 
158 5 134 76 173 179 185 
159 6 145 59 133 210 23 99 
160 7 23 75 210 207 59 133 116 
161 6 148 150 75 160 68 184 
162 5 85 74 212 54 80 
163 5 135 176 12 189 202 
164 7 31 111 215 172 165 174 218 
165 4 172 215 31 164 
166 5 181 175 208 42 72 
167 6 155 130 198 156 14 199 
168 3 213 169 69 
169 4 69 168 213 137 
170 7 105 70 90 11 140 39 197 
171 2 88 212 
172 6 215 165 31 164 174 111 
173 7 76 134 179 158 185 25 153 
174 7 86 138 215 172 136 111 31 
175 5 72 181 166 84 63 
176 4 189 163 135 12 
177 7 62 185 179 216 153 203 120 
178 5 77 58 103 130 167 
179 7 185 173 76 134 153 25 158 
180 7 45 99 145 159 125 133 59 
181 4 166 175 72 208 
182 6 42 208 143 166 209 202 
183 4 186 29 141 189 
184 7 188 150 148 193 27 187 114 
185 7 179 173 76 134 153 25 158 
186 5 29 183 189 83 135 
187 7 27 196 205 140 188 197 114 
188 7 184 150 27 187 193 148 114 
189 4 176 135 163 12 
190 6 53 125 139 96 91 56 
191 7 152 10 19 102 2 200 109 
192 7 194 204 83 154 64 218 111 
193 7 114 27 188 184 187 150 196 
194 6 154 83 192 135 163 146 
195 5 144 44 16 211 147 
196 7 140 187 27 197 205 114 70 
197 7 140 196 151 205 105 214 90 
198 5 156 199 14 149 167 
199 5 149 198 156 14 115 
200 6 2 10 183 191 152 181 
201 7 64 7 204 218 96 91 98 
202 7 12 146 163 135 143 176 209 
203 6 211 147 44 177 185 62 
204 7 218 64 192 194 91 164 111 
205 5 214 187 197 196 15 
206 7 118 52 5 28 8 66 16 
207 5 116 15 142 160 23 
208 4 143 42 166 202 
209 7 22 143 146 202 12 163 135 
210 7 23 59 133 160 75 159 145 
211 5 147 44 203 144 195 
212 6 54 88 162 171 80 85 
213 3 168 169 69 
214 6 49 136 205 138 86 151 
215 7 172 31 174 165 111 164 138 
216 7 24 153 89 25 129 179 185 
217 7 141 86 174 49 151 138 111 
218 7 204 64 91 192 164 31 111 
DEPOT_SECTION
   1
   -1
EOF
