NAME :  X-n209-kX-w20-c9.cctp
COMMENT : 	Adapted by Maziero, Usberti and Cavellucci from the Uchoa, Pecin, Pessoa, Poggi, Subramanian, and Vidal (2013)
TYPE :  CCTP
DIMENSION :    144
EDGE_WEIGHT_TYPE : 	EUC_2D	
CAPACITY : 	101
VERTICES_WITHIN_COVERAGE :  9
VERTICES_WITH_DEMAND : 	20
NODE_COORD_SECTION
1 0 0
2 487 949
3 492 770
4 150 556
5 130 719
6 962 393
7 54 890
8 861 705
9 338 631
10 119 741
11 48 296
12 982 827
13 18 954
14 558 698
15 857 337
16 963 72
17 218 46
18 705 484
19 315 3
20 331 358
21 688 156
22 314 338
23 381 924
24 968 10
25 797 382
26 733 544
27 956 878
28 880 401
29 245 168
30 973 29
31 888 919
32 943 703
33 364 248
34 932 60
35 663 990
36 85 708
37 801 330
38 261 91
39 163 953
40 791 356
41 356 726
42 630 144
43 987 333
44 691 109
45 83 716
46 395 818
47 605 769
48 633 162
49 651 644
50 221 4
51 551 912
52 337 41
53 156 318
54 749 173
55 717 4
56 759 103
57 615 132
58 42 268
59 952 2
60 989 303
61 471 821
62 650 215
63 61 459
64 391 405
65 643 744
66 324 620
67 92 914
68 133 607
69 988 415
70 943 616
71 764 6
72 659 250
73 766 532
74 997 183
75 127 966
76 781 68
77 884 92
78 438 673
79 591 658
80 928 894
81 107 816
82 581 799
83 46 288
84 379 725
85 186 490
86 947 161
87 230 722
88 40 891
89 362 568
90 26 614
91 756 658
92 818 433
93 236 62
94 314 56
95 789 828
96 626 677
97 626 156
98 207 461
99 566 842
100 135 983
101 956 181
102 5 209
103 10 57
104 499 617
105 975 194
106 882 465
107 716 147
108 77 480
109 742 233
110 869 824
111 999 514
112 0 9
113 260 359
114 278 711
115 683 498
116 930 690
117 184 567
118 257 360
119 783 645
120 978 688
121 343 552
122 675 414
123 386 86
124 958 176
125 391 824
126 228 93
127 938 995
128 159 343
129 698 106
130 896 169
131 201 120
132 158 852
133 786 630
134 91 909
135 291 333
136 575 931
137 60 763
138 154 302
139 612 394
140 70 159
141 972 987
142 34 241
143 878 485
144 885 205
DEMAND_SECTION
2 7
3 6
4 7
5 8
6 10
7 7
8 7
9 10
10 8
11 5
12 6
13 5
14 6
15 5
16 8
17 5
18 8
19 6
20 6
21 7
COVERAGE_SECTION
2 7 51 136 23 61 99 125 46 
3 9 61 82 14 99 46 78 47 125 84 
4 7 117 68 85 108 98 63 90 
5 8 10 36 45 137 81 87 68 132 
6 8 69 43 28 60 106 15 143 111 
7 9 88 134 67 13 81 75 132 100 39 
8 8 116 32 119 133 91 120 110 70 
9 7 66 89 121 41 114 84 78 
10 8 5 45 36 137 81 87 132 68 
11 8 83 58 142 102 138 53 128 140 
12 9 27 80 110 32 31 120 116 141 8 
13 9 88 7 67 134 75 100 39 81 132 
14 9 79 96 47 65 3 104 82 49 78 
15 6 37 28 40 25 92 6 
16 9 34 30 24 59 77 86 124 101 74 
17 9 93 50 126 38 131 94 19 52 29 
18 6 115 26 122 73 92 139 
19 8 52 94 50 93 38 17 123 126 
20 5 22 135 113 118 64 
21 9 107 44 129 48 42 97 54 62 57 
22 6 135 20 113 118 64 33 
23 3 125 46 2 
24 9 59 30 16 34 77 86 124 101 74 
25 5 40 37 92 15 28 
26 7 73 18 115 133 119 91 49 
27 8 80 12 31 110 141 127 95 32 
28 8 106 15 92 6 143 25 40 37 
29 6 131 126 38 93 17 94 
30 9 24 59 16 34 77 86 124 101 74 
31 7 80 27 127 110 141 12 95 
32 8 116 120 8 70 12 110 119 133 
33 3 22 135 20 
34 9 16 30 77 59 24 86 130 124 101 
35 4 136 51 99 2 
36 9 45 5 10 137 81 90 68 87 132 
37 5 40 25 15 92 28 
38 7 126 93 17 94 131 29 52 
39 6 75 100 67 134 132 7 
40 5 25 37 15 92 28 
41 7 84 114 9 78 46 125 66 
42 8 97 48 57 21 44 62 129 107 
43 9 60 6 69 28 15 105 74 101 124 
44 9 129 107 21 56 42 48 57 97 54 
45 9 36 10 5 137 81 90 68 87 132 
46 6 125 61 84 41 23 3 
47 7 82 65 99 14 96 79 3 
48 9 97 42 57 21 62 44 107 129 72 
49 5 96 79 65 91 14 
50 9 17 93 126 19 38 94 131 52 29 
51 8 136 99 2 82 61 35 47 3 
52 8 94 19 123 38 93 17 126 50 
53 6 138 128 118 11 113 83 
54 9 107 109 21 56 129 44 62 76 48 
55 7 71 76 129 44 56 107 21 
56 9 76 129 107 44 54 21 71 55 77 
57 8 42 97 48 21 44 129 62 107 
58 8 83 142 11 102 140 138 53 128 
59 9 24 30 34 16 77 86 124 130 101 
60 9 43 6 105 69 74 101 124 15 144 
61 9 3 46 125 99 82 51 2 84 23 
62 8 72 48 97 21 42 57 109 107 
63 7 108 85 4 98 128 90 11 
64 2 20 22 
65 7 47 96 82 14 49 79 99 
66 7 9 89 121 114 41 84 78 
67 9 134 7 88 75 39 100 13 132 81 
68 9 4 117 90 5 36 45 85 10 108 
69 8 6 43 111 28 60 106 143 15 
70 6 116 120 32 111 8 143 
71 9 55 76 56 129 44 77 107 21 54 
72 5 62 109 48 21 97 
73 5 26 18 115 133 92 
74 9 105 124 101 86 130 144 16 60 34 
75 8 100 39 67 134 7 13 88 132 
76 9 56 71 55 129 44 107 77 54 21 
77 9 34 130 16 86 76 30 124 59 144 
78 8 84 104 41 9 3 14 66 89 
79 6 96 14 49 65 104 47 
80 7 27 31 12 110 127 141 95 
81 8 132 137 10 7 134 67 5 88 
82 8 47 99 65 3 14 61 51 96 
83 8 11 58 142 102 138 53 128 140 
84 8 41 78 46 125 114 9 66 3 
85 4 98 4 117 108 
86 9 124 101 105 130 74 144 16 77 34 
87 8 114 5 10 41 66 9 36 45 
88 9 7 134 67 13 81 75 132 137 100 
89 3 121 66 9 
90 9 68 36 45 4 108 5 137 10 63 
91 5 119 133 49 8 26 
92 6 25 28 106 143 40 15 
93 9 17 126 38 50 131 94 19 52 29 
94 8 52 19 38 93 123 126 17 50 
95 4 110 31 8 80 
96 6 79 49 65 14 47 82 
97 8 48 42 57 21 62 44 129 107 
98 3 85 117 4 
99 8 82 51 47 136 61 3 65 2 
100 7 75 39 67 134 13 7 88 
101 9 124 86 105 74 130 144 16 77 34 
102 9 142 58 140 83 11 103 138 53 112 
103 9 112 140 102 142 131 17 58 50 126 
104 7 78 14 79 96 89 3 49 
105 9 101 74 124 86 130 144 60 16 77 
106 6 143 28 92 6 69 25 
107 9 21 54 44 129 56 48 42 97 109 
108 7 63 4 85 98 117 68 90 
109 6 54 72 107 21 62 37 
110 8 95 80 31 27 12 8 32 116 
111 6 69 70 143 6 106 28 
112 9 103 140 102 17 50 131 142 93 126 
113 5 118 135 22 20 128 
114 7 87 41 9 66 84 5 46 
115 5 18 26 122 73 139 
116 8 32 120 8 70 12 110 119 133 
117 7 4 68 85 98 108 66 121 
118 5 113 135 22 20 128 
119 5 133 91 8 26 73 
120 7 32 116 70 8 12 110 111 
121 3 89 66 9 
122 3 139 18 115 
123 4 52 94 19 38 
124 9 101 86 105 74 130 144 16 77 34 
125 6 46 61 23 84 41 3 
126 7 93 38 131 17 29 50 94 
127 6 141 31 80 27 12 110 
128 5 53 138 118 113 11 
129 9 44 107 21 56 42 54 48 57 97 
130 9 144 86 101 124 77 105 74 34 16 
131 7 126 29 38 93 17 50 94 
132 6 81 134 67 39 7 10 
133 5 119 91 73 26 8 
134 9 67 7 88 75 39 13 100 132 81 
135 5 22 113 118 20 33 
136 7 51 99 2 35 82 61 47 
137 9 45 36 10 81 5 7 88 132 134 
138 7 53 128 11 83 58 118 113 
139 3 122 115 18 
140 9 102 142 58 103 83 131 11 112 138 
141 6 127 80 31 27 12 110 
142 9 58 102 83 11 140 138 53 128 103 
143 6 106 92 28 73 111 6 
144 9 130 101 86 124 105 77 74 15 54 
DEPOT_SECTION
   1
   -1
EOF
