NAME :  X-n214-kX-w21-c11.cctp
COMMENT : 	Adapted by Maziero, Usberti and Cavellucci from the Uchoa, Pecin, Pessoa, Poggi, Subramanian, and Vidal (2013)
TYPE :  CCTP
DIMENSION :    167
EDGE_WEIGHT_TYPE : 	EUC_2D	
CAPACITY : 	944
VERTICES_WITHIN_COVERAGE :  11
VERTICES_WITH_DEMAND : 	21
NODE_COORD_SECTION
1 500 500
2 753 355
3 663 83
4 725 286
5 581 444
6 700 205
7 630 475
8 560 407
9 848 374
10 752 315
11 454 310
12 685 227
13 747 468
14 540 348
15 882 346
16 762 228
17 884 307
18 681 274
19 761 254
20 791 205
21 699 559
22 694 352
23 679 11
24 656 446
25 838 395
26 769 381
27 710 296
28 653 489
29 711 447
30 516 322
31 704 265
32 742 358
33 578 423
34 923 378
35 449 254
36 626 264
37 701 203
38 751 293
39 640 218
40 493 226
41 671 134
42 465 361
43 894 399
44 824 388
45 848 251
46 561 443
47 663 9
48 768 339
49 634 426
50 590 60
51 735 280
52 842 365
53 671 124
54 680 251
55 558 451
56 884 356
57 746 384
58 687 227
59 855 350
60 656 450
61 560 459
62 591 433
63 753 384
64 739 215
65 742 304
66 509 418
67 667 17
68 534 297
69 605 382
70 817 366
71 815 268
72 728 264
73 856 360
74 666 107
75 538 317
76 715 34
77 875 290
78 725 237
79 563 394
80 775 378
81 587 443
82 696 387
83 704 153
84 667 448
85 557 440
86 682 461
87 762 279
88 824 522
89 764 259
90 759 334
91 750 391
92 893 283
93 900 308
94 595 73
95 641 474
96 294 448
97 852 182
98 526 330
99 735 460
100 901 303
101 545 395
102 741 339
103 795 456
104 783 343
105 694 224
106 698 323
107 683 222
108 704 269
109 769 321
110 596 321
111 605 103
112 567 464
113 743 205
114 622 449
115 767 116
116 745 269
117 603 447
118 634 194
119 832 312
120 796 292
121 662 86
122 608 618
123 489 267
124 837 289
125 569 497
126 611 550
127 749 387
128 683 355
129 682 81
130 701 170
131 683 308
132 659 582
133 668 329
134 662 288
135 897 399
136 770 366
137 582 485
138 848 381
139 828 150
140 536 445
141 770 259
142 702 94
143 823 162
144 644 364
145 552 317
146 626 88
147 999 631
148 860 274
149 654 285
150 650 335
151 637 568
152 449 359
153 552 440
154 810 205
155 628 24
156 728 294
157 733 311
158 750 327
159 727 278
160 725 355
161 710 139
162 723 556
163 449 346
164 731 373
165 572 542
166 678 44
167 604 593
DEMAND_SECTION
2 83
3 84
4 34
5 17
6 88
7 59
8 56
9 33
10 21
11 37
12 15
13 97
14 23
15 76
16 94
17 99
18 30
19 44
20 45
21 8
22 37
COVERAGE_SECTION
2 11 32 102 136 48 90 158 160 164 63 57 26 
3 11 121 129 74 146 142 53 166 41 111 67 94 
4 11 159 156 51 27 72 65 116 157 38 108 31 
5 11 81 62 46 33 117 55 85 112 61 153 114 
6 11 37 105 107 58 12 130 64 78 113 54 83 
7 11 95 28 114 60 24 117 84 49 137 81 86 
8 11 79 101 33 85 153 46 62 5 55 81 140 
9 11 138 52 73 25 59 44 70 56 15 43 135 
10 11 158 65 109 157 90 38 102 48 156 87 51 
11 10 163 152 42 123 35 30 98 68 75 40 
12 11 58 107 105 54 6 37 78 31 39 108 18 
13 8 99 29 103 86 91 127 84 57 
14 11 98 75 145 30 101 68 79 8 110 69 42 
15 11 56 59 73 17 93 9 52 100 138 34 43 
16 11 19 64 113 89 141 20 78 116 72 87 154 
17 11 93 100 77 92 15 148 56 124 59 119 73 
18 11 54 108 134 31 149 131 27 4 159 12 58 
19 11 89 141 116 87 16 72 51 38 78 159 64 
20 11 154 16 113 64 143 19 141 89 97 139 71 
21 11 162 132 151 28 126 86 167 13 95 99 122 
22 11 128 106 160 82 133 164 131 150 32 102 144 
23 9 67 47 166 76 155 129 3 121 142 
24 10 60 84 49 86 95 114 7 28 117 29 
25 11 44 138 9 52 70 73 59 43 135 56 80 
26 11 80 136 63 91 127 57 2 32 164 104 48 
27 11 4 156 159 157 108 51 106 131 31 65 18 
28 11 95 7 60 86 24 84 114 117 49 137 29 
29 7 99 86 13 84 24 60 82 
30 9 98 75 68 14 145 123 11 42 163 
31 11 108 72 18 159 54 4 27 51 78 156 116 
32 11 2 160 102 164 57 63 90 136 127 48 158 
33 11 62 5 81 8 46 85 153 79 55 117 61 
34 11 135 43 56 15 73 59 93 9 138 100 17 
35 8 123 40 11 163 30 68 152 42 
36 5 149 134 39 18 54 
37 11 6 105 107 58 12 130 64 78 113 83 54 
38 11 65 87 51 10 156 116 157 4 159 109 158 
39 8 118 107 12 36 58 54 105 6 
40 5 123 35 68 11 30 
41 11 53 74 83 161 130 121 142 3 129 146 118 
42 10 152 163 11 30 98 66 14 75 101 68 
43 11 135 34 56 138 9 15 73 25 52 59 44 
44 11 25 70 138 9 52 73 59 80 26 136 104 
45 10 148 71 124 77 92 154 119 120 17 97 
46 11 85 55 153 61 5 112 140 33 81 62 8 
47 9 67 23 155 166 76 3 129 121 146 
48 11 90 104 109 2 158 102 136 10 32 80 26 
49 8 114 24 60 117 84 62 7 95 
50 7 94 111 146 155 3 121 67 
51 11 159 4 116 156 72 38 65 87 27 157 108 
52 10 9 73 138 59 70 44 25 56 15 119 
53 11 41 74 121 3 161 142 83 129 130 146 111 
54 11 18 12 58 31 107 105 108 134 149 78 6 
55 11 61 46 85 153 112 140 5 81 33 62 137 
56 11 15 73 59 9 52 43 138 34 135 17 93 
57 10 127 63 91 164 26 32 2 80 136 160 
58 11 12 107 105 54 6 37 78 31 108 18 39 
59 11 73 52 9 15 56 138 70 119 25 44 17 
60 10 24 84 86 95 49 114 7 28 117 29 
61 11 55 112 46 85 153 5 140 81 137 125 33 
62 11 81 5 33 117 46 85 114 55 112 8 61 
63 10 127 57 91 26 80 136 164 32 2 160 
64 11 113 16 78 6 37 19 105 72 89 20 58 
65 11 157 38 10 156 158 4 51 159 87 109 27 
66 8 140 101 153 8 85 46 55 79 
67 9 47 23 166 155 76 3 129 121 146 
68 7 75 145 30 98 14 123 110 
69 6 144 79 33 8 49 62 
70 10 44 52 9 138 25 73 59 104 80 136 
71 9 124 120 45 148 141 119 89 87 19 
72 11 159 51 116 4 31 108 78 156 19 89 27 
73 11 59 52 9 138 56 15 25 70 44 43 119 
74 11 53 121 3 41 129 142 146 161 83 111 166 
75 7 145 98 68 30 14 110 123 
76 8 166 23 67 129 47 142 3 121 
77 10 17 92 148 100 93 124 45 119 15 59 
78 11 64 72 105 31 113 16 108 116 58 19 6 
79 10 8 101 33 69 85 153 62 46 14 5 
80 11 26 136 63 91 127 57 2 104 32 48 70 
81 11 5 62 117 33 46 112 55 85 61 153 114 
82 7 22 128 164 160 57 127 32 
83 11 161 130 41 53 37 6 142 74 113 64 105 
84 9 24 60 86 95 49 28 29 114 7 
85 11 46 153 55 61 140 5 112 33 81 8 62 
86 8 84 60 24 29 28 95 99 7 
87 11 38 89 116 141 19 51 65 159 120 10 72 
88 11 103 13 162 99 25 21 44 29 43 135 138 
89 11 19 141 87 116 16 38 51 72 159 78 120 
90 11 48 158 109 102 10 2 104 32 65 136 157 
91 10 127 57 63 26 164 80 136 32 2 160 
92 10 77 100 17 93 148 45 124 15 119 56 
93 11 100 17 92 77 15 56 148 59 124 73 119 
94 7 50 111 146 155 121 3 74 
95 10 7 28 60 114 24 84 86 117 49 137 
96 4 152 163 42 11 
97 10 143 139 154 20 45 148 71 16 115 124 
98 9 30 75 14 145 68 42 101 110 123 
99 8 13 29 86 103 84 91 127 57 
100 11 93 17 92 77 15 148 56 59 124 119 73 
101 11 79 8 33 66 153 14 85 46 140 55 62 
102 11 158 32 90 2 160 10 48 157 109 65 164 
103 11 13 99 88 44 25 26 91 80 63 127 29 
104 10 48 90 109 136 2 80 158 26 70 10 
105 11 58 12 107 6 37 54 78 31 64 108 18 
106 11 131 22 27 133 128 157 156 160 4 102 65 
107 11 12 58 105 6 37 54 39 78 31 108 18 
108 11 31 18 72 159 4 27 54 51 156 78 116 
109 11 90 10 48 158 104 65 38 102 157 2 120 
110 6 145 150 75 14 69 36 
111 9 146 94 50 121 3 74 53 41 129 
112 11 61 55 46 5 85 137 153 81 125 140 62 
113 11 64 16 78 37 6 20 19 105 130 89 58 
114 10 117 49 7 95 24 60 62 81 5 84 
115 7 161 142 139 143 83 130 20 
116 11 51 72 87 159 89 19 38 4 141 156 65 
117 11 81 62 114 5 33 49 7 112 46 137 55 
118 7 39 107 12 58 6 105 37 
119 9 124 120 59 71 148 77 17 52 73 
120 9 71 87 109 119 124 141 38 89 10 
121 11 3 74 129 146 53 142 166 41 111 94 67 
122 9 167 151 132 126 165 21 125 162 137 
123 7 40 35 68 11 30 75 98 
124 9 119 148 71 77 45 120 17 92 59 
125 11 137 112 61 165 55 5 46 81 85 153 117 
126 10 151 165 167 132 122 125 137 28 7 95 
127 10 57 91 63 26 164 80 32 136 2 160 
128 10 22 133 82 106 150 144 160 131 164 32 
129 11 3 121 142 74 166 53 41 146 76 161 67 
130 11 83 161 37 6 41 105 53 107 113 12 58 
131 11 106 133 134 27 18 149 150 108 22 4 128 
132 10 151 21 167 126 122 162 28 165 95 7 
133 9 150 131 128 106 22 134 144 149 27 
134 11 149 18 131 54 133 36 108 31 27 150 106 
135 11 43 34 56 138 9 15 73 25 52 59 44 
136 11 80 26 2 63 104 48 32 57 127 91 90 
137 11 125 112 61 5 55 81 117 46 7 85 62 
138 11 9 25 52 73 44 59 70 56 15 43 135 
139 8 143 97 154 20 115 113 16 45 
140 10 153 85 55 46 61 112 66 5 8 33 
141 11 89 19 87 116 16 38 51 72 120 71 159 
142 10 129 74 3 121 53 161 41 166 83 76 
143 9 139 97 154 20 115 16 113 45 64 
144 5 150 128 133 69 22 
145 6 75 68 98 14 30 110 
146 11 111 94 121 3 74 50 129 53 41 155 166 
147 11 88 135 43 34 103 25 162 138 9 56 44 
148 10 77 45 124 92 17 71 119 100 93 120 
149 9 134 18 36 131 54 133 150 108 31 
150 7 133 144 128 131 22 106 134 
151 10 132 126 167 122 21 165 28 162 7 95 
152 10 163 42 11 30 98 66 14 75 123 101 
153 11 85 46 55 140 61 112 5 33 8 81 62 
154 11 20 143 97 16 139 45 71 113 141 19 89 
155 10 47 67 50 23 166 94 146 3 121 129 
156 11 4 51 159 65 27 157 38 72 116 10 108 
157 11 65 156 10 158 38 4 27 102 51 159 90 
158 11 90 10 102 109 48 157 65 2 32 38 104 
159 11 4 51 72 156 116 27 108 31 38 65 157 
160 11 32 164 102 2 22 57 158 63 90 127 106 
161 10 83 130 41 53 142 74 115 129 37 6 
162 11 21 132 151 13 28 99 86 88 29 126 95 
163 11 152 42 11 30 98 123 14 35 66 75 68 
164 11 32 57 160 127 63 91 2 102 82 26 136 
165 10 126 125 137 167 151 112 61 122 7 55 
166 11 67 23 129 47 76 3 121 155 142 74 146 
167 9 122 151 126 132 165 21 125 137 28 
DEPOT_SECTION
   1
   -1
EOF
