NAME :  X-n289-kX-w57-c9.cctp
COMMENT : 	Adapted by Maziero, Usberti and Cavellucci from the Uchoa, Pecin, Pessoa, Poggi, Subramanian, and Vidal (2013)
TYPE :  CCTP
DIMENSION :    226
EDGE_WEIGHT_TYPE : 	EUC_2D	
CAPACITY : 	267
VERTICES_WITHIN_COVERAGE :  9
VERTICES_WITH_DEMAND : 	57
NODE_COORD_SECTION
1 0 0
2 174 325
3 49 34
4 543 815
5 42 920
6 545 80
7 681 950
8 870 118
9 787 220
10 537 927
11 180 838
12 543 582
13 442 620
14 747 569
15 932 48
16 14 356
17 53 476
18 603 228
19 772 573
20 811 359
21 373 37
22 859 142
23 489 543
24 37 771
25 354 944
26 96 62
27 326 729
28 881 541
29 653 724
30 226 759
31 481 44
32 100 882
33 129 299
34 989 512
35 600 42
36 538 772
37 346 479
38 448 624
39 286 417
40 612 457
41 70 468
42 502 909
43 595 503
44 819 948
45 771 355
46 372 196
47 535 775
48 232 518
49 119 626
50 110 835
51 567 348
52 6 211
53 493 652
54 96 183
55 105 479
56 873 333
57 468 199
58 536 120
59 17 65
60 638 958
61 328 921
62 968 540
63 125 145
64 692 422
65 557 864
66 703 395
67 498 832
68 343 962
69 583 474
70 976 636
71 77 544
72 981 353
73 622 728
74 792 443
75 283 63
76 972 417
77 694 214
78 38 91
79 294 791
80 429 815
81 691 154
82 431 909
83 615 264
84 448 185
85 49 414
86 883 478
87 627 564
88 40 434
89 718 660
90 716 586
91 607 343
92 675 244
93 282 617
94 199 880
95 588 662
96 58 700
97 221 510
98 518 554
99 944 282
100 254 558
101 428 165
102 848 305
103 860 100
104 602 620
105 437 55
106 922 348
107 433 776
108 891 306
109 211 731
110 408 859
111 492 322
112 581 746
113 868 337
114 365 161
115 568 646
116 456 81
117 477 162
118 429 844
119 396 41
120 130 972
121 563 135
122 317 258
123 414 696
124 547 90
125 602 325
126 321 27
127 474 629
128 526 440
129 814 534
130 287 975
131 11 791
132 217 331
133 745 430
134 34 925
135 84 298
136 12 489
137 140 132
138 201 545
139 609 322
140 880 525
141 649 744
142 643 684
143 319 178
144 731 709
145 225 726
146 596 265
147 634 256
148 166 640
149 520 270
150 42 480
151 150 168
152 82 292
153 122 330
154 127 502
155 13 620
156 634 888
157 224 537
158 174 366
159 24 40
160 145 248
161 419 444
162 123 355
163 875 393
164 117 315
165 34 517
166 73 159
167 80 288
168 152 615
169 660 798
170 184 487
171 706 738
172 192 700
173 9 455
174 102 332
175 193 612
176 50 417
177 61 343
178 80 515
179 79 416
180 257 315
181 130 120
182 91 213
183 316 692
184 159 590
185 768 627
186 583 308
187 552 300
188 890 942
189 28 627
190 141 84
191 151 452
192 651 231
193 593 205
194 126 511
195 53 418
196 126 279
197 65 479
198 465 504
199 11 435
200 328 87
201 341 495
202 75 221
203 12 139
204 854 920
205 95 312
206 0 426
207 36 551
208 200 578
209 572 402
210 120 604
211 736 914
212 252 343
213 653 922
214 171 218
215 188 452
216 170 515
217 594 876
218 169 35
219 149 580
220 69 12
221 878 954
222 141 498
223 149 103
224 467 248
225 256 559
226 115 233
DEMAND_SECTION
2 73
3 71
4 59
5 29
6 19
7 79
8 27
9 13
10 77
11 21
12 99
13 24
14 71
15 38
16 59
17 56
18 41
19 87
20 28
21 81
22 18
23 49
24 28
25 35
26 86
27 40
28 89
29 75
30 25
31 56
32 43
33 57
34 88
35 37
36 88
37 76
38 37
39 67
40 3
41 64
42 53
43 72
44 55
45 22
46 56
47 51
48 30
49 15
50 1
51 46
52 78
53 18
54 62
55 100
56 43
57 87
58 4
COVERAGE_SECTION
2 9 158 132 33 153 164 162 196 174 205 
3 9 159 220 59 26 78 190 203 181 218 
4 9 47 36 67 65 112 217 42 10 80 
5 9 134 32 120 50 131 24 11 94 96 
6 9 124 58 121 35 31 116 117 105 193 
7 6 213 60 211 156 217 44 
8 9 103 22 15 9 99 81 102 108 77 
9 8 77 102 22 92 81 8 108 45 
10 9 42 65 217 67 156 60 82 4 213 
11 9 94 50 30 32 109 145 79 172 120 
12 9 98 23 115 104 127 53 87 95 43 
13 9 38 127 53 123 23 98 12 198 115 
14 8 19 90 185 129 89 87 74 28 
15 9 103 8 22 9 99 108 81 102 77 
16 7 177 85 176 206 195 199 88 
17 9 150 197 41 136 88 165 178 173 55 
18 6 193 83 146 147 192 92 
19 8 14 185 90 129 89 28 140 74 
20 9 45 113 102 56 163 74 108 133 106 
21 9 119 126 105 200 75 116 31 114 101 
22 9 8 103 9 15 102 99 108 81 77 
23 9 98 198 12 127 13 38 53 128 43 
24 9 131 96 50 32 189 5 155 134 11 
25 9 68 61 130 82 110 118 80 42 79 
26 9 190 3 220 78 181 223 159 218 59 
27 8 183 79 123 145 30 109 107 93 
28 9 140 86 129 62 34 19 74 70 14 
29 9 141 73 142 171 169 112 144 95 89 
30 8 109 145 172 79 11 27 183 94 
31 9 105 116 6 124 119 58 21 117 35 
32 9 50 5 134 11 120 94 131 24 30 
33 9 164 196 153 205 174 135 152 167 2 
34 9 62 76 140 86 28 70 72 163 129 
35 9 6 124 121 58 31 81 116 193 105 
36 9 47 4 112 67 65 73 107 141 80 
37 9 201 161 39 48 225 100 198 97 157 
38 9 13 127 53 123 23 98 12 198 115 
39 9 212 37 201 215 180 132 97 48 158 
40 7 69 43 209 64 128 87 66 
41 9 197 17 150 55 88 178 179 195 176 
42 9 10 65 82 67 118 217 4 110 80 
43 9 69 40 87 98 128 12 209 23 104 
44 4 204 221 188 211 
45 7 20 66 133 74 102 113 56 
46 8 114 143 101 84 122 57 224 117 
47 9 36 4 112 67 65 73 107 80 217 
48 9 97 157 138 100 225 170 216 208 215 
49 8 210 168 148 184 219 175 189 71 
50 9 32 11 24 94 131 5 134 120 30 
51 6 91 125 186 139 187 209 
52 8 202 203 166 182 54 167 152 226 
53 9 127 38 13 115 12 123 95 98 23 
54 9 182 166 202 63 226 151 137 181 160 
55 9 154 41 194 197 222 178 17 191 150 
56 9 113 108 102 106 163 20 99 45 72 
57 9 84 117 224 101 149 46 58 114 121 
58 9 121 124 6 117 116 31 35 193 57 
59 9 159 78 3 203 220 26 166 190 181 
60 7 213 7 156 217 10 211 65 
61 9 25 68 130 110 82 118 79 94 80 
62 7 34 28 140 70 86 76 129 
63 7 137 181 151 54 223 166 190 
64 4 66 133 40 74 
65 9 217 4 10 67 42 156 47 36 213 
66 4 64 133 45 74 
67 9 4 65 47 118 80 36 42 107 110 
68 9 25 61 130 82 110 118 94 42 80 
69 9 43 40 128 209 87 98 12 23 64 
70 4 62 34 28 140 
71 8 178 207 165 194 154 197 55 17 
72 9 106 76 99 108 56 163 113 102 34 
73 9 29 141 112 142 95 169 171 36 115 
74 9 133 20 45 129 86 163 66 64 140 
75 6 200 126 21 119 218 143 
76 9 72 106 34 163 86 62 56 113 108 
77 7 92 192 81 147 18 9 83 
78 9 59 159 203 3 26 166 220 181 63 
79 9 27 30 145 183 109 11 94 110 61 
80 9 118 107 110 67 82 47 4 36 42 
81 8 77 192 92 193 18 9 147 121 
82 9 110 118 42 25 80 67 68 61 10 
83 4 146 147 18 192 
84 9 57 101 117 224 46 114 116 58 149 
85 8 176 195 88 179 199 206 173 41 
86 9 140 28 163 129 74 62 76 34 106 
87 9 104 43 12 90 69 115 95 40 98 
88 9 176 195 85 199 173 206 179 17 41 
89 7 144 185 90 142 171 29 14 
90 8 14 19 185 89 87 129 104 142 
91 4 125 139 51 186 
92 6 192 77 147 83 18 146 
93 8 225 100 183 175 208 157 138 48 
94 9 11 32 50 120 30 130 79 61 109 
95 9 115 104 142 73 112 29 12 53 141 
96 9 24 189 155 49 131 210 148 168 172 
97 9 48 157 138 170 216 100 225 215 208 
98 9 23 12 198 127 43 38 13 53 69 
99 9 108 106 72 56 113 102 163 76 20 
100 9 225 157 48 138 97 208 93 175 216 
101 9 84 117 57 114 46 116 224 105 143 
102 9 56 113 108 20 106 45 163 99 9 
103 9 8 22 15 9 81 99 77 102 108 
104 9 115 95 87 12 142 98 73 53 29 
105 9 116 119 31 21 101 6 117 200 124 
106 9 56 108 113 72 163 99 76 102 20 
107 9 80 118 123 67 110 47 36 4 27 
108 9 56 113 102 106 99 163 20 72 45 
109 8 145 30 172 79 148 11 183 27 
110 9 118 80 82 107 67 25 61 42 68 
111 7 149 187 224 51 186 125 209 
112 9 73 36 47 141 29 4 95 142 169 
113 9 56 102 108 106 163 20 99 45 72 
114 7 46 143 101 200 84 122 57 
115 9 95 104 12 53 142 127 73 87 112 
116 9 105 31 119 117 6 58 101 124 21 
117 9 84 57 101 58 116 224 121 124 6 
118 9 110 80 82 107 67 42 4 25 47 
119 9 21 105 116 126 200 31 75 114 101 
120 9 32 5 134 94 50 11 130 61 68 
121 9 58 124 6 193 117 35 18 57 116 
122 6 143 46 180 212 114 132 
123 9 38 13 107 53 127 27 183 80 36 
124 9 6 58 121 35 31 116 117 105 193 
125 4 139 91 186 51 
126 8 75 21 200 119 105 114 116 143 
127 9 38 53 13 12 23 98 123 115 95 
128 9 209 69 40 198 43 51 161 23 98 
129 9 19 28 140 14 86 74 185 90 133 
130 9 68 61 25 94 120 82 110 11 79 
131 9 24 96 50 32 5 134 189 155 11 
132 9 212 2 180 158 33 153 162 164 196 
133 5 74 64 66 45 20 
134 9 5 32 120 50 131 24 11 94 96 
135 7 152 167 205 164 174 33 196 
136 9 150 173 165 17 197 199 41 88 206 
137 7 181 63 223 151 190 54 166 
138 9 157 208 97 48 216 100 225 170 184 
139 4 125 91 186 51 
140 9 28 86 129 62 34 19 74 163 14 
141 6 29 73 169 171 142 112 
142 9 29 73 95 141 104 89 171 115 112 
143 5 114 46 122 200 101 
144 3 171 89 29 
145 8 109 30 172 79 183 27 148 175 
146 5 83 18 147 186 187 
147 5 83 192 146 18 92 
148 8 168 175 49 184 210 219 172 208 
149 6 187 224 111 186 146 57 
150 9 17 197 41 136 165 173 88 178 199 
151 6 63 137 181 214 54 223 
152 7 167 135 205 164 174 196 33 
153 9 164 174 162 33 205 135 196 2 152 
154 8 194 222 55 216 178 191 170 71 
155 8 189 207 96 71 165 49 210 178 
156 7 213 217 60 7 65 169 10 
157 9 48 138 97 100 225 208 216 170 175 
158 8 2 162 132 153 164 174 33 212 
159 9 3 59 78 220 26 203 190 166 181 
160 8 226 196 214 33 182 164 202 167 
161 9 198 37 201 128 23 39 111 98 209 
162 7 153 174 164 205 158 33 2 
163 9 113 56 106 20 86 108 102 74 76 
164 9 153 33 205 174 135 196 162 152 167 
165 9 207 136 150 17 178 197 71 41 173 
166 9 54 63 182 202 203 181 137 78 151 
167 7 152 135 205 164 196 174 33 
168 7 184 148 210 49 219 175 208 
169 4 141 29 171 73 
170 9 216 215 97 222 191 48 154 138 194 
171 4 144 29 141 169 
172 8 109 145 148 30 175 168 49 184 
173 9 199 206 136 88 150 17 176 85 195 
174 7 153 205 164 162 135 177 33 
175 8 208 148 184 168 219 138 210 49 
176 8 85 195 88 179 199 206 41 173 
177 7 174 205 16 135 152 167 153 
178 8 71 197 55 165 194 17 41 154 
179 7 195 176 85 88 41 17 197 
180 8 212 132 122 2 158 39 33 214 
181 7 137 63 223 190 151 26 166 
182 8 202 54 226 166 160 151 196 63 
183 8 27 93 145 123 79 30 109 172 
184 8 219 168 175 210 208 148 49 138 
185 6 19 89 14 90 144 129 
186 5 125 139 187 91 51 
187 5 186 149 51 125 146 
188 3 221 204 44 
189 8 155 207 96 49 210 71 165 178 
190 7 223 181 137 26 218 63 151 
191 8 215 222 170 55 154 194 216 179 
192 7 92 147 77 18 83 193 146 
193 7 18 146 83 192 147 121 92 
194 8 154 222 55 216 178 71 170 191 
195 8 176 85 88 179 199 41 206 173 
196 9 33 160 164 205 135 152 167 226 153 
197 9 17 41 150 178 55 165 88 136 173 
198 9 23 98 161 128 12 13 38 37 69 
199 9 206 173 88 85 176 195 136 150 17 
200 7 75 126 21 119 114 143 105 
201 9 37 161 39 225 100 48 97 157 198 
202 8 182 226 54 166 167 52 152 160 
203 9 78 166 52 59 54 159 202 182 3 
204 3 188 221 44 
205 8 135 174 164 152 167 153 33 196 
206 9 199 173 88 85 176 195 136 150 16 
207 8 165 71 178 136 150 155 189 17 
208 9 138 175 184 157 219 100 225 168 48 
209 7 51 128 40 91 69 125 139 
210 8 49 168 219 184 148 175 71 208 
211 4 7 213 44 156 
212 9 180 132 2 39 158 122 215 162 33 
213 7 60 156 7 217 211 65 10 
214 7 160 151 226 196 182 54 63 
215 9 170 191 216 222 97 48 154 194 55 
216 9 170 222 138 194 154 97 157 48 191 
217 8 65 156 213 10 4 60 42 169 
218 6 190 223 26 181 137 220 
219 8 184 168 210 208 175 49 148 138 
220 9 3 159 26 59 78 190 218 223 181 
221 3 188 204 44 
222 8 154 194 216 55 170 191 178 215 
223 7 190 181 137 63 151 26 218 
224 8 57 149 84 111 117 101 187 46 
225 9 100 157 48 138 208 97 93 175 216 
226 8 182 160 202 196 54 214 167 33 
DEPOT_SECTION
   1
   -1
EOF
