NAME :  X-n223-kX-w88-c11.cctp
COMMENT : 	Adapted by Maziero, Usberti and Cavellucci from the Uchoa, Pecin, Pessoa, Poggi, Subramanian, and Vidal (2013)
TYPE :  CCTP
DIMENSION :    199
EDGE_WEIGHT_TYPE : 	EUC_2D	
CAPACITY : 	37
VERTICES_WITHIN_COVERAGE :  11
VERTICES_WITH_DEMAND : 	88
NODE_COORD_SECTION
1 284 167
2 6 711
3 874 746
4 483 894
5 733 189
6 336 29
7 488 684
8 825 903
9 98 412
10 206 306
11 497 641
12 499 745
13 481 40
14 500 390
15 851 268
16 51 278
17 805 796
18 554 771
19 576 984
20 734 251
21 325 414
22 658 81
23 279 467
24 1000 804
25 124 148
26 554 594
27 645 168
28 4 965
29 614 267
30 939 719
31 935 800
32 109 154
33 31 554
34 960 512
35 489 840
36 377 684
37 945 808
38 720 165
39 226 34
40 73 255
41 748 344
42 774 514
43 143 893
44 168 461
45 164 493
46 631 533
47 815 191
48 833 284
49 746 100
50 252 839
51 894 472
52 944 597
53 371 28
54 552 186
55 610 541
56 578 665
57 749 655
58 898 974
59 274 972
60 520 642
61 914 373
62 610 738
63 773 602
64 752 74
65 729 90
66 464 658
67 70 36
68 964 397
69 388 732
70 185 51
71 712 144
72 45 437
73 910 738
74 956 879
75 318 560
76 592 913
77 642 564
78 907 240
79 88 186
80 399 931
81 763 180
82 626 876
83 302 689
84 970 490
85 775 574
86 653 667
87 813 999
88 5 980
89 10 249
90 557 816
91 915 680
92 131 722
93 553 946
94 45 101
95 306 260
96 627 26
97 771 398
98 869 585
99 493 282
100 312 212
101 985 939
102 194 262
103 992 698
104 834 844
105 1 651
106 271 893
107 20 349
108 163 503
109 579 761
110 923 502
111 2 469
112 103 284
113 63 181
114 784 300
115 71 869
116 826 222
117 36 51
118 231 82
119 57 79
120 62 272
121 22 273
122 106 897
123 805 267
124 150 793
125 106 129
126 212 590
127 327 114
128 7 372
129 646 219
130 1 80
131 259 282
132 961 241
133 692 298
134 47 944
135 801 272
136 72 185
137 646 242
138 189 387
139 119 294
140 31 339
141 730 188
142 57 143
143 93 759
144 824 259
145 924 237
146 57 338
147 83 189
148 51 217
149 780 316
150 305 615
151 914 190
152 111 271
153 345 763
154 127 979
155 53 950
156 751 295
157 134 317
158 889 183
159 128 324
160 98 293
161 172 219
162 739 331
163 160 970
164 176 57
165 814 179
166 27 359
167 135 211
168 969 195
169 154 988
170 776 143
171 117 953
172 851 129
173 33 181
174 710 173
175 111 270
176 105 225
177 53 438
178 82 228
179 933 313
180 53 199
181 147 288
182 10 811
183 37 799
184 837 214
185 752 302
186 42 300
187 804 64
188 123 273
189 489 208
190 683 398
191 874 162
192 608 548
193 788 301
194 54 335
195 221 117
196 848 80
197 160 835
198 769 226
199 139 843
DEMAND_SECTION
2 6
3 6
4 9
5 2
6 4
7 10
8 2
9 3
10 3
11 1
12 4
13 3
14 8
15 6
16 4
17 4
18 6
19 3
20 5
21 10
22 7
23 3
24 8
25 9
26 2
27 2
28 9
29 2
30 2
31 1
32 2
33 9
34 9
35 1
36 9
37 5
38 9
39 8
40 6
41 2
42 10
43 3
44 10
45 10
46 1
47 8
48 1
49 7
50 1
51 9
52 3
53 5
54 5
55 5
56 9
57 2
58 2
59 2
60 2
61 5
62 7
63 10
64 9
65 10
66 4
67 4
68 9
69 1
70 5
71 1
72 5
73 8
74 3
75 9
76 6
77 10
78 6
79 3
80 9
81 8
82 9
83 9
84 3
85 6
86 10
87 1
88 2
89 4
COVERAGE_SECTION
2 6 105 183 143 182 92 33 
3 11 73 30 91 31 17 37 104 103 24 57 74 
4 11 35 93 80 90 76 19 18 82 12 109 69 
5 11 141 38 174 81 71 198 20 170 47 165 27 
6 11 53 127 39 118 13 195 70 164 100 95 189 
7 11 66 11 60 12 56 18 36 69 26 109 62 
8 11 104 87 58 17 74 31 37 3 101 73 24 
9 11 177 72 44 146 166 194 159 138 128 140 107 
10 11 102 131 181 157 159 138 139 188 161 152 175 
11 11 60 66 7 26 56 12 36 18 69 109 192 
12 11 18 7 109 90 66 35 11 60 62 56 69 
13 11 53 6 96 54 189 127 22 27 100 99 129 
14 11 99 29 21 189 190 55 192 46 137 26 54 
15 11 48 144 123 135 116 184 78 193 114 145 47 
16 11 120 186 121 40 160 89 112 194 178 146 152 
17 11 104 3 8 73 31 37 57 30 91 74 24 
18 11 109 90 12 62 35 7 56 82 60 4 11 
19 11 93 76 82 4 35 90 80 18 109 87 62 
20 11 198 156 185 5 133 141 114 135 123 193 81 
21 11 23 138 75 131 95 10 44 14 45 108 102 
22 11 96 65 71 27 49 64 38 174 141 5 170 
23 11 21 75 44 45 138 108 126 150 10 131 9 
24 11 37 31 74 30 103 73 101 3 91 104 17 
25 11 32 125 79 147 136 167 142 113 176 161 180 
26 11 60 192 11 56 55 77 46 66 7 86 62 
27 11 129 174 71 137 38 141 22 5 54 29 65 
28 7 88 134 155 171 115 122 154 
29 11 137 129 133 54 27 20 99 174 189 141 156 
30 11 73 91 103 3 31 37 24 52 98 17 74 
31 11 37 24 73 3 30 74 104 103 91 17 101 
32 11 25 125 79 147 136 113 142 167 176 180 178 
33 11 111 105 72 177 108 45 9 2 44 128 126 
34 11 84 110 51 52 68 98 61 91 42 103 85 
35 11 4 90 18 12 109 93 76 80 82 69 7 
36 11 69 83 153 66 150 7 11 12 75 60 126 
37 11 31 24 74 73 30 3 104 103 91 101 17 
38 11 174 71 141 5 81 170 49 27 65 198 20 
39 11 70 118 164 195 6 127 53 25 125 67 32 
40 11 120 178 16 152 175 112 148 176 160 188 121 
41 11 162 185 149 156 114 97 193 133 190 135 20 
42 11 85 63 97 98 51 77 57 46 190 110 55 
43 8 122 199 197 171 115 163 154 169 
44 11 45 108 138 9 23 177 72 126 159 157 10 
45 11 108 44 9 126 138 23 177 72 33 111 75 
46 11 55 192 77 26 86 56 42 190 85 60 63 
47 11 165 184 116 81 198 170 191 144 172 158 123 
48 11 15 144 123 135 193 114 116 149 184 156 185 
49 11 65 64 170 71 187 38 174 81 141 5 22 
50 11 106 197 124 199 153 43 59 122 83 163 92 
51 11 110 34 84 61 68 98 42 52 97 85 179 
52 11 98 34 91 110 84 103 30 51 73 3 63 
53 11 6 127 13 39 118 195 70 100 164 189 54 
54 11 189 27 129 29 137 99 22 174 13 71 38 
55 11 192 46 77 26 56 86 60 11 190 42 85 
56 11 60 26 86 62 11 7 109 18 12 66 77 
57 11 63 85 86 98 77 42 17 3 62 91 46 
58 11 87 101 8 74 104 37 31 24 17 3 73 
59 11 106 163 169 80 50 154 43 171 197 122 199 
60 11 11 7 66 26 56 12 192 62 18 109 55 
61 11 68 179 51 48 15 110 84 78 145 132 97 
62 11 109 18 56 86 90 12 60 7 82 11 26 
63 11 85 57 42 98 77 86 46 91 52 55 192 
64 11 49 65 187 170 71 22 38 196 81 174 172 
65 11 49 64 71 170 22 38 187 174 81 141 5 
66 11 7 11 60 36 12 69 26 56 18 109 153 
67 10 117 119 94 130 125 142 164 70 25 32 
68 11 61 179 84 51 110 34 132 145 78 15 48 
69 11 36 153 83 66 7 12 11 150 35 60 18 
70 11 164 39 118 195 125 25 67 32 119 94 117 
71 11 38 174 141 5 49 65 81 170 27 64 22 
72 11 177 111 9 128 166 107 140 146 194 33 44 
73 11 30 3 91 31 37 103 24 17 104 52 74 
74 11 101 37 31 24 58 104 8 73 3 30 17 
75 11 150 23 126 83 36 21 108 45 66 44 69 
76 11 82 93 19 90 4 35 18 109 62 12 80 
77 11 46 192 55 26 86 56 85 63 57 42 60 
78 11 145 151 132 158 15 184 168 179 116 144 191 
79 11 147 136 113 180 32 178 176 148 25 142 167 
80 11 4 35 59 106 93 50 153 19 76 90 69 
81 11 5 141 170 38 198 165 47 174 71 116 20 
82 11 76 90 93 19 109 18 62 35 4 12 17 
83 11 150 36 153 69 75 126 50 66 92 124 7 
84 11 34 110 51 68 52 61 98 179 42 91 103 
85 11 63 42 57 98 77 46 86 51 110 55 192 
86 11 56 62 57 77 109 26 192 55 60 46 63 
87 11 58 8 104 101 74 17 82 37 31 19 76 
88 7 28 134 155 171 154 115 122 
89 11 121 16 148 120 186 40 180 173 178 113 136 
90 11 18 109 35 82 12 62 76 4 93 7 56 
91 11 30 73 3 103 52 98 31 37 24 17 63 
92 8 143 124 197 199 183 2 105 182 
93 11 19 76 4 82 35 90 80 18 109 12 62 
94 10 119 142 130 117 125 67 173 113 32 136 
95 11 100 131 10 102 161 127 21 181 195 138 167 
96 11 22 65 64 49 27 71 13 38 174 54 187 
97 11 41 162 149 190 185 193 114 156 42 133 48 
98 11 52 85 63 110 91 51 34 42 57 84 30 
99 11 189 14 54 29 137 129 95 27 100 133 21 
100 11 95 131 127 102 195 161 10 118 167 189 181 
101 11 74 58 24 37 31 8 104 87 73 3 30 
102 11 10 161 181 131 188 167 157 139 152 175 159 
103 11 30 91 73 24 52 31 37 3 98 74 34 
104 11 17 8 3 31 37 74 73 58 87 30 24 
105 8 2 33 143 92 183 182 111 124 
106 11 50 59 197 43 80 163 199 153 169 124 122 
107 11 166 140 128 194 146 186 121 16 120 72 177 
108 11 45 44 126 9 138 23 177 72 33 75 111 
109 11 18 62 90 12 56 7 35 86 82 60 11 
110 11 34 51 84 52 98 68 61 42 85 91 63 
111 11 72 177 33 128 9 166 107 140 146 194 45 
112 11 160 152 175 139 188 40 120 181 157 159 16 
113 11 136 180 147 79 173 142 148 178 32 176 125 
114 11 193 149 185 135 156 123 48 162 41 144 20 
115 3 122 199 43 
116 11 184 47 144 165 123 15 135 198 48 158 81 
117 10 119 67 130 94 142 125 32 173 25 113 
118 11 195 39 70 164 127 6 25 125 32 161 53 
119 10 94 117 67 130 142 125 32 25 113 173 
120 11 16 40 186 121 160 112 178 152 175 148 89 
121 11 89 16 186 120 40 148 140 194 146 178 107 
122 6 43 115 171 199 134 155 
123 11 135 144 48 193 114 15 116 149 198 156 184 
124 9 197 199 143 92 43 115 50 122 183 
125 11 32 25 142 79 147 136 94 113 119 167 180 
126 11 150 108 45 75 83 44 23 92 33 36 138 
127 11 6 53 100 118 195 39 95 70 164 13 131 
128 11 166 107 140 146 194 72 177 186 111 9 121 
129 11 137 27 29 174 141 133 5 38 20 54 71 
130 10 117 94 119 67 142 173 125 113 136 180 
131 11 95 10 102 100 161 181 138 157 188 159 139 
132 7 145 168 78 151 179 158 15 
133 11 162 156 185 20 41 137 29 149 129 114 193 
134 7 155 28 88 171 122 115 154 
135 11 123 144 193 114 48 149 15 156 116 198 185 
136 11 113 147 79 180 148 173 178 142 32 176 25 
137 11 129 29 133 27 20 174 141 5 38 54 71 
138 11 44 10 159 157 9 181 45 139 108 23 102 
139 11 112 160 188 152 175 157 181 159 40 120 16 
140 11 107 166 194 146 128 186 16 121 120 160 112 
141 11 5 38 174 81 71 198 20 170 165 47 27 
142 10 113 94 136 173 125 32 79 147 180 119 
143 7 92 124 183 199 182 2 197 
144 11 123 135 48 15 116 184 193 114 198 47 149 
145 10 78 132 151 168 158 179 15 184 191 116 
146 11 194 140 166 107 186 16 128 160 120 112 159 
147 11 79 136 113 180 178 176 148 32 173 142 167 
148 11 180 178 113 136 173 147 40 79 89 176 120 
149 11 114 193 185 156 41 162 135 123 48 144 20 
150 11 75 83 126 36 69 23 153 66 108 45 11 
151 7 158 145 191 78 168 132 184 
152 11 175 188 112 139 160 181 40 176 120 157 178 
153 11 69 36 83 50 106 150 12 66 7 35 80 
154 9 169 171 163 155 122 43 134 88 115 
155 7 134 28 88 171 122 154 115 
156 11 185 114 149 193 162 20 41 135 133 123 198 
157 11 159 139 181 160 112 188 152 175 10 146 102 
158 8 151 191 78 184 145 172 47 116 
159 11 157 139 181 160 112 188 152 175 146 194 10 
160 11 112 139 152 175 188 120 157 159 40 16 181 
161 11 167 102 176 181 188 152 175 25 79 178 32 
162 11 41 185 156 149 114 133 193 97 20 135 190 
163 10 169 154 171 43 122 155 59 134 199 106 
164 11 70 39 118 195 125 25 67 32 119 94 117 
165 11 47 184 116 81 170 172 191 198 158 144 5 
166 11 107 140 128 194 146 186 72 177 16 121 9 
167 11 176 161 79 147 178 32 188 25 175 152 136 
168 5 132 151 145 78 158 
169 10 163 154 171 43 122 155 134 59 115 199 
170 11 81 49 165 38 47 5 71 141 65 174 64 
171 8 154 163 169 122 155 43 134 115 
172 7 191 196 165 158 47 170 187 
173 10 180 113 136 148 142 147 79 178 89 32 
174 11 38 141 5 71 81 27 170 129 198 49 20 
175 11 152 188 112 139 160 181 40 176 120 178 157 
176 11 178 167 147 79 40 175 152 188 136 148 180 
177 11 72 9 111 128 166 107 146 140 194 44 33 
178 11 176 40 148 147 180 79 136 120 113 175 152 
179 11 61 78 132 145 68 15 48 144 168 151 123 
180 11 148 113 136 173 147 79 178 142 176 40 89 
181 11 188 139 157 152 175 159 112 160 102 10 161 
182 4 183 115 143 2 
183 4 182 143 115 2 
184 11 116 47 165 144 15 158 123 191 135 198 48 
185 11 156 149 114 162 193 41 20 135 133 123 198 
186 11 16 120 121 194 140 146 107 40 160 89 166 
187 8 196 64 49 65 172 170 165 191 
188 11 152 175 139 112 181 160 157 159 176 40 120 
189 11 54 99 29 129 27 137 13 100 14 127 95 
190 11 41 162 97 133 185 156 149 114 193 46 42 
191 7 158 172 151 165 184 47 116 
192 11 55 46 77 26 56 86 60 11 190 42 85 
193 11 114 149 135 185 156 123 48 144 162 41 15 
194 11 146 140 166 107 186 16 128 160 120 121 112 
195 11 118 70 164 39 25 127 161 125 32 167 100 
196 4 187 172 191 64 
197 8 199 124 43 122 50 115 143 92 
198 11 20 81 5 141 123 135 116 47 144 165 184 
199 6 197 43 124 122 115 143 
DEPOT_SECTION
   1
   -1
EOF
