NAME :  X-n237-kX-w23-c7.cctp
COMMENT : 	Adapted by Maziero, Usberti and Cavellucci from the Uchoa, Pecin, Pessoa, Poggi, Subramanian, and Vidal (2013)
TYPE :  CCTP
DIMENSION :    137
EDGE_WEIGHT_TYPE : 	EUC_2D	
CAPACITY : 	18
VERTICES_WITHIN_COVERAGE :  7
VERTICES_WITH_DEMAND : 	23
NODE_COORD_SECTION
1 0 0
2 80 386
3 521 652
4 597 936
5 836 69
6 503 987
7 618 169
8 115 662
9 312 175
10 78 83
11 364 317
12 12 454
13 980 537
14 403 383
15 144 443
16 739 464
17 886 511
18 904 106
19 794 539
20 821 608
21 781 347
22 336 490
23 101 736
24 365 68
25 282 286
26 54 50
27 651 264
28 5 651
29 867 449
30 75 82
31 522 8
32 833 699
33 881 677
34 536 593
35 99 113
36 120 133
37 428 231
38 569 117
39 865 639
40 708 9
41 511 977
42 956 568
43 431 929
44 913 42
45 854 504
46 236 176
47 377 404
48 380 468
49 620 146
50 675 114
51 556 640
52 99 777
53 920 116
54 846 384
55 757 593
56 264 448
57 555 181
58 738 446
59 102 787
60 490 45
61 883 547
62 971 638
63 256 227
64 489 411
65 514 866
66 7 118
67 27 21
68 695 395
69 20 546
70 379 259
71 686 273
72 157 499
73 649 934
74 999 236
75 978 479
76 440 534
77 26 411
78 114 126
79 661 528
80 695 420
81 172 317
82 116 701
83 940 438
84 824 136
85 837 507
86 542 708
87 808 413
88 68 374
89 593 651
90 71 712
91 918 629
92 165 731
93 285 379
94 788 366
95 33 507
96 597 983
97 799 35
98 414 697
99 529 178
100 118 484
101 349 554
102 591 189
103 807 670
104 163 621
105 245 24
106 960 27
107 139 44
108 281 434
109 684 501
110 284 414
111 57 354
112 306 107
113 952 66
114 806 277
115 782 700
116 951 550
117 710 44
118 407 191
119 629 133
120 608 911
121 760 125
122 727 517
123 73 420
124 637 903
125 676 550
126 933 456
127 846 181
128 344 992
129 28 667
130 439 245
131 891 450
132 156 734
133 390 441
134 505 517
135 923 66
136 313 79
137 631 889
DEMAND_SECTION
2 1
3 1
4 1
5 1
6 1
7 1
8 1
9 1
10 1
11 1
12 1
13 1
14 1
15 1
16 1
17 1
18 1
19 1
20 1
21 1
22 1
23 1
24 1
COVERAGE_SECTION
2 7 88 123 111 77 15 12 100 
3 4 51 86 34 89 
4 6 120 96 73 124 137 41 
5 6 97 84 18 44 135 121 
6 6 41 43 96 4 65 120 
7 7 49 102 119 57 38 50 99 
8 6 82 104 90 23 132 92 
9 6 112 46 63 118 136 70 
10 7 30 35 26 78 36 107 66 
11 7 70 14 25 47 93 130 37 
12 7 77 95 123 69 2 88 100 
13 7 116 42 75 126 17 61 62 
14 7 47 133 11 48 64 93 110 
15 5 100 72 123 2 88 
16 7 58 122 80 109 68 87 19 
17 7 45 61 85 131 29 126 116 
18 7 53 135 113 44 5 84 127 
19 7 85 55 45 122 20 61 16 
20 7 39 103 55 19 61 33 32 
21 6 94 87 114 54 68 58 
22 7 48 101 133 108 56 110 47 
23 7 82 90 52 59 132 92 8 
24 6 136 112 9 60 105 118 
25 4 63 11 93 70 
26 7 30 67 10 35 66 107 78 
27 4 71 102 7 49 
28 4 129 90 69 8 
29 7 131 45 17 85 126 54 87 
30 7 10 26 35 78 36 107 66 
31 5 60 38 119 24 49 
32 6 103 115 33 39 20 91 
33 6 39 32 91 103 20 62 
34 5 51 3 89 134 76 
35 5 78 36 10 30 26 
36 4 78 35 10 30 
37 4 130 118 70 11 
38 6 49 119 57 7 99 102 
39 6 33 20 91 103 32 61 
40 7 117 97 50 121 5 119 49 
41 6 6 96 43 4 65 120 
42 7 116 13 62 91 61 17 75 
43 4 6 41 65 128 
44 7 135 113 106 18 53 5 97 
45 7 85 17 61 29 131 19 126 
46 4 63 9 112 25 
47 7 14 133 48 11 110 22 93 
48 7 133 22 47 14 76 101 108 
49 7 119 7 102 38 50 57 99 
50 5 119 49 117 7 121 
51 4 3 89 34 86 
52 4 59 23 90 132 
53 7 18 135 113 44 5 84 106 
54 6 87 94 29 21 131 83 
55 5 19 20 122 103 125 
56 4 108 110 93 22 
57 6 99 102 7 38 49 119 
58 7 16 80 68 122 87 109 94 
59 4 52 23 132 90 
60 5 31 38 24 99 57 
61 7 17 45 85 116 42 20 19 
62 7 91 42 116 33 13 39 61 
63 3 46 25 9 
64 5 14 133 134 47 48 
65 3 43 120 4 
66 5 30 10 26 35 67 
67 7 26 30 10 66 107 35 78 
68 7 80 58 16 94 21 109 87 
69 3 95 12 28 
70 4 37 11 130 118 
71 3 27 21 114 
72 2 100 15 
73 5 124 120 137 4 96 
74 3 53 18 127 
75 7 126 83 13 116 42 131 17 
76 7 134 48 101 133 22 34 64 
77 7 12 123 88 2 111 95 100 
78 5 36 35 10 30 107 
79 4 125 109 122 16 
80 7 68 58 16 109 122 94 21 
81 2 25 2 
82 6 23 8 90 132 92 52 
83 6 126 131 75 29 17 13 
84 4 127 121 5 18 
85 7 45 17 19 61 29 131 87 
86 3 3 51 89 
87 7 54 94 29 21 58 16 131 
88 7 2 111 123 77 12 15 81 
89 3 51 3 86 
90 7 23 82 129 8 52 59 132 
91 7 39 62 33 42 116 61 20 
92 3 132 82 23 
93 6 110 108 56 25 47 11 
94 7 21 87 54 114 58 68 80 
95 4 69 12 100 77 
96 7 4 73 120 41 124 6 137 
97 6 5 117 40 121 84 44 
98 2 3 86 
99 5 57 102 38 7 49 
100 3 72 15 123 
101 3 22 48 76 
102 7 7 57 49 99 119 38 27 
103 6 32 115 20 39 33 55 
104 1 8 
105 5 136 112 107 24 46 
106 7 113 44 135 18 53 5 97 
107 6 10 30 35 26 78 36 
108 5 110 56 93 22 47 
109 6 79 122 125 16 58 80 
110 5 108 93 56 22 47 
111 6 88 2 77 123 12 81 
112 6 136 9 24 46 105 63 
113 7 135 106 44 53 18 5 84 
114 3 21 94 127 
115 6 103 32 20 33 39 55 
116 7 42 13 61 17 75 91 62 
117 6 40 50 97 121 119 5 
118 4 37 130 70 9 
119 6 49 7 50 38 102 57 
120 5 4 124 137 73 96 
121 3 84 50 5 
122 6 109 16 125 79 19 58 
123 7 2 88 77 111 12 15 100 
124 4 137 120 73 4 
125 5 79 109 122 55 16 
126 6 83 131 75 29 17 45 
127 3 84 18 53 
128 3 43 6 41 
129 5 28 90 8 82 23 
130 4 37 70 118 11 
131 7 29 126 83 17 45 85 54 
132 4 92 82 23 52 
133 7 48 47 14 22 64 76 108 
134 6 76 34 64 51 48 3 
135 7 44 113 18 53 106 5 84 
136 6 112 24 105 9 46 118 
137 4 124 120 73 4 
DEPOT_SECTION
   1
   -1
EOF
