NAME :  X-n219-kX-w21-c9.cctp
COMMENT : 	Adapted by Maziero, Usberti and Cavellucci from the Uchoa, Pecin, Pessoa, Poggi, Subramanian, and Vidal (2013)
TYPE :  CCTP
DIMENSION :    150
EDGE_WEIGHT_TYPE : 	EUC_2D	
CAPACITY : 	3
VERTICES_WITHIN_COVERAGE :  9
VERTICES_WITH_DEMAND : 	21
NODE_COORD_SECTION
1 0 0
2 18 761
3 835 397
4 299 16
5 31 168
6 142 257
7 242 984
8 612 357
9 663 812
10 105 188
11 487 636
12 993 703
13 672 148
14 506 259
15 953 706
16 888 203
17 107 534
18 772 692
19 475 182
20 828 775
21 719 220
22 655 722
23 844 197
24 918 600
25 739 102
26 989 936
27 935 602
28 44 72
29 163 416
30 722 397
31 317 903
32 547 95
33 935 192
34 128 376
35 908 176
36 720 226
37 738 793
38 791 498
39 712 751
40 530 693
41 634 301
42 47 557
43 48 202
44 535 216
45 828 214
46 829 352
47 623 473
48 374 1000
49 74 187
50 726 789
51 51 597
52 894 395
53 301 893
54 978 261
55 709 153
56 391 153
57 876 370
58 846 725
59 604 107
60 507 89
61 476 204
62 181 957
63 948 710
64 414 685
65 358 66
66 5 468
67 459 43
68 555 414
69 94 964
70 558 360
71 641 424
72 25 205
73 5 686
74 400 682
75 501 234
76 817 643
77 223 584
78 206 549
79 542 691
80 296 10
81 9 553
82 411 59
83 824 612
84 608 727
85 481 574
86 169 950
87 36 459
88 10 569
89 569 627
90 692 467
91 166 178
92 508 327
93 158 986
94 983 244
95 637 109
96 177 207
97 361 972
98 932 452
99 60 66
100 252 267
101 944 435
102 900 168
103 583 871
104 387 253
105 812 354
106 590 575
107 930 128
108 832 466
109 32 531
110 31 40
111 162 539
112 621 425
113 802 495
114 769 329
115 64 106
116 854 678
117 943 122
118 103 285
119 398 212
120 43 108
121 400 255
122 935 851
123 179 147
124 822 749
125 60 32
126 783 760
127 218 360
128 403 172
129 32 134
130 44 456
131 430 570
132 896 875
133 509 572
134 914 852
135 984 435
136 479 341
137 207 937
138 709 700
139 557 130
140 270 964
141 482 320
142 60 761
143 836 272
144 413 327
145 509 379
146 819 754
147 176 910
148 648 809
149 640 892
150 552 232
DEMAND_SECTION
2 1
3 1
4 1
5 1
6 1
7 1
8 1
9 1
10 1
11 1
12 1
13 1
14 1
15 1
16 1
17 1
18 1
19 1
20 1
21 1
22 1
COVERAGE_SECTION
2 3 142 73 51 
3 9 46 57 105 52 108 114 113 38 98 
4 8 80 65 82 67 56 123 128 91 
5 9 129 72 43 49 120 115 10 28 99 
6 9 118 96 10 91 49 43 100 123 34 
7 9 140 137 62 86 93 147 53 31 97 
8 9 70 41 112 71 68 145 92 30 47 
9 9 148 50 37 39 149 22 103 84 138 
10 9 49 43 91 96 5 6 72 123 129 
11 9 85 133 40 79 89 131 64 74 106 
12 9 15 63 27 24 116 58 122 134 124 
13 8 55 95 59 25 21 36 139 32 
14 9 75 44 150 61 141 92 19 136 121 
15 9 63 12 116 27 58 24 124 146 20 
16 9 35 102 23 33 45 107 143 117 94 
17 9 111 42 109 51 78 81 130 87 88 
18 9 138 76 126 124 146 58 116 39 83 
19 9 61 75 44 128 14 119 56 150 139 
20 9 146 124 126 58 37 18 116 50 134 
21 9 36 55 13 45 41 25 114 23 143 
22 9 84 138 39 148 9 50 37 79 18 
23 7 45 16 102 35 143 33 107 
24 7 27 83 116 76 15 63 12 
25 4 55 13 95 21 
26 4 122 132 134 20 
27 7 24 15 63 83 116 12 76 
28 8 99 110 120 115 125 129 5 49 
29 6 34 127 111 130 17 87 
30 8 90 114 71 105 112 3 46 8 
31 6 53 140 97 7 48 137 
32 9 139 60 59 95 67 19 44 61 13 
33 8 35 102 16 107 117 94 54 23 
34 6 29 127 118 130 6 87 
35 8 102 33 16 107 117 23 45 94 
36 9 21 55 13 45 41 114 25 143 23 
37 9 50 39 126 9 146 148 20 124 138 
38 7 113 108 90 3 83 30 52 
39 9 50 37 138 22 126 9 18 148 84 
40 9 79 11 89 84 64 133 22 85 74 
41 9 8 70 150 36 21 71 112 92 30 
42 9 109 81 88 51 17 66 87 130 111 
43 9 72 49 5 10 129 120 115 118 6 
44 9 150 75 14 61 19 139 92 141 32 
45 8 23 143 16 102 35 21 33 36 
46 8 105 3 57 114 52 143 108 30 
47 7 112 71 90 68 106 8 30 
48 5 97 140 31 53 7 
49 9 43 10 5 72 129 115 120 91 6 
50 9 37 39 126 9 148 138 22 146 20 
51 7 42 88 81 109 17 73 111 
52 8 57 3 101 98 46 105 108 135 
53 6 31 140 97 137 7 147 
54 8 94 33 16 35 102 107 143 117 
55 7 13 25 21 36 95 59 45 
56 9 128 119 19 65 82 61 104 121 67 
57 8 52 3 46 105 101 98 108 143 
58 9 124 146 116 20 126 18 76 63 15 
59 9 95 139 32 13 60 55 44 25 150 
60 9 32 139 67 19 59 82 61 44 56 
61 9 19 75 44 14 119 128 150 121 56 
62 9 86 137 93 147 7 69 140 53 31 
63 9 15 12 116 58 27 24 124 20 146 
64 4 74 11 40 131 
65 9 82 4 80 56 67 128 60 119 19 
66 8 87 130 109 81 42 88 17 51 
67 9 82 60 32 65 56 139 19 128 59 
68 9 70 145 112 8 71 47 92 136 141 
69 8 93 86 62 147 137 7 140 142 
70 9 145 8 68 92 136 141 112 41 71 
71 7 112 47 90 8 30 68 70 
72 9 43 5 49 129 10 120 115 118 6 
73 6 2 142 51 88 81 42 
74 3 64 11 131 
75 9 14 44 61 150 19 141 92 121 119 
76 8 83 116 18 58 124 24 146 126 
77 3 78 111 17 
78 4 77 111 17 29 
79 9 40 89 84 11 22 133 106 64 85 
80 8 4 65 82 67 56 123 128 91 
81 9 88 109 42 51 66 87 17 130 73 
82 9 67 65 56 60 128 4 80 19 32 
83 8 76 116 18 24 27 58 38 113 
84 9 22 79 40 148 9 138 39 89 50 
85 6 133 131 11 89 106 40 
86 9 62 93 137 147 69 7 140 53 31 
87 8 130 66 109 81 42 17 88 34 
88 9 81 42 109 51 66 17 87 73 130 
89 8 106 79 40 133 11 85 84 22 
90 7 71 47 30 112 38 113 8 
91 9 96 123 10 6 49 43 100 118 115 
92 9 141 136 145 70 14 75 144 68 150 
93 9 62 86 69 137 147 7 140 53 31 
94 7 54 33 35 16 102 107 117 
95 9 59 13 139 55 32 25 60 21 36 
96 9 91 123 6 10 100 49 118 43 5 
97 5 48 31 140 53 7 
98 6 101 135 52 57 108 3 
99 8 28 125 110 115 120 129 5 49 
100 6 96 127 6 91 104 123 
101 6 98 135 52 57 3 108 
102 7 35 16 33 107 23 117 45 
103 3 149 148 9 
104 8 121 119 144 128 56 61 19 75 
105 9 46 3 114 57 143 52 30 108 45 
106 8 89 133 47 85 11 79 40 90 
107 5 117 102 35 33 16 
108 7 113 38 3 52 98 57 46 
109 8 42 81 88 51 66 87 17 130 
110 8 125 28 99 120 115 129 5 49 
111 7 78 17 77 42 29 51 109 
112 8 71 47 68 8 90 70 30 145 
113 7 38 108 3 90 83 30 52 
114 9 105 46 30 143 3 36 57 21 45 
115 9 120 28 99 129 5 110 125 49 10 
116 9 58 76 83 124 18 146 63 20 24 
117 5 107 102 35 33 16 
118 9 6 34 10 43 49 96 72 91 5 
119 9 128 104 121 56 61 19 75 144 14 
120 9 115 129 28 99 5 110 125 49 43 
121 8 104 119 144 128 61 56 75 19 
122 7 134 132 26 20 63 15 146 
123 8 91 96 10 49 6 115 100 120 
124 9 146 20 58 126 18 116 37 50 76 
125 8 110 99 28 115 120 129 5 49 
126 9 146 124 20 37 50 18 39 58 138 
127 4 29 34 100 6 
128 9 56 119 19 61 104 121 82 65 75 
129 9 120 5 115 28 49 43 72 99 10 
130 8 87 66 109 17 42 81 34 88 
131 4 85 133 11 64 
132 4 134 122 26 20 
133 7 85 11 131 89 106 40 79 
134 7 122 132 26 20 146 124 58 
135 6 101 98 52 57 3 108 
136 9 141 92 145 144 70 14 68 75 121 
137 9 62 86 147 7 93 140 53 31 69 
138 9 39 22 18 50 126 37 84 9 76 
139 9 32 59 60 95 44 19 150 61 13 
140 9 7 137 31 53 62 97 86 147 48 
141 9 136 92 145 14 144 70 75 121 150 
142 2 2 73 
143 9 45 23 46 105 16 114 57 35 102 
144 7 136 141 121 104 92 145 14 
145 9 136 92 70 68 141 8 144 14 112 
146 9 124 20 126 58 18 116 37 50 39 
147 8 86 137 62 93 69 7 140 53 
148 8 9 50 149 39 22 103 37 84 
149 3 103 9 148 
150 9 44 75 14 61 19 139 92 41 141 
DEPOT_SECTION
   1
   -1
EOF
