NAME :  X-n223-kX-w44-c7.cctp
COMMENT : 	Adapted by Maziero, Usberti and Cavellucci from the Uchoa, Pecin, Pessoa, Poggi, Subramanian, and Vidal (2013)
TYPE :  CCTP
DIMENSION :    163
EDGE_WEIGHT_TYPE : 	EUC_2D	
CAPACITY : 	37
VERTICES_WITHIN_COVERAGE :  7
VERTICES_WITH_DEMAND : 	44
NODE_COORD_SECTION
1 284 167
2 6 711
3 874 746
4 483 894
5 733 189
6 336 29
7 488 684
8 825 903
9 98 412
10 206 306
11 497 641
12 499 745
13 481 40
14 500 390
15 851 268
16 51 278
17 805 796
18 554 771
19 576 984
20 734 251
21 325 414
22 658 81
23 279 467
24 1000 804
25 124 148
26 554 594
27 645 168
28 4 965
29 614 267
30 939 719
31 935 800
32 109 154
33 31 554
34 960 512
35 489 840
36 377 684
37 945 808
38 720 165
39 226 34
40 73 255
41 748 344
42 774 514
43 143 893
44 168 461
45 164 493
46 631 533
47 833 284
48 746 100
49 252 839
50 894 472
51 944 597
52 371 28
53 552 186
54 610 541
55 578 665
56 749 655
57 898 974
58 274 972
59 520 642
60 914 373
61 610 738
62 773 602
63 752 74
64 729 90
65 464 658
66 964 397
67 388 732
68 185 51
69 712 144
70 45 437
71 910 738
72 956 879
73 318 560
74 592 913
75 642 564
76 907 240
77 88 186
78 399 931
79 763 180
80 626 876
81 302 689
82 970 490
83 775 574
84 653 667
85 813 999
86 5 980
87 10 249
88 557 816
89 915 680
90 131 722
91 553 946
92 306 260
93 627 26
94 771 398
95 869 585
96 493 282
97 312 212
98 985 939
99 194 262
100 992 698
101 834 844
102 1 651
103 271 893
104 163 503
105 579 761
106 923 502
107 2 469
108 103 284
109 826 222
110 231 82
111 62 272
112 22 273
113 106 897
114 805 267
115 150 793
116 106 129
117 212 590
118 327 114
119 646 219
120 259 282
121 692 298
122 47 944
123 801 272
124 646 242
125 189 387
126 31 339
127 730 188
128 57 143
129 824 259
130 924 237
131 57 338
132 51 217
133 780 316
134 305 615
135 111 271
136 345 763
137 127 979
138 53 950
139 751 295
140 739 331
141 160 970
142 176 57
143 135 211
144 154 988
145 776 143
146 117 953
147 710 173
148 111 270
149 105 225
150 53 438
151 82 228
152 933 313
153 837 214
154 752 302
155 42 300
156 489 208
157 683 398
158 608 548
159 54 335
160 221 117
161 160 835
162 769 226
163 139 843
DEMAND_SECTION
2 6
3 6
4 9
5 2
6 4
7 10
8 2
9 3
10 3
11 1
12 4
13 3
14 8
15 6
16 4
17 4
18 6
19 3
20 5
21 10
22 7
23 3
24 8
25 9
26 2
27 2
28 9
29 2
30 2
31 1
32 2
33 9
34 9
35 1
36 9
37 5
38 9
39 8
40 6
41 2
42 10
43 3
44 10
45 10
COVERAGE_SECTION
2 2 102 90 
3 7 71 30 89 31 17 37 101 
4 7 35 91 78 88 74 19 18 
5 7 127 38 147 79 69 162 20 
6 7 52 118 39 110 13 160 68 
7 7 65 11 59 12 55 18 36 
8 7 101 85 57 17 72 31 37 
9 5 150 70 44 131 159 
10 3 99 120 125 
11 7 59 65 7 26 55 12 36 
12 7 18 7 105 88 65 35 11 
13 7 52 6 93 53 156 118 22 
14 7 96 29 21 156 157 54 158 
15 7 47 129 114 123 109 153 76 
16 6 111 155 112 40 87 108 
17 7 101 3 8 71 31 37 56 
18 7 105 88 12 61 35 7 55 
19 7 91 74 80 4 35 88 78 
20 6 162 139 154 5 121 127 
21 7 23 125 73 120 92 10 44 
22 7 93 64 69 27 48 63 38 
23 7 21 73 44 45 125 104 117 
24 7 37 31 72 30 100 71 98 
25 5 32 116 77 143 128 
26 7 59 158 11 55 54 75 46 
27 7 119 147 69 124 38 127 22 
28 3 86 122 138 
29 7 124 119 121 53 27 20 96 
30 7 71 89 100 3 31 37 24 
31 7 37 24 71 3 30 72 101 
32 4 25 116 77 128 
33 7 107 102 70 150 104 45 9 
34 7 82 106 50 51 66 95 60 
35 7 4 88 18 12 105 91 74 
36 7 67 81 136 65 134 7 11 
37 7 31 24 72 71 30 3 101 
38 7 147 69 127 5 79 145 48 
39 7 68 110 142 160 6 118 52 
40 7 111 151 16 135 148 108 132 
41 5 140 154 133 139 94 
42 7 83 62 94 95 50 75 56 
43 5 113 163 161 146 141 
44 7 45 104 125 9 23 150 70 
45 7 104 44 9 117 125 23 150 
46 7 54 158 75 26 84 55 42 
47 5 15 129 114 123 109 
48 6 64 63 145 69 38 147 
49 7 103 161 115 163 136 43 58 
50 7 106 34 82 60 66 95 42 
51 7 95 34 89 106 82 100 30 
52 7 6 118 13 39 110 160 68 
53 7 156 27 119 29 124 96 22 
54 7 158 46 75 26 55 84 59 
55 7 59 26 84 61 11 7 105 
56 7 62 83 84 95 75 42 17 
57 7 85 98 8 72 101 37 31 
58 7 103 141 144 78 49 137 43 
59 7 11 7 65 26 55 12 158 
60 7 66 152 50 47 15 106 82 
61 7 105 18 55 84 88 12 59 
62 7 83 56 42 95 75 84 46 
63 6 48 64 145 69 22 38 
64 6 48 63 69 145 22 38 
65 7 7 11 59 36 12 67 26 
66 6 60 152 82 50 106 34 
67 7 36 136 81 65 7 12 11 
68 6 142 39 110 160 116 25 
69 7 38 147 127 5 48 64 79 
70 4 150 107 9 126 
71 7 30 3 89 31 37 100 24 
72 7 98 37 31 24 57 101 8 
73 7 134 23 117 81 36 21 104 
74 7 80 91 19 88 4 35 18 
75 7 46 158 54 26 84 55 83 
76 3 130 15 153 
77 3 32 151 149 
78 7 4 35 58 103 91 49 136 
79 5 5 127 145 38 162 
80 7 74 88 91 19 105 18 61 
81 7 134 36 136 67 73 117 49 
82 7 34 106 50 66 51 60 95 
83 7 62 42 56 95 75 46 84 
84 7 55 61 56 75 105 26 158 
85 7 57 8 101 98 72 17 80 
86 4 28 122 138 146 
87 6 112 16 132 111 155 40 
88 7 18 105 35 80 12 61 74 
89 7 30 71 3 100 51 95 31 
90 4 115 161 163 2 
91 7 19 74 4 80 35 88 78 
92 6 97 120 10 99 118 21 
93 7 22 64 63 48 27 69 13 
94 5 41 140 133 157 154 
95 7 51 83 62 106 89 50 34 
96 7 156 14 53 29 124 119 92 
97 6 92 120 118 99 160 10 
98 7 72 57 24 37 31 8 101 
99 3 10 120 143 
100 7 30 89 71 24 51 31 37 
101 7 17 8 3 31 37 72 71 
102 3 2 33 90 
103 7 49 58 161 43 78 141 163 
104 7 45 44 117 9 125 23 150 
105 7 18 61 88 12 55 7 35 
106 7 34 50 82 51 95 66 60 
107 4 70 150 33 9 
108 4 135 148 40 111 
109 5 153 129 114 15 123 
110 7 160 39 68 142 118 6 25 
111 6 16 40 155 112 108 151 
112 7 87 16 155 111 40 132 126 
113 2 43 146 
114 5 123 129 47 15 109 
115 4 161 163 90 43 
116 4 32 25 128 77 
117 7 134 104 45 73 81 44 23 
118 7 6 52 97 110 160 39 92 
119 7 124 27 29 147 127 121 5 
120 5 92 10 99 97 125 
121 7 140 139 154 20 41 124 29 
122 4 138 28 86 146 
123 5 114 129 47 133 15 
124 7 119 29 121 27 20 147 127 
125 4 44 10 9 45 
126 4 159 131 155 16 
127 7 5 38 147 79 69 162 20 
128 2 116 32 
129 6 114 123 47 15 109 153 
130 3 76 152 15 
131 4 159 126 155 16 
132 2 151 40 
133 5 154 139 41 140 123 
134 7 73 81 117 36 67 23 136 
135 3 148 108 40 
136 7 67 36 81 49 103 134 12 
137 7 144 146 141 138 113 43 122 
138 4 122 28 86 146 
139 5 154 133 140 20 41 
140 5 41 154 139 133 121 
141 7 144 137 146 43 113 138 58 
142 6 68 39 110 160 116 25 
143 4 149 77 151 32 
144 7 141 137 146 43 113 138 122 
145 5 79 48 38 5 69 
146 7 137 141 144 113 138 43 122 
147 7 38 127 5 69 79 27 145 
148 3 135 108 40 
149 6 151 143 77 40 148 135 
150 4 70 9 107 131 
151 4 149 40 132 77 
152 6 60 76 130 66 15 47 
153 4 109 129 15 114 
154 5 139 133 140 41 20 
155 6 16 111 112 159 126 131 
156 7 53 96 29 119 27 124 13 
157 7 41 140 94 121 154 139 133 
158 7 54 46 75 26 55 84 59 
159 4 131 126 155 16 
160 6 110 68 142 39 25 118 
161 5 163 115 43 113 49 
162 7 20 79 5 127 114 123 109 
163 4 161 43 115 113 
DEPOT_SECTION
   1
   -1
EOF
