NAME :  X-n266-kX-w53-c11.cctp
COMMENT : 	Adapted by Maziero, Usberti and Cavellucci from the Uchoa, Pecin, Pessoa, Poggi, Subramanian, and Vidal (2013)
TYPE :  CCTP
DIMENSION :    218
EDGE_WEIGHT_TYPE : 	EUC_2D	
CAPACITY : 	35
VERTICES_WITHIN_COVERAGE :  11
VERTICES_WITH_DEMAND : 	53
NODE_COORD_SECTION
1 143 12
2 206 907
3 895 855
4 640 970
5 865 716
6 993 356
7 618 966
8 963 539
9 50 979
10 241 998
11 32 206
12 288 926
13 299 507
14 336 180
15 589 726
16 665 488
17 36 521
18 112 895
19 814 442
20 843 474
21 17 258
22 360 273
23 814 537
24 775 524
25 825 471
26 321 87
27 773 958
28 119 166
29 368 928
30 193 250
31 452 919
32 736 322
33 386 911
34 624 313
35 694 398
36 186 803
37 948 721
38 216 973
39 915 641
40 238 810
41 946 172
42 23 561
43 613 657
44 359 434
45 604 96
46 56 554
47 862 723
48 222 161
49 974 838
50 775 67
51 815 880
52 204 362
53 435 760
54 593 358
55 203 435
56 882 803
57 194 739
58 380 323
59 836 461
60 537 136
61 789 669
62 956 1000
63 98 295
64 656 410
65 580 959
66 594 64
67 459 43
68 262 31
69 522 339
70 960 74
71 237 910
72 353 828
73 420 281
74 721 524
75 185 679
76 703 303
77 923 491
78 444 792
79 987 930
80 113 210
81 907 45
82 383 799
83 209 192
84 34 820
85 464 717
86 837 536
87 202 94
88 177 341
89 551 3
90 835 467
91 128 655
92 988 937
93 179 369
94 487 765
95 975 406
96 365 411
97 440 41
98 607 487
99 57 898
100 161 707
101 0 517
102 210 88
103 524 195
104 682 409
105 608 55
106 16 909
107 846 379
108 183 242
109 586 182
110 948 682
111 324 44
112 339 188
113 629 32
114 589 805
115 934 907
116 848 633
117 890 973
118 98 787
119 964 391
120 171 837
121 261 409
122 637 133
123 541 313
124 946 388
125 818 503
126 887 643
127 981 839
128 585 570
129 383 325
130 288 219
131 707 525
132 56 193
133 120 163
134 304 158
135 104 295
136 66 150
137 184 395
138 39 224
139 277 43
140 380 496
141 620 623
142 367 300
143 347 401
144 435 235
145 242 543
146 321 572
147 625 361
148 651 354
149 673 531
150 379 329
151 348 126
152 75 271
153 859 379
154 747 578
155 257 92
156 78 288
157 257 383
158 343 279
159 668 383
160 686 499
161 298 392
162 347 264
163 321 280
164 691 402
165 59 174
166 592 424
167 667 384
168 108 339
169 312 489
170 382 227
171 84 311
172 378 58
173 88 62
174 198 132
175 76 112
176 591 502
177 689 522
178 327 293
179 292 538
180 171 142
181 696 506
182 234 718
183 430 247
184 727 571
185 614 295
186 803 537
187 765 571
188 270 251
189 327 164
190 218 562
191 127 121
192 769 443
193 821 500
194 310 87
195 770 527
196 232 256
197 410 281
198 147 223
199 352 172
200 208 116
201 440 59
202 256 195
203 294 460
204 752 289
205 728 554
206 660 422
207 857 655
208 228 318
209 607 505
210 634 426
211 331 128
212 459 681
213 364 278
214 395 494
215 134 149
216 79 208
217 193 203
218 381 435
DEMAND_SECTION
2 5
3 5
4 5
5 5
6 6
7 10
8 10
9 10
10 9
11 9
12 5
13 9
14 5
15 6
16 7
17 6
18 10
19 6
20 5
21 10
22 6
23 10
24 7
25 6
26 9
27 5
28 5
29 8
30 7
31 9
32 6
33 10
34 8
35 9
36 7
37 9
38 5
39 9
40 8
41 10
42 8
43 10
44 10
45 8
46 6
47 7
48 9
49 8
50 8
51 9
52 10
53 5
54 10
COVERAGE_SECTION
2 11 71 38 120 12 18 10 40 36 99 118 29 
3 11 56 115 49 51 127 117 79 92 47 5 37 
4 11 7 65 27 114 31 51 15 117 94 33 78 
5 11 47 207 126 37 116 56 61 39 110 3 49 
6 11 119 95 124 153 107 77 8 59 41 20 90 
7 11 4 65 27 114 31 51 33 94 15 78 29 
8 11 77 39 86 126 95 20 110 90 193 119 23 
9 11 106 99 18 84 38 2 120 10 118 71 36 
10 11 38 12 71 2 29 18 33 120 40 9 36 
11 11 138 132 165 216 21 136 152 80 156 28 133 
12 11 71 29 2 10 38 33 72 40 120 82 36 
13 9 169 179 203 145 146 140 44 214 190 
14 11 112 189 199 134 211 151 130 170 202 162 26 
15 8 43 114 141 94 85 212 128 53 
16 11 160 181 177 149 131 98 209 206 74 210 176 
17 10 101 46 42 91 190 55 137 168 145 93 
18 11 99 120 2 106 9 84 118 36 71 38 40 
19 11 59 25 90 20 192 193 125 107 153 24 23 
20 11 90 59 25 193 125 19 86 23 186 192 77 
21 10 138 11 152 156 132 216 171 63 165 135 
22 11 213 162 158 142 178 163 170 197 58 129 150 
23 11 186 86 125 193 24 195 187 25 20 90 59 
24 11 195 186 23 125 187 193 74 205 154 86 184 
25 11 90 59 20 193 19 125 192 86 23 186 24 
26 11 194 211 111 151 139 155 172 134 189 68 199 
27 11 51 117 4 7 3 115 62 56 65 79 92 
28 11 133 215 80 191 136 180 216 165 198 132 175 
29 11 33 12 31 72 82 71 10 78 38 2 40 
30 10 108 196 217 198 83 208 188 202 80 88 
31 11 33 29 78 65 72 82 94 53 12 7 114 
32 11 204 76 35 148 159 164 167 104 34 147 64 
33 11 29 31 72 12 82 78 71 53 10 94 40 
34 11 185 147 148 54 76 123 159 167 64 69 35 
35 11 164 104 159 167 64 206 148 210 147 32 192 
36 11 120 40 57 118 182 100 2 18 71 75 84 
37 11 110 5 47 39 126 56 207 49 127 116 3 
38 11 10 71 2 12 18 120 29 40 9 36 99 
39 11 126 110 207 116 37 5 47 8 61 86 23 
40 11 36 120 57 182 71 2 72 12 100 75 118 
41 11 70 81 6 50 124 119 153 204 107 95 32 
42 10 46 17 101 91 190 75 100 55 145 137 
43 5 141 15 128 149 184 
44 9 218 96 143 140 203 214 169 161 13 
45 9 66 105 122 113 60 109 89 103 67 
46 10 42 17 101 91 190 75 100 145 55 137 
47 11 5 207 56 126 37 61 116 110 39 3 49 
48 11 83 174 200 202 217 180 87 102 155 134 130 
49 11 127 115 3 79 56 92 37 110 117 47 62 
50 11 81 113 122 105 45 66 70 41 109 204 89 
51 11 3 27 56 117 115 47 49 5 127 79 92 
52 10 93 88 137 208 157 55 121 161 168 196 
53 6 78 85 94 82 212 72 
54 11 147 34 148 166 185 123 69 167 159 210 64 
55 11 137 121 93 52 157 203 88 161 145 13 208 
56 11 3 47 5 49 51 37 127 115 110 207 126 
57 9 182 100 75 36 40 120 91 118 2 
58 8 129 150 142 213 197 22 158 73 
59 11 90 20 25 19 193 125 192 86 23 107 186 
60 9 103 109 45 66 122 105 67 201 89 
61 10 116 207 5 47 154 126 187 184 39 205 
62 11 92 117 79 115 3 49 127 51 27 56 37 
63 10 135 156 171 152 168 80 198 21 216 88 
64 11 206 104 210 167 159 164 35 148 147 166 16 
65 11 7 4 31 114 27 33 29 78 94 15 53 
66 11 105 45 113 89 122 60 109 67 103 201 97 
67 9 97 201 172 89 60 111 66 151 26 
68 9 139 155 111 194 102 26 87 200 172 
69 6 123 54 185 34 147 166 
70 11 81 41 50 6 204 124 119 153 107 122 95 
71 11 2 12 38 10 120 40 36 18 29 72 33 
72 11 82 33 78 29 53 40 12 31 71 94 85 
73 9 197 183 144 142 213 129 58 22 150 
74 10 131 181 205 177 160 184 149 195 24 154 
75 9 100 57 91 182 190 36 118 40 145 
76 11 32 204 148 34 159 167 185 35 147 164 104 
77 11 8 20 90 59 86 25 95 193 124 125 119 
78 11 53 94 82 85 72 212 31 33 114 29 15 
79 11 92 115 62 127 49 117 3 56 51 37 27 
80 10 216 198 28 133 132 165 215 152 138 136 
81 11 70 41 50 113 122 204 105 45 66 6 32 
82 10 72 78 53 94 33 85 29 31 212 40 
83 11 217 48 202 108 30 174 180 196 198 200 130 
84 11 118 99 106 18 120 36 9 100 57 91 2 
85 4 212 53 94 78 
86 11 23 186 125 193 20 24 25 195 90 59 187 
87 8 102 200 174 155 180 48 191 68 
88 11 93 52 137 208 168 135 157 63 30 55 171 
89 10 66 105 113 67 45 97 201 60 122 109 
90 11 59 20 25 19 193 125 86 192 23 186 24 
91 10 75 100 57 182 46 190 118 42 36 145 
92 11 79 115 62 127 49 117 3 56 51 27 37 
93 11 52 137 88 55 208 168 157 121 135 63 171 
94 8 78 53 85 212 15 82 114 72 
95 11 119 124 6 77 153 107 8 20 59 90 25 
96 7 143 44 218 161 150 140 203 
97 9 201 67 172 111 89 151 26 60 194 
98 7 209 176 16 166 210 149 160 
99 11 106 18 9 84 118 120 2 36 38 71 40 
100 10 75 57 91 182 36 118 40 120 190 84 
101 10 17 42 46 91 168 55 137 171 190 93 
102 8 87 200 174 155 180 48 68 139 
103 9 60 109 144 183 123 45 122 73 185 
104 11 164 35 64 206 167 159 210 148 147 16 160 
105 11 66 113 45 89 122 60 109 67 103 50 201 
106 11 99 9 84 18 118 120 2 36 38 71 10 
107 11 153 19 59 90 25 20 124 192 119 32 193 
108 10 30 217 198 196 83 80 188 202 208 48 
109 9 103 60 122 45 185 66 105 34 123 
110 11 37 39 126 5 47 207 116 56 8 49 61 
111 11 26 194 139 172 68 155 211 151 97 134 201 
112 11 14 199 189 134 170 130 211 151 162 202 22 
113 11 105 66 45 89 122 60 50 109 67 97 201 
114 11 15 94 78 43 85 65 53 7 4 31 212 
115 11 79 92 3 117 49 127 62 56 51 27 37 
116 11 207 126 39 61 5 47 86 23 187 186 110 
117 11 62 115 92 79 3 27 51 49 127 56 4 
118 11 84 120 36 100 57 18 99 91 75 40 106 
119 11 124 95 6 153 77 107 59 20 8 90 19 
120 11 36 40 2 18 118 71 57 99 100 182 84 
121 10 157 161 203 55 52 137 143 93 169 208 
122 10 45 109 66 105 60 113 103 50 89 185 
123 8 69 54 185 34 147 148 103 166 
124 11 119 95 6 153 107 77 59 20 90 19 25 
125 11 193 25 23 186 20 86 90 59 24 195 19 
126 11 39 207 116 110 5 47 37 61 86 8 23 
127 11 49 115 3 79 92 56 37 110 117 62 47 
128 5 141 176 209 98 43 
129 7 58 150 142 213 197 22 73 
130 11 188 202 112 14 134 189 196 163 162 199 158 
131 10 74 177 181 160 149 205 184 16 195 154 
132 11 165 11 216 138 136 80 28 133 21 152 175 
133 11 28 215 191 80 180 136 216 165 198 175 132 
134 11 189 14 211 112 199 151 202 130 194 26 155 
135 10 63 171 156 152 168 198 80 88 216 21 
136 11 165 175 132 28 133 216 11 191 215 80 138 
137 11 93 52 55 88 157 121 208 168 161 135 203 
138 10 11 132 21 216 165 152 80 156 136 63 
139 11 68 111 155 194 26 102 87 200 211 172 151 
140 5 214 218 44 169 13 
141 7 43 128 149 15 184 209 177 
142 10 213 58 22 129 150 158 162 178 197 163 
143 8 96 44 218 161 150 203 129 58 
144 9 183 73 197 170 213 22 162 142 103 
145 6 190 179 13 146 169 203 
146 3 179 13 169 
147 11 148 54 34 159 167 64 210 185 206 166 104 
148 11 147 159 167 34 64 54 35 164 104 206 185 
149 10 177 181 131 160 16 74 205 184 209 98 
150 6 58 129 142 213 197 22 
151 11 211 189 199 26 134 194 14 112 172 111 155 
152 10 156 63 135 171 21 138 216 80 168 11 
153 11 107 19 59 124 90 20 25 119 192 95 193 
154 10 187 184 205 195 74 24 131 186 23 177 
155 11 102 139 194 87 200 68 26 174 48 134 111 
156 10 152 63 171 135 168 21 138 216 80 11 
157 10 121 161 52 208 137 55 93 203 88 143 
158 10 162 22 178 213 163 142 58 129 150 170 
159 11 167 35 64 104 164 148 206 147 210 54 34 
160 10 181 177 16 131 149 74 205 209 98 206 
161 9 121 157 143 203 96 44 218 169 52 
162 11 22 158 213 163 178 142 170 197 58 129 150 
163 9 178 158 162 22 213 142 188 130 58 
164 11 35 104 159 167 64 206 148 210 147 192 16 
165 11 132 136 216 11 138 28 133 175 80 215 191 
166 9 210 98 54 64 206 147 176 209 167 
167 11 159 64 104 35 164 148 206 147 210 54 34 
168 10 171 135 63 156 88 152 93 137 52 21 
169 9 13 203 179 140 44 146 214 145 218 
170 11 22 162 183 144 213 112 197 199 158 14 73 
171 10 63 156 135 168 152 21 88 138 216 80 
172 11 111 201 26 97 151 194 67 211 139 199 189 
173 8 175 191 136 215 133 28 180 165 
174 11 200 180 48 87 102 83 215 155 217 191 133 
175 10 136 173 191 165 133 28 215 132 216 180 
176 5 209 98 128 16 166 
177 10 181 131 149 160 74 16 205 184 154 195 
178 9 163 158 162 22 213 142 58 150 129 
179 6 13 146 145 169 190 203 
180 11 174 215 200 191 48 133 28 87 83 217 102 
181 10 160 177 131 74 149 16 205 184 195 24 
182 7 57 75 100 40 36 91 120 
183 9 144 73 197 170 213 22 142 162 58 
184 10 205 154 187 74 131 177 195 24 149 181 
185 11 34 54 147 148 123 76 69 159 167 109 64 
186 11 23 24 86 195 125 193 187 154 25 20 90 
187 10 154 184 205 195 24 186 23 74 131 86 
188 11 130 196 202 163 178 30 158 162 208 83 108 
189 11 14 134 199 112 211 151 130 26 202 194 170 
190 7 145 179 13 146 169 75 203 
191 10 215 133 28 180 175 136 173 174 87 200 
192 11 19 25 59 90 125 193 20 24 195 35 164 
193 11 125 25 20 90 23 86 186 59 24 19 195 
194 11 26 111 211 155 151 139 134 68 172 189 199 
195 11 24 186 187 23 74 205 125 154 193 184 131 
196 11 188 30 108 208 202 217 130 83 198 163 48 
197 9 73 183 213 142 22 58 129 144 150 
198 10 80 108 217 30 28 133 83 216 215 135 
199 11 14 112 189 151 211 134 170 130 26 162 194 
200 9 174 87 102 180 48 155 83 191 215 
201 9 97 67 172 151 111 26 60 89 211 
202 11 130 83 48 188 134 217 196 189 14 112 30 
203 11 169 13 121 161 44 179 143 157 96 218 140 
204 11 32 76 148 35 159 167 164 34 107 185 104 
205 10 184 74 154 131 187 177 195 24 181 149 
206 11 64 104 210 164 167 159 35 16 166 148 147 
207 11 116 126 39 5 47 61 110 37 86 187 23 
208 10 52 88 196 93 157 30 188 108 137 121 
209 7 176 98 16 128 149 160 166 
210 11 206 64 166 104 167 159 164 35 147 98 16 
211 11 151 189 134 26 194 199 14 112 155 111 172 
212 2 85 53 
213 11 22 158 142 162 178 163 197 58 129 150 170 
214 4 140 218 44 169 
215 11 133 28 191 180 80 174 136 175 198 165 217 
216 10 132 80 165 138 11 28 136 133 152 198 
217 11 83 108 30 198 48 202 180 196 174 80 215 
218 8 44 96 143 140 214 169 203 161 
DEPOT_SECTION
   1
   -1
EOF
