NAME :  X-n237-kX-w94-c11.cctp
COMMENT : 	Adapted by Maziero, Usberti and Cavellucci from the Uchoa, Pecin, Pessoa, Poggi, Subramanian, and Vidal (2013)
TYPE :  CCTP
DIMENSION :    237
EDGE_WEIGHT_TYPE : 	EUC_2D	
CAPACITY : 	18
VERTICES_WITHIN_COVERAGE :  11
VERTICES_WITH_DEMAND : 	94
NODE_COORD_SECTION
1 0 0
2 80 386
3 521 652
4 597 936
5 836 69
6 503 987
7 618 169
8 115 662
9 312 175
10 78 83
11 364 317
12 12 454
13 980 537
14 403 383
15 144 443
16 739 464
17 886 511
18 904 106
19 794 539
20 821 608
21 781 347
22 336 490
23 101 736
24 365 68
25 618 684
26 282 286
27 311 806
28 557 793
29 54 50
30 651 264
31 619 661
32 156 994
33 950 369
34 183 707
35 673 856
36 5 651
37 867 449
38 946 914
39 75 82
40 522 8
41 573 493
42 833 699
43 881 677
44 201 77
45 536 593
46 67 895
47 99 113
48 120 133
49 428 231
50 701 845
51 190 508
52 431 218
53 626 782
54 113 914
55 569 117
56 865 639
57 708 9
58 511 977
59 104 838
60 229 467
61 956 568
62 431 929
63 615 707
64 913 42
65 854 504
66 236 176
67 377 404
68 380 468
69 590 752
70 620 146
71 616 746
72 675 114
73 556 640
74 99 777
75 12 194
76 920 116
77 846 384
78 525 23
79 199 348
80 813 875
81 757 593
82 573 358
83 264 448
84 132 556
85 289 765
86 246 267
87 245 876
88 235 592
89 648 790
90 378 754
91 636 653
92 555 181
93 738 446
94 130 836
95 882 942
96 102 787
97 669 905
98 490 45
99 883 547
100 971 638
101 256 227
102 775 935
103 489 411
104 826 228
105 514 866
106 129 566
107 7 118
108 415 820
109 161 160
110 27 21
111 695 395
112 64 937
113 121 847
114 770 896
115 264 607
116 174 871
117 20 546
118 986 803
119 379 259
120 728 180
121 686 273
122 133 869
123 157 499
124 784 186
125 649 934
126 999 236
127 670 615
128 978 479
129 646 823
130 193 565
131 440 534
132 26 411
133 114 126
134 661 528
135 946 326
136 223 602
137 695 420
138 172 317
139 116 701
140 940 438
141 732 172
142 824 136
143 837 507
144 125 570
145 773 241
146 542 708
147 441 235
148 808 413
149 68 374
150 582 768
151 220 519
152 593 651
153 71 712
154 26 569
155 918 629
156 165 731
157 941 282
158 285 379
159 227 977
160 788 366
161 33 507
162 597 983
163 299 617
164 799 35
165 414 697
166 529 178
167 235 743
168 118 484
169 349 554
170 477 280
171 591 189
172 743 221
173 807 670
174 163 621
175 874 932
176 245 24
177 960 27
178 139 44
179 45 584
180 281 434
181 684 501
182 284 414
183 20 905
184 80 256
185 57 354
186 306 107
187 167 289
188 952 66
189 862 741
190 240 516
191 806 277
192 782 700
193 82 208
194 951 550
195 710 44
196 537 764
197 407 191
198 629 133
199 608 911
200 760 125
201 727 517
202 295 706
203 679 836
204 73 420
205 637 903
206 297 723
207 55 920
208 676 550
209 933 456
210 812 155
211 326 903
212 846 181
213 116 175
214 344 992
215 28 667
216 439 245
217 891 450
218 224 732
219 156 734
220 390 441
221 663 560
222 115 896
223 655 766
224 210 731
225 42 176
226 505 517
227 923 66
228 490 844
229 342 859
230 210 644
231 313 79
232 399 775
233 79 559
234 876 843
235 631 889
236 182 284
237 471 120
DEMAND_SECTION
2 1
3 1
4 1
5 1
6 1
7 1
8 1
9 1
10 1
11 1
12 1
13 1
14 1
15 1
16 1
17 1
18 1
19 1
20 1
21 1
22 1
23 1
24 1
25 1
26 1
27 1
28 1
29 1
30 1
31 1
32 1
33 1
34 1
35 1
36 1
37 1
38 1
39 1
40 1
41 1
42 1
43 1
44 1
45 1
46 1
47 1
48 1
49 1
50 1
51 1
52 1
53 1
54 1
55 1
56 1
57 1
58 1
59 1
60 1
61 1
62 1
63 1
64 1
65 1
66 1
67 1
68 1
69 1
70 1
71 1
72 1
73 1
74 1
75 1
76 1
77 1
78 1
79 1
80 1
81 1
82 1
83 1
84 1
85 1
86 1
87 1
88 1
89 1
90 1
91 1
92 1
93 1
94 1
95 1
COVERAGE_SECTION
2 11 149 204 185 132 15 12 168 138 79 161 184 
3 11 73 146 45 152 31 25 63 196 91 165 69 
4 11 199 162 125 205 235 97 58 6 105 35 129 
5 11 164 142 18 64 227 210 200 76 212 188 124 
6 11 58 62 162 4 105 199 228 125 205 214 235 
7 11 70 171 198 92 55 72 166 30 120 141 121 
8 11 139 174 153 23 34 219 156 215 144 106 230 
9 11 186 66 101 197 231 119 86 26 24 52 49 
10 11 39 47 29 133 48 178 107 110 213 225 109 
11 11 119 14 26 67 158 216 49 147 170 52 182 
12 11 132 161 204 117 2 149 168 185 154 233 15 
13 11 194 61 128 209 17 99 100 140 155 217 65 
14 11 67 220 11 68 103 158 182 22 119 170 180 
15 11 168 123 204 51 2 60 149 151 79 84 83 
16 11 93 201 137 181 111 148 19 134 143 208 160 
17 11 65 99 143 217 37 209 194 61 140 19 128 
18 11 76 227 188 64 5 142 212 177 210 164 124 
19 11 143 81 65 201 20 99 16 17 93 37 181 
20 11 56 173 81 19 99 43 42 155 192 143 65 
21 11 160 148 191 77 111 145 93 137 121 16 104 
22 11 68 169 220 180 83 182 67 190 60 131 151 
23 11 139 153 74 96 219 156 8 34 215 59 94 
24 11 231 186 237 9 98 176 197 44 52 78 40 
25 11 31 63 91 152 71 69 73 146 127 223 150 
26 11 86 101 11 158 236 119 79 138 9 187 66 
27 11 85 229 206 90 232 87 211 167 202 108 218 
28 11 150 196 69 53 71 228 105 146 89 129 223 
29 11 39 110 10 47 107 178 133 48 225 213 44 
30 11 121 171 7 172 120 70 82 141 145 92 198 
31 11 91 25 152 63 73 127 71 146 69 3 45 
32 11 159 54 222 112 116 207 122 46 87 113 94 
33 11 135 140 157 209 217 77 128 37 126 148 17 
34 11 156 224 219 218 167 139 230 8 23 174 74 
35 11 203 50 129 97 235 205 89 125 199 53 223 
36 11 215 179 154 153 117 8 233 139 23 144 161 
37 11 217 65 17 143 209 77 148 140 99 33 128 
38 11 95 175 234 118 80 102 114 189 42 43 50 
39 11 10 29 47 133 48 178 107 110 225 213 109 
40 11 78 98 55 237 198 24 70 166 92 57 72 
41 11 226 134 45 181 221 103 208 82 131 137 73 
42 11 173 189 192 43 56 20 155 81 234 100 99 
43 11 56 42 155 189 173 20 100 192 99 61 194 
44 11 176 178 109 48 133 66 47 186 231 10 39 
45 11 73 3 152 226 31 41 131 146 91 25 221 
46 11 207 112 183 222 54 59 122 113 94 116 96 
47 11 133 48 10 39 213 29 109 178 225 107 193 
48 11 133 47 213 109 10 39 193 225 178 44 29 
49 11 52 147 216 197 119 170 11 166 237 9 92 
50 11 203 35 129 97 89 235 114 205 223 53 125 
51 11 151 123 190 60 130 84 168 15 106 144 83 
52 11 49 147 216 197 119 170 166 237 11 9 92 
53 11 89 223 71 129 150 69 28 63 203 35 196 
54 11 222 122 46 112 207 113 116 59 94 32 183 
55 11 70 198 92 7 166 171 237 78 72 98 40 
56 11 43 20 155 173 42 99 189 192 100 61 81 
57 11 195 164 72 200 5 198 70 141 120 142 55 
58 11 6 162 62 4 105 199 228 125 205 235 214 
59 11 113 94 122 96 222 74 46 54 116 207 23 
60 11 83 190 151 51 180 182 123 15 130 158 22 
61 11 194 13 100 155 99 17 128 209 56 65 140 
62 11 6 58 228 105 214 211 108 229 232 4 27 
63 11 25 71 31 69 91 152 150 223 146 53 73 
64 11 227 188 177 18 76 5 164 142 210 212 200 
65 11 143 17 99 37 217 19 209 148 194 140 20 
66 11 101 9 109 86 186 44 26 213 236 48 231 
67 11 14 220 68 11 182 22 158 180 103 83 131 
68 11 220 22 67 14 131 169 180 182 83 103 158 
69 11 150 71 53 63 28 196 146 223 89 25 129 
70 11 198 7 171 55 72 92 166 120 141 30 195 
71 11 69 53 63 150 223 89 25 28 196 129 146 
72 11 198 70 195 7 141 120 200 55 57 171 172 
73 11 3 152 45 31 146 25 91 63 69 127 71 
74 11 96 23 59 94 153 219 113 139 156 122 34 
75 11 225 193 107 184 213 47 133 48 10 39 29 
76 11 18 227 188 64 5 142 177 212 210 126 104 
77 11 148 160 37 21 217 33 140 209 191 135 65 
78 11 40 98 55 237 198 70 166 92 24 7 72 
79 11 138 236 187 158 86 26 182 15 83 180 60 
80 11 114 102 234 175 95 50 38 203 35 189 97 
81 11 19 20 201 127 173 208 221 192 134 56 143 
82 11 103 30 170 111 41 137 121 171 14 226 216 
83 11 180 182 60 158 190 22 151 51 68 79 123 
84 11 106 144 233 123 130 174 168 51 179 151 136 
85 11 206 27 167 202 218 224 90 229 232 87 34 
86 11 26 101 236 187 138 66 79 9 158 11 119 
87 11 116 211 27 229 159 122 85 94 113 222 167 
88 11 136 115 130 230 163 151 190 174 51 84 106 
89 11 53 223 129 71 203 69 150 35 50 63 28 
90 11 232 165 108 27 206 85 202 229 167 228 218 
91 11 31 25 152 127 63 73 71 221 69 146 208 
92 11 166 171 7 55 70 198 237 147 170 30 52 
93 11 16 137 111 201 148 181 160 21 19 134 143 
94 11 113 59 122 96 116 222 74 54 46 23 219 
95 11 175 38 80 234 102 114 118 189 50 97 35 
96 11 74 23 59 94 113 219 153 156 139 122 222 
97 11 205 125 235 35 199 50 203 4 129 114 162 
98 11 78 40 237 55 24 166 92 70 198 197 171 
99 11 17 65 143 194 61 20 19 155 56 217 13 
100 11 155 61 194 43 13 56 99 189 42 17 20 
101 11 86 66 26 9 236 187 109 138 119 186 79 
102 11 114 80 175 95 97 50 125 35 234 203 205 
103 11 14 82 220 226 67 41 68 131 170 11 22 
104 11 212 191 145 124 210 172 142 120 141 200 21 
105 11 228 28 62 199 196 4 108 58 150 235 6 
106 11 144 84 233 130 174 123 168 51 179 8 136 
107 11 225 75 39 10 29 47 110 133 48 193 213 
108 11 232 90 228 229 27 105 62 211 165 196 85 
109 11 213 48 133 66 47 44 193 10 39 101 178 
110 11 29 39 10 107 178 47 133 48 225 75 213 
111 11 137 93 16 160 21 181 148 121 201 82 134 
112 11 207 46 54 183 222 122 59 113 32 94 116 
113 11 94 59 122 222 116 96 54 46 74 207 112 
114 11 102 80 50 97 35 203 175 234 95 125 205 
115 11 88 163 136 230 130 190 151 169 174 202 206 
116 11 122 94 113 222 87 54 59 46 96 159 74 
117 11 154 161 179 233 12 36 144 106 84 168 215 
118 11 234 38 189 43 100 175 95 42 80 155 56 
119 11 49 11 216 52 147 197 170 26 9 14 101 
120 11 141 172 124 200 145 72 210 121 142 104 198 
121 11 30 172 145 120 141 21 191 111 7 171 124 
122 11 113 222 94 116 59 54 46 96 207 112 74 
123 11 51 168 15 84 151 106 130 144 60 190 233 
124 11 210 141 172 120 145 104 212 142 200 191 5 
125 11 205 97 199 235 4 162 35 203 50 129 102 
126 11 157 135 33 76 18 212 104 188 227 191 142 
127 11 91 221 208 31 152 25 134 81 63 201 181 
128 11 209 140 13 194 61 217 17 33 37 99 65 
129 11 89 203 35 53 223 50 235 205 71 150 97 
130 11 136 88 151 51 84 106 174 144 190 123 230 
131 11 226 68 169 220 22 45 103 41 3 67 14 
132 11 12 204 149 2 185 161 168 15 117 233 123 
133 11 48 47 213 10 109 39 178 193 225 29 44 
134 11 208 221 181 201 127 41 16 93 137 81 91 
135 11 33 157 126 140 77 209 217 37 191 104 128 
136 11 88 115 230 130 174 163 151 190 51 106 84 
137 11 111 93 16 181 201 160 21 134 148 208 82 
138 11 187 236 79 86 184 26 2 149 185 101 15 
139 11 23 8 153 219 156 34 74 96 174 215 224 
140 11 209 217 128 33 37 17 13 65 77 135 194 
141 11 120 172 124 200 145 72 210 142 104 198 121 
142 11 210 212 124 200 5 18 104 76 141 164 120 
143 11 65 17 19 99 37 217 148 20 16 209 201 
144 11 106 84 233 174 130 123 179 168 51 8 154 
145 11 172 191 104 124 120 141 121 210 212 21 142 
146 11 196 3 69 73 150 63 152 25 71 28 31 
147 11 216 49 52 197 170 119 166 11 237 92 9 
148 11 77 160 37 21 93 16 217 143 65 137 111 
149 11 2 185 204 132 12 15 138 184 168 187 79 
150 11 69 28 71 196 53 63 89 146 223 129 25 
151 11 190 51 60 130 123 88 136 83 84 115 106 
152 11 31 73 25 91 63 3 146 45 127 71 69 
153 11 23 139 215 8 74 96 219 36 156 34 174 
154 11 117 179 233 161 36 215 144 106 84 12 168 
155 11 56 100 43 61 194 99 20 42 13 173 17 
156 11 219 34 224 139 218 23 167 74 96 8 153 
157 11 135 126 33 104 191 77 212 140 76 21 145 
158 11 182 180 83 79 26 67 11 60 14 86 22 
159 11 32 87 214 116 211 54 222 122 229 112 113 
160 11 21 148 77 191 93 111 137 16 37 145 217 
161 11 117 12 154 233 179 168 132 204 84 144 106 
162 11 4 125 199 58 205 6 235 97 105 35 129 
163 11 115 88 136 169 202 230 206 190 130 151 22 
164 11 5 195 57 200 142 64 210 18 227 76 72 
165 11 90 232 3 202 206 108 146 163 196 85 27 
166 11 92 171 55 237 7 70 147 52 198 216 49 
167 11 218 224 85 34 206 202 156 219 27 230 139 
168 11 123 15 84 51 204 106 233 144 161 2 151 
169 11 22 163 68 131 115 190 88 220 151 136 83 
170 11 216 147 49 52 119 197 166 11 82 92 14 
171 11 7 92 70 166 198 55 30 72 121 120 237 
172 11 145 120 141 124 121 104 191 210 200 30 212 
173 11 42 192 20 56 43 189 81 155 19 99 127 
174 11 230 8 136 130 144 106 84 88 34 139 115 
175 11 95 38 80 234 102 114 118 189 50 97 35 
176 11 44 231 186 178 24 66 109 9 48 133 47 
177 11 188 64 227 18 76 5 164 142 212 210 126 
178 11 44 10 39 47 29 133 48 176 110 109 213 
179 11 154 233 117 36 161 144 215 106 84 8 168 
180 11 182 83 158 60 22 190 67 68 151 220 51 
181 11 134 201 208 221 16 93 137 111 41 127 19 
182 11 180 158 83 60 22 67 79 220 68 190 14 
183 11 207 46 112 54 222 59 113 122 94 96 74 
184 11 193 213 225 75 187 185 236 138 149 109 48 
185 11 149 2 132 204 184 12 138 15 187 79 236 
186 11 231 9 24 66 176 44 101 197 109 237 52 
187 11 236 138 79 86 184 101 26 193 213 185 109 
188 11 227 177 64 76 18 5 142 164 212 210 126 
189 11 42 43 173 192 56 234 155 20 118 80 100 
190 11 151 60 51 130 83 88 123 136 180 115 22 
191 11 145 104 21 172 160 124 212 77 121 210 120 
192 11 173 42 189 20 43 56 81 127 223 91 155 
193 11 213 184 225 75 48 133 109 47 107 187 10 
194 11 61 13 99 17 128 155 100 209 65 140 217 
195 11 57 72 164 200 198 5 141 70 120 142 210 
196 11 28 150 69 146 71 53 228 63 105 3 25 
197 11 52 49 147 216 119 9 237 170 166 24 186 
198 11 70 7 72 55 171 92 120 141 166 195 200 
199 11 4 205 235 125 97 162 35 129 203 105 50 
200 11 141 210 120 142 124 72 5 195 172 164 212 
201 11 181 16 208 134 19 93 221 81 137 143 127 
202 11 206 85 167 218 163 224 90 27 115 230 34 
203 11 35 50 129 89 97 235 223 53 205 125 199 
204 11 2 149 132 185 12 15 168 161 123 117 233 
205 11 235 199 97 125 4 35 203 129 50 162 89 
206 11 202 85 167 218 27 90 224 163 232 34 230 
207 11 112 46 183 54 222 122 59 113 94 32 116 
208 11 221 134 181 201 127 81 16 91 41 19 93 
209 11 140 217 128 37 17 33 65 13 194 99 143 
210 11 142 124 212 200 104 141 120 5 145 172 18 
211 11 229 87 214 27 62 108 159 85 232 116 90 
212 11 210 142 104 124 145 18 76 200 191 172 5 
213 11 48 109 193 133 47 225 184 10 39 75 66 
214 11 211 62 159 229 87 6 58 108 32 27 228 
215 11 36 153 179 8 139 154 23 233 117 74 144 
216 11 147 49 52 170 119 197 11 166 237 92 14 
217 11 37 209 140 17 65 143 77 148 128 99 33 
218 11 224 167 34 156 219 85 206 202 230 139 27 
219 11 156 34 139 224 23 218 74 96 167 8 153 
220 11 68 67 14 22 103 131 180 182 169 158 83 
221 11 208 134 127 181 201 91 81 31 41 152 16 
222 11 54 122 46 113 59 94 116 112 207 183 32 
223 11 89 53 71 129 69 63 150 203 25 50 35 
224 11 218 167 34 156 219 85 206 230 202 139 23 
225 11 75 193 107 213 47 133 48 184 10 39 109 
226 11 131 41 45 103 73 68 3 220 134 152 169 
227 11 64 188 18 76 177 5 142 164 212 210 200 
228 11 105 108 28 196 62 232 150 58 69 199 4 
229 11 211 27 108 87 232 85 90 62 214 206 228 
230 11 136 174 88 115 34 130 224 218 163 8 156 
231 11 186 24 176 9 44 66 197 101 237 109 178 
232 11 90 108 165 27 229 85 206 228 202 196 105 
233 11 179 144 106 84 154 117 161 168 123 174 8 
234 11 80 175 95 38 189 118 114 102 42 43 192 
235 11 205 199 97 125 35 4 129 203 50 89 162 
236 11 187 138 79 86 101 26 184 66 109 193 213 
237 11 98 166 197 55 92 52 78 24 49 147 40 
DEPOT_SECTION
   1
   -1
EOF
