NAME :  X-n204-kX-w81-c7.cctp
COMMENT : 	Adapted by Maziero, Usberti and Cavellucci from the Uchoa, Pecin, Pessoa, Poggi, Subramanian, and Vidal (2013)
TYPE :  CCTP
DIMENSION :    186
EDGE_WEIGHT_TYPE : 	EUC_2D	
CAPACITY : 	836
VERTICES_WITHIN_COVERAGE :  7
VERTICES_WITH_DEMAND : 	81
NODE_COORD_SECTION
1 500 500
2 221 542
3 320 456
4 576 827
5 679 994
6 371 461
7 961 844
8 986 379
9 175 540
10 126 517
11 329 626
12 477 890
13 191 356
14 584 917
15 308 653
16 0 7
17 273 302
18 672 381
19 235 415
20 583 149
21 672 124
22 644 646
23 400 544
24 832 999
25 842 964
26 582 965
27 544 311
28 429 2
29 939 849
30 898 605
31 363 130
32 639 874
33 323 201
34 829 350
35 7 53
36 801 92
37 57 330
38 943 0
39 579 275
40 833 402
41 408 940
42 635 871
43 631 630
44 733 313
45 344 619
46 628 291
47 674 92
48 74 602
49 38 354
50 473 107
51 668 279
52 510 811
53 366 16
54 49 182
55 528 946
56 271 745
57 405 872
58 65 893
59 622 488
60 668 978
61 939 73
62 556 632
63 270 446
64 586 348
65 951 167
66 385 308
67 247 997
68 992 460
69 128 590
70 746 847
71 279 459
72 428 183
73 364 167
74 656 687
75 547 792
76 517 152
77 252 618
78 464 284
79 184 96
80 457 269
81 590 47
82 348 609
83 777 112
84 528 198
85 877 457
86 812 650
87 864 723
88 584 875
89 817 233
90 186 909
91 439 447
92 560 994
93 818 658
94 134 903
95 447 951
96 969 519
97 488 401
98 399 181
99 141 22
100 29 248
101 313 643
102 20 974
103 294 475
104 439 214
105 327 361
106 332 440
107 242 943
108 96 492
109 62 541
110 478 199
111 267 486
112 119 370
113 342 587
114 316 552
115 90 370
116 417 225
117 111 575
118 321 337
119 287 454
120 364 560
121 121 609
122 351 232
123 84 585
124 344 337
125 233 472
126 216 497
127 133 584
128 188 327
129 175 352
130 281 702
131 247 645
132 215 837
133 424 677
134 438 666
135 454 547
136 354 242
137 96 387
138 462 532
139 25 980
140 343 658
141 127 368
142 100 613
143 245 363
144 356 488
145 259 410
146 480 270
147 196 492
148 303 336
149 243 888
150 32 993
151 492 238
152 442 195
153 17 930
154 285 277
155 75 932
156 167 560
157 368 360
158 328 277
159 355 399
160 53 641
161 236 522
162 421 346
163 308 118
164 345 467
165 408 363
166 419 188
167 36 952
168 250 337
169 232 388
170 498 308
171 18 945
172 362 702
173 429 256
174 105 507
175 245 521
176 576 280
177 269 485
178 257 647
179 106 618
180 423 470
181 206 467
182 228 795
183 241 305
184 210 392
185 371 627
186 219 344
DEMAND_SECTION
2 61
3 96
4 52
5 58
6 81
7 76
8 51
9 98
10 65
11 84
12 63
13 79
14 89
15 70
16 93
17 84
18 100
19 70
20 52
21 86
22 69
23 50
24 59
25 79
26 53
27 66
28 65
29 70
30 74
31 86
32 77
33 83
34 50
35 76
36 62
37 73
38 54
39 100
40 99
41 59
42 73
43 74
44 97
45 63
46 83
47 97
48 81
49 61
50 91
51 78
52 87
53 56
54 81
55 91
56 62
57 53
58 82
59 77
60 94
61 99
62 92
63 76
64 83
65 89
66 61
67 53
68 94
69 84
70 55
71 54
72 61
73 86
74 53
75 60
76 55
77 82
78 86
79 60
80 71
81 98
82 67
COVERAGE_SECTION
2 6 161 175 126 9 147 156 
3 7 106 164 103 119 71 144 6 
4 7 75 88 52 42 32 14 12 
5 7 60 26 92 14 32 42 88 
6 7 164 144 106 3 180 159 91 
7 7 29 87 25 24 70 93 86 
8 7 68 85 96 40 34 65 89 
9 7 156 2 147 10 126 127 161 
10 7 174 108 9 156 117 127 109 
11 7 45 101 82 15 140 113 185 
12 7 95 57 55 41 52 88 14 
13 7 129 128 186 184 169 143 168 
14 7 88 26 55 42 32 92 4 
15 7 101 11 140 45 178 130 82 
16 7 35 99 54 79 100 163 37 
17 7 154 183 168 148 118 158 143 
18 7 44 64 46 51 59 176 39 
19 7 145 169 184 63 143 125 181 
20 7 76 84 21 81 47 110 50 
21 7 47 20 83 81 36 51 76 
22 7 43 74 62 59 86 93 75 
23 7 120 135 138 144 113 180 82 
24 7 25 5 60 70 29 7 32 
25 7 24 29 70 5 7 60 32 
26 7 92 14 55 60 88 5 32 
27 7 176 170 39 64 146 78 46 
28 7 53 50 31 81 163 76 73 
29 7 7 87 25 24 70 93 86 
30 7 93 86 96 87 85 68 40 
31 7 73 163 98 33 166 72 152 
32 7 42 88 14 4 26 60 70 
33 7 122 136 73 158 98 31 163 
34 7 40 44 85 89 8 18 51 
35 7 16 54 99 79 100 37 49 
36 7 83 47 21 61 89 65 38 
37 6 49 115 137 112 141 100 
38 7 61 65 36 83 89 47 21 
39 7 176 27 46 64 170 51 84 
40 7 34 85 44 8 18 68 89 
41 7 95 57 12 55 92 52 107 
42 7 32 88 14 4 26 60 70 
43 7 22 74 62 59 75 86 93 
44 7 51 18 34 46 89 40 64 
45 7 82 11 185 113 101 140 15 
46 7 51 39 176 64 27 18 44 
47 7 21 81 83 20 36 76 84 
48 7 123 142 179 160 117 121 69 
49 6 37 115 137 112 141 100 
50 7 76 72 110 152 166 98 84 
51 7 46 44 39 176 18 64 27 
52 7 75 4 12 88 57 14 55 
53 7 28 31 163 50 73 98 72 
54 7 100 35 37 79 49 16 99 
55 7 26 92 14 12 95 88 41 
56 6 130 182 15 178 172 131 
57 7 41 12 95 52 55 75 149 
58 7 155 153 167 94 171 102 139 
59 7 18 43 64 62 22 97 138 
60 7 5 26 14 32 92 42 88 
61 7 38 65 36 83 89 47 21 
62 7 43 22 74 134 135 138 133 
63 7 71 119 103 145 177 111 125 
64 7 27 176 46 39 18 170 51 
65 7 61 89 38 36 83 8 34 
66 7 124 162 157 165 158 173 118 
67 7 107 90 149 94 132 41 155 
68 7 96 8 85 40 30 34 86 
69 7 127 121 117 142 179 123 156 
70 7 32 42 25 60 5 88 4 
71 6 119 63 103 177 111 3 
72 5 166 152 98 104 116 
73 7 31 98 33 166 72 122 163 
74 7 22 43 62 75 86 4 93 
75 7 52 4 88 42 12 32 14 
76 6 84 110 50 20 152 151 
77 7 131 178 15 101 11 2 130 
78 5 80 146 170 173 151 
79 7 99 163 54 33 31 35 73 
80 5 78 146 173 151 170 
81 7 47 20 21 76 50 84 28 
82 7 45 113 11 185 101 140 120 
83 7 36 47 21 89 61 65 20 
84 5 76 110 151 20 152 
85 7 40 96 68 34 8 30 44 
86 7 93 87 30 74 22 43 85 
87 7 93 86 30 29 7 70 74 
88 7 14 4 42 32 26 55 75 
89 7 44 34 83 36 65 51 40 
90 7 94 149 107 132 67 155 182 
91 7 180 97 6 138 165 144 164 
92 7 26 55 14 60 5 88 95 
93 7 86 87 30 74 22 43 70 
94 7 90 155 58 132 149 167 107 
95 7 41 12 55 57 92 26 14 
96 7 68 85 30 8 40 86 93 
97 7 91 162 165 170 180 27 64 
98 7 166 72 73 152 116 104 31 
99 7 79 35 16 54 163 53 31 
100 7 54 37 49 115 112 137 141 
101 7 15 11 140 45 82 178 185 
102 7 139 150 167 171 153 155 58 
103 6 71 119 177 111 3 63 
104 5 152 116 72 166 110 
105 7 118 124 148 157 159 66 106 
106 7 3 164 6 119 159 103 144 
107 7 67 149 90 132 94 182 41 
108 5 174 10 109 117 9 
109 7 123 174 108 117 48 10 142 
110 5 152 151 104 84 72 
111 6 177 103 71 125 119 63 
112 5 141 115 137 129 13 
113 7 82 45 120 11 114 185 101 
114 4 113 120 82 45 
115 5 137 112 141 37 49 
116 5 104 173 166 152 72 
117 7 69 127 123 121 142 179 48 
118 7 148 124 105 157 17 158 66 
119 7 71 63 103 3 177 111 106 
120 7 113 23 114 82 45 185 144 
121 6 179 69 142 127 117 123 
122 7 136 33 158 73 116 98 154 
123 7 48 117 142 179 69 121 109 
124 7 118 105 157 148 66 158 159 
125 6 181 126 111 177 147 63 
126 6 147 125 161 181 175 2 
127 7 69 117 121 156 179 142 123 
128 7 129 13 186 183 168 143 184 
129 7 13 128 186 141 184 112 169 
130 7 56 15 178 131 101 140 172 
131 6 178 77 15 101 130 11 
132 6 182 149 90 94 56 107 
133 7 134 172 185 140 45 82 11 
134 7 133 185 172 140 45 82 11 
135 7 138 23 180 120 91 144 185 
136 7 122 158 33 116 66 73 98 
137 5 115 112 141 49 37 
138 7 135 23 180 91 120 6 144 
139 7 102 150 167 171 153 155 58 
140 7 101 11 15 45 185 172 82 
141 5 112 137 115 129 13 
142 6 179 121 48 123 69 117 
143 7 168 169 186 184 145 19 13 
144 7 164 6 3 106 103 180 23 
145 7 19 169 63 143 119 184 71 
146 5 78 80 151 170 173 
147 6 126 181 125 161 9 2 
148 7 118 105 124 17 168 154 143 
149 7 107 132 90 182 67 94 56 
150 7 139 102 167 171 153 155 58 
151 5 146 110 80 78 84 
152 5 72 104 166 110 116 
153 7 171 167 102 139 155 58 150 
154 7 17 158 183 148 168 118 136 
155 7 58 167 153 171 94 102 139 
156 7 9 127 69 2 117 10 121 
157 7 124 165 105 159 118 66 162 
158 7 154 136 122 17 118 124 148 
159 7 157 105 106 124 6 165 3 
160 3 48 142 179 
161 5 175 2 126 111 125 
162 7 165 66 157 78 124 80 159 
163 7 31 73 33 98 53 122 79 
164 7 144 3 6 106 103 119 71 
165 7 162 157 66 159 124 105 97 
166 5 72 98 152 104 116 
167 7 171 102 153 139 150 155 58 
168 7 143 186 183 17 148 169 13 
169 7 184 19 143 145 186 13 168 
170 7 78 146 27 80 151 176 162 
171 7 153 167 102 139 150 155 58 
172 7 140 133 15 185 101 130 11 
173 5 80 116 104 78 146 
174 6 108 10 109 117 9 123 
175 5 161 2 126 111 177 
176 7 39 27 46 64 170 51 151 
177 6 111 103 71 119 125 63 
178 6 131 77 15 101 130 11 
179 5 142 121 48 69 123 
180 7 91 6 144 138 23 164 135 
181 6 125 147 126 19 161 111 
182 5 132 56 149 130 90 
183 7 17 168 186 154 128 143 148 
184 7 169 19 13 143 186 145 129 
185 7 45 82 11 140 113 101 120 
186 7 13 143 168 128 129 183 169 
DEPOT_SECTION
   1
   -1
EOF
