NAME :  X-n289-kX-w28-c7.cctp
COMMENT : 	Adapted by Maziero, Usberti and Cavellucci from the Uchoa, Pecin, Pessoa, Poggi, Subramanian, and Vidal (2013)
TYPE :  CCTP
DIMENSION :    134
EDGE_WEIGHT_TYPE : 	EUC_2D	
CAPACITY : 	267
VERTICES_WITHIN_COVERAGE :  7
VERTICES_WITH_DEMAND : 	28
NODE_COORD_SECTION
1 0 0
2 174 325
3 49 34
4 543 815
5 42 920
6 545 80
7 681 950
8 870 118
9 787 220
10 537 927
11 180 838
12 543 582
13 442 620
14 747 569
15 932 48
16 14 356
17 53 476
18 603 228
19 772 573
20 811 359
21 373 37
22 859 142
23 489 543
24 37 771
25 354 944
26 96 62
27 326 729
28 881 541
29 653 724
30 226 759
31 481 44
32 100 882
33 989 512
34 600 42
35 538 772
36 448 624
37 70 468
38 502 909
39 595 503
40 771 355
41 535 775
42 110 835
43 493 652
44 105 479
45 873 333
46 536 120
47 17 65
48 638 958
49 328 921
50 968 540
51 557 864
52 498 832
53 343 962
54 583 474
55 976 636
56 622 728
57 792 443
58 283 63
59 694 214
60 38 91
61 294 791
62 429 815
63 691 154
64 431 909
65 615 264
66 883 478
67 627 564
68 718 660
69 716 586
70 675 244
71 199 880
72 588 662
73 58 700
74 518 554
75 848 305
76 860 100
77 602 620
78 437 55
79 891 306
80 211 731
81 408 859
82 581 746
83 868 337
84 568 646
85 456 81
86 429 844
87 396 41
88 130 972
89 563 135
90 414 696
91 547 90
92 321 27
93 474 629
94 814 534
95 287 975
96 11 791
97 217 331
98 745 430
99 34 925
100 12 489
101 880 525
102 649 744
103 643 684
104 731 709
105 225 726
106 596 265
107 634 256
108 42 480
109 634 888
110 174 366
111 24 40
112 419 444
113 875 393
114 34 517
115 660 798
116 706 738
117 9 455
118 61 343
119 80 515
120 257 315
121 316 692
122 768 627
123 141 84
124 651 231
125 593 205
126 65 479
127 465 504
128 328 87
129 736 914
130 252 343
131 653 922
132 594 876
133 169 35
134 69 12
DEMAND_SECTION
2 73
3 71
4 59
5 29
6 19
7 79
8 27
9 13
10 77
11 21
12 99
13 24
14 71
15 38
16 59
17 56
18 41
19 87
20 28
21 81
22 18
23 49
24 28
25 35
26 86
27 40
28 89
29 75
COVERAGE_SECTION
2 2 110 97 
3 6 111 134 47 26 60 123 
4 7 41 35 52 51 82 132 38 
5 7 99 32 88 42 96 24 11 
6 6 91 46 89 34 31 85 
7 5 131 48 129 109 132 
8 6 76 22 15 9 63 75 
9 6 59 75 22 70 63 8 
10 7 38 51 132 52 109 48 64 
11 7 71 42 30 32 80 105 61 
12 7 74 23 84 77 93 43 67 
13 7 36 93 43 90 23 74 12 
14 6 19 69 122 94 68 67 
15 6 76 8 22 9 79 63 
16 1 118 
17 6 108 126 37 100 114 119 
18 5 125 65 106 107 124 
19 6 14 122 69 94 68 28 
20 7 40 83 75 45 113 57 79 
21 7 87 92 78 128 58 85 31 
22 6 8 76 9 15 75 79 
23 7 74 127 12 93 13 36 43 
24 5 96 73 42 32 5 
25 7 53 49 95 64 81 86 62 
26 5 123 3 134 60 111 
27 6 121 61 90 105 30 80 
28 7 101 66 94 50 33 19 57 
29 7 102 56 103 116 115 82 104 
30 5 80 105 61 11 27 
31 7 78 85 6 91 87 46 21 
32 7 42 5 99 11 88 71 96 
33 5 50 101 66 28 55 
34 7 6 91 89 46 31 63 85 
35 6 41 4 82 52 51 56 
36 7 13 93 43 90 23 74 12 
37 5 126 17 108 44 119 
38 7 10 51 64 52 86 132 4 
39 4 54 67 74 12 
40 5 20 98 57 75 83 
41 6 35 4 82 52 51 56 
42 7 32 11 24 71 96 5 99 
43 7 93 36 13 84 12 90 72 
44 4 37 126 119 17 
45 5 83 79 75 113 20 
46 6 89 91 6 85 31 34 
47 5 111 60 3 134 26 
48 6 131 7 109 132 10 129 
49 7 25 53 95 81 64 86 61 
50 6 33 28 101 55 66 94 
51 7 132 4 10 52 38 109 41 
52 7 4 51 41 86 62 35 38 
53 7 25 49 95 64 81 86 71 
54 4 39 67 74 12 
55 3 50 33 28 
56 7 29 102 82 103 72 115 116 
57 6 98 20 40 94 66 113 
58 4 128 92 21 87 
59 5 70 124 63 107 18 
60 5 47 111 3 26 134 
61 7 27 30 105 121 80 11 71 
62 6 86 81 52 64 41 4 
63 6 59 124 70 125 18 9 
64 7 81 86 38 25 62 52 53 
65 3 106 107 18 
66 6 101 28 113 94 57 50 
67 7 77 39 12 69 54 84 72 
68 6 104 122 69 103 116 29 
69 6 14 19 122 68 67 94 
70 5 124 59 107 65 18 
71 7 11 32 42 88 30 95 61 
72 7 84 77 103 56 82 29 12 
73 2 24 96 
74 7 23 12 127 93 39 36 13 
75 6 45 83 79 20 40 113 
76 6 8 22 15 9 63 59 
77 7 84 72 67 12 103 74 56 
78 5 85 87 31 21 6 
79 5 45 83 75 113 20 
80 4 105 30 61 11 
81 6 86 62 64 52 25 49 
82 7 56 35 41 102 29 4 72 
83 5 45 75 79 113 20 
84 7 72 77 12 43 103 93 56 
85 5 78 31 87 6 46 
86 6 81 62 64 52 38 4 
87 7 21 78 85 92 128 31 58 
88 7 32 5 99 71 42 11 95 
89 6 46 91 6 125 34 18 
90 6 36 13 43 93 27 121 
91 6 6 46 89 34 31 85 
92 5 58 21 128 87 78 
93 7 36 43 13 12 23 74 90 
94 7 19 28 101 14 66 57 122 
95 7 53 49 25 71 88 64 81 
96 6 24 73 42 32 5 99 
97 4 130 2 120 110 
98 3 57 40 20 
99 7 5 32 88 42 96 24 11 
100 6 108 117 114 17 126 37 
101 7 28 66 94 50 33 19 57 
102 6 29 56 115 116 103 82 
103 7 29 56 72 102 77 68 116 
104 3 116 68 29 
105 5 80 30 61 121 27 
106 3 65 18 107 
107 5 65 124 106 18 70 
108 6 17 126 37 100 114 117 
109 5 131 132 48 7 51 
110 2 2 97 
111 6 3 47 60 134 26 123 
112 2 127 23 
113 6 83 45 20 66 79 75 
114 5 100 108 17 119 126 
115 3 102 29 116 
116 3 104 29 102 
117 3 100 108 17 
118 1 16 
119 4 126 44 114 17 
120 4 130 97 2 110 
121 5 27 105 90 61 30 
122 6 19 68 14 69 104 94 
123 2 26 133 
124 5 70 107 59 18 65 
125 6 18 106 65 124 107 89 
126 6 17 37 108 119 44 114 
127 6 23 74 112 12 13 36 
128 4 58 92 21 87 
129 2 7 131 
130 4 120 97 2 110 
131 5 48 109 7 132 129 
132 7 51 109 131 10 4 48 38 
133 2 123 26 
134 7 3 111 26 47 60 123 133 
DEPOT_SECTION
   1
   -1
EOF
