NAME :  X-n223-kX-w22-c9.cctp
COMMENT : 	Adapted by Maziero, Usberti and Cavellucci from the Uchoa, Pecin, Pessoa, Poggi, Subramanian, and Vidal (2013)
TYPE :  CCTP
DIMENSION :    117
EDGE_WEIGHT_TYPE : 	EUC_2D	
CAPACITY : 	37
VERTICES_WITHIN_COVERAGE :  9
VERTICES_WITH_DEMAND : 	22
NODE_COORD_SECTION
1 284 167
2 6 711
3 874 746
4 483 894
5 733 189
6 336 29
7 488 684
8 825 903
9 98 412
10 206 306
11 497 641
12 499 745
13 481 40
14 500 390
15 851 268
16 51 278
17 805 796
18 554 771
19 576 984
20 734 251
21 325 414
22 658 81
23 279 467
24 1000 804
25 554 594
26 645 168
27 614 267
28 939 719
29 935 800
30 31 554
31 489 840
32 377 684
33 945 808
34 720 165
35 226 34
36 73 255
37 168 461
38 164 493
39 833 284
40 371 28
41 552 186
42 610 541
43 578 665
44 749 655
45 898 974
46 520 642
47 914 373
48 610 738
49 752 74
50 729 90
51 464 658
52 388 732
53 712 144
54 45 437
55 910 738
56 956 879
57 318 560
58 592 913
59 907 240
60 399 931
61 763 180
62 626 876
63 813 999
64 10 249
65 557 816
66 915 680
67 131 722
68 553 946
69 306 260
70 627 26
71 493 282
72 312 212
73 985 939
74 194 262
75 992 698
76 834 844
77 1 651
78 20 349
79 163 503
80 579 761
81 2 469
82 826 222
83 231 82
84 62 272
85 22 273
86 805 267
87 212 590
88 327 114
89 646 219
90 259 282
91 692 298
92 801 272
93 646 242
94 189 387
95 31 339
96 730 188
97 93 759
98 824 259
99 924 237
100 57 338
101 305 615
102 345 763
103 751 295
104 134 317
105 739 331
106 27 359
107 776 143
108 710 173
109 53 438
110 933 313
111 837 214
112 752 302
113 42 300
114 489 208
115 608 548
116 54 335
117 769 226
DEMAND_SECTION
2 6
3 6
4 9
5 2
6 4
7 10
8 2
9 3
10 3
11 1
12 4
13 3
14 8
15 6
16 4
17 4
18 6
19 3
20 5
21 10
22 7
23 3
COVERAGE_SECTION
2 3 77 97 67 
3 9 55 28 66 29 17 33 76 75 24 
4 9 31 68 60 65 58 19 18 62 12 
5 8 96 34 108 61 53 117 20 107 
6 6 40 88 35 83 13 72 
7 9 51 11 46 12 43 18 32 52 25 
8 9 76 63 45 17 56 29 33 3 73 
9 7 109 54 37 100 106 116 94 
10 4 74 90 104 94 
11 9 46 51 7 25 43 12 32 18 52 
12 9 18 7 80 65 51 31 11 46 48 
13 9 40 6 70 41 114 88 22 26 72 
14 7 71 27 21 114 42 115 93 
15 7 39 98 86 92 82 111 59 
16 6 84 113 85 36 64 116 
17 9 76 3 8 55 29 33 44 28 66 
18 9 80 65 12 48 31 7 43 62 46 
19 9 68 58 62 4 31 65 60 18 80 
20 8 117 103 112 5 91 96 92 86 
21 9 23 94 57 90 69 10 37 14 38 
22 8 70 50 53 26 49 34 108 96 
23 9 21 57 37 38 94 79 87 101 10 
24 9 33 29 56 28 75 55 73 3 66 
25 7 46 115 11 43 42 51 7 
26 9 89 108 53 93 34 96 22 5 41 
27 9 93 89 91 41 26 20 71 108 114 
28 7 55 66 75 3 29 33 24 
29 9 33 24 55 3 28 56 76 75 66 
30 9 81 77 54 109 79 38 9 2 37 
31 9 4 65 18 12 80 68 58 60 62 
32 8 52 102 51 101 7 11 12 57 
33 9 29 24 56 55 28 3 76 75 66 
34 8 108 53 96 5 61 107 26 50 
35 4 83 6 88 40 
36 2 84 16 
37 8 38 79 94 9 23 109 54 87 
38 9 79 37 9 87 94 23 109 54 30 
39 6 15 98 86 92 82 111 
40 6 6 88 13 35 83 72 
41 9 114 26 89 27 93 71 22 108 13 
42 5 115 25 43 46 11 
43 8 46 25 48 11 7 80 18 12 
44 3 17 3 48 
45 9 63 73 8 56 76 33 29 24 17 
46 9 11 7 51 25 43 12 115 48 18 
47 5 110 39 15 59 99 
48 8 80 18 43 65 12 46 7 62 
49 6 50 107 53 22 34 61 
50 7 49 53 107 22 34 108 61 
51 9 7 11 46 32 12 52 25 43 18 
52 8 32 102 51 7 12 11 101 31 
53 8 34 108 96 5 50 61 107 26 
54 8 109 81 9 106 78 95 100 116 
55 9 28 3 66 29 33 75 24 17 76 
56 9 73 33 29 24 45 76 8 55 3 
57 8 101 23 87 32 21 79 38 51 
58 9 62 68 19 65 4 31 18 80 48 
59 5 99 15 111 110 82 
60 6 4 31 68 102 19 58 
61 7 5 96 107 34 117 108 53 
62 9 58 65 68 19 80 18 48 31 4 
63 9 45 8 76 73 56 17 62 33 29 
64 5 85 16 84 113 36 
65 9 18 80 31 62 12 48 58 4 68 
66 7 28 55 3 75 29 33 24 
67 3 97 2 77 
68 9 19 58 4 62 31 65 60 18 80 
69 6 72 90 10 74 88 21 
70 8 22 50 49 26 53 13 34 108 
71 9 114 14 41 27 93 89 69 26 72 
72 6 69 90 88 74 10 83 
73 9 56 45 24 33 29 8 76 63 55 
74 3 10 90 104 
75 7 28 66 55 24 29 33 3 
76 9 17 8 3 29 33 56 55 45 63 
77 5 2 30 97 67 81 
78 8 106 95 116 100 113 85 16 84 
79 9 38 37 87 9 94 23 109 54 30 
80 8 18 48 65 12 43 7 31 62 
81 8 54 109 30 9 106 78 95 100 
82 7 111 98 86 15 92 117 39 
83 3 35 88 6 
84 4 16 36 113 85 
85 8 64 16 113 84 36 95 116 100 
86 6 92 98 39 15 82 117 
87 8 101 79 38 57 37 23 67 30 
88 6 6 40 72 83 35 69 
89 9 93 26 27 108 96 91 5 34 20 
90 6 69 10 74 72 94 104 
91 7 105 103 112 20 93 27 89 
92 6 86 98 39 15 103 82 
93 9 89 27 91 26 20 108 96 5 34 
94 6 37 10 104 9 38 79 
95 8 78 106 116 100 113 16 85 84 
96 8 5 34 108 61 53 117 20 107 
97 2 67 2 
98 7 86 92 39 15 82 111 117 
99 4 59 110 15 111 
100 7 116 95 106 78 113 16 84 
101 8 57 87 32 52 23 102 51 79 
102 6 52 32 101 12 51 7 
103 5 112 105 20 92 91 
104 1 10 
105 4 112 103 91 20 
106 8 78 95 116 100 113 54 109 16 
107 6 61 34 5 53 96 50 
108 9 34 96 5 53 61 26 107 89 117 
109 8 54 9 81 106 78 100 95 116 
110 6 47 59 99 15 39 98 
111 5 82 98 15 86 92 
112 5 103 105 20 92 91 
113 8 16 84 85 116 95 100 78 36 
114 9 41 71 27 89 26 93 13 72 14 
115 5 42 25 43 46 11 
116 7 100 95 106 78 113 16 84 
117 8 20 61 5 96 86 92 82 98 
DEPOT_SECTION
   1
   -1
EOF
