NAME :  X-n261-kX-w104-c9.cctp
COMMENT : 	Adapted by Maziero, Usberti and Cavellucci from the Uchoa, Pecin, Pessoa, Poggi, Subramanian, and Vidal (2013)
TYPE :  CCTP
DIMENSION :    259
EDGE_WEIGHT_TYPE : 	EUC_2D	
CAPACITY : 	1081
VERTICES_WITHIN_COVERAGE :  9
VERTICES_WITH_DEMAND : 	104
NODE_COORD_SECTION
1 0 0
2 377 105
3 535 93
4 820 625
5 689 745
6 774 283
7 399 810
8 242 139
9 300 948
10 557 255
11 22 828
12 27 768
13 961 829
14 825 225
15 288 996
16 126 160
17 219 243
18 504 918
19 532 806
20 566 734
21 327 943
22 848 66
23 45 889
24 952 169
25 736 63
26 939 925
27 569 517
28 969 917
29 603 637
30 188 762
31 800 102
32 879 687
33 289 83
34 836 360
35 887 699
36 21 962
37 857 715
38 447 519
39 931 500
40 316 483
41 572 230
42 417 554
43 488 340
44 760 763
45 403 224
46 470 796
47 67 194
48 927 576
49 524 679
50 155 89
51 629 678
52 469 465
53 810 467
54 354 298
55 87 548
56 618 236
57 338 855
58 774 799
59 811 201
60 684 462
61 892 995
62 449 985
63 120 176
64 552 983
65 455 433
66 244 763
67 790 650
68 189 400
69 717 607
70 351 60
71 546 941
72 138 585
73 567 342
74 790 315
75 568 9
76 20 172
77 600 355
78 909 984
79 992 956
80 36 62
81 614 755
82 883 36
83 401 520
84 463 924
85 109 540
86 218 461
87 337 584
88 157 686
89 789 99
90 246 760
91 792 669
92 52 48
93 60 712
94 629 450
95 712 438
96 661 974
97 533 49
98 853 566
99 495 195
100 573 191
101 519 673
102 737 157
103 493 383
104 957 695
105 536 532
106 926 788
107 513 86
108 59 246
109 803 472
110 391 39
111 311 531
112 706 871
113 741 723
114 936 7
115 100 581
116 799 359
117 477 410
118 689 805
119 45 244
120 818 770
121 339 47
122 607 57
123 763 168
124 324 924
125 358 40
126 977 409
127 823 138
128 453 911
129 771 182
130 912 18
131 251 585
132 422 585
133 514 160
134 854 59
135 24 75
136 22 64
137 729 52
138 73 223
139 572 821
140 126 236
141 259 824
142 167 213
143 277 169
144 184 250
145 153 833
146 563 253
147 978 112
148 724 23
149 161 329
150 15 579
151 461 782
152 851 737
153 237 951
154 105 942
155 972 950
156 749 340
157 36 228
158 744 110
159 705 528
160 181 44
161 420 81
162 671 370
163 309 69
164 987 831
165 951 322
166 953 17
167 388 269
168 585 943
169 395 150
170 484 870
171 995 462
172 472 391
173 221 661
174 488 756
175 138 121
176 724 451
177 102 334
178 16 23
179 280 363
180 491 164
181 414 545
182 448 33
183 835 445
184 506 839
185 734 57
186 991 663
187 671 263
188 578 546
189 344 527
190 180 806
191 608 856
192 93 625
193 731 998
194 380 871
195 920 900
196 518 179
197 80 406
198 282 281
199 835 214
200 895 580
201 785 78
202 407 979
203 31 260
204 346 961
205 938 233
206 603 917
207 144 637
208 572 723
209 838 477
210 545 568
211 260 584
212 348 33
213 483 309
214 237 419
215 417 484
216 79 619
217 514 471
218 108 359
219 59 792
220 532 185
221 536 745
222 781 371
223 440 901
224 953 180
225 290 771
226 332 323
227 264 881
228 152 663
229 94 101
230 614 160
231 202 225
232 148 85
233 93 799
234 934 466
235 999 195
236 660 791
237 761 946
238 547 966
239 980 316
240 608 512
241 398 136
242 166 24
243 547 880
244 634 985
245 457 149
246 682 442
247 523 885
248 926 617
249 536 487
250 445 327
251 851 455
252 59 176
253 474 325
254 471 123
255 335 879
256 650 321
257 796 593
258 477 184
259 417 342
DEMAND_SECTION
2 64
3 73
4 98
5 36
6 76
7 13
8 74
9 43
10 80
11 59
12 95
13 33
14 68
15 35
16 64
17 59
18 22
19 10
20 60
21 36
22 20
23 49
24 67
25 69
26 83
27 99
28 25
29 94
30 34
31 96
32 8
33 49
34 89
35 99
36 21
37 70
38 71
39 45
40 32
41 11
42 48
43 35
44 21
45 90
46 99
47 41
48 55
49 59
50 1
51 36
52 94
53 97
54 44
55 55
56 13
57 35
58 71
59 78
60 57
61 96
62 41
63 35
64 13
65 70
66 17
67 41
68 18
69 6
70 81
71 55
72 80
73 34
74 76
75 58
76 33
77 10
78 64
79 66
80 12
81 87
82 21
83 61
84 54
85 7
86 48
87 47
88 26
89 26
90 9
91 35
92 77
93 57
94 97
95 51
96 10
97 39
98 25
99 66
100 92
101 36
102 35
103 59
104 71
105 53
COVERAGE_SECTION
2 9 241 169 161 70 110 125 121 163 212 
3 9 107 97 133 254 122 180 196 75 220 
4 9 67 257 91 98 32 200 37 35 69 
5 9 236 113 118 44 81 51 58 208 20 
6 9 74 156 14 116 222 59 199 34 129 
7 9 194 151 46 57 255 223 170 174 184 
8 9 143 33 231 163 50 142 175 17 232 
9 9 21 124 204 15 153 227 255 57 194 
10 9 146 41 56 100 220 196 99 73 213 
11 9 219 12 23 233 93 145 36 154 190 
12 9 219 11 93 233 23 145 88 192 190 
13 9 164 106 195 28 26 155 79 104 152 
14 9 199 59 129 6 123 127 74 102 205 
15 9 9 21 153 204 124 227 202 255 57 
16 9 63 175 142 229 47 252 140 50 232 
17 9 231 144 142 198 140 143 149 8 63 
18 9 247 84 71 128 170 243 238 223 184 
19 9 184 139 221 46 174 151 243 20 170 
20 9 208 221 81 49 101 19 174 51 139 
21 9 124 204 9 255 15 202 227 57 194 
22 9 134 82 31 201 89 127 130 114 25 
23 9 11 36 154 219 233 12 145 190 93 
24 9 224 235 147 205 199 127 14 59 22 
25 9 185 137 148 158 201 89 31 102 123 
26 9 28 195 155 79 78 61 13 164 106 
27 9 188 105 240 249 210 217 94 52 38 
28 9 26 155 79 195 13 164 78 61 106 
29 9 51 49 210 101 208 188 20 69 81 
30 9 190 66 90 145 88 141 225 233 228 
31 9 89 201 127 158 22 134 25 123 185 
32 9 35 37 152 104 248 4 91 67 120 
33 9 163 121 70 8 212 125 143 2 110 
34 9 116 222 74 183 156 251 6 53 109 
35 9 32 37 152 104 248 106 120 4 91 
36 9 23 154 11 219 233 145 12 153 190 
37 9 152 35 32 120 91 67 4 106 104 
38 9 181 42 83 215 52 132 217 65 105 
39 9 234 171 48 200 251 209 98 126 183 
40 9 111 189 83 86 215 214 87 211 181 
41 9 146 10 100 56 220 196 230 99 133 
42 9 181 132 83 38 215 189 87 52 111 
43 9 253 213 103 250 172 117 259 73 65 
44 9 58 113 120 5 118 152 91 236 37 
45 9 167 169 258 241 54 245 99 180 250 
46 9 151 174 184 19 7 170 221 247 139 
47 9 252 138 157 76 108 119 63 16 140 
48 9 200 248 98 39 186 234 4 32 104 
49 9 101 208 221 20 174 29 51 210 81 
50 9 232 175 160 229 242 16 63 8 92 
51 9 29 208 81 20 5 49 101 69 221 
52 9 65 217 215 117 38 249 172 103 83 
53 9 109 209 183 251 176 222 95 98 116 
54 9 226 167 198 259 45 250 179 253 213 
55 9 85 115 72 216 192 150 207 228 197 
56 9 41 146 187 10 100 230 256 220 196 
57 9 255 194 124 7 227 141 21 225 9 
58 9 44 120 113 118 112 152 5 236 37 
59 9 199 14 129 123 127 102 6 31 89 
60 9 246 95 176 94 159 240 162 109 53 
61 9 78 26 155 195 79 28 237 193 13 
62 9 202 84 128 223 18 238 64 204 71 
63 9 16 47 175 140 142 252 138 229 108 
64 9 238 71 168 18 244 206 247 62 243 
65 9 117 52 172 103 215 217 38 249 43 
66 9 90 225 30 141 190 173 145 88 227 
67 9 91 4 257 69 113 37 32 98 152 
68 9 214 86 149 218 179 177 197 144 198 
69 9 159 257 67 91 4 51 29 113 5 
70 9 121 125 212 163 110 2 33 161 241 
71 9 238 168 64 18 243 247 206 84 170 
72 9 115 207 85 192 55 216 228 88 131 
73 9 77 43 103 256 10 146 213 253 172 
74 9 6 116 156 222 34 14 199 59 187 
75 9 97 122 3 107 182 254 148 230 133 
76 9 252 47 157 138 119 108 203 135 63 
77 9 73 256 162 94 10 146 103 43 187 
78 9 61 26 155 195 79 28 237 13 164 
79 9 155 28 26 78 195 61 164 13 106 
80 9 136 135 92 178 229 76 232 252 175 
81 9 20 208 236 5 51 139 221 118 19 
82 9 130 134 22 114 166 31 201 89 127 
83 9 181 42 215 38 189 132 52 87 111 
84 9 128 223 18 170 62 247 202 71 238 
85 9 55 115 72 216 192 150 207 228 86 
86 9 214 68 40 111 179 131 211 85 189 
87 9 189 111 211 42 132 131 181 83 40 
88 9 228 207 173 30 192 93 72 216 66 
89 9 31 201 158 127 25 22 185 123 134 
90 9 66 225 30 141 190 173 88 145 227 
91 9 67 4 113 257 37 32 152 69 44 
92 9 80 136 135 178 229 232 50 175 242 
93 9 12 219 192 233 216 88 228 207 11 
94 9 246 60 240 95 27 162 176 77 249 
95 9 176 246 60 162 94 159 222 109 53 
96 8 244 193 206 168 237 64 112 238 
97 9 107 3 75 122 182 254 133 161 180 
98 9 200 257 4 48 248 209 39 67 109 
99 9 258 196 180 220 133 245 254 100 41 
100 9 41 220 230 196 146 56 10 133 99 
101 9 49 208 221 20 174 29 210 51 151 
102 9 123 129 158 89 31 59 127 201 25 
103 9 172 117 43 253 65 250 213 52 73 
104 9 186 35 32 248 106 37 152 48 200 
105 9 27 210 188 249 217 240 38 52 42 
106 9 13 164 152 35 104 37 120 32 195 
107 9 3 97 254 133 180 182 245 161 196 
108 8 119 138 157 203 47 140 252 76 
109 9 53 209 183 251 176 95 222 98 116 
110 9 125 212 70 161 121 182 2 163 241 
111 9 189 40 87 211 131 83 181 42 86 
112 8 118 236 237 58 191 96 206 44 
113 9 44 5 91 58 67 120 118 236 152 
114 9 166 130 82 134 22 147 24 31 201 
115 9 55 72 85 216 192 207 150 228 88 
116 9 222 34 74 156 6 183 53 251 109 
117 9 172 103 65 52 43 217 253 250 259 
118 8 236 5 112 44 58 81 191 113 
119 8 108 157 203 138 47 252 76 140 
120 9 152 58 44 37 113 35 32 91 106 
121 9 212 70 125 163 110 33 2 161 241 
122 9 75 97 3 107 230 137 148 185 25 
123 9 129 102 59 158 127 89 31 14 199 
124 9 21 9 204 255 57 227 194 15 153 
125 9 212 121 70 110 163 2 161 33 182 
126 9 171 234 165 239 39 251 183 34 209 
127 9 31 89 59 123 129 201 22 199 158 
128 9 84 223 18 170 62 247 202 194 184 
129 9 123 102 59 127 14 199 158 31 89 
130 9 114 82 166 134 22 147 31 201 89 
131 9 211 111 173 87 189 72 207 40 228 
132 9 42 181 83 38 87 189 215 111 210 
133 9 196 180 220 99 258 254 245 100 3 
134 9 22 82 31 130 201 89 127 114 166 
135 9 136 80 92 178 229 76 252 175 232 
136 9 135 80 92 178 229 76 252 232 175 
137 9 185 25 148 158 201 89 31 102 22 
138 9 108 47 119 157 252 140 203 63 76 
139 8 19 191 243 184 81 247 221 20 
140 9 142 138 63 144 108 47 16 231 119 
141 9 227 225 66 90 190 57 30 255 145 
142 9 231 144 140 17 63 16 138 175 47 
143 9 8 33 17 231 163 198 142 2 169 
144 9 231 17 142 140 149 63 198 16 138 
145 9 190 233 30 219 141 66 90 154 227 
146 9 10 41 56 100 220 196 73 99 213 
147 9 24 224 235 166 114 130 82 205 134 
148 9 137 185 25 201 158 89 31 122 22 
149 9 177 218 68 144 140 17 197 231 142 
150 9 216 55 115 192 85 72 93 207 228 
151 9 46 174 7 184 19 221 170 20 139 
152 9 37 120 35 32 91 106 44 58 67 
153 9 9 15 227 21 124 204 255 141 154 
154 9 23 36 145 153 11 233 190 219 227 
155 9 79 28 26 78 195 61 164 13 106 
156 9 222 74 116 6 162 34 256 95 187 
157 8 119 108 203 138 47 252 76 140 
158 9 89 25 102 201 185 31 137 123 129 
159 9 60 176 69 246 95 240 94 257 109 
160 9 242 50 232 175 229 8 33 16 92 
161 9 2 110 182 241 254 70 169 125 245 
162 9 256 77 246 95 156 94 60 176 187 
163 9 33 121 70 212 125 2 110 8 143 
164 9 13 106 28 195 26 155 79 104 152 
165 9 239 205 126 34 235 224 234 171 24 
166 9 114 130 82 147 134 22 24 224 31 
167 9 54 45 226 259 250 213 253 198 169 
168 8 206 71 238 64 244 243 96 18 
169 9 241 2 245 161 45 254 258 180 70 
170 9 184 247 128 18 223 84 243 46 19 
171 9 126 234 39 48 251 165 239 200 209 
172 9 117 103 65 43 253 250 52 259 213 
173 9 88 228 207 131 211 90 66 30 72 
174 9 151 46 221 19 20 49 184 101 208 
175 9 50 232 16 229 63 160 142 252 242 
176 9 95 60 246 159 109 53 94 162 222 
177 8 218 149 197 108 140 203 119 68 
178 9 136 80 92 135 229 232 76 242 50 
179 9 226 214 198 54 68 86 149 40 17 
180 9 133 258 99 196 245 220 254 107 3 
181 9 42 83 132 38 215 189 87 52 111 
182 9 161 110 107 97 125 254 212 2 70 
183 9 251 209 53 109 34 222 116 234 39 
184 9 170 19 247 46 243 139 151 18 174 
185 9 25 137 148 158 201 89 31 102 22 
186 9 104 248 48 35 32 200 106 37 152 
187 9 56 256 41 6 162 146 156 10 77 
188 9 27 210 105 240 249 29 217 94 159 
189 9 111 40 83 87 181 42 215 132 211 
190 9 145 30 66 90 141 233 227 225 88 
191 8 139 206 243 236 168 247 19 118 
192 9 216 115 207 72 228 55 85 88 150 
193 8 237 96 244 112 206 168 61 78 
194 9 57 255 7 223 124 128 21 204 84 
195 9 26 28 155 13 78 79 164 61 106 
196 9 220 133 99 180 258 100 245 254 41 
197 8 218 177 68 149 85 55 86 203 
198 9 226 17 54 179 231 144 167 143 149 
199 9 14 59 129 127 123 6 205 74 102 
200 9 48 98 248 4 39 257 32 209 35 
201 9 89 31 25 158 185 137 22 127 134 
202 9 62 204 84 128 223 21 124 9 194 
203 8 119 108 157 138 47 76 252 140 
204 9 21 124 9 202 15 255 194 57 62 
205 9 224 24 235 165 239 199 14 147 59 
206 8 168 191 71 243 238 244 96 64 
207 9 228 88 72 192 216 115 173 85 55 
208 9 20 221 81 49 51 101 174 29 19 
209 9 251 53 183 109 98 39 234 34 176 
210 9 105 188 27 249 240 29 217 101 38 
211 9 131 111 87 173 189 40 72 207 86 
212 9 125 121 70 110 163 33 2 161 182 
213 9 253 43 250 259 103 172 73 10 146 
214 9 86 68 179 40 149 111 226 218 198 
215 9 83 38 52 181 65 42 189 117 217 
216 9 192 115 207 72 55 150 85 228 93 
217 9 249 52 105 65 117 27 38 103 172 
218 8 177 197 149 68 108 140 203 119 
219 9 233 12 11 93 23 145 190 30 88 
220 9 196 133 99 100 180 258 41 10 146 
221 9 20 208 174 19 49 101 81 46 139 
222 9 116 156 34 74 6 183 95 176 53 
223 9 128 84 170 18 194 62 202 247 184 
224 9 24 235 205 147 199 14 127 239 165 
225 9 90 66 141 57 30 227 190 7 255 
226 9 54 198 179 167 259 250 45 214 17 
227 9 141 255 124 153 9 57 21 190 225 
228 9 88 207 173 192 72 216 115 93 30 
229 9 175 232 50 16 92 80 135 63 136 
230 9 100 56 41 220 196 133 122 3 146 
231 9 17 144 142 140 143 8 63 198 16 
232 9 50 175 160 229 242 16 63 92 8 
233 9 219 145 12 11 190 93 23 30 88 
234 9 39 171 126 251 209 183 48 200 53 
235 9 224 24 205 147 239 165 199 14 166 
236 8 118 5 81 191 112 139 44 113 
237 8 193 112 96 244 61 58 78 118 
238 9 64 71 168 18 206 247 243 244 84 
239 9 165 126 205 235 224 171 24 34 234 
240 9 27 188 94 105 249 210 60 159 246 
241 9 169 2 161 245 254 45 70 258 110 
242 9 160 232 50 175 229 92 80 33 8 
243 8 247 18 184 71 139 170 191 206 
244 8 96 168 206 64 238 71 193 191 
245 9 254 180 258 133 99 241 169 196 161 
246 9 60 95 176 94 162 159 240 77 156 
247 9 243 18 170 184 71 84 128 19 139 
248 9 48 200 186 32 104 98 35 4 39 
249 9 217 27 105 52 188 240 210 38 65 
250 9 253 259 213 43 172 103 167 117 54 
251 9 183 209 53 109 234 39 34 116 222 
252 9 47 76 138 157 63 16 119 108 229 
253 9 213 43 250 259 103 172 117 73 167 
254 9 245 180 107 133 258 161 3 196 241 
255 9 57 124 194 21 227 9 204 7 141 
256 9 162 77 187 73 56 156 146 10 41 
257 9 4 67 98 91 69 200 159 109 209 
258 9 99 180 245 196 133 220 254 45 169 
259 9 250 253 43 172 213 54 167 103 226 
DEPOT_SECTION
   1
   -1
EOF
