NAME :  X-n219-kX-w87-c11.cctp
COMMENT : 	Adapted by Maziero, Usberti and Cavellucci from the Uchoa, Pecin, Pessoa, Poggi, Subramanian, and Vidal (2013)
TYPE :  CCTP
DIMENSION :    219
EDGE_WEIGHT_TYPE : 	EUC_2D	
CAPACITY : 	3
VERTICES_WITHIN_COVERAGE :  11
VERTICES_WITH_DEMAND : 	87
NODE_COORD_SECTION
1 0 0
2 18 761
3 835 397
4 299 16
5 31 168
6 142 257
7 242 984
8 612 357
9 663 812
10 105 188
11 487 636
12 993 703
13 672 148
14 506 259
15 953 706
16 888 203
17 107 534
18 772 692
19 475 182
20 828 775
21 719 220
22 655 722
23 844 197
24 918 600
25 460 844
26 739 102
27 301 523
28 341 627
29 989 936
30 935 602
31 44 72
32 861 67
33 163 416
34 981 503
35 722 397
36 317 903
37 547 95
38 944 106
39 935 192
40 128 376
41 908 176
42 720 226
43 738 793
44 791 498
45 712 751
46 530 693
47 141 673
48 380 544
49 634 301
50 427 853
51 606 949
52 47 557
53 48 202
54 791 67
55 546 876
56 526 842
57 535 216
58 828 214
59 829 352
60 623 473
61 374 1000
62 74 187
63 275 415
64 726 789
65 51 597
66 894 395
67 159 743
68 301 893
69 755 946
70 978 261
71 709 153
72 391 153
73 876 370
74 846 725
75 604 107
76 117 709
77 507 89
78 348 744
79 476 204
80 181 957
81 948 710
82 158 788
83 414 685
84 358 66
85 196 732
86 283 343
87 456 931
88 5 468
89 459 43
90 555 414
91 94 964
92 558 360
93 641 424
94 132 16
95 777 947
96 25 205
97 852 45
98 5 686
99 400 682
100 501 234
101 905 968
102 492 971
103 817 114
104 651 941
105 817 643
106 735 937
107 333 829
108 223 584
109 306 412
110 209 663
111 206 549
112 542 691
113 296 10
114 215 747
115 148 641
116 9 553
117 411 59
118 382 800
119 824 612
120 608 727
121 481 574
122 169 950
123 350 608
124 396 536
125 36 459
126 359 339
127 798 917
128 10 569
129 813 10
130 569 627
131 692 467
132 166 178
133 247 413
134 738 487
135 508 327
136 158 986
137 983 244
138 637 109
139 177 207
140 357 374
141 361 972
142 365 701
143 582 957
144 712 996
145 932 452
146 847 981
147 60 66
148 252 267
149 944 435
150 338 688
151 900 168
152 583 871
153 852 59
154 921 72
155 845 534
156 387 253
157 812 354
158 5 404
159 590 575
160 930 128
161 184 742
162 832 466
163 285 346
164 548 976
165 32 531
166 966 58
167 31 40
168 162 539
169 621 425
170 802 495
171 385 493
172 769 329
173 921 15
174 64 106
175 854 678
176 943 122
177 103 285
178 304 739
179 398 212
180 335 459
181 43 108
182 400 255
183 935 851
184 179 147
185 822 749
186 60 32
187 829 992
188 783 760
189 218 360
190 321 463
191 403 172
192 32 134
193 218 490
194 44 456
195 430 570
196 896 875
197 509 572
198 424 936
199 639 505
200 914 852
201 984 435
202 479 341
203 207 937
204 709 700
205 235 795
206 557 130
207 270 964
208 482 320
209 60 761
210 836 272
211 413 327
212 509 379
213 961 329
214 819 754
215 176 910
216 648 809
217 640 892
218 838 79
219 552 232
DEMAND_SECTION
2 1
3 1
4 1
5 1
6 1
7 1
8 1
9 1
10 1
11 1
12 1
13 1
14 1
15 1
16 1
17 1
18 1
19 1
20 1
21 1
22 1
23 1
24 1
25 1
26 1
27 1
28 1
29 1
30 1
31 1
32 1
33 1
34 1
35 1
36 1
37 1
38 1
39 1
40 1
41 1
42 1
43 1
44 1
45 1
46 1
47 1
48 1
49 1
50 1
51 1
52 1
53 1
54 1
55 1
56 1
57 1
58 1
59 1
60 1
61 1
62 1
63 1
64 1
65 1
66 1
67 1
68 1
69 1
70 1
71 1
72 1
73 1
74 1
75 1
76 1
77 1
78 1
79 1
80 1
81 1
82 1
83 1
84 1
85 1
86 1
87 1
88 1
COVERAGE_SECTION
2 11 209 98 76 67 82 47 65 161 115 85 128 
3 11 59 73 157 66 162 172 170 44 145 35 149 
4 11 113 84 117 89 72 94 184 191 132 77 179 
5 11 192 96 53 62 181 174 10 31 147 167 132 
6 11 177 139 10 132 62 53 148 184 40 96 189 
7 11 207 203 80 122 136 215 68 36 141 61 91 
8 11 92 49 169 93 90 212 135 35 60 202 208 
9 11 216 64 43 45 217 22 152 120 204 104 188 
10 11 62 53 132 139 5 6 96 184 192 174 177 
11 11 121 197 46 112 130 195 83 99 159 124 142 
12 11 15 81 30 24 175 74 183 200 185 20 214 
13 11 71 138 75 26 21 42 206 37 54 219 103 
14 11 100 57 219 79 208 135 19 202 182 92 211 
15 11 81 12 175 30 74 24 185 214 20 183 105 
16 11 41 151 23 39 58 160 210 176 137 70 38 
17 11 168 52 165 65 111 116 194 125 128 115 193 
18 11 204 105 188 185 214 74 175 45 119 20 43 
19 11 79 100 57 191 14 179 72 219 206 77 182 
20 11 214 185 188 74 43 18 175 64 200 45 196 
21 11 42 71 13 58 49 26 172 23 210 138 103 
22 11 120 204 45 216 9 64 43 112 18 46 130 
23 11 58 16 151 41 210 103 39 160 218 176 21 
24 11 30 119 155 175 105 15 81 34 12 74 145 
25 11 50 56 87 118 55 198 152 107 102 78 36 
26 11 71 54 103 13 138 218 129 21 153 42 32 
27 11 190 180 48 171 193 124 111 123 108 28 63 
28 11 123 150 142 99 48 83 124 195 27 78 178 
29 11 101 183 196 200 146 187 127 95 20 81 12 
30 11 24 15 34 81 119 175 155 12 105 145 74 
31 11 147 167 181 174 186 192 5 94 62 53 10 
32 11 153 97 218 154 103 54 129 173 38 160 176 
33 11 40 189 133 193 63 168 194 17 125 86 111 
34 11 201 145 149 30 24 66 155 162 73 213 170 
35 11 131 172 93 134 157 169 3 59 8 44 60 
36 11 68 107 207 141 7 198 61 203 50 118 205 
37 11 206 77 75 138 89 19 57 79 13 219 117 
38 11 176 160 154 166 151 41 39 32 173 153 218 
39 11 41 151 16 160 176 137 70 38 23 58 154 
40 11 33 189 177 194 6 125 133 158 193 63 88 
41 11 151 39 16 160 176 23 38 58 137 154 70 
42 11 21 71 13 58 49 172 26 210 23 138 103 
43 11 64 45 188 9 214 216 20 185 204 18 22 
44 11 170 162 134 155 131 3 119 35 66 157 105 
45 11 64 43 204 22 188 9 18 216 120 214 185 
46 11 112 11 130 120 83 197 22 121 99 159 56 
47 11 115 76 110 67 85 161 114 82 65 209 108 
48 11 124 171 195 123 27 28 180 190 121 197 99 
49 11 8 92 219 42 21 93 169 135 35 57 14 
50 11 25 118 87 198 107 56 36 55 68 78 102 
51 11 143 104 164 217 152 55 102 144 106 56 216 
52 11 165 116 128 65 17 88 125 194 168 115 98 
53 11 96 62 5 10 192 181 174 177 6 132 139 
54 11 218 103 129 153 26 97 32 71 154 23 173 
55 11 152 56 143 25 51 217 164 87 102 50 216 
56 11 55 152 25 50 87 217 216 143 102 51 164 
57 11 219 100 14 79 19 206 135 208 37 75 49 
58 11 23 210 16 151 41 103 21 39 42 172 160 
59 11 157 3 73 172 66 210 162 35 213 58 149 
60 11 199 169 93 131 90 159 134 8 35 92 212 
61 11 141 198 87 207 36 102 68 7 50 107 164 
62 11 53 10 5 96 192 174 181 132 6 177 139 
63 11 133 109 190 163 86 180 189 140 193 27 33 
64 11 43 45 188 9 216 204 22 214 20 185 18 
65 11 52 128 116 165 17 98 115 47 168 76 88 
66 11 73 3 149 145 59 157 162 213 201 170 210 
67 11 161 85 82 76 114 47 205 110 209 115 2 
68 11 36 107 207 141 203 7 205 118 215 61 198 
69 11 95 106 127 144 187 146 104 217 51 101 43 
70 11 137 213 39 16 41 151 160 210 176 23 73 
71 11 13 26 21 42 138 75 103 54 58 23 218 
72 11 191 179 19 84 117 79 156 182 89 77 100 
73 11 66 3 59 157 149 213 145 162 210 172 201 
74 11 185 214 175 20 188 18 105 81 15 119 43 
75 11 138 206 37 13 77 71 57 26 219 19 89 
76 11 47 67 115 161 209 85 82 110 114 2 98 
77 11 37 206 89 19 75 117 79 57 72 138 191 
78 11 178 142 150 118 99 107 83 28 205 114 50 
79 11 19 100 57 14 179 191 219 182 72 156 206 
80 11 122 203 136 215 7 91 207 68 36 82 205 
81 11 15 12 175 74 30 24 185 20 214 183 200 
82 11 67 161 85 114 205 76 209 47 215 110 2 
83 11 99 142 150 11 78 28 123 46 195 118 178 
84 11 117 4 113 72 89 191 77 179 19 79 156 
85 11 161 114 67 82 110 205 47 76 115 178 209 
86 11 163 189 63 109 126 133 140 148 190 180 211 
87 11 198 102 50 25 164 141 55 61 56 143 152 
88 11 125 194 158 165 116 52 128 17 65 40 33 
89 11 117 77 37 84 72 206 19 191 75 4 79 
90 11 92 212 169 8 93 60 135 202 208 199 49 
91 11 136 122 80 215 203 7 207 82 209 2 68 
92 11 212 8 90 135 202 208 169 49 93 14 219 
93 11 169 60 131 8 199 35 90 92 134 49 212 
94 11 186 147 31 167 174 181 184 192 113 132 4 
95 11 69 127 106 187 146 144 104 101 196 217 43 
96 11 53 5 62 192 10 181 174 177 6 31 147 
97 11 153 32 218 129 54 154 173 103 38 160 166 
98 11 2 209 65 76 128 116 52 47 115 165 67 
99 11 83 142 150 28 78 123 11 178 195 118 46 
100 11 14 57 79 219 19 208 135 182 179 202 156 
101 11 146 187 29 196 200 127 183 95 69 106 144 
102 11 87 164 198 143 55 51 61 25 141 56 50 
103 11 218 54 32 153 97 26 23 151 58 129 41 
104 11 51 217 143 144 106 152 69 164 55 95 9 
105 11 119 175 18 74 185 24 214 155 188 204 30 
106 11 69 95 144 127 104 217 187 146 51 9 43 
107 11 118 68 36 78 178 50 205 25 142 198 150 
108 11 111 168 110 115 193 27 47 17 28 123 85 
109 11 63 190 180 133 140 163 86 126 189 27 171 
110 11 115 47 85 108 161 114 67 76 111 178 150 
111 11 108 168 193 27 17 115 110 33 47 133 190 
112 11 46 130 120 11 22 197 159 83 121 99 56 
113 11 4 84 117 94 89 72 184 191 132 77 179 
114 11 85 161 205 67 82 110 178 47 76 115 78 
115 11 47 110 76 108 67 85 168 65 161 111 17 
116 11 128 165 52 65 88 125 17 194 98 158 168 
117 11 89 84 72 77 191 4 113 19 37 179 79 
118 11 107 78 50 25 178 142 83 99 150 36 68 
119 11 105 175 155 18 24 30 74 44 170 185 214 
120 11 22 112 46 216 9 204 45 130 64 56 43 
121 11 197 195 11 124 130 48 159 171 46 83 112 
122 11 80 136 203 215 91 7 207 68 36 82 205 
123 11 28 48 150 124 99 195 142 27 83 171 108 
124 11 48 171 195 123 121 27 180 190 28 197 11 
125 11 194 88 158 165 116 52 17 128 40 33 65 
126 11 140 211 163 86 109 156 182 63 202 180 208 
127 11 95 69 106 146 187 196 144 101 200 43 20 
128 11 116 52 165 65 88 17 125 98 194 168 115 
129 11 97 54 153 218 32 103 173 26 154 166 38 
130 11 159 112 46 197 11 121 120 22 199 195 204 
131 11 134 199 93 60 35 169 44 170 8 162 90 
132 11 139 184 10 6 62 53 148 177 174 5 192 
133 11 63 109 189 163 86 193 33 190 180 140 27 
134 11 131 44 170 35 162 199 60 93 155 3 169 
135 11 208 202 212 92 14 100 211 90 219 8 57 
136 11 80 122 91 203 215 7 207 68 36 82 141 
137 11 70 39 213 41 16 151 160 176 38 23 210 
138 11 75 13 206 71 37 26 77 21 42 57 219 
139 11 132 184 6 10 148 62 177 53 5 96 174 
140 11 126 109 211 163 86 180 63 190 133 171 156 
141 11 61 198 36 207 68 87 7 102 50 107 203 
142 11 150 99 78 83 178 28 123 118 107 11 195 
143 11 51 164 104 152 217 55 102 56 87 144 106 
144 11 106 69 95 104 51 127 187 217 143 146 164 
145 11 149 201 66 34 73 162 3 155 213 170 59 
146 11 187 101 95 127 69 196 106 144 200 29 183 
147 11 31 186 167 174 181 192 94 5 62 10 53 
148 11 86 163 139 189 6 132 126 156 184 133 182 
149 11 145 201 66 34 73 213 3 162 155 59 170 
150 11 142 78 28 178 99 83 123 118 110 114 107 
151 11 41 16 39 160 23 176 38 58 154 103 32 
152 11 55 217 56 51 143 216 104 9 164 25 102 
153 11 32 97 218 54 129 103 154 173 38 160 176 
154 11 38 166 176 160 173 32 153 97 218 151 41 
155 11 170 44 162 119 24 30 105 134 145 3 34 
156 11 182 179 211 191 126 72 79 19 100 208 14 
157 11 59 3 172 73 210 66 35 162 58 170 44 
158 11 125 88 194 40 165 116 177 33 52 17 128 
159 11 130 197 199 60 121 11 112 46 131 120 169 
160 11 176 38 151 41 154 39 166 16 32 153 218 
161 11 85 67 114 82 205 76 47 110 115 178 209 
162 11 170 44 3 155 66 134 145 73 59 157 149 
163 11 86 189 109 63 126 133 140 148 190 180 211 
164 11 143 102 51 55 87 104 152 217 198 56 25 
165 11 52 116 128 65 88 125 17 194 158 168 98 
166 11 154 38 173 176 160 32 153 97 151 218 41 
167 11 186 31 147 181 174 192 94 5 62 53 10 
168 11 111 17 193 108 115 52 33 65 165 110 47 
169 11 93 60 90 8 131 199 92 35 212 49 134 
170 11 44 162 155 134 3 131 119 35 66 145 157 
171 11 124 48 180 190 27 195 109 123 140 121 63 
172 11 157 59 35 210 3 42 73 21 58 49 66 
173 11 154 166 97 32 153 38 218 129 176 160 54 
174 11 181 31 147 192 5 167 186 62 10 53 96 
175 11 74 105 119 185 18 214 81 20 24 15 188 
176 11 160 38 154 151 41 166 39 16 32 173 153 
177 11 6 40 10 53 62 139 96 132 5 189 33 
178 11 78 150 142 114 205 107 118 85 99 28 161 
179 11 191 156 182 72 79 19 100 211 14 126 57 
180 11 190 109 171 27 63 140 48 124 133 193 126 
181 11 174 192 31 147 5 167 186 62 53 96 10 
182 11 156 179 211 191 79 126 72 100 19 208 14 
183 11 200 196 29 101 20 81 15 214 127 185 74 
184 11 132 139 10 62 6 174 94 148 181 53 147 
185 11 214 20 74 188 18 175 43 64 105 45 204 
186 11 167 147 31 94 174 181 192 5 62 10 184 
187 11 146 95 101 127 69 106 144 196 200 29 183 
188 11 214 185 20 43 64 18 45 74 204 175 105 
189 11 133 86 163 33 63 40 148 109 6 193 177 
190 11 180 109 27 63 171 133 140 48 124 193 163 
191 11 72 179 19 79 156 182 117 84 100 77 14 
192 11 181 5 174 31 62 53 96 147 10 167 186 
193 11 111 168 133 27 33 63 108 190 109 17 180 
194 11 125 88 158 165 17 52 116 40 128 33 65 
195 11 124 121 48 197 11 123 171 28 83 99 27 
196 11 200 183 101 127 29 146 20 187 95 214 185 
197 11 121 11 195 130 159 124 46 112 48 199 171 
198 11 87 141 102 61 50 25 36 68 164 55 56 
199 11 60 131 93 169 159 134 90 35 130 197 8 
200 11 183 196 29 20 101 127 214 185 74 146 81 
201 11 149 145 34 66 213 73 3 162 155 30 70 
202 11 208 135 212 211 92 14 90 100 182 126 140 
203 11 80 122 215 7 136 207 68 36 91 205 82 
204 11 45 22 18 64 188 43 120 9 105 185 214 
205 11 114 85 161 82 178 67 107 68 78 215 110 
206 11 37 75 77 138 57 19 219 79 13 100 89 
207 11 7 203 36 68 80 141 122 215 61 136 107 
208 11 202 135 212 14 211 92 100 182 219 79 156 
209 11 2 76 98 67 82 47 161 85 115 114 65 
210 11 58 23 59 157 16 172 73 41 151 3 42 
211 11 126 202 208 140 182 156 135 212 14 179 100 
212 11 202 135 92 90 208 8 211 14 169 93 100 
213 11 70 137 66 73 149 201 145 59 210 39 3 
214 11 185 20 188 74 18 175 43 64 45 105 204 
215 11 122 203 80 136 91 7 207 82 68 205 36 
216 11 9 64 217 45 22 152 43 120 55 204 56 
217 11 104 152 51 9 216 143 55 106 56 164 144 
218 11 153 32 97 103 54 129 154 26 160 173 151 
219 11 57 100 14 79 19 206 135 49 208 92 202 
DEPOT_SECTION
   1
   -1
EOF
