NAME :  X-n298-kX-w118-c7.cctp
COMMENT : 	Adapted by Maziero, Usberti and Cavellucci from the Uchoa, Pecin, Pessoa, Poggi, Subramanian, and Vidal (2013)
TYPE :  CCTP
DIMENSION :    292
EDGE_WEIGHT_TYPE : 	EUC_2D	
CAPACITY : 	55
VERTICES_WITHIN_COVERAGE :  7
VERTICES_WITH_DEMAND : 	118
NODE_COORD_SECTION
1 440 732
2 221 348
3 117 545
4 493 645
5 135 12
6 775 997
7 745 444
8 950 311
9 530 150
10 900 508
11 48 519
12 269 217
13 722 349
14 480 733
15 977 422
16 999 220
17 636 332
18 851 162
19 559 567
20 389 69
21 529 835
22 303 427
23 400 638
24 894 904
25 482 109
26 579 800
27 184 82
28 669 753
29 906 424
30 374 692
31 174 613
32 75 37
33 38 563
34 838 157
35 710 709
36 176 67
37 449 326
38 71 389
39 710 115
40 237 547
41 530 27
42 631 223
43 171 342
44 226 65
45 6 998
46 24 635
47 668 165
48 318 608
49 429 82
50 212 237
51 853 126
52 387 47
53 677 144
54 111 790
55 957 32
56 511 647
57 457 561
58 86 687
59 290 456
60 473 563
61 807 725
62 461 468
63 739 235
64 257 340
65 588 545
66 6 311
67 268 976
68 552 414
69 994 946
70 452 534
71 422 545
72 248 611
73 43 366
74 977 96
75 822 580
76 940 650
77 86 263
78 715 99
79 668 981
80 424 638
81 297 607
82 251 282
83 237 413
84 202 573
85 181 385
86 126 528
87 386 811
88 978 846
89 70 99
90 333 357
91 49 870
92 157 734
93 627 268
94 818 433
95 738 555
96 350 909
97 337 926
98 978 59
99 42 595
100 870 933
101 19 120
102 165 679
103 131 984
104 232 755
105 319 417
106 187 376
107 251 482
108 657 219
109 209 397
110 800 377
111 228 116
112 566 559
113 490 156
114 216 547
115 964 677
116 85 897
117 292 807
118 600 893
119 938 222
120 543 747
121 572 976
122 569 59
123 712 574
124 971 515
125 616 306
126 695 837
127 421 821
128 604 995
129 537 957
130 1000 653
131 282 817
132 380 874
133 778 101
134 462 74
135 87 682
136 441 228
137 608 430
138 511 313
139 710 300
140 630 24
141 626 650
142 531 719
143 598 824
144 995 622
145 258 981
146 358 281
147 279 169
148 286 268
149 259 659
150 782 132
151 862 518
152 457 603
153 210 438
154 44 44
155 527 818
156 164 156
157 23 86
158 342 930
159 39 282
160 269 848
161 436 886
162 323 340
163 237 891
164 333 488
165 517 137
166 591 972
167 541 888
168 122 280
169 159 655
170 200 158
171 446 283
172 107 315
173 588 270
174 158 374
175 26 353
176 959 76
177 852 328
178 927 736
179 437 138
180 53 938
181 333 192
182 922 499
183 407 948
184 970 664
185 237 738
186 8 561
187 989 908
188 100 860
189 10 960
190 842 190
191 595 716
192 286 965
193 199 373
194 159 67
195 979 25
196 488 479
197 804 620
198 528 160
199 223 342
200 503 159
201 711 681
202 339 340
203 342 509
204 931 593
205 766 953
206 710 172
207 521 451
208 172 159
209 685 836
210 639 155
211 763 656
212 269 241
213 825 761
214 330 177
215 901 124
216 619 926
217 692 19
218 96 876
219 949 178
220 79 795
221 833 852
222 336 444
223 877 0
224 296 597
225 566 735
226 940 377
227 939 827
228 908 120
229 50 741
230 670 569
231 753 744
232 577 351
233 141 616
234 97 625
235 64 875
236 496 160
237 515 598
238 344 803
239 274 510
240 291 170
241 800 300
242 74 609
243 791 396
244 453 848
245 395 290
246 525 743
247 260 385
248 408 837
249 1 346
250 231 504
251 837 572
252 606 473
253 900 729
254 346 868
255 123 80
256 477 169
257 383 59
258 510 410
259 890 101
260 952 635
261 825 722
262 68 598
263 234 841
264 911 720
265 172 367
266 569 289
267 84 19
268 694 916
269 454 412
270 261 233
271 693 375
272 588 854
273 276 538
274 599 569
275 142 158
276 338 805
277 324 194
278 739 325
279 845 639
280 638 182
281 858 93
282 40 923
283 37 599
284 638 39
285 218 714
286 568 674
287 288 840
288 439 570
289 325 801
290 587 278
291 992 674
292 597 608
DEMAND_SECTION
2 2
3 9
4 1
5 4
6 9
7 5
8 7
9 2
10 4
11 7
12 2
13 9
14 5
15 10
16 5
17 8
18 5
19 8
20 8
21 6
22 7
23 2
24 1
25 3
26 9
27 1
28 1
29 10
30 3
31 4
32 8
33 10
34 7
35 9
36 6
37 1
38 1
39 9
40 9
41 5
42 9
43 3
44 6
45 4
46 2
47 8
48 3
49 10
50 6
51 9
52 5
53 5
54 7
55 10
56 5
57 8
58 1
59 4
60 4
61 10
62 7
63 8
64 9
65 8
66 1
67 5
68 9
69 8
70 4
71 7
72 5
73 2
74 9
75 1
76 6
77 10
78 10
79 7
80 10
81 6
82 6
83 9
84 2
85 6
86 1
87 9
88 8
89 10
90 3
91 9
92 3
93 8
94 10
95 6
96 10
97 9
98 7
99 7
100 4
101 1
102 3
103 4
104 5
105 10
106 4
107 2
108 9
109 1
110 6
111 4
112 7
113 5
114 1
115 3
116 4
117 4
118 6
119 6
COVERAGE_SECTION
2 7 199 193 64 106 43 109 265 
3 7 86 262 11 233 242 33 234 
4 7 56 237 152 80 286 142 60 
5 7 267 194 32 36 255 27 154 
6 4 205 79 100 268 
7 7 243 94 271 110 13 95 278 
8 7 226 119 177 16 15 29 219 
9 7 198 165 200 236 113 256 25 
10 7 182 151 124 29 204 251 75 
11 7 33 186 3 99 86 262 283 
12 7 270 212 147 240 148 50 277 
13 7 278 271 139 110 243 17 241 
14 7 246 142 120 225 4 56 155 
15 7 226 29 124 182 8 10 151 
16 7 119 219 8 74 228 215 176 
17 7 125 232 93 271 290 173 266 
18 7 34 190 51 215 281 228 259 
19 7 112 65 274 237 292 60 56 
20 7 257 52 49 134 179 25 214 
21 7 155 167 26 272 143 244 120 
22 7 105 59 222 247 83 164 90 
23 7 80 30 152 288 48 4 57 
24 7 100 221 227 187 88 69 205 
25 7 134 165 113 236 179 200 49 
26 7 143 155 272 21 120 225 246 
27 7 36 194 44 111 255 156 170 
28 7 35 191 201 231 209 126 143 
29 7 226 15 182 10 94 151 177 
30 7 23 80 48 14 81 238 276 
31 7 233 169 84 102 72 114 234 
32 7 267 154 89 255 5 157 194 
33 7 186 99 283 11 262 242 46 
34 7 18 190 51 150 281 215 259 
35 7 201 231 28 211 61 141 191 
36 7 27 194 44 255 5 111 156 
37 7 171 138 245 269 136 146 258 
38 7 73 175 172 249 174 66 265 
39 7 78 53 206 47 133 150 210 
40 7 114 273 250 84 239 72 107 
41 7 122 134 25 140 284 165 49 
42 7 108 280 93 173 210 47 290 
43 7 265 174 106 193 85 2 199 
44 7 27 36 111 194 170 255 5 
45 7 189 180 282 103 116 91 235 
46 7 283 99 242 262 33 234 186 
47 7 53 210 280 206 108 39 42 
48 7 81 224 72 149 273 23 30 
49 7 134 20 257 52 179 25 113 
50 7 270 212 12 82 148 170 208 
51 7 281 34 18 259 215 228 190 
52 7 257 20 49 134 179 25 214 
53 7 47 210 206 39 280 78 108 
54 7 220 188 92 229 218 235 91 
55 7 195 98 176 74 223 259 228 
56 7 4 237 286 152 142 80 14 
57 7 60 288 70 71 152 237 80 
58 7 135 234 229 102 242 169 46 
59 7 22 107 222 105 164 239 83 
60 7 57 288 70 152 71 237 4 
61 7 261 213 231 211 253 279 35 
62 7 196 269 207 70 258 71 57 
63 7 206 139 108 241 278 47 42 
64 7 199 2 247 82 162 193 109 
65 7 112 274 19 292 252 230 237 
66 7 249 159 175 73 77 172 38 
67 7 145 192 97 158 163 96 160 
68 7 258 207 137 232 252 196 269 
69 7 187 88 24 100 227 221 178 
70 7 57 71 60 288 196 62 152 
71 7 288 70 57 60 152 62 203 
72 7 81 149 224 84 40 48 114 
73 7 175 38 249 66 172 159 77 
74 7 176 98 55 195 228 215 219 
75 7 251 197 279 151 95 211 10 
76 7 260 184 115 291 204 130 144 
77 7 168 159 172 66 175 73 43 
78 7 39 53 133 206 150 47 217 
79 7 128 268 216 166 121 205 6 
80 7 23 152 4 288 30 57 56 
81 7 224 48 72 149 273 40 239 
82 7 148 212 270 64 50 199 12 
83 7 109 247 153 193 106 85 2 
84 7 114 40 31 72 233 250 273 
85 7 106 265 193 174 109 43 2 
86 7 3 11 84 233 262 114 33 
87 7 248 127 238 276 289 132 254 
88 7 227 187 69 24 178 100 253 
89 7 157 101 255 154 32 267 275 
90 7 202 162 105 22 64 247 146 
91 7 235 116 218 188 282 180 220 
92 7 102 285 54 104 169 185 58 
93 7 173 125 290 42 108 266 17 
94 7 243 110 7 29 151 177 10 
95 7 123 230 75 197 251 211 7 
96 7 97 158 254 132 183 192 161 
97 7 158 96 254 192 132 183 67 
98 7 176 55 195 74 228 259 215 
99 7 283 262 33 242 46 186 234 
100 7 24 221 205 6 187 69 227 
101 7 157 89 154 32 255 267 275 
102 7 169 92 285 31 233 135 58 
103 7 180 116 282 218 189 45 145 
104 7 185 285 92 117 131 263 149 
105 7 22 222 59 90 247 164 162 
106 7 85 193 265 174 109 43 2 
107 7 250 239 59 153 273 40 83 
108 7 42 280 47 93 210 206 53 
109 7 193 85 106 83 153 265 2 
110 7 243 94 177 241 278 13 7 
111 7 170 44 27 36 208 147 156 
112 7 19 65 274 292 237 60 252 
113 7 236 200 256 165 198 9 25 
114 7 40 84 250 273 239 72 107 
115 7 184 291 76 130 260 144 264 
116 7 218 235 188 91 180 282 103 
117 7 131 287 289 276 160 238 263 
118 7 216 272 167 143 166 121 129 
119 7 219 16 8 190 215 18 228 
120 7 246 225 142 191 26 14 155 
121 7 166 128 129 216 118 167 79 
122 7 41 140 284 165 9 25 134 
123 7 95 230 211 197 201 75 274 
124 7 182 10 204 15 151 144 29 
125 7 17 93 290 173 266 232 42 
126 4 209 268 28 143 
127 7 248 87 244 132 161 238 276 
128 7 166 121 79 216 129 118 268 
129 7 121 166 167 128 216 118 272 
130 7 291 144 184 115 260 76 204 
131 7 117 287 160 289 263 276 238 
132 7 254 96 248 161 87 97 127 
133 7 150 78 39 51 281 34 18 
134 7 49 25 179 20 52 257 41 
135 7 58 234 229 242 169 102 46 
136 5 171 256 245 113 236 
137 7 252 68 232 207 258 271 17 
138 7 37 266 171 232 290 173 258 
139 7 278 13 63 271 17 93 241 
140 7 284 217 122 41 78 39 53 
141 7 292 286 191 274 201 230 35 
142 7 246 120 225 14 286 191 56 
143 7 26 272 118 21 155 167 209 
144 7 130 260 184 291 76 115 204 
145 7 67 192 163 97 158 96 103 
146 5 245 202 162 148 90 
147 7 240 12 277 214 181 270 212 
148 6 212 82 270 12 146 64 
149 7 72 81 285 224 48 185 102 
150 7 133 34 51 39 18 78 206 
151 7 10 251 182 75 94 204 29 
152 7 288 57 60 80 4 237 23 
153 7 83 109 85 107 106 193 250 
154 7 32 157 267 89 101 255 5 
155 7 21 26 143 167 272 120 246 
156 7 208 275 170 111 27 255 194 
157 7 101 154 89 32 267 255 5 
158 7 97 96 254 192 183 132 67 
159 7 66 77 175 249 172 168 73 
160 7 287 131 263 117 163 289 254 
161 7 244 248 132 127 183 96 87 
162 6 202 90 64 146 105 247 
163 7 263 160 287 131 192 67 145 
164 7 203 222 59 239 22 105 273 
165 7 9 198 200 236 113 25 256 
166 7 121 128 216 129 79 118 167 
167 7 21 272 118 129 155 143 216 
168 7 172 77 43 159 50 265 174 
169 7 102 233 31 234 135 92 58 
170 7 208 156 111 275 27 50 147 
171 5 37 245 136 138 146 
172 7 168 77 43 159 174 38 73 
173 7 290 266 93 125 42 17 232 
174 7 265 85 106 43 193 109 2 
175 7 73 249 66 38 159 172 77 
176 7 98 74 55 195 228 259 215 
177 7 241 110 243 8 226 29 94 
178 7 264 253 115 184 76 291 227 
179 6 256 25 113 49 236 134 
180 7 282 189 116 235 91 218 45 
181 5 277 214 240 147 12 
182 7 10 124 151 29 204 15 251 
183 7 158 161 96 97 132 254 244 
184 7 115 291 130 76 260 144 204 
185 7 104 285 92 149 117 131 102 
186 7 33 99 283 11 262 46 242 
187 7 69 88 24 227 100 221 178 
188 7 218 235 116 91 220 54 282 
189 7 45 180 282 91 116 235 218 
190 7 18 34 51 150 215 228 281 
191 7 225 286 120 142 141 246 28 
192 7 67 145 97 158 96 163 254 
193 7 106 85 109 265 2 199 174 
194 7 36 27 255 5 44 111 32 
195 7 55 98 176 74 223 259 228 
196 7 62 207 70 258 269 60 57 
197 7 75 279 211 251 95 123 261 
198 7 9 165 200 236 113 256 25 
199 7 2 64 193 106 43 109 247 
200 7 236 113 198 165 9 256 25 
201 7 35 211 231 28 141 61 123 
202 6 162 90 146 245 105 64 
203 7 164 222 239 273 59 71 22 
204 7 260 76 144 184 124 10 115 
205 4 6 268 79 100 
206 7 47 53 39 63 108 78 210 
207 7 258 196 68 62 269 252 137 
208 7 156 170 275 111 27 50 36 
209 4 126 268 28 143 
210 7 280 47 53 108 42 206 39 
211 7 197 201 35 61 279 231 261 
212 7 270 12 148 82 50 277 147 
213 7 261 61 231 253 221 264 178 
214 5 181 277 240 147 12 
215 7 228 259 51 281 18 34 219 
216 7 118 166 121 128 79 268 272 
217 7 284 140 78 39 133 53 122 
218 7 188 116 235 91 282 180 220 
219 7 119 16 228 215 74 259 18 
220 7 54 229 188 91 235 218 92 
221 4 24 100 213 227 
222 7 105 22 164 59 203 90 239 
223 7 55 281 259 195 176 98 228 
224 7 81 48 72 273 149 40 239 
225 7 120 191 142 246 286 26 14 
226 7 15 29 8 177 182 94 10 
227 7 88 24 178 187 253 221 264 
228 7 215 259 51 281 176 18 219 
229 7 220 58 135 54 92 46 234 
230 7 123 95 274 292 65 141 112 
231 7 35 61 213 261 201 28 211 
232 7 125 17 266 68 290 138 173 
233 7 31 169 234 102 242 3 84 
234 7 242 262 233 135 58 99 283 
235 7 91 116 218 188 282 180 220 
236 7 113 200 256 165 198 9 25 
237 7 56 4 19 60 152 112 57 
238 7 276 289 87 117 131 254 287 
239 7 273 107 250 40 59 164 203 
240 7 147 214 277 181 12 270 212 
241 7 177 278 110 63 139 13 243 
242 7 262 234 99 283 46 33 233 
243 7 110 94 7 13 278 177 241 
244 7 127 161 248 21 87 132 155 
245 6 146 171 37 202 136 162 
246 7 120 142 225 14 155 191 26 
247 7 83 64 109 2 199 22 193 
248 7 127 87 132 244 161 254 238 
249 7 175 66 73 159 38 172 77 
250 7 107 40 239 114 273 153 84 
251 7 75 197 151 279 10 204 95 
252 7 137 65 68 207 112 274 19 
253 7 264 178 261 115 213 76 61 
254 7 132 96 97 158 276 287 238 
255 7 194 36 89 27 32 5 267 
256 7 113 236 200 165 179 198 9 
257 7 20 52 49 134 179 25 214 
258 7 68 207 269 196 62 232 138 
259 7 215 228 281 51 18 176 34 
260 7 76 184 115 144 204 130 291 
261 7 61 213 231 253 279 264 211 
262 7 242 99 283 234 33 46 186 
263 7 160 163 131 287 117 104 289 
264 7 253 178 115 76 184 261 291 
265 7 174 106 85 43 193 109 2 
266 7 290 173 125 93 138 232 17 
267 7 32 154 5 255 89 194 157 
268 5 79 216 126 205 209 
269 7 62 258 196 207 37 68 138 
270 7 212 12 148 50 82 147 240 
271 7 13 278 17 139 7 243 137 
272 7 143 118 26 167 21 155 216 
273 7 239 40 250 107 114 224 81 
274 7 65 112 292 19 230 141 237 
275 7 156 208 170 255 27 89 194 
276 7 238 289 117 87 131 287 254 
277 6 181 214 240 147 12 212 
278 7 13 139 241 271 110 243 63 
279 7 197 75 251 211 261 61 76 
280 7 210 47 42 108 53 206 93 
281 7 51 259 215 228 34 18 133 
282 7 180 189 116 91 235 218 45 
283 7 99 262 33 46 242 186 234 
284 7 140 217 122 78 39 41 53 
285 7 185 104 92 102 149 169 72 
286 7 191 142 225 56 141 292 120 
287 7 160 131 117 263 289 276 254 
288 7 57 71 60 70 152 80 23 
289 7 276 238 117 131 287 87 254 
290 7 173 266 125 93 42 17 232 
291 7 130 184 115 144 260 76 178 
292 7 274 141 19 112 65 286 230 
DEPOT_SECTION
   1
   -1
EOF
