NAME :  X-n219-kX-w87-c7.cctp
COMMENT : 	Adapted by Maziero, Usberti and Cavellucci from the Uchoa, Pecin, Pessoa, Poggi, Subramanian, and Vidal (2013)
TYPE :  CCTP
DIMENSION :    218
EDGE_WEIGHT_TYPE : 	EUC_2D	
CAPACITY : 	3
VERTICES_WITHIN_COVERAGE :  7
VERTICES_WITH_DEMAND : 	87
NODE_COORD_SECTION
1 0 0
2 18 761
3 835 397
4 299 16
5 31 168
6 142 257
7 242 984
8 612 357
9 663 812
10 105 188
11 487 636
12 993 703
13 672 148
14 506 259
15 953 706
16 888 203
17 107 534
18 772 692
19 475 182
20 828 775
21 719 220
22 655 722
23 844 197
24 918 600
25 460 844
26 739 102
27 301 523
28 341 627
29 989 936
30 935 602
31 44 72
32 861 67
33 163 416
34 981 503
35 722 397
36 317 903
37 547 95
38 944 106
39 935 192
40 128 376
41 908 176
42 720 226
43 738 793
44 791 498
45 712 751
46 530 693
47 141 673
48 380 544
49 634 301
50 427 853
51 606 949
52 47 557
53 48 202
54 791 67
55 546 876
56 526 842
57 535 216
58 828 214
59 829 352
60 623 473
61 374 1000
62 74 187
63 275 415
64 726 789
65 51 597
66 894 395
67 159 743
68 301 893
69 755 946
70 978 261
71 709 153
72 391 153
73 876 370
74 846 725
75 604 107
76 117 709
77 507 89
78 348 744
79 476 204
80 181 957
81 948 710
82 158 788
83 414 685
84 358 66
85 196 732
86 283 343
87 456 931
88 5 468
89 459 43
90 555 414
91 94 964
92 558 360
93 641 424
94 132 16
95 777 947
96 25 205
97 852 45
98 5 686
99 400 682
100 501 234
101 905 968
102 492 971
103 817 114
104 651 941
105 817 643
106 735 937
107 333 829
108 223 584
109 306 412
110 209 663
111 206 549
112 542 691
113 296 10
114 215 747
115 148 641
116 9 553
117 411 59
118 382 800
119 824 612
120 608 727
121 481 574
122 169 950
123 350 608
124 396 536
125 36 459
126 359 339
127 798 917
128 10 569
129 813 10
130 569 627
131 692 467
132 166 178
133 247 413
134 738 487
135 508 327
136 158 986
137 983 244
138 637 109
139 177 207
140 357 374
141 361 972
142 365 701
143 582 957
144 712 996
145 932 452
146 847 981
147 60 66
148 252 267
149 944 435
150 338 688
151 900 168
152 583 871
153 852 59
154 921 72
155 845 534
156 387 253
157 812 354
158 5 404
159 590 575
160 930 128
161 184 742
162 832 466
163 285 346
164 548 976
165 32 531
166 966 58
167 31 40
168 162 539
169 621 425
170 802 495
171 385 493
172 769 329
173 921 15
174 64 106
175 854 678
176 943 122
177 103 285
178 304 739
179 398 212
180 335 459
181 43 108
182 400 255
183 935 851
184 179 147
185 822 749
186 60 32
187 829 992
188 783 760
189 218 360
190 321 463
191 403 172
192 32 134
193 218 490
194 44 456
195 430 570
196 896 875
197 509 572
198 424 936
199 639 505
200 914 852
201 984 435
202 479 341
203 207 937
204 709 700
205 235 795
206 557 130
207 270 964
208 482 320
209 60 761
210 836 272
211 509 379
212 961 329
213 819 754
214 176 910
215 648 809
216 640 892
217 838 79
218 552 232
DEMAND_SECTION
2 1
3 1
4 1
5 1
6 1
7 1
8 1
9 1
10 1
11 1
12 1
13 1
14 1
15 1
16 1
17 1
18 1
19 1
20 1
21 1
22 1
23 1
24 1
25 1
26 1
27 1
28 1
29 1
30 1
31 1
32 1
33 1
34 1
35 1
36 1
37 1
38 1
39 1
40 1
41 1
42 1
43 1
44 1
45 1
46 1
47 1
48 1
49 1
50 1
51 1
52 1
53 1
54 1
55 1
56 1
57 1
58 1
59 1
60 1
61 1
62 1
63 1
64 1
65 1
66 1
67 1
68 1
69 1
70 1
71 1
72 1
73 1
74 1
75 1
76 1
77 1
78 1
79 1
80 1
81 1
82 1
83 1
84 1
85 1
86 1
87 1
88 1
COVERAGE_SECTION
2 7 209 98 76 67 82 47 65 
3 7 59 73 157 66 162 172 170 
4 7 113 84 117 89 72 94 184 
5 7 192 96 53 62 181 174 10 
6 7 177 139 10 132 62 53 148 
7 7 207 203 80 122 136 214 68 
8 7 92 49 169 93 90 211 135 
9 7 215 64 43 45 216 22 152 
10 7 62 53 132 139 5 6 96 
11 7 121 197 46 112 130 195 83 
12 7 15 81 30 24 175 74 183 
13 7 71 138 75 26 21 42 206 
14 7 100 57 218 79 208 135 19 
15 7 81 12 175 30 74 24 185 
16 7 41 151 23 39 58 160 210 
17 7 168 52 165 65 111 116 194 
18 7 204 105 188 185 213 74 175 
19 7 79 100 57 191 14 179 72 
20 7 213 185 188 74 43 18 175 
21 7 42 71 13 58 49 26 172 
22 7 120 204 45 215 9 64 43 
23 7 58 16 151 41 210 103 39 
24 7 30 119 155 175 105 15 81 
25 7 50 56 87 118 55 198 152 
26 7 71 54 103 13 138 217 129 
27 7 190 180 48 171 193 124 111 
28 7 123 150 142 99 48 83 124 
29 7 101 183 196 200 146 187 127 
30 7 24 15 34 81 119 175 155 
31 7 147 167 181 174 186 192 5 
32 7 153 97 217 154 103 54 129 
33 7 40 189 133 193 63 168 194 
34 7 201 145 149 30 24 66 155 
35 7 131 172 93 134 157 169 3 
36 7 68 107 207 141 7 198 61 
37 7 206 77 75 138 89 19 57 
38 7 176 160 154 166 151 41 39 
39 7 41 151 16 160 176 137 70 
40 7 33 189 177 194 6 125 133 
41 7 151 39 16 160 176 23 38 
42 7 21 71 13 58 49 172 26 
43 7 64 45 188 9 213 215 20 
44 7 170 162 134 155 131 3 119 
45 7 64 43 204 22 188 9 18 
46 7 112 11 130 120 83 197 22 
47 7 115 76 110 67 85 161 114 
48 7 124 171 195 123 27 28 180 
49 7 8 92 218 42 21 93 169 
50 7 25 118 87 198 107 56 36 
51 7 143 104 164 216 152 55 102 
52 7 165 116 128 65 17 88 125 
53 7 96 62 5 10 192 181 174 
54 7 217 103 129 153 26 97 32 
55 7 152 56 143 25 51 216 164 
56 7 55 152 25 50 87 216 215 
57 7 218 100 14 79 19 206 135 
58 7 23 210 16 151 41 103 21 
59 7 157 3 73 172 66 210 162 
60 7 199 169 93 131 90 159 134 
61 7 141 198 87 207 36 102 68 
62 7 53 10 5 96 192 174 181 
63 7 133 109 190 163 86 180 189 
64 7 43 45 188 9 215 204 22 
65 7 52 128 116 165 17 98 115 
66 7 73 3 149 145 59 157 162 
67 7 161 85 82 76 114 47 205 
68 7 36 107 207 141 203 7 205 
69 7 95 106 127 144 187 146 104 
70 7 137 212 39 16 41 151 160 
71 7 13 26 21 42 138 75 103 
72 7 191 179 19 84 117 79 156 
73 7 66 3 59 157 149 212 145 
74 7 185 213 175 20 188 18 105 
75 7 138 206 37 13 77 71 57 
76 7 47 67 115 161 209 85 82 
77 7 37 206 89 19 75 117 79 
78 7 178 142 150 118 99 107 83 
79 7 19 100 57 14 179 191 218 
80 7 122 203 136 214 7 91 207 
81 7 15 12 175 74 30 24 185 
82 7 67 161 85 114 205 76 209 
83 7 99 142 150 11 78 28 123 
84 7 117 4 113 72 89 191 77 
85 7 161 114 67 82 110 205 47 
86 7 163 189 63 109 126 133 140 
87 7 198 102 50 25 164 141 55 
88 7 125 194 158 165 116 52 128 
89 7 117 77 37 84 72 206 19 
90 7 92 211 169 8 93 60 135 
91 7 136 122 80 214 203 7 207 
92 7 211 8 90 135 202 208 169 
93 7 169 60 131 8 199 35 90 
94 7 186 147 31 167 174 181 184 
95 7 69 127 106 187 146 144 104 
96 7 53 5 62 192 10 181 174 
97 7 153 32 217 129 54 154 173 
98 7 2 209 65 76 128 116 52 
99 7 83 142 150 28 78 123 11 
100 7 14 57 79 218 19 208 135 
101 7 146 187 29 196 200 127 183 
102 7 87 164 198 143 55 51 61 
103 7 217 54 32 153 97 26 23 
104 7 51 216 143 144 106 152 69 
105 7 119 175 18 74 185 24 213 
106 7 69 95 144 127 104 216 187 
107 7 118 68 36 78 178 50 205 
108 7 111 168 110 115 193 27 47 
109 7 63 190 180 133 140 163 86 
110 7 115 47 85 108 161 114 67 
111 7 108 168 193 27 17 115 110 
112 7 46 130 120 11 22 197 159 
113 7 4 84 117 94 89 72 184 
114 7 85 161 205 67 82 110 178 
115 7 47 110 76 108 67 85 168 
116 7 128 165 52 65 88 125 17 
117 7 89 84 72 77 191 4 113 
118 7 107 78 50 25 178 142 83 
119 7 105 175 155 18 24 30 74 
120 7 22 112 46 215 9 204 45 
121 7 197 195 11 124 130 48 159 
122 7 80 136 203 214 91 7 207 
123 7 28 48 150 124 99 195 142 
124 7 48 171 195 123 121 27 180 
125 7 194 88 158 165 116 52 17 
126 6 140 163 86 109 156 182 
127 7 95 69 106 146 187 196 144 
128 7 116 52 165 65 88 17 125 
129 7 97 54 153 217 32 103 173 
130 7 159 112 46 197 11 121 120 
131 7 134 199 93 60 35 169 44 
132 7 139 184 10 6 62 53 148 
133 7 63 109 189 163 86 193 33 
134 7 131 44 170 35 162 199 60 
135 6 208 202 211 92 14 100 
136 7 80 122 91 203 214 7 207 
137 7 70 39 212 41 16 151 160 
138 7 75 13 206 71 37 26 77 
139 7 132 184 6 10 148 62 177 
140 6 126 109 163 86 180 63 
141 7 61 198 36 207 68 87 7 
142 7 150 99 78 83 178 28 123 
143 7 51 164 104 152 216 55 102 
144 7 106 69 95 104 51 127 187 
145 7 149 201 66 34 73 162 3 
146 7 187 101 95 127 69 196 106 
147 7 31 186 167 174 181 192 94 
148 7 86 163 139 189 6 132 126 
149 7 145 201 66 34 73 212 3 
150 7 142 78 28 178 99 83 123 
151 7 41 16 39 160 23 176 38 
152 7 55 216 56 51 143 215 104 
153 7 32 97 217 54 129 103 154 
154 7 38 166 176 160 173 32 153 
155 7 170 44 162 119 24 30 105 
156 6 182 179 191 126 72 79 
157 7 59 3 172 73 210 66 35 
158 7 125 88 194 40 165 116 177 
159 7 130 197 199 60 121 11 112 
160 7 176 38 151 41 154 39 166 
161 7 85 67 114 82 205 76 47 
162 7 170 44 3 155 66 134 145 
163 7 86 189 109 63 126 133 140 
164 7 143 102 51 55 87 104 152 
165 7 52 116 128 65 88 125 17 
166 7 154 38 173 176 160 32 153 
167 7 186 31 147 181 174 192 94 
168 7 111 17 193 108 115 52 33 
169 7 93 60 90 8 131 199 92 
170 7 44 162 155 134 3 131 119 
171 7 124 48 180 190 27 195 109 
172 7 157 59 35 210 3 42 73 
173 7 154 166 97 32 153 38 217 
174 7 181 31 147 192 5 167 186 
175 7 74 105 119 185 18 213 81 
176 7 160 38 154 151 41 166 39 
177 7 6 40 10 53 62 139 96 
178 7 78 150 142 114 205 107 118 
179 7 191 156 182 72 79 19 100 
180 7 190 109 171 27 63 140 48 
181 7 174 192 31 147 5 167 186 
182 6 156 179 191 79 126 72 
183 7 200 196 29 101 20 81 15 
184 7 132 139 10 62 6 174 94 
185 7 213 20 74 188 18 175 43 
186 7 167 147 31 94 174 181 192 
187 7 146 95 101 127 69 106 144 
188 7 213 185 20 43 64 18 45 
189 7 133 86 163 33 63 40 148 
190 7 180 109 27 63 171 133 140 
191 7 72 179 19 79 156 182 117 
192 7 181 5 174 31 62 53 96 
193 7 111 168 133 27 33 63 108 
194 7 125 88 158 165 17 52 116 
195 7 124 121 48 197 11 123 171 
196 7 200 183 101 127 29 146 20 
197 7 121 11 195 130 159 124 46 
198 7 87 141 102 61 50 25 36 
199 7 60 131 93 169 159 134 90 
200 7 183 196 29 20 101 127 213 
201 7 149 145 34 66 212 73 3 
202 6 208 135 211 92 14 90 
203 7 80 122 214 7 136 207 68 
204 7 45 22 18 64 188 43 120 
205 7 114 85 161 82 178 67 107 
206 7 37 75 77 138 57 19 218 
207 7 7 203 36 68 80 141 122 
208 6 202 135 211 14 92 100 
209 7 2 76 98 67 82 47 161 
210 7 58 23 59 157 16 172 73 
211 6 202 135 92 90 208 8 
212 7 70 137 66 73 149 201 145 
213 7 185 20 188 74 18 175 43 
214 7 122 203 80 136 91 7 207 
215 7 9 64 216 45 22 152 43 
216 7 104 152 51 9 215 143 55 
217 7 153 32 97 103 54 129 154 
218 7 57 100 14 79 19 206 135 
DEPOT_SECTION
   1
   -1
EOF
