NAME :  X-n223-kX-w44-c9.cctp
COMMENT : 	Adapted by Maziero, Usberti and Cavellucci from the Uchoa, Pecin, Pessoa, Poggi, Subramanian, and Vidal (2013)
TYPE :  CCTP
DIMENSION :    176
EDGE_WEIGHT_TYPE : 	EUC_2D	
CAPACITY : 	37
VERTICES_WITHIN_COVERAGE :  9
VERTICES_WITH_DEMAND : 	44
NODE_COORD_SECTION
1 284 167
2 6 711
3 874 746
4 483 894
5 733 189
6 336 29
7 488 684
8 825 903
9 98 412
10 206 306
11 497 641
12 499 745
13 481 40
14 500 390
15 851 268
16 51 278
17 805 796
18 554 771
19 576 984
20 734 251
21 325 414
22 658 81
23 279 467
24 1000 804
25 124 148
26 554 594
27 645 168
28 4 965
29 614 267
30 939 719
31 935 800
32 109 154
33 31 554
34 960 512
35 489 840
36 377 684
37 945 808
38 720 165
39 226 34
40 73 255
41 748 344
42 774 514
43 143 893
44 168 461
45 164 493
46 631 533
47 833 284
48 746 100
49 252 839
50 894 472
51 944 597
52 371 28
53 552 186
54 610 541
55 578 665
56 749 655
57 898 974
58 274 972
59 520 642
60 914 373
61 610 738
62 773 602
63 752 74
64 729 90
65 464 658
66 964 397
67 388 732
68 185 51
69 712 144
70 45 437
71 910 738
72 956 879
73 318 560
74 592 913
75 642 564
76 907 240
77 88 186
78 399 931
79 763 180
80 626 876
81 302 689
82 970 490
83 775 574
84 653 667
85 813 999
86 5 980
87 10 249
88 557 816
89 915 680
90 131 722
91 553 946
92 306 260
93 627 26
94 771 398
95 869 585
96 493 282
97 312 212
98 985 939
99 194 262
100 992 698
101 834 844
102 1 651
103 271 893
104 20 349
105 163 503
106 579 761
107 923 502
108 2 469
109 103 284
110 63 181
111 784 300
112 826 222
113 36 51
114 231 82
115 57 79
116 62 272
117 22 273
118 106 897
119 805 267
120 150 793
121 106 129
122 212 590
123 327 114
124 646 219
125 259 282
126 692 298
127 47 944
128 801 272
129 72 185
130 646 242
131 189 387
132 119 294
133 31 339
134 730 188
135 57 143
136 93 759
137 824 259
138 924 237
139 57 338
140 83 189
141 51 217
142 780 316
143 305 615
144 111 271
145 345 763
146 127 979
147 53 950
148 751 295
149 134 317
150 98 293
151 172 219
152 739 331
153 160 970
154 176 57
155 27 359
156 135 211
157 154 988
158 776 143
159 117 953
160 710 173
161 111 270
162 105 225
163 53 438
164 82 228
165 933 313
166 837 214
167 752 302
168 42 300
169 489 208
170 683 398
171 608 548
172 54 335
173 221 117
174 160 835
175 769 226
176 139 843
DEMAND_SECTION
2 6
3 6
4 9
5 2
6 4
7 10
8 2
9 3
10 3
11 1
12 4
13 3
14 8
15 6
16 4
17 4
18 6
19 3
20 5
21 10
22 7
23 3
24 8
25 9
26 2
27 2
28 9
29 2
30 2
31 1
32 2
33 9
34 9
35 1
36 9
37 5
38 9
39 8
40 6
41 2
42 10
43 3
44 10
45 10
COVERAGE_SECTION
2 3 102 136 90 
3 9 71 30 89 31 17 37 101 100 24 
4 9 35 91 78 88 74 19 18 80 12 
5 8 134 38 160 79 69 175 20 158 
6 9 52 123 39 114 13 173 68 154 97 
7 9 65 11 59 12 55 18 36 67 26 
8 9 101 85 57 17 72 31 37 3 98 
9 7 163 70 44 139 155 172 131 
10 6 99 125 149 131 132 151 
11 9 59 65 7 26 55 12 36 18 67 
12 9 18 7 106 88 65 35 11 59 61 
13 9 52 6 93 53 169 123 22 27 97 
14 9 96 29 21 169 170 54 171 46 130 
15 8 47 137 119 128 112 166 76 111 
16 9 116 168 117 40 150 87 109 172 164 
17 9 101 3 8 71 31 37 56 30 89 
18 9 106 88 12 61 35 7 55 80 59 
19 9 91 74 80 4 35 88 78 18 106 
20 9 175 148 167 5 126 134 111 128 119 
21 9 23 131 73 125 92 10 44 14 45 
22 9 93 64 69 27 48 63 38 160 134 
23 9 21 73 44 45 131 105 122 143 10 
24 9 37 31 72 30 100 71 98 3 89 
25 9 32 121 77 140 129 156 135 110 162 
26 9 59 171 11 55 54 75 46 65 7 
27 9 124 160 69 130 38 134 22 5 53 
28 4 86 127 147 159 
29 9 130 124 126 53 27 20 96 160 169 
30 9 71 89 100 3 31 37 24 51 95 
31 9 37 24 71 3 30 72 101 100 89 
32 9 25 121 77 140 129 110 135 156 162 
33 9 108 102 70 163 105 45 9 2 44 
34 9 82 107 50 51 66 95 60 89 42 
35 9 4 88 18 12 106 91 74 78 80 
36 9 67 81 145 65 143 7 11 12 73 
37 9 31 24 72 71 30 3 101 100 89 
38 9 160 69 134 5 79 158 48 27 64 
39 9 68 114 154 173 6 123 52 25 121 
40 9 116 164 16 144 161 109 141 162 150 
41 8 152 167 142 148 111 94 126 170 
42 9 83 62 94 95 50 75 56 46 170 
43 6 118 176 174 159 153 146 
44 8 45 105 131 9 23 163 70 122 
45 9 105 44 9 122 131 23 163 70 33 
46 9 54 171 75 26 84 55 42 170 83 
47 8 15 137 119 128 111 112 142 166 
48 8 64 63 158 69 38 160 79 134 
49 9 103 174 120 176 145 43 58 118 81 
50 9 107 34 82 60 66 95 42 51 94 
51 9 95 34 89 107 82 100 30 50 71 
52 9 6 123 13 39 114 173 68 97 154 
53 9 169 27 124 29 130 96 22 160 13 
54 9 171 46 75 26 55 84 59 11 170 
55 9 59 26 84 61 11 7 106 18 12 
56 9 62 83 84 95 75 42 17 3 61 
57 9 85 98 8 72 101 37 31 24 17 
58 9 103 153 157 78 49 146 43 159 174 
59 9 11 7 65 26 55 12 171 61 18 
60 9 66 165 50 47 15 107 82 76 138 
61 9 106 18 55 84 88 12 59 7 80 
62 9 83 56 42 95 75 84 46 89 51 
63 7 48 64 158 69 22 38 79 
64 8 48 63 69 158 22 38 160 79 
65 9 7 11 59 36 12 67 26 55 18 
66 8 60 165 82 50 107 34 138 76 
67 9 36 145 81 65 7 12 11 143 35 
68 8 154 39 114 173 121 25 32 115 
69 9 38 160 134 5 48 64 79 158 27 
70 8 163 108 9 155 104 133 139 172 
71 9 30 3 89 31 37 100 24 17 101 
72 9 98 37 31 24 57 101 8 71 3 
73 9 143 23 122 81 36 21 105 45 65 
74 9 80 91 19 88 4 35 18 106 61 
75 9 46 171 54 26 84 55 83 62 56 
76 5 138 15 166 165 112 
77 8 140 129 110 32 164 162 141 25 
78 9 4 35 58 103 91 49 145 19 74 
79 7 5 134 158 38 175 160 69 
80 9 74 88 91 19 106 18 61 35 4 
81 9 143 36 145 67 73 122 49 65 90 
82 9 34 107 50 66 51 60 95 165 42 
83 9 62 42 56 95 75 46 84 50 107 
84 9 55 61 56 75 106 26 171 54 59 
85 9 57 8 101 98 72 17 80 37 31 
86 5 28 127 147 159 146 
87 7 117 16 141 116 168 40 164 
88 9 18 106 35 80 12 61 74 4 91 
89 9 30 71 3 100 51 95 31 37 24 
90 6 136 120 174 176 2 102 
91 9 19 74 4 80 35 88 78 18 106 
92 8 97 125 10 99 151 123 21 173 
93 9 22 64 63 48 27 69 13 38 160 
94 8 41 152 142 170 167 111 148 42 
95 9 51 83 62 107 89 50 34 42 56 
96 9 169 14 53 29 130 124 92 27 97 
97 9 92 125 123 99 173 151 10 114 156 
98 9 72 57 24 37 31 8 101 85 71 
99 7 10 151 125 156 149 132 144 
100 9 30 89 71 24 51 31 37 3 95 
101 9 17 8 3 31 37 72 71 57 85 
102 5 2 33 136 90 108 
103 9 49 58 174 43 78 153 176 145 157 
104 8 155 133 172 139 168 117 16 116 
105 9 45 44 122 9 131 23 163 70 33 
106 9 18 61 88 12 55 7 35 84 80 
107 9 34 50 82 51 95 66 60 42 83 
108 8 70 163 33 9 155 104 133 139 
109 7 150 144 161 132 40 116 149 
110 7 129 140 77 135 141 164 32 
111 8 142 167 128 148 119 47 152 41 
112 7 166 137 119 15 128 175 47 
113 4 115 135 121 32 
114 9 173 39 68 154 123 6 25 121 32 
115 5 113 135 121 32 25 
116 9 16 40 168 117 150 109 164 144 161 
117 9 87 16 168 116 40 141 133 172 139 
118 4 43 159 176 127 
119 8 128 137 47 111 15 112 142 175 
120 6 174 176 136 90 43 49 
121 8 32 25 135 77 140 129 110 115 
122 9 143 105 45 73 81 44 23 90 33 
123 9 6 52 97 114 173 39 92 68 154 
124 9 130 27 29 160 134 126 5 38 20 
125 7 92 10 99 97 151 131 149 
126 9 152 148 167 20 41 130 29 142 124 
127 5 147 28 86 159 118 
128 8 119 137 111 47 142 15 148 112 
129 7 110 140 77 141 164 135 32 
130 9 124 29 126 27 20 160 134 5 38 
131 7 44 10 149 9 45 132 105 
132 6 109 150 144 161 149 40 
133 8 104 155 172 139 168 16 117 116 
134 8 5 38 160 79 69 175 20 158 
135 6 110 129 121 32 77 140 
136 4 90 120 176 2 
137 8 119 128 47 15 112 166 111 175 
138 4 76 165 15 166 
139 8 172 133 155 104 168 16 150 116 
140 7 77 129 110 164 162 141 32 
141 7 164 110 129 140 40 77 87 
142 8 111 167 148 41 152 128 119 47 
143 9 73 81 122 36 67 23 145 65 105 
144 7 161 109 132 150 40 162 116 
145 9 67 36 81 49 103 143 12 65 7 
146 8 157 159 153 147 118 43 127 86 
147 6 127 28 86 159 118 146 
148 8 167 111 142 152 20 41 128 126 
149 6 132 150 109 144 161 10 
150 7 109 132 144 161 116 149 40 
151 7 156 99 162 144 161 25 77 
152 8 41 167 148 142 111 126 94 20 
153 8 157 146 159 43 118 147 58 127 
154 8 68 39 114 173 121 25 32 115 
155 8 104 133 172 139 168 70 163 16 
156 8 162 151 77 140 164 32 25 161 
157 8 153 146 159 43 118 147 127 58 
158 7 79 48 38 5 69 134 64 
159 7 146 153 157 118 147 43 127 
160 9 38 134 5 69 79 27 158 124 175 
161 7 144 109 132 150 40 162 116 
162 8 164 156 140 77 40 161 144 129 
163 8 70 9 108 155 104 139 133 172 
164 8 162 40 141 140 77 129 116 110 
165 7 60 76 138 66 15 47 137 
166 5 112 137 15 119 128 
167 8 148 142 111 152 41 20 128 126 
168 9 16 116 117 172 133 139 104 40 150 
169 9 53 96 29 124 27 130 13 97 14 
170 8 41 152 94 126 167 148 142 111 
171 9 54 46 75 26 55 84 59 11 170 
172 8 139 133 155 104 168 16 150 116 
173 9 114 68 154 39 25 123 151 121 32 
174 6 176 120 43 118 49 136 
175 8 20 79 5 134 119 128 112 137 
176 5 174 43 120 118 136 
DEPOT_SECTION
   1
   -1
EOF
