NAME :  X-n289-kX-w115-c9.cctp
COMMENT : 	Adapted by Maziero, Usberti and Cavellucci from the Uchoa, Pecin, Pessoa, Poggi, Subramanian, and Vidal (2013)
TYPE :  CCTP
DIMENSION :    283
EDGE_WEIGHT_TYPE : 	EUC_2D	
CAPACITY : 	267
VERTICES_WITHIN_COVERAGE :  9
VERTICES_WITH_DEMAND : 	115
NODE_COORD_SECTION
1 0 0
2 174 325
3 49 34
4 543 815
5 42 920
6 545 80
7 681 950
8 870 118
9 787 220
10 537 927
11 180 838
12 543 582
13 442 620
14 747 569
15 932 48
16 14 356
17 53 476
18 603 228
19 772 573
20 811 359
21 373 37
22 859 142
23 489 543
24 37 771
25 354 944
26 96 62
27 326 729
28 881 541
29 653 724
30 226 759
31 481 44
32 100 882
33 129 299
34 989 512
35 600 42
36 538 772
37 346 479
38 448 624
39 286 417
40 612 457
41 70 468
42 502 909
43 595 503
44 819 948
45 771 355
46 372 196
47 535 775
48 232 518
49 119 626
50 110 835
51 567 348
52 6 211
53 493 652
54 96 183
55 105 479
56 873 333
57 468 199
58 536 120
59 17 65
60 638 958
61 328 921
62 968 540
63 125 145
64 692 422
65 557 864
66 752 850
67 703 395
68 498 832
69 343 962
70 583 474
71 976 636
72 101 555
73 77 544
74 981 353
75 625 324
76 622 728
77 855 827
78 792 443
79 283 63
80 760 751
81 972 417
82 694 214
83 38 91
84 294 791
85 429 815
86 691 154
87 930 792
88 579 279
89 431 909
90 615 264
91 448 185
92 49 414
93 883 478
94 627 564
95 40 434
96 718 660
97 896 694
98 716 586
99 607 343
100 675 244
101 282 617
102 199 880
103 998 855
104 588 662
105 58 700
106 221 510
107 518 554
108 203 173
109 944 282
110 254 558
111 428 165
112 848 305
113 860 100
114 602 620
115 437 55
116 922 348
117 433 776
118 891 306
119 211 731
120 408 859
121 492 322
122 581 746
123 868 337
124 365 161
125 568 646
126 456 81
127 477 162
128 429 844
129 396 41
130 130 972
131 563 135
132 317 258
133 414 696
134 547 90
135 602 325
136 321 27
137 263 184
138 474 629
139 526 440
140 814 534
141 287 975
142 11 791
143 217 331
144 745 430
145 34 925
146 84 298
147 12 489
148 140 132
149 755 784
150 948 889
151 201 545
152 609 322
153 880 525
154 649 744
155 643 684
156 769 790
157 319 178
158 731 709
159 787 828
160 225 726
161 596 265
162 634 256
163 663 359
164 166 640
165 642 362
166 520 270
167 42 480
168 112 399
169 150 168
170 82 292
171 122 330
172 127 502
173 775 687
174 13 620
175 634 888
176 982 753
177 224 537
178 841 798
179 174 366
180 24 40
181 145 248
182 419 444
183 879 792
184 929 876
185 123 355
186 986 847
187 948 915
188 875 393
189 117 315
190 662 329
191 34 517
192 73 159
193 80 288
194 152 615
195 192 202
196 881 867
197 766 781
198 660 798
199 184 487
200 706 738
201 75 367
202 192 700
203 277 151
204 9 455
205 605 301
206 102 332
207 193 612
208 606 304
209 50 417
210 61 343
211 80 515
212 79 416
213 257 315
214 215 135
215 892 734
216 130 120
217 91 213
218 679 826
219 634 319
220 698 259
221 664 283
222 316 692
223 159 590
224 768 627
225 583 308
226 552 300
227 890 942
228 921 841
229 884 682
230 28 627
231 846 789
232 141 84
233 151 452
234 651 231
235 593 205
236 126 511
237 53 418
238 126 279
239 65 479
240 217 664
241 465 504
242 11 435
243 328 87
244 341 495
245 167 100
246 75 221
247 12 139
248 712 863
249 854 920
250 95 312
251 0 426
252 700 806
253 36 551
254 200 578
255 572 402
256 695 326
257 811 730
258 957 880
259 194 131
260 120 604
261 998 976
262 736 914
263 252 343
264 653 922
265 726 784
266 171 218
267 188 452
268 170 515
269 594 876
270 169 35
271 149 580
272 758 826
273 69 12
274 878 954
275 728 812
276 141 498
277 149 103
278 671 370
279 467 248
280 256 559
281 115 233
282 605 283
283 880 764
DEMAND_SECTION
2 73
3 71
4 59
5 29
6 19
7 79
8 27
9 13
10 77
11 21
12 99
13 24
14 71
15 38
16 59
17 56
18 41
19 87
20 28
21 81
22 18
23 49
24 28
25 35
26 86
27 40
28 89
29 75
30 25
31 56
32 43
33 57
34 88
35 37
36 88
37 76
38 37
39 67
40 3
41 64
42 53
43 72
44 55
45 22
46 56
47 51
48 30
49 15
50 1
51 46
52 78
53 18
54 62
55 100
56 43
57 87
58 4
59 71
60 87
61 36
62 77
63 61
64 5
65 96
66 82
67 22
68 33
69 30
70 32
71 88
72 5
73 47
74 47
75 28
76 65
77 77
78 13
79 57
80 52
81 36
82 24
83 78
84 17
85 12
86 50
87 70
88 45
89 41
90 11
91 51
92 54
93 14
94 70
95 76
96 57
97 59
98 100
99 7
100 10
101 23
102 25
103 65
104 70
105 2
106 25
107 91
108 86
109 48
110 24
111 94
112 7
113 19
114 97
115 79
116 15
COVERAGE_SECTION
2 9 179 143 33 171 189 185 238 206 250 
3 9 180 273 59 26 83 232 247 216 270 
4 9 47 36 68 65 122 269 42 10 85 
5 9 145 32 130 50 142 24 11 102 105 
6 9 134 58 131 35 31 126 127 115 235 
7 9 264 60 262 175 248 269 66 218 44 
8 9 113 22 15 9 109 86 112 118 82 
9 9 82 220 112 22 100 86 8 118 45 
10 9 42 65 269 68 175 60 89 4 264 
11 9 102 50 30 32 119 160 84 202 130 
12 9 107 23 125 114 138 53 94 104 43 
13 9 38 138 53 133 23 107 12 241 125 
14 9 19 98 224 140 96 94 173 78 28 
15 9 113 8 22 9 109 118 86 112 82 
16 8 210 201 92 209 251 237 242 95 
17 9 167 239 41 147 95 191 211 204 55 
18 9 235 90 161 162 234 282 88 205 100 
19 9 14 224 98 140 96 28 173 153 78 
20 9 45 123 112 56 188 78 118 144 116 
21 9 129 136 115 243 79 126 31 124 111 
22 9 8 113 9 15 112 109 118 86 82 
23 9 107 241 12 138 13 38 53 139 43 
24 9 142 105 50 32 230 5 174 145 11 
25 9 69 61 141 89 120 128 85 42 84 
26 9 232 3 273 83 216 277 180 270 59 
27 9 222 84 133 160 30 119 117 101 240 
28 9 153 93 140 62 34 19 78 71 14 
29 9 154 76 155 200 198 122 158 104 96 
30 9 119 160 202 84 11 240 27 222 102 
31 9 115 126 6 134 129 58 21 127 35 
32 9 50 5 145 11 130 102 142 24 30 
33 9 189 238 171 250 206 146 170 193 2 
34 9 62 81 153 93 28 71 74 188 140 
35 9 6 134 131 58 31 86 126 235 115 
36 9 47 4 122 68 65 76 117 154 85 
37 9 244 182 39 48 280 110 241 106 177 
38 9 13 138 53 133 23 107 12 241 125 
39 9 263 37 244 267 213 143 106 48 179 
40 9 70 43 255 64 139 165 278 94 67 
41 9 239 17 167 55 95 211 212 237 209 
42 9 10 65 89 68 128 269 4 120 85 
43 9 70 40 94 107 139 12 255 23 114 
44 6 249 274 227 262 196 66 
45 9 20 67 144 256 78 112 123 278 56 
46 9 124 157 111 91 132 57 203 279 127 
47 9 36 4 122 68 65 76 117 85 269 
48 9 106 177 151 110 280 199 268 254 267 
49 9 260 194 164 223 271 72 207 230 73 
50 9 32 11 24 102 142 5 145 130 30 
51 9 99 135 225 152 226 255 208 205 75 
52 8 246 247 192 217 54 193 170 281 
53 9 138 38 13 125 12 133 104 107 23 
54 9 217 192 246 63 281 169 148 216 181 
55 9 172 41 236 239 276 211 17 233 167 
56 9 123 118 112 116 188 20 109 45 74 
57 9 91 127 279 111 166 46 58 124 131 
58 9 131 134 6 127 126 31 35 235 57 
59 9 180 83 3 247 273 26 192 232 216 
60 9 264 7 175 269 10 262 248 65 218 
61 9 25 69 141 120 89 128 84 102 85 
62 9 34 28 153 71 93 81 140 229 97 
63 9 148 216 169 54 277 192 245 232 259 
64 9 67 144 278 163 165 40 256 190 78 
65 9 269 4 10 68 42 175 47 36 264 
66 9 272 159 248 275 156 149 262 252 197 
67 9 64 278 163 144 165 256 190 45 78 
68 9 4 65 47 128 85 36 42 117 120 
69 9 25 61 141 89 120 128 102 42 85 
70 9 43 40 139 255 94 107 12 23 64 
71 9 62 97 229 176 34 215 28 153 283 
72 9 73 211 236 260 271 172 253 223 276 
73 9 72 211 253 191 236 172 239 55 17 
74 9 116 81 109 118 56 188 123 112 34 
75 9 219 152 135 99 208 205 190 165 225 
76 9 29 154 122 155 104 198 200 36 125 
77 9 178 231 183 196 228 159 283 87 184 
78 9 144 20 45 140 93 188 67 64 153 
79 9 243 136 203 21 214 259 129 270 157 
80 9 197 149 156 265 158 257 200 173 275 
81 9 74 116 34 188 93 62 56 123 118 
82 9 100 220 234 86 162 221 18 9 90 
83 9 59 180 247 3 26 192 273 216 63 
84 9 27 30 160 222 119 11 102 120 61 
85 9 128 117 120 68 89 47 4 36 42 
86 9 82 234 100 220 235 18 9 162 131 
87 9 228 183 283 176 215 186 77 184 231 
88 9 161 282 225 205 226 208 90 135 152 
89 9 120 128 42 25 85 68 69 61 10 
90 9 161 162 282 18 205 88 208 234 221 
91 9 57 111 127 279 46 124 126 58 166 
92 9 209 237 95 212 242 251 201 204 41 
93 9 153 28 188 140 78 62 81 34 116 
94 9 114 43 12 98 70 125 104 40 107 
95 9 209 237 92 242 204 251 212 17 41 
96 9 158 224 173 98 155 200 29 14 80 
97 9 229 215 283 257 71 183 87 176 231 
98 9 14 19 224 96 94 140 173 114 155 
99 9 135 152 75 219 208 51 165 205 225 
100 9 220 234 82 221 162 90 18 282 161 
101 9 280 110 240 222 207 254 177 151 48 
102 9 11 32 50 130 30 141 84 61 119 
103 8 186 258 150 184 187 228 87 176 
104 9 125 114 155 76 122 29 12 53 154 
105 9 24 230 174 49 142 260 164 194 202 
106 9 48 177 151 199 268 110 280 267 254 
107 9 23 12 241 138 43 38 13 53 70 
108 9 195 214 259 169 266 137 148 203 245 
109 9 118 116 74 56 123 112 188 81 20 
110 9 280 177 48 151 106 254 101 207 268 
111 9 91 127 57 124 46 126 279 115 157 
112 9 56 123 118 20 116 45 188 109 9 
113 9 8 22 15 9 86 109 82 112 118 
114 9 125 104 94 12 155 107 76 53 29 
115 9 126 129 31 21 111 6 127 243 134 
116 9 56 118 123 74 188 109 81 112 20 
117 9 85 128 133 68 120 47 36 4 27 
118 9 56 123 112 116 109 188 20 74 45 
119 9 160 30 202 240 84 164 11 222 27 
120 9 128 85 89 117 68 25 61 42 69 
121 9 166 226 279 51 225 88 135 255 205 
122 9 76 36 47 154 29 4 104 155 198 
123 9 56 112 118 116 188 20 109 45 74 
124 9 46 157 111 243 91 203 137 132 57 
125 9 104 114 12 53 155 138 76 94 122 
126 9 115 31 129 127 6 58 111 134 21 
127 9 91 57 111 58 126 279 131 134 6 
128 9 120 85 89 117 68 42 4 25 47 
129 9 21 115 126 136 243 31 79 124 111 
130 9 32 5 145 102 50 11 141 61 69 
131 9 58 134 6 235 127 35 18 57 126 
132 9 157 46 213 137 263 124 203 143 195 
133 9 38 13 117 53 138 27 222 85 36 
134 9 6 58 131 35 31 126 127 115 235 
135 9 152 99 208 75 205 225 219 51 282 
136 9 79 21 243 129 115 203 124 126 157 
137 9 203 157 108 214 195 259 132 266 124 
138 9 38 53 13 12 23 107 133 125 104 
139 9 255 70 40 241 43 51 182 23 107 
140 9 19 28 153 14 93 78 224 98 144 
141 9 69 61 25 102 130 89 120 11 84 
142 9 24 105 50 32 5 145 230 174 11 
143 9 263 2 213 179 33 171 185 189 238 
144 9 78 64 67 45 278 20 163 256 165 
145 9 5 32 130 50 142 24 11 102 105 
146 7 170 193 250 189 206 33 238 
147 9 167 204 191 17 239 242 41 95 251 
148 9 216 63 277 169 245 232 259 54 192 
149 9 197 156 265 80 275 272 159 252 66 
150 7 258 184 187 228 186 103 196 
151 9 177 254 106 48 268 110 280 199 223 
152 9 135 75 208 99 205 219 225 282 51 
153 9 28 93 140 62 34 19 78 188 14 
154 9 29 76 198 200 155 122 252 218 265 
155 9 29 76 104 154 114 96 200 125 122 
156 9 197 149 272 80 159 265 275 66 252 
157 9 124 203 46 137 132 243 111 214 108 
158 9 200 173 80 96 265 29 149 197 257 
159 9 272 66 156 197 149 275 178 77 231 
160 9 119 30 202 240 84 222 27 164 207 
161 9 90 282 88 205 18 162 208 225 226 
162 9 90 234 161 221 282 18 100 205 208 
163 9 278 165 190 256 219 75 67 99 152 
164 9 194 207 49 223 240 260 271 202 254 
165 9 163 278 190 99 75 219 152 135 256 
166 9 226 279 121 88 225 161 282 57 205 
167 9 17 239 41 147 191 204 95 211 242 
168 9 212 185 201 237 92 209 233 206 171 
169 9 63 148 216 108 195 266 54 259 277 
170 7 193 146 250 189 206 238 33 
171 9 189 206 185 33 250 146 238 2 170 
172 9 236 276 55 268 211 233 72 199 73 
173 9 158 257 224 96 80 200 197 149 156 
174 9 230 253 105 73 191 49 260 72 211 
175 9 264 269 60 218 7 65 248 198 10 
176 9 87 215 186 103 283 97 228 183 71 
177 9 48 151 106 110 280 254 268 199 207 
178 9 231 77 183 283 159 156 257 197 196 
179 9 2 185 143 171 168 189 206 33 263 
180 9 3 59 83 273 26 247 232 192 216 
181 9 281 238 266 33 217 195 189 246 193 
182 9 241 37 244 139 23 39 121 107 255 
183 9 283 231 178 77 87 215 228 196 257 
184 7 150 258 228 187 196 186 103 
185 9 171 206 189 168 201 250 179 33 2 
186 8 103 258 150 184 228 87 187 176 
187 6 150 258 184 227 103 186 
188 9 123 56 116 20 93 118 112 78 81 
189 9 171 33 250 206 146 238 185 170 193 
190 9 163 219 256 75 165 278 221 152 99 
191 9 253 147 167 17 211 239 73 41 204 
192 9 54 63 217 246 247 216 148 83 169 
193 7 170 146 250 189 238 206 33 
194 9 223 164 260 49 271 207 254 72 240 
195 9 266 108 169 181 214 259 137 281 148 
196 8 77 228 184 249 150 183 227 258 
197 9 156 149 80 265 272 275 159 257 66 
198 9 218 252 154 265 275 29 200 76 248 
199 9 268 267 106 276 233 48 172 151 236 
200 9 158 265 29 80 154 149 252 197 198 
201 8 210 206 168 185 212 92 209 237 
202 9 119 160 240 164 30 207 194 49 223 
203 9 137 157 214 108 243 259 79 124 195 
204 9 242 251 147 95 167 17 209 92 237 
205 9 208 282 152 225 135 75 88 219 161 
206 8 171 250 189 185 146 210 33 201 
207 9 254 164 223 194 271 240 151 260 49 
208 9 205 152 135 282 225 75 219 88 99 
209 9 92 237 95 212 242 251 41 201 204 
210 8 201 206 250 16 146 170 193 171 
211 9 73 239 55 72 191 236 17 41 172 
212 9 237 209 92 168 95 201 41 17 239 
213 9 263 143 132 2 179 39 33 195 266 
214 9 259 108 245 203 137 195 169 277 148 
215 9 283 97 229 183 87 231 257 178 176 
216 9 148 63 277 232 245 169 259 26 192 
217 8 246 54 281 192 181 169 238 63 
218 9 252 198 248 275 265 66 175 272 149 
219 9 75 152 190 208 135 205 99 165 282 
220 9 100 221 82 234 162 256 190 90 219 
221 9 162 100 220 190 219 90 256 234 75 
222 9 27 101 160 133 84 240 30 119 202 
223 9 271 194 207 260 254 164 49 151 72 
224 9 19 96 173 14 98 158 140 257 80 
225 9 205 208 135 88 152 226 282 99 51 
226 9 225 88 166 51 205 208 135 161 282 
227 6 274 249 187 44 196 184 
228 8 184 196 87 258 150 183 186 77 
229 9 97 215 283 257 71 173 183 231 87 
230 9 174 253 105 49 260 73 72 191 211 
231 9 178 183 77 283 257 159 215 156 197 
232 9 277 245 216 148 26 270 63 259 169 
233 9 267 276 199 55 172 236 168 268 212 
234 9 100 162 82 18 90 221 220 235 161 
235 9 18 161 90 234 162 88 131 282 100 
236 9 172 276 55 268 211 72 73 199 233 
237 9 209 92 95 212 242 41 251 201 204 
238 9 33 181 189 250 146 170 193 281 171 
239 9 17 41 167 211 55 191 95 147 204 
240 9 202 164 207 160 119 101 194 254 223 
241 9 23 107 182 139 12 13 38 37 70 
242 9 251 204 95 92 209 237 147 167 17 
243 9 79 136 21 129 203 124 157 115 137 
244 9 37 182 39 280 110 48 106 177 241 
245 9 277 232 259 148 216 214 63 270 169 
246 8 217 281 54 192 193 52 170 181 
247 9 83 192 52 59 54 180 246 217 3 
248 9 66 218 275 262 252 272 265 175 159 
249 6 227 274 44 196 184 77 
250 8 146 206 189 170 193 171 33 238 
251 9 242 204 95 92 209 237 147 167 16 
252 9 218 275 265 198 248 149 272 66 200 
253 9 191 73 211 72 147 167 174 230 17 
254 9 151 207 223 177 271 110 280 194 48 
255 9 51 139 40 99 70 165 135 152 75 
256 9 190 163 278 221 219 165 220 67 75 
257 9 80 173 197 231 156 178 283 149 215 
258 7 150 184 187 186 103 228 196 
259 9 214 245 108 277 148 169 216 63 195 
260 9 49 194 271 223 72 164 207 73 254 
261 5 187 150 258 227 103 
262 9 248 7 66 264 44 272 159 275 175 
263 9 213 143 2 39 179 132 267 185 33 
264 9 60 175 7 269 248 262 218 65 10 
265 9 275 149 252 197 156 80 200 272 218 
266 9 195 181 169 108 281 238 217 54 63 
267 9 199 233 268 276 106 48 172 236 55 
268 9 199 276 151 236 172 106 177 48 233 
269 9 65 175 264 10 4 60 42 218 198 
270 9 232 245 277 26 216 259 148 273 214 
271 9 223 194 260 254 72 207 49 164 151 
272 9 66 159 275 156 149 197 265 248 252 
273 9 3 180 26 59 83 232 270 277 216 
274 6 227 249 44 187 196 184 
275 9 265 252 272 149 66 156 197 218 248 
276 9 172 236 268 55 199 233 211 267 72 
277 9 245 232 216 148 63 259 169 26 270 
278 9 163 165 67 190 256 64 219 75 99 
279 9 57 166 91 121 127 111 226 46 88 
280 9 110 177 48 151 254 106 101 207 268 
281 8 217 181 246 238 54 266 193 33 
282 9 205 161 90 208 88 225 152 162 135 
283 9 183 215 231 178 87 77 97 257 229 
DEPOT_SECTION
   1
   -1
EOF
