NAME :  X-n284-kX-w56-c11.cctp
COMMENT : 	Adapted by Maziero, Usberti and Cavellucci from the Uchoa, Pecin, Pessoa, Poggi, Subramanian, and Vidal (2013)
TYPE :  CCTP
DIMENSION :    278
EDGE_WEIGHT_TYPE : 	EUC_2D	
CAPACITY : 	109
VERTICES_WITHIN_COVERAGE :  11
VERTICES_WITH_DEMAND : 	56
NODE_COORD_SECTION
1 674 825
2 549 534
3 43 315
4 542 420
5 45 580
6 180 450
7 369 618
8 287 721
9 36 426
10 411 408
11 170 446
12 21 333
13 37 428
14 617 456
15 52 527
16 114 227
17 32 303
18 233 638
19 314 568
20 290 736
21 549 449
22 317 699
23 676 992
24 45 851
25 455 508
26 128 446
27 34 302
28 152 660
29 550 576
30 559 585
31 306 655
32 183 449
33 380 586
34 726 399
35 21 277
36 306 679
37 128 317
38 547 726
39 242 389
40 347 595
41 324 384
42 531 492
43 103 480
44 197 495
45 20 321
46 66 402
47 100 638
48 453 582
49 120 514
50 691 499
51 311 449
52 350 574
53 198 437
54 370 722
55 513 438
56 273 645
57 6 508
58 44 581
59 309 763
60 18 616
61 128 603
62 543 466
63 687 466
64 625 525
65 54 449
66 504 517
67 49 401
68 638 459
69 329 614
70 657 416
71 1 296
72 217 443
73 42 721
74 1 416
75 157 731
76 244 727
77 128 320
78 548 588
79 559 438
80 425 920
81 17 481
82 130 376
83 459 433
84 9 408
85 364 507
86 55 295
87 357 711
88 168 292
89 31 407
90 544 414
91 285 801
92 439 387
93 751 638
94 66 345
95 347 636
96 413 579
97 353 713
98 686 492
99 192 450
100 535 479
101 658 301
102 428 346
103 18 359
104 364 653
105 293 515
106 326 459
107 60 370
108 252 426
109 532 411
110 225 722
111 259 227
112 19 558
113 368 573
114 382 645
115 84 434
116 596 630
117 27 367
118 186 460
119 116 629
120 177 576
121 89 544
122 574 623
123 841 288
124 166 458
125 541 481
126 255 545
127 38 273
128 672 313
129 264 757
130 59 278
131 351 298
132 26 447
133 334 620
134 21 527
135 268 402
136 547 547
137 54 551
138 530 414
139 53 441
140 103 273
141 181 327
142 163 342
143 141 256
144 502 494
145 324 558
146 121 518
147 116 307
148 262 511
149 592 418
150 85 355
151 442 622
152 307 581
153 344 619
154 509 653
155 140 436
156 603 511
157 155 633
158 83 545
159 389 638
160 231 732
161 141 362
162 36 435
163 499 331
164 217 375
165 50 491
166 487 555
167 415 599
168 314 840
169 589 589
170 199 463
171 683 488
172 55 501
173 30 368
174 308 729
175 97 678
176 69 439
177 208 380
178 85 478
179 96 618
180 39 321
181 47 409
182 541 489
183 76 376
184 469 638
185 501 458
186 51 527
187 428 484
188 197 390
189 279 744
190 181 319
191 39 640
192 70 417
193 320 800
194 88 326
195 448 624
196 5 405
197 9 520
198 26 200
199 432 556
200 405 541
201 242 429
202 501 579
203 479 427
204 27 571
205 602 440
206 398 657
207 176 482
208 517 509
209 184 464
210 350 606
211 45 407
212 52 465
213 612 434
214 318 979
215 226 642
216 544 431
217 607 574
218 130 767
219 204 742
220 518 464
221 439 619
222 104 463
223 584 495
224 183 642
225 747 478
226 528 588
227 37 256
228 113 395
229 189 421
230 537 541
231 554 484
232 395 514
233 31 647
234 63 473
235 636 432
236 337 505
237 678 518
238 396 435
239 603 501
240 173 629
241 575 395
242 309 604
243 371 795
244 262 452
245 29 521
246 375 623
247 525 449
248 482 542
249 589 420
250 86 340
251 22 705
252 343 673
253 45 558
254 530 483
255 528 389
256 299 678
257 486 326
258 414 536
259 56 354
260 13 456
261 615 505
262 155 392
263 17 342
264 505 333
265 264 387
266 289 541
267 140 498
268 445 606
269 534 468
270 112 456
271 604 604
272 304 614
273 228 659
274 339 622
275 513 411
276 290 422
277 728 457
278 379 594
DEMAND_SECTION
2 7
3 3
4 3
5 5
6 4
7 8
8 1
9 2
10 9
11 5
12 2
13 2
14 4
15 1
16 3
17 4
18 10
19 2
20 2
21 3
22 9
23 2
24 1
25 6
26 8
27 9
28 7
29 8
30 8
31 4
32 6
33 2
34 7
35 5
36 10
37 4
38 9
39 6
40 8
41 1
42 5
43 5
44 8
45 5
46 5
47 4
48 8
49 3
50 6
51 7
52 7
53 9
54 9
55 5
56 4
57 3
COVERAGE_SECTION
2 11 136 230 208 29 42 182 66 231 30 223 78 
3 11 180 17 27 86 45 12 263 94 130 259 127 
4 11 90 216 109 138 79 21 275 55 247 255 241 
5 11 58 204 253 137 112 60 158 15 186 121 134 
6 11 32 11 99 118 209 124 53 170 229 207 72 
7 11 246 210 153 278 95 159 114 274 40 33 104 
8 11 20 174 189 22 76 129 256 36 59 160 110 
9 11 13 162 89 181 211 132 139 67 65 84 176 
10 11 238 92 83 102 203 187 41 106 275 185 55 
11 11 6 32 124 118 99 209 53 229 155 170 207 
12 11 263 45 180 103 3 17 27 117 173 259 71 
13 11 9 162 139 181 89 132 211 65 67 84 176 
14 11 68 205 213 235 149 249 239 261 223 70 156 
15 11 186 137 245 172 134 253 158 165 121 197 112 
16 11 143 140 130 147 227 88 127 86 37 198 77 
17 11 27 3 180 45 86 35 127 12 71 130 263 
18 11 215 273 56 224 240 31 272 256 157 242 28 
19 11 145 152 52 242 266 40 272 69 210 113 133 
20 11 189 8 174 59 129 22 76 36 160 256 91 
21 11 79 62 216 247 269 4 100 125 220 90 231 
22 11 36 256 174 8 252 97 87 31 20 54 189 
23 11 80 38 214 93 243 116 154 122 168 271 193 
24 11 218 73 251 75 175 219 233 191 28 47 110 
25 11 187 248 144 66 258 199 166 200 232 208 185 
26 11 155 270 222 124 11 43 115 6 228 267 178 
27 11 17 3 180 86 45 35 127 12 71 130 263 
28 11 157 224 240 119 47 175 61 179 75 215 273 
29 11 78 30 226 136 230 169 2 202 122 217 271 
30 11 78 29 169 226 136 122 217 230 271 2 116 
31 11 36 256 56 252 272 22 95 133 69 274 242 
32 11 6 99 118 11 209 53 124 170 229 207 72 
33 11 278 113 52 7 40 96 210 167 246 153 200 
34 10 277 70 63 225 235 171 98 128 50 68 
35 11 127 227 17 27 71 86 130 3 45 180 12 
36 11 256 22 31 252 8 56 174 97 20 95 87 
37 11 77 147 194 142 88 161 250 140 190 141 150 
38 11 154 122 116 184 271 78 226 30 195 169 151 
39 11 265 135 164 177 108 201 188 276 72 229 53 
40 11 210 52 153 69 133 274 113 7 278 33 242 
41 11 276 135 265 51 106 39 108 238 10 131 244 
42 11 254 182 100 125 208 231 269 62 144 220 66 
43 11 222 178 270 49 234 267 26 146 115 172 176 
44 11 207 170 209 118 99 6 32 124 11 72 267 
45 11 12 180 263 17 3 27 71 103 35 86 117 
46 11 192 67 181 211 183 107 89 115 176 9 13 
47 11 119 179 175 61 157 28 191 233 240 5 58 
48 11 268 199 96 221 151 167 195 166 202 248 184 
49 11 146 267 43 121 158 178 222 270 207 172 26 
50 11 98 171 237 63 277 225 68 64 261 14 235 
51 11 106 276 244 236 108 135 41 105 201 265 85 
52 11 113 40 145 33 210 278 19 152 69 153 7 
53 11 99 229 32 72 6 118 170 11 209 124 201 
54 11 87 97 252 22 174 104 206 59 243 36 114 
55 11 247 185 220 275 138 216 109 4 203 269 21 
56 11 31 18 256 272 36 215 273 242 69 133 22 
57 11 197 134 245 81 165 172 186 15 112 260 212 
58 11 5 204 253 137 112 60 158 186 15 121 134 
59 11 20 174 189 193 91 129 8 22 97 243 87 
60 11 191 233 58 5 204 112 253 137 179 47 134 
61 11 119 179 157 47 240 120 28 224 121 158 175 
62 11 269 100 125 21 231 254 182 220 247 42 79 
63 11 171 98 50 277 68 237 70 225 235 14 34 
64 11 261 156 239 223 217 237 68 14 98 171 50 
65 11 139 212 176 162 234 13 132 9 115 192 181 
66 11 208 144 248 42 230 166 254 182 2 100 25 
67 11 211 181 46 89 192 9 13 107 162 183 173 
68 11 14 235 213 205 70 63 261 171 239 98 149 
69 11 133 274 153 210 242 272 40 95 7 152 52 
70 8 235 68 213 14 63 205 149 249 
71 11 35 45 17 27 12 127 180 3 263 86 227 
72 11 53 99 170 201 32 118 229 6 108 209 244 
73 11 251 175 233 191 218 47 60 75 179 119 28 
74 11 84 196 89 9 13 132 162 260 211 181 67 
75 11 218 219 110 28 160 175 76 224 157 273 240 
76 11 160 110 129 189 8 219 20 174 273 59 256 
77 11 37 147 194 142 161 250 88 140 141 190 150 
78 11 30 29 226 136 169 122 202 230 2 271 217 
79 11 21 216 4 90 62 249 247 109 138 149 269 
80 11 214 243 168 193 91 59 54 97 87 174 20 
81 11 260 57 165 132 212 197 245 172 134 234 65 
82 11 161 228 262 142 150 183 77 250 37 155 194 
83 11 203 185 92 10 55 275 187 238 220 247 138 
84 11 196 74 89 9 13 211 162 181 67 132 117 
85 11 236 232 200 258 106 145 113 52 187 105 19 
86 11 130 27 3 17 127 180 35 227 45 194 12 
87 11 97 54 252 22 174 104 36 256 206 8 59 
88 11 190 141 143 37 77 142 147 140 161 16 194 
89 11 211 181 67 9 13 84 196 162 74 46 173 
90 11 4 109 138 216 79 255 275 21 241 55 247 
91 11 193 59 129 168 189 20 174 8 76 243 160 
92 11 10 102 83 203 238 257 275 163 264 255 55 
93 11 237 50 271 116 217 98 225 171 64 169 122 
94 11 259 150 250 107 194 183 180 3 173 117 12 
95 11 274 153 133 104 7 69 210 246 114 252 40 
96 11 167 199 33 278 200 48 268 258 113 221 151 
97 11 87 54 22 252 174 36 104 256 8 20 59 
98 11 171 50 63 237 277 68 225 64 261 14 235 
99 11 32 6 118 53 170 209 11 72 124 229 207 
100 11 125 254 269 182 42 62 231 220 247 21 208 
101 6 128 70 34 241 235 149 
102 11 92 257 10 163 264 131 83 238 203 275 255 
103 11 117 173 263 12 45 259 107 180 196 84 89 
104 11 114 95 159 252 246 206 7 153 274 133 210 
105 11 266 148 236 126 145 19 106 152 51 244 85 
106 11 51 236 276 85 244 105 238 41 108 135 148 
107 11 259 183 94 150 173 46 67 117 211 250 181 
108 11 201 244 135 39 276 72 265 53 164 51 229 
109 11 138 90 4 275 255 216 55 79 247 21 241 
110 11 160 76 219 129 189 8 273 20 75 215 174 
111 11 88 131 190 143 141 16 142 164 37 265 77 
112 11 204 253 134 5 58 137 245 197 15 186 57 
113 11 33 52 278 40 210 7 96 145 200 246 153 
114 11 159 104 206 246 7 95 153 252 274 210 278 
115 11 176 192 139 65 222 270 46 178 234 181 212 
116 11 122 271 169 217 30 78 29 226 154 136 2 
117 11 173 103 263 259 107 12 67 89 196 211 84 
118 11 209 32 6 99 170 124 11 207 53 72 44 
119 11 47 179 61 157 28 175 240 224 191 120 5 
120 11 240 61 157 224 119 146 215 44 18 49 126 
121 11 158 137 15 146 186 49 253 172 5 58 245 
122 11 116 271 169 30 78 29 226 217 154 136 202 
123 7 34 128 101 277 225 70 63 
124 11 11 6 32 209 118 207 99 170 155 53 26 
125 11 100 182 254 231 42 62 269 220 21 247 208 
126 11 266 148 105 19 152 145 44 242 120 272 236 
127 11 35 227 130 86 27 17 3 71 180 45 12 
128 6 101 34 70 235 241 149 
129 11 189 20 76 160 8 59 91 110 174 219 193 
130 11 86 127 227 27 17 35 3 140 180 194 45 
131 11 41 102 111 265 10 92 135 257 276 39 238 
132 11 162 260 13 9 65 139 212 81 74 89 84 
133 11 274 69 153 95 210 40 242 272 7 246 31 
134 11 245 197 57 186 15 112 253 137 172 204 81 
135 11 265 39 108 276 201 244 164 41 51 177 72 
136 11 230 2 29 30 78 226 208 66 202 42 182 
137 11 253 15 186 5 158 58 204 112 121 245 134 
138 11 109 4 90 275 216 255 55 247 79 21 241 
139 11 65 176 162 13 9 212 132 192 115 181 234 
140 11 147 143 130 16 37 77 86 194 127 88 227 
141 11 190 142 88 77 161 37 177 164 188 147 262 
142 11 141 190 161 77 37 82 88 262 147 177 188 
143 11 16 140 88 147 37 77 190 141 130 194 142 
144 11 208 66 42 254 220 100 185 182 125 269 25 
145 11 19 152 52 266 40 113 242 105 210 236 69 
146 11 49 267 121 43 158 178 222 270 207 172 15 
147 11 37 77 194 140 250 88 143 150 142 161 86 
148 11 105 126 266 244 44 236 19 145 51 170 72 
149 9 249 205 213 241 79 14 235 90 4 
150 11 250 94 183 107 194 259 228 82 46 77 161 
151 11 221 195 268 184 167 48 96 159 206 114 199 
152 11 19 242 145 272 69 40 52 266 133 210 274 
153 11 274 133 210 69 95 40 7 246 242 104 272 
154 11 184 195 226 122 151 202 78 221 268 38 30 
155 11 26 11 124 270 6 32 222 262 228 229 118 
156 11 239 261 223 64 231 14 2 68 217 182 136 
157 11 240 28 224 119 61 47 120 179 215 175 273 
158 11 121 137 15 186 253 146 49 5 172 58 245 
159 11 114 206 246 7 104 95 278 167 153 210 274 
160 11 110 76 219 129 189 8 20 273 75 174 59 
161 11 82 142 262 228 77 37 141 150 190 250 147 
162 11 13 9 132 139 65 89 181 211 260 176 212 
163 11 264 257 255 102 275 92 109 138 90 203 4 
164 11 177 188 39 265 229 135 141 201 108 142 262 
165 11 172 234 212 81 15 186 178 245 65 134 57 
166 11 248 202 66 48 230 226 199 208 25 136 144 
167 11 96 221 268 151 278 33 195 48 199 159 246 
168 11 193 91 243 59 129 189 20 174 8 54 76 
169 11 271 217 30 122 29 78 116 136 226 2 230 
170 11 118 99 209 32 6 53 72 207 44 124 11 
171 11 98 50 63 237 68 277 225 64 261 14 235 
172 11 165 15 186 234 245 212 178 81 134 57 137 
173 11 117 103 263 107 259 12 67 89 211 94 181 
174 11 20 8 22 189 59 97 36 87 129 256 54 
175 11 47 119 28 179 191 73 157 233 75 251 61 
176 11 115 139 65 192 212 162 13 9 234 46 181 
177 11 164 188 39 229 262 265 53 141 142 201 72 
178 11 43 234 222 212 270 165 172 65 176 115 139 
179 11 47 119 61 175 157 191 5 58 28 233 121 
180 11 3 17 45 27 12 263 86 94 259 103 71 
181 11 211 67 89 9 46 13 192 162 139 176 84 
182 11 125 42 100 254 231 269 62 208 220 144 21 
183 11 107 150 46 259 94 67 250 192 228 181 211 
184 11 195 151 221 268 154 48 167 202 206 226 159 
185 11 220 55 247 269 144 203 254 100 62 42 125 
186 11 15 245 137 172 134 253 165 158 121 197 112 
187 11 25 232 258 238 83 200 85 199 144 203 185 
188 11 177 164 229 262 39 53 72 142 99 201 32 
189 11 20 129 8 174 59 76 160 91 110 22 193 
190 11 141 142 88 37 77 161 147 164 177 188 143 
191 11 233 60 58 5 47 179 251 175 204 119 73 
192 11 46 115 176 181 67 211 139 9 13 65 162 
193 11 91 59 168 243 189 20 129 174 8 54 97 
194 11 250 94 150 147 77 37 259 86 3 180 183 
195 11 151 221 268 184 167 48 96 206 159 154 114 
196 11 84 74 89 9 13 211 181 162 67 117 173 
197 11 57 134 245 112 81 186 15 165 172 253 204 
198 11 227 127 35 130 16 71 86 27 17 140 3 
199 11 258 96 200 48 167 248 268 25 166 232 33 
200 11 258 232 199 96 113 33 85 167 278 25 187 
201 11 108 72 244 135 39 53 265 276 99 229 170 
202 11 166 226 248 48 78 29 230 136 30 66 268 
203 11 83 55 185 275 247 138 220 109 92 255 4 
204 11 112 5 58 253 137 134 60 186 245 15 197 
205 10 213 14 149 249 235 68 79 241 21 223 
206 11 114 159 104 246 7 95 151 221 252 167 195 
207 11 209 118 44 124 170 6 32 11 99 267 53 
208 11 66 144 42 254 182 100 125 230 2 269 220 
209 11 118 6 32 170 99 124 207 11 53 44 72 
210 11 40 153 274 133 7 69 95 246 278 52 33 
211 11 181 67 89 9 13 46 192 162 139 84 107 
212 11 234 65 139 165 176 132 162 178 172 81 13 
213 9 205 14 235 149 249 68 70 79 241 
214 11 80 168 193 91 243 59 129 189 20 174 8 
215 11 18 273 224 56 240 157 28 110 31 256 120 
216 11 4 79 90 21 138 109 247 55 62 275 269 
217 11 169 271 30 64 29 116 122 78 156 136 261 
218 11 75 219 175 73 110 160 28 24 76 251 47 
219 11 110 160 76 75 129 189 218 8 20 273 28 
220 11 269 247 185 254 100 62 55 125 42 21 144 
221 11 151 195 268 167 184 48 96 159 206 114 199 
222 11 270 43 178 26 115 176 234 155 267 65 212 
223 11 239 156 231 261 182 125 62 14 64 2 100 
224 11 240 157 28 215 273 18 120 61 119 47 56 
225 11 277 50 63 98 171 237 34 70 68 235 64 
226 11 78 29 202 30 136 230 166 2 122 169 248 
227 11 127 35 130 86 27 17 71 198 3 180 45 
228 11 82 183 262 161 46 192 115 150 155 26 107 
229 11 53 32 99 6 11 188 72 118 170 209 124 
230 11 136 2 29 208 66 78 226 30 42 166 182 
231 11 125 182 100 62 42 254 269 223 21 220 208 
232 11 200 258 85 187 199 236 25 113 96 33 52 
233 11 191 60 251 58 5 47 179 175 73 204 119 
234 11 212 165 178 65 172 139 176 43 222 115 132 
235 9 213 70 68 14 205 149 249 63 241 
236 11 85 105 106 145 232 266 51 19 52 113 148 
237 11 50 98 171 63 64 261 68 156 239 277 225 
238 11 10 187 83 92 106 85 232 203 51 41 236 
239 11 156 261 223 64 14 231 68 205 2 182 125 
240 11 224 157 28 61 120 215 119 18 273 47 179 
241 8 149 249 90 4 79 109 255 216 
242 11 272 69 152 133 274 19 153 40 210 145 95 
243 11 193 59 54 168 97 87 91 174 20 189 22 
244 11 108 201 276 72 51 135 148 106 170 265 39 
245 11 134 197 186 15 57 172 165 112 137 253 81 
246 11 7 159 114 278 210 95 153 104 274 33 40 
247 11 55 220 269 21 62 185 216 100 4 254 138 
248 11 166 66 202 25 208 48 144 199 230 136 226 
249 9 149 205 213 241 79 90 14 216 4 
250 11 194 150 94 259 183 107 147 77 37 3 180 
251 11 73 233 191 175 60 47 179 119 218 58 5 
252 11 104 22 36 95 87 31 97 256 114 274 133 
253 11 137 5 204 58 112 15 186 134 158 245 121 
254 11 100 42 125 182 269 62 220 231 208 144 247 
255 11 109 138 275 90 4 216 241 55 79 247 264 
256 11 36 31 22 56 252 8 174 20 95 97 272 
257 11 163 264 102 255 92 275 109 138 203 90 4 
258 11 200 199 232 96 25 187 85 113 33 48 167 
259 11 94 107 150 173 183 117 250 180 103 3 12 
260 11 132 81 162 13 9 212 65 74 139 84 165 
261 11 156 239 64 223 14 68 237 231 205 217 171 
262 11 82 161 188 228 229 155 142 177 11 26 53 
263 11 12 103 45 117 173 180 3 259 17 27 71 
264 11 163 257 255 102 275 109 92 138 90 241 4 
265 11 135 39 108 276 201 164 177 41 244 188 72 
266 11 105 126 19 145 148 152 236 242 52 272 40 
267 11 49 146 207 43 124 222 270 26 209 44 178 
268 11 221 151 195 48 167 184 96 199 202 159 166 
269 11 62 100 125 220 254 247 182 21 42 231 185 
270 11 222 26 43 155 178 115 176 267 234 124 192 
271 11 169 116 217 122 30 78 29 226 136 64 2 
272 11 242 69 133 152 274 153 31 56 19 40 210 
273 11 215 18 56 224 110 240 76 160 256 28 157 
274 11 133 153 69 95 210 40 7 242 246 272 104 
275 11 138 109 55 255 4 90 216 203 247 185 21 
276 11 135 51 108 244 265 201 41 106 39 72 164 
277 11 225 63 98 171 50 34 237 70 68 235 14 
278 11 33 113 7 246 210 40 52 167 96 153 159 
DEPOT_SECTION
   1
   -1
EOF
