NAME :  X-n233-kX-w46-c11.cctp
COMMENT : 	Adapted by Maziero, Usberti and Cavellucci from the Uchoa, Pecin, Pessoa, Poggi, Subramanian, and Vidal (2013)
TYPE :  CCTP
DIMENSION :    204
EDGE_WEIGHT_TYPE : 	EUC_2D	
CAPACITY : 	631
VERTICES_WITHIN_COVERAGE :  11
VERTICES_WITH_DEMAND : 	46
NODE_COORD_SECTION
1 500 500
2 816 981
3 349 338
4 22 205
5 385 344
6 913 54
7 524 123
8 239 335
9 150 84
10 84 860
11 645 647
12 507 516
13 153 940
14 429 602
15 596 759
16 776 399
17 942 767
18 871 2
19 714 950
20 72 400
21 765 315
22 666 798
23 287 851
24 3 201
25 78 724
26 896 240
27 59 735
28 253 251
29 37 22
30 973 599
31 726 13
32 82 262
33 2 631
34 133 656
35 435 741
36 834 714
37 37 861
38 946 211
39 290 110
40 423 350
41 406 414
42 804 581
43 846 956
44 849 683
45 79 883
46 433 93
47 610 253
48 686 486
49 229 248
50 382 597
51 544 618
52 585 303
53 732 387
54 563 807
55 780 940
56 665 561
57 591 536
58 35 216
59 577 969
60 811 927
61 592 744
62 280 384
63 866 228
64 153 27
65 401 481
66 72 488
67 610 324
68 381 300
69 209 675
70 139 848
71 354 124
72 386 572
73 36 764
74 660 422
75 719 264
76 761 560
77 231 203
78 769 312
79 905 645
80 304 372
81 970 966
82 51 257
83 189 934
84 516 6
85 756 36
86 47 139
87 428 61
88 100 853
89 923 919
90 751 480
91 555 726
92 463 190
93 130 131
94 105 943
95 83 892
96 215 690
97 869 706
98 603 287
99 668 913
100 954 694
101 321 587
102 282 907
103 339 810
104 30 659
105 339 296
106 367 511
107 72 181
108 323 183
109 684 125
110 415 387
111 882 359
112 485 115
113 133 541
114 368 424
115 585 302
116 991 97
117 198 817
118 634 849
119 142 639
120 455 777
121 436 774
122 112 691
123 665 246
124 37 450
125 899 115
126 983 90
127 429 752
128 696 466
129 629 807
130 11 521
131 50 515
132 109 570
133 677 876
134 171 930
135 919 111
136 425 775
137 129 852
138 504 181
139 919 181
140 390 729
141 83 649
142 469 662
143 161 759
144 656 281
145 90 681
146 563 555
147 155 612
148 213 837
149 473 689
150 153 586
151 191 650
152 645 830
153 384 375
154 65 890
155 137 561
156 432 780
157 561 523
158 390 934
159 481 236
160 725 818
161 998 76
162 544 282
163 866 252
164 439 687
165 470 303
166 636 804
167 461 690
168 912 114
169 372 683
170 378 754
171 412 780
172 637 870
173 953 185
174 541 254
175 652 948
176 117 832
177 648 144
178 371 627
179 634 872
180 235 979
181 271 865
182 115 761
183 553 750
184 723 813
185 570 761
186 114 660
187 159 883
188 460 699
189 185 559
190 508 754
191 294 874
192 265 793
193 999 125
194 999 75
195 662 727
196 464 770
197 724 174
198 603 260
199 814 812
200 605 284
201 134 625
202 568 454
203 220 931
204 162 792
DEMAND_SECTION
2 53
3 64
4 54
5 63
6 45
7 6
8 100
9 63
10 5
11 74
12 87
13 11
14 33
15 63
16 36
17 93
18 28
19 89
20 64
21 8
22 69
23 40
24 65
25 29
26 30
27 19
28 78
29 78
30 55
31 6
32 94
33 25
34 38
35 2
36 69
37 42
38 43
39 94
40 74
41 54
42 93
43 76
44 92
45 49
46 85
47 4
COVERAGE_SECTION
2 11 43 60 55 19 89 81 99 175 199 133 160 
3 11 5 105 68 153 80 40 110 62 114 41 8 
4 11 58 24 107 82 86 32 93 9 29 20 77 
5 11 153 3 40 68 110 105 41 114 80 165 62 
6 11 135 168 125 18 126 161 116 194 193 139 173 
7 10 112 138 92 46 87 84 159 177 174 47 
8 11 62 80 28 49 105 3 77 5 68 153 114 
9 11 93 64 86 107 29 39 77 58 4 49 24 
10 11 88 45 95 154 176 137 37 70 187 94 204 
11 11 195 56 51 61 91 15 57 146 185 183 76 
12 11 157 146 57 202 51 65 14 72 106 41 50 
13 11 134 83 94 187 203 95 137 180 45 70 154 
14 10 50 72 178 142 164 167 149 169 188 101 
15 11 61 185 183 91 54 129 166 195 22 152 190 
16 11 53 21 90 78 128 111 74 48 75 76 144 
17 11 100 97 36 44 79 199 89 30 81 60 43 
18 11 6 125 135 168 85 126 31 161 194 116 193 
19 11 99 175 55 133 60 2 172 179 118 43 160 
20 10 124 66 131 130 32 82 113 132 155 8 
21 11 78 75 53 16 144 163 123 111 63 197 74 
22 11 166 129 152 184 118 160 195 172 133 15 179 
23 8 181 191 102 192 103 148 117 203 
24 11 4 58 107 82 86 32 93 29 9 20 77 
25 11 27 145 122 182 73 186 141 104 34 143 119 
26 11 63 163 38 139 173 111 125 168 135 78 21 
27 11 25 73 145 182 122 104 141 186 143 34 176 
28 11 49 77 8 105 108 3 80 62 68 39 5 
29 11 64 86 9 93 107 24 4 58 82 32 77 
30 11 79 100 97 44 42 17 36 76 90 111 199 
31 11 85 109 18 177 197 6 125 84 168 135 7 
32 11 82 58 107 4 24 86 20 93 49 77 28 
33 10 104 141 145 130 186 27 25 132 122 131 
34 11 119 186 201 122 147 141 145 151 150 69 25 
35 10 127 121 136 156 120 196 171 140 188 164 
36 11 44 97 79 199 17 100 42 184 160 76 195 
37 11 154 10 45 95 88 176 137 73 70 94 187 
38 11 173 139 26 63 163 193 168 135 125 116 126 
39 11 71 108 77 9 46 28 87 49 64 93 92 
40 10 5 110 153 68 41 165 3 114 105 80 
41 11 110 114 153 40 65 5 3 106 80 68 165 
42 11 76 44 90 79 36 56 97 48 128 30 11 
43 11 2 60 55 89 81 19 199 99 160 133 184 
44 11 97 36 79 100 42 17 199 30 76 184 160 
45 11 95 154 10 88 37 137 176 94 70 187 13 
46 10 87 112 71 7 92 138 84 108 39 159 
47 10 198 200 98 144 115 123 52 174 67 162 
48 11 128 90 74 56 76 57 53 202 16 157 146 
49 11 28 77 8 108 105 62 80 32 3 39 93 
50 7 72 178 14 101 106 169 164 
51 11 146 142 57 157 149 11 12 91 167 14 188 
52 9 115 98 200 67 162 198 47 174 144 
53 11 16 21 74 78 128 90 48 75 144 67 111 
54 8 185 15 183 129 61 166 190 91 
55 11 60 2 19 43 99 133 175 199 160 184 89 
56 11 48 57 11 76 128 146 157 90 51 74 42 
57 11 157 146 56 202 12 51 48 11 128 74 90 
58 11 4 24 82 107 32 86 93 9 20 29 77 
59 7 175 99 179 172 118 133 19 
60 11 55 43 2 19 89 199 160 133 99 184 175 
61 11 15 185 183 91 54 195 129 166 190 22 152 
62 11 80 8 3 114 153 105 5 41 68 110 28 
63 11 163 26 139 38 173 125 168 78 135 111 21 
64 11 9 93 29 86 39 107 77 4 58 71 24 
65 11 106 114 41 72 110 153 12 50 14 40 101 
66 10 131 124 130 113 20 132 155 150 189 147 
67 9 52 115 98 200 144 198 47 162 123 
68 10 105 5 3 40 153 165 110 80 41 159 
69 8 96 151 119 34 147 201 186 143 
70 11 137 176 88 187 10 204 117 45 95 148 154 
71 10 39 108 46 87 92 112 77 138 28 159 
72 7 50 14 178 106 101 65 169 
73 11 27 25 182 37 145 104 122 176 10 88 141 
74 11 128 48 53 202 90 67 16 57 56 52 144 
75 11 123 144 21 78 197 47 198 200 98 53 67 
76 11 42 90 56 48 128 11 44 16 79 36 74 
77 11 49 28 108 39 93 8 105 9 71 32 107 
78 11 21 75 53 16 163 144 111 123 63 197 26 
79 11 44 100 97 30 36 42 17 76 199 90 184 
80 11 62 3 8 153 114 105 5 68 41 110 40 
81 11 89 43 2 60 55 17 199 19 100 97 36 
82 11 32 58 4 24 107 86 20 93 49 77 124 
83 11 134 203 13 187 180 94 102 70 148 137 181 
84 10 87 112 7 46 138 92 177 71 109 31 
85 11 31 109 18 197 177 6 125 168 135 139 63 
86 11 107 4 24 58 93 9 29 82 32 64 77 
87 10 46 112 71 84 7 92 138 39 108 159 
88 11 10 176 137 45 70 95 154 37 187 204 94 
89 11 81 43 60 2 55 17 199 19 97 160 36 
90 11 128 48 76 16 53 74 42 56 21 78 57 
91 10 183 185 61 15 190 54 149 188 167 196 
92 8 138 159 112 7 174 46 165 162 
93 11 9 107 86 64 77 58 4 32 29 24 82 
94 11 13 95 45 154 134 187 83 10 88 137 70 
95 11 45 154 10 88 37 94 137 176 70 187 13 
96 7 69 151 143 34 119 147 122 
97 11 44 36 79 100 17 199 42 30 184 76 160 
98 9 200 115 52 198 47 67 144 162 174 
99 11 133 175 172 179 19 118 152 59 160 129 166 
100 11 79 17 97 30 44 36 199 42 89 76 160 
101 5 50 178 72 106 14 
102 11 191 181 23 203 180 83 148 158 103 134 192 
103 7 23 170 192 191 171 181 136 
104 11 33 141 145 25 27 186 122 34 73 201 119 
105 11 68 3 5 80 153 28 40 62 8 108 110 
106 10 65 72 50 114 101 41 14 178 110 153 
107 11 86 58 4 24 93 82 32 9 77 29 49 
108 10 71 39 77 28 49 105 68 92 46 3 
109 11 177 197 85 31 123 75 47 198 144 7 200 
110 11 41 153 40 5 114 3 68 65 165 80 105 
111 11 163 16 26 78 21 63 53 38 90 139 173 
112 10 7 46 138 92 87 84 159 71 174 177 
113 10 155 132 150 189 147 66 201 131 119 34 
114 11 41 153 110 65 5 80 106 3 40 62 68 
115 9 52 98 200 67 162 198 47 174 144 
116 11 126 161 194 193 135 168 6 125 173 139 38 
117 11 148 204 70 143 192 137 187 176 181 23 182 
118 11 172 152 179 129 166 133 22 99 54 160 184 
119 11 201 34 147 186 151 150 122 141 145 69 132 
120 7 196 121 156 136 127 35 171 
121 7 156 136 120 127 171 196 35 
122 11 145 186 34 25 141 119 27 182 201 143 104 
123 11 144 47 75 198 200 98 197 67 52 115 177 
124 10 66 20 131 130 113 132 155 150 33 189 
125 11 168 135 6 139 126 173 116 193 161 38 194 
126 11 116 161 194 193 135 168 6 125 173 139 38 
127 9 35 121 136 156 171 120 196 140 170 
128 11 48 74 90 53 56 16 76 57 202 157 42 
129 11 166 152 22 118 15 172 179 54 61 185 133 
130 10 131 66 124 33 132 113 155 20 104 141 
131 10 66 130 124 132 113 155 20 150 33 141 
132 10 155 113 150 201 147 119 189 131 141 34 
133 11 99 172 179 118 152 160 175 184 22 19 166 
134 11 83 13 187 203 94 180 70 137 95 148 45 
135 11 168 125 6 126 139 116 173 193 161 194 38 
136 8 156 121 171 127 120 35 196 170 
137 11 70 176 88 187 10 45 95 204 154 117 148 
138 8 92 159 7 112 174 162 46 165 
139 11 173 38 26 168 125 135 63 163 193 116 126 
140 10 170 127 35 169 171 136 121 164 156 188 
141 11 145 186 34 122 104 201 119 25 147 33 132 
142 11 149 167 188 164 14 35 51 127 169 190 140 
143 11 204 182 117 122 176 96 25 70 148 69 137 
144 11 123 200 98 47 198 67 75 52 115 162 21 
145 11 122 186 141 25 34 27 104 119 201 182 147 
146 11 157 57 51 12 202 56 11 48 14 142 128 
147 11 201 150 119 34 151 155 189 132 186 113 141 
148 11 117 181 192 204 187 23 70 137 191 143 203 
149 11 167 188 142 164 35 190 127 196 91 120 140 
150 10 147 155 189 201 132 113 119 34 151 186 
151 10 69 96 119 147 34 201 150 186 122 189 
152 11 118 129 166 22 172 179 133 184 160 54 15 
153 11 5 110 41 40 3 114 68 80 105 62 65 
154 11 45 95 10 37 88 94 137 176 70 187 13 
155 10 113 132 150 189 147 201 119 34 66 131 
156 7 121 136 171 120 127 196 35 
157 11 146 57 12 202 51 56 48 74 128 11 14 
158 3 102 191 23 
159 7 92 138 174 165 162 68 7 
160 11 184 22 133 152 199 166 118 129 172 179 99 
161 11 194 126 116 193 135 6 168 125 173 139 38 
162 8 174 52 115 98 200 198 47 165 
163 11 63 26 139 38 111 173 78 21 125 168 75 
164 10 167 188 149 142 35 140 127 169 14 121 
165 7 40 159 162 174 68 5 110 
166 11 129 152 22 118 15 172 179 54 61 185 195 
167 11 188 149 164 142 35 127 190 196 140 120 121 
168 11 135 125 6 139 126 116 173 193 161 194 38 
169 7 140 178 164 170 35 50 127 
170 9 140 171 127 136 35 156 121 103 169 
171 7 136 156 121 127 120 170 35 
172 11 179 118 133 152 99 129 166 22 175 54 160 
173 11 38 139 193 26 135 168 125 116 63 126 163 
174 8 162 198 159 115 52 47 98 200 
175 10 99 19 133 59 179 172 118 152 55 129 
176 11 137 70 88 10 204 45 187 95 182 154 117 
177 11 109 197 123 47 198 7 144 75 200 138 98 
178 7 50 169 72 14 101 164 140 
179 11 172 118 133 152 99 129 166 175 22 54 160 
180 11 203 83 134 102 13 181 191 187 94 23 148 
181 10 23 191 102 148 192 203 103 117 83 187 
182 11 143 25 204 27 122 176 73 145 70 137 88 
183 8 185 91 61 15 190 54 196 129 
184 11 160 22 133 152 166 199 129 118 172 195 179 
185 9 183 15 61 91 54 190 129 166 195 
186 11 34 122 145 141 119 201 147 25 151 104 150 
187 11 70 137 134 13 83 88 176 148 95 117 10 
188 11 167 149 164 142 35 127 196 190 140 120 121 
189 9 150 155 113 147 132 201 119 151 34 
190 8 183 196 91 120 185 188 35 149 
191 9 23 181 102 103 192 148 203 117 158 
192 9 23 148 117 181 103 191 204 143 96 
193 11 116 126 161 194 173 135 168 139 125 38 6 
194 11 161 126 116 193 135 6 168 125 173 139 38 
195 11 22 61 15 166 11 129 185 152 184 91 160 
196 7 120 121 156 127 136 35 190 
197 11 109 177 75 123 144 47 85 78 21 198 63 
198 10 47 200 98 115 52 144 174 162 67 123 
199 11 160 184 36 60 97 55 44 17 43 22 133 
200 10 98 198 115 52 47 67 144 162 123 174 
201 11 119 147 34 186 150 141 132 151 155 122 145 
202 11 157 57 12 74 146 48 128 67 56 52 115 
203 11 83 134 180 102 13 187 181 191 148 23 70 
204 11 143 117 182 176 70 137 148 88 187 10 192 
DEPOT_SECTION
   1
   -1
EOF
