NAME :  X-n280-kX-w55-c11.cctp
COMMENT : 	Adapted by Maziero, Usberti and Cavellucci from the Uchoa, Pecin, Pessoa, Poggi, Subramanian, and Vidal (2013)
TYPE :  CCTP
DIMENSION :    271
EDGE_WEIGHT_TYPE : 	EUC_2D	
CAPACITY : 	192
VERTICES_WITHIN_COVERAGE :  11
VERTICES_WITH_DEMAND : 	55
NODE_COORD_SECTION
1 0 0
2 909 919
3 878 721
4 969 85
5 591 195
6 955 148
7 587 903
8 994 792
9 625 129
10 544 703
11 461 167
12 37 644
13 615 22
14 773 788
15 384 364
16 51 291
17 109 732
18 570 124
19 692 985
20 62 150
21 358 5
22 188 450
23 674 658
24 676 904
25 815 984
26 710 16
27 74 658
28 576 1000
29 636 695
30 547 92
31 587 397
32 26 150
33 182 561
34 938 462
35 362 928
36 366 835
37 516 892
38 448 923
39 501 445
40 513 799
41 905 388
42 474 791
43 560 782
44 465 552
45 315 645
46 738 396
47 45 915
48 797 871
49 922 643
50 793 586
51 921 458
52 160 295
53 598 257
54 516 221
55 99 169
56 788 634
57 425 751
58 616 680
59 949 444
60 987 459
61 182 279
62 127 354
63 791 822
64 645 609
65 857 386
66 917 154
67 398 480
68 729 688
69 134 510
70 172 2
71 499 737
72 780 565
73 908 477
74 917 341
75 272 553
76 421 876
77 770 2
78 497 623
79 853 27
80 853 521
81 519 196
82 90 822
83 827 901
84 350 168
85 656 56
86 732 55
87 772 748
88 884 973
89 158 430
90 563 13
91 50 959
92 609 223
93 628 860
94 264 436
95 699 764
96 441 479
97 95 246
98 236 627
99 307 893
100 695 302
101 378 639
102 830 30
103 44 339
104 885 644
105 122 603
106 850 732
107 155 865
108 230 346
109 300 719
110 55 954
111 467 494
112 153 641
113 713 82
114 659 564
115 881 18
116 781 654
117 490 806
118 823 569
119 878 496
120 441 898
121 589 516
122 165 614
123 17 749
124 164 778
125 296 858
126 258 488
127 437 866
128 187 88
129 725 988
130 125 619
131 352 701
132 447 517
133 316 80
134 743 575
135 555 373
136 84 140
137 341 827
138 541 567
139 919 768
140 945 924
141 397 932
142 905 944
143 892 37
144 74 227
145 911 617
146 668 697
147 1 96
148 223 299
149 637 118
150 622 958
151 356 127
152 347 777
153 157 190
154 8 497
155 138 78
156 100 192
157 384 598
158 23 228
159 110 163
160 53 628
161 316 705
162 112 361
163 642 405
164 235 578
165 489 621
166 563 916
167 597 310
168 960 837
169 164 988
170 37 513
171 648 247
172 375 402
173 531 205
174 935 676
175 103 549
176 964 651
177 233 241
178 891 112
179 457 893
180 852 861
181 113 701
182 340 913
183 662 198
184 667 718
185 140 332
186 809 908
187 968 908
188 163 857
189 333 418
190 59 136
191 839 123
192 529 215
193 385 380
194 319 417
195 156 119
196 267 210
197 528 320
198 138 787
199 473 713
200 537 114
201 168 838
202 774 825
203 32 510
204 216 372
205 16 935
206 60 733
207 500 37
208 343 363
209 429 41
210 205 398
211 708 298
212 411 109
213 840 359
214 112 603
215 816 310
216 865 775
217 893 516
218 814 607
219 605 162
220 359 199
221 16 739
222 482 214
223 70 526
224 528 103
225 572 770
226 802 517
227 876 469
228 118 571
229 952 781
230 823 795
231 522 595
232 52 336
233 456 367
234 255 413
235 410 194
236 956 21
237 717 142
238 766 880
239 524 825
240 657 640
241 189 232
242 471 339
243 920 809
244 688 98
245 660 781
246 441 81
247 236 735
248 784 692
249 743 446
250 201 32
251 188 957
252 381 605
253 380 904
254 227 263
255 69 94
256 123 416
257 341 341
258 450 482
259 251 533
260 352 591
261 724 967
262 753 539
263 684 924
264 617 989
265 455 500
266 472 926
267 395 683
268 167 357
269 789 678
270 897 272
271 991 492
DEMAND_SECTION
2 92
3 88
4 93
5 90
6 73
7 100
8 53
9 66
10 82
11 59
12 100
13 76
14 84
15 56
16 91
17 58
18 65
19 56
20 68
21 88
22 54
23 76
24 80
25 53
26 1
27 2
28 2
29 7
30 10
31 9
32 8
33 3
34 3
35 2
36 9
37 6
38 10
39 3
40 1
41 4
42 6
43 1
44 4
45 3
46 7
47 7
48 2
49 1
50 1
51 4
52 4
53 5
54 4
55 7
56 3
COVERAGE_SECTION
2 11 142 140 88 187 180 83 168 186 243 25 48 
3 11 106 216 139 174 104 49 230 229 243 248 269 
4 10 6 236 178 66 143 115 79 191 102 270 
5 11 92 219 173 53 192 183 81 9 18 171 54 
6 10 66 4 178 191 236 143 270 115 79 102 
7 11 166 93 150 37 24 264 28 263 239 266 43 
8 11 229 168 243 139 187 174 216 3 140 176 2 
9 11 149 219 18 244 5 183 85 30 200 237 92 
10 11 71 199 225 58 43 29 78 165 40 231 42 
11 11 222 235 81 54 212 173 192 246 200 224 220 
12 11 160 27 214 130 206 105 181 221 123 228 17 
13 11 85 90 26 30 149 244 9 18 113 207 224 
14 11 202 63 87 230 95 48 238 216 106 248 180 
15 9 193 172 208 257 233 189 194 242 67 
16 11 232 103 97 144 158 162 185 62 52 156 55 
17 11 181 206 198 124 27 82 221 123 112 12 130 
18 11 200 30 224 219 9 149 5 81 173 192 92 
19 11 129 261 263 150 264 24 28 25 238 7 93 
20 11 190 136 32 55 159 255 156 144 147 158 195 
21 11 209 133 246 212 151 207 250 84 70 128 11 
22 11 89 210 256 94 234 126 69 204 268 259 33 
23 11 240 146 29 64 184 58 68 114 116 134 95 
24 11 263 93 150 261 19 7 238 129 264 166 245 
25 11 88 186 83 129 261 142 2 48 238 19 180 
26 11 86 77 113 85 244 13 102 149 237 9 79 
27 11 160 12 181 130 214 105 206 112 17 228 221 
28 11 264 150 166 7 19 37 266 263 24 38 93 
29 11 58 146 184 23 240 64 245 10 68 95 225 
30 11 224 200 18 207 90 9 219 149 13 246 81 
31 11 135 163 167 197 39 121 242 233 53 100 46 
32 11 20 190 136 147 255 55 158 156 159 144 97 
33 11 122 164 228 69 105 259 175 130 214 98 112 
34 11 51 59 73 60 271 227 119 217 41 80 65 
35 11 182 253 141 99 76 120 38 36 125 127 179 
36 11 137 152 76 253 125 127 182 99 35 120 141 
37 11 166 266 179 239 7 38 120 127 117 40 76 
38 11 266 120 179 141 76 127 253 37 35 182 166 
39 11 111 258 96 265 132 135 233 31 67 242 44 
40 11 117 239 42 43 71 225 37 199 57 10 127 
41 11 65 74 59 213 51 34 227 73 60 119 270 
42 11 117 40 71 239 57 199 127 43 76 225 179 
43 11 225 40 239 117 71 10 42 245 93 199 29 
44 11 132 265 111 231 258 165 96 138 78 157 67 
45 11 161 101 260 131 109 252 98 157 267 75 164 
46 11 249 163 211 100 213 215 65 226 262 31 227 
47 10 205 110 91 82 107 188 169 201 251 198 
48 11 238 186 83 63 202 180 230 14 25 216 261 
49 11 145 174 104 176 3 106 218 118 139 217 56 
50 11 72 218 118 56 134 262 116 226 80 269 248 
51 11 34 73 59 227 119 217 60 41 271 80 65 
52 11 61 185 268 148 62 241 254 97 162 108 177 
53 11 92 171 167 5 192 173 183 54 197 219 81 
54 11 192 173 81 222 11 5 53 92 197 219 200 
55 11 159 156 136 20 190 153 144 32 195 97 255 
56 11 116 218 269 50 248 72 118 134 68 104 262 
57 11 199 42 267 71 152 117 131 40 36 137 127 
58 11 29 146 240 23 184 10 64 225 245 68 43 
59 11 34 51 60 73 271 41 227 119 217 74 65 
60 11 271 59 34 51 73 41 217 227 119 74 80 
61 11 52 148 241 254 177 185 268 108 153 62 97 
62 11 162 185 268 256 52 232 89 103 210 204 61 
63 11 202 14 230 48 238 180 87 83 186 216 106 
64 11 240 114 23 58 29 146 134 121 184 138 68 
65 11 213 41 74 227 215 51 73 59 34 119 46 
66 9 6 178 191 4 143 270 236 115 79 
67 9 96 258 265 132 111 172 189 44 193 
68 11 248 269 116 146 23 184 87 56 95 240 29 
69 11 175 228 223 33 22 89 105 256 214 170 203 
70 11 250 155 128 195 255 133 136 159 190 55 20 
71 11 199 10 42 40 117 57 43 225 239 78 165 
72 11 50 262 134 118 226 218 56 80 116 269 119 
73 11 51 227 34 119 217 59 80 60 271 41 65 
74 10 41 270 65 213 215 59 51 34 227 73 
75 10 259 164 126 98 260 33 45 94 157 252 
76 11 127 120 179 253 38 141 36 266 35 182 137 
77 11 26 86 102 79 113 115 85 244 143 191 237 
78 11 165 231 138 44 10 199 71 157 132 252 267 
79 10 102 115 143 77 178 191 236 86 4 66 
80 11 119 217 226 118 227 73 72 50 51 218 262 
81 11 173 192 54 222 11 5 200 18 219 224 92 
82 11 198 107 201 188 124 17 206 47 123 221 181 
83 11 186 48 180 238 2 25 63 142 88 202 230 
84 10 220 151 235 212 196 133 11 246 177 222 
85 11 13 244 113 149 26 86 9 90 237 18 30 
86 11 113 26 244 77 85 237 102 149 13 79 191 
87 11 14 248 230 269 68 95 63 202 106 116 216 
88 11 142 2 25 140 83 186 187 180 48 238 168 
89 11 22 256 210 268 62 204 162 69 234 185 94 
90 11 13 207 30 224 85 200 18 149 9 209 246 
91 10 110 205 47 169 251 107 82 188 201 198 
92 11 5 53 171 183 219 173 192 167 54 81 9 
93 11 7 24 245 263 166 150 43 225 239 37 95 
94 9 234 126 194 210 189 22 204 108 259 
95 11 245 184 146 87 14 68 29 202 23 63 248 
96 9 258 265 111 132 67 39 44 172 233 
97 11 144 156 16 158 55 52 153 159 61 241 185 
98 11 164 122 45 75 112 33 259 247 130 109 161 
99 10 125 182 35 137 253 36 141 76 152 127 
100 9 211 171 167 46 53 183 163 92 215 
101 11 252 157 267 260 45 131 161 109 165 78 199 
102 10 79 115 143 77 191 86 178 26 236 113 
103 11 232 16 162 62 185 97 256 158 144 52 268 
104 11 49 145 174 3 176 218 106 118 56 269 116 
105 11 214 130 228 122 112 175 27 33 160 223 12 
106 11 3 216 230 248 139 87 269 14 104 174 116 
107 10 188 201 82 198 124 251 47 169 110 17 
108 10 204 148 210 268 234 61 254 52 185 94 
109 11 161 131 247 152 45 267 98 101 137 57 36 
110 10 91 47 205 169 251 107 82 188 201 198 
111 10 265 258 96 132 44 39 67 138 231 121 
112 11 122 130 105 214 181 228 27 98 33 17 160 
113 11 244 86 237 85 26 149 77 9 13 183 102 
114 11 64 240 121 134 23 262 138 72 58 29 146 
115 11 143 79 102 236 178 4 77 191 66 6 86 
116 11 56 269 248 218 68 50 134 72 87 118 104 
117 11 42 40 239 71 43 127 57 37 225 179 199 
118 11 50 218 72 226 80 56 262 134 217 119 116 
119 11 217 227 80 73 51 34 226 59 118 41 65 
120 11 179 38 76 127 266 141 253 37 35 36 182 
121 11 138 114 231 64 39 31 163 111 44 265 78 
122 11 112 130 105 214 33 228 98 164 175 27 181 
123 11 221 206 17 82 12 27 181 160 198 124 47 
124 11 198 201 17 188 247 82 107 181 206 112 109 
125 10 99 137 182 36 35 152 253 141 76 201 
126 10 259 94 75 234 22 164 194 189 210 33 
127 11 76 120 179 38 253 266 36 141 117 37 42 
128 11 195 155 250 70 153 159 136 255 55 133 156 
129 11 261 19 263 25 24 150 264 186 238 83 48 
130 11 105 214 112 122 228 27 160 175 33 181 12 
131 11 161 267 109 45 101 152 57 252 157 260 247 
132 10 265 111 258 96 44 67 39 157 138 231 
133 10 151 21 84 212 209 246 250 220 128 196 
134 11 262 72 50 56 218 118 226 114 116 64 23 
135 11 31 197 167 39 242 163 233 53 121 111 258 
136 11 20 190 55 159 255 156 32 195 155 144 153 
137 11 36 152 125 99 182 253 76 35 127 57 109 
138 11 231 121 78 165 44 111 132 265 64 114 258 
139 11 229 243 216 3 106 8 168 174 230 180 49 
140 11 187 2 142 88 168 180 243 83 186 8 25 
141 11 253 35 38 120 182 76 179 266 127 99 36 
142 11 2 88 140 187 83 25 180 186 168 48 243 
143 10 115 79 102 236 178 4 191 66 77 6 
144 11 97 156 158 55 16 159 20 136 32 153 190 
145 11 49 104 176 174 218 118 217 3 80 50 56 
146 11 184 29 23 58 240 68 95 245 64 87 248 
147 11 32 255 190 20 136 55 159 158 155 156 144 
148 10 254 61 108 177 52 204 241 268 185 196 
149 11 9 219 244 85 18 113 183 237 5 30 13 
150 11 264 28 7 263 166 19 24 93 261 129 37 
151 10 84 212 133 220 235 246 11 209 21 196 
152 11 137 36 109 131 161 57 125 267 247 99 76 
153 11 241 159 156 55 195 97 136 144 61 177 254 
154 11 203 170 223 175 69 228 160 256 214 12 105 
155 11 195 128 255 250 136 70 159 190 55 20 153 
156 11 55 159 144 97 136 20 153 190 32 158 195 
157 11 252 260 101 45 267 44 132 165 131 78 67 
158 11 144 16 97 32 156 20 55 190 136 159 232 
159 11 55 156 136 20 153 190 195 144 255 97 32 
160 11 12 27 214 105 130 228 175 181 112 223 206 
161 11 109 131 45 152 267 247 101 98 57 252 260 
162 11 62 185 268 256 232 103 52 89 16 210 204 
163 11 31 135 46 167 249 100 121 211 197 39 53 
164 11 75 259 98 33 122 126 112 45 105 130 228 
165 11 78 231 44 138 199 10 157 252 101 132 267 
166 11 7 37 150 28 93 264 266 239 179 24 38 
167 11 53 197 135 171 31 92 100 163 211 5 192 
168 11 243 8 229 187 139 140 2 180 216 142 3 
169 10 251 110 91 107 188 47 201 205 99 82 
170 11 203 154 223 175 69 228 160 214 105 256 12 
171 10 92 53 183 100 5 211 167 219 9 192 
172 9 193 15 189 208 194 257 67 233 96 
173 11 192 81 54 222 5 11 92 53 219 18 200 
174 11 49 176 104 145 3 139 106 229 216 8 243 
175 11 228 223 69 214 105 130 170 33 203 122 160 
176 11 174 49 145 104 3 139 229 106 8 217 218 
177 9 254 241 196 148 61 52 153 108 185 
178 10 66 191 6 143 4 79 115 102 236 270 
179 11 120 38 127 266 76 37 141 253 117 239 35 
180 11 83 48 186 63 230 2 202 243 216 238 142 
181 11 17 27 206 112 130 198 124 160 12 105 214 
182 11 35 99 253 141 125 36 137 76 120 38 127 
183 10 171 92 219 5 9 237 149 53 244 100 
184 11 146 29 95 23 245 58 68 240 225 87 64 
185 11 62 268 162 52 61 204 256 232 148 108 210 
186 11 83 48 238 180 25 63 202 88 2 142 261 
187 11 140 2 168 142 88 243 8 180 229 83 139 
188 10 107 201 198 124 82 251 47 169 125 17 
189 9 194 172 208 193 94 15 257 234 67 
190 11 20 136 32 255 55 159 156 147 144 155 195 
191 9 178 66 102 79 143 115 6 237 86 
192 11 173 54 81 222 5 92 53 11 219 18 200 
193 9 15 172 208 257 189 233 194 242 67 
194 8 189 94 172 208 234 193 257 15 
195 11 128 155 159 153 136 55 255 156 190 250 20 
196 10 177 254 241 84 220 148 61 153 151 52 
197 11 135 242 167 233 53 31 54 192 173 222 81 
198 11 124 82 201 17 188 107 181 206 247 123 221 
199 11 71 57 10 42 267 78 165 40 117 43 225 
200 11 224 30 18 219 81 207 9 173 11 5 149 
201 10 188 107 198 124 82 17 251 247 125 47 
202 11 63 14 48 238 230 87 180 186 83 95 216 
203 11 170 154 223 175 69 228 160 214 105 256 12 
204 10 210 108 268 234 148 94 89 22 185 62 
205 10 47 91 110 82 107 169 188 251 201 123 
206 11 221 123 17 181 27 12 82 198 160 124 112 
207 11 90 209 30 224 246 200 18 212 13 11 21 
208 9 257 15 193 172 189 194 234 94 233 
209 11 246 212 207 21 151 224 133 30 11 200 90 
210 10 204 234 22 268 89 108 94 256 62 185 
211 8 100 171 46 215 183 167 53 92 
212 11 246 151 209 11 84 235 133 220 207 21 224 
213 9 65 215 41 74 270 46 227 51 249 
214 11 105 130 228 122 175 112 160 27 33 12 223 
215 8 213 65 270 74 211 46 41 100 
216 11 106 230 139 3 243 180 229 63 14 87 202 
217 11 119 80 73 227 51 34 118 59 226 271 145 
218 11 50 56 118 72 116 269 134 104 248 226 262 
219 11 5 9 18 149 92 183 200 173 30 81 192 
220 10 84 235 151 196 212 11 222 133 177 257 
221 11 123 206 17 12 27 181 82 160 198 124 130 
222 11 54 81 192 173 11 235 5 200 197 224 53 
223 11 170 175 203 69 228 154 214 105 160 130 33 
224 11 200 30 18 207 246 11 81 90 219 9 173 
225 11 43 40 10 239 71 245 117 29 42 58 93 
226 11 80 72 262 118 50 119 134 227 217 218 249 
227 11 119 73 51 217 80 34 59 65 41 226 60 
228 11 175 105 214 130 69 122 33 223 112 160 27 
229 11 139 8 243 168 216 3 174 106 180 187 230 
230 11 63 216 14 202 87 106 180 48 3 243 139 
231 11 138 78 165 44 121 132 10 111 265 64 58 
232 11 103 16 162 62 185 97 256 144 158 52 268 
233 11 242 15 193 197 172 39 135 96 208 258 257 
234 10 94 210 204 194 108 126 22 189 89 208 
235 10 220 11 84 222 212 151 54 81 246 173 
236 10 4 143 115 79 178 102 6 66 191 77 
237 8 244 113 183 149 86 9 85 219 
238 11 48 186 202 63 83 180 14 24 263 261 230 
239 11 40 117 43 42 37 225 71 179 127 166 7 
240 11 23 64 58 146 29 114 184 68 134 116 10 
241 11 177 61 254 153 52 148 196 97 156 159 55 
242 11 233 197 15 135 193 39 172 222 54 167 31 
243 11 139 229 168 216 8 180 3 230 106 187 2 
244 11 113 85 237 149 86 9 26 183 13 219 18 
245 11 95 184 146 93 29 225 43 58 14 68 87 
246 11 212 209 207 11 224 151 200 30 21 235 133 
247 11 109 124 161 98 198 152 45 131 201 112 17 
248 11 269 116 68 87 56 106 218 14 3 50 230 
249 11 46 226 262 163 72 65 134 213 80 227 119 
250 11 70 128 155 195 133 255 21 136 159 153 55 
251 10 169 107 188 201 110 99 91 125 47 182 
252 11 157 260 101 45 267 44 131 165 132 78 161 
253 11 35 141 182 76 120 127 36 38 99 179 137 
254 9 177 148 61 241 196 52 108 153 204 
255 11 190 136 20 147 32 155 159 55 195 156 128 
256 11 89 162 62 22 268 210 185 69 204 232 103 
257 10 208 15 193 172 189 194 108 234 233 94 
258 9 96 265 111 132 67 39 44 172 233 
259 10 75 126 164 33 98 94 22 260 122 69 
260 11 252 157 101 45 75 267 131 259 164 44 67 
261 11 129 19 263 24 25 238 150 186 264 48 83 
262 11 72 134 226 50 118 218 249 114 56 80 116 
263 11 24 261 19 150 129 93 238 264 7 166 48 
264 11 150 28 19 7 166 263 24 129 261 93 37 
265 9 111 132 258 96 44 67 39 138 231 
266 11 38 179 120 37 127 76 141 166 253 35 239 
267 11 101 131 57 252 161 199 157 45 109 260 152 
268 11 185 62 204 162 210 52 108 89 256 61 148 
269 11 248 116 56 68 87 218 106 50 3 104 14 
270 7 74 215 213 41 66 65 6 
271 11 60 34 59 51 73 217 119 227 41 80 145 
DEPOT_SECTION
   1
   -1
EOF
