NAME :  X-n247-kX-w98-c7.cctp
COMMENT : 	Adapted by Maziero, Usberti and Cavellucci from the Uchoa, Pecin, Pessoa, Poggi, Subramanian, and Vidal (2013)
TYPE :  CCTP
DIMENSION :    243
EDGE_WEIGHT_TYPE : 	EUC_2D	
CAPACITY : 	134
VERTICES_WITHIN_COVERAGE :  7
VERTICES_WITH_DEMAND : 	98
NODE_COORD_SECTION
1 500 500
2 612 199
3 864 279
4 746 395
5 738 519
6 797 59
7 867 206
8 846 399
9 654 172
10 874 275
11 675 479
12 780 372
13 692 446
14 541 183
15 747 432
16 845 403
17 787 317
18 472 325
19 682 246
20 779 308
21 815 316
22 690 306
23 923 403
24 643 526
25 849 293
26 789 424
27 766 443
28 833 421
29 999 259
30 949 458
31 675 431
32 930 480
33 809 439
34 677 173
35 479 247
36 849 285
37 711 358
38 794 366
39 878 230
40 815 259
41 739 570
42 564 141
43 845 320
44 801 473
45 769 345
46 528 256
47 700 404
48 851 369
49 925 215
50 608 654
51 878 358
52 562 80
53 577 358
54 418 269
55 766 533
56 709 585
57 933 280
58 671 522
59 725 496
60 863 250
61 864 328
62 663 460
63 848 251
64 601 17
65 559 708
66 689 490
67 745 448
68 746 345
69 776 427
70 925 251
71 677 120
72 783 292
73 484 715
74 810 261
75 680 173
76 895 273
77 785 253
78 886 125
79 916 247
80 930 364
81 584 185
82 896 334
83 874 524
84 723 145
85 440 130
86 684 326
87 737 309
88 554 164
89 859 254
90 981 334
91 717 258
92 855 321
93 623 443
94 685 162
95 686 463
96 733 431
97 664 616
98 586 486
99 523 196
100 712 541
101 759 432
102 658 583
103 860 312
104 762 359
105 818 236
106 498 208
107 504 64
108 842 221
109 895 461
110 691 136
111 870 277
112 644 438
113 556 305
114 747 522
115 728 123
116 646 445
117 867 380
118 578 286
119 669 372
120 663 507
121 691 172
122 384 100
123 791 379
124 650 277
125 725 609
126 897 279
127 758 306
128 971 92
129 641 183
130 904 291
131 825 374
132 405 305
133 786 431
134 720 677
135 563 245
136 758 442
137 750 530
138 677 72
139 567 564
140 890 268
141 833 289
142 637 408
143 845 276
144 809 347
145 818 88
146 678 259
147 853 219
148 448 734
149 493 509
150 581 187
151 789 397
152 537 240
153 714 339
154 777 371
155 683 378
156 788 597
157 499 301
158 835 370
159 598 221
160 798 509
161 857 214
162 463 400
163 844 400
164 860 267
165 662 184
166 638 185
167 814 529
168 781 293
169 688 598
170 866 305
171 786 343
172 819 476
173 789 243
174 666 41
175 715 530
176 710 93
177 992 531
178 753 534
179 566 216
180 664 76
181 934 403
182 590 211
183 646 141
184 719 302
185 919 234
186 597 150
187 761 360
188 761 367
189 684 61
190 815 469
191 813 282
192 775 536
193 960 722
194 686 148
195 718 138
196 870 167
197 713 265
198 713 242
199 855 296
200 535 169
201 900 254
202 877 365
203 872 218
204 957 620
205 680 535
206 701 182
207 687 498
208 828 511
209 741 557
210 764 452
211 500 143
212 916 505
213 720 452
214 852 349
215 855 297
216 755 492
217 748 411
218 829 123
219 752 217
220 949 556
221 853 596
222 764 576
223 651 282
224 747 256
225 680 49
226 839 364
227 839 66
228 846 29
229 604 597
230 762 520
231 839 244
232 896 131
233 586 465
234 582 216
235 681 187
236 756 182
237 924 98
238 731 625
239 428 684
240 725 408
241 792 337
242 677 142
243 797 262
DEMAND_SECTION
2 99
3 72
4 87
5 77
6 78
7 76
8 74
9 78
10 92
11 96
12 75
13 96
14 72
15 99
16 63
17 93
18 64
19 68
20 82
21 53
22 91
23 74
24 67
25 65
26 85
27 52
28 77
29 91
30 58
31 73
32 62
33 94
34 84
35 74
36 95
37 62
38 62
39 78
40 89
41 87
42 54
43 73
44 81
45 84
46 51
47 84
48 100
49 69
50 52
51 99
52 95
53 85
54 89
55 96
56 60
57 75
58 97
59 65
60 57
61 57
62 97
63 86
64 97
65 52
66 66
67 100
68 53
69 54
70 3
71 8
72 1
73 3
74 2
75 8
76 6
77 9
78 8
79 8
80 5
81 6
82 4
83 7
84 9
85 1
86 7
87 1
88 6
89 7
90 6
91 10
92 3
93 6
94 5
95 1
96 10
97 5
98 2
99 2
COVERAGE_SECTION
2 7 182 159 166 81 129 150 234 
3 7 111 10 164 36 143 199 215 
4 7 217 240 188 15 96 187 101 
5 7 114 137 178 230 175 59 55 
6 6 145 227 228 218 176 115 
7 7 161 203 147 39 108 196 60 
8 7 163 16 28 117 48 158 131 
9 7 165 129 166 34 75 235 183 
10 7 111 3 164 140 76 126 89 
11 7 66 95 62 207 120 13 58 
12 7 154 123 38 188 104 187 151 
13 7 95 31 213 62 11 47 66 
14 7 200 99 88 150 179 81 42 
15 7 101 96 136 67 217 27 210 
16 7 163 8 28 117 158 48 131 
17 7 20 241 72 168 171 21 127 
18 7 157 132 162 35 54 113 46 
19 7 146 198 197 91 124 223 235 
20 7 17 168 72 127 241 171 21 
21 7 17 43 241 141 144 191 20 
22 7 86 184 153 223 87 197 124 
23 7 181 80 202 30 117 51 109 
24 7 58 120 205 207 11 66 102 
25 7 199 215 36 141 143 3 170 
26 7 133 69 33 151 27 101 136 
27 7 136 210 101 69 15 67 133 
28 7 16 163 8 33 26 131 133 
29 7 57 70 90 79 185 49 201 
30 7 32 109 181 212 23 177 80 
31 7 13 62 112 116 95 47 142 
32 7 30 212 109 83 23 181 220 
33 7 133 26 28 190 44 69 172 
34 7 75 94 121 235 165 9 206 
35 7 106 46 152 157 54 99 18 
36 7 25 143 199 215 3 141 164 
37 7 153 155 68 86 119 47 187 
38 7 123 12 154 144 171 241 151 
39 7 203 60 7 161 147 89 201 
40 7 74 243 105 191 231 77 173 
41 7 209 222 56 178 100 125 137 
42 7 88 186 200 14 81 150 52 
43 7 92 103 61 215 170 199 25 
44 7 190 172 33 160 210 133 27 
45 7 104 171 187 68 188 241 154 
46 7 152 135 35 157 179 113 106 
47 7 240 155 31 13 96 119 4 
48 7 226 158 117 214 131 202 51 
49 7 185 79 70 201 39 203 7 
50 7 229 97 65 102 169 139 134 
51 7 202 117 214 48 82 61 226 
52 7 107 42 64 186 88 211 200 
53 7 113 118 142 119 93 157 112 
54 7 132 35 18 157 106 46 152 
55 7 192 178 230 137 114 5 209 
56 7 169 125 41 209 100 238 102 
57 7 70 130 126 79 76 201 140 
58 7 205 120 24 207 66 11 100 
59 7 5 216 114 175 66 207 137 
60 7 89 63 164 39 231 10 111 
61 7 92 103 43 170 214 215 51 
62 7 11 95 116 112 31 13 66 
63 7 89 231 60 164 143 108 3 
64 7 174 52 225 180 138 189 107 
65 7 50 73 148 229 239 97 139 
66 7 207 11 95 120 59 58 62 
67 7 136 15 210 96 101 27 213 
68 7 104 187 45 188 153 37 87 
69 7 133 26 101 27 136 210 15 
70 7 79 185 201 57 49 76 140 
71 7 110 242 194 183 94 176 195 
72 7 168 20 17 127 191 243 77 
73 7 148 239 65 50 229 139 97 
74 7 40 243 191 77 105 173 231 
75 7 34 121 94 235 165 206 9 
76 7 126 140 130 201 10 111 3 
77 7 173 243 74 40 105 224 72 
78 7 232 196 237 218 227 145 7 
79 7 70 185 201 49 76 140 57 
80 7 181 23 82 51 202 90 117 
81 7 150 182 2 234 179 88 186 
82 7 51 61 202 103 170 92 130 
83 7 212 208 167 109 32 172 221 
84 7 195 115 110 194 94 121 206 
85 7 211 122 107 106 200 99 14 
86 7 22 153 37 184 119 155 223 
87 7 184 127 68 153 20 22 168 
88 7 200 14 42 150 81 99 186 
89 7 60 63 164 231 3 111 10 
90 7 80 57 29 181 82 130 23 
91 7 197 198 224 19 146 184 219 
92 7 43 103 61 170 215 199 214 
93 7 112 116 142 62 233 31 98 
94 7 75 121 34 194 242 235 206 
95 7 13 11 62 66 31 207 213 
96 7 15 67 240 213 217 101 136 
97 7 169 102 56 125 229 50 238 
98 7 233 93 24 116 112 120 139 
99 7 14 106 200 88 152 179 211 
100 7 175 205 209 5 41 114 137 
101 7 136 15 27 69 67 210 217 
102 7 97 169 56 205 229 24 58 
103 7 170 92 61 215 43 199 25 
104 7 187 188 45 154 68 12 171 
105 7 231 40 74 108 173 243 63 
106 7 99 35 14 152 200 46 211 
107 7 52 211 85 42 64 200 88 
108 7 147 161 231 105 7 203 63 
109 7 32 212 30 23 83 181 28 
110 7 194 242 71 94 195 84 121 
111 7 10 3 164 36 140 199 76 
112 7 116 93 62 142 31 13 95 
113 7 118 46 53 157 135 152 18 
114 7 5 137 178 230 55 192 216 
115 7 195 84 176 110 194 71 242 
116 7 112 62 93 31 142 95 11 
117 7 202 48 51 8 163 16 226 
118 7 113 135 46 152 159 234 179 
119 7 155 37 47 86 142 153 31 
120 7 58 207 24 11 66 205 62 
121 7 75 94 34 206 235 194 165 
122 7 85 211 107 106 200 99 54 
123 7 12 38 154 151 188 131 104 
124 7 223 146 19 22 86 197 91 
125 7 238 56 169 41 222 209 97 
126 7 76 140 130 10 201 111 3 
127 7 20 87 168 72 17 184 45 
128 7 237 232 78 196 49 227 228 
129 7 166 9 165 2 34 75 235 
130 7 126 76 140 57 10 111 201 
131 7 158 226 48 144 38 163 8 
132 7 54 18 35 157 162 46 106 
133 7 26 69 27 33 101 136 210 
134 7 238 125 97 169 56 156 41 
135 7 152 179 234 46 159 182 118 
136 7 27 101 210 67 15 69 96 
137 7 178 114 5 55 230 192 209 
138 6 189 180 225 174 176 71 
139 7 229 98 24 149 102 50 233 
140 7 76 126 10 201 111 130 3 
141 7 25 36 143 191 199 215 21 
142 7 112 93 116 31 119 155 62 
143 7 36 25 164 141 3 199 215 
144 7 241 171 38 131 21 226 158 
145 6 227 6 218 228 78 232 
146 7 19 124 223 197 91 198 22 
147 7 161 108 7 203 39 231 63 
148 7 73 239 65 50 139 229 149 
149 7 139 98 233 162 229 93 24 
150 7 81 182 234 2 179 88 159 
151 7 123 12 26 154 38 69 133 
152 7 46 135 179 99 106 234 14 
153 7 37 68 86 184 87 22 155 
154 7 12 123 188 38 104 187 45 
155 7 119 47 37 153 86 240 31 
156 7 222 41 192 209 125 238 221 
157 7 18 46 113 35 152 118 135 
158 7 226 131 48 214 8 163 16 
159 7 182 234 2 179 150 81 135 
160 7 167 208 192 44 230 172 55 
161 7 147 7 203 108 39 231 60 
162 7 18 157 132 149 53 113 54 
163 7 8 16 28 117 158 48 131 
164 7 3 89 111 10 60 143 63 
165 7 9 34 235 75 129 166 121 
166 7 129 9 165 2 34 235 75 
167 7 208 160 192 55 172 230 44 
168 7 72 20 17 127 191 243 77 
169 7 56 97 102 125 238 41 100 
170 7 103 199 215 92 25 61 3 
171 7 241 45 144 38 17 104 154 
172 7 190 44 208 33 160 167 133 
173 7 77 243 74 105 40 224 219 
174 6 225 189 138 180 176 64 
175 7 100 5 114 59 137 205 209 
176 6 115 138 189 71 195 110 
177 7 220 32 212 30 204 83 109 
178 7 137 55 114 230 5 192 209 
179 7 234 182 135 159 150 81 152 
180 6 138 189 225 174 71 176 
181 7 23 80 30 202 109 117 51 
182 7 234 159 2 179 150 81 135 
183 7 242 9 71 194 129 94 34 
184 7 87 22 153 197 127 86 91 
185 7 79 70 49 201 39 140 76 
186 7 42 81 150 88 183 2 166 
187 7 104 188 45 154 68 12 171 
188 7 187 104 154 12 45 68 4 
189 6 138 225 180 174 176 71 
190 7 172 44 33 160 208 133 28 
191 7 74 141 40 243 72 143 21 
192 7 55 230 178 137 114 160 167 
193 6 204 221 220 177 156 83 
194 7 242 110 94 121 75 34 71 
195 7 84 115 110 194 94 242 121 
196 7 7 232 78 161 203 147 218 
197 7 91 198 224 19 146 184 22 
198 7 91 197 19 224 146 219 184 
199 7 215 25 36 170 103 3 143 
200 7 14 88 99 42 211 150 81 
201 7 79 140 76 70 126 185 10 
202 7 51 117 48 214 82 226 61 
203 7 7 39 161 147 108 60 89 
204 7 220 177 193 221 212 83 32 
205 7 58 100 120 175 24 207 66 
206 7 121 235 75 34 94 194 165 
207 7 66 11 120 58 95 59 205 
208 7 167 160 172 190 44 83 192 
209 7 41 178 137 222 100 55 114 
210 7 27 136 67 101 15 69 133 
211 7 200 14 88 99 85 42 106 
212 7 32 83 109 30 220 177 208 
213 7 67 96 13 15 95 136 59 
214 7 48 226 61 158 51 92 43 
215 7 199 25 36 170 103 3 141 
216 7 230 59 114 5 137 210 55 
217 7 4 15 240 101 96 69 136 
218 5 145 78 227 196 232 
219 6 236 224 173 198 77 91 
220 7 177 212 204 32 83 30 221 
221 7 156 83 167 208 222 192 160 
222 7 41 209 156 192 55 178 137 
223 7 124 146 22 19 86 197 91 
224 7 91 197 198 77 219 173 168 
225 6 189 174 138 180 176 71 
226 7 158 48 131 214 117 144 8 
227 7 145 228 6 218 78 232 237 
228 7 227 6 145 218 78 237 232 
229 7 139 102 50 97 24 169 205 
230 7 55 114 137 178 192 5 216 
231 7 63 89 105 108 60 40 147 
232 7 78 237 196 218 7 128 227 
233 7 98 93 116 112 142 62 24 
234 7 182 179 159 150 81 2 135 
235 7 75 34 121 165 206 94 9 
236 5 219 84 206 195 115 
237 7 232 78 128 196 227 218 228 
238 7 125 56 169 134 41 222 156 
239 7 148 73 65 50 139 149 229 
240 7 217 96 4 47 15 101 213 
241 7 171 144 17 45 38 21 20 
242 7 194 110 71 94 34 75 183 
243 7 74 77 40 173 191 72 105 
DEPOT_SECTION
   1
   -1
EOF
