NAME :  X-n289-kX-w57-c7.cctp
COMMENT : 	Adapted by Maziero, Usberti and Cavellucci from the Uchoa, Pecin, Pessoa, Poggi, Subramanian, and Vidal (2013)
TYPE :  CCTP
DIMENSION :    201
EDGE_WEIGHT_TYPE : 	EUC_2D	
CAPACITY : 	267
VERTICES_WITHIN_COVERAGE :  7
VERTICES_WITH_DEMAND : 	57
NODE_COORD_SECTION
1 0 0
2 174 325
3 49 34
4 543 815
5 42 920
6 545 80
7 681 950
8 870 118
9 787 220
10 537 927
11 180 838
12 543 582
13 442 620
14 747 569
15 932 48
16 14 356
17 53 476
18 603 228
19 772 573
20 811 359
21 373 37
22 859 142
23 489 543
24 37 771
25 354 944
26 96 62
27 326 729
28 881 541
29 653 724
30 226 759
31 481 44
32 100 882
33 129 299
34 989 512
35 600 42
36 538 772
37 346 479
38 448 624
39 286 417
40 612 457
41 70 468
42 502 909
43 595 503
44 819 948
45 771 355
46 372 196
47 535 775
48 232 518
49 119 626
50 110 835
51 567 348
52 6 211
53 493 652
54 96 183
55 105 479
56 873 333
57 468 199
58 536 120
59 17 65
60 638 958
61 328 921
62 968 540
63 125 145
64 692 422
65 557 864
66 498 832
67 343 962
68 583 474
69 976 636
70 981 353
71 622 728
72 792 443
73 283 63
74 972 417
75 694 214
76 38 91
77 294 791
78 429 815
79 691 154
80 431 909
81 615 264
82 448 185
83 883 478
84 627 564
85 718 660
86 716 586
87 607 343
88 675 244
89 199 880
90 588 662
91 58 700
92 221 510
93 518 554
94 944 282
95 254 558
96 428 165
97 848 305
98 860 100
99 602 620
100 437 55
101 922 348
102 433 776
103 891 306
104 211 731
105 408 859
106 492 322
107 581 746
108 868 337
109 365 161
110 568 646
111 456 81
112 477 162
113 429 844
114 396 41
115 130 972
116 563 135
117 317 258
118 414 696
119 547 90
120 321 27
121 474 629
122 526 440
123 814 534
124 287 975
125 11 791
126 217 331
127 745 430
128 34 925
129 12 489
130 201 545
131 880 525
132 649 744
133 643 684
134 319 178
135 731 709
136 225 726
137 596 265
138 634 256
139 166 640
140 42 480
141 150 168
142 122 330
143 127 502
144 13 620
145 634 888
146 224 537
147 174 366
148 24 40
149 145 248
150 419 444
151 875 393
152 117 315
153 34 517
154 73 159
155 152 615
156 660 798
157 184 487
158 706 738
159 192 700
160 9 455
161 50 417
162 61 343
163 80 515
164 79 416
165 257 315
166 91 213
167 316 692
168 159 590
169 768 627
170 552 300
171 890 942
172 28 627
173 141 84
174 151 452
175 651 231
176 593 205
177 126 511
178 53 418
179 126 279
180 65 479
181 465 504
182 328 87
183 341 495
184 75 221
185 12 139
186 854 920
187 572 402
188 120 604
189 736 914
190 252 343
191 653 922
192 188 452
193 594 876
194 169 35
195 149 580
196 69 12
197 878 954
198 141 498
199 467 248
200 256 559
201 115 233
DEMAND_SECTION
2 73
3 71
4 59
5 29
6 19
7 79
8 27
9 13
10 77
11 21
12 99
13 24
14 71
15 38
16 59
17 56
18 41
19 87
20 28
21 81
22 18
23 49
24 28
25 35
26 86
27 40
28 89
29 75
30 25
31 56
32 43
33 57
34 88
35 37
36 88
37 76
38 37
39 67
40 3
41 64
42 53
43 72
44 55
45 22
46 56
47 51
48 30
49 15
50 1
51 46
52 78
53 18
54 62
55 100
56 43
57 87
58 4
COVERAGE_SECTION
2 6 147 126 33 142 152 179 
3 7 148 196 59 26 76 173 185 
4 7 47 36 66 65 107 193 42 
5 7 128 32 115 50 125 24 11 
6 7 119 58 116 35 31 111 112 
7 5 191 60 189 145 193 
8 7 98 22 15 9 94 79 97 
9 6 75 97 22 88 79 8 
10 7 42 65 193 66 145 60 80 
11 7 89 50 30 32 104 136 77 
12 7 93 23 110 99 121 53 84 
13 7 38 121 53 118 23 93 12 
14 6 19 86 169 123 85 84 
15 7 98 8 22 9 94 103 79 
16 3 162 161 178 
17 6 140 180 41 129 153 163 
18 5 176 81 137 138 175 
19 6 14 169 86 123 85 28 
20 7 45 108 97 56 151 72 103 
21 7 114 120 100 182 73 111 31 
22 7 8 98 9 15 97 94 103 
23 7 93 181 12 121 13 38 53 
24 7 125 91 50 32 172 5 144 
25 7 67 61 124 80 105 113 78 
26 5 173 3 196 76 148 
27 7 167 77 118 136 30 104 102 
28 7 131 83 123 62 34 19 72 
29 7 132 71 133 158 156 107 135 
30 6 104 136 159 77 11 27 
31 7 100 111 6 119 114 58 21 
32 7 50 5 128 11 115 89 125 
33 3 152 179 142 
34 7 62 74 131 83 28 69 70 
35 7 6 119 116 58 31 79 111 
36 7 47 4 107 66 65 71 102 
37 7 183 150 39 48 200 95 181 
38 7 13 121 53 118 23 93 12 
39 7 190 37 183 192 165 126 92 
40 5 68 43 187 64 122 
41 6 180 17 140 55 163 164 
42 7 10 65 80 66 113 193 4 
43 7 68 40 84 93 122 12 187 
44 4 186 197 171 189 
45 5 20 127 72 97 108 
46 6 109 134 96 82 117 57 
47 7 36 4 107 66 65 71 102 
48 6 92 146 130 95 200 157 
49 5 188 155 139 168 195 
50 7 32 11 24 89 125 5 128 
51 3 87 170 187 
52 5 184 185 154 166 54 
53 7 121 38 13 110 12 118 90 
54 6 166 154 184 63 201 141 
55 7 143 41 177 180 198 163 17 
56 7 108 103 97 101 151 20 94 
57 6 82 112 199 96 46 58 
58 7 116 119 6 112 111 31 35 
59 7 148 76 3 185 196 26 154 
60 6 191 7 145 193 10 189 
61 7 25 67 124 105 80 113 77 
62 7 34 28 131 69 83 74 123 
63 3 141 54 154 
64 2 127 40 
65 7 193 4 10 66 42 145 47 
66 7 4 65 47 113 78 36 42 
67 7 25 61 124 80 105 113 89 
68 7 43 40 122 187 84 93 12 
69 3 62 34 28 
70 7 101 74 94 103 56 151 108 
71 7 29 132 107 133 90 156 158 
72 6 127 20 45 123 83 151 
73 4 182 120 21 114 
74 7 70 101 34 151 83 62 56 
75 5 88 175 79 138 18 
76 7 59 148 185 3 26 154 196 
77 7 27 30 136 167 104 11 89 
78 7 113 102 105 66 80 47 4 
79 6 75 175 88 176 18 9 
80 7 105 113 42 25 78 66 67 
81 3 137 138 18 
82 7 57 96 112 199 46 109 111 
83 7 131 28 151 123 72 62 74 
84 7 99 43 12 86 68 110 90 
85 6 135 169 86 133 158 29 
86 6 14 19 169 85 84 123 
87 1 51 
88 5 175 75 138 81 18 
89 7 11 32 50 115 30 124 77 
90 7 110 99 133 71 107 29 12 
91 7 24 172 144 49 125 188 139 
92 6 48 146 130 157 95 200 
93 7 23 12 181 121 43 38 13 
94 7 103 101 70 56 108 97 151 
95 5 200 146 48 130 92 
96 7 82 112 57 109 46 111 199 
97 7 56 108 103 20 101 45 151 
98 7 8 22 15 9 79 94 75 
99 7 110 90 84 12 133 93 71 
100 7 111 114 31 21 96 6 112 
101 7 56 103 108 70 151 94 74 
102 7 78 113 118 66 105 47 36 
103 7 56 108 97 101 94 151 20 
104 6 136 30 159 77 139 11 
105 7 113 78 80 102 66 25 61 
106 3 170 199 51 
107 7 71 36 47 132 29 4 90 
108 7 56 97 103 101 151 20 94 
109 5 46 134 96 182 82 
110 7 90 99 12 53 133 121 71 
111 7 100 31 114 112 6 58 96 
112 7 82 57 96 58 111 199 116 
113 7 105 78 80 102 66 42 4 
114 7 21 100 111 120 182 31 73 
115 7 32 5 128 89 50 11 124 
116 7 58 119 6 176 112 35 18 
117 5 134 46 165 190 109 
118 7 38 13 102 53 121 27 167 
119 7 6 58 116 35 31 111 112 
120 6 73 21 182 114 100 109 
121 7 38 53 13 12 23 93 118 
122 7 187 68 40 181 43 51 150 
123 7 19 28 131 14 83 72 169 
124 7 67 61 25 89 115 80 105 
125 7 24 91 50 32 5 128 172 
126 6 190 2 165 147 33 142 
127 4 72 64 45 20 
128 7 5 32 115 50 125 24 11 
129 6 140 160 153 17 180 41 
130 5 146 92 48 95 200 
131 7 28 83 123 62 34 19 72 
132 6 29 71 156 158 133 107 
133 7 29 71 90 132 99 85 158 
134 5 109 46 117 182 96 
135 3 158 85 29 
136 6 104 30 159 77 167 27 
137 3 81 18 138 
138 5 81 175 137 18 88 
139 5 155 49 168 188 195 
140 6 17 180 41 129 153 160 
141 2 63 54 
142 3 152 33 179 
143 5 177 198 55 163 174 
144 5 172 91 153 49 188 
145 5 191 193 60 7 65 
146 5 48 130 92 95 200 
147 4 2 126 142 152 
148 7 3 59 76 196 26 185 173 
149 5 201 179 33 166 152 
150 7 181 37 183 122 23 39 106 
151 7 108 56 101 20 83 103 97 
152 3 142 33 179 
153 5 129 140 17 163 180 
154 5 54 63 166 184 185 
155 5 168 139 188 49 195 
156 3 132 29 158 
157 6 192 92 198 174 48 143 
158 3 135 29 132 
159 5 104 136 139 30 155 
160 4 129 140 17 161 
161 3 178 164 41 
162 1 16 
163 5 180 55 153 177 17 
164 3 178 161 41 
165 7 190 126 117 2 147 39 33 
166 6 184 54 201 154 149 141 
167 5 27 136 118 77 30 
168 5 195 155 188 139 49 
169 6 19 85 14 86 135 123 
170 1 51 
171 3 197 186 44 
172 4 144 91 49 188 
173 3 26 194 63 
174 6 192 198 157 55 143 177 
175 5 88 138 75 18 81 
176 6 18 137 81 175 138 116 
177 4 143 198 55 163 
178 3 161 164 41 
179 3 33 149 152 
180 6 17 41 140 163 55 153 
181 7 23 93 150 122 12 13 38 
182 6 73 120 21 114 109 134 
183 7 37 150 39 200 95 48 92 
184 5 166 201 54 154 52 
185 7 76 154 52 59 54 148 184 
186 3 171 197 44 
187 5 51 122 40 87 68 
188 5 49 155 195 168 139 
189 3 7 191 44 
190 7 165 126 2 39 147 117 192 
191 5 60 145 7 193 189 
192 6 157 174 198 92 48 143 
193 7 65 145 191 10 4 60 42 
194 2 173 26 
195 4 168 155 188 49 
196 7 3 148 26 59 76 173 194 
197 3 171 186 44 
198 6 143 177 55 157 174 163 
199 6 57 82 106 112 96 170 
200 5 95 146 48 130 92 
201 5 166 149 184 179 54 
DEPOT_SECTION
   1
   -1
EOF
