NAME :  X-n266-kX-w106-c11.cctp
COMMENT : 	Adapted by Maziero, Usberti and Cavellucci from the Uchoa, Pecin, Pessoa, Poggi, Subramanian, and Vidal (2013)
TYPE :  CCTP
DIMENSION :    258
EDGE_WEIGHT_TYPE : 	EUC_2D	
CAPACITY : 	35
VERTICES_WITHIN_COVERAGE :  11
VERTICES_WITH_DEMAND : 	106
NODE_COORD_SECTION
1 143 12
2 206 907
3 895 855
4 640 970
5 865 716
6 993 356
7 618 966
8 963 539
9 50 979
10 241 998
11 32 206
12 288 926
13 299 507
14 336 180
15 589 726
16 665 488
17 36 521
18 112 895
19 814 442
20 843 474
21 17 258
22 360 273
23 814 537
24 775 524
25 825 471
26 321 87
27 773 958
28 119 166
29 368 928
30 193 250
31 452 919
32 736 322
33 386 911
34 624 313
35 694 398
36 186 803
37 948 721
38 216 973
39 915 641
40 238 810
41 946 172
42 23 561
43 613 657
44 359 434
45 604 96
46 56 554
47 862 723
48 222 161
49 974 838
50 775 67
51 815 880
52 204 362
53 435 760
54 593 358
55 203 435
56 882 803
57 194 739
58 380 323
59 836 461
60 537 136
61 789 669
62 956 1000
63 98 295
64 656 410
65 580 959
66 594 64
67 459 43
68 425 559
69 262 31
70 522 339
71 960 74
72 237 910
73 353 828
74 420 281
75 721 524
76 185 679
77 703 303
78 923 491
79 444 792
80 567 476
81 987 930
82 113 210
83 907 45
84 383 799
85 209 192
86 34 820
87 464 717
88 837 536
89 202 94
90 177 341
91 551 3
92 835 467
93 128 655
94 988 937
95 179 369
96 487 765
97 975 406
98 365 411
99 440 41
100 607 487
101 57 898
102 161 707
103 0 517
104 210 88
105 524 195
106 682 409
107 608 55
108 16 909
109 846 379
110 183 242
111 586 182
112 948 682
113 324 44
114 380 573
115 339 188
116 629 32
117 589 805
118 934 907
119 848 633
120 890 973
121 98 787
122 964 391
123 171 837
124 261 409
125 637 133
126 541 313
127 946 388
128 479 636
129 818 503
130 188 602
131 887 643
132 981 839
133 585 570
134 383 325
135 288 219
136 407 596
137 707 525
138 56 193
139 523 502
140 120 163
141 304 158
142 441 587
143 104 295
144 66 150
145 424 609
146 184 395
147 464 153
148 39 224
149 277 43
150 380 496
151 620 623
152 367 300
153 347 401
154 435 235
155 242 543
156 321 572
157 625 361
158 651 354
159 426 359
160 673 531
161 458 375
162 379 329
163 309 329
164 348 126
165 166 46
166 75 271
167 859 379
168 531 461
169 747 578
170 257 92
171 78 288
172 257 383
173 437 360
174 343 279
175 668 383
176 482 603
177 458 522
178 686 499
179 298 392
180 347 264
181 407 379
182 321 280
183 691 402
184 59 174
185 111 266
186 592 424
187 667 384
188 108 339
189 312 489
190 382 227
191 84 311
192 378 58
193 88 62
194 198 132
195 76 112
196 591 502
197 689 522
198 526 495
199 138 63
200 511 638
201 327 293
202 292 538
203 171 142
204 696 506
205 234 718
206 430 247
207 727 571
208 614 295
209 566 543
210 803 537
211 511 469
212 765 571
213 270 251
214 368 533
215 327 164
216 696 575
217 218 562
218 441 622
219 127 121
220 769 443
221 821 500
222 310 87
223 770 527
224 431 539
225 232 256
226 410 281
227 449 507
228 147 223
229 352 172
230 410 339
231 151 36
232 208 116
233 440 59
234 256 195
235 356 343
236 421 333
237 294 460
238 752 289
239 728 554
240 660 422
241 482 173
242 857 655
243 415 551
244 228 318
245 486 491
246 607 505
247 634 426
248 331 128
249 443 613
250 459 681
251 364 278
252 395 494
253 455 610
254 134 149
255 79 208
256 193 203
257 539 493
258 381 435
DEMAND_SECTION
2 5
3 5
4 5
5 5
6 6
7 10
8 10
9 10
10 9
11 9
12 5
13 9
14 5
15 6
16 7
17 6
18 10
19 6
20 5
21 10
22 6
23 10
24 7
25 6
26 9
27 5
28 5
29 8
30 7
31 9
32 6
33 10
34 8
35 9
36 7
37 9
38 5
39 9
40 8
41 10
42 8
43 10
44 10
45 8
46 6
47 7
48 9
49 8
50 8
51 9
52 10
53 5
54 10
55 5
56 6
57 5
58 7
59 10
60 8
61 9
62 9
63 7
64 10
65 10
66 9
67 7
68 9
69 10
70 7
71 6
72 7
73 9
74 10
75 9
76 7
77 10
78 9
79 9
80 6
81 7
82 8
83 6
84 10
85 6
86 5
87 5
88 8
89 8
90 8
91 5
92 9
93 8
94 10
95 5
96 10
97 9
98 5
99 6
100 6
101 7
102 10
103 10
104 6
105 10
106 10
107 5
COVERAGE_SECTION
2 11 72 38 123 12 18 10 40 36 101 121 29 
3 11 56 118 49 51 132 120 81 94 47 5 37 
4 11 7 65 27 117 31 51 15 120 96 33 79 
5 11 47 242 131 37 119 56 61 39 112 3 49 
6 11 122 97 127 167 109 78 8 59 41 20 92 
7 11 4 65 27 117 31 51 33 96 15 79 29 
8 11 78 39 88 131 97 20 112 92 221 122 23 
9 11 108 101 18 86 38 2 123 10 121 72 36 
10 11 38 12 72 2 29 18 33 123 40 9 36 
11 11 148 138 184 255 21 144 166 82 171 28 140 
12 11 72 29 2 10 38 33 73 40 123 84 36 
13 10 189 202 237 155 156 214 150 44 252 217 
14 11 115 215 229 141 248 164 135 190 234 180 26 
15 10 43 117 151 96 200 87 250 128 133 53 
16 11 178 204 197 160 137 100 246 240 75 247 196 
17 11 103 46 42 93 130 217 55 146 188 155 95 
18 11 101 123 2 108 9 86 121 36 72 38 40 
19 11 59 25 92 20 220 221 129 109 167 24 23 
20 11 92 59 25 221 129 19 88 23 210 220 78 
21 11 148 11 166 171 138 255 191 63 184 185 143 
22 11 251 180 174 152 201 182 190 226 58 134 162 
23 11 210 88 129 221 24 223 212 25 20 92 59 
24 11 223 210 23 129 212 221 75 239 169 88 207 
25 11 92 59 20 221 19 129 220 88 23 210 24 
26 11 222 248 113 164 149 170 192 141 215 69 229 
27 11 51 120 4 7 3 118 62 56 65 81 94 
28 11 140 254 82 219 144 203 255 184 228 138 195 
29 11 33 12 31 73 84 72 10 79 38 2 40 
30 11 110 225 256 228 85 244 213 185 234 82 90 
31 11 33 29 79 65 73 84 96 53 12 7 117 
32 11 238 77 35 158 175 183 187 106 34 157 64 
33 11 29 31 73 12 84 79 72 53 10 96 40 
34 11 208 157 158 54 77 126 175 187 64 70 35 
35 11 183 106 175 187 64 240 158 247 157 32 220 
36 11 123 40 57 121 205 102 2 18 72 76 86 
37 11 112 5 47 39 131 56 242 49 132 119 3 
38 11 10 72 2 12 18 123 29 40 9 36 101 
39 11 131 112 242 119 37 5 47 8 61 88 23 
40 11 36 123 57 205 72 2 73 12 102 76 121 
41 11 71 83 6 50 127 122 167 238 109 97 32 
42 11 46 17 103 93 130 217 76 102 55 155 146 
43 10 151 15 133 200 216 209 128 160 176 207 
44 11 258 98 153 150 237 252 189 181 179 235 13 
45 11 66 107 125 116 60 111 91 105 241 147 67 
46 11 42 17 103 93 130 217 76 102 155 55 146 
47 11 5 242 56 131 37 61 119 112 39 3 49 
48 11 85 194 232 234 256 203 89 104 170 141 135 
49 11 132 118 3 81 56 94 37 112 120 47 62 
50 11 83 116 125 107 45 66 71 41 111 238 91 
51 11 3 27 56 120 118 47 49 5 132 81 94 
52 11 95 90 146 244 172 55 124 179 188 163 225 
53 9 79 87 96 84 250 73 128 218 200 
54 11 157 34 158 186 208 126 70 187 175 247 64 
55 11 146 124 95 52 172 237 90 179 155 13 244 
56 11 3 47 5 49 51 37 132 118 112 242 131 
57 10 205 102 76 36 40 123 93 121 130 2 
58 11 134 162 152 235 230 236 251 226 22 174 74 
59 11 92 20 25 19 221 129 220 88 23 109 210 
60 11 105 241 111 147 45 66 125 107 67 233 91 
61 11 119 242 5 47 169 131 212 207 39 239 216 
62 11 94 120 81 118 3 49 132 51 27 56 37 
63 11 143 171 191 185 166 188 82 228 21 255 90 
64 11 240 106 247 187 175 183 35 158 157 186 16 
65 11 7 4 31 117 27 33 29 79 96 15 53 
66 11 107 45 116 91 125 60 111 67 105 233 99 
67 11 99 233 192 91 147 60 241 113 66 164 26 
68 11 243 224 142 136 114 145 177 227 249 253 214 
69 11 149 170 113 222 104 26 89 165 232 231 192 
70 11 126 54 161 173 159 236 208 34 157 186 230 
71 11 83 41 50 6 238 127 122 167 109 125 97 
72 11 2 12 38 10 123 40 36 18 29 73 33 
73 11 84 33 79 29 53 40 12 31 72 96 87 
74 11 226 206 154 236 152 251 134 58 230 22 162 
75 11 137 204 239 197 178 207 160 223 24 216 169 
76 10 102 57 93 205 130 217 36 121 40 155 
77 11 32 238 158 34 175 187 208 35 157 183 106 
78 11 8 20 92 59 88 25 97 221 127 129 122 
79 11 53 96 84 87 73 250 31 33 117 29 15 
80 11 257 196 168 100 198 246 139 211 186 209 245 
81 11 94 118 62 132 49 120 3 56 51 37 27 
82 11 255 228 28 140 185 138 184 254 166 148 144 
83 11 71 41 50 116 125 238 107 45 66 6 32 
84 10 73 79 53 96 33 87 29 31 250 40 
85 11 256 48 234 110 30 194 203 225 228 232 135 
86 11 121 101 108 18 123 36 9 102 57 93 2 
87 9 250 53 96 79 128 200 218 249 253 
88 11 23 210 129 221 20 24 25 223 92 59 212 
89 11 104 232 194 170 203 165 48 199 231 219 69 
90 11 95 52 146 244 188 143 172 63 30 55 191 
91 11 66 107 116 67 45 99 233 60 125 147 111 
92 11 59 20 25 19 221 129 88 220 23 210 24 
93 11 76 102 130 57 205 46 217 121 42 36 155 
94 11 81 118 62 132 49 120 3 56 51 27 37 
95 11 52 146 90 55 244 188 172 124 143 63 191 
96 11 79 53 87 250 15 84 117 128 200 73 218 
97 11 122 127 6 78 167 109 8 20 59 92 25 
98 11 153 44 258 181 235 179 159 162 230 150 237 
99 11 233 67 192 147 113 91 164 26 60 222 241 
100 11 246 196 80 16 186 247 257 209 160 168 178 
101 11 108 18 9 86 121 123 2 36 38 72 40 
102 11 76 57 93 205 36 121 130 40 123 217 86 
103 11 17 42 46 93 130 188 55 146 191 217 95 
104 11 89 232 194 170 165 203 48 199 69 231 149 
105 11 241 60 111 147 154 206 126 45 125 74 208 
106 11 183 35 64 240 187 175 247 158 157 16 178 
107 11 66 116 45 91 125 60 111 67 105 50 233 
108 11 101 9 86 18 121 123 2 36 38 72 10 
109 11 167 19 59 92 25 20 127 220 122 32 221 
110 11 30 256 228 225 85 185 82 213 234 244 48 
111 11 105 60 125 45 241 208 66 147 107 34 126 
112 11 37 39 131 5 47 242 119 56 8 49 61 
113 11 26 222 149 192 69 170 248 164 99 141 233 
114 8 136 243 214 68 145 156 224 142 
115 11 14 229 215 141 190 135 248 164 180 234 22 
116 11 107 66 45 91 125 60 50 111 67 99 233 
117 11 15 96 79 43 87 65 53 7 4 31 250 
118 11 81 94 3 120 49 132 62 56 51 27 37 
119 11 242 131 39 61 5 47 88 23 212 210 112 
120 11 62 118 94 81 3 27 51 49 132 56 4 
121 11 86 123 36 102 57 18 101 93 76 40 108 
122 11 127 97 6 167 78 109 59 20 8 92 19 
123 11 36 40 2 18 121 72 57 101 102 205 86 
124 11 172 179 237 55 52 146 153 95 163 189 244 
125 11 45 111 66 107 60 116 105 50 91 241 208 
126 11 70 54 208 34 157 161 173 158 105 186 236 
127 11 122 97 6 167 109 78 59 20 92 19 25 
128 10 200 176 253 218 249 250 145 142 87 136 
129 11 221 25 23 210 20 88 92 59 24 223 19 
130 9 217 76 93 155 102 202 205 156 57 
131 11 39 242 119 112 5 47 37 61 88 8 23 
132 11 49 118 3 81 94 56 37 112 120 62 47 
133 10 209 151 196 246 100 257 43 139 198 80 
134 11 58 162 152 230 235 236 251 226 159 22 74 
135 11 213 234 115 14 141 215 225 182 180 229 174 
136 9 145 114 142 249 68 218 243 253 224 
137 11 75 197 204 178 160 239 207 216 16 223 169 
138 11 184 11 255 148 144 82 28 140 21 166 195 
139 11 198 257 211 245 168 80 209 177 196 227 246 
140 11 28 254 219 82 203 144 255 184 228 195 138 
141 11 215 14 248 115 229 164 234 135 222 26 170 
142 11 249 253 145 68 136 218 176 243 224 128 114 
143 11 63 191 171 185 166 188 228 82 90 255 21 
144 11 184 195 138 28 140 255 11 219 254 82 148 
145 10 249 136 218 142 253 68 114 176 243 128 
146 11 95 52 55 90 172 124 244 188 179 143 237 
147 11 241 105 60 154 233 206 67 190 229 99 164 
148 11 11 138 21 255 184 166 82 171 144 185 63 
149 11 69 113 170 222 26 104 89 232 248 192 164 
150 11 252 214 258 44 243 224 189 227 68 114 13 
151 10 43 133 216 209 160 15 200 207 246 197 
152 11 251 58 22 134 162 174 180 201 235 226 182 
153 11 98 44 258 179 235 181 162 237 163 134 58 
154 11 206 74 226 190 241 251 22 147 180 152 105 
155 7 217 202 13 130 156 189 237 
156 5 202 114 214 13 189 
157 11 158 54 34 175 187 64 247 208 240 186 106 
158 11 157 175 187 34 64 54 35 183 106 240 208 
159 11 173 230 236 181 161 134 162 58 235 74 98 
160 11 197 204 137 178 16 75 216 239 207 246 100 
161 11 173 159 181 236 230 70 134 162 58 258 98 
162 11 58 134 235 152 230 236 251 159 181 226 22 
163 11 201 235 182 174 179 152 162 58 134 172 180 
164 11 248 215 229 26 141 222 14 115 192 113 170 
165 11 231 199 89 104 193 232 219 194 203 69 170 
166 11 171 63 185 143 191 21 148 255 82 188 11 
167 11 109 19 59 127 92 20 25 122 220 97 221 
168 11 211 257 198 80 139 245 186 196 100 246 209 
169 11 212 207 239 216 223 75 24 137 210 23 197 
170 11 104 149 222 89 232 69 26 194 48 141 113 
171 11 166 63 191 143 185 188 21 148 255 82 11 
172 11 124 179 52 244 146 55 163 95 237 90 153 
173 11 159 161 236 230 181 134 162 58 74 226 235 
174 11 180 22 201 251 182 152 58 163 134 162 190 
175 11 187 35 64 106 183 158 240 157 247 54 34 
176 10 253 128 249 142 200 218 145 68 136 250 
177 11 227 224 245 68 243 142 139 252 198 211 150 
178 11 204 197 16 137 160 75 239 216 246 100 240 
179 11 124 172 153 163 237 98 44 235 258 189 52 
180 11 22 174 251 182 201 152 190 226 58 134 162 
181 11 159 173 230 236 161 98 162 134 58 235 258 
182 11 201 174 180 22 251 152 163 213 135 235 58 
183 11 35 106 175 187 64 240 158 247 157 220 16 
184 11 138 144 255 11 148 28 140 195 82 254 219 
185 11 143 63 166 171 191 82 228 255 188 110 148 
186 11 247 80 100 54 64 240 157 168 196 246 187 
187 11 175 64 106 35 183 158 240 157 247 54 34 
188 11 191 143 63 171 90 185 166 95 146 52 21 
189 10 13 237 202 150 214 44 156 252 155 258 
190 11 22 180 206 154 251 115 226 229 174 14 74 
191 11 63 171 143 188 166 185 21 90 148 255 82 
192 11 113 233 26 99 164 222 67 248 149 229 215 
193 11 199 195 231 219 165 144 254 140 28 203 184 
194 11 232 203 48 89 104 85 254 170 256 219 140 
195 11 144 193 219 184 140 28 254 199 138 255 203 
196 11 246 100 80 209 257 198 133 139 168 16 186 
197 11 204 137 160 178 75 16 239 216 207 169 223 
198 11 139 257 211 168 245 80 209 196 177 227 100 
199 11 231 165 193 219 89 104 195 203 254 232 194 
200 10 128 176 253 250 218 249 142 87 145 133 
201 11 182 174 180 22 163 251 152 235 58 162 134 
202 7 13 156 155 189 214 217 237 
203 11 194 254 232 219 48 140 28 89 85 256 104 
204 11 178 197 137 75 160 16 239 216 207 223 24 
205 8 57 76 102 40 36 93 130 123 
206 11 154 74 226 190 251 22 152 180 236 241 58 
207 11 239 169 216 212 75 137 197 223 24 160 204 
208 11 34 54 157 158 126 77 70 175 187 111 64 
209 10 133 196 246 257 139 198 80 100 168 211 
210 11 23 24 88 223 129 221 212 169 25 20 92 
211 11 168 198 245 139 257 80 227 177 196 209 186 
212 11 169 207 239 223 24 210 23 75 216 137 88 
213 11 135 225 234 182 201 30 174 180 244 85 110 
214 8 150 114 252 243 156 68 224 189 
215 11 14 141 229 115 248 164 135 26 234 222 190 
216 11 207 239 160 137 169 197 75 204 212 178 223 
217 8 155 130 202 13 156 189 76 237 
218 9 249 253 145 142 128 136 176 250 68 
219 11 254 140 28 203 195 199 144 193 194 89 232 
220 11 19 25 59 92 129 221 20 24 223 35 183 
221 11 129 25 20 92 23 88 210 59 24 19 223 
222 11 26 113 248 170 164 149 141 69 192 215 229 
223 11 24 210 212 23 75 239 129 169 221 207 137 
224 11 243 68 177 227 142 252 114 136 214 150 145 
225 11 213 30 110 244 234 256 135 85 228 182 48 
226 11 74 206 251 152 22 58 134 154 236 162 230 
227 11 177 224 245 243 252 68 150 211 139 198 142 
228 11 82 110 256 30 185 28 140 85 255 254 143 
229 11 14 115 215 164 248 141 190 135 26 180 222 
230 11 236 159 134 162 58 173 181 235 152 226 74 
231 11 165 199 193 89 104 219 232 194 195 203 69 
232 11 194 89 104 203 48 170 85 219 254 165 199 
233 11 99 67 192 147 164 113 241 26 60 91 248 
234 11 135 85 48 213 141 256 225 215 14 115 30 
235 11 162 58 134 152 163 230 201 153 181 174 251 
236 11 230 159 173 134 58 162 181 74 226 161 152 
237 11 189 13 124 179 44 202 153 172 98 258 150 
238 11 32 77 158 35 175 187 183 34 109 208 106 
239 11 207 75 169 137 216 212 197 223 24 204 160 
240 11 64 106 247 183 187 175 35 16 186 158 157 
241 11 147 105 60 154 206 111 190 233 74 226 229 
242 11 119 131 39 5 47 61 112 37 88 212 23 
243 11 68 224 114 142 136 214 177 227 145 252 150 
244 11 52 90 225 95 172 30 213 163 110 146 124 
245 11 211 139 198 227 177 257 168 224 80 68 252 
246 11 196 100 80 209 16 133 257 160 178 186 198 
247 11 240 64 186 106 187 175 183 35 157 100 16 
248 11 164 215 141 26 222 229 14 115 170 113 192 
249 9 218 253 145 142 136 176 128 68 243 
250 9 87 128 218 200 249 253 145 176 53 
251 11 22 174 152 180 201 182 226 58 134 162 190 
252 11 150 214 227 224 243 258 177 44 68 114 189 
253 10 249 218 142 176 145 128 136 68 200 243 
254 11 140 28 219 203 82 194 144 195 228 184 256 
255 11 138 82 184 148 11 28 144 140 166 185 228 
256 11 85 110 30 228 48 234 203 225 194 82 254 
257 11 198 139 80 168 211 196 245 209 100 246 177 
258 11 44 98 153 150 252 181 159 189 237 179 173 
DEPOT_SECTION
   1
   -1
EOF
