NAME :  X-n209-kX-w83-c11.cctp
COMMENT : 	Adapted by Maziero, Usberti and Cavellucci from the Uchoa, Pecin, Pessoa, Poggi, Subramanian, and Vidal (2013)
TYPE :  CCTP
DIMENSION :    209
EDGE_WEIGHT_TYPE : 	EUC_2D	
CAPACITY : 	101
VERTICES_WITHIN_COVERAGE :  11
VERTICES_WITH_DEMAND : 	83
NODE_COORD_SECTION
1 0 0
2 487 949
3 492 770
4 150 556
5 130 719
6 962 393
7 54 890
8 861 705
9 338 631
10 119 741
11 48 296
12 982 827
13 18 954
14 558 698
15 857 337
16 963 72
17 218 46
18 705 484
19 315 3
20 331 358
21 688 156
22 314 338
23 214 428
24 193 866
25 381 924
26 968 10
27 797 382
28 733 544
29 956 878
30 576 270
31 257 778
32 713 605
33 270 940
34 880 401
35 245 168
36 973 29
37 888 919
38 943 703
39 364 248
40 932 60
41 575 18
42 663 990
43 667 351
44 85 708
45 801 330
46 261 91
47 163 953
48 509 249
49 237 336
50 791 356
51 314 168
52 356 726
53 260 412
54 630 144
55 534 255
56 356 444
57 448 320
58 987 333
59 691 109
60 319 476
61 83 716
62 395 818
63 605 769
64 633 162
65 651 644
66 221 4
67 551 912
68 762 604
69 337 41
70 156 318
71 756 357
72 749 173
73 535 235
74 719 700
75 900 564
76 717 4
77 337 441
78 759 103
79 615 132
80 365 498
81 42 268
82 952 2
83 989 303
84 471 821
85 650 215
86 302 881
87 61 459
88 391 405
89 364 170
90 643 744
91 324 620
92 559 449
93 92 914
94 133 607
95 223 949
96 988 415
97 943 616
98 764 6
99 659 250
100 766 532
101 730 338
102 850 489
103 481 467
104 564 296
105 469 531
106 538 121
107 997 183
108 127 966
109 880 538
110 300 985
111 462 125
112 781 68
113 884 92
114 438 673
115 591 658
116 928 894
117 107 816
118 581 799
119 46 288
120 548 0
121 379 725
122 186 490
123 947 161
124 702 712
125 230 722
126 40 891
127 362 568
128 26 614
129 396 104
130 756 658
131 818 433
132 236 62
133 314 56
134 276 466
135 789 828
136 626 677
137 626 156
138 369 506
139 207 461
140 566 842
141 676 871
142 135 983
143 956 181
144 5 209
145 10 57
146 499 617
147 369 482
148 975 194
149 882 465
150 716 147
151 740 993
152 77 480
153 742 233
154 869 824
155 809 987
156 999 514
157 748 391
158 366 917
159 272 875
160 0 9
161 260 359
162 449 208
163 278 711
164 422 445
165 341 448
166 683 498
167 930 690
168 184 567
169 257 360
170 464 101
171 783 645
172 282 884
173 978 688
174 514 349
175 343 552
176 290 171
177 675 414
178 386 86
179 575 26
180 863 973
181 223 412
182 958 176
183 391 824
184 228 93
185 704 946
186 938 995
187 159 343
188 698 106
189 896 169
190 361 937
191 201 120
192 158 852
193 786 630
194 91 909
195 291 333
196 575 931
197 60 763
198 321 837
199 154 302
200 490 215
201 612 394
202 70 159
203 972 987
204 527 340
205 34 241
206 688 334
207 878 485
208 885 205
209 124 413
DEMAND_SECTION
2 7
3 6
4 7
5 8
6 10
7 7
8 7
9 10
10 8
11 5
12 6
13 5
14 6
15 5
16 8
17 5
18 8
19 6
20 6
21 7
22 5
23 9
24 10
25 6
26 6
27 6
28 7
29 8
30 9
31 7
32 6
33 6
34 10
35 5
36 5
37 8
38 10
39 9
40 9
41 6
42 7
43 9
44 9
45 10
46 9
47 10
48 10
49 8
50 7
51 10
52 5
53 9
54 8
55 7
56 5
57 9
58 10
59 6
60 9
61 6
62 5
63 8
64 8
65 6
66 8
67 8
68 6
69 6
70 5
71 10
72 8
73 6
74 9
75 6
76 8
77 10
78 7
79 9
80 7
81 10
82 6
83 10
84 6
COVERAGE_SECTION
2 11 67 196 25 158 190 84 140 183 62 118 3 
3 11 84 118 14 140 62 114 63 183 121 52 115 
4 11 168 94 122 152 139 87 128 23 209 134 181 
5 11 10 44 61 197 117 125 94 192 31 128 163 
6 11 96 58 34 83 149 15 207 156 102 131 27 
7 11 126 194 93 13 117 108 192 142 47 197 24 
8 11 167 38 171 193 130 173 154 97 68 74 135 
9 11 91 127 175 52 163 121 114 138 80 125 147 
10 11 5 61 44 197 117 125 192 94 31 24 128 
11 11 119 81 205 144 199 70 187 202 209 87 152 
12 11 29 116 154 38 37 173 167 203 8 186 180 
13 11 126 7 93 194 108 142 47 117 192 24 197 
14 11 115 136 63 90 3 146 118 65 114 140 124 
15 11 45 34 50 27 71 131 6 157 101 58 149 
16 11 40 36 26 82 113 123 182 143 107 189 148 
17 11 132 66 184 46 191 133 19 69 35 176 51 
18 11 166 28 177 100 157 32 131 201 68 27 71 
19 11 69 133 66 132 46 17 178 184 129 191 51 
20 11 22 195 161 169 88 77 53 56 165 49 39 
21 11 150 59 188 64 54 137 72 85 79 78 153 
22 11 195 20 161 169 49 53 88 39 77 165 56 
23 11 181 139 53 122 134 169 161 209 49 187 60 
24 11 192 159 95 172 47 117 33 31 86 194 93 
25 11 158 190 86 183 110 198 62 172 2 33 159 
26 11 82 36 16 40 113 123 182 143 107 189 148 
27 11 50 71 157 45 131 15 101 34 102 149 206 
28 11 100 32 18 68 166 193 171 130 65 102 131 
29 11 116 12 37 154 203 186 180 135 38 155 167 
30 11 104 55 73 48 99 204 85 174 200 43 64 
31 11 125 163 198 159 24 172 52 86 192 121 5 
32 11 68 28 130 65 193 171 100 74 124 166 136 
33 11 95 110 172 159 86 190 158 24 47 25 198 
34 11 149 15 131 6 207 27 102 50 45 96 58 
35 11 176 191 51 184 46 132 89 17 133 39 69 
36 11 26 82 16 40 113 123 182 143 107 189 148 
37 11 116 180 29 186 154 155 203 12 135 151 185 
38 11 167 173 8 97 12 154 75 171 193 29 109 
39 11 89 51 162 22 176 57 195 20 200 35 48 
40 11 16 36 113 82 26 123 189 182 143 107 148 
41 11 179 120 106 79 54 170 76 59 137 188 64 
42 11 185 151 196 141 67 155 140 2 180 135 118 
43 11 206 101 177 201 71 157 99 104 30 50 27 
44 11 61 5 10 197 117 128 94 125 192 4 168 
45 11 50 27 71 15 101 157 131 34 206 153 43 
46 11 184 132 17 133 191 35 176 69 51 66 19 
47 11 108 142 95 93 194 24 192 33 7 159 126 
48 11 55 73 200 30 104 162 204 57 174 106 111 
49 11 169 161 195 22 181 187 53 70 199 23 20 
50 11 27 45 71 157 101 15 131 34 206 43 177 
51 11 176 89 35 46 39 129 178 133 184 191 69 
52 11 121 163 9 114 62 183 91 31 198 125 3 
53 11 181 23 169 161 134 139 49 77 195 60 20 
54 11 137 64 79 21 59 85 188 150 106 99 72 
55 11 73 48 30 104 200 204 174 162 57 85 99 
56 11 165 77 147 60 88 80 138 164 134 20 53 
57 11 174 204 48 88 55 39 162 200 104 73 20 
58 11 83 6 96 34 15 148 107 143 182 208 149 
59 11 188 150 21 78 54 64 79 137 72 112 76 
60 11 165 77 134 56 147 80 138 175 53 88 127 
61 11 44 10 5 197 117 128 94 125 192 4 7 
62 11 183 84 198 121 52 158 25 3 86 190 172 
63 11 118 90 140 14 136 115 3 124 141 65 74 
64 11 137 54 79 21 85 59 150 188 99 106 72 
65 11 136 115 32 124 74 90 130 14 68 28 171 
66 11 17 132 184 19 46 133 191 69 35 176 178 
67 11 196 140 2 118 84 141 42 63 3 185 25 
68 11 193 171 32 130 28 100 74 65 124 166 18 
69 11 133 19 178 129 46 132 17 184 66 51 89 
70 11 199 187 49 209 169 11 161 119 181 23 81 
71 11 101 50 157 27 45 206 43 131 177 15 153 
72 11 150 153 21 78 188 59 85 112 64 99 54 
73 11 55 48 200 30 104 162 204 106 174 85 137 
74 11 124 130 171 65 90 32 136 193 68 63 115 
75 11 109 97 207 102 149 156 167 193 100 171 68 
76 11 98 112 188 59 78 41 150 179 21 79 54 
77 11 165 56 60 147 80 88 134 138 53 20 164 
78 11 112 188 150 59 72 21 98 76 113 153 54 
79 11 54 137 64 21 106 59 188 85 150 179 41 
80 11 138 147 60 56 165 175 77 127 164 134 88 
81 11 119 205 11 144 202 199 70 187 209 87 49 
82 11 26 36 40 16 113 123 182 189 143 112 107 
83 11 58 6 148 96 107 143 182 15 208 34 123 
84 11 3 62 183 140 118 67 2 121 25 158 63 
85 11 99 64 137 21 54 79 30 153 150 72 59 
86 11 172 159 198 33 158 190 25 95 110 183 24 
87 11 152 209 122 4 139 187 23 128 11 168 94 
88 11 164 56 77 165 20 147 80 60 22 57 138 
89 11 51 129 176 39 178 162 111 35 170 133 46 
90 11 63 124 136 118 74 14 65 115 140 141 130 
91 11 9 127 175 163 52 121 138 114 80 125 60 
92 11 201 103 174 204 177 105 166 164 43 18 104 
93 11 194 7 126 108 47 142 13 192 117 24 95 
94 11 4 168 128 5 44 61 122 10 152 125 139 
95 11 33 47 110 24 172 159 142 108 86 192 93 
96 11 6 58 156 34 83 149 207 15 102 109 131 
97 11 75 167 173 38 109 156 8 207 102 193 149 
98 11 76 112 78 188 59 113 150 21 72 40 82 
99 11 85 30 153 206 64 21 137 43 104 54 101 
100 11 28 68 18 32 166 102 193 131 109 171 207 
101 11 71 206 157 43 50 45 27 177 153 99 15 
102 11 207 149 109 131 75 34 100 27 28 157 18 
103 11 164 105 92 88 147 138 80 174 56 204 165 
104 11 30 55 204 73 48 174 99 201 200 43 57 
105 11 103 146 164 138 80 147 127 92 175 56 114 
106 11 111 170 79 54 137 179 64 200 41 73 120 
107 11 148 182 143 123 189 208 16 83 40 113 58 
108 11 142 47 93 194 95 7 13 126 192 24 33 
109 11 75 207 102 149 97 100 156 131 193 68 34 
110 11 33 190 95 158 25 172 86 159 47 198 24 
111 11 170 129 106 162 178 200 89 73 48 55 179 
112 11 78 98 76 188 59 150 113 72 21 40 189 
113 11 40 189 16 123 112 36 182 82 208 143 26 
114 11 121 146 52 9 3 14 91 127 105 62 84 
115 11 136 14 65 90 146 63 124 32 74 118 3 
116 11 29 37 12 154 186 180 203 155 135 38 8 
117 11 192 197 10 7 194 24 93 5 126 61 44 
118 11 63 140 90 3 14 84 67 141 136 196 115 
119 11 11 81 205 144 199 70 187 202 209 87 152 
120 11 41 179 106 170 79 111 54 76 137 59 64 
121 11 52 114 62 183 163 9 91 3 198 31 84 
122 11 139 23 4 168 181 134 209 53 152 94 87 
123 11 182 143 148 189 107 208 16 113 40 36 83 
124 11 74 90 130 136 65 171 32 63 193 115 68 
125 11 163 31 5 10 52 91 9 44 61 198 24 
126 11 7 194 93 13 117 108 192 197 142 47 24 
127 11 175 138 91 9 80 147 60 105 165 56 77 
128 11 94 44 61 4 152 5 197 10 87 168 122 
129 11 178 170 111 89 69 133 51 162 176 19 46 
130 11 171 193 68 74 32 124 65 8 28 100 136 
131 11 27 102 34 149 207 50 157 71 15 45 100 
132 11 17 184 46 66 191 133 19 69 35 176 51 
133 11 69 19 46 132 178 184 129 17 66 51 176 
134 11 60 53 77 165 139 23 181 56 122 147 80 
135 11 154 141 37 8 124 185 74 116 155 180 90 
136 11 115 65 90 14 124 63 74 32 118 130 146 
137 11 64 54 79 21 85 59 188 150 106 99 73 
138 11 80 147 175 60 127 56 165 77 164 134 88 
139 11 23 122 181 134 53 209 168 4 60 169 161 
140 11 118 67 63 196 84 3 141 90 2 14 62 
141 11 185 140 196 118 42 135 63 90 67 151 124 
142 11 108 47 93 194 95 13 7 24 126 192 33 
143 11 182 123 148 107 189 208 16 113 40 83 36 
144 11 205 81 202 119 11 145 199 70 160 187 191 
145 11 160 202 144 205 191 17 81 66 184 132 119 
146 11 114 105 14 115 136 127 103 3 65 121 9 
147 11 80 138 56 165 60 77 164 175 88 127 134 
148 11 143 107 182 123 189 208 83 16 113 58 40 
149 11 207 102 34 131 109 75 6 96 27 156 15 
150 11 21 72 59 188 78 64 54 137 153 85 79 
151 11 185 155 42 180 141 37 135 196 186 67 116 
152 11 87 209 4 122 139 168 94 128 23 187 181 
153 11 72 99 150 21 85 101 45 206 71 64 78 
154 11 135 116 37 29 12 8 38 167 180 155 173 
155 11 180 151 37 185 186 42 116 135 203 154 141 
156 11 96 75 97 109 207 6 149 102 34 173 58 
157 11 71 27 50 101 177 45 131 206 43 18 15 
158 11 25 190 86 172 198 110 183 33 62 159 2 
159 11 172 86 198 33 24 95 31 158 190 110 192 
160 11 145 202 144 17 66 191 205 132 184 81 46 
161 11 169 49 195 53 22 181 20 23 187 134 70 
162 11 200 48 111 73 89 39 55 170 57 129 106 
163 11 125 31 52 9 91 121 198 5 62 183 10 
164 11 88 103 147 56 80 138 165 77 105 60 20 
165 11 77 56 60 147 80 138 88 134 164 53 20 
166 11 18 28 177 100 32 157 201 68 92 43 65 
167 11 38 173 8 97 75 12 154 171 193 109 130 
168 11 4 94 122 139 134 152 23 91 175 181 5 
169 11 161 49 195 53 22 181 20 23 187 134 70 
170 11 111 129 106 178 162 200 89 120 179 41 69 
171 11 193 130 68 32 74 8 124 28 100 65 75 
172 11 159 86 33 198 95 158 24 190 110 25 31 
173 11 38 167 97 8 12 75 154 156 109 29 171 
174 11 204 57 104 55 30 48 201 92 73 103 164 
175 11 127 138 80 91 147 9 60 165 56 134 77 
176 11 51 35 89 46 184 191 39 133 132 129 178 
177 11 43 201 18 157 206 166 101 71 92 27 50 
178 11 129 69 133 170 111 89 19 51 46 176 162 
179 11 41 120 106 79 54 170 137 59 76 188 64 
180 11 155 37 186 116 203 151 29 154 185 135 12 
181 11 23 53 139 169 161 134 49 122 187 209 195 
182 11 143 123 148 107 189 208 16 113 40 83 36 
183 11 62 198 84 158 25 121 52 86 3 190 172 
184 11 132 46 191 17 35 66 133 176 51 69 19 
185 11 151 42 141 155 196 135 67 180 140 37 118 
186 11 203 180 37 116 29 155 12 154 151 135 185 
187 11 70 199 49 209 181 169 23 161 11 53 119 
188 11 59 150 21 78 54 72 64 79 137 112 76 
189 11 208 123 143 182 113 148 107 40 16 72 78 
190 11 158 25 110 86 33 172 159 198 183 62 2 
191 11 184 35 46 132 17 176 66 51 133 202 69 
192 11 24 117 194 93 47 7 159 95 10 108 31 
193 11 171 68 130 32 74 100 28 8 124 75 109 
194 11 93 7 126 108 47 13 142 192 117 24 95 
195 11 22 161 169 20 49 53 181 39 77 23 88 
196 11 67 140 2 42 141 185 118 84 63 151 3 
197 11 61 44 10 117 5 7 126 192 194 128 93 
198 11 86 172 159 183 62 31 158 25 190 33 52 
199 11 70 187 49 11 119 209 81 169 161 181 205 
200 11 48 162 73 55 111 30 106 104 57 170 39 
201 11 177 43 92 206 204 174 104 166 18 30 101 
202 11 144 205 81 145 119 191 11 160 199 184 35 
203 11 186 116 37 29 180 12 155 154 151 135 185 
204 11 174 104 57 30 55 48 201 73 92 200 103 
205 11 81 144 119 11 202 199 70 187 145 209 191 
206 11 43 101 71 177 157 99 201 50 45 153 27 
207 11 149 102 109 131 75 34 100 156 6 96 27 
208 11 189 143 123 182 148 113 107 15 72 83 153 
209 11 87 187 152 23 139 122 181 70 199 53 49 
DEPOT_SECTION
   1
   -1
EOF
