NAME :  X-n200-kX-w39-c9.cctp
COMMENT : 	Adapted by Maziero, Usberti and Cavellucci from the Uchoa, Pecin, Pessoa, Poggi, Subramanian, and Vidal (2013)
TYPE :  CCTP
DIMENSION :    173
EDGE_WEIGHT_TYPE : 	EUC_2D	
CAPACITY : 	402
VERTICES_WITHIN_COVERAGE :  9
VERTICES_WITH_DEMAND : 	39
NODE_COORD_SECTION
1 957 135
2 149 141
3 1 96
4 228 268
5 781 529
6 867 797
7 109 53
8 13 449
9 133 293
10 259 172
11 908 678
12 930 867
13 903 766
14 143 263
15 735 501
16 259 253
17 59 62
18 737 464
19 925 587
20 16 404
21 893 720
22 131 188
23 226 228
24 285 68
25 113 323
26 67 307
27 797 381
28 804 573
29 892 838
30 307 141
31 40 347
32 933 708
33 906 725
34 242 231
35 310 255
36 183 308
37 57 153
38 122 254
39 1 437
40 83 548
41 872 427
42 118 317
43 54 335
44 180 118
45 875 774
46 792 774
47 92 166
48 890 821
49 184 6
50 189 299
51 230 234
52 61 728
53 147 501
54 756 455
55 121 248
56 747 756
57 890 825
58 275 63
59 67 131
60 96 15
61 893 822
62 121 170
63 770 580
64 122 320
65 101 98
66 824 813
67 256 265
68 726 553
69 864 742
70 149 74
71 872 329
72 847 817
73 864 575
74 976 818
75 193 126
76 79 88
77 907 842
78 808 590
79 146 120
80 66 480
81 824 634
82 9 421
83 152 157
84 318 223
85 853 307
86 184 277
87 183 236
88 93 217
89 80 110
90 20 67
91 165 63
92 62 410
93 176 261
94 223 301
95 830 608
96 7 164
97 188 108
98 770 537
99 168 99
100 641 321
101 174 165
102 886 816
103 53 303
104 214 261
105 104 44
106 393 114
107 222 51
108 894 577
109 35 285
110 93 509
111 127 150
112 873 468
113 60 105
114 133 232
115 147 252
116 778 547
117 46 419
118 82 381
119 83 80
120 43 466
121 337 216
122 83 205
123 9 55
124 127 123
125 72 189
126 771 491
127 73 201
128 181 188
129 727 549
130 26 332
131 17 212
132 59 359
133 798 525
134 875 568
135 241 285
136 45 86
137 446 310
138 128 366
139 163 168
140 322 272
141 958 864
142 754 814
143 136 184
144 111 119
145 120 300
146 686 372
147 32 68
148 224 70
149 113 76
150 228 73
151 216 34
152 157 167
153 84 263
154 330 253
155 903 822
156 900 858
157 15 37
158 79 523
159 207 329
160 130 274
161 870 860
162 791 305
163 13 535
164 800 823
165 224 244
166 580 504
167 3 172
168 62 499
169 791 692
170 300 26
171 52 204
172 163 305
173 135 270
DEMAND_SECTION
2 83
3 52
4 73
5 70
6 86
7 51
8 74
9 84
10 52
11 93
12 91
13 89
14 64
15 75
16 64
17 61
18 2
19 86
20 95
21 100
22 73
23 61
24 83
25 60
26 85
27 48
28 66
29 70
30 91
31 54
32 55
33 64
34 56
35 62
36 89
37 100
38 96
39 67
40 21
COVERAGE_SECTION
2 9 83 79 111 152 124 139 101 44 62 
3 9 90 123 147 136 113 157 17 96 59 
4 9 104 135 165 67 94 16 51 23 34 
5 9 98 133 116 126 28 63 15 129 68 
6 9 45 102 72 48 57 61 155 66 13 
7 9 105 149 119 60 70 65 76 17 91 
8 8 39 82 120 20 117 80 92 168 
9 9 145 160 173 42 64 14 172 25 38 
10 9 30 34 23 51 84 75 128 165 16 
11 9 32 21 33 69 13 19 81 45 108 
12 9 141 156 77 29 155 57 61 161 48 
13 9 45 33 69 21 6 102 155 48 61 
14 9 173 115 160 38 55 9 93 114 86 
15 9 18 126 129 98 54 68 5 116 133 
16 9 67 34 4 51 165 135 23 104 35 
17 9 136 147 119 76 90 113 105 123 7 
18 9 54 15 126 5 98 129 133 68 116 
19 9 108 134 73 11 95 81 78 32 28 
20 9 82 117 39 8 92 31 132 120 118 
21 9 33 69 32 11 13 45 6 102 48 
22 9 143 62 152 83 111 139 114 47 88 
23 9 51 34 165 104 4 16 87 67 135 
24 9 58 170 150 148 107 30 151 97 10 
25 9 42 64 145 9 138 26 160 172 173 
26 9 103 43 109 153 31 130 25 42 132 
27 9 162 54 41 71 85 18 146 126 112 
28 9 78 63 116 95 133 5 98 73 81 
29 9 57 61 77 48 155 156 102 161 6 
30 9 10 24 121 84 58 106 150 148 34 
31 8 43 130 132 103 26 118 20 109 
32 9 33 11 21 13 69 45 6 74 102 
33 9 21 32 13 69 11 45 6 102 48 
34 9 51 23 165 16 67 4 104 135 87 
35 9 154 140 84 121 16 67 34 135 4 
36 9 50 172 86 159 94 93 9 104 4 
37 9 59 47 125 113 89 96 127 171 167 
38 9 55 173 160 14 114 115 153 9 145 
39 8 8 82 20 117 120 92 80 168 
40 8 158 110 168 80 163 53 120 8 
41 9 112 27 71 54 126 85 133 5 18 
42 9 64 25 145 9 160 172 138 173 26 
43 8 31 132 130 26 103 109 118 25 
44 9 97 75 99 79 2 101 83 124 139 
45 9 6 13 69 102 48 61 72 57 155 
46 9 56 66 164 142 72 6 69 169 45 
47 9 62 125 37 111 122 127 59 22 143 
48 9 61 57 102 155 29 77 6 156 72 
49 9 151 107 91 148 70 150 60 7 105 
50 9 36 86 172 94 159 93 104 4 135 
51 9 23 34 165 104 4 16 67 87 135 
52 9 40 163 158 110 168 53 80 120 8 
53 5 110 158 40 80 168 
54 9 18 126 15 5 133 98 27 116 129 
55 9 38 114 115 173 14 160 153 88 9 
56 8 46 142 169 164 66 72 69 6 
57 9 48 61 102 29 155 77 156 6 161 
58 9 24 170 150 148 107 151 30 97 75 
59 9 37 89 113 47 76 144 65 136 119 
60 9 105 7 17 149 119 76 70 65 147 
61 9 48 57 102 155 29 77 6 156 161 
62 9 22 111 143 47 83 152 2 139 124 
63 8 116 28 78 98 5 68 129 133 
64 9 42 25 145 9 172 138 160 173 26 
65 9 144 76 89 119 149 124 113 7 59 
66 9 72 164 6 46 102 45 48 161 57 
67 9 16 135 4 34 165 51 104 23 94 
68 7 129 98 63 116 15 5 126 
69 9 45 21 33 13 6 32 72 102 11 
70 9 91 99 149 7 79 97 44 65 105 
71 9 85 162 27 41 112 54 18 126 146 
72 9 66 6 102 48 57 61 164 161 29 
73 9 134 108 95 78 28 19 81 133 116 
74 9 141 12 77 155 61 29 48 57 156 
75 9 44 97 99 101 2 79 83 139 152 
76 9 119 89 65 113 17 136 149 59 144 
77 9 29 156 155 57 61 48 102 12 161 
78 9 28 95 63 81 116 73 98 133 5 
79 9 124 2 99 44 144 111 83 97 70 
80 7 168 120 110 158 8 117 40 
81 9 95 78 28 169 73 63 134 108 11 
82 9 20 39 8 117 92 120 31 132 80 
83 9 152 2 139 101 111 143 62 22 79 
84 9 121 154 35 140 16 67 34 10 30 
85 9 71 162 27 41 112 54 146 18 126 
86 9 93 50 36 104 172 87 14 4 115 
87 9 93 115 104 86 165 23 51 14 128 
88 8 122 127 125 55 114 171 38 153 
89 9 113 76 65 59 119 144 136 149 37 
90 9 147 123 157 136 3 17 113 76 119 
91 9 70 99 97 149 7 44 107 148 151 
92 5 117 118 20 132 82 
93 9 86 87 115 14 104 50 173 172 36 
94 8 135 159 4 50 36 104 86 67 
95 9 81 78 28 73 134 63 108 116 133 
96 9 167 131 37 171 3 59 125 127 113 
97 9 44 75 99 79 2 91 70 148 150 
98 9 116 5 133 63 129 126 68 15 28 
99 9 44 97 79 70 91 75 2 124 83 
100 9 146 162 27 18 54 166 137 15 85 
101 9 139 152 83 128 2 143 75 44 22 
102 9 48 61 57 155 29 6 77 72 45 
103 8 26 109 43 130 31 153 132 25 
104 9 4 165 51 86 23 135 93 87 34 
105 9 7 60 149 119 17 76 65 70 91 
106 9 30 121 24 170 58 84 10 154 35 
107 9 151 148 150 58 91 49 24 97 99 
108 9 134 73 19 95 78 28 81 11 133 
109 8 103 26 130 43 153 31 131 132 
110 7 158 168 40 80 53 120 163 
111 9 62 2 83 124 152 143 144 79 22 
112 9 41 133 134 126 73 5 108 27 54 
113 9 89 136 76 59 119 65 17 147 37 
114 9 55 115 38 14 173 160 88 22 143 
115 9 14 173 114 38 55 160 93 87 9 
116 9 98 5 133 63 28 129 68 78 126 
117 7 92 20 82 8 120 39 118 
118 5 132 92 138 117 31 
119 9 76 65 17 89 149 113 7 136 105 
120 8 80 8 168 117 39 82 92 110 
121 9 84 154 35 140 30 16 10 67 34 
122 8 127 88 125 171 47 22 62 55 
123 9 90 157 147 3 136 17 113 76 119 
124 9 144 79 111 2 65 83 62 99 89 
125 8 127 122 171 47 88 37 62 59 
126 9 15 5 54 18 133 98 116 129 68 
127 8 122 125 171 88 47 37 62 131 
128 9 101 139 152 83 143 87 22 2 23 
129 7 68 98 15 116 63 5 126 
130 8 31 43 103 132 26 109 20 118 
131 8 171 167 96 127 125 122 37 109 
132 7 31 43 118 130 92 26 103 
133 9 5 98 116 126 28 63 78 15 129 
134 9 73 108 19 95 28 78 81 133 116 
135 8 4 94 67 104 16 165 51 34 
136 9 147 113 17 90 76 119 89 3 123 
137 6 154 140 121 35 84 16 
138 4 25 64 118 42 
139 9 152 101 83 128 2 143 22 111 62 
140 9 35 154 84 121 16 67 135 34 4 
141 9 12 74 77 156 155 29 61 57 48 
142 9 164 46 56 66 72 6 161 45 169 
143 9 22 62 152 83 139 111 101 2 128 
144 9 124 65 89 79 111 149 2 76 59 
145 9 9 42 64 25 160 173 172 14 38 
146 9 100 18 54 27 162 15 126 166 85 
147 9 90 136 123 17 157 3 113 76 119 
148 9 150 107 151 58 97 91 24 99 75 
149 9 7 65 119 105 70 76 144 89 124 
150 9 148 107 151 58 97 24 75 91 99 
151 9 107 148 150 49 91 58 24 70 97 
152 9 139 83 101 2 143 128 22 111 62 
153 8 38 55 26 88 160 103 173 145 
154 9 35 140 84 121 16 67 34 135 51 
155 9 61 48 57 102 29 77 156 6 161 
156 9 77 29 161 12 57 155 61 48 102 
157 9 123 90 147 17 136 3 119 76 113 
158 8 110 40 168 80 120 163 53 8 
159 3 36 94 50 
160 9 173 14 9 38 55 115 145 114 42 
161 9 156 29 57 77 48 61 102 72 155 
162 9 85 27 71 146 41 100 54 18 112 
163 9 168 158 40 120 80 110 8 39 82 
164 9 66 72 142 46 6 161 56 102 45 
165 9 51 23 104 34 4 16 67 87 135 
166 6 68 129 15 18 146 54 
167 9 96 131 37 171 125 3 59 127 122 
168 8 80 158 110 120 40 163 8 117 
169 7 81 56 46 69 95 78 21 
170 9 24 58 107 151 150 148 30 49 106 
171 8 127 125 122 131 88 37 47 167 
172 9 36 50 9 86 145 64 160 173 93 
173 9 160 14 38 115 9 55 145 114 93 
DEPOT_SECTION
   1
   -1
EOF
