NAME :  X-n275-kX-w109-c7.cctp
COMMENT : 	Adapted by Maziero, Usberti and Cavellucci from the Uchoa, Pecin, Pessoa, Poggi, Subramanian, and Vidal (2013)
TYPE :  CCTP
DIMENSION :    269
EDGE_WEIGHT_TYPE : 	EUC_2D	
CAPACITY : 	10
VERTICES_WITHIN_COVERAGE :  7
VERTICES_WITH_DEMAND : 	109
NODE_COORD_SECTION
1 409 418
2 378 220
3 469 585
4 91 695
5 351 130
6 424 101
7 70 693
8 324 133
9 367 215
10 218 906
11 90 688
12 417 223
13 42 693
14 134 482
15 594 488
16 431 269
17 383 606
18 100 597
19 85 697
20 378 218
21 196 640
22 213 635
23 520 537
24 509 542
25 388 549
26 476 583
27 409 565
28 155 828
29 60 690
30 415 269
31 127 578
32 363 304
33 392 329
34 424 660
35 505 683
36 372 120
37 438 620
38 578 421
39 116 716
40 107 719
41 117 677
42 324 275
43 246 789
44 363 223
45 139 682
46 376 197
47 397 52
48 107 727
49 64 671
50 369 275
51 96 659
52 129 627
53 45 581
54 403 585
55 70 731
56 528 736
57 379 320
58 424 608
59 436 607
60 54 687
61 342 544
62 595 525
63 508 336
64 338 90
65 510 165
66 269 820
67 18 776
68 316 293
69 575 485
70 335 179
71 1 727
72 571 436
73 15 696
74 227 760
75 324 538
76 523 519
77 620 500
78 217 427
79 53 809
80 206 622
81 602 506
82 48 771
83 486 347
84 100 740
85 161 660
86 528 559
87 386 460
88 330 295
89 225 345
90 301 729
91 334 243
92 99 819
93 219 610
94 70 560
95 334 161
96 589 420
97 428 605
98 478 509
99 76 753
100 464 167
101 18 327
102 451 63
103 406 145
104 431 608
105 213 707
106 95 635
107 550 573
108 172 811
109 85 789
110 119 788
111 348 210
112 571 227
113 364 347
114 591 428
115 436 611
116 471 928
117 416 528
118 504 383
119 217 255
120 255 720
121 100 830
122 82 693
123 290 209
124 522 281
125 426 244
126 529 618
127 638 99
128 153 648
129 124 719
130 419 70
131 12 653
132 433 169
133 370 686
134 811 620
135 160 691
136 204 673
137 57 666
138 627 541
139 332 114
140 497 575
141 469 605
142 49 648
143 547 588
144 305 746
145 192 805
146 370 621
147 89 757
148 287 223
149 380 129
150 286 386
151 23 745
152 21 738
153 441 683
154 402 577
155 255 442
156 260 288
157 322 693
158 502 313
159 431 473
160 106 701
161 390 398
162 443 175
163 335 272
164 390 225
165 194 867
166 170 621
167 311 241
168 358 323
169 427 911
170 555 239
171 55 781
172 374 566
173 388 263
174 352 701
175 82 671
176 451 565
177 91 833
178 292 609
179 466 592
180 561 488
181 131 779
182 186 699
183 567 525
184 635 481
185 404 512
186 459 694
187 456 399
188 91 725
189 483 196
190 317 460
191 128 824
192 481 179
193 517 442
194 97 705
195 263 806
196 381 215
197 386 164
198 497 137
199 311 737
200 100 611
201 414 525
202 79 643
203 284 318
204 155 706
205 426 661
206 297 164
207 454 197
208 499 697
209 480 310
210 145 692
211 390 236
212 350 333
213 605 460
214 709 391
215 426 192
216 98 767
217 141 672
218 399 684
219 107 853
220 56 774
221 309 266
222 376 510
223 205 771
224 105 676
225 682 508
226 256 311
227 59 713
228 307 278
229 735 524
230 566 711
231 320 437
232 71 844
233 18 737
234 430 559
235 85 479
236 376 276
237 171 400
238 430 237
239 201 588
240 478 593
241 291 132
242 464 582
243 669 494
244 562 733
245 298 173
246 438 567
247 402 206
248 150 291
249 364 561
250 415 580
251 87 693
252 502 751
253 132 831
254 574 481
255 19 707
256 486 590
257 399 205
258 165 712
259 63 746
260 50 740
261 400 617
262 421 162
263 497 582
264 260 817
265 40 768
266 58 721
267 332 614
268 190 878
269 346 218
DEMAND_SECTION
2 1
3 1
4 1
5 1
6 1
7 1
8 1
9 1
10 1
11 1
12 1
13 1
14 1
15 1
16 1
17 1
18 1
19 1
20 1
21 1
22 1
23 1
24 1
25 1
26 1
27 1
28 1
29 1
30 1
31 1
32 1
33 1
34 1
35 1
36 1
37 1
38 1
39 1
40 1
41 1
42 1
43 1
44 1
45 1
46 1
47 1
48 1
49 1
50 1
51 1
52 1
53 1
54 1
55 1
56 1
57 1
58 1
59 1
60 1
61 1
62 1
63 1
64 1
65 1
66 1
67 1
68 1
69 1
70 1
71 1
72 1
73 1
74 1
75 1
76 1
77 1
78 1
79 1
80 1
81 1
82 1
83 1
84 1
85 1
86 1
87 1
88 1
89 1
90 1
91 1
92 1
93 1
94 1
95 1
96 1
97 1
98 1
99 1
100 1
101 1
102 1
103 1
104 1
105 1
106 1
107 1
108 1
109 1
110 1
COVERAGE_SECTION
2 7 20 196 9 164 44 211 46 
3 7 242 26 179 240 256 141 176 
4 7 251 19 11 122 194 160 7 
5 7 36 139 8 149 95 64 197 
6 7 130 102 103 149 36 47 262 
7 7 29 122 19 60 251 4 11 
8 7 139 5 95 241 206 64 70 
9 7 44 20 2 196 46 111 269 
10 7 268 165 264 28 66 145 108 
11 7 251 4 122 19 194 175 224 
12 7 238 125 247 257 164 211 215 
13 7 60 29 227 73 255 7 49 
14 7 235 237 31 78 94 18 239 
15 7 69 81 254 77 213 180 62 
16 7 30 125 238 173 12 211 236 
17 7 146 261 54 154 58 172 250 
18 7 200 31 106 52 94 202 53 
19 7 251 122 4 11 194 7 160 
20 7 2 196 9 164 44 46 211 
21 7 22 80 166 136 93 85 128 
22 7 80 21 93 136 166 239 85 
23 7 24 76 86 140 107 183 98 
24 7 23 86 76 140 263 98 107 
25 7 172 27 249 154 117 201 54 
26 7 3 240 242 256 179 263 140 
27 7 154 250 54 234 25 246 172 
28 7 253 108 191 145 110 219 121 
29 7 60 7 13 49 122 227 137 
30 7 16 125 173 238 236 211 12 
31 7 18 200 52 94 166 106 128 
32 7 168 57 50 236 212 88 33 
33 7 57 113 168 32 212 236 50 
34 7 205 153 218 37 186 261 115 
35 7 208 186 56 153 230 252 126 
36 7 149 5 139 103 64 197 8 
37 7 115 59 104 58 97 141 261 
38 7 96 114 72 213 254 69 193 
39 7 40 129 48 160 194 188 84 
40 7 48 39 129 188 194 160 84 
41 7 224 45 217 160 51 11 4 
42 7 163 221 228 68 88 91 167 
43 7 195 264 74 66 223 145 120 
44 7 9 2 20 269 111 196 164 
45 7 217 210 41 135 204 85 224 
46 7 196 9 20 2 257 247 44 
47 7 130 102 6 64 36 149 139 
48 7 40 39 84 188 129 194 160 
49 7 137 175 29 60 7 142 122 
50 7 236 173 32 163 88 211 42 
51 7 175 224 202 106 41 11 49 
52 7 128 200 106 166 18 51 85 
53 7 94 18 200 142 202 106 131 
54 7 154 250 27 17 58 97 261 
55 7 266 259 227 188 260 99 84 
56 7 252 244 230 208 35 186 153 
57 7 33 168 32 113 212 236 50 
58 7 97 104 59 115 37 261 250 
59 7 115 104 97 58 37 141 179 
60 7 29 13 7 49 137 227 122 
61 7 75 249 172 25 222 154 27 
62 7 81 183 77 138 15 69 254 
63 6 158 83 209 118 124 187 
64 7 139 5 8 36 149 241 47 
65 7 198 192 189 100 207 162 132 
66 7 264 195 43 74 145 223 144 
67 7 265 82 151 171 152 220 233 
68 7 88 228 42 163 221 203 32 
69 7 254 180 15 81 213 183 62 
70 7 95 111 245 206 269 46 8 
71 7 233 152 255 151 73 260 67 
72 7 38 114 96 213 254 69 180 
73 7 255 13 71 60 233 152 131 
74 7 223 43 120 105 145 195 264 
75 7 61 249 172 222 25 267 178 
76 7 23 24 86 183 98 180 107 
77 7 81 184 15 62 138 213 69 
78 7 155 237 150 89 14 231 190 
79 7 171 220 82 109 232 265 177 
80 7 22 93 21 239 166 136 85 
81 7 77 15 62 69 254 183 184 
82 7 220 265 171 259 67 260 99 
83 7 63 209 158 118 187 124 16 
84 7 48 188 147 40 99 216 39 
85 7 128 217 45 135 210 21 166 
86 7 23 24 107 140 143 263 76 
87 7 159 222 185 161 190 231 201 
88 7 68 42 163 228 32 221 168 
89 7 226 203 156 150 237 78 119 
90 7 199 144 157 120 174 74 43 
91 7 167 269 163 42 221 44 111 
92 7 121 177 191 109 219 253 110 
93 7 80 22 239 21 166 136 178 
94 7 53 18 200 31 106 235 202 
95 7 70 8 5 206 245 139 111 
96 7 114 38 72 213 254 69 15 
97 7 104 58 59 115 37 250 261 
98 7 24 76 23 159 176 117 201 
99 7 147 259 55 216 84 220 260 
100 7 192 162 132 207 189 262 198 
101 6 248 235 237 14 89 119 
102 7 130 6 47 198 103 36 149 
103 7 262 197 149 132 36 6 162 
104 7 97 59 115 58 37 250 261 
105 7 182 136 120 258 74 135 204 
106 7 202 51 200 52 18 175 224 
107 7 143 86 23 126 24 183 140 
108 7 145 28 253 191 181 223 110 
109 7 216 171 147 92 220 110 99 
110 7 181 216 109 92 191 147 253 
111 7 269 9 44 20 46 2 196 
112 6 170 124 65 189 192 158 
113 7 212 168 57 33 32 161 88 
114 7 96 38 72 213 254 69 15 
115 7 59 104 37 97 58 141 179 
116 7 169 252 56 244 66 208 186 
117 7 201 185 234 25 27 222 246 
118 7 83 63 187 193 158 209 38 
119 6 156 226 248 148 123 89 
120 7 105 90 74 144 199 136 43 
121 7 177 92 219 191 232 253 109 
122 7 19 251 4 11 7 194 29 
123 7 148 245 167 206 70 91 269 
124 6 158 209 170 63 112 83 
125 7 238 12 16 30 211 164 173 
126 7 143 263 107 256 140 240 86 
127 7 65 112 198 170 192 189 100 
128 7 85 217 52 166 45 21 135 
129 7 39 40 48 160 194 84 188 
130 7 47 6 102 36 149 103 64 
131 7 142 73 137 13 60 255 49 
132 7 162 262 215 100 207 103 197 
133 7 174 218 157 34 205 146 153 
134 6 229 225 243 138 184 77 
135 7 210 204 258 45 182 217 85 
136 7 182 21 105 22 85 135 80 
137 7 49 142 60 29 175 7 13 
138 7 62 77 81 184 15 183 243 
139 7 8 5 64 36 241 95 149 
140 7 263 256 26 240 3 242 24 
141 7 179 240 3 26 256 242 59 
142 7 137 49 202 131 60 175 29 
143 7 107 86 126 263 140 23 24 
144 7 199 90 120 157 174 43 195 
145 7 108 223 28 43 74 165 253 
146 7 17 261 267 54 154 172 58 
147 7 216 99 84 259 55 109 188 
148 7 123 167 221 91 245 228 269 
149 7 36 5 103 197 139 6 262 
150 5 231 155 203 89 78 
151 7 152 233 260 71 265 67 82 
152 7 233 151 71 260 255 265 67 
153 7 186 205 34 218 208 37 35 
154 7 54 250 27 172 25 234 17 
155 5 78 150 190 231 237 
156 7 226 203 228 119 221 68 42 
157 7 174 90 199 133 144 120 218 
158 6 209 63 83 124 118 16 
159 7 87 185 201 117 98 222 187 
160 7 194 4 39 40 11 19 251 
161 5 113 87 187 33 212 
162 7 132 100 215 207 262 192 189 
163 7 42 88 221 68 91 228 50 
164 7 211 2 196 20 247 257 9 
165 7 268 10 28 108 145 253 191 
166 7 21 128 80 85 52 22 239 
167 7 91 221 148 42 228 123 163 
168 7 212 32 57 113 33 88 50 
169 7 116 252 66 264 195 56 144 
170 6 112 124 189 65 158 192 
171 7 220 82 265 79 109 99 259 
172 7 249 25 154 27 54 61 17 
173 7 236 50 211 30 164 125 16 
174 7 133 157 218 199 90 144 146 
175 7 49 51 11 122 251 224 7 
176 7 246 242 234 3 26 179 240 
177 7 121 92 232 219 191 253 109 
178 7 267 93 75 146 61 22 80 
179 7 3 242 240 26 141 256 176 
180 7 69 254 15 183 81 76 62 
181 7 110 216 191 109 147 84 92 
182 7 258 135 105 136 204 210 85 
183 7 62 180 81 69 76 254 15 
184 7 77 243 213 81 15 225 62 
185 7 201 117 222 25 159 27 234 
186 7 153 208 35 205 34 218 252 
187 7 118 83 161 193 159 63 209 
188 7 48 40 84 194 55 39 160 
189 7 192 207 100 65 162 132 215 
190 5 231 155 87 222 75 
191 7 253 28 92 121 219 110 177 
192 7 189 100 65 207 162 198 132 
193 7 72 118 180 38 254 69 96 
194 7 160 4 19 251 40 11 122 
195 7 264 66 43 74 223 145 144 
196 7 20 2 164 9 46 44 257 
197 7 103 46 262 149 257 247 36 
198 7 65 100 192 189 162 132 207 
199 7 144 90 157 174 120 133 43 
200 7 18 106 52 202 31 51 94 
201 7 117 185 25 234 27 222 246 
202 7 106 51 175 142 49 137 200 
203 7 226 156 68 228 88 221 42 
204 7 258 135 210 45 182 129 217 
205 7 34 153 218 37 186 115 261 
206 7 245 241 95 8 70 123 148 
207 7 162 215 189 100 192 132 12 
208 7 35 186 56 252 153 230 244 
209 6 158 83 63 124 16 30 
210 7 45 135 204 217 258 41 129 
211 7 164 2 20 196 173 12 44 
212 7 168 113 32 57 33 88 68 
213 7 15 114 184 254 69 72 77 
214 7 243 184 225 96 114 213 38 
215 7 132 162 207 247 257 262 12 
216 7 147 99 109 84 110 181 48 
217 7 45 210 85 41 128 135 224 
218 7 133 34 205 153 174 186 261 
219 7 121 177 253 92 191 232 28 
220 7 171 82 265 99 259 109 79 
221 7 228 42 167 163 68 91 88 
222 7 185 25 201 117 61 87 249 
223 7 74 145 43 108 105 195 120 
224 7 41 11 51 4 175 160 251 
225 7 243 184 229 77 138 81 62 
226 7 156 203 89 228 68 119 221 
227 7 266 55 7 29 13 60 260 
228 7 221 42 68 88 163 167 91 
229 7 225 243 138 184 77 134 81 
230 7 244 56 35 208 252 126 186 
231 5 190 150 155 87 161 
232 7 177 121 219 92 79 109 191 
233 7 152 151 71 255 260 265 67 
234 7 246 27 176 250 154 117 54 
235 7 14 94 31 53 237 18 200 
236 7 50 173 32 30 163 211 57 
237 7 78 89 14 155 248 150 235 
238 7 125 12 16 30 211 164 247 
239 7 93 80 166 22 21 31 128 
240 7 256 26 3 179 141 242 263 
241 7 8 206 245 139 95 5 64 
242 7 3 179 26 240 176 256 141 
243 7 225 184 77 138 81 213 229 
244 7 230 56 252 208 35 186 126 
245 7 206 70 123 95 241 8 148 
246 7 234 176 250 27 242 3 154 
247 7 257 164 12 196 20 2 46 
248 6 119 89 226 156 237 101 
249 7 172 25 61 154 27 54 75 
250 7 54 154 27 234 246 97 58 
251 7 4 19 122 11 194 7 160 
252 7 56 208 244 35 186 230 153 
253 7 191 28 121 219 92 177 108 
254 7 69 180 15 213 81 72 183 
255 7 73 13 71 233 152 151 60 
256 7 240 26 263 3 140 179 141 
257 7 247 196 164 46 12 20 2 
258 7 204 135 182 210 45 129 217 
259 7 260 99 55 266 147 82 220 
260 7 259 266 55 151 227 99 152 
261 7 17 58 97 146 54 104 115 
262 7 132 103 162 215 197 100 207 
263 7 140 256 26 240 3 179 242 
264 7 66 195 43 74 145 223 165 
265 7 82 220 171 67 151 260 259 
266 7 227 55 260 259 7 29 13 
267 7 146 178 17 249 172 261 61 
268 7 165 10 28 108 145 253 191 
269 7 111 44 9 91 2 20 196 
DEPOT_SECTION
   1
   -1
EOF
