NAME :  X-n289-kX-w28-c11.cctp
COMMENT : 	Adapted by Maziero, Usberti and Cavellucci from the Uchoa, Pecin, Pessoa, Poggi, Subramanian, and Vidal (2013)
TYPE :  CCTP
DIMENSION :    162
EDGE_WEIGHT_TYPE : 	EUC_2D	
CAPACITY : 	267
VERTICES_WITHIN_COVERAGE :  11
VERTICES_WITH_DEMAND : 	28
NODE_COORD_SECTION
1 0 0
2 174 325
3 49 34
4 543 815
5 42 920
6 545 80
7 681 950
8 870 118
9 787 220
10 537 927
11 180 838
12 543 582
13 442 620
14 747 569
15 932 48
16 14 356
17 53 476
18 603 228
19 772 573
20 811 359
21 373 37
22 859 142
23 489 543
24 37 771
25 354 944
26 96 62
27 326 729
28 881 541
29 653 724
30 226 759
31 481 44
32 100 882
33 129 299
34 989 512
35 600 42
36 538 772
37 346 479
38 448 624
39 70 468
40 502 909
41 595 503
42 771 355
43 535 775
44 110 835
45 493 652
46 105 479
47 873 333
48 536 120
49 17 65
50 638 958
51 328 921
52 968 540
53 557 864
54 498 832
55 343 962
56 583 474
57 976 636
58 77 544
59 981 353
60 622 728
61 792 443
62 283 63
63 694 214
64 38 91
65 294 791
66 429 815
67 691 154
68 579 279
69 431 909
70 615 264
71 49 414
72 883 478
73 627 564
74 40 434
75 718 660
76 716 586
77 675 244
78 282 617
79 199 880
80 588 662
81 58 700
82 518 554
83 944 282
84 848 305
85 860 100
86 602 620
87 437 55
88 922 348
89 433 776
90 891 306
91 211 731
92 408 859
93 581 746
94 868 337
95 568 646
96 456 81
97 477 162
98 429 844
99 396 41
100 130 972
101 563 135
102 414 696
103 547 90
104 321 27
105 474 629
106 526 440
107 814 534
108 287 975
109 11 791
110 217 331
111 745 430
112 34 925
113 12 489
114 880 525
115 649 744
116 643 684
117 731 709
118 225 726
119 596 265
120 634 256
121 42 480
122 122 330
123 634 888
124 68 320
125 174 366
126 24 40
127 419 444
128 123 355
129 875 393
130 117 315
131 34 517
132 660 798
133 706 738
134 9 455
135 50 417
136 61 343
137 80 515
138 79 416
139 257 315
140 130 120
141 698 259
142 316 692
143 768 627
144 141 84
145 651 231
146 593 205
147 53 418
148 65 479
149 465 504
150 11 435
151 328 87
152 167 100
153 12 139
154 0 426
155 36 551
156 736 914
157 252 343
158 653 922
159 594 876
160 169 35
161 69 12
162 149 103
DEMAND_SECTION
2 73
3 71
4 59
5 29
6 19
7 79
8 27
9 13
10 77
11 21
12 99
13 24
14 71
15 38
16 59
17 56
18 41
19 87
20 28
21 81
22 18
23 49
24 28
25 35
26 86
27 40
28 89
29 75
COVERAGE_SECTION
2 7 125 110 33 122 130 128 157 
3 10 126 161 49 26 64 144 153 140 160 162 
4 11 43 36 54 53 93 159 40 10 66 89 123 
5 11 112 32 100 44 109 24 11 79 81 30 108 
6 9 103 48 101 35 31 96 97 87 146 
7 6 158 50 156 123 159 10 
8 11 85 22 15 9 83 67 84 90 63 47 94 
9 10 63 141 84 22 77 67 8 90 42 145 
10 11 40 53 159 54 123 50 69 4 158 98 7 
11 10 79 44 30 32 91 118 65 100 24 5 
12 11 82 23 95 86 105 45 73 80 41 38 13 
13 11 38 105 45 102 23 82 12 149 95 142 80 
14 10 19 76 143 107 75 73 61 28 111 114 
15 11 85 8 22 9 83 90 67 84 63 47 94 
16 9 136 124 71 135 154 147 150 74 138 
17 11 121 148 39 113 74 131 137 134 46 147 135 
18 7 146 70 119 120 145 68 77 
19 10 14 143 76 107 75 28 114 61 117 73 
20 9 42 94 84 47 129 61 90 111 88 
21 7 99 104 87 151 62 96 31 
22 11 8 85 9 15 84 83 90 67 63 47 94 
23 11 82 149 12 105 13 38 45 106 41 56 127 
24 7 109 81 44 32 5 112 11 
25 11 55 51 108 69 92 98 66 40 65 79 54 
26 10 144 3 161 64 140 162 126 160 49 152 
27 9 142 65 102 118 30 91 89 78 66 
28 10 114 72 107 52 34 19 61 57 14 143 
29 9 115 60 116 133 132 93 117 80 75 
30 8 91 118 65 11 27 142 79 44 
31 10 87 96 6 103 99 48 21 97 35 101 
32 11 44 5 112 11 100 79 109 24 30 81 91 
33 4 130 122 2 128 
34 9 52 114 72 28 57 59 129 107 88 
35 11 6 103 101 48 31 67 96 146 87 97 18 
36 11 43 4 93 54 53 60 89 115 66 159 80 
37 4 127 149 78 23 
38 11 13 105 45 102 23 82 12 149 95 80 142 
39 11 148 17 121 46 74 137 138 147 135 71 131 
40 11 10 53 69 54 98 159 4 92 66 123 43 
41 8 56 73 82 106 12 23 86 149 
42 6 20 111 61 84 94 47 
43 11 36 4 93 54 53 60 89 66 159 115 80 
44 11 32 11 24 79 109 5 112 100 30 81 91 
45 11 105 38 13 95 12 102 80 82 23 86 36 
46 7 39 148 137 17 121 138 58 
47 10 94 90 84 88 129 20 83 42 59 61 
48 8 101 103 6 97 96 31 35 146 
49 9 126 64 3 153 161 26 144 140 162 
50 8 158 7 123 159 10 156 53 40 
51 11 25 55 108 92 69 98 65 79 66 11 40 
52 8 34 28 114 57 72 107 129 59 
53 11 159 4 10 54 40 123 43 36 158 93 132 
54 11 4 53 43 98 66 36 40 89 92 69 10 
55 11 25 51 108 69 92 98 79 40 66 65 10 
56 7 41 106 73 82 12 23 149 
57 5 52 34 28 114 72 
58 7 137 155 131 148 46 17 121 
59 10 88 83 90 47 129 94 84 34 72 20 
60 11 29 115 93 116 80 132 133 36 95 43 86 
61 9 111 20 42 107 72 129 114 94 19 
62 6 151 104 21 99 160 152 
63 10 77 141 145 67 120 18 9 70 146 119 
64 8 49 126 153 3 26 161 140 144 
65 10 27 30 118 142 91 11 79 92 51 66 
66 11 98 89 92 54 69 43 4 36 40 102 27 
67 10 63 145 77 141 146 18 9 120 101 70 
68 4 119 70 18 120 
69 11 92 98 40 25 66 54 55 51 10 89 53 
70 5 119 120 18 68 145 
71 9 135 147 74 138 150 154 134 39 17 
72 10 114 28 129 107 61 52 34 88 20 94 
73 10 86 41 12 76 56 95 80 82 14 116 
74 11 135 147 71 150 134 154 138 17 39 121 148 
75 9 117 143 76 116 133 29 14 19 115 
76 10 14 19 143 75 73 107 86 116 117 41 
77 7 141 145 63 120 70 18 119 
78 2 142 27 
79 11 11 32 44 100 30 108 65 51 91 118 5 
80 11 95 86 116 60 93 29 12 45 115 73 105 
81 3 24 109 44 
82 11 23 12 149 105 41 38 13 45 56 95 86 
83 10 90 88 59 47 94 84 129 20 22 9 
84 11 47 94 90 20 88 42 129 83 9 59 61 
85 11 8 22 15 9 67 83 63 84 90 141 47 
86 11 95 80 73 12 116 82 60 45 29 41 76 
87 10 96 99 31 21 6 97 151 103 48 104 
88 10 47 90 94 59 129 83 84 20 72 42 
89 11 66 98 102 54 92 43 36 4 27 69 45 
90 10 47 94 84 88 83 129 20 59 42 9 
91 6 118 30 65 11 142 27 
92 11 98 66 69 89 54 25 51 40 55 65 4 
93 11 60 36 43 115 29 4 80 116 132 95 53 
94 10 47 84 90 88 129 20 83 42 59 61 
95 11 80 86 12 45 116 105 60 73 93 82 29 
96 8 87 31 99 97 6 48 103 21 
97 5 48 96 101 103 6 
98 11 92 66 69 89 54 40 4 25 43 51 53 
99 8 21 87 96 104 151 31 62 97 
100 11 32 5 112 79 44 11 108 51 55 109 24 
101 9 48 103 6 146 97 35 18 96 31 
102 11 38 13 89 45 105 27 142 66 36 43 98 
103 9 6 48 101 35 31 96 97 87 146 
104 7 62 21 151 99 87 96 160 
105 11 38 45 13 12 23 82 102 95 80 149 86 
106 6 56 149 41 127 23 82 
107 11 19 28 114 14 72 61 143 76 111 52 129 
108 11 55 51 25 79 100 69 92 11 65 98 32 
109 7 24 81 44 32 5 112 11 
110 8 157 2 139 125 33 122 128 130 
111 4 61 42 20 107 
112 11 5 32 100 44 109 24 11 79 81 30 108 
113 11 121 134 131 17 148 150 39 74 154 155 137 
114 10 28 72 107 52 34 19 61 129 14 57 
115 8 29 60 132 133 116 93 117 80 
116 11 29 60 80 115 86 75 133 95 93 117 132 
117 4 133 75 29 115 
118 7 91 30 65 142 27 11 78 
119 4 70 68 18 120 
120 6 70 145 119 18 77 68 
121 11 17 148 39 113 131 134 74 137 150 46 147 
122 5 130 128 33 2 124 
123 8 158 159 50 7 53 132 10 156 
124 4 136 130 122 16 
125 7 2 128 110 122 130 33 157 
126 10 3 49 64 161 26 153 144 140 162 160 
127 6 149 37 106 23 82 56 
128 7 122 130 125 33 2 136 124 
129 10 94 47 88 20 72 90 84 61 42 59 
130 5 122 33 128 124 2 
131 10 155 113 121 17 137 148 58 39 134 46 
132 6 115 29 133 60 123 93 
133 5 117 29 115 132 75 
134 11 150 154 113 74 121 17 135 71 147 148 39 
135 10 71 147 74 138 150 154 39 134 17 121 
136 5 124 16 122 128 130 
137 8 58 148 46 131 17 39 121 155 
138 9 147 135 71 74 39 17 148 46 150 
139 5 157 110 2 125 33 
140 4 162 144 152 26 
141 6 77 63 145 120 70 9 
142 9 27 78 118 102 65 30 91 89 13 
143 7 19 75 14 76 117 107 133 
144 5 162 152 140 26 160 
145 8 77 120 63 18 70 141 146 119 
146 8 18 119 70 145 120 68 101 77 
147 9 135 71 74 138 150 39 154 134 17 
148 11 17 39 121 137 46 131 74 113 134 147 135 
149 10 23 82 127 106 12 13 38 37 56 105 
150 11 154 134 74 71 135 147 113 121 17 39 148 
151 5 62 104 21 99 87 
152 5 162 144 140 160 26 
153 5 64 49 126 3 26 
154 11 150 134 74 71 135 147 113 121 16 17 138 
155 8 131 58 137 113 121 17 148 39 
156 4 7 158 123 50 
157 8 139 110 2 125 128 33 122 130 
158 8 50 123 7 159 156 53 10 132 
159 10 53 123 158 10 4 50 40 132 54 7 
160 7 144 152 162 26 140 161 62 
161 10 3 126 26 49 64 144 160 162 140 152 
162 5 152 144 140 26 160 
DEPOT_SECTION
   1
   -1
EOF
