NAME :  X-n280-kX-w111-c7.cctp
COMMENT : 	Adapted by Maziero, Usberti and Cavellucci from the Uchoa, Pecin, Pessoa, Poggi, Subramanian, and Vidal (2013)
TYPE :  CCTP
DIMENSION :    279
EDGE_WEIGHT_TYPE : 	EUC_2D	
CAPACITY : 	192
VERTICES_WITHIN_COVERAGE :  7
VERTICES_WITH_DEMAND : 	111
NODE_COORD_SECTION
1 0 0
2 909 919
3 878 721
4 969 85
5 591 195
6 955 148
7 587 903
8 994 792
9 625 129
10 544 703
11 461 167
12 37 644
13 615 22
14 773 788
15 384 364
16 51 291
17 109 732
18 570 124
19 692 985
20 62 150
21 358 5
22 188 450
23 674 658
24 676 904
25 815 984
26 710 16
27 74 658
28 576 1000
29 636 695
30 547 92
31 587 397
32 26 150
33 182 561
34 938 462
35 362 928
36 366 835
37 516 892
38 448 923
39 501 445
40 513 799
41 905 388
42 474 791
43 560 782
44 465 552
45 315 645
46 738 396
47 45 915
48 797 871
49 922 643
50 793 586
51 921 458
52 160 295
53 598 257
54 516 221
55 99 169
56 788 634
57 425 751
58 616 680
59 949 444
60 987 459
61 182 279
62 127 354
63 791 822
64 645 609
65 857 386
66 917 154
67 398 480
68 729 688
69 134 510
70 172 2
71 499 737
72 780 565
73 908 477
74 917 341
75 272 553
76 421 876
77 770 2
78 497 623
79 853 27
80 853 521
81 519 196
82 90 822
83 827 901
84 350 168
85 656 56
86 199 924
87 732 55
88 772 748
89 884 973
90 158 430
91 563 13
92 50 959
93 609 223
94 628 860
95 264 436
96 699 764
97 441 479
98 95 246
99 236 627
100 307 893
101 695 302
102 378 639
103 830 30
104 44 339
105 885 644
106 122 603
107 850 732
108 155 865
109 230 346
110 300 719
111 55 954
112 467 494
113 153 641
114 713 82
115 659 564
116 881 18
117 781 654
118 490 806
119 823 569
120 878 496
121 441 898
122 589 516
123 165 614
124 17 749
125 164 778
126 296 858
127 258 488
128 437 866
129 187 88
130 725 988
131 125 619
132 352 701
133 447 517
134 316 80
135 743 575
136 555 373
137 84 140
138 341 827
139 541 567
140 919 768
141 945 924
142 397 932
143 905 944
144 892 37
145 74 227
146 911 617
147 668 697
148 1 96
149 223 299
150 637 118
151 622 958
152 356 127
153 347 777
154 157 190
155 8 497
156 138 78
157 100 192
158 384 598
159 23 228
160 110 163
161 345 464
162 53 628
163 316 705
164 112 361
165 642 405
166 235 578
167 489 621
168 563 916
169 759 215
170 597 310
171 960 837
172 164 988
173 37 513
174 648 247
175 375 402
176 531 205
177 935 676
178 103 549
179 964 651
180 233 241
181 891 112
182 378 472
183 457 893
184 852 861
185 113 701
186 340 913
187 662 198
188 667 718
189 140 332
190 809 908
191 968 908
192 163 857
193 333 418
194 59 136
195 839 123
196 529 215
197 385 380
198 319 417
199 318 216
200 156 119
201 816 160
202 267 210
203 528 320
204 138 787
205 473 713
206 537 114
207 168 838
208 774 825
209 32 510
210 216 372
211 16 935
212 60 733
213 500 37
214 343 363
215 429 41
216 205 398
217 708 298
218 411 109
219 840 359
220 112 603
221 816 310
222 865 775
223 259 348
224 893 516
225 814 607
226 605 162
227 781 239
228 359 199
229 16 739
230 482 214
231 70 526
232 528 103
233 572 770
234 802 517
235 876 469
236 118 571
237 952 781
238 823 795
239 522 595
240 52 336
241 456 367
242 255 413
243 410 194
244 956 21
245 717 142
246 766 880
247 524 825
248 657 640
249 189 232
250 471 339
251 920 809
252 688 98
253 660 781
254 441 81
255 236 735
256 784 692
257 743 446
258 201 32
259 188 957
260 381 605
261 380 904
262 227 263
263 69 94
264 123 416
265 341 341
266 450 482
267 251 533
268 352 591
269 724 967
270 753 539
271 684 924
272 617 989
273 455 500
274 472 926
275 395 683
276 167 357
277 789 678
278 897 272
279 991 492
DEMAND_SECTION
2 92
3 88
4 93
5 90
6 73
7 100
8 53
9 66
10 82
11 59
12 100
13 76
14 84
15 56
16 91
17 58
18 65
19 56
20 68
21 88
22 54
23 76
24 80
25 53
26 1
27 2
28 2
29 7
30 10
31 9
32 8
33 3
34 3
35 2
36 9
37 6
38 10
39 3
40 1
41 4
42 6
43 1
44 4
45 3
46 7
47 7
48 2
49 1
50 1
51 4
52 4
53 5
54 4
55 7
56 3
57 3
58 8
59 6
60 4
61 4
62 2
63 1
64 7
65 5
66 1
67 6
68 8
69 4
70 8
71 7
72 2
73 1
74 9
75 4
76 3
77 3
78 9
79 8
80 5
81 9
82 9
83 4
84 9
85 8
86 6
87 8
88 7
89 9
90 3
91 1
92 8
93 1
94 2
95 4
96 3
97 3
98 7
99 4
100 6
101 6
102 2
103 6
104 7
105 8
106 6
107 3
108 10
109 9
110 5
111 7
112 10
COVERAGE_SECTION
2 7 143 141 89 191 184 83 171 
3 7 107 222 140 177 105 49 238 
4 7 6 244 181 66 144 116 79 
5 7 93 226 176 53 196 187 81 
6 7 66 4 181 195 244 144 278 
7 7 168 94 151 37 24 272 28 
8 7 237 171 251 140 191 177 222 
9 7 150 226 18 252 5 187 85 
10 7 71 205 233 58 43 29 78 
11 7 230 243 81 54 218 176 196 
12 7 162 27 220 131 212 106 185 
13 7 85 91 26 30 150 252 9 
14 7 208 63 88 238 96 48 246 
15 7 197 175 214 265 241 193 198 
16 7 240 104 98 145 159 164 189 
17 7 185 212 204 125 27 82 229 
18 7 206 30 232 226 9 150 5 
19 7 130 269 271 151 272 24 28 
20 7 194 137 32 55 160 263 157 
21 7 215 134 254 218 152 213 258 
22 7 90 216 264 95 242 127 69 
23 7 248 147 29 64 188 58 68 
24 7 271 94 151 269 19 7 246 
25 7 89 190 83 130 269 143 2 
26 7 87 77 114 85 252 13 103 
27 7 162 12 185 131 220 106 212 
28 7 272 151 168 7 19 37 274 
29 7 58 147 188 23 248 64 253 
30 7 232 206 18 213 91 9 226 
31 7 136 165 170 203 39 122 250 
32 7 20 194 137 148 263 55 159 
33 7 123 166 236 69 106 267 178 
34 7 51 59 73 60 279 235 120 
35 7 186 261 142 100 76 121 38 
36 7 138 153 76 261 126 128 186 
37 7 168 274 183 247 7 38 121 
38 7 274 121 183 142 76 128 261 
39 7 112 266 97 273 133 136 241 
40 7 118 247 42 43 71 233 37 
41 7 65 74 59 219 51 34 235 
42 7 118 40 71 247 57 205 128 
43 7 233 40 247 118 71 10 42 
44 7 133 273 112 239 266 167 97 
45 7 163 102 268 132 110 260 99 
46 7 257 165 217 101 219 221 65 
47 7 211 111 92 82 108 192 172 
48 7 246 190 83 63 208 184 238 
49 7 146 177 105 179 3 107 225 
50 7 72 225 119 56 135 270 117 
51 7 34 73 59 235 120 224 60 
52 7 61 189 276 149 62 249 262 
53 7 93 174 170 5 196 176 187 
54 7 196 176 81 230 11 5 53 
55 7 160 157 137 20 194 154 145 
56 7 117 225 277 50 256 72 119 
57 7 205 42 275 71 153 118 132 
58 7 29 147 248 23 188 10 64 
59 7 34 51 60 73 279 41 235 
60 7 279 59 34 51 73 41 224 
61 7 52 149 249 262 180 189 276 
62 7 164 189 276 264 52 240 90 
63 7 208 14 238 48 246 184 88 
64 7 248 115 23 58 29 147 135 
65 7 219 41 74 235 221 51 73 
66 7 6 181 195 4 201 144 278 
67 7 182 97 266 161 273 133 112 
68 7 256 277 117 147 23 188 88 
69 7 178 236 231 33 22 90 106 
70 7 258 156 129 200 263 134 137 
71 7 205 10 42 40 118 57 43 
72 7 50 270 135 119 234 225 56 
73 7 51 235 34 120 224 59 80 
74 7 41 278 65 219 221 59 51 
75 7 267 166 127 99 268 33 45 
76 7 128 121 183 261 38 142 36 
77 7 26 87 103 79 114 116 85 
78 7 167 239 139 44 10 205 71 
79 7 103 116 144 77 181 195 244 
80 7 120 224 234 119 235 73 72 
81 7 176 196 54 230 11 5 206 
82 7 204 108 207 192 125 17 212 
83 7 190 48 184 246 2 25 63 
84 7 228 152 199 243 218 202 134 
85 7 13 252 114 150 26 87 9 
86 7 259 172 108 192 207 100 126 
87 7 114 26 252 77 85 245 103 
88 7 14 256 238 277 68 96 63 
89 7 143 2 25 141 83 190 191 
90 7 22 264 216 276 62 210 164 
91 7 13 213 30 232 85 206 18 
92 7 111 211 47 172 259 108 82 
93 7 5 53 174 187 226 176 196 
94 7 7 24 253 271 168 151 43 
95 7 242 127 198 216 193 22 210 
96 7 253 188 147 88 14 68 29 
97 7 266 273 112 133 67 182 39 
98 7 145 157 16 159 55 52 154 
99 7 166 123 45 75 113 33 267 
100 7 126 186 35 138 261 36 142 
101 7 217 174 170 46 53 227 169 
102 7 260 158 275 268 45 132 163 
103 7 79 116 144 77 195 87 181 
104 7 240 16 164 62 189 98 264 
105 7 49 146 177 3 179 225 107 
106 7 220 131 236 123 113 178 27 
107 7 3 222 238 256 140 88 277 
108 7 192 207 86 82 204 125 259 
109 7 223 210 149 216 276 242 61 
110 7 163 132 255 153 45 275 99 
111 7 92 47 211 172 259 108 82 
112 7 273 266 97 133 44 39 67 
113 7 123 131 106 220 185 236 27 
114 7 252 87 245 85 26 150 77 
115 7 64 248 122 135 23 270 139 
116 7 144 79 103 244 181 4 77 
117 7 56 277 256 225 68 50 135 
118 7 42 40 247 71 43 128 57 
119 7 50 225 72 234 80 56 270 
120 7 224 235 80 73 51 34 234 
121 7 183 38 76 128 274 142 261 
122 7 139 115 239 64 39 31 165 
123 7 113 131 106 220 33 236 99 
124 7 229 212 17 82 12 27 185 
125 7 204 207 17 192 255 82 108 
126 7 100 138 186 36 35 153 261 
127 7 267 95 75 242 22 161 166 
128 7 76 121 183 38 261 274 36 
129 7 200 156 258 70 154 160 137 
130 7 269 19 271 25 24 151 272 
131 7 106 220 113 123 236 27 162 
132 7 163 275 110 45 102 153 57 
133 7 273 112 266 97 44 67 182 
134 7 152 21 84 218 215 254 258 
135 7 270 72 50 56 225 119 234 
136 7 31 203 170 39 250 165 241 
137 7 20 194 55 160 263 157 32 
138 7 36 153 126 100 186 261 76 
139 7 239 122 78 167 44 112 133 
140 7 237 251 222 3 107 8 171 
141 7 191 2 143 89 171 184 251 
142 7 261 35 38 121 186 76 183 
143 7 2 89 141 191 83 25 184 
144 7 116 79 103 244 181 4 195 
145 7 98 157 159 55 16 160 20 
146 7 49 105 179 177 225 119 224 
147 7 188 29 23 58 248 68 96 
148 7 32 263 194 20 137 55 160 
149 7 262 61 109 180 223 52 210 
150 7 9 226 252 85 18 114 187 
151 7 272 28 7 271 168 19 24 
152 7 84 218 134 228 243 199 254 
153 7 138 36 110 132 163 57 126 
154 7 249 160 157 55 200 98 137 
155 7 209 173 231 178 69 236 162 
156 7 200 129 263 258 137 70 160 
157 7 55 160 145 98 137 20 154 
158 7 260 268 102 45 275 44 133 
159 7 145 16 98 32 157 20 55 
160 7 55 157 137 20 154 194 200 
161 7 182 193 198 67 175 95 127 
162 7 12 27 220 106 131 236 178 
163 7 110 132 45 153 275 255 102 
164 7 62 189 276 264 240 104 52 
165 7 31 136 46 170 257 101 122 
166 7 75 267 99 33 123 127 113 
167 7 78 239 44 139 205 10 158 
168 7 7 37 151 28 94 272 274 
169 6 227 201 245 217 187 101 
170 7 53 203 136 174 31 93 101 
171 7 251 8 237 191 140 141 2 
172 7 259 86 111 92 108 192 47 
173 7 209 155 231 178 69 236 162 
174 7 93 53 187 101 5 217 170 
175 7 197 15 193 214 198 161 182 
176 7 196 81 54 230 5 11 93 
177 7 49 179 105 146 3 140 107 
178 7 236 231 69 220 106 131 173 
179 7 177 49 146 105 3 140 237 
180 7 262 249 202 149 61 199 52 
181 7 66 195 6 144 4 201 79 
182 7 67 161 97 175 193 266 198 
183 7 121 38 128 274 76 37 142 
184 7 83 48 190 63 238 2 208 
185 7 17 27 212 113 131 204 125 
186 7 35 100 261 142 126 36 138 
187 7 174 93 226 5 9 245 150 
188 7 147 29 96 23 253 58 68 
189 7 62 276 164 52 61 210 264 
190 7 83 48 246 184 25 63 208 
191 7 141 2 171 143 89 251 8 
192 7 108 207 204 86 125 82 259 
193 7 198 175 161 214 197 182 95 
194 7 20 137 32 263 55 160 157 
195 7 201 181 66 103 79 144 116 
196 7 176 54 81 230 5 93 53 
197 7 15 175 214 265 193 241 198 
198 7 193 161 95 175 214 242 197 
199 7 228 202 84 180 243 152 262 
200 7 129 156 160 154 137 55 263 
201 6 195 169 227 181 66 245 
202 7 180 199 262 249 84 228 149 
203 7 136 250 170 241 53 31 54 
204 7 125 82 207 17 192 108 185 
205 7 71 57 10 42 275 78 167 
206 7 232 30 18 226 81 213 9 
207 7 192 108 204 125 82 86 17 
208 7 63 14 48 246 238 88 184 
209 7 173 155 231 178 69 236 162 
210 7 216 109 223 276 242 149 95 
211 7 47 92 111 82 108 172 192 
212 7 229 124 17 185 27 12 82 
213 7 91 215 30 232 254 206 18 
214 7 265 15 197 175 193 198 223 
215 7 254 218 213 21 152 232 134 
216 7 210 242 22 276 90 109 95 
217 7 101 174 227 169 46 221 187 
218 7 254 152 215 11 84 243 134 
219 6 65 221 41 74 278 46 
220 7 106 131 236 123 178 113 162 
221 6 219 227 65 278 74 217 
222 7 107 238 140 3 251 184 237 
223 7 109 210 149 242 216 265 214 
224 7 120 80 73 235 51 34 119 
225 7 50 56 119 72 117 277 135 
226 7 5 9 18 150 93 187 206 
227 6 169 221 201 217 101 245 
228 7 84 199 243 152 202 218 11 
229 7 124 212 17 12 27 185 82 
230 7 54 81 196 176 11 243 5 
231 7 173 178 209 69 236 155 220 
232 7 206 30 18 213 254 11 81 
233 7 43 40 10 247 71 253 118 
234 7 80 72 270 119 50 120 135 
235 7 120 73 51 224 80 34 59 
236 7 178 106 220 131 69 123 33 
237 7 140 8 251 171 222 3 177 
238 7 63 222 14 208 88 107 184 
239 7 139 78 167 44 122 133 10 
240 7 104 16 164 62 189 98 264 
241 7 250 15 197 203 175 39 136 
242 7 95 216 210 198 223 109 127 
243 7 228 11 84 230 218 152 199 
244 7 4 144 116 79 181 103 6 
245 7 252 114 187 150 169 87 9 
246 7 48 190 208 63 83 184 14 
247 7 40 118 43 42 37 233 71 
248 7 23 64 58 147 29 115 188 
249 7 180 61 262 154 52 149 202 
250 7 241 203 15 136 197 39 175 
251 7 140 237 171 222 8 184 3 
252 7 114 85 245 150 87 9 26 
253 7 96 188 147 94 29 233 43 
254 7 218 215 213 11 232 152 206 
255 7 110 125 163 99 204 153 45 
256 7 277 117 68 88 56 107 225 
257 7 46 234 270 165 72 65 135 
258 7 70 129 156 200 134 263 21 
259 7 86 172 108 192 207 111 100 
260 7 158 268 102 45 275 44 132 
261 7 35 142 186 76 121 128 36 
262 7 180 149 61 249 202 52 109 
263 7 194 137 20 148 32 156 160 
264 7 90 164 62 22 276 216 189 
265 7 214 15 197 175 193 198 223 
266 7 97 273 112 133 67 39 44 
267 7 75 127 166 33 99 95 22 
268 7 260 158 102 45 75 275 132 
269 7 130 19 271 24 25 246 151 
270 7 72 135 234 50 119 225 257 
271 7 24 269 19 151 130 94 246 
272 7 151 28 19 7 168 271 24 
273 7 112 133 266 97 44 67 39 
274 7 38 183 121 37 128 76 142 
275 7 102 132 57 260 163 205 158 
276 7 189 62 210 164 216 52 109 
277 7 256 117 56 68 88 225 107 
278 6 74 221 219 41 66 65 
279 7 60 34 59 51 73 224 120 
DEPOT_SECTION
   1
   -1
EOF
