NAME :  X-n209-kX-w41-c11.cctp
COMMENT : 	Adapted by Maziero, Usberti and Cavellucci from the Uchoa, Pecin, Pessoa, Poggi, Subramanian, and Vidal (2013)
TYPE :  CCTP
DIMENSION :    201
EDGE_WEIGHT_TYPE : 	EUC_2D	
CAPACITY : 	101
VERTICES_WITHIN_COVERAGE :  11
VERTICES_WITH_DEMAND : 	41
NODE_COORD_SECTION
1 0 0
2 487 949
3 492 770
4 150 556
5 130 719
6 962 393
7 54 890
8 861 705
9 338 631
10 119 741
11 48 296
12 982 827
13 18 954
14 558 698
15 857 337
16 963 72
17 218 46
18 705 484
19 315 3
20 331 358
21 688 156
22 314 338
23 214 428
24 193 866
25 381 924
26 968 10
27 797 382
28 733 544
29 956 878
30 576 270
31 257 778
32 713 605
33 270 940
34 880 401
35 245 168
36 973 29
37 888 919
38 943 703
39 364 248
40 932 60
41 575 18
42 663 990
43 667 351
44 85 708
45 801 330
46 261 91
47 163 953
48 509 249
49 237 336
50 791 356
51 314 168
52 356 726
53 260 412
54 630 144
55 534 255
56 356 444
57 448 320
58 987 333
59 691 109
60 83 716
61 395 818
62 605 769
63 633 162
64 651 644
65 221 4
66 551 912
67 762 604
68 337 41
69 156 318
70 756 357
71 749 173
72 535 235
73 719 700
74 717 4
75 337 441
76 759 103
77 615 132
78 42 268
79 952 2
80 989 303
81 471 821
82 650 215
83 302 881
84 61 459
85 391 405
86 364 170
87 643 744
88 324 620
89 559 449
90 92 914
91 133 607
92 223 949
93 988 415
94 943 616
95 764 6
96 659 250
97 766 532
98 730 338
99 850 489
100 564 296
101 538 121
102 997 183
103 127 966
104 880 538
105 300 985
106 781 68
107 884 92
108 438 673
109 591 658
110 928 894
111 107 816
112 581 799
113 46 288
114 548 0
115 379 725
116 186 490
117 947 161
118 702 712
119 230 722
120 40 891
121 362 568
122 26 614
123 396 104
124 756 658
125 818 433
126 236 62
127 314 56
128 276 466
129 789 828
130 626 677
131 626 156
132 207 461
133 566 842
134 676 871
135 135 983
136 956 181
137 5 209
138 10 57
139 499 617
140 975 194
141 882 465
142 716 147
143 740 993
144 77 480
145 742 233
146 869 824
147 809 987
148 999 514
149 748 391
150 366 917
151 272 875
152 0 9
153 260 359
154 449 208
155 278 711
156 422 445
157 341 448
158 683 498
159 930 690
160 184 567
161 257 360
162 464 101
163 783 645
164 282 884
165 978 688
166 514 349
167 343 552
168 290 171
169 675 414
170 386 86
171 575 26
172 863 973
173 223 412
174 958 176
175 391 824
176 228 93
177 704 946
178 938 995
179 159 343
180 698 106
181 896 169
182 361 937
183 201 120
184 158 852
185 786 630
186 91 909
187 291 333
188 575 931
189 60 763
190 321 837
191 154 302
192 490 215
193 612 394
194 70 159
195 972 987
196 527 340
197 34 241
198 688 334
199 878 485
200 885 205
201 124 413
DEMAND_SECTION
2 7
3 6
4 7
5 8
6 10
7 7
8 7
9 10
10 8
11 5
12 6
13 5
14 6
15 5
16 8
17 5
18 8
19 6
20 6
21 7
22 5
23 9
24 10
25 6
26 6
27 6
28 7
29 8
30 9
31 7
32 6
33 6
34 10
35 5
36 5
37 8
38 10
39 9
40 9
41 6
42 7
COVERAGE_SECTION
2 11 66 188 25 150 182 81 133 175 61 112 3 
3 11 81 112 14 133 61 108 62 175 115 52 109 
4 11 160 91 116 144 132 84 122 23 201 128 173 
5 11 10 44 60 189 111 119 91 184 31 122 155 
6 11 93 58 34 80 141 15 199 148 99 125 27 
7 11 120 186 90 13 111 103 184 135 47 189 24 
8 11 159 38 163 185 124 165 146 94 67 73 129 
9 8 88 121 167 52 155 115 108 119 
10 11 5 60 44 189 111 119 184 91 31 24 122 
11 11 113 78 197 137 191 69 179 194 201 84 144 
12 11 29 110 146 38 37 165 159 195 8 178 172 
13 11 120 7 90 186 103 135 47 111 184 24 189 
14 11 109 130 62 87 3 139 112 64 108 133 118 
15 11 45 34 50 27 70 125 6 149 98 58 141 
16 11 40 36 26 79 107 117 174 136 102 181 140 
17 11 126 65 176 46 183 127 19 68 35 168 51 
18 11 158 28 169 97 149 32 125 193 67 27 70 
19 11 68 127 65 126 46 17 170 176 123 183 51 
20 11 22 187 153 161 85 75 53 56 157 49 39 
21 11 142 59 180 63 54 131 71 82 77 76 145 
22 11 187 20 153 161 49 53 85 39 75 157 56 
23 10 173 132 53 116 128 161 153 201 49 179 
24 11 184 151 92 164 47 111 33 31 83 186 90 
25 11 150 182 83 175 105 190 61 164 2 33 151 
26 11 79 36 16 40 107 117 174 136 102 181 140 
27 11 50 70 149 45 125 15 98 34 99 141 198 
28 11 97 32 18 67 158 185 163 124 64 99 125 
29 11 110 12 37 146 195 178 172 129 38 147 159 
30 11 100 55 72 48 96 196 82 166 192 43 63 
31 11 119 155 190 151 24 164 52 83 184 115 5 
32 11 67 28 124 64 185 163 97 73 118 158 130 
33 11 92 105 164 151 83 182 150 24 47 25 190 
34 11 141 15 125 6 199 27 99 50 45 93 58 
35 11 168 183 51 176 46 126 86 17 127 39 68 
36 11 26 79 16 40 107 117 174 136 102 181 140 
37 11 110 172 29 178 146 147 195 12 129 143 177 
38 10 159 165 8 94 12 146 163 185 29 104 
39 11 86 51 154 22 168 57 187 20 192 35 48 
40 11 16 36 107 79 26 117 181 174 136 102 140 
41 11 171 114 101 77 54 162 74 59 131 180 63 
42 11 177 143 188 134 66 147 133 2 172 129 112 
43 11 198 98 169 193 70 149 96 100 30 50 27 
44 11 60 5 10 189 111 122 91 119 184 4 160 
45 11 50 27 70 15 98 149 125 34 198 145 43 
46 11 176 126 17 127 183 35 168 68 51 65 19 
47 11 103 135 92 90 186 24 184 33 7 151 120 
48 10 55 72 192 30 100 154 196 57 166 101 
49 11 161 153 187 22 173 179 53 69 191 23 20 
50 11 27 45 70 149 98 15 125 34 198 43 169 
51 11 168 86 35 46 39 123 170 127 176 183 68 
52 11 115 155 9 108 61 175 88 31 190 119 3 
53 10 173 23 161 153 128 132 49 75 187 20 
54 11 131 63 77 21 59 82 180 142 101 96 71 
55 11 72 48 30 100 192 196 166 154 57 82 96 
56 7 157 75 85 156 128 20 53 
57 11 166 196 48 85 55 39 154 192 100 72 20 
58 11 80 6 93 34 15 140 102 136 174 200 141 
59 11 180 142 21 76 54 63 77 131 71 106 74 
60 11 44 10 5 189 111 122 91 119 184 4 7 
61 11 175 81 190 115 52 150 25 3 83 182 164 
62 11 112 87 133 14 130 109 3 118 134 64 73 
63 11 131 54 77 21 82 59 142 180 96 101 71 
64 11 130 109 32 118 73 87 124 14 67 28 163 
65 11 17 126 176 19 46 127 183 68 35 168 170 
66 11 188 133 2 112 81 134 42 62 3 177 25 
67 11 185 163 32 124 28 97 73 64 118 158 18 
68 11 127 19 170 123 46 126 17 176 65 51 86 
69 11 191 179 49 201 161 11 153 113 173 23 78 
70 11 98 50 149 27 45 198 43 125 169 15 145 
71 11 142 145 21 76 180 59 82 106 63 96 54 
72 11 55 48 192 30 100 154 196 101 166 82 131 
73 11 118 124 163 64 87 32 130 185 67 62 109 
74 11 95 106 180 59 76 41 142 171 21 77 54 
75 7 157 56 85 128 53 20 156 
76 11 106 180 142 59 71 21 95 74 107 145 54 
77 11 54 131 63 21 101 59 180 82 142 171 41 
78 11 113 197 11 137 194 191 69 179 201 84 49 
79 11 26 36 40 16 107 117 174 181 136 106 102 
80 11 58 6 140 93 102 136 174 15 200 34 117 
81 11 3 61 175 133 112 66 2 115 25 150 62 
82 11 96 63 131 21 54 77 30 145 142 71 59 
83 11 164 151 190 33 150 182 25 92 105 175 24 
84 11 144 201 116 4 132 179 23 122 11 160 91 
85 7 156 56 75 157 20 22 57 
86 10 51 123 168 39 170 154 35 162 127 46 
87 11 62 118 130 112 73 14 64 109 133 134 124 
88 8 9 121 167 155 52 115 108 119 
89 9 193 166 196 169 158 156 43 18 100 
90 11 186 7 120 103 47 135 13 184 111 24 92 
91 11 4 160 122 5 44 60 116 10 144 119 132 
92 11 33 47 105 24 164 151 135 103 83 184 90 
93 11 6 58 148 34 80 141 199 15 99 104 125 
94 10 159 165 38 104 148 8 199 99 185 141 
95 11 74 106 76 180 59 107 142 21 71 40 79 
96 11 82 30 145 198 63 21 131 43 100 54 98 
97 11 28 67 18 32 158 99 185 125 104 163 199 
98 11 70 198 149 43 50 45 27 169 145 96 15 
99 10 199 141 104 125 34 97 27 28 149 18 
100 11 30 55 196 72 48 166 96 193 192 43 57 
101 10 162 77 54 131 171 63 192 41 72 114 
102 11 140 174 136 117 181 200 16 80 40 107 58 
103 11 135 47 90 186 92 7 13 120 184 24 33 
104 10 199 99 141 94 97 148 125 185 67 34 
105 11 33 182 92 150 25 164 83 151 47 190 24 
106 11 76 95 74 180 59 142 107 71 21 40 181 
107 11 40 181 16 117 106 36 174 79 200 136 26 
108 10 115 139 52 9 3 14 88 121 61 81 
109 11 130 14 64 87 139 62 118 32 73 112 3 
110 11 29 37 12 146 178 172 195 147 129 38 8 
111 11 184 189 10 7 186 24 90 5 120 60 44 
112 11 62 133 87 3 14 81 66 134 130 188 109 
113 11 11 78 197 137 191 69 179 194 201 84 144 
114 10 41 171 101 162 77 54 74 131 59 63 
115 11 52 108 61 175 155 9 88 3 190 31 81 
116 11 132 23 4 160 173 128 201 53 144 91 84 
117 11 174 136 140 181 102 200 16 107 40 36 80 
118 11 73 87 124 130 64 163 32 62 185 109 67 
119 11 155 31 5 10 52 88 9 44 60 190 24 
120 11 7 186 90 13 111 103 184 189 135 47 24 
121 6 167 88 9 157 56 75 
122 11 91 44 60 4 144 5 189 10 84 160 116 
123 10 170 162 86 68 127 51 154 168 19 46 
124 11 163 185 67 73 32 118 64 8 28 97 130 
125 11 27 99 34 141 199 50 149 70 15 45 97 
126 11 17 176 46 65 183 127 19 68 35 168 51 
127 11 68 19 46 126 170 176 123 17 65 51 168 
128 8 53 75 157 132 23 173 56 116 
129 11 146 134 37 8 118 177 73 110 147 172 87 
130 11 109 64 87 14 118 62 73 32 112 124 139 
131 11 63 54 77 21 82 59 180 142 101 96 72 
132 10 23 116 173 128 53 201 160 4 161 153 
133 11 112 66 62 188 81 3 134 87 2 14 61 
134 11 177 133 188 112 42 129 62 87 66 143 118 
135 11 103 47 90 186 92 13 7 24 120 184 33 
136 11 174 117 140 102 181 200 16 107 40 80 36 
137 11 197 78 194 113 11 138 191 69 152 179 183 
138 11 152 194 137 197 183 17 78 65 176 126 113 
139 9 108 14 109 130 121 3 64 115 9 
140 11 136 102 174 117 181 200 80 16 107 58 40 
141 10 199 99 34 125 104 6 93 27 148 15 
142 11 21 71 59 180 76 63 54 131 145 82 77 
143 11 177 147 42 172 134 37 129 188 178 66 110 
144 11 84 201 4 116 132 160 91 122 23 179 173 
145 11 71 96 142 21 82 98 45 198 70 63 76 
146 11 129 110 37 29 12 8 38 159 172 147 165 
147 11 172 143 37 177 178 42 110 129 195 146 134 
148 10 93 94 104 199 6 141 99 34 165 58 
149 11 70 27 50 98 169 45 125 198 43 18 15 
150 11 25 182 83 164 190 105 175 33 61 151 2 
151 11 164 83 190 33 24 92 31 150 182 105 184 
152 11 138 194 137 17 65 183 197 126 176 78 46 
153 11 161 49 187 53 22 173 20 23 179 128 69 
154 10 192 48 72 86 39 55 162 57 123 101 
155 11 119 31 52 9 88 115 190 5 61 175 10 
156 5 85 56 157 75 20 
157 7 75 56 85 128 156 53 20 
158 11 18 28 169 97 32 149 193 67 89 43 64 
159 10 38 165 8 94 12 146 163 185 104 124 
160 11 4 91 116 132 128 144 23 88 167 173 5 
161 11 153 49 187 53 22 173 20 23 179 128 69 
162 10 123 101 170 154 192 86 114 171 41 68 
163 10 185 124 67 32 73 8 118 28 97 64 
164 11 151 83 33 190 92 150 24 182 105 25 31 
165 10 38 159 94 8 12 146 148 104 29 163 
166 10 196 57 100 55 30 48 193 89 72 156 
167 7 121 88 9 157 56 128 75 
168 11 51 35 86 46 176 183 39 127 126 123 170 
169 11 43 193 18 149 198 158 98 70 89 27 50 
170 10 123 68 127 162 86 19 51 46 168 154 
171 11 41 114 101 77 54 162 131 59 74 180 63 
172 11 147 37 178 110 195 143 29 146 177 129 12 
173 11 23 53 132 161 153 128 49 116 179 201 187 
174 11 136 117 140 102 181 200 16 107 40 80 36 
175 11 61 190 81 150 25 115 52 83 3 182 164 
176 11 126 46 183 17 35 65 127 168 51 68 19 
177 11 143 42 134 147 188 129 66 172 133 37 112 
178 11 195 172 37 110 29 147 12 146 143 129 177 
179 11 69 191 49 201 173 161 23 153 11 53 113 
180 11 59 142 21 76 54 71 63 77 131 106 74 
181 11 200 117 136 174 107 140 102 40 16 71 76 
182 11 150 25 105 83 33 164 151 190 175 61 2 
183 11 176 35 46 126 17 168 65 51 127 194 68 
184 11 24 111 186 90 47 7 151 92 10 103 31 
185 10 163 67 124 32 73 97 28 8 118 104 
186 11 90 7 120 103 47 13 135 184 111 24 92 
187 11 22 153 161 20 49 53 173 39 75 23 85 
188 11 66 133 2 42 134 177 112 81 62 143 3 
189 11 60 44 10 111 5 7 120 184 186 122 90 
190 11 83 164 151 175 61 31 150 25 182 33 52 
191 11 69 179 49 11 113 201 78 161 153 173 197 
192 10 48 154 72 55 30 101 100 57 162 39 
193 11 169 43 89 198 196 166 100 158 18 30 98 
194 11 137 197 78 138 113 183 11 152 191 176 35 
195 11 178 110 37 29 172 12 147 146 143 129 177 
196 10 166 100 57 30 55 48 193 72 89 192 
197 11 78 137 113 11 194 191 69 179 138 201 183 
198 11 43 98 70 169 149 96 193 50 45 145 27 
199 10 141 99 104 125 34 97 148 6 93 27 
200 11 181 136 117 174 140 107 102 15 71 80 145 
201 11 84 179 144 23 132 116 173 69 191 53 49 
DEPOT_SECTION
   1
   -1
EOF
