NAME :  X-n242-kX-w48-c9.cctp
COMMENT : 	Adapted by Maziero, Usberti and Cavellucci from the Uchoa, Pecin, Pessoa, Poggi, Subramanian, and Vidal (2013)
TYPE :  CCTP
DIMENSION :    220
EDGE_WEIGHT_TYPE : 	EUC_2D	
CAPACITY : 	28
VERTICES_WITHIN_COVERAGE :  9
VERTICES_WITH_DEMAND : 	48
NODE_COORD_SECTION
1 0 0
2 346 793
3 692 966
4 171 666
5 287 795
6 93 919
7 712 216
8 991 988
9 475 266
10 71 307
11 83 987
12 518 392
13 807 134
14 377 164
15 692 127
16 701 530
17 831 255
18 938 210
19 873 127
20 569 817
21 796 379
22 6 182
23 917 620
24 728 936
25 157 644
26 668 333
27 564 876
28 861 333
29 70 79
30 330 931
31 513 308
32 230 725
33 896 107
34 234 758
35 911 970
36 177 587
37 697 37
38 947 615
39 861 54
40 620 667
41 739 572
42 861 818
43 917 398
44 555 473
45 992 303
46 701 695
47 588 974
48 556 781
49 627 213
50 19 93
51 837 398
52 277 133
53 521 177
54 694 875
55 575 428
56 949 337
57 752 458
58 432 417
59 881 966
60 101 210
61 270 113
62 951 30
63 959 856
64 554 981
65 72 873
66 681 319
67 149 612
68 799 203
69 92 644
70 997 104
71 727 707
72 163 790
73 364 966
74 119 969
75 931 207
76 820 844
77 630 384
78 721 103
79 209 814
80 176 751
81 76 178
82 737 499
83 42 123
84 194 726
85 835 589
86 521 825
87 554 637
88 11 702
89 129 540
90 659 941
91 122 683
92 123 119
93 111 386
94 253 262
95 338 989
96 596 175
97 657 234
98 688 921
99 676 942
100 463 128
101 875 97
102 982 861
103 445 748
104 828 305
105 659 433
106 43 98
107 673 668
108 387 303
109 768 421
110 258 543
111 737 698
112 124 97
113 859 222
114 130 599
115 52 803
116 888 289
117 970 456
118 854 776
119 600 549
120 877 51
121 992 969
122 80 304
123 893 539
124 805 76
125 990 256
126 873 464
127 306 119
128 101 574
129 836 204
130 74 223
131 438 996
132 150 894
133 979 964
134 733 939
135 716 390
136 787 27
137 947 450
138 599 860
139 893 538
140 801 106
141 846 847
142 627 625
143 553 193
144 435 902
145 860 100
146 472 765
147 605 123
148 887 327
149 752 426
150 996 198
151 789 612
152 803 935
153 361 801
154 760 739
155 170 958
156 786 418
157 531 586
158 646 977
159 892 113
160 486 445
161 778 834
162 438 499
163 128 494
164 572 1000
165 174 964
166 599 871
167 957 677
168 518 177
169 93 349
170 506 454
171 792 919
172 55 284
173 116 755
174 368 125
175 994 392
176 523 837
177 721 780
178 907 303
179 719 842
180 799 638
181 928 824
182 280 162
183 697 736
184 131 96
185 680 683
186 972 443
187 913 538
188 499 296
189 296 811
190 664 100
191 232 621
192 252 659
193 474 107
194 804 296
195 180 632
196 405 387
197 475 300
198 992 105
199 137 104
200 454 340
201 821 145
202 307 108
203 780 725
204 453 269
205 756 679
206 120 954
207 512 344
208 559 986
209 672 964
210 247 606
211 834 425
212 269 568
213 115 328
214 565 915
215 621 421
216 701 511
217 771 636
218 937 537
219 664 187
220 840 406
DEMAND_SECTION
2 6
3 2
4 2
5 1
6 8
7 3
8 1
9 4
10 7
11 10
12 4
13 6
14 9
15 7
16 2
17 6
18 2
19 2
20 5
21 4
22 6
23 4
24 10
25 1
26 1
27 1
28 3
29 1
30 4
31 6
32 1
33 7
34 9
35 7
36 3
37 10
38 10
39 6
40 4
41 1
42 3
43 10
44 10
45 7
46 9
47 10
48 8
49 4
COVERAGE_SECTION
2 9 153 189 5 103 34 146 32 30 79 
3 9 209 99 90 98 24 158 134 54 47 
4 9 25 195 91 67 84 191 36 114 192 
5 9 189 2 34 153 79 32 84 80 72 
6 9 206 65 74 132 11 155 165 115 72 
7 9 219 97 49 68 15 66 78 194 96 
8 9 121 133 35 59 102 63 181 152 141 
9 9 204 197 188 31 200 207 108 168 53 
10 9 122 172 169 213 130 93 60 81 22 
11 9 74 206 6 155 165 65 132 115 72 
12 9 207 160 170 55 200 31 44 58 188 
13 9 201 140 124 145 19 68 129 101 159 
14 9 174 127 202 100 182 52 193 61 204 
15 9 78 190 219 147 37 7 96 49 140 
16 9 216 82 41 57 119 105 149 142 151 
17 9 113 194 104 129 68 116 28 178 148 
18 9 75 150 125 113 116 178 129 19 159 
19 9 159 33 101 145 201 13 39 140 120 
20 9 48 86 176 138 27 166 214 146 54 
21 9 156 51 109 220 211 149 28 104 135 
22 9 83 81 130 50 106 60 172 29 92 
23 8 38 167 187 123 139 218 85 180 
24 9 134 98 3 99 209 171 90 54 152 
25 9 4 195 67 91 114 36 69 191 84 
26 9 66 77 135 97 105 215 7 149 49 
27 9 166 138 214 176 20 86 48 47 64 
28 9 148 104 116 178 194 51 220 21 17 
29 9 106 83 50 112 184 92 199 81 22 
30 9 73 95 144 189 131 153 2 5 165 
31 9 188 207 197 9 200 204 12 143 108 
32 9 34 84 80 192 4 5 79 72 191 
33 9 159 101 19 145 120 39 201 13 62 
34 9 32 84 80 79 5 72 189 192 4 
35 9 59 133 121 8 152 63 171 102 141 
36 9 67 195 114 25 191 89 210 128 4 
37 9 78 190 15 136 124 140 147 13 219 
38 7 23 167 218 187 123 139 85 
39 9 120 101 145 124 33 159 19 136 140 
40 9 142 107 185 87 46 183 71 119 157 
41 8 16 151 216 217 82 180 85 205 
42 9 141 118 76 181 161 63 171 203 102 
43 9 137 56 186 148 175 220 117 126 51 
44 9 55 170 160 215 119 12 105 77 157 
45 9 125 56 178 175 116 150 18 148 75 
46 9 185 71 111 107 183 205 154 203 40 
47 9 164 208 64 158 214 90 209 99 27 
48 9 20 86 176 146 138 27 166 103 40 
49 8 97 219 96 143 7 147 15 53 
50 9 106 83 29 22 81 112 92 184 199 
51 9 220 211 21 156 28 109 126 43 148 
52 6 61 182 127 202 174 14 
53 7 168 143 96 100 193 9 147 
54 9 179 98 99 24 90 134 3 209 161 
55 9 215 44 12 77 170 105 160 207 119 
56 9 178 45 148 43 175 116 28 125 186 
57 9 149 109 82 156 216 135 16 211 21 
58 9 196 160 200 162 170 12 207 108 197 
59 9 35 152 133 171 121 8 141 63 76 
60 9 130 81 172 92 122 22 10 83 199 
61 6 52 127 202 182 174 14 
62 9 120 198 70 39 33 101 159 145 19 
63 9 102 181 42 133 141 121 35 118 59 
64 9 208 164 47 214 158 27 90 131 166 
65 9 6 115 132 206 74 11 72 173 155 
66 9 26 135 77 97 7 105 215 49 194 
67 9 114 25 195 36 4 128 69 89 91 
68 9 129 17 201 113 13 7 194 140 19 
69 6 91 114 25 67 128 4 
70 9 198 62 150 33 159 18 75 101 19 
71 9 111 46 205 183 154 185 203 107 177 
72 9 80 79 173 84 34 32 132 115 91 
73 9 95 30 131 144 153 189 2 5 165 
74 9 206 11 155 165 6 132 65 79 115 
75 9 18 150 113 125 116 129 19 178 159 
76 9 141 161 42 118 171 152 179 181 177 
77 9 215 105 26 55 66 135 12 44 207 
78 9 15 190 37 140 124 13 136 219 201 
79 9 72 34 80 5 189 84 32 132 173 
80 9 84 72 34 32 173 79 4 91 25 
81 9 60 130 83 22 92 106 112 199 29 
82 9 216 57 16 41 149 109 156 105 135 
83 9 106 50 29 81 22 92 112 184 199 
84 9 80 32 34 4 72 173 91 79 192 
85 7 151 180 123 139 217 23 187 
86 9 176 20 48 27 146 138 166 214 103 
87 6 157 40 142 119 107 185 
88 6 69 115 91 173 128 25 
89 5 128 163 114 36 67 
90 9 99 209 98 158 3 24 134 54 47 
91 9 69 4 25 173 67 195 84 114 80 
92 9 199 112 184 29 81 83 106 60 50 
93 6 169 213 122 10 163 172 
94 7 182 52 108 61 127 213 14 
95 9 73 30 131 144 165 155 189 153 2 
96 8 143 49 147 219 53 168 97 190 
97 9 49 219 7 96 66 26 143 15 147 
98 9 99 90 24 3 54 209 134 158 179 
99 9 90 209 98 3 158 24 134 54 47 
100 7 193 168 53 14 174 143 9 
101 9 145 33 159 19 39 120 201 124 140 
102 9 63 181 133 121 8 42 35 141 59 
103 6 146 153 86 2 48 176 
104 9 194 28 17 116 148 178 21 113 51 
105 9 215 77 135 55 216 149 57 26 82 
106 9 50 83 29 112 92 81 184 22 199 
107 9 185 46 40 142 71 111 183 205 217 
108 9 204 200 196 197 9 188 58 31 207 
109 9 149 156 57 21 135 211 51 220 82 
110 5 212 210 191 36 192 
111 9 71 205 46 154 203 183 185 107 217 
112 9 184 199 92 29 106 83 81 50 60 
113 9 129 17 68 116 75 18 201 104 194 
114 7 67 128 36 25 69 89 195 
115 9 65 173 88 72 6 80 132 91 79 
116 9 178 148 28 104 17 113 56 194 18 
117 9 186 137 175 43 218 126 187 139 123 
118 9 42 141 76 181 203 161 154 63 177 
119 9 157 142 44 87 16 216 40 55 105 
120 9 39 101 145 33 159 19 124 62 136 
121 9 133 8 35 102 59 63 181 141 152 
122 9 10 172 213 169 130 93 60 81 22 
123 7 139 187 218 85 126 23 38 
124 9 140 136 13 39 145 201 101 120 19 
125 9 45 150 18 75 56 178 116 148 113 
126 7 211 220 51 137 139 123 43 
127 6 202 52 61 182 174 14 
128 5 114 89 67 69 36 
129 9 113 68 17 201 13 19 75 194 116 
130 9 60 81 172 22 122 10 83 213 92 
131 9 73 144 95 64 208 30 164 214 47 
132 9 6 155 206 165 65 74 79 72 11 
133 9 121 8 35 59 102 63 181 141 152 
134 9 24 98 3 99 171 209 152 90 54 
135 9 149 109 105 26 156 57 66 21 77 
136 9 124 39 140 37 120 78 145 13 101 
137 9 117 186 43 126 175 218 187 139 123 
138 9 166 27 20 214 176 86 48 54 90 
139 7 123 187 218 85 126 23 38 
140 9 13 124 201 145 19 101 39 78 136 
141 9 76 42 161 118 181 171 152 63 59 
142 9 40 107 87 185 119 46 157 16 41 
143 7 53 168 96 49 147 9 100 
144 9 131 73 30 176 86 153 95 214 27 
145 9 101 19 159 33 39 120 140 124 201 
146 7 103 86 48 176 20 153 2 
147 8 96 190 15 143 219 49 53 168 
148 9 28 178 116 56 104 43 51 194 17 
149 9 109 57 156 135 21 82 211 51 220 
150 9 125 18 75 198 70 45 159 33 178 
151 8 180 217 85 41 205 111 71 203 
152 9 171 134 24 59 76 141 161 35 3 
153 9 2 189 5 103 146 144 30 34 32 
154 9 203 71 111 177 205 183 46 161 185 
155 9 165 206 74 132 6 11 65 79 30 
156 9 109 149 21 211 57 51 220 135 82 
157 6 87 119 142 44 40 162 
158 9 209 90 99 3 47 98 164 208 24 
159 9 33 101 19 145 120 39 201 13 140 
160 9 170 58 12 162 44 55 196 207 200 
161 9 76 179 141 177 42 171 54 118 154 
162 6 160 58 170 196 44 157 
163 3 89 128 36 
164 9 208 64 47 158 214 90 209 99 27 
165 9 155 74 206 132 6 11 65 79 30 
166 9 138 27 214 20 176 86 90 54 48 
167 9 38 23 218 118 187 85 181 123 139 
168 7 53 143 100 96 193 9 147 
169 6 213 93 10 122 172 130 
170 9 160 44 12 55 162 58 207 215 196 
171 9 152 134 24 76 161 141 59 98 179 
172 9 10 122 130 213 169 60 81 22 93 
173 9 72 80 91 115 84 4 79 69 25 
174 8 14 127 202 52 100 182 61 193 
175 9 186 117 56 137 43 45 178 148 125 
176 9 86 20 27 48 138 166 146 214 144 
177 9 183 154 179 71 161 203 111 46 54 
178 9 116 148 56 28 104 45 17 113 125 
179 9 54 161 177 98 24 134 76 171 183 
180 8 151 217 205 85 111 41 203 71 
181 9 63 102 42 141 118 76 35 133 59 
182 7 52 61 127 202 174 14 94 
183 9 46 71 177 111 185 154 107 205 203 
184 9 112 199 92 29 106 83 81 50 60 
185 9 107 46 71 183 111 40 205 142 154 
186 9 117 137 175 43 218 126 56 187 123 
187 7 123 139 218 23 38 126 85 
188 9 31 197 9 207 204 200 12 108 143 
189 9 5 2 153 34 79 32 30 84 80 
190 8 15 78 147 37 219 96 49 7 
191 9 210 192 195 36 212 4 25 110 67 
192 9 191 210 32 195 4 84 212 25 34 
193 7 100 168 53 174 14 143 147 
194 9 104 17 28 21 116 148 113 68 129 
195 9 25 4 67 36 191 114 210 91 192 
196 9 58 200 108 160 197 12 207 162 170 
197 9 188 9 204 31 200 207 108 12 196 
198 9 70 62 150 33 159 101 18 75 19 
199 9 184 112 92 29 106 81 83 60 50 
200 9 197 207 188 31 196 204 9 108 58 
201 9 13 140 19 145 129 68 124 101 159 
202 6 127 61 52 182 174 14 
203 9 154 111 205 71 177 183 46 180 217 
204 9 9 197 188 200 31 108 207 168 53 
205 9 111 71 217 203 46 180 154 151 185 
206 9 74 6 11 155 165 132 65 79 115 
207 9 31 12 188 197 200 9 204 160 55 
208 9 64 164 47 214 158 27 90 209 131 
209 9 3 99 90 158 98 24 134 47 54 
210 9 191 212 192 110 195 36 4 25 67 
211 9 220 51 156 126 21 109 149 43 57 
212 6 110 210 191 192 36 195 
213 7 169 122 10 93 172 130 60 
214 9 27 166 47 138 64 208 164 176 20 
215 9 77 105 55 44 26 135 12 66 170 
216 9 16 82 41 57 105 149 119 109 215 
217 9 180 151 205 111 41 85 71 203 46 
218 7 187 123 139 38 23 117 137 
219 9 49 97 7 15 96 147 190 78 143 
220 9 51 211 21 156 126 109 28 43 149 
DEPOT_SECTION
   1
   -1
EOF
