NAME :  X-n247-kX-w24-c9.cctp
COMMENT : 	Adapted by Maziero, Usberti and Cavellucci from the Uchoa, Pecin, Pessoa, Poggi, Subramanian, and Vidal (2013)
TYPE :  CCTP
DIMENSION :    176
EDGE_WEIGHT_TYPE : 	EUC_2D	
CAPACITY : 	134
VERTICES_WITHIN_COVERAGE :  9
VERTICES_WITH_DEMAND : 	24
NODE_COORD_SECTION
1 500 500
2 612 199
3 864 279
4 746 395
5 738 519
6 797 59
7 867 206
8 846 399
9 654 172
10 874 275
11 675 479
12 780 372
13 692 446
14 541 183
15 747 432
16 845 403
17 787 317
18 472 325
19 682 246
20 779 308
21 815 316
22 690 306
23 923 403
24 643 526
25 849 293
26 789 424
27 766 443
28 833 421
29 949 458
30 675 431
31 930 480
32 677 173
33 479 247
34 849 285
35 711 358
36 794 366
37 878 230
38 564 141
39 845 320
40 769 345
41 700 404
42 851 369
43 925 215
44 418 269
45 766 533
46 933 280
47 671 522
48 725 496
49 863 250
50 663 460
51 848 251
52 689 490
53 745 448
54 776 427
55 783 292
56 680 173
57 895 273
58 886 125
59 930 364
60 584 185
61 440 130
62 684 326
63 737 309
64 554 164
65 859 254
66 981 334
67 717 258
68 855 321
69 623 443
70 686 463
71 733 431
72 586 486
73 523 196
74 712 541
75 759 432
76 658 583
77 860 312
78 762 359
79 498 208
80 504 64
81 842 221
82 895 461
83 870 277
84 644 438
85 556 305
86 747 522
87 646 445
88 867 380
89 669 372
90 663 507
91 384 100
92 791 379
93 650 277
94 897 279
95 758 306
96 641 183
97 904 291
98 825 374
99 405 305
100 786 431
101 758 442
102 750 530
103 567 564
104 890 268
105 833 289
106 637 408
107 845 276
108 809 347
109 818 88
110 678 259
111 853 219
112 493 509
113 581 187
114 789 397
115 537 240
116 714 339
117 777 371
118 683 378
119 499 301
120 835 370
121 598 221
122 857 214
123 463 400
124 844 400
125 860 267
126 662 184
127 638 185
128 781 293
129 866 305
130 786 343
131 715 530
132 992 531
133 753 534
134 566 216
135 934 403
136 590 211
137 646 141
138 719 302
139 597 150
140 761 360
141 761 367
142 813 282
143 775 536
144 870 167
145 713 265
146 713 242
147 855 296
148 535 169
149 900 254
150 877 365
151 872 218
152 680 535
153 687 498
154 741 557
155 720 61
156 764 452
157 500 143
158 916 505
159 720 452
160 855 297
161 755 492
162 748 411
163 829 123
164 651 282
165 839 364
166 839 66
167 846 29
168 604 597
169 762 520
170 896 131
171 586 465
172 582 216
173 681 187
174 725 408
175 792 337
176 677 142
DEMAND_SECTION
2 99
3 72
4 87
5 77
6 78
7 76
8 74
9 78
10 92
11 96
12 75
13 96
14 72
15 99
16 63
17 93
18 64
19 68
20 82
21 53
22 91
23 74
24 67
25 65
COVERAGE_SECTION
2 9 136 121 127 60 96 113 172 134 9 
3 9 83 10 125 34 107 147 160 25 65 
4 9 162 174 141 15 71 140 75 78 117 
5 9 86 102 133 169 131 48 45 161 74 
6 6 109 166 167 163 155 58 
7 8 122 151 111 37 81 144 49 51 
8 9 124 16 28 88 42 120 98 165 150 
9 7 126 96 127 32 56 173 137 
10 9 83 3 125 104 57 94 65 34 49 
11 9 52 70 50 153 90 13 47 87 30 
12 9 117 92 36 141 78 140 114 40 130 
13 9 70 30 159 50 11 41 52 71 87 
14 9 148 73 64 113 134 60 38 79 172 
15 9 75 71 101 53 162 27 156 54 174 
16 9 124 8 28 88 120 42 98 165 150 
17 9 20 175 55 128 130 21 95 40 108 
18 7 119 99 123 33 44 85 115 
19 9 110 146 145 67 93 164 173 22 126 
20 9 17 128 55 95 175 130 21 40 63 
21 9 17 39 175 105 108 142 20 55 68 
22 9 62 138 116 164 63 145 93 110 67 
23 7 135 59 150 29 88 82 8 
24 9 47 90 152 153 11 52 76 50 72 
25 9 147 160 34 105 107 3 129 77 83 
26 8 100 54 114 27 75 101 156 15 
27 9 101 156 75 54 15 53 100 26 71 
28 8 16 124 8 26 98 100 114 120 
29 7 31 82 135 158 23 132 59 
30 9 13 50 84 87 70 41 106 11 159 
31 6 29 158 82 23 135 132 
32 5 56 173 126 9 176 
33 7 79 115 119 44 73 18 14 
34 9 25 107 147 160 3 105 125 83 129 
35 8 116 118 62 89 41 140 4 78 
36 9 92 12 117 108 130 175 114 98 40 
37 9 151 49 7 122 111 65 149 51 81 
38 8 64 139 148 14 60 113 157 73 
39 7 68 77 160 129 147 25 21 
40 8 78 130 140 141 175 117 12 17 
41 9 174 118 30 13 71 89 4 35 162 
42 7 165 120 88 98 150 8 124 
43 6 149 37 151 7 104 46 
44 8 99 33 18 119 79 115 73 123 
45 8 143 133 169 102 86 5 154 161 
46 6 97 94 57 149 104 10 
47 9 152 90 24 153 52 11 74 131 48 
48 9 5 161 86 131 52 153 102 159 169 
49 8 65 51 125 37 10 83 3 104 
50 9 11 70 87 84 30 13 52 69 153 
51 8 65 49 125 107 81 3 111 34 
52 9 153 11 70 90 48 47 50 13 152 
53 9 101 15 156 71 75 27 159 54 162 
54 9 100 26 75 27 101 156 15 162 114 
55 6 128 20 17 95 142 21 
56 5 32 173 126 9 176 
57 8 94 104 97 149 10 83 3 125 
58 7 170 144 163 166 109 7 122 
59 6 135 23 150 66 88 97 
60 9 113 136 2 172 134 64 139 121 14 
61 9 157 91 80 79 148 73 14 64 33 
62 9 22 116 35 138 89 118 164 63 93 
63 8 138 95 116 20 22 128 40 55 
64 9 148 14 38 113 60 73 139 134 157 
65 8 49 51 125 3 83 10 107 37 
66 6 59 46 135 97 23 94 
67 7 145 146 19 110 138 22 63 
68 7 39 77 129 160 147 25 34 
69 9 84 87 106 50 171 30 72 11 70 
70 9 13 11 50 52 30 153 159 87 84 
71 9 15 53 174 159 162 75 101 27 156 
72 9 171 69 24 87 84 90 103 50 11 
73 8 14 79 148 64 115 134 157 113 
74 7 131 152 154 5 86 102 133 
75 9 101 15 27 54 53 156 162 71 100 
76 5 152 168 24 47 74 
77 8 129 68 160 39 147 25 34 3 
78 8 140 141 40 117 12 130 36 92 
79 8 73 33 14 115 148 157 134 64 
80 7 157 61 38 148 64 14 91 
81 7 111 122 7 151 51 49 37 
82 7 31 158 29 23 135 28 16 
83 9 10 3 125 34 104 147 57 65 107 
84 9 87 69 50 106 30 13 70 11 171 
85 5 119 115 18 134 172 
86 9 5 102 133 169 45 143 161 131 48 
87 9 84 50 69 30 106 70 11 13 52 
88 7 150 42 8 124 16 165 120 
89 9 118 35 41 62 106 116 30 174 22 
90 9 47 153 24 11 52 152 50 70 131 
91 9 61 157 80 79 148 73 44 33 14 
92 9 12 36 117 114 141 98 78 130 140 
93 8 164 110 19 22 62 145 67 146 
94 8 57 104 97 10 149 83 3 46 
95 8 20 63 128 55 17 138 40 130 
96 8 127 9 126 2 32 56 173 137 
97 9 94 57 104 46 10 83 149 129 3 
98 9 120 165 42 108 36 124 8 92 16 
99 8 44 18 33 119 123 79 115 85 
100 8 26 54 27 75 101 156 114 15 
101 9 27 75 156 53 15 54 71 100 162 
102 9 133 86 5 45 169 143 154 131 161 
103 7 168 72 24 112 76 171 47 
104 9 57 94 10 149 83 97 3 125 49 
105 9 25 34 107 142 147 160 21 3 39 
106 9 84 69 87 30 89 118 50 41 13 
107 9 34 25 125 105 3 147 160 51 83 
108 9 175 130 36 98 21 165 120 17 92 
109 7 166 6 163 167 58 170 144 
110 9 19 93 164 145 67 146 22 138 62 
111 8 122 81 7 151 37 51 49 65 
112 9 103 72 171 123 168 69 24 87 84 
113 9 60 136 172 2 134 64 121 14 139 
114 9 92 12 26 117 36 54 100 141 4 
115 7 134 73 79 172 14 33 136 
116 8 35 62 138 63 22 118 140 78 
117 9 12 92 141 36 78 140 40 114 130 
118 9 89 41 35 116 62 174 30 106 4 
119 6 18 85 33 115 44 79 
120 8 165 98 42 8 124 16 88 108 
121 8 136 172 2 134 113 60 127 96 
122 8 111 7 151 81 37 49 51 65 
123 8 18 119 99 112 85 44 171 72 
124 9 8 16 28 88 120 42 98 165 150 
125 9 3 65 83 10 49 107 51 34 25 
126 6 9 32 173 56 96 127 
127 8 96 9 126 2 32 173 56 137 
128 6 55 20 17 95 142 21 
129 8 77 147 160 68 25 3 34 39 
130 9 175 40 108 36 17 78 117 12 140 
131 9 74 5 86 48 102 152 154 133 153 
132 6 31 158 29 82 135 23 
133 8 102 45 86 169 5 143 154 131 
134 8 172 136 121 113 60 115 14 73 
135 7 23 59 29 150 82 88 31 
136 8 172 121 2 134 113 60 127 14 
137 5 176 9 96 32 127 
138 7 63 22 116 145 95 62 67 
139 9 38 60 113 64 137 2 127 96 9 
140 8 78 141 40 117 12 130 36 92 
141 8 140 78 117 12 40 4 92 36 
142 6 105 55 107 21 128 34 
143 7 45 169 133 102 86 154 5 
144 9 7 170 58 122 151 111 163 81 37 
145 8 67 146 19 110 138 22 63 95 
146 6 67 145 19 110 138 173 
147 9 160 25 34 129 77 3 107 105 83 
148 9 14 64 73 38 157 113 60 79 134 
149 6 104 57 94 10 37 49 
150 5 88 42 165 120 8 
151 8 7 37 122 111 81 49 65 51 
152 9 47 74 90 131 24 153 52 76 11 
153 9 52 11 90 47 70 48 152 131 50 
154 7 133 102 74 45 86 131 5 
155 1 6 
156 9 27 101 53 75 15 54 100 71 26 
157 8 148 14 64 73 61 38 79 80 
158 5 31 82 29 132 23 
159 9 53 71 13 15 70 101 48 75 156 
160 9 147 25 34 129 77 3 105 107 68 
161 9 169 48 86 5 102 156 45 133 53 
162 9 4 15 174 75 71 54 101 27 53 
163 7 109 58 166 144 170 6 7 
164 8 93 110 22 19 62 145 67 138 
165 8 120 42 98 88 108 8 124 150 
166 7 109 167 6 163 58 170 144 
167 7 166 6 109 163 58 170 155 
168 5 103 76 24 152 47 
169 8 45 86 102 133 143 5 161 154 
170 7 58 144 163 7 166 43 109 
171 9 72 69 87 84 106 50 24 90 11 
172 8 136 134 121 113 60 2 115 14 
173 5 56 32 126 9 96 
174 9 162 71 4 41 15 75 159 53 101 
175 9 130 108 17 40 36 21 20 12 78 
176 4 32 56 137 9 
DEPOT_SECTION
   1
   -1
EOF
