NAME :  X-n204-kX-w40-c9.cctp
COMMENT : 	Adapted by Maziero, Usberti and Cavellucci from the Uchoa, Pecin, Pessoa, Poggi, Subramanian, and Vidal (2013)
TYPE :  CCTP
DIMENSION :    152
EDGE_WEIGHT_TYPE : 	EUC_2D	
CAPACITY : 	836
VERTICES_WITHIN_COVERAGE :  9
VERTICES_WITH_DEMAND : 	40
NODE_COORD_SECTION
1 500 500
2 221 542
3 320 456
4 576 827
5 679 994
6 371 461
7 961 844
8 986 379
9 175 540
10 126 517
11 329 626
12 477 890
13 191 356
14 584 917
15 308 653
16 0 7
17 273 302
18 672 381
19 235 415
20 583 149
21 672 124
22 644 646
23 400 544
24 832 999
25 842 964
26 582 965
27 544 311
28 429 2
29 939 849
30 898 605
31 363 130
32 639 874
33 323 201
34 829 350
35 7 53
36 801 92
37 57 330
38 943 0
39 579 275
40 833 402
41 408 940
42 635 871
43 631 630
44 733 313
45 344 619
46 628 291
47 674 92
48 38 354
49 473 107
50 668 279
51 510 811
52 366 16
53 49 182
54 528 946
55 271 745
56 405 872
57 622 488
58 668 978
59 939 73
60 556 632
61 270 446
62 586 348
63 951 167
64 247 997
65 992 460
66 746 847
67 279 459
68 364 167
69 656 687
70 547 792
71 517 152
72 252 618
73 184 96
74 590 47
75 348 609
76 777 112
77 528 198
78 877 457
79 812 650
80 864 723
81 584 875
82 817 233
83 439 447
84 560 994
85 818 658
86 447 951
87 969 519
88 488 401
89 287 534
90 399 181
91 141 22
92 29 248
93 313 643
94 294 475
95 327 361
96 332 440
97 242 943
98 96 492
99 62 541
100 119 370
101 342 587
102 316 552
103 90 370
104 111 575
105 321 337
106 287 454
107 364 560
108 215 488
109 351 232
110 216 497
111 133 584
112 188 327
113 175 352
114 281 702
115 247 645
116 424 677
117 438 666
118 454 547
119 354 242
120 96 387
121 462 532
122 343 658
123 127 368
124 245 363
125 356 488
126 259 410
127 196 492
128 303 336
129 243 888
130 287 528
131 285 277
132 167 560
133 328 277
134 355 399
135 236 522
136 308 118
137 345 467
138 250 337
139 232 388
140 498 308
141 362 702
142 105 507
143 245 521
144 576 280
145 257 647
146 423 470
147 206 467
148 241 305
149 210 392
150 371 627
151 219 344
152 96 427
DEMAND_SECTION
2 61
3 96
4 52
5 58
6 81
7 76
8 51
9 98
10 65
11 84
12 63
13 79
14 89
15 70
16 93
17 84
18 100
19 70
20 52
21 86
22 69
23 50
24 59
25 79
26 53
27 66
28 65
29 70
30 74
31 86
32 77
33 83
34 50
35 76
36 62
37 73
38 54
39 100
40 99
41 59
COVERAGE_SECTION
2 8 135 143 110 9 108 127 132 89 
3 8 96 137 94 106 67 125 6 61 
4 9 70 81 51 42 32 14 12 54 26 
5 9 58 26 84 14 32 42 81 24 54 
6 9 137 125 96 3 146 134 83 94 106 
7 9 29 80 25 24 66 85 79 30 5 
8 9 65 78 87 40 34 63 82 30 44 
9 8 132 2 127 10 110 111 135 108 
10 8 142 98 9 132 104 111 99 127 
11 9 45 93 75 15 122 101 150 102 107 
12 9 86 56 54 41 51 81 14 4 70 
13 9 113 112 151 149 139 124 138 123 148 
14 9 81 26 54 42 32 84 4 58 12 
15 9 93 11 122 45 145 114 75 115 72 
16 9 35 91 53 73 92 136 37 48 52 
17 8 131 148 138 128 105 133 124 151 
18 9 44 62 46 50 57 144 39 27 34 
19 8 126 139 149 61 124 147 67 106 
20 7 71 77 21 74 47 49 39 
21 9 47 20 76 74 36 50 71 77 46 
22 9 43 69 60 57 79 85 70 4 117 
23 9 107 118 121 125 101 146 75 102 6 
24 9 25 5 58 66 29 7 32 42 26 
25 9 24 29 66 5 7 58 32 42 80 
26 9 84 14 54 58 81 5 32 42 12 
27 5 144 140 39 62 46 
28 8 52 49 31 74 136 71 68 90 
29 9 7 80 25 24 66 85 79 30 5 
30 9 85 79 87 80 78 65 40 8 7 
31 5 68 136 90 33 109 
32 9 42 81 14 4 26 58 66 70 5 
33 8 109 119 68 133 90 31 136 131 
34 9 40 44 78 82 8 18 50 65 46 
35 9 16 53 91 73 92 37 48 136 103 
36 9 76 47 21 59 82 63 38 74 20 
37 8 48 103 120 100 123 92 152 113 
38 9 59 63 36 76 82 47 21 74 34 
39 7 144 27 46 62 140 50 77 
40 9 34 78 44 8 18 65 82 87 50 
41 9 86 56 12 54 84 51 97 64 129 
42 9 32 81 14 4 26 58 66 70 5 
43 9 22 69 60 57 70 79 85 118 121 
44 9 50 18 34 46 82 40 62 39 144 
45 9 75 11 150 101 93 122 15 107 102 
46 9 50 39 144 62 27 18 44 140 77 
47 9 21 74 76 20 36 71 77 50 82 
48 8 37 103 120 100 123 152 92 113 
49 4 71 90 77 31 
50 9 46 44 39 144 18 62 27 20 21 
51 9 70 4 12 81 56 14 54 42 32 
52 7 28 31 136 49 68 90 33 
53 9 92 35 37 73 48 16 91 103 100 
54 9 26 84 14 12 86 81 41 4 42 
55 6 114 15 145 141 115 93 
56 9 41 12 86 51 54 70 129 141 4 
57 9 18 43 62 60 22 88 121 118 83 
58 9 5 26 14 32 84 42 81 54 66 
59 9 38 63 36 76 82 47 21 34 8 
60 9 43 22 69 117 118 121 116 57 70 
61 6 67 106 94 126 19 3 
62 8 27 144 46 39 18 140 50 88 
63 9 59 82 38 36 76 8 34 44 40 
64 4 97 129 41 56 
65 9 87 8 78 40 30 34 79 85 82 
66 9 32 42 25 58 5 81 4 80 24 
67 5 106 61 94 3 126 
68 6 31 90 33 109 136 119 
69 9 22 43 60 70 79 4 85 66 42 
70 9 51 4 81 42 12 32 14 69 54 
71 3 77 49 20 
72 9 115 145 15 93 11 2 114 89 45 
73 9 91 136 53 33 31 35 68 52 16 
74 8 47 20 21 71 49 77 28 76 
75 9 45 101 11 150 93 122 107 15 102 
76 9 36 47 21 82 59 63 20 74 50 
77 2 71 20 
78 9 40 87 65 34 8 30 44 79 85 
79 9 85 80 30 69 22 43 78 87 66 
80 9 85 79 30 29 7 66 69 87 22 
81 9 14 4 42 32 26 54 70 51 12 
82 9 44 34 76 36 63 50 40 21 46 
83 8 146 88 6 121 125 137 134 118 
84 9 26 54 14 58 5 81 86 12 32 
85 9 79 80 30 69 22 43 66 87 78 
86 9 41 12 54 56 84 26 14 51 81 
87 9 65 78 30 8 40 79 85 34 80 
88 5 83 140 146 27 62 
89 6 130 102 143 135 94 2 
90 3 68 31 109 
91 9 73 35 16 53 136 52 31 92 33 
92 9 53 37 48 103 100 120 123 112 113 
93 9 15 11 122 45 75 145 150 101 72 
94 6 67 106 3 61 96 137 
95 5 105 128 134 96 17 
96 9 3 137 6 106 134 94 125 67 61 
97 4 64 129 41 56 
98 7 142 10 99 152 104 9 132 
99 5 142 98 104 10 111 
100 8 123 103 120 113 152 13 37 112 
101 9 75 45 107 11 102 150 93 122 23 
102 8 89 130 101 107 75 45 11 125 
103 8 120 100 123 37 48 152 113 13 
104 3 111 132 10 
105 6 128 95 17 133 131 134 
106 6 67 61 94 3 96 126 
107 9 101 23 102 75 45 150 125 11 89 
108 6 110 127 147 135 143 2 
109 6 119 33 133 68 90 131 
110 6 108 127 135 147 143 2 
111 3 104 132 9 
112 9 113 13 151 148 138 124 149 123 139 
113 9 13 112 151 123 149 100 139 124 138 
114 9 55 15 145 115 93 122 141 72 11 
115 8 145 72 15 93 114 11 122 45 
116 9 117 141 150 122 45 75 11 93 15 
117 9 116 150 141 122 45 75 11 118 60 
118 9 121 23 146 107 83 125 150 101 6 
119 6 109 133 33 68 90 131 
120 8 103 100 123 152 48 37 113 13 
121 9 118 23 146 83 107 6 125 101 150 
122 9 93 11 15 45 150 141 75 101 114 
123 8 100 120 103 113 13 152 112 37 
124 9 138 139 151 149 126 19 13 148 128 
125 9 137 6 3 96 94 146 23 107 102 
126 8 19 139 61 124 106 149 67 94 
127 7 108 110 147 135 9 2 143 
128 7 105 95 17 138 131 124 133 
129 5 97 64 55 56 41 
130 6 89 102 143 135 94 2 
131 8 17 133 148 128 138 105 119 109 
132 7 9 111 2 104 10 127 135 
133 7 131 119 109 17 105 128 33 
134 6 95 96 6 3 137 105 
135 5 143 2 110 108 127 
136 8 31 68 33 90 52 109 73 119 
137 9 125 3 6 96 94 106 67 134 61 
138 9 124 151 148 17 128 139 13 112 149 
139 9 149 19 124 126 151 13 138 113 61 
140 3 27 144 39 
141 9 122 116 15 150 93 114 11 117 45 
142 7 98 10 99 104 9 152 111 
143 6 135 2 110 130 89 108 
144 7 39 27 46 62 140 50 77 
145 8 115 72 15 93 114 11 122 45 
146 9 83 6 125 121 23 137 118 88 96 
147 6 108 127 110 19 135 61 
148 9 17 138 151 131 112 124 128 13 113 
149 9 139 19 13 124 151 126 113 138 112 
150 9 45 75 11 122 101 93 107 15 116 
151 9 13 124 138 112 113 148 139 149 17 
152 8 120 103 100 98 123 142 48 10 
DEPOT_SECTION
   1
   -1
EOF
