NAME :  X-n270-kX-w107-c11.cctp
COMMENT : 	Adapted by Maziero, Usberti and Cavellucci from the Uchoa, Pecin, Pessoa, Poggi, Subramanian, and Vidal (2013)
TYPE :  CCTP
DIMENSION :    236
EDGE_WEIGHT_TYPE : 	EUC_2D	
CAPACITY : 	585
VERTICES_WITHIN_COVERAGE :  11
VERTICES_WITH_DEMAND : 	107
NODE_COORD_SECTION
1 500 500
2 643 512
3 707 407
4 394 355
5 140 470
6 364 215
7 493 857
8 117 466
9 462 38
10 551 479
11 742 498
12 533 706
13 788 425
14 799 6
15 836 680
16 88 225
17 164 988
18 537 20
19 612 395
20 314 942
21 342 974
22 518 758
23 860 774
24 313 36
25 275 23
26 324 971
27 822 588
28 272 458
29 620 666
30 868 427
31 694 750
32 953 419
33 236 823
34 887 411
35 124 814
36 193 899
37 687 303
38 447 220
39 716 472
40 415 141
41 738 309
42 445 672
43 524 60
44 112 157
45 859 935
46 104 596
47 556 54
48 362 223
49 723 661
50 474 338
51 274 568
52 315 380
53 704 863
54 936 260
55 93 859
56 703 935
57 381 302
58 695 239
59 880 823
60 335 961
61 37 637
62 288 169
63 455 499
64 599 796
65 155 910
66 80 459
67 93 565
68 959 544
69 926 58
70 762 531
71 22 839
72 459 575
73 737 409
74 854 328
75 921 781
76 221 23
77 685 179
78 202 804
79 422 992
80 945 292
81 66 976
82 487 429
83 614 711
84 407 546
85 883 298
86 709 692
87 535 319
88 965 217
89 336 35
90 703 595
91 677 841
92 51 503
93 334 968
94 628 154
95 488 437
96 680 869
97 987 264
98 474 906
99 866 911
100 940 542
101 106 988
102 558 398
103 661 206
104 500 17
105 710 588
106 23 696
107 181 909
108 107 556
109 516 409
110 345 879
111 684 742
112 86 682
113 447 182
114 825 545
115 880 72
116 840 689
117 129 532
118 89 305
119 434 407
120 348 132
121 390 473
122 598 286
123 464 891
124 671 336
125 762 909
126 136 633
127 40 814
128 445 889
129 980 135
130 318 2
131 688 101
132 387 142
133 480 339
134 884 826
135 907 96
136 207 24
137 557 694
138 740 695
139 897 75
140 731 708
141 699 899
142 768 584
143 153 53
144 671 669
145 818 715
146 933 659
147 500 706
148 891 85
149 73 147
150 862 849
151 504 643
152 539 728
153 139 118
154 931 588
155 850 28
156 891 612
157 709 636
158 628 448
159 277 45
160 588 720
161 803 710
162 712 63
163 804 68
164 536 318
165 189 17
166 548 667
167 838 835
168 890 749
169 998 675
170 862 272
171 551 695
172 692 757
173 735 752
174 468 626
175 535 665
176 734 66
177 936 93
178 941 63
179 717 545
180 929 175
181 719 743
182 224 25
183 709 712
184 467 579
185 550 683
186 264 122
187 749 182
188 234 56
189 868 936
190 790 705
191 576 674
192 494 607
193 412 701
194 614 627
195 883 597
196 233 64
197 598 659
198 813 611
199 916 105
200 868 603
201 555 673
202 93 100
203 743 870
204 600 452
205 619 753
206 892 181
207 850 547
208 600 727
209 63 175
210 789 598
211 753 615
212 896 100
213 803 64
214 835 42
215 591 543
216 576 872
217 530 707
218 187 153
219 627 789
220 787 650
221 194 350
222 857 704
223 487 672
224 511 732
225 872 794
226 864 58
227 143 149
228 910 236
229 963 91
230 747 666
231 712 736
232 302 59
233 935 107
234 766 680
235 680 683
236 648 800
DEMAND_SECTION
2 77
3 91
4 67
5 69
6 68
7 64
8 65
9 83
10 64
11 77
12 87
13 99
14 84
15 74
16 89
17 76
18 68
19 87
20 69
21 97
22 87
23 59
24 82
25 75
26 55
27 95
28 63
29 87
30 72
31 53
32 66
33 95
34 58
35 76
36 66
37 53
38 67
39 56
40 71
41 67
42 52
43 85
44 99
45 62
46 51
47 53
48 63
49 71
50 78
51 71
52 77
53 85
54 82
55 94
56 67
57 54
58 66
59 64
60 94
61 75
62 72
63 66
64 95
65 59
66 68
67 94
68 84
69 94
70 62
71 73
72 66
73 97
74 71
75 62
76 60
77 86
78 99
79 51
80 90
81 72
82 84
83 78
84 81
85 50
86 55
87 56
88 80
89 63
90 52
91 71
92 75
93 71
94 59
95 78
96 89
97 89
98 93
99 74
100 73
101 85
102 68
103 71
104 78
105 90
106 60
107 95
108 75
COVERAGE_SECTION
2 10 215 158 204 179 39 10 11 105 90 194 
3 11 73 39 124 13 158 19 11 41 37 204 2 
4 11 57 119 50 52 133 121 82 95 109 48 6 
5 11 8 66 117 108 92 67 46 221 28 126 51 
6 11 48 132 38 120 57 62 113 40 186 4 50 
7 11 123 98 128 216 22 64 224 152 110 219 147 
8 11 5 66 117 92 108 67 46 221 28 118 126 
9 11 104 43 18 47 40 89 132 113 120 130 24 
10 10 204 215 95 109 82 102 158 2 63 19 
11 11 39 70 179 13 73 142 114 105 3 2 90 
12 11 217 171 152 137 185 147 224 201 175 166 22 
13 11 73 30 3 11 39 34 70 74 41 114 207 
14 10 214 155 213 163 226 176 115 162 139 148 
15 8 116 222 145 161 190 220 234 198 
16 8 209 44 149 118 227 153 218 202 
17 11 101 65 107 36 81 55 20 26 93 60 21 
18 11 104 47 43 9 94 131 40 162 113 132 89 
19 11 102 158 204 124 3 109 10 87 164 122 37 
20 11 60 26 93 21 110 79 36 107 128 33 17 
21 11 93 60 26 20 79 110 128 98 123 36 107 
22 11 224 152 217 12 147 171 137 160 185 208 64 
23 9 225 168 59 134 75 167 222 145 150 
24 11 89 232 130 159 25 188 196 182 76 186 120 
25 11 159 24 232 130 182 188 76 196 89 136 165 
26 11 93 60 21 20 110 79 128 36 107 17 123 
27 11 198 210 114 200 207 142 195 220 156 211 70 
28 11 52 51 121 5 221 8 4 84 117 119 63 
29 11 197 194 83 191 144 235 160 208 201 137 166 
30 11 34 13 32 74 207 114 85 73 100 11 68 
31 9 172 111 231 181 173 183 140 86 235 
32 11 34 30 100 68 80 74 85 97 54 207 13 
33 11 78 36 107 35 65 110 20 55 60 26 93 
34 11 30 32 74 13 85 80 100 170 207 114 73 
35 11 55 78 127 65 71 36 107 33 112 106 81 
36 11 107 65 33 17 78 55 35 101 20 26 81 
37 11 124 41 58 122 103 3 73 19 77 187 164 
38 11 113 6 40 48 132 57 50 133 87 120 164 
39 11 11 3 73 179 70 2 13 158 105 204 142 
40 11 132 113 120 38 6 48 9 62 89 43 232 
41 11 37 124 58 73 3 74 13 187 103 170 77 
42 10 223 193 174 147 151 192 224 175 217 12 
43 11 47 18 104 9 40 94 113 132 131 38 162 
44 7 227 149 153 209 202 16 218 
45 11 189 99 150 125 167 134 59 203 225 56 23 
46 11 67 108 126 117 61 112 92 106 5 8 66 
47 11 43 18 104 9 94 131 162 40 113 176 77 
48 11 6 57 38 132 62 120 113 40 4 186 50 
49 11 230 157 86 138 234 140 235 144 183 211 220 
50 11 133 87 164 119 4 109 82 57 95 102 38 
51 11 28 84 117 121 126 5 108 46 67 72 8 
52 11 4 28 57 121 119 221 48 50 133 6 82 
53 10 96 91 141 203 56 125 236 172 219 31 
54 9 80 228 97 88 85 170 180 206 74 
55 11 35 127 71 65 107 36 81 78 101 17 33 
56 11 141 125 96 53 203 91 216 236 45 99 189 
57 11 4 48 6 50 52 38 133 119 113 87 164 
58 10 103 77 37 187 41 124 94 122 131 3 
59 10 134 225 150 167 23 75 168 99 45 189 
60 11 93 21 26 20 110 79 128 123 98 36 107 
61 11 106 112 46 67 126 108 92 117 127 66 8 
62 11 186 120 6 48 218 132 232 196 159 188 40 
63 11 84 95 121 72 82 184 119 10 109 192 174 
64 11 219 205 236 208 160 216 83 22 91 152 111 
65 11 107 36 17 55 101 35 81 78 33 127 71 
66 11 8 92 5 117 108 67 46 118 221 61 126 
67 11 108 46 117 92 126 61 8 5 66 112 106 
68 11 100 154 195 156 200 207 146 32 114 169 27 
69 10 178 139 177 135 148 115 199 229 233 212 
70 11 11 179 142 114 210 39 105 27 211 90 207 
71 11 127 55 35 106 81 65 112 101 107 36 78 
72 9 184 192 174 84 63 151 42 223 175 
73 11 3 13 39 11 124 41 158 37 70 19 30 
74 10 85 170 34 80 30 54 228 13 41 32 
75 11 168 225 134 59 23 150 167 222 145 116 146 
76 10 182 136 165 188 196 25 159 143 232 24 
77 11 103 58 94 187 131 162 176 37 122 41 124 
78 11 33 35 36 107 65 55 110 127 112 20 71 
79 11 21 93 60 26 98 128 123 20 110 7 216 
80 11 54 97 85 228 88 170 74 180 206 32 34 
81 11 101 17 65 55 107 71 36 127 35 78 33 
82 11 95 109 119 63 102 10 133 50 121 204 4 
83 11 208 160 205 29 191 197 137 171 185 201 144 
84 11 72 63 184 121 174 192 42 51 95 151 82 
85 10 170 74 80 54 228 97 34 88 206 30 
86 11 183 140 235 138 49 144 231 230 181 111 157 
87 11 164 133 50 122 102 109 19 82 95 38 119 
88 9 54 97 180 228 80 206 129 233 85 
89 11 24 130 232 159 25 120 188 196 182 186 76 
90 11 105 157 179 211 142 49 144 230 210 70 235 
91 11 96 53 236 141 203 219 172 64 31 56 111 
92 11 66 67 8 108 117 5 46 61 126 112 106 
93 11 60 21 26 20 110 79 128 123 98 36 107 
94 11 77 103 131 58 47 162 187 122 176 43 37 
95 11 82 109 119 63 10 102 133 50 121 204 4 
96 11 53 91 141 203 56 236 125 219 216 64 172 
97 9 80 54 88 228 180 85 170 206 129 
98 11 123 128 7 79 216 110 21 60 93 22 26 
99 11 45 189 150 167 134 59 125 225 203 23 75 
100 11 68 154 195 156 207 200 114 146 32 27 30 
101 11 81 17 65 107 36 55 71 35 127 78 33 
102 11 109 19 204 82 95 10 87 164 158 133 50 
103 11 77 58 94 187 37 122 131 41 124 162 176 
104 11 18 9 43 47 40 89 132 113 130 94 24 
105 11 90 179 157 211 142 49 70 210 230 144 11 
106 11 61 112 127 46 126 71 67 35 108 55 92 
107 11 36 65 17 55 33 78 101 35 81 20 26 
108 11 67 117 46 92 126 8 5 66 61 112 106 
109 11 82 95 102 10 133 50 119 87 164 204 19 
110 11 20 60 93 26 21 128 123 33 98 79 7 
111 11 31 172 231 181 183 173 86 140 235 205 236 
112 11 106 61 126 46 67 108 35 127 117 78 71 
113 11 38 40 132 6 48 120 57 43 9 50 62 
114 11 207 27 210 70 198 142 200 195 156 11 211 
115 9 139 148 226 212 135 69 199 155 214 
116 8 15 222 145 161 190 220 234 168 
117 11 108 67 5 8 46 92 66 126 61 51 112 
118 11 16 221 209 44 66 149 8 227 5 218 153 
119 11 82 95 4 121 50 109 133 63 57 52 102 
120 11 132 40 62 6 186 232 48 89 24 113 159 
121 11 63 84 119 95 82 4 28 52 72 184 109 
122 11 164 87 124 37 103 58 19 102 133 50 94 
123 11 98 128 7 79 216 110 22 60 21 93 20 
124 11 37 41 3 19 122 73 58 158 102 103 164 
125 11 203 56 141 53 96 45 99 167 91 189 150 
126 11 46 112 67 108 61 117 106 51 92 5 8 
127 11 71 55 35 106 112 65 78 81 107 36 61 
128 11 123 98 7 110 79 60 216 21 93 20 26 
129 8 229 233 177 180 199 178 88 135 
130 11 24 89 25 159 232 182 76 188 196 136 165 
131 10 162 176 77 94 187 103 163 213 58 47 
132 11 40 120 113 6 48 38 62 89 232 186 9 
133 11 50 87 164 109 119 4 82 95 102 57 38 
134 10 59 150 225 167 23 75 168 99 189 45 
135 8 212 199 148 139 177 233 115 69 
136 8 76 182 165 188 196 143 25 159 
137 11 171 185 201 12 166 191 217 175 152 160 197 
138 8 140 230 234 86 183 49 231 190 
139 10 148 115 135 212 69 199 226 177 178 233 
140 8 138 183 86 231 181 173 230 234 
141 10 53 56 96 203 91 125 236 216 219 172 
142 11 210 211 198 70 27 105 179 90 114 220 157 
143 4 165 136 153 76 
144 11 235 86 157 29 49 183 83 194 140 111 138 
145 5 161 190 116 15 222 
146 11 156 169 154 195 200 222 116 15 168 100 68 
147 11 224 217 12 223 152 171 175 22 185 137 166 
148 9 139 212 115 135 199 226 69 177 233 
149 6 209 44 202 227 153 16 
150 10 167 59 134 225 99 23 45 189 75 168 
151 10 223 192 175 174 166 201 185 147 42 12 
152 11 12 217 224 171 22 137 147 185 160 201 208 
153 6 227 44 202 218 143 149 
154 11 100 156 195 68 200 146 207 27 169 114 198 
155 10 214 226 115 14 213 163 139 148 69 212 
156 11 195 200 154 146 27 207 198 100 15 116 114 
157 11 49 90 105 230 211 144 235 86 138 234 140 
158 11 204 19 2 10 102 3 39 215 73 109 124 
159 11 25 232 24 188 196 182 130 76 89 136 186 
160 11 208 83 137 171 205 191 152 185 12 201 217 
161 6 190 145 116 15 234 222 
162 10 176 131 213 163 14 77 94 187 214 155 
163 10 213 214 155 226 14 176 115 148 162 139 
164 11 87 133 50 122 102 109 19 82 95 38 119 
165 8 136 76 182 143 188 196 25 159 
166 10 201 175 185 137 171 191 12 217 151 197 
167 8 150 59 134 225 23 99 75 168 
168 10 23 75 225 222 59 134 116 145 15 161 
169 11 146 154 156 75 168 68 195 222 100 200 116 
170 8 85 74 228 54 80 206 88 180 
171 11 137 185 12 201 217 166 191 175 152 160 147 
172 9 31 111 231 181 173 183 236 140 86 
173 6 181 231 31 172 140 183 
174 9 192 151 184 223 42 72 175 147 166 
175 10 166 201 185 171 137 151 12 191 217 223 
176 10 162 131 213 163 14 214 187 155 77 226 
177 9 233 199 229 135 178 69 212 139 148 
178 10 69 177 229 233 139 135 199 148 212 115 
179 11 105 70 90 11 142 39 211 2 210 157 114 
180 6 206 88 228 129 233 199 
181 9 231 173 31 172 183 111 140 86 138 
182 10 76 136 188 165 196 25 159 143 232 24 
183 11 86 140 231 181 138 111 31 235 172 173 49 
184 9 72 192 174 84 151 63 223 42 175 
185 10 201 171 137 166 175 191 12 217 152 160 
186 11 62 196 188 232 159 218 120 24 25 182 76 
187 8 77 58 103 131 176 94 162 41 
188 11 196 182 76 136 159 25 165 232 186 24 143 
189 11 45 99 150 167 125 134 59 203 225 23 75 
190 6 161 145 234 138 15 116 
191 11 201 197 137 185 166 171 175 29 160 83 12 
192 9 174 151 184 72 223 175 42 166 201 
193 10 42 223 147 174 224 151 217 22 12 192 
194 10 197 29 191 144 201 166 83 185 215 235 
195 11 200 156 154 207 27 198 114 100 146 68 210 
196 11 188 182 76 136 159 25 165 186 232 143 24 
197 11 29 191 194 201 166 83 137 185 171 160 175 
198 11 27 210 220 142 200 211 114 195 15 207 156 
199 8 135 233 212 177 148 139 69 115 
200 11 195 156 27 198 207 154 114 210 15 146 116 
201 10 166 185 137 191 171 175 12 217 197 152 
202 3 153 149 44 
203 7 53 125 141 96 91 56 167 
204 11 158 10 19 102 2 215 109 95 82 3 39 
205 11 208 219 83 160 64 236 111 172 31 152 137 
206 5 180 228 199 88 212 
207 11 114 27 200 195 198 156 210 70 100 142 154 
208 11 160 83 205 137 191 171 152 29 185 197 219 
209 6 149 44 16 202 227 153 
210 11 142 198 27 211 220 114 70 200 105 207 230 
211 11 142 210 157 220 105 230 90 49 198 234 27 
212 8 135 148 199 139 115 233 177 69 
213 10 163 214 14 155 226 176 115 148 162 139 
214 10 155 226 213 163 14 115 139 148 212 135 
215 9 2 10 194 204 158 192 197 90 29 
216 11 64 7 219 236 96 91 98 123 141 205 22 
217 11 12 152 171 137 147 185 224 175 201 166 22 
218 9 227 153 44 186 196 62 143 188 202 
219 11 236 64 205 208 91 172 111 31 83 160 96 
220 11 234 230 198 211 210 190 15 161 49 138 116 
221 11 118 52 5 28 8 66 16 57 117 218 4 
222 8 116 15 145 161 168 190 23 146 
223 10 151 147 42 175 174 217 12 166 185 192 
224 11 22 147 152 217 12 171 137 185 223 175 201 
225 9 23 59 134 168 75 167 150 222 145 
226 10 115 155 214 139 148 212 135 163 213 69 
227 8 153 44 218 149 202 209 16 143 
228 8 54 88 206 170 180 80 85 97 
229 9 177 233 178 129 199 69 135 139 212 
230 10 234 49 138 220 140 86 157 211 190 183 
231 9 181 31 183 173 111 172 140 86 138 
232 11 24 159 89 25 130 188 196 186 182 120 76 
233 9 177 199 135 229 212 178 148 69 139 
234 7 230 138 190 220 140 49 161 
235 11 144 86 183 49 157 140 111 138 29 231 31 
236 11 219 64 91 205 172 31 111 96 53 208 181 
DEPOT_SECTION
   1
   -1
EOF
