NAME :  X-n237-kX-w47-c9.cctp
COMMENT : 	Adapted by Maziero, Usberti and Cavellucci from the Uchoa, Pecin, Pessoa, Poggi, Subramanian, and Vidal (2013)
TYPE :  CCTP
DIMENSION :    219
EDGE_WEIGHT_TYPE : 	EUC_2D	
CAPACITY : 	18
VERTICES_WITHIN_COVERAGE :  9
VERTICES_WITH_DEMAND : 	47
NODE_COORD_SECTION
1 0 0
2 80 386
3 521 652
4 597 936
5 836 69
6 503 987
7 618 169
8 115 662
9 312 175
10 78 83
11 364 317
12 12 454
13 980 537
14 403 383
15 144 443
16 739 464
17 886 511
18 904 106
19 794 539
20 821 608
21 781 347
22 336 490
23 101 736
24 365 68
25 618 684
26 282 286
27 311 806
28 557 793
29 54 50
30 651 264
31 619 661
32 156 994
33 950 369
34 183 707
35 673 856
36 5 651
37 867 449
38 946 914
39 75 82
40 522 8
41 573 493
42 833 699
43 881 677
44 201 77
45 536 593
46 67 895
47 99 113
48 120 133
49 428 231
50 701 845
51 190 508
52 431 218
53 626 782
54 113 914
55 569 117
56 865 639
57 708 9
58 511 977
59 104 838
60 229 467
61 956 568
62 431 929
63 615 707
64 913 42
65 854 504
66 236 176
67 377 404
68 380 468
69 590 752
70 620 146
71 616 746
72 675 114
73 556 640
74 99 777
75 12 194
76 920 116
77 846 384
78 525 23
79 199 348
80 813 875
81 757 593
82 573 358
83 264 448
84 289 765
85 246 267
86 245 876
87 648 790
88 378 754
89 636 653
90 555 181
91 738 446
92 130 836
93 882 942
94 102 787
95 669 905
96 490 45
97 883 547
98 971 638
99 256 227
100 775 935
101 489 411
102 514 866
103 7 118
104 415 820
105 161 160
106 27 21
107 695 395
108 64 937
109 121 847
110 770 896
111 174 871
112 20 546
113 986 803
114 379 259
115 686 273
116 133 869
117 157 499
118 649 934
119 999 236
120 670 615
121 978 479
122 646 823
123 440 534
124 26 411
125 114 126
126 661 528
127 946 326
128 695 420
129 172 317
130 116 701
131 940 438
132 824 136
133 837 507
134 542 708
135 441 235
136 808 413
137 68 374
138 582 768
139 593 651
140 71 712
141 26 569
142 918 629
143 165 731
144 941 282
145 285 379
146 227 977
147 788 366
148 33 507
149 597 983
150 799 35
151 414 697
152 529 178
153 235 743
154 118 484
155 349 554
156 477 280
157 591 189
158 807 670
159 163 621
160 874 932
161 245 24
162 960 27
163 139 44
164 45 584
165 281 434
166 684 501
167 284 414
168 20 905
169 57 354
170 306 107
171 167 289
172 952 66
173 862 741
174 806 277
175 782 700
176 82 208
177 951 550
178 710 44
179 537 764
180 407 191
181 629 133
182 608 911
183 760 125
184 727 517
185 295 706
186 679 836
187 73 420
188 637 903
189 297 723
190 55 920
191 676 550
192 933 456
193 812 155
194 326 903
195 846 181
196 116 175
197 344 992
198 28 667
199 439 245
200 891 450
201 224 732
202 156 734
203 390 441
204 663 560
205 115 896
206 655 766
207 210 731
208 42 176
209 505 517
210 923 66
211 490 844
212 342 859
213 210 644
214 313 79
215 399 775
216 876 843
217 631 889
218 182 284
219 471 120
DEMAND_SECTION
2 1
3 1
4 1
5 1
6 1
7 1
8 1
9 1
10 1
11 1
12 1
13 1
14 1
15 1
16 1
17 1
18 1
19 1
20 1
21 1
22 1
23 1
24 1
25 1
26 1
27 1
28 1
29 1
30 1
31 1
32 1
33 1
34 1
35 1
36 1
37 1
38 1
39 1
40 1
41 1
42 1
43 1
44 1
45 1
46 1
47 1
48 1
COVERAGE_SECTION
2 9 137 187 169 124 15 12 154 129 79 
3 9 73 134 45 139 31 25 63 179 89 
4 9 182 149 118 188 217 95 58 6 102 
5 9 150 132 18 64 210 193 183 76 195 
6 9 58 62 149 4 102 182 211 118 188 
7 8 70 157 181 90 55 72 152 30 
8 8 130 159 140 23 34 202 143 198 
9 9 170 66 99 180 214 114 85 26 24 
10 9 39 47 29 125 48 163 103 106 196 
11 9 114 14 26 67 145 199 49 135 156 
12 9 124 148 187 112 2 137 154 169 141 
13 9 177 61 121 192 17 97 98 131 142 
14 9 67 203 11 68 101 145 167 22 114 
15 8 154 117 187 51 2 60 137 79 
16 9 91 184 128 166 107 136 19 126 133 
17 9 65 97 133 200 37 192 177 61 131 
18 9 76 210 172 64 5 132 195 162 193 
19 9 133 81 65 184 20 97 16 17 91 
20 9 56 158 81 19 97 43 42 142 175 
21 8 147 136 174 77 107 91 128 115 
22 8 68 155 203 165 83 167 67 60 
23 9 130 140 74 94 202 143 8 34 198 
24 9 214 170 219 9 96 161 180 44 52 
25 9 31 63 89 139 71 69 73 134 120 
26 9 85 99 11 145 218 114 79 129 9 
27 9 84 212 189 88 215 86 194 153 185 
28 9 138 179 69 53 71 211 102 134 87 
29 9 39 106 10 47 103 163 125 48 208 
30 5 115 157 7 70 82 
31 9 89 25 139 63 73 120 71 134 69 
32 9 146 54 205 108 111 190 116 46 86 
33 9 127 131 144 192 200 77 121 37 119 
34 9 143 207 202 201 153 130 213 8 23 
35 9 186 50 122 95 217 188 87 118 182 
36 8 198 164 141 140 112 8 130 23 
37 9 200 65 17 133 192 77 136 131 97 
38 9 93 160 216 113 80 100 110 173 42 
39 9 10 29 47 125 48 163 103 106 208 
40 9 78 96 55 219 181 24 70 152 90 
41 9 209 126 45 166 204 101 191 82 123 
42 9 158 173 175 43 56 20 142 81 216 
43 9 56 42 142 173 158 20 98 175 97 
44 9 161 163 105 48 125 66 47 170 214 
45 9 73 3 139 209 31 41 123 134 89 
46 9 190 108 168 205 54 59 116 109 92 
47 9 125 48 10 39 196 29 105 163 208 
48 9 125 47 196 105 10 39 176 208 163 
49 9 52 135 199 180 114 156 11 152 219 
50 9 186 35 122 95 87 217 110 188 206 
51 4 117 60 154 15 
52 9 49 135 199 180 114 156 152 219 11 
53 9 87 206 71 122 138 69 28 63 186 
54 9 205 116 46 108 190 109 111 59 92 
55 9 70 181 90 7 152 157 219 78 72 
56 9 43 20 142 158 42 97 173 175 98 
57 7 178 150 72 183 5 181 70 
58 9 6 149 62 4 102 182 211 118 188 
59 9 109 92 116 94 205 74 46 54 111 
60 6 83 51 165 167 117 15 
61 9 177 13 98 142 97 17 121 192 56 
62 9 6 58 211 102 197 194 104 212 215 
63 9 25 71 31 69 89 139 138 206 134 
64 9 210 172 162 18 76 5 150 132 193 
65 9 133 17 97 37 200 19 192 136 177 
66 9 99 9 105 85 170 44 26 196 218 
67 9 14 203 68 11 167 22 145 165 101 
68 9 203 22 67 14 123 155 165 167 83 
69 9 138 71 53 63 28 179 134 206 87 
70 7 181 7 157 55 72 90 152 
71 9 69 53 63 138 206 87 25 28 179 
72 7 181 70 178 7 183 55 57 
73 9 3 139 45 31 134 25 89 63 69 
74 9 94 23 59 92 140 202 109 130 143 
75 8 208 176 103 196 47 125 48 10 
76 9 18 210 172 64 5 132 162 195 193 
77 9 136 147 37 21 200 33 131 192 174 
78 9 40 96 55 219 181 70 152 90 24 
79 9 129 218 171 145 85 26 167 15 83 
80 9 110 100 216 160 93 50 38 186 35 
81 9 19 20 184 120 158 191 204 175 126 
82 9 101 30 156 107 41 128 115 157 14 
83 7 165 167 60 145 22 51 68 
84 9 189 27 153 185 201 207 88 212 215 
85 9 26 99 218 171 129 66 79 9 145 
86 9 111 194 27 212 146 116 84 92 109 
87 9 53 206 122 71 186 69 138 35 50 
88 9 215 151 104 27 189 84 185 212 153 
89 9 31 25 139 120 63 73 71 204 69 
90 9 152 157 7 55 70 181 219 135 156 
91 9 16 128 107 184 136 166 147 21 19 
92 9 109 59 116 94 111 205 74 54 46 
93 9 160 38 80 216 100 110 113 173 50 
94 9 74 23 59 92 109 202 140 143 130 
95 9 188 118 217 35 182 50 186 4 122 
96 9 78 40 219 55 24 152 90 70 181 
97 9 17 65 133 177 61 20 19 142 56 
98 9 142 61 177 43 13 56 97 173 42 
99 9 85 66 26 9 218 171 105 129 114 
100 9 110 80 160 93 95 50 118 35 216 
101 9 14 82 203 209 67 41 68 123 156 
102 9 211 28 62 182 179 4 104 58 138 
103 9 208 75 39 10 29 47 106 125 48 
104 9 215 88 211 212 27 102 62 194 151 
105 9 196 48 125 66 47 44 176 10 39 
106 9 29 39 10 103 163 47 125 48 208 
107 9 128 91 16 147 21 166 136 115 184 
108 9 190 46 54 168 205 116 59 109 32 
109 9 92 59 116 205 111 94 54 46 74 
110 9 100 80 50 95 35 186 160 216 93 
111 9 116 92 109 205 86 54 59 46 94 
112 5 141 148 164 12 36 
113 9 216 38 173 43 98 160 93 42 80 
114 9 49 11 199 52 135 180 156 26 9 
115 5 30 21 174 107 7 
116 9 109 205 92 111 59 54 46 94 190 
117 4 51 154 15 60 
118 9 188 95 182 217 4 149 35 186 50 
119 8 144 127 33 76 18 195 172 210 
120 9 89 204 191 31 139 25 126 81 63 
121 9 192 131 13 177 61 200 17 33 37 
122 9 87 186 35 53 206 50 217 188 71 
123 9 209 68 155 203 22 45 101 41 3 
124 9 12 187 137 2 169 148 154 15 112 
125 9 48 47 196 10 105 39 163 176 208 
126 9 191 204 166 184 120 41 16 91 128 
127 9 33 144 119 131 77 192 200 37 174 
128 9 107 91 16 166 184 147 21 126 136 
129 8 171 218 79 85 26 2 137 169 
130 9 23 8 140 202 143 34 74 94 159 
131 9 192 200 121 33 37 17 13 65 77 
132 6 193 195 183 5 18 76 
133 9 65 17 19 97 37 200 136 20 16 
134 9 179 3 69 73 138 63 139 25 71 
135 9 199 49 52 180 156 114 152 11 219 
136 9 77 147 37 21 91 16 200 133 65 
137 8 2 169 187 124 12 15 129 154 
138 9 69 28 71 179 53 63 87 134 206 
139 9 31 73 25 89 63 3 134 45 120 
140 9 23 130 198 8 74 94 202 36 143 
141 5 112 164 148 36 198 
142 9 56 98 43 61 177 97 20 42 13 
143 9 202 34 207 130 201 23 153 74 94 
144 8 127 119 33 174 77 195 131 76 
145 9 167 165 83 79 26 67 11 60 14 
146 9 32 86 197 111 194 54 205 116 212 
147 9 21 136 77 174 91 107 128 16 37 
148 7 112 12 141 164 154 124 187 
149 9 4 118 182 58 188 6 217 95 102 
150 9 5 178 57 183 132 64 193 18 210 
151 8 88 215 3 185 189 104 134 179 
152 9 90 157 55 219 7 70 135 52 181 
153 9 201 207 84 34 189 185 143 202 27 
154 5 117 15 51 187 148 
155 4 22 68 123 203 
156 9 199 135 49 52 114 180 152 11 82 
157 9 7 90 70 152 181 55 30 72 115 
158 9 42 175 20 56 43 173 81 142 19 
159 3 213 8 34 
160 9 93 38 80 216 100 110 113 173 50 
161 9 44 214 170 163 24 66 105 9 48 
162 9 172 64 210 18 76 5 150 132 195 
163 9 44 10 39 47 29 125 48 161 106 
164 5 141 112 36 148 198 
165 7 167 83 145 60 22 67 68 
166 9 126 184 191 204 16 91 128 107 41 
167 9 165 145 83 60 22 67 79 203 68 
168 9 190 46 108 54 205 59 109 116 92 
169 8 137 2 124 187 12 129 15 171 
170 9 214 9 24 66 161 44 99 180 105 
171 8 218 129 79 85 99 26 176 196 
172 9 210 162 64 76 18 5 132 150 195 
173 9 42 43 158 175 56 216 142 20 113 
174 5 21 147 195 77 115 
175 9 158 42 173 20 43 56 81 120 206 
176 8 196 208 75 48 125 105 47 103 
177 9 61 13 97 17 121 142 98 192 65 
178 7 57 72 150 183 181 5 70 
179 9 28 138 69 134 71 53 211 63 102 
180 9 52 49 135 199 114 9 219 156 152 
181 7 70 7 72 55 157 90 152 
182 9 4 188 217 118 95 149 35 122 186 
183 5 193 132 72 5 178 
184 9 166 16 191 126 19 91 204 81 128 
185 7 189 84 153 201 207 88 27 
186 9 35 50 122 87 95 217 206 53 188 
187 9 2 137 124 169 12 15 154 148 117 
188 9 217 182 95 118 4 35 186 122 50 
189 8 185 84 153 201 27 88 207 215 
190 9 108 46 168 54 205 116 59 109 92 
191 9 204 126 166 184 120 81 16 89 41 
192 9 131 200 121 37 17 33 65 13 177 
193 4 132 195 183 5 
194 9 212 86 197 27 62 104 146 84 215 
195 6 193 132 18 76 183 174 
196 8 48 105 176 125 47 208 10 39 
197 9 194 62 146 212 86 6 58 104 32 
198 8 36 140 164 8 130 141 23 112 
199 9 135 49 52 156 114 180 11 152 219 
200 9 37 192 131 17 65 133 77 136 121 
201 9 207 153 34 143 202 84 189 185 213 
202 9 143 34 130 207 23 201 74 94 153 
203 9 68 67 14 22 101 123 165 167 155 
204 9 191 126 120 166 184 89 81 31 41 
205 9 54 116 46 109 59 92 111 108 190 
206 9 87 53 71 122 69 63 138 186 25 
207 9 201 153 34 143 202 84 189 213 185 
208 8 75 176 103 196 47 125 48 10 
209 9 123 41 45 101 73 68 3 203 126 
210 9 64 172 18 76 162 5 132 150 195 
211 9 102 104 28 179 62 215 138 58 69 
212 9 194 27 104 86 215 84 88 62 197 
213 4 159 34 207 201 
214 9 170 24 161 9 44 66 180 99 219 
215 9 88 104 151 27 212 84 189 211 185 
216 9 80 160 93 38 173 113 110 100 42 
217 9 188 182 95 118 35 4 122 186 50 
218 8 171 129 79 85 99 26 66 105 
219 9 96 152 180 55 90 52 78 24 49 
DEPOT_SECTION
   1
   -1
EOF
