NAME :  X-n209-kX-w41-c9.cctp
COMMENT : 	Adapted by Maziero, Usberti and Cavellucci from the Uchoa, Pecin, Pessoa, Poggi, Subramanian, and Vidal (2013)
TYPE :  CCTP
DIMENSION :    192
EDGE_WEIGHT_TYPE : 	EUC_2D	
CAPACITY : 	101
VERTICES_WITHIN_COVERAGE :  9
VERTICES_WITH_DEMAND : 	41
NODE_COORD_SECTION
1 0 0
2 487 949
3 492 770
4 150 556
5 130 719
6 962 393
7 54 890
8 861 705
9 338 631
10 119 741
11 48 296
12 982 827
13 18 954
14 558 698
15 857 337
16 963 72
17 218 46
18 705 484
19 315 3
20 331 358
21 688 156
22 314 338
23 214 428
24 193 866
25 381 924
26 968 10
27 797 382
28 733 544
29 956 878
30 576 270
31 257 778
32 713 605
33 270 940
34 880 401
35 245 168
36 973 29
37 888 919
38 943 703
39 364 248
40 932 60
41 575 18
42 663 990
43 667 351
44 85 708
45 801 330
46 261 91
47 163 953
48 509 249
49 237 336
50 791 356
51 314 168
52 356 726
53 260 412
54 630 144
55 534 255
56 448 320
57 987 333
58 691 109
59 83 716
60 395 818
61 605 769
62 633 162
63 651 644
64 221 4
65 551 912
66 762 604
67 337 41
68 156 318
69 756 357
70 749 173
71 535 235
72 719 700
73 717 4
74 759 103
75 615 132
76 42 268
77 952 2
78 989 303
79 471 821
80 650 215
81 302 881
82 61 459
83 391 405
84 364 170
85 643 744
86 324 620
87 92 914
88 133 607
89 223 949
90 988 415
91 943 616
92 764 6
93 659 250
94 766 532
95 730 338
96 850 489
97 564 296
98 538 121
99 997 183
100 127 966
101 300 985
102 781 68
103 884 92
104 438 673
105 591 658
106 928 894
107 107 816
108 581 799
109 46 288
110 548 0
111 379 725
112 186 490
113 947 161
114 702 712
115 230 722
116 40 891
117 362 568
118 26 614
119 756 658
120 818 433
121 236 62
122 314 56
123 276 466
124 789 828
125 626 677
126 626 156
127 207 461
128 566 842
129 676 871
130 135 983
131 956 181
132 5 209
133 10 57
134 499 617
135 975 194
136 882 465
137 716 147
138 740 993
139 77 480
140 742 233
141 869 824
142 809 987
143 999 514
144 748 391
145 366 917
146 272 875
147 0 9
148 260 359
149 449 208
150 278 711
151 683 498
152 930 690
153 184 567
154 257 360
155 783 645
156 282 884
157 978 688
158 514 349
159 343 552
160 290 171
161 675 414
162 386 86
163 575 26
164 863 973
165 223 412
166 958 176
167 391 824
168 228 93
169 704 946
170 938 995
171 159 343
172 698 106
173 896 169
174 361 937
175 201 120
176 158 852
177 786 630
178 91 909
179 291 333
180 575 931
181 60 763
182 321 837
183 154 302
184 490 215
185 612 394
186 70 159
187 972 987
188 527 340
189 34 241
190 878 485
191 885 205
192 124 413
DEMAND_SECTION
2 7
3 6
4 7
5 8
6 10
7 7
8 7
9 10
10 8
11 5
12 6
13 5
14 6
15 5
16 8
17 5
18 8
19 6
20 6
21 7
22 5
23 9
24 10
25 6
26 6
27 6
28 7
29 8
30 9
31 7
32 6
33 6
34 10
35 5
36 5
37 8
38 10
39 9
40 9
41 6
42 7
COVERAGE_SECTION
2 9 65 180 25 145 174 79 128 167 60 
3 9 79 108 14 128 60 104 61 167 111 
4 9 153 88 112 139 127 82 118 23 192 
5 9 10 44 59 181 107 115 88 176 31 
6 9 90 57 34 78 136 15 190 143 96 
7 9 116 178 87 13 107 100 176 130 47 
8 9 152 38 155 177 119 157 141 91 66 
9 7 86 117 159 52 150 111 104 
10 9 5 59 44 181 107 115 176 88 31 
11 9 109 76 189 132 183 68 171 186 192 
12 9 29 106 141 38 37 157 152 187 8 
13 9 116 7 87 178 100 130 47 107 176 
14 9 105 125 61 85 3 134 108 63 104 
15 9 45 34 50 27 69 120 6 144 95 
16 9 40 36 26 77 103 113 166 131 99 
17 9 121 64 168 46 175 122 19 67 35 
18 9 151 28 161 94 144 32 120 185 66 
19 8 67 122 64 121 46 17 162 168 
20 6 22 179 148 154 83 53 
21 9 137 58 172 62 54 126 70 80 75 
22 8 179 20 148 154 49 53 83 39 
23 9 165 127 53 112 123 154 148 192 49 
24 9 176 146 89 156 47 107 33 31 81 
25 9 145 174 81 167 101 182 60 156 2 
26 9 77 36 16 40 103 113 166 131 99 
27 9 50 69 144 45 120 15 95 34 96 
28 9 94 32 18 66 151 177 155 119 63 
29 9 106 12 37 141 187 170 164 124 38 
30 9 97 55 71 48 93 188 80 158 184 
31 9 115 150 182 146 24 156 52 81 176 
32 9 66 28 119 63 177 155 94 72 114 
33 9 89 101 156 146 81 174 145 24 47 
34 9 136 15 120 6 190 27 96 50 45 
35 9 160 175 51 168 46 121 84 17 122 
36 9 26 77 16 40 103 113 166 131 99 
37 9 106 164 29 170 141 142 187 12 124 
38 8 152 157 8 91 12 141 155 177 
39 9 84 51 149 22 160 56 179 20 184 
40 9 16 36 103 77 26 113 173 166 131 
41 8 163 110 98 75 54 73 58 126 
42 9 169 138 180 129 65 142 128 2 164 
43 8 95 161 185 69 144 93 97 30 
44 9 59 5 10 181 107 118 88 115 176 
45 8 50 27 69 15 95 144 120 34 
46 9 168 121 17 122 175 35 160 67 51 
47 9 100 130 89 87 178 24 176 33 7 
48 9 55 71 184 30 97 149 188 56 158 
49 9 154 148 179 22 165 171 53 68 183 
50 8 27 45 69 144 95 15 120 34 
51 8 160 84 35 46 39 162 122 168 
52 9 111 150 9 104 60 167 86 31 182 
53 8 165 23 154 148 123 127 49 179 
54 9 126 62 75 21 58 80 172 137 98 
55 9 71 48 30 97 184 188 158 149 56 
56 9 158 188 48 83 55 39 149 184 97 
57 9 78 6 90 34 15 135 99 131 166 
58 9 172 137 21 74 54 62 75 126 70 
59 9 44 10 5 181 107 118 88 115 176 
60 9 167 79 182 111 52 145 25 3 81 
61 9 108 85 128 14 125 105 3 114 129 
62 9 126 54 75 21 80 58 137 172 93 
63 9 125 105 32 114 72 85 119 14 66 
64 9 17 121 168 19 46 122 175 67 35 
65 9 180 128 2 108 79 129 42 61 3 
66 9 177 155 32 119 28 94 72 63 114 
67 8 122 19 162 46 121 17 168 64 
68 9 183 171 49 192 154 11 148 109 165 
69 8 95 50 144 27 45 43 120 161 
70 9 137 140 21 74 172 58 80 102 62 
71 9 55 48 184 30 97 149 188 98 158 
72 9 114 119 155 63 85 32 125 177 66 
73 9 92 102 172 58 74 41 137 163 21 
74 9 102 172 137 58 70 21 92 73 103 
75 9 54 126 62 21 98 58 172 80 137 
76 9 109 189 11 132 186 183 68 171 192 
77 9 26 36 40 16 103 113 166 173 131 
78 9 57 6 135 90 99 131 166 15 191 
79 9 3 60 167 128 108 65 2 111 25 
80 9 93 62 126 21 54 75 30 140 137 
81 9 156 146 182 33 145 174 25 89 101 
82 9 139 192 112 4 127 171 23 118 11 
83 2 20 22 
84 6 51 160 39 162 149 35 
85 9 61 114 125 108 72 14 63 105 128 
86 7 9 117 159 150 52 111 104 
87 9 178 7 116 100 47 130 13 176 107 
88 9 4 153 118 5 44 59 112 10 139 
89 9 33 47 101 24 156 146 130 100 81 
90 9 6 57 143 34 78 136 190 15 96 
91 7 152 157 38 143 8 190 96 
92 9 73 102 74 172 58 103 137 21 70 
93 8 80 30 140 62 21 126 43 97 
94 8 28 66 18 32 151 96 177 120 
95 8 69 144 43 50 45 27 161 140 
96 7 190 136 120 34 94 27 28 
97 9 30 55 188 71 48 158 93 185 184 
98 7 75 54 126 163 62 184 41 
99 9 135 166 131 113 173 191 16 78 40 
100 9 130 47 87 178 89 7 13 116 176 
101 9 33 174 89 145 25 156 81 146 47 
102 9 74 92 73 172 58 137 103 70 21 
103 9 40 173 16 113 102 36 166 77 191 
104 8 111 134 52 9 3 14 86 117 
105 9 125 14 63 85 134 61 114 32 72 
106 9 29 37 12 141 170 164 187 142 124 
107 9 176 181 10 7 178 24 87 5 116 
108 9 61 128 85 3 14 79 65 129 125 
109 9 11 76 189 132 183 68 171 186 192 
110 7 41 163 98 75 54 73 126 
111 9 52 104 60 167 150 9 86 3 182 
112 9 127 23 4 153 165 123 192 53 139 
113 9 166 131 135 173 99 191 16 103 40 
114 9 72 85 119 125 63 155 32 61 177 
115 9 150 31 5 10 52 86 9 44 59 
116 9 7 178 87 13 107 100 176 181 130 
117 3 159 86 9 
118 9 88 44 59 4 139 5 181 10 82 
119 9 155 177 66 72 32 114 63 8 28 
120 9 27 96 34 136 190 50 144 69 15 
121 9 17 168 46 64 175 122 19 67 35 
122 8 67 19 46 121 162 168 17 64 
123 5 53 127 23 165 112 
124 9 141 129 37 8 114 169 72 106 142 
125 9 105 63 85 14 114 61 72 32 108 
126 9 62 54 75 21 80 58 172 137 98 
127 8 23 112 165 123 53 192 153 4 
128 9 108 65 61 180 79 3 129 85 2 
129 9 169 128 180 108 42 124 61 85 65 
130 9 100 47 87 178 89 13 7 24 116 
131 9 166 113 135 99 173 191 16 103 40 
132 9 189 76 186 109 11 133 183 68 147 
133 9 147 186 132 189 175 17 76 64 168 
134 7 104 14 105 125 117 3 63 
135 9 131 99 166 113 173 191 78 16 103 
136 7 190 96 34 120 6 90 27 
137 9 21 70 58 172 74 62 54 126 140 
138 9 169 142 42 164 129 37 124 180 170 
139 9 82 192 4 112 127 153 88 118 23 
140 8 70 93 137 21 80 95 45 69 
141 9 124 106 37 29 12 8 38 152 164 
142 9 164 138 37 169 170 42 106 124 187 
143 7 90 91 190 6 136 96 34 
144 8 69 27 50 95 161 45 120 43 
145 9 25 174 81 156 182 101 167 33 60 
146 9 156 81 182 33 24 89 31 145 174 
147 9 133 186 132 17 64 175 189 121 168 
148 9 154 49 179 53 22 165 20 23 171 
149 7 184 48 71 84 39 55 56 
150 9 115 31 52 9 86 111 182 5 60 
151 8 18 28 161 94 32 144 185 66 
152 8 38 157 8 91 12 141 155 177 
153 9 4 88 112 127 123 139 23 86 159 
154 9 148 49 179 53 22 165 20 23 171 
155 9 177 119 66 32 72 8 114 28 94 
156 9 146 81 33 182 89 145 24 174 101 
157 7 38 152 91 8 12 141 143 
158 8 188 56 97 55 30 48 185 71 
159 3 117 86 9 
160 9 51 35 84 46 168 175 39 122 121 
161 7 43 185 18 144 151 95 69 
162 6 67 122 84 19 51 46 
163 8 41 110 98 75 54 126 58 73 
164 9 142 37 170 106 187 138 29 141 169 
165 9 23 53 127 154 148 123 49 112 171 
166 9 131 113 135 99 173 191 16 103 40 
167 9 60 182 79 145 25 111 52 81 3 
168 9 121 46 175 17 35 64 122 160 51 
169 9 138 42 129 142 180 124 65 164 128 
170 9 187 164 37 106 29 142 12 141 138 
171 9 68 183 49 192 165 154 23 148 11 
172 9 58 137 21 74 54 70 62 75 126 
173 9 191 113 131 166 103 135 99 40 16 
174 9 145 25 101 81 33 156 146 182 167 
175 9 168 35 46 121 17 160 64 51 122 
176 9 24 107 178 87 47 7 146 89 10 
177 9 155 66 119 32 72 94 28 8 114 
178 9 87 7 116 100 47 13 130 176 107 
179 8 22 148 154 20 49 53 165 39 
180 9 65 128 2 42 129 169 108 79 61 
181 9 59 44 10 107 5 7 116 176 178 
182 9 81 156 146 167 60 31 145 25 174 
183 9 68 171 49 11 109 192 76 154 148 
184 8 48 149 71 55 30 98 97 56 
185 7 161 43 188 158 97 151 18 
186 9 132 189 76 133 109 175 11 147 183 
187 9 170 106 37 29 164 12 142 141 138 
188 8 158 97 56 30 55 48 185 71 
189 9 76 132 109 11 186 183 68 171 133 
190 7 136 96 120 34 94 143 6 
191 9 173 131 113 166 135 103 99 15 70 
192 9 82 171 139 23 127 112 165 68 183 
DEPOT_SECTION
   1
   -1
EOF
