NAME :  X-n214-kX-w42-c11.cctp
COMMENT : 	Adapted by Maziero, Usberti and Cavellucci from the Uchoa, Pecin, Pessoa, Poggi, Subramanian, and Vidal (2013)
TYPE :  CCTP
DIMENSION :    205
EDGE_WEIGHT_TYPE : 	EUC_2D	
CAPACITY : 	944
VERTICES_WITHIN_COVERAGE :  11
VERTICES_WITH_DEMAND : 	42
NODE_COORD_SECTION
1 500 500
2 753 355
3 663 83
4 725 286
5 581 444
6 700 205
7 630 475
8 560 407
9 848 374
10 752 315
11 454 310
12 685 227
13 747 468
14 540 348
15 882 346
16 762 228
17 884 307
18 681 274
19 761 254
20 791 205
21 699 559
22 694 352
23 679 11
24 656 446
25 428 487
26 838 395
27 554 590
28 567 250
29 769 381
30 753 20
31 710 296
32 653 489
33 711 447
34 516 322
35 704 265
36 742 358
37 578 423
38 923 378
39 451 120
40 449 254
41 626 264
42 701 203
43 751 293
44 835 0
45 640 218
46 493 226
47 483 445
48 671 134
49 465 361
50 521 69
51 894 399
52 824 388
53 605 238
54 848 251
55 561 443
56 663 9
57 768 339
58 634 426
59 590 60
60 735 280
61 842 365
62 671 124
63 680 251
64 558 451
65 884 356
66 746 384
67 687 227
68 855 350
69 656 450
70 560 459
71 591 433
72 451 36
73 747 26
74 753 384
75 530 259
76 739 215
77 537 267
78 742 304
79 509 418
80 667 17
81 534 297
82 605 382
83 470 482
84 817 366
85 815 268
86 728 264
87 778 44
88 856 360
89 666 107
90 538 317
91 715 34
92 875 290
93 495 468
94 725 237
95 563 394
96 775 378
97 587 443
98 535 665
99 696 387
100 704 153
101 667 448
102 557 440
103 682 461
104 762 279
105 824 522
106 764 259
107 759 334
108 750 391
109 893 283
110 900 308
111 595 73
112 641 474
113 597 236
114 294 448
115 852 182
116 526 330
117 735 460
118 901 303
119 545 395
120 494 2
121 741 339
122 795 456
123 783 343
124 694 224
125 756 99
126 698 323
127 683 222
128 704 269
129 769 321
130 596 321
131 605 103
132 567 464
133 743 205
134 622 449
135 767 116
136 745 269
137 603 447
138 634 194
139 832 312
140 796 292
141 662 86
142 608 618
143 489 267
144 837 289
145 478 510
146 569 497
147 611 550
148 749 387
149 683 355
150 682 81
151 701 170
152 653 414
153 584 21
154 683 308
155 659 582
156 668 329
157 662 288
158 897 399
159 770 366
160 540 212
161 606 309
162 581 254
163 582 485
164 848 381
165 828 150
166 536 445
167 531 56
168 707 424
169 587 191
170 770 259
171 702 94
172 823 162
173 644 364
174 570 186
175 552 317
176 626 88
177 999 631
178 860 274
179 354 662
180 654 285
181 785 82
182 650 335
183 637 568
184 449 359
185 885 77
186 552 440
187 810 205
188 628 24
189 728 294
190 733 311
191 750 327
192 727 278
193 537 137
194 718 413
195 725 355
196 710 139
197 723 556
198 449 346
199 731 373
200 349 465
201 572 542
202 612 377
203 711 417
204 678 44
205 604 593
DEMAND_SECTION
2 83
3 84
4 34
5 17
6 88
7 59
8 56
9 33
10 21
11 37
12 15
13 97
14 23
15 76
16 94
17 99
18 30
19 44
20 45
21 8
22 37
23 43
24 15
25 18
26 73
27 65
28 89
29 5
30 13
31 64
32 60
33 20
34 12
35 59
36 25
37 2
38 60
39 61
40 6
41 17
42 65
43 26
COVERAGE_SECTION
2 11 36 121 159 57 107 191 195 199 74 66 29 
3 11 141 150 89 176 171 62 204 48 131 80 111 
4 11 192 189 60 31 86 78 136 190 43 128 35 
5 11 97 71 55 37 137 64 102 132 70 186 134 
6 11 42 124 127 67 12 151 76 94 133 63 100 
7 11 112 32 134 69 24 137 101 58 163 97 103 
8 11 95 119 37 102 186 55 71 5 64 97 166 
9 11 164 61 88 26 68 52 84 65 15 51 158 
10 11 191 78 129 190 107 43 121 57 189 104 60 
11 11 198 184 49 143 40 34 116 81 90 75 46 
12 11 67 127 124 63 6 42 94 35 45 128 18 
13 11 117 33 122 168 194 203 103 108 148 101 66 
14 11 116 90 175 34 119 81 95 8 130 82 49 
15 11 65 68 88 17 110 9 61 118 164 38 51 
16 11 19 76 133 106 170 20 94 136 86 104 187 
17 11 110 118 92 109 15 178 65 144 68 139 88 
18 11 63 128 157 35 180 154 31 4 192 12 67 
19 11 106 170 136 104 16 86 60 43 94 192 76 
20 11 187 16 133 76 172 19 170 106 115 165 85 
21 11 197 155 183 32 147 103 205 13 112 117 142 
22 11 149 126 195 99 156 199 154 182 36 121 173 
23 11 80 56 204 91 188 73 150 3 30 141 171 
24 11 69 101 58 103 112 152 134 7 32 137 33 
25 10 83 145 47 93 200 79 166 184 49 186 
26 11 52 164 9 61 84 88 68 51 158 65 96 
27 11 205 201 142 147 98 183 146 155 163 145 132 
28 11 162 113 77 75 53 160 81 41 169 174 175 
29 11 96 159 74 108 148 66 2 36 199 123 57 
30 11 73 87 91 181 23 125 204 44 80 171 56 
31 11 4 189 192 190 128 60 126 154 35 78 18 
32 11 112 7 69 103 24 101 134 137 58 163 33 
33 11 168 117 203 103 194 13 101 24 69 99 152 
34 11 116 90 81 14 175 77 143 11 49 75 198 
35 11 128 86 18 192 63 4 31 60 94 189 136 
36 11 2 195 121 199 66 74 107 159 148 57 191 
37 11 71 5 97 8 55 102 186 95 64 137 70 
38 11 158 51 65 15 88 68 110 9 164 118 17 
39 10 72 50 193 167 46 120 160 40 174 59 
40 11 143 46 11 75 77 198 34 81 160 184 49 
41 10 53 180 113 157 162 45 161 18 63 28 
42 11 6 124 127 67 12 151 76 94 133 100 63 
43 11 78 104 60 10 189 136 190 4 192 129 191 
44 11 87 30 73 185 181 91 125 135 165 23 172 
45 11 138 53 127 12 113 41 67 63 124 169 6 
46 11 143 160 75 40 77 28 81 174 162 11 34 
47 10 93 79 83 166 145 25 186 102 64 55 
48 11 62 89 100 196 151 141 171 3 150 176 138 
49 11 184 198 11 34 116 79 14 90 47 119 81 
50 10 167 59 193 120 111 72 153 39 131 176 
51 11 158 38 65 164 9 15 88 26 61 68 52 
52 11 26 84 164 9 61 88 68 96 29 159 123 
53 11 113 162 41 28 45 169 138 174 180 160 161 
54 10 178 85 144 92 109 187 139 140 17 115 
55 11 102 64 186 70 5 132 166 37 97 71 8 
56 11 80 23 188 204 91 3 150 141 153 73 176 
57 11 107 123 129 2 191 121 159 10 36 96 29 
58 9 152 134 24 69 137 101 71 7 112 
59 10 111 153 131 176 188 167 50 3 141 80 
60 11 192 4 136 189 86 43 78 104 31 190 128 
61 10 9 88 164 68 84 52 26 65 15 139 
62 11 48 89 141 3 196 171 100 150 151 176 131 
63 11 18 12 67 35 127 124 128 157 180 94 6 
64 11 70 55 102 186 132 166 5 97 37 71 163 
65 11 15 88 68 9 61 51 164 38 158 17 110 
66 11 148 74 108 199 29 36 2 96 159 195 194 
67 11 12 127 124 63 6 42 94 35 128 18 45 
68 11 88 61 9 15 65 164 84 139 26 52 17 
69 11 24 101 103 112 58 134 7 152 32 137 33 
70 11 64 132 55 102 186 5 166 97 163 146 37 
71 11 97 5 37 137 55 102 134 64 132 8 70 
72 10 120 50 167 39 193 153 59 111 131 188 
73 11 30 91 87 181 23 204 125 80 171 150 56 
74 11 148 66 108 29 96 159 199 36 2 195 194 
75 11 77 28 81 143 160 46 162 90 175 34 113 
76 11 133 16 94 6 42 19 124 86 106 20 67 
77 11 75 81 28 162 143 90 175 160 34 46 116 
78 11 190 43 10 189 191 4 60 192 104 129 31 
79 10 47 166 119 186 8 93 102 55 64 95 
80 11 56 23 204 188 91 3 150 141 73 176 153 
81 11 90 175 77 34 116 75 14 143 28 162 130 
82 7 202 173 95 37 8 58 71 
83 10 93 145 47 25 79 166 186 64 70 102 
84 10 52 61 9 164 26 88 68 123 96 159 
85 9 144 140 54 178 170 139 106 104 19 
86 11 192 60 136 4 35 128 94 189 19 106 31 
87 11 30 73 181 125 91 44 135 171 204 150 23 
88 11 68 61 9 164 65 15 26 84 52 51 139 
89 11 62 141 3 48 150 171 176 196 100 131 204 
90 11 175 116 81 34 14 77 130 75 161 143 28 
91 11 73 204 30 23 80 150 56 171 87 3 141 
92 10 17 109 178 118 110 144 54 139 15 68 
93 10 47 83 145 166 79 186 64 70 102 25 
94 11 76 86 124 35 133 16 128 136 67 19 6 
95 11 8 119 37 82 102 186 71 55 14 202 5 
96 11 29 159 74 108 148 66 2 123 36 57 84 
97 11 5 71 137 37 55 132 64 102 70 186 134 
98 11 27 142 205 201 147 183 155 145 146 179 163 
99 11 194 203 22 149 199 168 195 66 152 148 36 
100 11 196 151 48 62 42 6 171 89 133 76 124 
101 11 24 69 103 112 152 58 32 33 134 7 168 
102 11 55 186 64 70 166 5 132 37 97 8 71 
103 11 101 69 24 33 32 112 168 117 203 7 152 
104 11 43 106 136 170 19 60 78 192 140 10 86 
105 11 122 13 197 117 26 21 52 33 51 158 164 
106 11 19 170 104 136 16 43 60 86 192 94 140 
107 11 57 191 129 121 10 2 123 36 78 159 190 
108 11 148 66 74 29 199 96 159 36 2 194 195 
109 10 92 118 17 110 178 54 144 15 139 65 
110 11 118 17 109 92 15 65 178 68 144 88 139 
111 10 59 131 176 153 188 167 141 3 50 89 
112 11 7 32 69 134 24 101 103 137 58 163 152 
113 11 53 162 28 41 169 45 138 174 160 77 75 
114 10 200 25 83 184 198 47 49 145 93 11 
115 10 172 165 187 20 54 178 85 16 135 144 
116 11 34 90 14 175 81 77 49 119 75 130 143 
117 11 13 33 168 203 194 103 122 101 108 148 66 
118 11 110 17 109 92 15 178 65 68 144 139 88 
119 11 95 8 37 79 186 14 102 55 166 64 71 
120 11 72 167 50 153 59 111 39 188 193 131 176 
121 11 191 36 107 2 195 10 57 190 129 78 199 
122 11 13 117 105 52 26 29 108 96 74 148 33 
123 10 57 107 129 159 2 96 191 29 84 10 
124 11 67 12 127 6 42 63 94 35 76 128 18 
125 11 135 181 171 87 196 73 100 150 91 30 165 
126 11 154 22 31 156 149 190 189 195 4 121 78 
127 11 12 67 124 6 42 63 45 94 35 128 18 
128 11 35 18 86 192 4 31 63 60 189 94 136 
129 11 107 10 57 191 123 78 43 121 190 2 140 
130 8 161 175 182 90 202 14 82 41 
131 10 176 111 59 141 3 89 62 48 193 150 
132 11 70 64 55 5 102 163 186 97 146 166 71 
133 11 76 16 94 42 6 20 19 124 151 106 67 
134 11 137 58 7 112 24 69 71 97 5 101 152 
135 11 125 181 196 171 165 172 87 100 151 20 73 
136 11 60 86 104 192 106 19 43 4 170 189 78 
137 11 97 71 134 5 37 58 7 132 55 163 64 
138 11 45 169 53 113 127 12 67 174 6 124 42 
139 9 144 140 68 85 178 92 17 61 88 
140 9 85 104 129 139 144 170 43 106 10 
141 11 3 89 150 176 62 171 204 48 131 111 80 
142 11 205 183 27 155 147 201 98 21 146 197 163 
143 11 46 40 75 77 81 11 34 90 116 160 28 
144 9 139 178 85 92 54 140 17 109 68 
145 10 83 93 25 47 166 146 70 79 64 201 
146 11 163 132 70 201 64 5 55 97 102 186 137 
147 11 183 201 205 155 142 146 27 163 32 7 112 
148 11 66 108 74 29 199 96 36 159 2 194 195 
149 10 22 156 99 126 182 173 195 154 199 36 
150 11 3 141 171 89 204 62 48 176 91 196 80 
151 11 100 196 42 6 48 124 62 127 133 12 67 
152 9 58 24 69 101 134 99 173 103 168 
153 11 59 188 111 167 50 176 56 80 131 120 23 
154 11 126 156 157 31 18 180 182 128 22 4 149 
155 11 183 21 205 147 142 197 32 201 27 112 7 
156 9 182 154 149 126 22 157 173 180 31 
157 11 180 18 154 63 156 41 128 35 31 182 126 
158 11 51 38 65 164 9 15 88 26 61 68 52 
159 11 96 29 2 74 123 57 36 66 148 108 107 
160 11 174 28 75 46 169 77 162 113 53 143 193 
161 8 130 41 182 180 175 157 162 156 
162 11 28 113 53 41 77 75 160 161 169 81 45 
163 11 146 132 70 5 64 97 137 55 7 102 71 
164 11 9 26 61 88 52 68 84 65 15 51 158 
165 11 172 115 187 20 135 181 125 185 133 16 54 
166 10 186 102 64 55 70 132 79 5 8 37 
167 11 50 59 153 120 111 193 72 131 176 39 188 
168 11 203 194 33 99 103 117 101 108 152 24 66 
169 10 174 113 138 53 160 45 28 162 193 41 
170 11 106 19 104 136 16 43 60 86 140 85 192 
171 11 150 89 3 141 62 196 48 125 204 100 91 
172 11 165 115 187 20 135 181 16 133 54 125 76 
173 6 182 202 149 156 82 22 
174 10 169 160 113 193 53 28 138 162 45 75 
175 11 90 81 116 14 34 130 77 161 75 28 162 
176 11 131 111 141 3 89 59 150 62 48 188 204 
177 11 105 158 51 38 122 26 197 164 9 65 52 
178 10 92 54 144 109 17 85 139 118 110 140 
179 11 98 25 145 200 27 83 114 93 201 47 142 
180 10 157 18 41 154 63 156 182 128 35 161 
181 11 125 135 87 73 30 165 171 91 172 196 44 
182 7 156 173 149 154 22 126 157 
183 11 155 147 205 142 21 201 32 27 197 7 112 
184 11 198 49 11 34 116 79 14 47 90 143 119 
185 11 44 165 181 172 115 87 135 125 30 73 187 
186 11 102 55 64 166 70 132 5 37 8 97 71 
187 11 20 172 115 16 165 54 85 133 170 19 106 
188 11 56 80 153 59 23 204 111 176 3 141 150 
189 11 4 60 192 78 31 190 43 86 136 10 128 
190 11 78 189 10 191 43 4 31 121 60 192 107 
191 11 107 10 121 129 57 190 78 2 36 43 123 
192 11 4 60 86 189 136 31 128 35 43 78 190 
193 10 174 50 169 160 131 167 111 39 59 46 
194 11 203 168 99 33 108 66 148 199 74 117 195 
195 11 36 199 121 2 22 66 191 74 107 148 126 
196 11 100 151 48 62 171 89 125 135 150 42 6 
197 11 21 155 183 13 32 117 103 105 33 147 112 
198 11 184 49 11 34 116 143 14 40 79 90 81 
199 11 36 66 195 148 74 108 2 121 99 29 159 
200 10 114 25 83 47 145 93 184 198 49 79 
201 11 147 146 27 163 205 183 132 70 142 7 64 
202 6 82 173 95 58 152 37 
203 11 168 194 33 99 108 66 148 199 117 74 103 
204 11 80 23 150 56 91 3 141 188 171 89 176 
205 11 142 183 147 27 155 201 98 21 146 163 32 
DEPOT_SECTION
   1
   -1
EOF
