NAME :  X-n270-kX-w26-c7.cctp
COMMENT : 	Adapted by Maziero, Usberti and Cavellucci from the Uchoa, Pecin, Pessoa, Poggi, Subramanian, and Vidal (2013)
TYPE :  CCTP
DIMENSION :    129
EDGE_WEIGHT_TYPE : 	EUC_2D	
CAPACITY : 	585
VERTICES_WITHIN_COVERAGE :  7
VERTICES_WITH_DEMAND : 	26
NODE_COORD_SECTION
1 500 500
2 643 512
3 707 407
4 394 355
5 140 470
6 364 215
7 493 857
8 117 466
9 462 38
10 551 479
11 742 498
12 533 706
13 788 425
14 799 6
15 836 680
16 88 225
17 164 988
18 537 20
19 612 395
20 314 942
21 342 974
22 518 758
23 860 774
24 313 36
25 275 23
26 324 971
27 822 588
28 272 458
29 868 427
30 236 823
31 887 411
32 193 899
33 687 303
34 447 220
35 716 472
36 415 141
37 738 309
38 524 60
39 112 157
40 556 54
41 362 223
42 474 338
43 274 568
44 315 380
45 381 302
46 880 823
47 335 961
48 288 169
49 155 910
50 80 459
51 93 565
52 762 531
53 737 409
54 921 781
55 221 23
56 422 992
57 66 976
58 487 429
59 535 319
60 336 35
61 51 503
62 334 968
63 488 437
64 474 906
65 106 988
66 558 398
67 500 17
68 181 909
69 107 556
70 516 409
71 345 879
72 447 182
73 825 545
74 840 689
75 129 532
76 89 305
77 434 407
78 348 132
79 390 473
80 598 286
81 464 891
82 671 336
83 445 889
84 318 2
85 387 142
86 480 339
87 884 826
88 207 24
89 557 694
90 768 584
91 818 715
92 500 706
93 862 849
94 539 728
95 850 28
96 891 612
97 628 448
98 277 45
99 712 63
100 804 68
101 536 318
102 838 835
103 890 749
104 551 695
105 734 66
106 717 545
107 224 25
108 550 683
109 234 56
110 883 597
111 233 64
112 813 611
113 868 603
114 555 673
115 600 452
116 850 547
117 63 175
118 789 598
119 803 64
120 835 42
121 591 543
122 576 872
123 530 707
124 787 650
125 194 350
126 857 704
127 511 732
128 872 794
129 302 59
DEMAND_SECTION
2 77
3 91
4 67
5 69
6 68
7 64
8 65
9 83
10 64
11 77
12 87
13 99
14 84
15 74
16 89
17 76
18 68
19 87
20 69
21 97
22 87
23 59
24 82
25 75
26 55
27 95
COVERAGE_SECTION
2 7 121 97 115 106 35 10 11 
3 7 53 35 82 13 97 19 11 
4 7 45 77 42 44 86 79 58 
5 6 8 50 75 69 61 51 
6 7 41 85 34 78 45 48 72 
7 6 81 64 83 122 22 127 
8 6 5 50 75 61 69 51 
9 7 67 38 18 40 36 60 85 
10 7 115 121 63 70 58 66 97 
11 7 35 52 106 13 53 90 73 
12 7 123 104 94 89 108 92 127 
13 7 53 29 3 11 35 31 52 
14 5 120 95 119 100 105 
15 4 74 126 91 124 
16 3 117 39 76 
17 6 65 49 68 32 57 20 
18 5 67 40 38 9 36 
19 7 66 97 115 82 3 70 10 
20 7 47 26 62 21 71 56 32 
21 7 62 47 26 20 56 71 83 
22 7 127 94 123 12 92 104 89 
23 6 128 103 46 87 54 102 
24 7 60 129 84 98 25 109 111 
25 7 98 24 129 84 107 109 55 
26 7 62 47 21 20 71 56 83 
27 7 112 118 73 113 116 90 110 
28 7 44 43 79 5 125 8 4 
29 4 31 13 116 73 
30 5 32 68 49 71 20 
31 2 29 13 
32 4 68 49 30 17 
33 5 82 37 80 3 53 
34 7 72 6 36 41 85 45 42 
35 7 11 3 53 106 52 2 13 
36 7 85 72 78 34 6 41 9 
37 5 33 82 53 3 13 
38 6 40 18 67 9 36 72 
39 2 117 16 
40 5 38 18 67 9 99 
41 7 6 45 34 85 48 78 72 
42 7 86 59 101 77 4 70 58 
43 5 28 75 79 5 69 
44 7 4 28 45 79 77 125 41 
45 7 4 41 6 42 44 34 86 
46 7 87 128 93 102 23 54 103 
47 7 62 21 26 20 71 56 83 
48 5 78 6 41 85 129 
49 5 68 32 17 65 57 
50 6 8 61 5 75 69 51 
51 4 69 75 61 8 
52 6 11 106 90 73 118 35 
53 7 3 13 35 11 82 37 97 
54 7 103 128 87 46 23 93 102 
55 6 107 88 109 111 25 98 
56 7 21 62 47 26 64 83 81 
57 5 65 17 49 68 32 
58 6 63 70 77 66 10 86 
59 7 101 86 42 80 66 70 19 
60 7 24 84 129 98 25 78 109 
61 6 50 51 8 69 75 5 
62 7 47 21 26 20 71 56 83 
63 6 58 70 77 10 66 86 
64 7 81 83 7 56 122 71 21 
65 5 57 17 49 68 32 
66 7 70 19 115 58 63 10 59 
67 7 18 9 38 40 36 60 85 
68 5 32 49 17 30 65 
69 5 51 75 61 8 5 
70 7 58 63 66 10 86 42 77 
71 7 20 47 62 26 21 83 81 
72 7 34 36 85 6 41 78 45 
73 7 116 27 118 52 112 90 113 
74 4 15 126 91 124 
75 6 69 51 5 8 61 50 
76 6 16 125 117 39 50 8 
77 7 58 63 4 79 42 70 86 
78 6 85 36 48 6 129 41 
79 5 77 63 58 4 28 
80 5 101 59 82 33 19 
81 7 64 83 7 56 122 71 22 
82 6 33 37 3 19 80 53 
83 7 81 64 7 71 56 47 122 
84 7 24 60 25 98 129 107 55 
85 7 36 78 72 6 41 34 48 
86 7 42 59 101 70 77 4 58 
87 7 46 93 128 102 23 54 103 
88 5 55 107 109 111 25 
89 5 104 108 114 12 123 
90 5 118 112 52 27 106 
91 3 74 15 126 
92 5 127 123 12 94 104 
93 5 102 46 87 128 23 
94 7 12 123 127 104 22 89 92 
95 4 120 14 119 100 
96 5 110 113 27 116 112 
97 7 115 19 2 10 66 3 35 
98 7 25 129 24 109 111 107 84 
99 4 105 119 100 14 
100 5 119 120 95 14 105 
101 7 59 86 42 80 66 70 19 
102 5 93 46 87 128 23 
103 7 23 54 128 126 46 87 74 
104 5 89 108 12 114 123 
105 5 99 119 100 14 120 
106 4 52 11 90 35 
107 6 55 88 109 111 25 98 
108 4 114 104 89 12 
109 6 111 107 55 88 98 25 
110 6 113 96 116 27 112 73 
111 6 109 107 55 88 98 25 
112 6 27 118 124 90 113 73 
113 6 110 96 27 112 116 73 
114 4 108 89 104 12 
115 7 97 10 19 66 2 121 70 
116 7 73 27 113 110 112 96 118 
117 2 39 16 
118 6 90 112 27 124 73 52 
119 5 100 120 14 95 105 
120 4 95 119 100 14 
121 4 2 10 115 97 
122 2 7 64 
123 7 12 94 104 89 92 108 127 
124 3 112 118 15 
125 7 76 44 5 28 8 50 16 
126 5 74 15 91 103 23 
127 7 22 92 94 123 12 104 89 
128 7 23 46 87 103 54 102 93 
129 7 24 98 60 25 84 109 111 
DEPOT_SECTION
   1
   -1
EOF
