NAME :  X-n251-kX-w100-c9.cctp
COMMENT : 	Adapted by Maziero, Usberti and Cavellucci from the Uchoa, Pecin, Pessoa, Poggi, Subramanian, and Vidal (2013)
TYPE :  CCTP
DIMENSION :    219
EDGE_WEIGHT_TYPE : 	EUC_2D	
CAPACITY : 	69
VERTICES_WITHIN_COVERAGE :  9
VERTICES_WITH_DEMAND : 	100
NODE_COORD_SECTION
1 112 700
2 363 779
3 245 896
4 238 19
5 184 351
6 305 763
7 366 814
8 137 857
9 564 31
10 303 157
11 523 830
12 134 231
13 851 445
14 740 311
15 163 95
16 275 499
17 470 814
18 453 217
19 818 525
20 311 911
21 177 374
22 230 4
23 590 302
24 196 103
25 553 879
26 316 446
27 665 375
28 587 609
29 510 95
30 907 455
31 805 956
32 342 345
33 785 309
34 649 584
35 850 24
36 26 126
37 447 817
38 145 527
39 218 825
40 405 151
41 389 436
42 452 619
43 407 367
44 948 514
45 836 996
46 578 334
47 491 929
48 325 696
49 838 842
50 983 788
51 623 549
52 915 72
53 774 336
54 81 238
55 534 537
56 295 406
57 853 358
58 742 581
59 32 964
60 747 352
61 610 799
62 786 853
63 506 168
64 755 957
65 408 67
66 485 734
67 419 256
68 508 155
69 941 589
70 68 42
71 817 595
72 397 274
73 727 302
74 216 237
75 821 320
76 516 531
77 614 163
78 561 920
79 128 834
80 162 534
81 279 644
82 188 329
83 520 301
84 336 782
85 728 230
86 139 848
87 350 154
88 242 162
89 791 925
90 907 497
91 52 593
92 786 457
93 629 745
94 935 439
95 641 78
96 78 835
97 232 226
98 123 479
99 205 840
100 932 357
101 917 917
102 325 559
103 413 373
104 362 477
105 827 881
106 845 263
107 11 938
108 88 535
109 436 200
110 940 319
111 325 59
112 34 264
113 47 470
114 322 89
115 757 29
116 825 289
117 287 304
118 657 82
119 288 406
120 287 623
121 616 828
122 60 445
123 978 511
124 956 171
125 818 184
126 605 464
127 462 934
128 599 895
129 364 90
130 304 854
131 753 926
132 544 127
133 343 127
134 422 270
135 472 104
136 453 844
137 526 137
138 230 995
139 675 278
140 495 428
141 684 158
142 446 37
143 507 67
144 654 332
145 526 932
146 479 288
147 708 108
148 588 159
149 473 898
150 618 85
151 433 373
152 409 207
153 470 925
154 534 887
155 770 74
156 546 47
157 612 177
158 597 299
159 630 398
160 538 29
161 524 66
162 326 841
163 533 86
164 503 136
165 557 307
166 350 13
167 720 957
168 515 103
169 496 204
170 482 329
171 338 918
172 427 792
173 441 297
174 764 238
175 504 147
176 488 66
177 509 204
178 596 931
179 578 922
180 496 161
181 361 962
182 539 869
183 460 149
184 468 807
185 448 49
186 609 100
187 537 7
188 697 29
189 440 120
190 400 190
191 469 264
192 572 82
193 451 908
194 440 203
195 628 934
196 632 84
197 508 184
198 635 25
199 490 104
200 528 2
201 482 957
202 457 847
203 495 287
204 183 354
205 814 278
206 359 893
207 598 325
208 552 367
209 665 287
210 549 277
211 474 937
212 499 922
213 522 337
214 442 130
215 559 398
216 564 162
217 524 193
218 515 935
219 605 773
DEMAND_SECTION
2 5
3 7
4 5
5 8
6 7
7 8
8 7
9 9
10 7
11 6
12 7
13 8
14 6
15 9
16 8
17 8
18 9
19 6
20 8
21 5
22 6
23 7
24 7
25 6
26 9
27 6
28 7
29 10
30 9
31 5
32 10
33 10
34 9
35 5
36 7
37 6
38 9
39 8
40 9
41 6
42 5
43 8
44 6
45 5
46 5
47 5
48 7
49 5
50 7
51 7
52 8
53 9
54 10
55 5
56 10
57 10
58 9
59 8
60 9
61 7
62 10
63 10
64 6
65 9
66 8
67 9
68 7
69 5
70 8
71 10
72 9
73 7
74 8
75 9
76 5
77 10
78 8
79 9
80 9
81 8
82 9
83 8
84 10
85 5
86 10
87 6
88 10
89 7
90 8
91 5
92 7
93 7
94 5
95 5
96 7
97 5
98 9
99 6
100 10
101 5
COVERAGE_SECTION
2 9 84 7 6 172 162 48 37 130 184 
3 9 20 99 130 39 171 162 138 206 8 
4 9 22 24 111 15 114 166 88 129 133 
5 9 204 82 21 117 74 119 56 12 97 
6 9 84 2 48 7 162 130 39 81 172 
7 9 2 84 162 172 130 206 6 37 136 
8 9 86 79 96 99 39 3 59 107 138 
9 6 156 160 187 200 192 161 
10 9 87 133 88 114 129 97 111 40 190 
11 9 182 17 25 154 184 202 136 37 149 
12 9 54 74 97 112 82 88 5 204 15 
13 9 30 92 90 94 19 57 44 100 75 
14 9 73 53 60 33 139 174 209 75 205 
15 9 24 88 4 70 22 12 36 97 74 
16 9 26 102 104 119 56 80 120 41 38 
17 9 184 37 136 202 172 11 66 149 182 
18 9 194 109 152 169 191 67 177 190 134 
19 9 71 92 13 90 58 30 44 69 94 
20 8 171 206 130 3 181 162 7 138 
21 9 204 5 82 119 98 56 117 122 74 
22 9 4 24 111 15 166 114 88 129 70 
23 8 158 207 165 46 210 83 144 208 
24 9 15 88 4 22 10 114 97 74 111 
25 9 182 154 78 128 179 11 145 178 218 
26 9 56 119 104 16 41 32 102 43 103 
27 9 159 144 207 60 209 46 73 139 14 
28 9 34 51 55 76 42 93 126 58 66 
29 8 168 199 163 143 161 176 135 164 
30 9 94 90 13 44 123 100 57 19 92 
31 9 89 64 45 131 105 167 62 49 101 
32 9 43 117 103 56 119 72 151 41 26 
33 9 53 75 205 14 116 60 73 174 106 
34 9 51 28 58 55 126 76 93 71 19 
35 9 52 115 155 188 125 147 124 118 141 
36 9 70 54 112 15 12 24 88 74 97 
37 8 17 184 136 172 202 11 7 149 
38 9 80 98 108 113 91 122 16 21 120 
39 9 99 3 86 8 79 130 6 162 84 
40 9 190 214 189 87 183 152 109 194 133 
41 9 104 103 43 26 151 56 32 119 140 
42 9 76 55 66 28 102 48 120 104 81 
43 9 103 151 32 41 173 170 72 134 140 
44 9 123 90 30 69 94 13 19 71 100 
45 9 31 89 64 131 101 105 167 62 49 
46 9 207 23 165 158 208 213 210 83 215 
47 9 212 211 153 218 127 201 145 149 193 
48 9 81 6 120 84 2 7 102 172 162 
49 9 105 62 89 101 31 131 64 45 50 
50 9 101 49 105 69 62 89 31 45 71 
51 9 34 28 126 55 76 58 159 215 140 
52 9 35 124 155 125 115 106 147 188 174 
53 9 33 60 14 75 73 116 205 57 174 
54 9 12 112 36 74 82 97 5 204 15 
55 9 76 28 51 126 42 140 34 215 159 
56 9 119 26 32 16 104 41 117 43 21 
57 9 75 116 100 53 33 13 205 106 110 
58 9 71 34 19 51 92 28 13 126 90 
59 9 107 96 8 86 79 138 99 3 39 
60 9 53 14 73 33 75 27 144 116 205 
61 9 219 121 93 11 128 25 182 154 179 
62 9 105 49 89 131 31 64 167 101 45 
63 9 180 68 197 175 217 164 177 137 169 
64 9 131 167 89 31 45 105 62 195 49 
65 7 185 142 129 189 214 135 166 
66 9 184 17 172 37 11 136 202 42 219 
67 9 134 72 173 152 191 18 194 109 146 
68 9 175 63 180 164 137 197 217 132 183 
69 9 44 123 90 71 30 19 94 13 58 
70 9 36 15 24 22 4 54 12 88 112 
71 9 19 58 69 90 92 13 44 30 34 
72 9 134 67 173 152 191 18 146 194 109 
73 9 14 60 139 33 53 209 85 174 144 
74 9 97 88 12 82 117 5 10 204 24 
75 9 116 33 205 53 57 106 14 60 73 
76 9 55 28 140 42 51 126 215 34 41 
77 4 157 148 216 186 
78 9 179 145 178 25 154 128 218 182 212 
79 9 86 8 96 99 39 3 107 59 130 
80 9 38 98 108 16 91 113 122 120 21 
81 9 120 48 102 6 16 84 2 80 42 
82 9 5 204 21 74 117 12 97 119 56 
83 7 203 213 165 210 146 170 191 
84 9 2 6 7 162 130 48 172 206 37 
85 9 174 73 139 14 141 209 33 205 125 
86 9 8 79 96 99 39 3 107 59 130 
87 9 133 10 40 190 129 114 152 214 189 
88 9 10 97 24 74 15 133 87 114 12 
89 9 31 131 64 105 62 167 45 49 101 
90 9 30 44 94 123 13 19 69 92 71 
91 9 108 38 113 80 98 122 81 120 16 
92 9 13 19 60 57 30 53 90 58 71 
93 9 219 61 121 11 28 66 128 182 25 
94 9 30 90 44 100 13 123 57 110 19 
95 8 196 118 150 186 198 192 147 188 
96 9 79 86 8 107 99 59 39 3 138 
97 9 74 88 117 12 10 82 24 5 204 
98 9 38 108 80 122 113 21 91 204 5 
99 9 39 86 3 8 79 130 162 6 96 
100 9 110 57 94 30 75 13 116 106 90 
101 9 105 49 45 31 89 50 62 131 64 
102 9 120 16 104 81 26 48 41 42 56 
103 9 43 151 41 32 173 170 140 72 134 
104 9 41 26 16 102 56 119 103 43 151 
105 9 49 62 89 31 131 101 64 45 167 
106 9 116 205 75 33 125 174 57 53 110 
107 9 59 96 8 86 79 99 138 39 3 
108 9 38 98 91 80 113 122 21 16 204 
109 9 194 18 152 190 183 40 67 169 214 
110 9 100 57 106 75 116 94 205 30 124 
111 9 114 129 166 133 65 4 87 10 22 
112 9 54 12 36 82 5 204 21 122 74 
113 9 122 98 108 38 91 80 21 204 5 
114 9 111 129 133 10 87 166 65 40 88 
115 9 155 188 35 147 118 198 95 196 141 
116 9 205 75 106 33 53 57 174 14 73 
117 9 32 97 74 56 82 119 5 72 204 
118 8 95 196 150 186 147 198 188 141 
119 9 56 26 32 16 117 104 41 21 204 
120 9 81 102 48 16 6 80 104 42 84 
121 9 61 219 128 25 93 182 11 154 179 
122 9 113 98 108 38 80 21 91 204 5 
123 9 44 90 94 69 30 13 19 100 71 
124 9 52 125 106 110 116 205 35 100 75 
125 9 174 106 205 85 116 155 33 147 75 
126 9 159 215 51 55 27 76 208 140 34 
127 6 153 211 193 47 201 149 
128 9 179 178 78 25 195 154 182 121 145 
129 9 114 133 65 111 87 40 166 189 214 
130 9 162 20 206 3 171 7 84 6 39 
131 9 64 89 167 31 62 105 45 49 195 
132 7 137 168 216 163 164 175 68 
133 9 87 114 129 10 40 111 190 65 189 
134 9 67 72 173 191 146 18 152 194 109 
135 9 199 189 29 214 176 168 164 183 143 
136 8 202 37 17 184 149 172 193 11 
137 8 132 164 175 68 168 63 180 29 
138 9 3 20 171 181 99 130 206 8 39 
139 9 209 73 144 85 14 158 23 207 27 
140 9 215 151 208 213 103 170 76 41 43 
141 9 147 77 157 118 85 196 95 186 148 
142 3 185 65 176 
143 4 161 176 29 163 
144 9 27 209 207 139 158 159 23 46 73 
145 9 218 212 47 78 154 201 211 179 153 
146 7 203 191 173 170 83 134 213 
147 9 141 118 155 95 188 196 115 150 186 
148 5 216 77 157 132 186 
149 7 193 153 212 47 127 211 202 
150 7 196 186 95 118 192 198 9 
151 9 103 43 170 173 41 140 32 213 146 
152 9 190 109 194 18 67 40 134 72 183 
153 7 127 211 47 193 149 212 201 
154 9 182 25 78 145 212 218 179 11 47 
155 9 115 147 188 35 118 125 141 95 196 
156 5 160 9 161 163 187 
157 3 77 148 216 
158 7 23 207 46 165 210 144 209 
159 9 27 144 126 215 207 46 208 23 158 
160 4 156 187 9 200 
161 5 143 163 156 29 176 
162 9 130 7 84 206 2 20 171 6 3 
163 7 161 29 168 143 192 156 132 
164 9 175 68 137 180 63 168 199 29 132 
165 9 210 23 46 83 158 207 213 208 203 
166 8 111 129 65 114 142 185 4 133 
167 9 64 131 89 31 195 45 62 178 105 
168 9 29 163 199 164 137 143 132 161 135 
169 5 177 197 217 63 180 
170 9 146 213 203 83 173 151 191 165 208 
171 6 20 206 181 130 162 3 
172 9 37 184 17 136 202 2 7 66 84 
173 9 134 146 191 67 72 170 203 151 43 
174 9 85 205 33 73 125 14 116 106 139 
175 9 68 164 180 63 137 197 183 132 168 
176 3 143 29 161 
177 4 169 217 197 63 
178 9 179 195 128 78 25 145 154 218 182 
179 9 78 178 128 25 195 145 154 218 182 
180 9 63 68 175 164 197 137 183 169 217 
181 4 171 206 20 127 
182 9 25 154 11 78 145 128 179 212 218 
183 9 214 189 180 175 164 135 68 63 199 
184 9 17 37 136 202 172 11 66 149 182 
185 3 142 176 65 
186 7 150 196 95 192 118 77 148 
187 4 200 160 9 156 
188 9 115 198 118 95 147 196 155 150 186 
189 9 214 183 135 40 199 65 164 175 180 
190 9 152 109 40 194 18 87 67 183 214 
191 7 146 203 173 134 18 67 83 
192 6 163 186 156 150 161 9 
193 5 149 153 127 211 47 
194 9 109 18 152 190 169 67 183 40 191 
195 9 178 128 179 78 25 167 145 154 121 
196 7 95 150 118 186 198 192 147 
197 7 63 217 177 169 180 68 175 
198 8 95 196 118 150 188 9 186 192 
199 9 135 29 168 164 176 143 175 163 137 
200 4 187 160 9 156 
201 7 211 47 127 153 212 218 145 
202 8 136 37 17 184 149 193 172 11 
203 7 146 83 191 170 173 210 213 
204 9 5 21 82 117 119 74 56 12 97 
205 9 116 106 33 75 174 53 14 57 73 
206 6 171 20 162 130 181 7 
207 9 46 23 158 165 144 208 210 209 213 
208 9 215 46 213 165 207 83 23 170 158 
209 9 139 144 73 158 23 207 14 85 27 
210 4 165 83 23 158 
211 7 127 153 47 201 212 193 149 
212 9 47 218 145 153 211 149 127 201 154 
213 9 83 170 208 165 46 203 146 210 215 
214 9 189 183 135 40 199 164 180 175 109 
215 9 208 46 140 159 213 126 207 165 23 
216 5 148 132 137 77 157 
217 4 197 177 169 63 
218 9 145 212 47 201 211 153 78 154 127 
219 9 61 93 121 11 182 25 128 66 154 
DEPOT_SECTION
   1
   -1
EOF
