NAME :  X-n209-kX-w41-c7.cctp
COMMENT : 	Adapted by Maziero, Usberti and Cavellucci from the Uchoa, Pecin, Pessoa, Poggi, Subramanian, and Vidal (2013)
TYPE :  CCTP
DIMENSION :    184
EDGE_WEIGHT_TYPE : 	EUC_2D	
CAPACITY : 	101
VERTICES_WITHIN_COVERAGE :  7
VERTICES_WITH_DEMAND : 	41
NODE_COORD_SECTION
1 0 0
2 487 949
3 492 770
4 150 556
5 130 719
6 962 393
7 54 890
8 861 705
9 338 631
10 119 741
11 48 296
12 982 827
13 18 954
14 558 698
15 857 337
16 963 72
17 218 46
18 705 484
19 315 3
20 331 358
21 688 156
22 314 338
23 214 428
24 193 866
25 381 924
26 968 10
27 797 382
28 733 544
29 956 878
30 576 270
31 257 778
32 713 605
33 270 940
34 880 401
35 245 168
36 973 29
37 888 919
38 943 703
39 364 248
40 932 60
41 575 18
42 663 990
43 85 708
44 801 330
45 261 91
46 163 953
47 509 249
48 237 336
49 791 356
50 314 168
51 356 726
52 260 412
53 630 144
54 534 255
55 448 320
56 987 333
57 691 109
58 83 716
59 395 818
60 605 769
61 633 162
62 651 644
63 221 4
64 551 912
65 762 604
66 337 41
67 156 318
68 756 357
69 749 173
70 535 235
71 719 700
72 717 4
73 759 103
74 615 132
75 42 268
76 952 2
77 989 303
78 471 821
79 650 215
80 302 881
81 61 459
82 391 405
83 364 170
84 643 744
85 324 620
86 92 914
87 133 607
88 223 949
89 988 415
90 943 616
91 659 250
92 766 532
93 730 338
94 850 489
95 564 296
96 997 183
97 127 966
98 300 985
99 884 92
100 438 673
101 591 658
102 928 894
103 107 816
104 581 799
105 46 288
106 548 0
107 379 725
108 186 490
109 947 161
110 702 712
111 230 722
112 40 891
113 362 568
114 26 614
115 756 658
116 818 433
117 236 62
118 314 56
119 276 466
120 789 828
121 626 677
122 626 156
123 207 461
124 566 842
125 676 871
126 135 983
127 956 181
128 5 209
129 10 57
130 499 617
131 882 465
132 716 147
133 740 993
134 77 480
135 742 233
136 869 824
137 809 987
138 999 514
139 748 391
140 366 917
141 272 875
142 0 9
143 260 359
144 449 208
145 278 711
146 683 498
147 930 690
148 184 567
149 257 360
150 783 645
151 282 884
152 978 688
153 514 349
154 343 552
155 290 171
156 675 414
157 386 86
158 575 26
159 863 973
160 223 412
161 958 176
162 391 824
163 228 93
164 704 946
165 938 995
166 159 343
167 698 106
168 361 937
169 201 120
170 158 852
171 786 630
172 91 909
173 291 333
174 575 931
175 60 763
176 321 837
177 154 302
178 490 215
179 70 159
180 972 987
181 527 340
182 34 241
183 878 485
184 124 413
DEMAND_SECTION
2 7
3 6
4 7
5 8
6 10
7 7
8 7
9 10
10 8
11 5
12 6
13 5
14 6
15 5
16 8
17 5
18 8
19 6
20 6
21 7
22 5
23 9
24 10
25 6
26 6
27 6
28 7
29 8
30 9
31 7
32 6
33 6
34 10
35 5
36 5
37 8
38 10
39 9
40 9
41 6
42 7
COVERAGE_SECTION
2 7 64 174 25 140 168 78 124 
3 7 78 104 14 124 59 100 60 
4 7 148 87 108 134 123 81 114 
5 7 10 43 58 175 103 111 87 
6 7 89 56 34 77 131 15 183 
7 7 112 172 86 13 103 97 170 
8 7 147 38 150 171 115 152 136 
9 7 85 113 154 51 145 107 100 
10 7 5 58 43 175 103 111 170 
11 7 105 75 182 128 177 67 166 
12 7 29 102 136 38 37 152 147 
13 7 112 7 86 172 97 126 46 
14 7 101 121 60 84 3 130 104 
15 7 44 34 49 27 68 116 6 
16 7 40 36 26 76 99 109 161 
17 7 117 63 163 45 169 118 19 
18 7 146 28 156 92 139 32 116 
19 7 66 118 63 117 45 17 157 
20 6 22 173 143 149 82 52 
21 7 132 57 167 61 53 122 69 
22 7 173 20 143 149 48 52 82 
23 7 160 123 52 108 119 149 143 
24 7 170 141 88 151 46 103 33 
25 7 140 168 80 162 98 176 59 
26 7 76 36 16 40 99 109 161 
27 7 49 68 139 44 116 15 93 
28 7 92 32 18 65 146 171 150 
29 7 102 12 37 136 180 165 159 
30 7 95 54 70 47 91 181 79 
31 7 111 145 176 141 24 151 51 
32 7 65 28 115 62 171 150 92 
33 7 88 98 151 141 80 168 140 
34 7 131 15 116 6 183 27 94 
35 7 155 169 50 163 45 117 83 
36 7 26 76 16 40 99 109 161 
37 7 102 159 29 165 136 137 180 
38 6 147 152 8 90 12 136 
39 7 83 50 144 22 155 55 173 
40 6 16 36 99 76 26 109 
41 5 158 106 74 53 72 
42 7 164 133 174 125 64 137 124 
43 7 58 5 10 175 103 114 87 
44 7 49 27 68 15 93 139 116 
45 7 163 117 17 118 169 35 155 
46 7 97 126 88 86 172 24 170 
47 7 54 70 178 30 95 144 181 
48 7 149 143 173 22 160 166 52 
49 7 27 44 68 139 93 15 116 
50 6 155 83 35 45 39 157 
51 7 107 145 9 100 59 162 85 
52 7 160 23 149 143 119 123 48 
53 7 122 61 74 21 57 79 167 
54 7 70 47 30 95 178 181 153 
55 7 153 181 47 82 54 39 144 
56 6 77 6 89 34 15 96 
57 7 167 132 21 73 53 61 74 
58 7 43 10 5 175 103 114 87 
59 7 162 78 176 107 51 140 25 
60 7 104 84 124 14 121 101 3 
61 7 122 53 74 21 79 57 132 
62 7 121 101 32 110 71 84 115 
63 7 17 117 163 19 45 118 169 
64 7 174 124 2 104 78 125 42 
65 7 171 150 32 115 28 92 71 
66 6 118 19 157 45 117 17 
67 7 177 166 48 184 149 11 143 
68 5 93 49 139 27 44 
69 7 132 135 21 73 167 57 79 
70 7 54 47 178 30 95 144 181 
71 7 110 115 150 62 84 32 121 
72 5 167 57 73 41 132 
73 5 167 132 57 69 21 
74 6 53 122 61 21 57 167 
75 7 105 182 11 128 179 177 67 
76 7 26 36 40 16 99 109 161 
77 6 56 6 89 96 127 161 
78 7 3 59 162 124 104 64 2 
79 7 91 61 122 21 53 74 30 
80 7 151 141 176 33 140 168 25 
81 7 134 184 108 4 123 166 23 
82 1 20 
83 5 50 155 39 157 144 
84 7 60 110 121 104 71 14 62 
85 6 9 113 154 145 51 107 
86 7 172 7 112 97 46 126 13 
87 7 4 148 114 5 43 58 108 
88 7 33 46 98 24 151 141 126 
89 7 6 56 138 34 77 131 183 
90 5 147 152 38 138 8 
91 6 79 30 135 61 21 122 
92 7 28 65 18 32 146 94 171 
93 5 68 139 49 44 27 
94 5 183 131 116 34 92 
95 7 30 54 181 70 47 153 91 
96 4 161 127 109 16 
97 7 126 46 86 172 88 7 13 
98 7 33 168 88 140 25 151 80 
99 5 40 16 109 36 161 
100 7 107 130 51 9 3 14 85 
101 7 121 14 62 84 130 60 110 
102 7 29 37 12 136 165 159 180 
103 7 170 175 10 7 172 24 86 
104 7 60 124 84 3 14 78 64 
105 7 11 75 182 128 177 67 166 
106 4 41 158 74 53 
107 7 51 100 59 162 145 9 85 
108 7 123 23 4 148 160 119 184 
109 4 161 127 96 16 
110 7 71 84 115 121 62 150 32 
111 7 145 31 5 10 51 85 9 
112 7 7 172 86 13 103 97 170 
113 3 154 85 9 
114 7 87 43 58 4 134 5 175 
115 7 150 171 65 71 32 110 62 
116 7 27 94 34 131 183 49 139 
117 7 17 163 45 63 169 118 19 
118 6 66 19 45 117 157 163 
119 4 52 123 23 160 
120 7 136 125 37 8 110 164 71 
121 7 101 62 84 14 110 60 71 
122 7 61 53 74 21 79 57 167 
123 7 23 108 160 119 52 184 148 
124 7 104 64 60 174 78 3 125 
125 7 164 124 174 104 42 120 60 
126 7 97 46 86 172 88 13 7 
127 4 161 109 96 16 
128 7 182 75 179 105 11 129 177 
129 7 142 179 128 182 169 17 75 
130 5 100 14 101 121 113 
131 5 183 94 34 116 6 
132 7 21 69 57 167 73 61 53 
133 7 164 137 42 159 125 37 120 
134 7 81 184 4 108 123 148 87 
135 7 69 91 132 21 79 93 44 
136 7 120 102 37 29 12 8 38 
137 7 159 133 37 164 165 42 102 
138 5 89 90 183 6 131 
139 7 68 27 49 93 156 44 116 
140 7 25 168 80 151 176 98 162 
141 7 151 80 176 33 24 88 31 
142 7 129 179 128 17 63 169 182 
143 7 149 48 173 52 22 160 20 
144 6 178 47 70 83 39 54 
145 7 111 31 51 9 85 107 176 
146 6 18 28 156 92 32 139 
147 6 38 152 8 90 12 136 
148 7 4 87 108 123 119 134 23 
149 7 143 48 173 52 22 160 20 
150 7 171 115 65 32 71 8 110 
151 7 141 80 33 176 88 140 24 
152 6 38 147 90 8 12 136 
153 6 181 55 95 54 30 47 
154 3 113 85 9 
155 7 50 35 83 45 163 169 39 
156 4 18 139 146 93 
157 4 66 118 83 19 
158 5 41 106 74 53 122 
159 7 137 37 165 102 180 133 29 
160 7 23 52 123 149 143 119 48 
161 4 127 109 96 16 
162 7 59 176 78 140 25 107 51 
163 7 117 45 169 17 35 63 118 
164 7 133 42 125 137 174 120 64 
165 7 180 159 37 102 29 137 12 
166 7 67 177 48 184 160 149 23 
167 7 57 132 21 73 53 69 61 
168 7 140 25 98 80 33 151 141 
169 7 163 35 45 117 17 155 63 
170 7 24 103 172 86 46 7 141 
171 7 150 65 115 32 71 92 28 
172 7 86 7 112 97 46 13 126 
173 7 22 143 149 20 48 52 160 
174 7 64 124 2 42 125 164 104 
175 7 58 43 10 103 5 7 112 
176 7 80 151 141 162 59 31 140 
177 7 67 166 48 11 105 184 75 
178 5 47 144 70 54 30 
179 7 128 182 75 129 105 169 11 
180 7 165 102 37 29 159 12 137 
181 6 153 95 55 30 54 47 
182 7 75 128 105 11 179 177 67 
183 5 131 94 116 34 92 
184 7 81 166 134 23 123 108 160 
DEPOT_SECTION
   1
   -1
EOF
