NAME :  X-n256-kX-w25-c9.cctp
COMMENT : 	Adapted by Maziero, Usberti and Cavellucci from the Uchoa, Pecin, Pessoa, Poggi, Subramanian, and Vidal (2013)
TYPE :  CCTP
DIMENSION :    182
EDGE_WEIGHT_TYPE : 	EUC_2D	
CAPACITY : 	1225
VERTICES_WITHIN_COVERAGE :  9
VERTICES_WITH_DEMAND : 	25
NODE_COORD_SECTION
1 500 500
2 878 606
3 35 593
4 320 125
5 189 244
6 274 784
7 900 310
8 742 640
9 800 448
10 66 599
11 829 588
12 660 698
13 290 673
14 669 619
15 252 742
16 425 160
17 291 114
18 289 90
19 813 663
20 847 528
21 589 738
22 756 687
23 777 547
24 810 554
25 823 501
26 5 179
27 277 59
28 76 127
29 229 65
30 868 256
31 713 640
32 692 668
33 332 773
34 782 719
35 230 680
36 366 42
37 447 107
38 357 24
39 120 255
40 155 252
41 793 605
42 248 236
43 273 163
44 741 596
45 324 753
46 195 632
47 728 460
48 296 66
49 885 203
50 330 780
51 204 177
52 659 553
53 426 102
54 309 755
55 215 242
56 24 547
57 373 110
58 862 596
59 83 155
60 816 433
61 917 345
62 62 661
63 874 602
64 247 231
65 908 590
66 812 701
67 796 520
68 30 230
69 189 199
70 774 664
71 146 730
72 188 748
73 954 296
74 279 160
75 730 640
76 56 562
77 819 427
78 873 663
79 308 101
80 256 669
81 280 122
82 800 663
83 193 65
84 583 843
85 940 363
86 523 797
87 753 415
88 786 576
89 60 623
90 512 166
91 928 312
92 823 802
93 266 776
94 166 204
95 793 691
96 906 599
97 217 20
98 124 271
99 880 572
100 53 561
101 386 713
102 764 423
103 98 577
104 77 608
105 875 607
106 266 847
107 861 673
108 657 665
109 784 424
110 882 574
111 349 113
112 519 674
113 568 693
114 412 715
115 681 739
116 243 887
117 328 130
118 907 505
119 364 107
120 809 640
121 873 414
122 775 601
123 194 309
124 246 850
125 268 168
126 181 782
127 695 698
128 708 454
129 213 701
130 213 214
131 931 586
132 175 243
133 466 38
134 697 594
135 307 170
136 76 554
137 794 695
138 24 575
139 775 559
140 897 309
141 415 180
142 201 293
143 366 205
144 265 765
145 729 846
146 707 632
147 274 809
148 901 604
149 685 725
150 860 244
151 209 189
152 319 167
153 221 697
154 379 190
155 629 657
156 740 486
157 94 552
158 272 173
159 884 628
160 967 297
161 913 279
162 196 313
163 276 84
164 692 632
165 284 743
166 253 739
167 874 303
168 695 657
169 705 456
170 248 819
171 781 843
172 866 544
173 884 375
174 686 590
175 482 177
176 287 794
177 764 592
178 254 616
179 827 593
180 920 321
181 98 555
182 18 534
DEMAND_SECTION
2 83
3 68
4 78
5 76
6 79
7 76
8 78
9 61
10 78
11 79
12 86
13 53
14 66
15 81
16 87
17 88
18 66
19 84
20 86
21 89
22 84
23 84
24 88
25 83
26 66
COVERAGE_SECTION
2 9 105 63 58 148 159 96 110 65 99 
3 9 138 10 76 100 89 104 56 136 182 
4 9 117 79 17 111 81 152 18 135 119 
5 8 132 55 40 130 69 94 142 64 
6 9 93 176 144 147 165 170 54 15 166 
7 9 140 180 167 91 161 61 73 30 85 
8 8 75 31 146 70 44 22 168 122 
9 9 60 77 109 102 87 25 156 67 47 
10 9 104 89 3 76 103 100 136 138 181 
11 9 179 58 24 41 88 63 105 2 99 
12 9 108 127 149 32 115 155 168 164 31 
13 9 80 35 178 165 153 166 15 129 54 
14 8 164 174 134 146 168 108 31 32 
15 9 166 144 165 93 6 153 129 54 176 
16 9 141 154 37 53 175 57 143 119 90 
17 9 81 79 18 4 163 117 48 74 43 
18 9 163 79 17 48 27 81 4 117 111 
19 9 82 120 95 137 66 70 107 78 41 
20 9 172 25 24 67 99 110 11 118 179 
21 9 113 12 86 155 115 112 149 108 84 
22 9 70 95 137 34 8 82 75 66 19 
23 8 139 88 67 24 177 122 41 44 
24 9 88 23 139 67 11 179 20 41 25 
25 9 67 20 24 9 172 23 60 77 139 
26 5 68 59 28 39 98 
27 9 48 163 18 29 79 17 81 97 4 
28 7 59 26 68 94 83 69 39 
29 8 83 97 27 163 18 48 81 17 
30 7 150 167 161 49 140 7 91 
31 8 146 75 164 168 8 32 14 134 
32 9 168 127 31 108 164 146 12 75 14 
33 8 50 45 54 176 165 6 93 144 
34 9 137 95 66 22 70 82 19 120 8 
35 9 153 129 80 46 13 166 15 178 72 
36 9 38 119 57 111 48 79 53 18 27 
37 9 53 16 133 57 175 141 119 90 111 
38 9 36 48 119 27 57 111 79 18 163 
39 5 98 40 132 94 5 
40 8 132 5 39 98 94 55 142 69 
41 9 122 88 177 179 120 11 139 44 24 
42 5 64 55 130 5 151 
43 8 74 125 158 135 81 152 17 4 
44 5 177 122 8 134 75 
45 8 54 33 50 165 176 6 144 93 
46 9 35 178 153 80 129 13 71 103 72 
47 7 128 169 156 87 102 109 9 
48 9 27 18 163 79 17 81 4 29 111 
49 6 150 30 161 167 140 7 
50 8 33 45 54 176 6 165 147 93 
51 8 151 69 130 94 125 55 158 5 
52 4 174 134 14 164 
53 9 37 57 16 119 133 111 141 36 175 
54 8 45 165 33 50 6 144 176 93 
55 8 5 130 42 64 132 69 142 151 
56 6 182 138 100 76 3 136 
57 9 119 111 117 53 4 79 36 16 37 
58 9 63 105 2 99 110 11 179 159 148 
59 6 28 26 68 94 39 69 
60 7 77 9 109 102 121 87 25 
61 8 180 85 91 7 140 173 167 73 
62 9 89 104 10 3 103 138 76 100 136 
63 9 105 2 58 148 159 110 99 96 65 
64 5 42 55 130 151 5 
65 8 96 148 131 110 99 2 63 105 
66 9 137 95 34 19 82 70 107 22 120 
67 9 23 25 24 139 20 88 156 9 172 
68 4 26 59 39 98 
69 8 151 94 51 130 5 132 55 40 
70 9 82 22 95 137 19 8 120 75 66 
71 8 72 126 129 153 35 15 166 62 
72 9 126 71 129 153 15 166 144 35 93 
73 9 160 91 180 161 7 140 61 85 167 
74 8 43 125 158 135 81 152 17 4 
75 8 8 31 146 164 168 44 32 70 
76 8 100 136 56 138 3 10 157 181 
77 7 60 9 109 102 121 87 25 
78 8 107 159 105 2 19 63 148 58 
79 9 17 18 4 81 117 163 48 111 27 
80 9 35 13 153 178 129 166 46 15 165 
81 9 17 18 79 74 163 4 43 125 117 
82 9 19 120 70 95 137 66 22 41 34 
83 8 29 97 27 163 18 48 81 17 
84 8 86 21 115 145 113 149 12 112 
85 6 61 180 91 173 7 73 
86 6 84 21 113 112 114 101 
87 7 102 109 47 9 128 169 60 
88 9 139 122 177 23 41 24 179 11 44 
89 9 104 10 62 3 103 138 76 100 136 
90 9 175 16 37 141 53 154 133 57 143 
91 9 180 7 73 140 61 161 160 85 167 
92 9 171 34 66 145 137 95 22 107 19 
93 9 6 144 176 147 15 165 166 170 54 
94 9 69 132 5 151 51 130 40 55 39 
95 9 137 66 82 34 70 19 22 120 107 
96 9 148 65 131 2 63 105 110 159 99 
97 8 29 83 27 163 48 18 17 81 
98 4 39 40 132 5 
99 9 110 58 63 172 65 2 105 96 148 
100 7 76 136 56 138 3 10 157 
101 7 114 45 33 50 54 13 165 
102 7 87 109 9 47 60 77 128 
103 8 181 157 136 104 10 76 100 89 
104 9 10 89 103 3 76 100 136 62 181 
105 9 2 63 58 159 148 96 110 99 65 
106 9 124 170 147 116 176 6 93 144 50 
107 9 78 19 159 66 82 120 105 2 95 
108 9 155 12 32 168 14 164 127 146 31 
109 7 102 9 87 60 77 47 156 
110 9 99 63 58 65 2 105 172 96 148 
111 9 119 57 117 4 79 17 152 18 81 
112 9 113 21 155 114 86 108 101 12 14 
113 9 21 112 155 12 108 86 149 115 14 
114 7 101 45 33 50 54 112 13 
115 9 149 127 12 32 108 168 22 21 155 
116 8 124 106 170 147 176 6 93 126 
117 9 4 111 79 152 17 119 135 57 81 
118 5 172 20 99 110 25 
119 9 57 111 117 4 79 53 36 17 152 
120 9 19 82 41 70 179 122 95 11 137 
121 5 173 77 60 9 61 
122 8 177 41 88 44 139 8 120 179 
123 5 162 142 5 40 132 
124 9 106 170 116 147 176 6 93 144 126 
125 8 158 43 74 135 81 152 17 151 
126 8 72 71 170 15 166 93 144 129 
127 9 149 32 12 168 115 108 31 22 164 
128 7 169 47 156 87 102 109 9 
129 9 153 35 72 80 166 15 46 71 13 
130 8 151 55 69 5 51 64 42 94 
131 6 65 96 148 110 99 2 
132 9 5 40 55 94 69 130 39 142 98 
133 9 37 53 36 38 57 119 16 90 111 
134 5 174 14 164 146 44 
135 9 152 74 43 158 125 117 4 81 17 
136 6 157 76 181 100 103 10 
137 9 95 66 34 82 19 70 22 120 107 
138 7 3 56 100 76 182 10 136 
139 8 23 88 24 177 122 67 41 44 
140 9 7 167 180 91 161 61 73 30 173 
141 9 16 154 143 175 53 37 57 119 111 
142 6 123 162 5 55 132 40 
143 8 154 141 152 135 16 117 4 111 
144 9 93 6 15 165 166 176 54 147 170 
145 9 171 92 115 149 34 84 127 22 12 
146 8 31 164 75 168 8 32 134 14 
147 9 176 6 170 93 106 144 124 50 54 
148 9 96 65 2 105 63 159 131 110 99 
149 9 115 127 12 32 108 168 22 155 31 
150 6 30 49 167 161 140 7 
151 8 51 69 130 94 55 64 5 42 
152 9 135 117 74 4 43 158 125 17 81 
153 9 129 35 80 166 15 72 46 13 165 
154 8 143 141 16 152 135 117 57 111 
155 9 108 12 14 32 168 164 113 127 146 
156 7 47 128 169 67 102 9 23 
157 7 181 136 103 76 100 10 104 
158 8 125 43 74 135 152 81 17 64 
159 9 2 105 63 148 96 78 58 65 107 
160 9 73 91 180 161 7 61 85 140 167 
161 9 7 140 91 180 73 167 30 160 150 
162 4 123 142 5 40 
163 9 18 27 48 17 79 81 29 4 117 
164 8 146 31 168 14 32 134 75 174 
165 9 54 144 166 15 93 45 6 176 33 
166 9 15 144 165 93 6 153 129 54 35 
167 8 140 7 161 30 180 91 61 150 
168 9 32 31 164 146 75 108 127 14 8 
169 7 128 47 156 87 102 109 9 
170 9 147 124 106 6 176 93 144 116 15 
171 9 145 92 34 115 66 137 95 149 22 
172 9 20 99 110 58 11 24 118 63 25 
173 5 121 61 85 180 7 
174 5 134 14 164 52 146 
175 9 90 16 141 37 53 154 143 57 119 
176 9 6 147 93 144 50 54 170 33 165 
177 7 122 44 88 41 139 23 8 
178 9 80 46 13 35 153 129 166 15 165 
179 9 11 58 41 24 88 63 105 120 2 
180 9 91 7 61 140 73 161 85 167 160 
181 7 157 103 136 76 100 10 104 
182 6 56 138 100 76 3 136 
DEPOT_SECTION
   1
   -1
EOF
