NAME :  X-n247-kX-w49-c9.cctp
COMMENT : 	Adapted by Maziero, Usberti and Cavellucci from the Uchoa, Pecin, Pessoa, Poggi, Subramanian, and Vidal (2013)
TYPE :  CCTP
DIMENSION :    226
EDGE_WEIGHT_TYPE : 	EUC_2D	
CAPACITY : 	134
VERTICES_WITHIN_COVERAGE :  9
VERTICES_WITH_DEMAND : 	49
NODE_COORD_SECTION
1 500 500
2 612 199
3 864 279
4 746 395
5 738 519
6 797 59
7 867 206
8 846 399
9 654 172
10 874 275
11 675 479
12 780 372
13 692 446
14 541 183
15 747 432
16 845 403
17 787 317
18 472 325
19 682 246
20 779 308
21 815 316
22 690 306
23 923 403
24 643 526
25 849 293
26 789 424
27 766 443
28 833 421
29 999 259
30 949 458
31 675 431
32 930 480
33 809 439
34 677 173
35 479 247
36 849 285
37 711 358
38 794 366
39 878 230
40 815 259
41 739 570
42 564 141
43 845 320
44 801 473
45 769 345
46 528 256
47 700 404
48 851 369
49 925 215
50 608 654
51 878 358
52 562 80
53 418 269
54 766 533
55 709 585
56 933 280
57 671 522
58 725 496
59 863 250
60 864 328
61 663 460
62 848 251
63 559 708
64 689 490
65 745 448
66 746 345
67 776 427
68 925 251
69 783 292
70 484 715
71 810 261
72 680 173
73 895 273
74 785 253
75 886 125
76 916 247
77 930 364
78 584 185
79 874 524
80 440 130
81 684 326
82 737 309
83 554 164
84 859 254
85 981 334
86 717 258
87 855 321
88 623 443
89 685 162
90 686 463
91 733 431
92 664 616
93 586 486
94 523 196
95 712 541
96 759 432
97 658 583
98 860 312
99 762 359
100 818 236
101 498 208
102 504 64
103 842 221
104 895 461
105 870 277
106 644 438
107 556 305
108 747 522
109 646 445
110 867 380
111 578 286
112 669 372
113 663 507
114 691 172
115 384 100
116 791 379
117 650 277
118 725 609
119 897 279
120 758 306
121 971 92
122 641 183
123 904 291
124 825 374
125 405 305
126 786 431
127 720 677
128 563 245
129 758 442
130 750 530
131 567 564
132 890 268
133 833 289
134 637 408
135 845 276
136 809 347
137 818 88
138 678 259
139 853 219
140 448 734
141 493 509
142 581 187
143 789 397
144 537 240
145 714 339
146 777 371
147 683 378
148 788 597
149 499 301
150 835 370
151 598 221
152 798 509
153 857 214
154 463 400
155 844 400
156 860 267
157 662 184
158 638 185
159 814 529
160 781 293
161 688 598
162 866 305
163 786 343
164 819 476
165 789 243
166 715 530
167 992 531
168 753 534
169 566 216
170 934 403
171 590 211
172 646 141
173 719 302
174 919 234
175 597 150
176 761 360
177 761 367
178 815 469
179 813 282
180 775 536
181 686 148
182 870 167
183 713 265
184 713 242
185 855 296
186 535 169
187 900 254
188 877 365
189 872 218
190 957 620
191 680 535
192 701 182
193 687 498
194 828 511
195 741 557
196 720 61
197 764 452
198 500 143
199 916 505
200 720 452
201 852 349
202 855 297
203 755 492
204 748 411
205 829 123
206 949 556
207 764 576
208 651 282
209 839 364
210 839 66
211 846 29
212 604 597
213 762 520
214 839 244
215 896 131
216 838 735
217 586 465
218 582 216
219 681 187
220 924 98
221 731 625
222 428 684
223 725 408
224 792 337
225 677 142
226 797 262
DEMAND_SECTION
2 99
3 72
4 87
5 77
6 78
7 76
8 74
9 78
10 92
11 96
12 75
13 96
14 72
15 99
16 63
17 93
18 64
19 68
20 82
21 53
22 91
23 74
24 67
25 65
26 85
27 52
28 77
29 91
30 58
31 73
32 62
33 94
34 84
35 74
36 95
37 62
38 62
39 78
40 89
41 87
42 54
43 73
44 81
45 84
46 51
47 84
48 100
49 69
50 52
COVERAGE_SECTION
2 9 171 151 158 78 122 142 218 169 9 
3 9 105 10 156 36 135 185 202 25 84 
4 9 204 223 177 15 91 176 96 99 146 
5 9 108 130 168 213 166 58 54 203 95 
6 6 137 210 211 205 196 75 
7 9 153 189 139 39 103 182 59 214 62 
8 9 155 16 28 110 48 150 124 209 188 
9 9 157 122 158 34 72 219 172 89 114 
10 9 105 3 156 132 73 119 84 36 59 
11 9 64 90 61 193 113 13 57 109 31 
12 9 146 116 38 177 99 176 143 45 163 
13 9 90 31 200 61 11 47 64 91 109 
14 9 186 94 83 142 169 78 42 101 218 
15 9 96 91 129 65 204 27 197 67 223 
16 9 155 8 28 110 150 48 124 209 188 
17 9 20 224 69 160 163 21 120 45 136 
18 8 149 125 154 35 53 107 46 144 
19 9 138 184 183 86 117 208 219 22 157 
20 9 17 160 69 120 224 163 21 45 82 
21 9 17 43 224 133 136 179 20 69 87 
22 9 81 173 145 208 82 183 117 138 86 
23 8 170 77 188 30 110 51 104 8 
24 9 57 113 191 193 11 64 97 61 93 
25 9 185 202 36 133 135 3 162 98 105 
26 9 126 67 33 143 27 96 129 197 15 
27 9 129 197 96 67 15 65 126 26 91 
28 9 16 155 8 33 26 124 126 143 150 
29 9 56 68 85 76 174 49 187 123 119 
30 9 32 104 170 199 23 167 77 206 79 
31 9 13 61 106 109 90 47 134 11 200 
32 9 30 199 104 79 23 170 206 167 194 
33 9 126 26 28 178 44 67 164 27 143 
34 9 72 89 114 219 157 9 192 181 225 
35 9 101 46 144 149 53 94 18 128 14 
36 9 25 135 185 202 3 133 156 105 162 
37 9 145 147 66 81 112 47 176 4 99 
38 9 116 12 146 136 163 224 143 124 45 
39 9 189 59 7 153 139 84 187 62 103 
40 9 71 226 100 179 214 74 165 62 135 
41 9 195 207 55 168 95 118 130 54 166 
42 9 83 175 186 14 78 142 52 198 94 
43 9 87 98 60 202 162 185 25 21 201 
44 9 178 164 33 152 197 126 27 194 26 
45 9 99 163 176 66 177 224 146 12 17 
46 9 144 128 35 149 169 107 101 111 94 
47 9 223 147 31 13 91 112 4 37 204 
48 9 209 150 110 201 124 188 51 8 155 
49 9 174 76 68 187 39 189 7 132 56 
50 9 212 92 63 97 161 131 127 55 118 
51 8 188 110 201 48 60 209 87 150 
52 7 102 42 175 83 198 186 172 
53 9 125 35 18 149 101 46 144 94 154 
54 9 180 168 213 130 108 5 195 152 203 
55 9 161 118 41 195 95 221 97 92 166 
56 9 68 123 119 76 73 187 132 174 10 
57 9 191 113 24 193 64 11 95 166 58 
58 9 5 203 108 166 64 193 130 200 213 
59 9 84 62 156 39 214 10 105 3 132 
60 8 87 98 43 162 201 202 51 185 
61 9 11 90 109 106 31 13 64 88 193 
62 9 84 214 59 156 135 103 3 139 36 
63 9 50 70 140 212 222 92 131 97 127 
64 9 193 11 90 113 58 57 61 13 191 
65 9 129 15 197 91 96 27 200 67 204 
66 9 99 176 45 177 145 37 82 146 163 
67 9 126 26 96 27 129 197 15 204 143 
68 9 76 174 187 56 49 73 132 119 123 
69 9 160 20 17 120 179 226 74 21 71 
70 9 140 222 63 50 212 131 92 141 97 
71 9 40 226 179 74 100 165 214 133 135 
72 9 34 114 89 219 157 192 9 181 225 
73 9 119 132 123 187 10 105 3 76 156 
74 8 165 226 71 40 100 69 160 179 
75 9 215 182 220 205 210 137 7 121 153 
76 9 68 174 187 49 73 132 56 119 39 
77 8 170 23 51 188 85 110 60 123 
78 9 142 171 2 218 169 83 175 151 14 
79 8 199 194 159 104 32 164 152 178 
80 9 198 115 102 101 186 94 14 83 35 
81 9 22 145 37 173 112 147 208 82 117 
82 9 173 120 66 145 20 22 160 45 69 
83 9 186 14 42 142 78 94 175 169 198 
84 9 59 62 156 214 3 105 10 135 39 
85 8 77 56 29 170 123 23 68 119 
86 7 183 184 19 138 173 22 82 
87 9 43 98 60 162 202 185 201 25 36 
88 9 106 109 134 61 217 31 93 11 90 
89 8 72 114 34 181 225 219 192 157 
90 9 13 11 61 64 31 193 200 109 106 
91 9 15 65 223 200 204 96 129 27 197 
92 9 161 97 55 118 212 50 221 127 191 
93 9 217 88 24 109 106 113 131 61 11 
94 9 14 101 186 83 144 169 198 142 46 
95 9 166 191 195 5 41 108 130 168 55 
96 9 129 15 27 67 65 197 204 91 126 
97 9 92 161 55 191 212 24 57 95 118 
98 9 162 87 60 202 43 185 25 36 3 
99 9 176 177 45 146 66 12 163 38 116 
100 9 214 40 71 103 165 226 62 74 139 
101 9 94 35 14 144 186 46 198 169 83 
102 8 52 198 80 42 186 83 14 115 
103 9 139 153 214 100 7 189 62 59 39 
104 9 32 199 30 23 79 170 28 16 164 
105 9 10 3 156 36 132 185 73 84 135 
106 9 109 88 61 134 31 13 90 11 217 
107 8 111 46 149 128 144 18 169 218 
108 9 5 130 168 213 54 180 203 166 58 
109 9 106 61 88 31 134 90 11 13 64 
110 9 188 48 51 8 155 16 209 150 201 
111 8 107 128 46 144 151 218 169 117 
112 9 147 37 47 81 134 145 31 223 22 
113 9 57 193 24 11 64 191 61 90 166 
114 8 72 89 34 192 219 181 157 225 
115 9 80 198 102 101 186 94 53 35 14 
116 9 12 38 146 143 177 124 99 163 176 
117 9 208 138 19 22 81 183 86 184 111 
118 9 221 55 161 41 207 195 92 148 127 
119 9 73 132 123 10 187 105 3 56 76 
120 9 20 82 160 69 17 173 45 66 163 
121 9 220 215 75 182 49 210 211 205 174 
122 9 158 9 157 2 34 72 219 172 89 
123 9 119 73 132 56 10 105 187 162 3 
124 9 150 209 48 136 38 155 8 116 16 
125 9 53 18 35 149 154 46 101 144 107 
126 9 26 67 27 33 96 129 197 143 15 
127 9 221 118 92 161 55 148 41 207 97 
128 9 144 169 218 46 151 171 111 107 142 
129 9 27 96 197 65 15 67 91 126 204 
130 9 168 108 5 54 213 180 195 166 203 
131 9 212 93 24 141 97 50 217 92 57 
132 9 73 119 10 187 105 123 3 156 59 
133 9 25 36 135 179 185 202 21 3 43 
134 9 106 88 109 31 112 147 61 47 13 
135 9 36 25 156 133 3 185 202 62 105 
136 9 224 163 38 124 21 209 150 17 116 
137 7 210 6 205 211 75 215 182 
138 9 19 117 208 183 86 184 22 173 81 
139 9 153 103 7 189 39 214 62 59 84 
140 9 70 222 63 50 131 212 141 92 97 
141 9 131 93 217 154 212 88 24 109 106 
142 9 78 171 218 2 169 83 151 14 175 
143 9 116 12 26 146 38 67 126 177 4 
144 9 46 128 169 94 101 218 14 35 171 
145 9 37 66 81 173 82 22 147 176 99 
146 9 12 116 177 38 99 176 45 143 163 
147 9 112 47 37 145 81 223 31 134 4 
148 8 207 41 180 195 118 221 54 168 
149 9 18 46 107 35 144 111 128 53 101 
150 9 209 124 48 201 8 155 16 110 136 
151 9 171 218 2 169 142 78 128 158 122 
152 9 159 194 180 44 213 164 54 178 203 
153 9 139 7 189 103 39 214 59 62 84 
154 8 18 149 125 141 107 53 217 93 
155 9 8 16 28 110 150 48 124 209 188 
156 9 3 84 105 10 59 135 62 36 25 
157 9 9 34 219 72 122 158 114 89 192 
158 9 122 9 157 2 34 219 72 172 89 
159 9 194 152 180 54 164 213 44 79 178 
160 9 69 20 17 120 179 226 74 21 71 
161 9 55 92 97 118 221 41 95 191 195 
162 9 98 185 202 87 25 60 3 36 43 
163 9 224 45 136 38 17 99 146 12 176 
164 9 178 44 194 33 152 159 126 28 26 
165 7 74 226 71 100 40 179 69 
166 9 95 5 108 58 130 191 195 168 193 
167 9 206 32 199 30 190 79 104 170 23 
168 9 130 54 108 213 5 180 195 166 41 
169 9 218 171 128 151 142 78 144 14 94 
170 8 23 77 30 188 104 110 51 32 
171 9 218 151 2 169 142 78 128 158 14 
172 7 225 9 181 122 89 34 158 
173 8 82 22 145 183 120 81 86 66 
174 9 76 68 49 187 39 132 73 56 119 
175 9 42 78 142 83 172 2 158 122 9 
176 9 99 177 45 146 66 12 163 38 116 
177 9 176 99 146 12 45 66 4 116 38 
178 9 164 44 33 152 194 126 28 26 197 
179 9 71 133 40 226 69 135 21 160 36 
180 9 54 213 168 130 108 152 159 195 5 
181 5 225 89 114 72 34 
182 9 7 215 75 153 189 139 205 103 39 
183 8 86 184 19 138 173 22 82 120 
184 7 86 183 19 138 173 192 219 
185 9 202 25 36 162 98 3 135 133 105 
186 9 14 83 94 42 198 142 78 101 169 
187 9 76 132 73 68 119 174 10 39 59 
188 8 51 110 48 201 209 60 150 8 
189 9 7 39 153 139 103 59 84 62 214 
190 7 206 167 199 79 32 30 216 
191 9 57 95 113 166 24 193 64 97 11 
192 7 114 219 72 34 89 181 157 
193 9 64 11 113 57 90 58 191 166 61 
194 9 159 152 164 178 44 79 180 54 213 
195 9 41 168 130 207 95 54 108 166 5 
196 1 6 
197 9 27 129 65 96 15 67 126 91 26 
198 9 186 14 83 94 80 42 101 102 52 
199 9 32 79 104 30 206 167 194 164 23 
200 9 65 91 13 15 90 129 58 96 197 
201 9 48 209 60 150 51 87 43 188 110 
202 9 185 25 36 162 98 3 133 135 87 
203 9 213 58 108 5 130 197 54 168 65 
204 9 4 15 223 96 91 67 129 27 65 
205 7 137 75 210 182 215 6 7 
206 8 167 199 190 32 79 30 104 194 
207 9 41 195 148 180 54 168 130 118 55 
208 9 117 138 22 19 81 183 86 173 111 
209 9 150 48 124 201 110 136 8 155 188 
210 8 137 211 6 205 75 215 220 182 
211 9 210 6 137 205 75 220 215 196 121 
212 9 131 97 50 92 24 161 191 57 55 
213 9 54 108 130 168 180 5 203 152 195 
214 9 62 84 100 103 59 40 139 156 135 
215 9 75 220 182 205 7 121 210 49 137 
216 7 127 148 221 190 118 207 41 
217 9 93 88 109 106 134 61 24 113 11 
218 9 171 169 151 142 78 2 128 144 14 
219 9 72 34 114 157 192 89 9 181 122 
220 9 215 75 121 182 210 205 211 137 49 
221 9 118 55 161 127 41 207 148 92 195 
222 9 140 70 63 50 131 141 212 92 97 
223 9 204 91 4 47 15 96 200 65 129 
224 9 163 136 17 45 38 21 20 12 99 
225 7 181 89 34 72 172 114 9 
226 9 71 74 40 165 179 69 100 160 133 
DEPOT_SECTION
   1
   -1
EOF
