NAME :  X-n270-kX-w53-c7.cctp
COMMENT : 	Adapted by Maziero, Usberti and Cavellucci from the Uchoa, Pecin, Pessoa, Poggi, Subramanian, and Vidal (2013)
TYPE :  CCTP
DIMENSION :    191
EDGE_WEIGHT_TYPE : 	EUC_2D	
CAPACITY : 	585
VERTICES_WITHIN_COVERAGE :  7
VERTICES_WITH_DEMAND : 	53
NODE_COORD_SECTION
1 500 500
2 643 512
3 707 407
4 394 355
5 140 470
6 364 215
7 493 857
8 117 466
9 462 38
10 551 479
11 742 498
12 533 706
13 788 425
14 799 6
15 836 680
16 88 225
17 164 988
18 537 20
19 612 395
20 314 942
21 342 974
22 518 758
23 860 774
24 313 36
25 275 23
26 324 971
27 822 588
28 272 458
29 620 666
30 868 427
31 694 750
32 953 419
33 236 823
34 887 411
35 124 814
36 193 899
37 687 303
38 447 220
39 716 472
40 415 141
41 738 309
42 445 672
43 524 60
44 112 157
45 859 935
46 104 596
47 556 54
48 362 223
49 723 661
50 474 338
51 274 568
52 315 380
53 704 863
54 936 260
55 93 859
56 703 935
57 381 302
58 695 239
59 880 823
60 335 961
61 37 637
62 288 169
63 155 910
64 80 459
65 93 565
66 762 531
67 22 839
68 737 409
69 854 328
70 921 781
71 221 23
72 202 804
73 422 992
74 945 292
75 66 976
76 487 429
77 614 711
78 407 546
79 883 298
80 709 692
81 535 319
82 965 217
83 336 35
84 703 595
85 677 841
86 51 503
87 334 968
88 628 154
89 488 437
90 680 869
91 987 264
92 474 906
93 866 911
94 106 988
95 558 398
96 661 206
97 500 17
98 710 588
99 23 696
100 181 909
101 107 556
102 516 409
103 345 879
104 684 742
105 86 682
106 447 182
107 825 545
108 840 689
109 129 532
110 89 305
111 434 407
112 348 132
113 390 473
114 598 286
115 464 891
116 671 336
117 762 909
118 136 633
119 40 814
120 445 889
121 318 2
122 387 142
123 480 339
124 884 826
125 207 24
126 557 694
127 740 695
128 699 899
129 768 584
130 671 669
131 818 715
132 500 706
133 73 147
134 862 849
135 539 728
136 139 118
137 850 28
138 891 612
139 709 636
140 628 448
141 277 45
142 712 63
143 804 68
144 536 318
145 838 835
146 890 749
147 862 272
148 551 695
149 692 757
150 735 752
151 468 626
152 734 66
153 717 545
154 719 743
155 224 25
156 709 712
157 550 683
158 234 56
159 868 936
160 412 701
161 614 627
162 883 597
163 233 64
164 598 659
165 813 611
166 868 603
167 555 673
168 743 870
169 600 452
170 850 547
171 63 175
172 789 598
173 803 64
174 835 42
175 591 543
176 576 872
177 530 707
178 187 153
179 787 650
180 194 350
181 857 704
182 487 672
183 511 732
184 872 794
185 143 149
186 910 236
187 747 666
188 712 736
189 302 59
190 680 683
191 648 800
DEMAND_SECTION
2 77
3 91
4 67
5 69
6 68
7 64
8 65
9 83
10 64
11 77
12 87
13 99
14 84
15 74
16 89
17 76
18 68
19 87
20 69
21 97
22 87
23 59
24 82
25 75
26 55
27 95
28 63
29 87
30 72
31 53
32 66
33 95
34 58
35 76
36 66
37 53
38 67
39 56
40 71
41 67
42 52
43 85
44 99
45 62
46 51
47 53
48 63
49 71
50 78
51 71
52 77
53 85
54 82
COVERAGE_SECTION
2 7 175 140 169 153 39 10 11 
3 7 68 39 116 13 140 19 11 
4 7 57 111 50 52 123 113 76 
5 7 8 64 109 101 86 65 46 
6 7 48 122 38 112 57 62 106 
7 6 115 92 120 176 22 183 
8 7 5 64 109 86 101 65 46 
9 7 97 43 18 47 40 83 122 
10 7 169 175 89 102 76 95 140 
11 7 39 66 153 13 68 129 107 
12 7 177 148 135 126 157 132 183 
13 7 68 30 3 11 39 34 66 
14 5 174 137 173 143 152 
15 4 108 181 131 179 
16 7 171 44 133 110 185 136 178 
17 7 94 63 100 36 75 55 20 
18 6 97 47 43 9 88 40 
19 7 95 140 169 116 3 102 10 
20 7 60 26 87 21 103 73 36 
21 7 87 60 26 20 73 103 120 
22 7 183 135 177 12 132 148 126 
23 6 184 146 59 124 70 145 
24 7 83 189 121 141 25 158 163 
25 7 141 24 189 121 155 158 71 
26 7 87 60 21 20 103 73 120 
27 7 165 172 107 166 170 129 162 
28 7 52 51 113 5 180 8 4 
29 5 164 161 77 130 190 
30 7 34 13 32 69 170 107 79 
31 6 149 104 188 154 150 156 
32 5 34 30 74 69 79 
33 7 72 36 100 35 63 103 20 
34 6 30 32 69 13 79 74 
35 7 55 72 119 63 67 36 100 
36 7 100 63 33 17 72 55 35 
37 7 116 41 58 114 96 3 68 
38 7 106 6 40 48 122 57 50 
39 7 11 3 68 153 66 2 13 
40 7 122 106 112 38 6 48 9 
41 7 37 116 58 68 3 69 13 
42 4 182 160 151 132 
43 7 47 18 97 9 40 88 106 
44 6 185 133 136 171 16 178 
45 7 159 93 134 117 145 124 59 
46 7 65 101 118 109 61 105 86 
47 6 43 18 97 9 88 142 
48 7 6 57 38 122 62 112 106 
49 5 187 139 80 127 190 
50 7 123 81 144 111 4 102 76 
51 7 28 78 109 113 118 5 101 
52 7 4 28 57 113 111 180 48 
53 7 90 85 128 168 56 117 191 
54 6 74 186 91 82 79 147 
55 7 35 119 67 63 100 36 75 
56 7 128 117 90 53 168 85 176 
57 7 4 48 6 50 52 38 123 
58 5 96 37 41 116 88 
59 7 124 184 134 145 23 70 146 
60 7 87 21 26 20 103 73 120 
61 7 99 105 46 65 118 101 86 
62 6 112 6 48 178 122 189 
63 7 100 36 17 55 94 35 75 
64 7 8 86 5 109 101 65 46 
65 7 101 46 109 86 118 61 8 
66 7 11 153 129 107 172 39 98 
67 7 119 55 35 99 75 63 105 
68 7 3 13 39 11 116 41 140 
69 7 79 147 34 74 30 54 186 
70 7 146 184 124 59 23 134 145 
71 6 155 125 158 163 25 141 
72 7 33 35 36 100 63 55 103 
73 7 21 87 60 26 92 120 115 
74 7 54 91 79 186 82 147 69 
75 7 94 17 63 55 100 67 36 
76 6 89 102 111 95 10 123 
77 3 29 164 126 
78 3 113 151 42 
79 6 147 69 74 54 186 91 
80 6 156 190 127 49 130 188 
81 7 144 123 50 114 95 102 19 
82 4 54 91 186 74 
83 7 24 121 189 141 25 112 158 
84 6 98 139 153 129 49 130 
85 6 90 53 191 128 168 149 
86 7 64 65 8 101 109 5 46 
87 7 60 21 26 20 103 73 120 
88 4 96 58 47 142 
89 6 76 102 111 10 95 123 
90 7 53 85 128 168 56 191 117 
91 6 74 54 82 186 79 147 
92 7 115 120 7 73 176 103 21 
93 7 45 159 134 145 124 59 117 
94 7 75 17 63 100 36 55 67 
95 7 102 19 169 76 89 10 81 
96 4 58 88 37 114 
97 7 18 9 43 47 40 83 122 
98 6 84 153 139 129 49 66 
99 7 61 105 119 46 118 67 65 
100 7 36 63 17 55 33 72 94 
101 7 65 109 46 86 118 8 5 
102 7 76 89 95 10 123 50 111 
103 7 20 60 87 26 21 120 115 
104 7 31 149 188 154 156 150 80 
105 7 99 61 118 46 65 101 35 
106 7 38 40 122 6 48 112 57 
107 7 170 27 172 66 165 129 166 
108 4 15 181 131 179 
109 7 101 65 5 8 46 86 64 
110 7 16 180 171 44 64 133 8 
111 7 76 89 4 113 50 102 123 
112 6 122 40 62 6 189 48 
113 6 78 111 89 76 4 28 
114 7 144 81 116 37 96 58 19 
115 7 92 120 7 73 176 103 22 
116 7 37 41 3 19 114 68 58 
117 7 168 56 128 53 90 45 93 
118 7 46 105 65 101 61 109 99 
119 7 67 55 35 99 105 63 72 
120 7 115 92 7 103 73 60 176 
121 7 24 83 25 141 189 155 71 
122 7 40 112 106 6 48 38 62 
123 7 50 81 144 102 111 4 76 
124 7 59 134 184 145 23 70 146 
125 5 71 155 158 163 25 
126 5 148 157 167 12 177 
127 4 187 80 156 49 
128 7 53 56 90 168 85 117 191 
129 6 172 165 66 27 98 153 
130 7 190 80 139 29 49 156 77 
131 3 108 15 181 
132 6 183 177 12 182 135 148 
133 4 171 44 185 136 
134 7 145 59 124 184 93 23 45 
135 7 12 177 183 148 22 126 132 
136 3 185 44 178 
137 4 174 14 173 143 
138 5 162 166 27 170 165 
139 6 49 84 98 187 130 190 
140 7 169 19 2 10 95 3 39 
141 7 25 189 24 158 163 155 121 
142 5 152 173 143 14 88 
143 5 173 174 137 14 152 
144 7 81 123 50 114 95 102 19 
145 6 134 59 124 184 23 93 
146 7 23 70 184 181 59 124 108 
147 5 79 69 186 54 74 
148 5 126 157 12 167 177 
149 7 31 104 188 154 150 156 191 
150 4 154 188 31 149 
151 2 182 42 
152 5 142 173 143 14 174 
153 6 98 66 84 11 129 39 
154 6 188 150 31 149 156 104 
155 6 71 125 158 163 25 141 
156 6 80 188 154 127 104 31 
157 4 167 148 126 12 
158 6 163 155 71 125 141 25 
159 7 45 93 134 145 117 124 59 
160 6 42 182 132 151 183 177 
161 4 164 29 130 167 
162 6 166 138 170 27 165 107 
163 6 158 155 71 125 141 25 
164 5 29 161 167 77 126 
165 6 27 172 179 129 166 107 
166 6 162 138 27 165 170 107 
167 4 157 126 148 12 
168 6 53 117 128 90 85 56 
169 7 140 10 19 95 2 175 102 
170 7 107 27 166 162 165 138 172 
171 5 133 44 16 185 136 
172 6 129 165 27 179 107 66 
173 5 143 174 14 137 152 
174 4 137 173 143 14 
175 5 2 10 161 169 140 
176 5 7 191 90 85 92 
177 7 12 135 148 126 132 157 183 
178 5 185 136 44 163 62 
179 4 187 165 172 15 
180 7 110 52 5 28 8 64 16 
181 5 108 15 131 146 23 
182 4 132 42 151 177 
183 7 22 132 135 177 12 148 126 
184 7 23 59 124 146 70 145 134 
185 5 136 44 178 133 171 
186 5 54 82 147 74 79 
187 5 49 127 179 80 139 
188 6 154 31 156 150 104 149 
189 7 24 141 83 25 121 158 163 
190 6 130 80 156 49 139 104 
191 4 85 149 31 104 
DEPOT_SECTION
   1
   -1
EOF
