NAME :  X-n251-kX-w50-c7.cctp
COMMENT : 	Adapted by Maziero, Usberti and Cavellucci from the Uchoa, Pecin, Pessoa, Poggi, Subramanian, and Vidal (2013)
TYPE :  CCTP
DIMENSION :    182
EDGE_WEIGHT_TYPE : 	EUC_2D	
CAPACITY : 	69
VERTICES_WITHIN_COVERAGE :  7
VERTICES_WITH_DEMAND : 	50
NODE_COORD_SECTION
1 112 700
2 363 779
3 245 896
4 238 19
5 184 351
6 305 763
7 366 814
8 137 857
9 564 31
10 303 157
11 523 830
12 134 231
13 851 445
14 740 311
15 163 95
16 275 499
17 470 814
18 453 217
19 818 525
20 311 911
21 177 374
22 230 4
23 590 302
24 196 103
25 553 879
26 316 446
27 665 375
28 587 609
29 510 95
30 907 455
31 805 956
32 342 345
33 785 309
34 649 584
35 850 24
36 26 126
37 447 817
38 145 527
39 218 825
40 405 151
41 389 436
42 452 619
43 407 367
44 948 514
45 836 996
46 578 334
47 491 929
48 325 696
49 838 842
50 983 788
51 623 549
52 915 72
53 774 336
54 81 238
55 534 537
56 295 406
57 853 358
58 742 581
59 32 964
60 747 352
61 610 799
62 786 853
63 755 957
64 485 734
65 419 256
66 941 589
67 68 42
68 817 595
69 397 274
70 727 302
71 216 237
72 821 320
73 516 531
74 561 920
75 128 834
76 162 534
77 279 644
78 188 329
79 336 782
80 728 230
81 139 848
82 350 154
83 242 162
84 791 925
85 907 497
86 52 593
87 786 457
88 629 745
89 935 439
90 78 835
91 232 226
92 123 479
93 205 840
94 932 357
95 917 917
96 325 559
97 413 373
98 362 477
99 827 881
100 845 263
101 11 938
102 88 535
103 436 200
104 325 59
105 34 264
106 47 470
107 322 89
108 757 29
109 825 289
110 287 304
111 288 406
112 287 623
113 616 828
114 60 445
115 978 511
116 956 171
117 818 184
118 605 464
119 462 934
120 599 895
121 364 90
122 304 854
123 753 926
124 343 127
125 422 270
126 472 104
127 453 844
128 230 995
129 675 278
130 507 67
131 654 332
132 526 932
133 473 898
134 433 373
135 409 207
136 470 925
137 534 887
138 770 74
139 546 47
140 597 299
141 630 398
142 538 29
143 524 66
144 326 841
145 533 86
146 557 307
147 720 957
148 515 103
149 338 918
150 427 792
151 764 238
152 488 66
153 596 931
154 578 922
155 361 962
156 539 869
157 468 807
158 537 7
159 440 120
160 400 190
161 469 264
162 440 203
163 628 934
164 635 25
165 490 104
166 528 2
167 482 957
168 457 847
169 183 354
170 814 278
171 359 893
172 598 325
173 552 367
174 665 287
175 549 277
176 474 937
177 499 922
178 522 337
179 442 130
180 559 398
181 515 935
182 605 773
DEMAND_SECTION
2 5
3 7
4 5
5 8
6 7
7 8
8 7
9 9
10 7
11 6
12 7
13 8
14 6
15 9
16 8
17 8
18 9
19 6
20 8
21 5
22 6
23 7
24 7
25 6
26 9
27 6
28 7
29 10
30 9
31 5
32 10
33 10
34 9
35 5
36 7
37 6
38 9
39 8
40 9
41 6
42 5
43 8
44 6
45 5
46 5
47 5
48 7
49 5
50 7
51 7
COVERAGE_SECTION
2 7 79 7 6 150 144 48 37 
3 7 20 93 122 39 149 144 128 
4 6 22 24 104 15 107 83 
5 7 169 78 21 110 71 111 56 
6 7 79 2 48 7 144 122 39 
7 7 2 79 144 150 122 171 6 
8 7 81 75 90 93 39 3 59 
9 4 139 142 158 166 
10 7 82 124 83 107 121 91 104 
11 7 156 17 25 137 157 168 127 
12 7 54 71 91 105 78 83 5 
13 7 30 87 85 89 19 57 44 
14 7 70 53 60 33 129 151 174 
15 7 24 83 4 67 22 12 36 
16 7 26 96 98 111 56 76 112 
17 7 157 37 127 168 150 11 64 
18 5 162 103 135 161 65 
19 7 68 87 13 85 58 30 44 
20 7 149 171 122 3 155 144 7 
21 7 169 5 78 111 92 56 110 
22 6 4 24 104 15 107 83 
23 6 140 172 146 46 175 131 
24 7 15 83 4 22 10 107 91 
25 7 156 137 74 120 154 11 132 
26 7 56 111 98 16 41 32 96 
27 7 141 131 172 60 174 46 70 
28 7 34 51 55 73 42 88 118 
29 6 148 165 145 130 143 152 
30 7 89 85 13 44 115 94 57 
31 7 84 63 45 123 99 147 62 
32 7 43 110 97 56 111 69 134 
33 7 53 72 170 14 109 60 70 
34 7 51 28 58 55 118 73 88 
35 5 52 108 138 117 116 
36 7 67 54 105 15 12 24 83 
37 7 17 157 127 150 168 11 7 
38 7 76 92 102 106 86 114 16 
39 7 93 3 81 8 75 122 6 
40 6 160 179 159 82 135 103 
41 7 98 97 43 26 134 56 32 
42 7 73 55 64 28 96 48 112 
43 5 97 134 32 41 69 
44 7 115 85 30 66 89 13 19 
45 7 31 84 63 123 95 99 147 
46 7 172 23 146 140 173 178 175 
47 7 177 176 136 181 119 167 132 
48 7 77 6 112 79 2 7 96 
49 7 99 62 84 95 31 123 63 
50 7 95 49 99 66 62 84 31 
51 7 34 28 118 55 73 58 141 
52 6 35 116 138 117 108 100 
53 7 33 60 14 72 70 109 170 
54 7 12 105 36 71 78 91 5 
55 6 73 28 51 118 42 34 
56 7 111 26 32 16 98 41 110 
57 7 72 109 94 53 33 13 170 
58 7 68 34 19 51 87 28 13 
59 7 101 90 8 81 75 128 93 
60 7 53 14 70 33 72 27 131 
61 7 182 113 88 11 120 25 156 
62 7 99 49 84 123 31 63 147 
63 7 123 147 84 31 45 99 62 
64 7 157 17 150 37 11 127 168 
65 6 125 69 135 161 18 162 
66 7 44 115 85 68 30 19 89 
67 7 36 15 24 22 4 54 12 
68 7 19 58 66 85 87 13 44 
69 5 125 65 135 161 18 
70 7 14 60 129 33 53 174 80 
71 7 91 83 12 78 110 5 10 
72 7 109 33 170 53 57 100 14 
73 6 55 28 42 51 118 180 
74 7 154 132 153 25 137 120 181 
75 7 81 8 90 93 39 3 101 
76 7 38 92 102 16 86 106 114 
77 7 112 48 96 6 16 79 2 
78 7 5 169 21 71 110 12 91 
79 7 2 6 7 144 122 48 150 
80 6 151 70 129 14 174 33 
81 7 8 75 90 93 39 3 101 
82 7 124 10 40 160 121 107 135 
83 7 10 91 24 71 15 124 82 
84 7 31 123 63 99 62 147 45 
85 7 30 44 89 115 13 19 66 
86 7 102 38 106 76 92 114 77 
87 7 13 19 60 57 30 53 85 
88 7 182 61 113 11 28 64 120 
89 7 30 85 44 94 13 115 57 
90 7 75 81 8 101 93 59 39 
91 7 71 83 110 12 10 78 24 
92 7 38 102 76 114 106 21 86 
93 7 39 81 3 8 75 122 144 
94 6 57 89 30 72 13 109 
95 7 99 49 45 31 84 50 62 
96 7 112 16 98 77 26 48 41 
97 4 43 134 41 32 
98 7 41 26 16 96 56 111 97 
99 7 49 62 84 31 123 95 63 
100 7 109 170 72 33 117 151 57 
101 7 59 90 8 81 75 93 128 
102 7 38 92 86 76 106 114 21 
103 6 162 18 135 160 40 65 
104 5 107 121 124 4 82 
105 7 54 12 36 78 5 169 21 
106 7 114 92 102 38 86 76 21 
107 5 104 121 124 10 82 
108 3 138 35 164 
109 7 170 72 100 33 53 57 151 
110 7 32 91 71 56 78 111 5 
111 7 56 26 32 16 110 98 41 
112 7 77 96 48 16 6 76 98 
113 7 61 182 120 25 88 156 11 
114 7 106 92 102 38 76 21 86 
115 7 44 85 89 66 30 13 19 
116 6 52 117 100 109 170 35 
117 7 151 100 170 80 109 138 33 
118 7 141 180 51 55 27 73 173 
119 3 136 176 47 
120 7 154 153 74 25 163 137 156 
121 5 107 124 104 82 40 
122 7 144 20 171 3 149 7 79 
123 7 63 84 147 31 62 99 45 
124 7 82 107 121 10 40 104 160 
125 5 65 69 161 18 135 
126 6 165 159 29 179 152 148 
127 6 168 37 17 157 133 150 
128 7 3 20 149 155 93 122 171 
129 7 174 70 131 80 14 140 23 
130 3 143 152 29 
131 7 27 174 172 129 140 141 23 
132 7 181 177 47 74 137 167 176 
133 5 136 177 47 119 176 
134 4 97 43 41 32 
135 7 160 103 162 18 65 40 125 
136 5 119 176 47 133 177 
137 7 156 25 74 132 177 181 154 
138 3 108 35 117 
139 4 142 9 143 145 
140 7 23 172 46 146 175 131 174 
141 7 27 131 118 180 172 46 173 
142 4 139 158 9 166 
143 4 130 145 139 29 
144 7 122 7 79 171 2 20 149 
145 4 143 29 148 130 
146 6 175 23 46 140 172 178 
147 7 63 123 84 31 163 45 62 
148 4 29 145 165 130 
149 5 20 171 155 122 144 
150 7 37 157 17 127 168 2 7 
151 7 80 170 33 70 117 14 109 
152 3 130 29 143 
153 7 154 163 120 74 25 132 137 
154 7 74 153 120 25 163 132 137 
155 3 149 171 20 
156 7 25 137 11 74 132 120 154 
157 7 17 37 127 168 150 11 64 
158 4 166 142 9 139 
159 4 179 126 40 165 
160 7 135 103 40 162 18 82 65 
161 3 125 18 65 
162 5 103 18 135 160 65 
163 7 153 120 154 74 25 147 132 
164 1 9 
165 5 126 29 148 152 130 
166 3 158 142 9 
167 6 176 47 119 136 177 181 
168 6 127 37 17 157 133 150 
169 7 5 21 78 110 111 71 56 
170 7 109 100 33 72 151 53 14 
171 6 149 20 144 122 155 7 
172 7 46 23 140 146 131 173 175 
173 6 180 46 178 146 172 23 
174 7 129 131 70 140 23 172 14 
175 2 146 23 
176 5 119 136 47 167 177 
177 7 47 181 132 136 176 133 119 
178 3 173 146 46 
179 4 159 126 40 165 
180 6 173 46 141 178 118 172 
181 7 132 177 47 167 176 136 74 
182 7 61 88 113 11 156 25 120 
DEPOT_SECTION
   1
   -1
EOF
