NAME :  X-n247-kX-w49-c7.cctp
COMMENT : 	Adapted by Maziero, Usberti and Cavellucci from the Uchoa, Pecin, Pessoa, Poggi, Subramanian, and Vidal (2013)
TYPE :  CCTP
DIMENSION :    218
EDGE_WEIGHT_TYPE : 	EUC_2D	
CAPACITY : 	134
VERTICES_WITHIN_COVERAGE :  7
VERTICES_WITH_DEMAND : 	49
NODE_COORD_SECTION
1 500 500
2 612 199
3 864 279
4 746 395
5 738 519
6 797 59
7 867 206
8 846 399
9 654 172
10 874 275
11 675 479
12 780 372
13 692 446
14 541 183
15 747 432
16 845 403
17 787 317
18 472 325
19 682 246
20 779 308
21 815 316
22 690 306
23 923 403
24 643 526
25 849 293
26 789 424
27 766 443
28 833 421
29 999 259
30 949 458
31 675 431
32 930 480
33 809 439
34 677 173
35 479 247
36 849 285
37 711 358
38 794 366
39 878 230
40 815 259
41 739 570
42 564 141
43 845 320
44 801 473
45 769 345
46 528 256
47 700 404
48 851 369
49 925 215
50 608 654
51 878 358
52 562 80
53 418 269
54 766 533
55 709 585
56 671 522
57 725 496
58 863 250
59 864 328
60 663 460
61 848 251
62 559 708
63 689 490
64 745 448
65 746 345
66 776 427
67 925 251
68 783 292
69 484 715
70 810 261
71 680 173
72 895 273
73 785 253
74 886 125
75 916 247
76 930 364
77 584 185
78 874 524
79 440 130
80 684 326
81 737 309
82 554 164
83 859 254
84 981 334
85 717 258
86 855 321
87 623 443
88 685 162
89 686 463
90 733 431
91 664 616
92 586 486
93 523 196
94 712 541
95 759 432
96 658 583
97 860 312
98 762 359
99 818 236
100 498 208
101 504 64
102 842 221
103 895 461
104 870 277
105 644 438
106 556 305
107 747 522
108 646 445
109 867 380
110 578 286
111 669 372
112 663 507
113 691 172
114 791 379
115 650 277
116 725 609
117 897 279
118 758 306
119 971 92
120 641 183
121 904 291
122 825 374
123 405 305
124 786 431
125 720 677
126 563 245
127 758 442
128 750 530
129 567 564
130 890 268
131 833 289
132 637 408
133 845 276
134 809 347
135 818 88
136 678 259
137 853 219
138 448 734
139 493 509
140 581 187
141 789 397
142 537 240
143 714 339
144 777 371
145 683 378
146 788 597
147 499 301
148 835 370
149 598 221
150 798 509
151 857 214
152 463 400
153 844 400
154 860 267
155 662 184
156 638 185
157 814 529
158 781 293
159 688 598
160 866 305
161 786 343
162 819 476
163 789 243
164 715 530
165 992 531
166 753 534
167 934 403
168 590 211
169 646 141
170 719 302
171 919 234
172 597 150
173 761 360
174 761 367
175 815 469
176 813 282
177 686 148
178 870 167
179 713 265
180 713 242
181 855 296
182 535 169
183 900 254
184 877 365
185 872 218
186 957 620
187 680 535
188 701 182
189 687 498
190 828 511
191 741 557
192 764 452
193 500 143
194 916 505
195 720 452
196 852 349
197 855 297
198 755 492
199 748 411
200 949 556
201 764 576
202 651 282
203 839 364
204 839 66
205 846 29
206 604 597
207 762 520
208 839 244
209 896 131
210 586 465
211 582 216
212 681 187
213 731 625
214 428 684
215 725 408
216 792 337
217 677 142
218 797 262
DEMAND_SECTION
2 99
3 72
4 87
5 77
6 78
7 76
8 74
9 78
10 92
11 96
12 75
13 96
14 72
15 99
16 63
17 93
18 64
19 68
20 82
21 53
22 91
23 74
24 67
25 65
26 85
27 52
28 77
29 91
30 58
31 73
32 62
33 94
34 84
35 74
36 95
37 62
38 62
39 78
40 89
41 87
42 54
43 73
44 81
45 84
46 51
47 84
48 100
49 69
50 52
COVERAGE_SECTION
2 7 168 149 156 77 120 140 211 
3 7 104 10 154 36 133 181 197 
4 7 199 215 174 15 90 173 95 
5 7 107 128 166 207 164 57 54 
6 3 135 204 205 
7 7 151 185 137 39 102 178 58 
8 7 153 16 28 109 48 148 122 
9 7 155 120 156 34 71 212 169 
10 7 104 3 154 130 72 117 83 
11 7 63 89 60 189 112 13 56 
12 7 144 114 38 174 98 173 141 
13 7 89 31 195 60 11 47 63 
14 6 182 93 82 140 77 42 
15 7 95 90 127 64 199 27 192 
16 7 153 8 28 109 148 48 122 
17 7 20 216 68 158 161 21 118 
18 7 147 123 152 35 53 106 46 
19 7 136 180 179 85 115 202 212 
20 7 17 158 68 118 216 161 21 
21 7 17 43 216 131 134 176 20 
22 7 80 170 143 202 81 179 115 
23 7 167 76 184 30 109 51 103 
24 7 56 112 187 189 11 63 96 
25 7 181 197 36 131 133 3 160 
26 7 124 66 33 141 27 95 127 
27 7 127 192 95 66 15 64 124 
28 7 16 153 8 33 26 122 124 
29 6 67 84 75 171 49 183 
30 7 32 103 167 194 23 165 76 
31 7 13 60 105 108 89 47 132 
32 7 30 194 103 78 23 167 200 
33 7 124 26 28 175 44 66 162 
34 7 71 88 113 212 155 9 188 
35 7 100 46 142 147 53 93 18 
36 7 25 133 181 197 3 131 154 
37 7 143 145 65 80 111 47 173 
38 7 114 12 144 134 161 216 141 
39 7 185 58 7 151 137 83 183 
40 7 70 218 99 176 208 73 163 
41 7 191 201 55 166 94 116 128 
42 7 82 172 182 14 77 140 52 
43 7 86 97 59 197 160 181 25 
44 7 175 162 33 150 192 124 27 
45 7 98 161 173 65 174 216 144 
46 6 142 126 35 147 106 100 
47 7 215 145 31 13 90 111 4 
48 7 203 148 109 196 122 184 51 
49 7 171 75 67 183 39 185 7 
50 7 206 91 62 96 159 129 125 
51 6 184 109 196 48 59 203 
52 6 101 42 172 82 193 182 
53 7 123 35 18 147 100 46 142 
54 6 166 207 128 107 5 191 
55 7 159 116 41 191 94 213 96 
56 7 187 112 24 189 63 11 94 
57 7 5 198 107 164 63 189 128 
58 7 83 61 154 39 208 10 104 
59 7 86 97 43 160 196 197 51 
60 7 11 89 108 105 31 13 63 
61 7 83 208 58 154 133 102 3 
62 7 50 69 138 206 214 91 129 
63 7 189 11 89 112 57 56 60 
64 7 127 15 192 90 95 27 195 
65 7 98 173 45 174 143 37 81 
66 7 124 26 95 27 127 192 15 
67 6 75 171 183 49 72 130 
68 7 158 20 17 118 176 218 73 
69 7 138 214 62 50 206 129 91 
70 7 40 218 176 73 99 163 208 
71 7 34 113 88 212 155 188 9 
72 7 117 130 121 183 10 104 3 
73 6 163 218 70 40 99 68 
74 5 209 178 204 135 7 
75 6 67 171 183 49 72 130 
76 6 167 23 51 184 84 109 
77 6 140 168 2 211 82 172 
78 6 194 190 157 103 32 162 
79 6 193 101 100 182 93 14 
80 7 22 143 37 170 111 145 202 
81 7 170 118 65 143 20 22 158 
82 7 182 14 42 140 77 93 172 
83 7 58 61 154 208 3 104 10 
84 5 76 29 167 121 23 
85 5 179 180 19 136 170 
86 7 43 97 59 160 197 181 196 
87 7 105 108 132 60 210 31 92 
88 7 71 113 34 177 217 212 188 
89 7 13 11 60 63 31 189 195 
90 7 15 64 215 195 199 95 127 
91 7 159 96 55 116 206 50 213 
92 7 210 87 24 108 105 112 129 
93 6 14 100 182 82 142 193 
94 7 164 187 191 5 41 107 128 
95 7 127 15 27 66 64 192 199 
96 7 91 159 55 187 206 24 56 
97 7 160 86 59 197 43 181 25 
98 7 173 174 45 144 65 12 161 
99 7 208 40 70 102 163 218 61 
100 7 93 35 14 142 182 46 193 
101 6 52 193 79 42 182 82 
102 7 137 151 208 99 7 185 61 
103 7 32 194 30 23 78 167 28 
104 7 10 3 154 36 130 181 72 
105 7 108 87 60 132 31 13 89 
106 6 110 46 147 126 142 18 
107 6 5 128 166 207 54 198 
108 7 105 60 87 31 132 89 11 
109 7 184 48 51 8 153 16 203 
110 6 106 126 46 142 149 211 
111 7 145 37 47 80 132 143 31 
112 7 56 189 24 11 63 187 60 
113 7 71 88 34 188 212 177 155 
114 7 12 38 144 141 174 122 98 
115 7 202 136 19 22 80 179 85 
116 7 213 55 159 41 201 191 91 
117 7 72 130 121 10 183 104 3 
118 7 20 81 158 68 17 170 45 
119 6 209 74 178 49 204 205 
120 7 156 9 155 2 34 71 212 
121 6 117 72 130 10 104 183 
122 7 148 203 48 134 38 153 8 
123 7 53 18 35 147 152 46 100 
124 7 26 66 27 33 95 127 192 
125 7 213 116 91 159 55 146 41 
126 6 142 211 46 149 168 110 
127 7 27 95 192 64 15 66 90 
128 6 166 107 5 54 207 191 
129 7 206 92 24 139 96 50 210 
130 7 72 117 10 183 104 121 3 
131 7 25 36 133 176 181 197 21 
132 7 105 87 108 31 111 145 60 
133 7 36 25 154 131 3 181 197 
134 7 216 161 38 122 21 203 148 
135 5 204 6 205 74 209 
136 7 19 115 202 179 85 180 22 
137 7 151 102 7 185 39 208 61 
138 7 69 214 62 50 129 206 139 
139 7 129 92 210 152 206 87 24 
140 6 77 168 211 2 82 149 
141 7 114 12 26 144 38 66 124 
142 6 46 126 93 100 211 14 
143 7 37 65 80 170 81 22 145 
144 7 12 114 174 38 98 173 45 
145 7 111 47 37 143 80 215 31 
146 5 201 41 191 116 213 
147 7 18 46 106 35 142 110 126 
148 7 203 122 48 196 8 153 16 
149 6 168 211 2 140 77 126 
150 6 157 190 44 207 162 54 
151 7 137 7 185 102 39 208 58 
152 6 18 147 123 139 106 53 
153 7 8 16 28 109 148 48 122 
154 7 3 83 104 10 58 133 61 
155 7 9 34 212 71 120 156 113 
156 7 120 9 155 2 34 212 71 
157 6 190 150 54 162 207 44 
158 7 68 20 17 118 176 218 73 
159 7 55 91 96 116 213 41 94 
160 7 97 181 197 86 25 59 3 
161 7 216 45 134 38 17 98 144 
162 7 175 44 190 33 150 157 124 
163 5 73 218 70 99 40 
164 7 94 5 107 57 128 187 191 
165 7 200 32 194 30 186 78 103 
166 6 128 54 107 207 5 191 
167 7 23 76 30 184 103 109 51 
168 6 211 149 2 140 77 126 
169 6 217 9 177 120 88 34 
170 7 81 22 143 179 118 80 85 
171 7 75 67 49 183 39 130 72 
172 7 42 77 140 82 169 2 156 
173 7 98 174 45 144 65 12 161 
174 7 173 98 144 12 45 65 4 
175 7 162 44 33 150 190 124 28 
176 7 70 131 40 218 68 133 21 
177 5 217 88 113 71 34 
178 6 7 209 74 151 185 137 
179 6 85 180 19 136 170 22 
180 5 85 179 19 136 170 
181 7 197 25 36 160 97 3 133 
182 7 14 82 93 42 193 140 77 
183 7 75 130 72 67 117 171 10 
184 6 51 109 48 196 203 59 
185 7 7 39 151 137 102 58 83 
186 5 200 165 194 78 32 
187 7 56 94 112 164 24 189 63 
188 7 113 212 71 34 88 177 155 
189 7 63 11 112 56 89 57 187 
190 6 157 150 162 175 44 78 
191 7 41 166 128 201 94 54 107 
192 7 27 127 64 95 15 66 124 
193 7 182 14 82 93 79 42 100 
194 7 32 78 103 30 200 165 190 
195 7 64 90 13 15 89 127 57 
196 7 48 203 59 148 51 86 43 
197 7 181 25 36 160 97 3 131 
198 7 207 57 107 5 128 192 54 
199 7 4 15 215 95 90 66 127 
200 6 165 194 186 32 78 30 
201 6 41 191 146 54 166 128 
202 7 115 136 22 19 80 179 85 
203 7 148 48 122 196 109 134 8 
204 5 135 205 6 74 209 
205 5 204 6 135 74 209 
206 7 129 96 50 91 24 159 187 
207 6 54 107 128 166 5 198 
208 7 61 83 99 102 58 40 137 
209 5 74 178 7 119 204 
210 7 92 87 108 105 132 60 24 
211 6 168 149 140 77 2 126 
212 7 71 34 113 155 188 88 9 
213 7 116 55 159 125 41 201 146 
214 7 138 69 62 50 129 139 206 
215 7 199 90 4 47 15 95 195 
216 7 161 134 17 45 38 21 20 
217 5 177 88 34 71 169 
218 7 70 73 40 163 176 68 99 
DEPOT_SECTION
   1
   -1
EOF
