NAME :  X-n294-kX-w117-c9.cctp
COMMENT : 	Adapted by Maziero, Usberti and Cavellucci from the Uchoa, Pecin, Pessoa, Poggi, Subramanian, and Vidal (2013)
TYPE :  CCTP
DIMENSION :    291
EDGE_WEIGHT_TYPE : 	EUC_2D	
CAPACITY : 	285
VERTICES_WITHIN_COVERAGE :  9
VERTICES_WITH_DEMAND : 	117
NODE_COORD_SECTION
1 500 500
2 940 231
3 721 848
4 618 44
5 993 145
6 636 512
7 274 496
8 245 945
9 449 812
10 29 650
11 399 8
12 548 19
13 769 717
14 221 850
15 980 233
16 477 922
17 498 720
18 136 832
19 351 663
20 58 67
21 889 569
22 28 334
23 804 928
24 900 138
25 393 403
26 982 609
27 79 299
28 684 582
29 169 252
30 405 925
31 875 191
32 674 112
33 576 537
34 539 63
35 338 657
36 210 209
37 676 568
38 949 826
39 572 890
40 210 615
41 737 46
42 30 527
43 131 724
44 671 842
45 727 566
46 507 497
47 524 134
48 167 665
49 819 108
50 929 582
51 713 738
52 352 626
53 887 547
54 176 645
55 611 289
56 457 532
57 11 147
58 958 60
59 587 187
60 790 956
61 974 63
62 306 225
63 961 969
64 238 736
65 758 840
66 88 44
67 507 811
68 768 476
69 51 914
70 494 445
71 953 33
72 922 45
73 748 111
74 544 867
75 477 596
76 322 79
77 439 150
78 586 764
79 214 599
80 168 480
81 925 138
82 797 107
83 751 783
84 738 913
85 703 73
86 681 886
87 627 27
88 887 310
89 478 345
90 571 600
91 834 858
92 549 370
93 657 233
94 126 769
95 317 934
96 237 55
97 851 409
98 838 426
99 477 559
100 542 94
101 370 432
102 520 621
103 666 178
104 631 484
105 733 255
106 820 918
107 687 877
108 752 983
109 157 720
110 709 898
111 300 878
112 728 617
113 66 59
114 991 657
115 717 47
116 463 177
117 586 397
118 792 307
119 100 392
120 438 722
121 43 247
122 71 476
123 69 560
124 211 73
125 471 14
126 115 806
127 194 337
128 921 320
129 104 495
130 36 456
131 500 152
132 782 316
133 881 374
134 277 601
135 962 575
136 588 181
137 941 728
138 108 931
139 11 814
140 209 800
141 129 525
142 126 149
143 31 219
144 97 324
145 495 122
146 759 480
147 859 782
148 780 669
149 786 769
150 759 159
151 282 633
152 361 17
153 957 103
154 711 939
155 544 544
156 27 318
157 665 656
158 523 586
159 842 429
160 539 783
161 769 347
162 937 386
163 824 841
164 738 391
165 833 988
166 16 637
167 91 472
168 41 388
169 623 780
170 660 155
171 700 658
172 946 783
173 607 815
174 87 771
175 658 874
176 527 853
177 459 577
178 352 829
179 427 235
180 937 639
181 554 438
182 833 692
183 421 999
184 908 447
185 469 163
186 737 238
187 509 61
188 488 408
189 600 359
190 510 460
191 342 691
192 95 216
193 787 465
194 700 873
195 659 568
196 478 525
197 988 980
198 303 119
199 241 353
200 28 661
201 724 842
202 2 660
203 210 180
204 840 841
205 843 9
206 430 92
207 265 453
208 209 673
209 20 952
210 673 659
211 185 335
212 138 655
213 263 155
214 769 741
215 325 260
216 831 678
217 401 625
218 212 360
219 118 426
220 192 520
221 596 376
222 449 679
223 579 295
224 333 352
225 837 944
226 377 500
227 797 97
228 65 235
229 440 877
230 439 326
231 407 621
232 550 241
233 169 68
234 253 243
235 76 852
236 642 116
237 598 124
238 564 374
239 997 660
240 14 98
241 845 303
242 774 9
243 791 671
244 299 800
245 575 109
246 290 897
247 953 348
248 906 692
249 895 790
250 25 242
251 761 886
252 909 336
253 501 846
254 731 4
255 337 71
256 106 973
257 400 229
258 846 368
259 623 580
260 978 669
261 884 559
262 10 910
263 390 602
264 451 134
265 324 221
266 569 98
267 735 341
268 411 220
269 672 867
270 69 790
271 584 520
272 193 416
273 954 912
274 761 734
275 192 875
276 88 353
277 777 38
278 98 68
279 642 658
280 838 305
281 824 694
282 238 825
283 344 138
284 137 683
285 357 593
286 541 423
287 537 99
288 137 539
289 719 213
290 68 173
291 788 339
DEMAND_SECTION
2 94
3 7
4 83
5 31
6 9
7 78
8 50
9 18
10 10
11 11
12 68
13 37
14 57
15 83
16 38
17 94
18 12
19 63
20 84
21 19
22 68
23 32
24 98
25 47
26 97
27 25
28 98
29 30
30 30
31 10
32 20
33 64
34 56
35 73
36 32
37 51
38 51
39 45
40 72
41 81
42 26
43 46
44 16
45 39
46 9
47 52
48 60
49 39
50 39
51 97
52 40
53 79
54 2
55 86
56 69
57 28
58 73
59 46
60 1
61 31
62 99
63 91
64 19
65 41
66 99
67 23
68 52
69 81
70 89
71 48
72 11
73 21
74 36
75 24
76 56
77 93
78 32
79 30
80 81
81 15
82 98
83 61
84 32
85 57
86 8
87 48
88 45
89 19
90 43
91 6
92 9
93 40
94 66
95 1
96 55
97 32
98 24
99 47
100 72
101 36
102 77
103 28
104 44
105 4
106 42
107 38
108 15
109 13
110 81
111 58
112 77
113 88
114 91
115 44
116 88
117 68
118 40
COVERAGE_SECTION
2 9 15 31 128 81 88 5 24 252 247 
3 9 201 194 65 107 44 110 269 86 251 
4 9 87 266 12 236 245 34 237 32 85 
5 9 153 81 61 15 58 24 2 71 72 
6 9 104 271 195 33 37 259 28 155 45 
7 9 207 220 226 134 80 272 101 79 285 
8 9 246 95 111 275 14 282 138 256 140 
9 9 67 253 229 176 120 160 178 17 74 
10 9 200 166 202 123 212 284 42 43 174 
11 9 152 125 255 206 76 187 264 283 198 
12 9 34 187 4 100 125 87 287 266 245 
13 9 274 214 148 243 149 51 281 83 182 
14 9 282 275 140 246 111 18 244 8 64 
15 9 2 5 128 81 31 247 88 24 252 
16 9 229 30 253 176 74 183 39 9 67 
17 9 120 222 160 67 78 102 9 75 253 
18 9 126 235 94 275 174 270 140 14 282 
19 9 35 191 52 217 231 285 263 151 134 
20 9 113 66 278 240 57 290 142 233 124 
21 9 261 53 50 135 180 26 184 216 248 
22 9 156 168 27 276 144 121 119 250 228 
23 9 106 60 225 251 165 84 91 108 163 
24 9 81 31 153 49 5 72 58 2 61 
25 9 101 224 230 188 226 89 70 190 207 
26 9 135 114 239 180 50 260 21 261 53 
27 9 144 156 276 22 121 228 250 192 143 
28 9 37 195 45 112 259 157 171 210 6 
29 9 36 192 203 234 211 127 27 144 228 
30 9 229 16 183 95 178 111 246 9 253 
31 9 24 81 2 49 15 82 241 88 150 
32 9 236 170 85 103 73 237 115 4 41 
33 9 271 155 90 259 6 158 104 46 195 
34 9 187 100 287 12 266 245 47 145 4 
35 9 19 52 191 151 285 217 263 231 134 
36 9 203 234 29 213 62 142 192 265 215 
37 9 28 195 45 259 6 112 157 210 171 
38 8 172 249 273 137 147 204 91 163 
39 9 74 176 173 253 175 16 67 269 86 
40 9 79 54 208 48 134 151 212 220 284 
41 9 115 277 254 85 242 73 227 82 32 
42 9 123 122 130 129 167 141 288 166 10 
43 9 109 284 94 174 48 212 126 54 270 
44 9 269 175 107 194 86 3 201 110 173 
45 9 28 37 112 195 146 171 68 259 6 
46 9 190 196 70 155 56 99 181 33 271 
47 9 131 145 287 100 245 266 185 34 264 
48 9 54 212 284 208 109 40 43 79 64 
49 9 82 227 73 150 277 24 31 205 41 
50 9 135 21 261 53 180 26 114 260 239 
51 9 274 214 83 13 149 171 210 157 148 
52 9 285 35 19 263 217 231 191 151 134 
53 9 261 21 50 135 184 180 26 159 193 
54 9 48 212 208 40 284 79 109 43 151 
55 9 223 189 93 232 221 238 92 59 136 
56 9 196 99 177 46 75 158 226 155 190 
57 9 240 290 143 20 250 228 113 121 192 
58 9 61 71 72 153 81 5 24 205 49 
59 9 136 237 232 245 103 170 47 93 236 
60 9 23 108 106 225 165 84 251 154 110 
61 9 58 71 153 72 5 81 24 205 49 
62 9 265 215 234 213 257 283 36 268 198 
63 9 197 273 225 165 38 106 23 91 60 
64 9 208 140 109 244 282 48 43 54 151 
65 9 201 3 251 83 163 194 84 110 149 
66 9 278 113 20 233 240 142 124 57 290 
67 9 253 160 176 9 74 17 78 229 173 
68 9 146 193 98 159 164 45 97 161 37 
69 9 262 209 138 235 256 139 18 270 126 
70 9 190 188 286 46 181 196 92 56 238 
71 9 58 72 61 153 81 205 24 5 49 
72 9 71 58 61 153 205 81 24 49 5 
73 9 82 150 227 85 41 49 115 32 277 
74 9 176 39 253 67 173 160 16 229 9 
75 9 177 99 158 102 56 196 231 217 155 
76 9 255 198 283 152 96 213 11 206 124 
77 9 264 185 116 206 131 145 268 47 179 
78 9 169 160 173 67 17 176 74 44 253 
79 9 40 54 134 208 151 48 220 212 288 
80 9 220 141 129 288 272 219 167 122 207 
81 9 24 153 5 31 58 61 72 2 71 
82 9 227 49 73 150 277 41 85 115 242 
83 9 149 214 274 65 51 201 13 3 163 
84 9 110 251 154 194 107 86 3 60 23 
85 9 115 41 32 73 254 236 277 87 4 
86 9 107 269 194 175 110 44 3 154 201 
87 9 4 12 85 236 115 266 34 32 245 
88 9 252 128 241 280 133 258 247 162 2 
89 9 230 188 92 238 286 70 25 223 190 
90 9 158 102 259 155 33 271 279 75 195 
91 8 204 163 106 23 65 251 147 225 
92 9 238 117 221 189 286 181 188 89 223 
93 9 103 289 55 170 105 186 59 136 223 
94 9 126 174 43 109 270 18 284 140 235 
95 9 246 111 8 30 178 183 14 244 282 
96 9 124 233 76 198 255 213 203 152 283 
97 9 98 159 258 133 184 193 162 252 291 
98 9 159 97 258 193 133 184 68 146 291 
99 9 177 56 196 75 158 46 155 102 231 
100 9 287 266 34 245 47 187 145 237 131 
101 9 25 226 224 207 7 188 70 230 56 
102 9 158 75 90 99 177 155 222 17 33 
103 9 170 93 289 32 236 136 59 237 186 
104 9 6 271 33 195 181 37 259 117 155 
105 9 186 289 132 93 118 267 150 161 291 
106 9 23 225 60 91 251 165 163 204 84 
107 9 86 194 269 175 110 44 3 201 84 
108 9 60 154 84 23 165 106 225 110 251 
109 9 43 284 48 94 212 208 54 64 174 
110 9 194 86 107 84 154 269 3 251 175 
111 9 246 95 178 244 282 14 8 275 30 
112 9 171 45 28 210 37 148 157 243 195 
113 9 20 66 278 240 233 57 142 290 124 
114 9 239 260 26 180 135 137 248 50 172 
115 9 41 85 254 277 242 73 32 87 227 
116 9 185 77 131 264 145 268 179 47 257 
117 9 221 238 189 92 181 286 104 188 190 
118 9 132 291 161 280 241 267 105 258 186 
119 9 219 276 168 144 167 122 130 22 27 
120 9 222 17 9 191 217 19 231 67 160 
121 9 250 228 143 192 27 156 290 22 144 
122 9 167 129 130 42 219 141 123 119 288 
123 9 42 141 288 129 122 167 166 10 130 
124 9 96 233 213 198 203 76 278 142 66 
125 9 187 11 12 34 206 100 287 152 145 
126 9 18 94 174 270 235 43 140 109 275 
127 8 211 218 199 272 29 144 276 119 
128 9 252 88 247 133 162 241 280 258 2 
129 9 167 122 141 288 80 219 123 130 42 
130 9 122 167 168 42 129 219 119 123 276 
131 9 47 145 185 116 264 77 287 100 245 
132 9 118 291 161 267 280 241 105 258 164 
133 9 258 97 252 162 88 98 128 159 247 
134 9 151 79 40 52 285 35 19 208 7 
135 9 50 26 180 21 53 261 114 239 260 
136 9 59 237 232 245 170 103 47 236 266 
137 8 248 172 260 249 114 239 180 38 
138 9 256 69 235 209 262 275 18 126 8 
139 9 270 235 174 262 126 69 94 18 209 
140 9 282 14 64 275 18 94 244 126 109 
141 9 288 129 80 220 167 123 122 42 219 
142 9 290 192 278 203 233 36 228 20 113 
143 9 250 121 228 290 192 57 27 156 22 
144 9 276 27 119 22 156 168 211 121 228 
145 9 131 47 264 287 185 100 77 187 116 
146 9 68 193 164 45 98 159 97 37 6 
147 7 249 204 163 149 91 172 182 
148 9 243 13 281 216 182 274 214 112 171 
149 8 214 83 274 13 147 65 51 163 
150 9 73 82 289 227 49 186 103 32 105 
151 9 134 35 52 40 19 79 191 208 285 
152 9 11 255 76 206 125 198 283 96 264 
153 9 58 61 81 5 24 72 71 31 2 
154 9 84 110 108 86 107 194 251 60 269 
155 9 33 158 271 46 90 99 196 102 75 
156 9 22 27 144 276 168 121 250 228 143 
157 9 210 279 171 112 28 259 195 37 51 
158 9 102 75 155 90 99 177 33 196 56 
159 9 98 97 258 193 133 184 68 146 162 
160 9 67 78 176 253 17 173 74 169 9 
161 9 291 132 267 118 164 258 280 241 105 
162 9 247 133 252 128 184 97 88 258 159 
163 8 204 91 65 147 106 251 149 249 
164 9 267 161 291 132 193 68 146 118 98 
165 9 225 60 23 106 108 84 251 63 91 
166 9 10 200 202 123 42 212 284 43 174 
167 9 122 129 219 130 141 80 119 288 42 
168 9 22 119 276 130 156 144 219 122 27 
169 9 173 78 44 160 51 175 269 107 74 
170 9 103 236 32 237 136 93 59 289 85 
171 9 210 157 112 279 28 51 148 13 243 
172 7 38 249 137 147 248 260 204 
173 9 169 78 44 160 175 74 39 269 176 
174 9 270 94 126 43 18 235 109 139 284 
175 9 269 86 107 44 194 110 3 201 173 
176 9 74 253 67 39 160 16 9 173 229 
177 9 99 75 56 196 158 231 263 102 217 
178 9 244 111 246 9 229 30 95 282 14 
179 9 268 257 116 185 77 230 264 265 215 
180 9 260 26 114 50 248 239 135 21 137 
181 9 286 190 117 70 238 92 188 46 221 
182 7 281 216 243 148 13 248 214 
183 9 30 16 95 229 246 111 253 74 176 
184 9 159 162 97 98 133 258 53 247 252 
185 9 116 77 131 264 145 47 206 268 179 
186 9 105 289 93 150 118 132 103 267 170 
187 9 34 100 287 12 125 145 266 47 245 
188 9 70 286 190 89 92 181 238 46 25 
189 9 221 238 117 92 223 55 286 181 188 
190 9 70 46 286 181 188 196 56 155 271 
191 9 19 35 52 151 217 231 285 120 263 
192 9 228 290 121 143 142 250 29 27 144 
193 9 68 146 98 159 97 164 258 45 161 
194 9 107 86 110 269 3 201 44 175 84 
195 9 37 28 259 6 45 112 157 33 104 
196 9 56 99 46 177 155 75 190 158 70 
197 9 63 273 165 225 38 106 23 91 60 
198 9 76 283 213 255 96 124 265 62 203 
199 8 218 127 211 272 224 207 234 29 
200 9 10 202 166 123 212 284 43 174 42 
201 9 3 65 194 107 44 251 110 269 86 
202 9 200 166 10 123 42 212 284 174 43 
203 9 36 213 234 29 142 62 124 198 233 
204 8 163 91 147 249 106 65 149 251 
205 9 242 277 72 227 49 82 41 254 71 
206 9 264 77 145 185 187 125 11 116 131 
207 8 7 272 220 80 199 101 218 226 
208 9 48 54 40 64 109 212 284 79 151 
209 9 262 69 256 138 235 139 18 270 126 
210 9 157 171 279 112 28 51 37 195 259 
211 8 127 218 199 272 29 144 276 119 
212 9 284 48 54 109 43 208 40 79 10 
213 9 198 203 36 62 283 234 265 76 124 
214 9 274 13 149 83 51 281 148 243 182 
215 8 265 62 234 257 224 268 179 213 
216 8 182 281 243 148 13 248 214 274 
217 9 231 263 52 285 19 35 222 177 75 
218 8 127 199 211 272 207 219 29 119 
219 9 119 167 122 129 80 272 276 168 130 
220 9 80 288 141 79 7 129 40 207 272 
221 9 189 117 238 92 286 181 223 55 188 
222 9 120 17 217 231 75 102 263 19 177 
223 9 55 232 189 238 92 221 93 117 59 
224 8 25 101 199 215 230 218 207 62 
225 9 106 23 165 60 91 108 251 204 84 
226 9 101 56 285 25 7 263 196 177 99 
227 9 82 49 73 277 150 41 242 115 85 
228 9 121 192 143 250 290 27 156 144 57 
229 9 16 30 9 253 176 67 178 74 183 
230 9 89 25 179 188 257 224 268 92 101 
231 9 217 263 52 285 177 19 222 75 35 
232 9 223 59 136 55 131 93 116 47 185 
233 9 124 96 278 66 142 113 20 203 213 
234 8 36 62 215 265 203 29 213 127 
235 9 126 270 18 69 139 174 138 262 94 
236 9 32 170 237 103 245 85 266 4 136 
237 9 245 266 236 136 59 100 287 170 47 
238 9 92 117 221 189 286 181 223 188 89 
239 9 114 260 26 180 137 135 248 50 172 
240 9 57 20 113 278 66 290 143 142 192 
241 9 280 88 118 132 258 291 252 128 133 
242 9 277 254 41 115 205 227 85 82 73 
243 8 148 281 216 182 13 274 214 112 
244 9 178 282 111 64 140 14 246 191 275 
245 9 266 237 100 287 47 34 236 136 4 
246 9 111 95 8 14 282 178 244 275 30 
247 9 162 128 252 88 133 184 258 241 2 
248 7 137 180 182 216 260 281 114 
249 7 147 172 38 204 137 163 91 
250 9 121 143 228 192 156 27 290 22 57 
251 9 84 65 110 3 201 23 194 106 154 
252 9 128 88 247 133 162 258 241 280 97 
253 9 176 67 74 9 229 160 16 39 173 
254 9 41 242 115 277 85 87 73 205 227 
255 9 76 152 198 283 11 206 96 213 124 
256 9 138 69 209 262 235 275 8 18 126 
257 9 268 179 265 215 116 77 62 185 230 
258 9 133 97 98 159 280 241 291 88 252 
259 9 195 37 90 28 33 6 271 279 155 
260 9 114 239 180 26 137 248 135 50 172 
261 9 21 53 50 135 180 26 184 216 193 
262 9 69 209 235 139 138 256 270 18 126 
263 9 217 231 285 52 19 177 35 75 56 
264 9 77 185 116 145 206 131 47 187 287 
265 9 62 215 234 257 283 268 213 179 198 
266 9 245 100 287 237 34 47 187 4 236 
267 9 161 164 132 291 118 105 186 280 258 
268 9 257 179 116 77 185 265 215 264 62 
269 9 175 107 86 44 194 110 3 201 84 
270 9 174 126 94 235 139 18 43 109 69 
271 9 33 155 6 104 259 46 90 181 195 
272 8 218 80 219 127 199 207 211 119 
273 9 63 197 38 225 172 91 106 204 249 
274 9 214 13 149 51 83 148 243 281 182 
275 9 14 282 18 140 8 246 138 126 111 
276 9 144 119 27 168 22 156 219 211 127 
277 9 242 41 254 115 227 82 205 73 49 
278 9 66 113 20 233 142 240 290 124 57 
279 9 157 210 171 259 28 90 195 112 37 
280 9 241 118 88 132 291 258 252 133 161 
281 7 182 216 243 148 13 214 274 
282 9 14 140 244 275 111 64 246 18 178 
283 9 198 76 255 213 265 62 77 206 268 
284 9 212 48 43 109 54 208 94 40 174 
285 9 52 263 217 231 35 19 134 151 226 
286 9 181 190 70 117 92 238 188 221 46 
287 9 100 266 34 47 245 187 145 131 237 
288 9 141 129 220 80 123 167 122 79 40 
289 9 186 105 103 93 150 170 73 32 118 
290 9 192 143 228 57 142 121 250 240 20 
291 9 161 132 118 267 280 258 241 164 97 
DEPOT_SECTION
   1
   -1
EOF
