NAME :  X-n275-kX-w109-c11.cctp
COMMENT : 	Adapted by Maziero, Usberti and Cavellucci from the Uchoa, Pecin, Pessoa, Poggi, Subramanian, and Vidal (2013)
TYPE :  CCTP
DIMENSION :    274
EDGE_WEIGHT_TYPE : 	EUC_2D	
CAPACITY : 	10
VERTICES_WITHIN_COVERAGE :  11
VERTICES_WITH_DEMAND : 	109
NODE_COORD_SECTION
1 409 418
2 378 220
3 469 585
4 91 695
5 351 130
6 424 101
7 70 693
8 324 133
9 367 215
10 218 906
11 90 688
12 417 223
13 42 693
14 134 482
15 594 488
16 431 269
17 383 606
18 100 597
19 85 697
20 378 218
21 196 640
22 213 635
23 520 537
24 509 542
25 388 549
26 476 583
27 409 565
28 155 828
29 60 690
30 415 269
31 127 578
32 363 304
33 392 329
34 424 660
35 505 683
36 372 120
37 438 620
38 578 421
39 116 716
40 107 719
41 117 677
42 324 275
43 246 789
44 363 223
45 139 682
46 376 197
47 397 52
48 107 727
49 64 671
50 369 275
51 96 659
52 129 627
53 45 581
54 403 585
55 70 731
56 528 736
57 379 320
58 424 608
59 436 607
60 54 687
61 342 544
62 595 525
63 508 336
64 338 90
65 510 165
66 269 820
67 18 776
68 316 293
69 575 485
70 335 179
71 1 727
72 571 436
73 15 696
74 227 760
75 324 538
76 523 519
77 620 500
78 217 427
79 53 809
80 206 622
81 602 506
82 48 771
83 486 347
84 100 740
85 161 660
86 528 559
87 386 460
88 330 295
89 225 345
90 301 729
91 334 243
92 99 819
93 219 610
94 70 560
95 334 161
96 589 420
97 428 605
98 478 509
99 76 753
100 464 167
101 18 327
102 451 63
103 406 145
104 431 608
105 213 707
106 95 635
107 550 573
108 172 811
109 85 789
110 119 788
111 348 210
112 571 227
113 364 347
114 591 428
115 436 611
116 471 928
117 416 528
118 504 383
119 217 255
120 255 720
121 100 830
122 82 693
123 290 209
124 522 281
125 331 406
126 426 244
127 529 618
128 638 99
129 153 648
130 124 719
131 419 70
132 12 653
133 433 169
134 370 686
135 811 620
136 160 691
137 204 673
138 57 666
139 326 401
140 627 541
141 332 114
142 497 575
143 469 605
144 49 648
145 547 588
146 305 746
147 192 805
148 370 621
149 759 660
150 89 757
151 287 223
152 380 129
153 286 386
154 23 745
155 21 738
156 441 683
157 402 577
158 255 442
159 260 288
160 322 693
161 502 313
162 431 473
163 106 701
164 390 398
165 443 175
166 335 272
167 390 225
168 194 867
169 170 621
170 311 241
171 358 323
172 427 911
173 555 239
174 55 781
175 374 566
176 388 263
177 352 701
178 82 671
179 451 565
180 91 833
181 292 609
182 466 592
183 561 488
184 131 779
185 186 699
186 567 525
187 635 481
188 404 512
189 459 694
190 456 399
191 91 725
192 483 196
193 317 460
194 128 824
195 481 179
196 517 442
197 97 705
198 263 806
199 381 215
200 386 164
201 497 137
202 311 737
203 100 611
204 414 525
205 79 643
206 284 318
207 155 706
208 426 661
209 297 164
210 454 197
211 499 697
212 480 310
213 145 692
214 390 236
215 350 333
216 605 460
217 709 391
218 426 192
219 98 767
220 141 672
221 399 684
222 107 853
223 56 774
224 309 266
225 376 510
226 205 771
227 105 676
228 682 508
229 236 173
230 256 311
231 59 713
232 307 278
233 735 524
234 566 711
235 320 437
236 71 844
237 18 737
238 430 559
239 85 479
240 376 276
241 171 400
242 430 237
243 201 588
244 478 593
245 291 132
246 464 582
247 669 494
248 562 733
249 298 173
250 438 567
251 402 206
252 150 291
253 364 561
254 415 580
255 87 693
256 502 751
257 132 831
258 574 481
259 19 707
260 486 590
261 399 205
262 165 712
263 63 746
264 50 740
265 514 246
266 400 617
267 421 162
268 497 582
269 260 817
270 40 768
271 58 721
272 332 614
273 190 878
274 346 218
DEMAND_SECTION
2 1
3 1
4 1
5 1
6 1
7 1
8 1
9 1
10 1
11 1
12 1
13 1
14 1
15 1
16 1
17 1
18 1
19 1
20 1
21 1
22 1
23 1
24 1
25 1
26 1
27 1
28 1
29 1
30 1
31 1
32 1
33 1
34 1
35 1
36 1
37 1
38 1
39 1
40 1
41 1
42 1
43 1
44 1
45 1
46 1
47 1
48 1
49 1
50 1
51 1
52 1
53 1
54 1
55 1
56 1
57 1
58 1
59 1
60 1
61 1
62 1
63 1
64 1
65 1
66 1
67 1
68 1
69 1
70 1
71 1
72 1
73 1
74 1
75 1
76 1
77 1
78 1
79 1
80 1
81 1
82 1
83 1
84 1
85 1
86 1
87 1
88 1
89 1
90 1
91 1
92 1
93 1
94 1
95 1
96 1
97 1
98 1
99 1
100 1
101 1
102 1
103 1
104 1
105 1
106 1
107 1
108 1
109 1
110 1
COVERAGE_SECTION
2 11 20 199 9 167 44 214 46 261 251 111 274 
3 11 246 26 182 244 260 143 179 268 142 250 59 
4 11 255 19 11 122 197 163 7 227 178 40 191 
5 11 36 141 8 152 95 64 200 70 103 245 209 
6 11 131 102 103 152 36 47 267 133 200 165 100 
7 11 29 122 19 60 255 4 11 49 231 178 13 
8 11 141 5 95 245 209 64 70 249 36 152 200 
9 11 44 20 2 199 46 111 274 167 214 261 251 
10 11 273 168 269 28 66 147 108 198 257 43 194 
11 11 255 4 122 19 197 178 227 7 163 41 29 
12 11 242 126 251 261 167 214 218 199 2 20 210 
13 11 60 29 231 73 259 7 49 138 271 122 19 
14 11 239 241 31 78 94 18 243 158 53 203 169 
15 11 69 81 258 77 216 183 62 187 186 72 114 
16 11 30 126 242 176 12 214 240 167 50 212 251 
17 11 148 266 54 157 58 175 254 97 104 27 253 
18 11 203 31 106 52 94 205 53 51 144 129 169 
19 11 255 122 4 11 197 7 163 29 178 191 227 
20 11 2 199 9 167 44 46 214 261 251 111 274 
21 11 22 80 169 137 93 85 129 243 185 136 220 
22 11 80 21 93 137 169 243 85 129 185 105 136 
23 11 24 76 86 142 107 186 98 268 145 260 26 
24 11 23 86 76 142 268 98 107 26 260 3 145 
25 11 175 27 253 157 117 204 54 188 225 254 238 
26 11 3 244 246 260 182 268 142 143 179 250 59 
27 11 157 254 54 238 25 250 175 117 204 179 97 
28 11 257 108 194 147 110 222 121 168 184 92 273 
29 11 60 7 13 49 122 231 138 19 255 178 11 
30 11 16 126 176 242 240 214 12 50 167 2 57 
31 11 18 203 52 94 169 106 129 243 205 53 51 
32 11 171 57 50 240 215 88 33 113 166 68 176 
33 11 57 113 171 32 215 240 50 30 176 164 88 
34 11 208 156 221 37 189 266 115 58 104 59 97 
35 11 211 189 56 156 234 256 127 248 208 34 143 
36 11 152 5 141 103 64 200 8 6 95 267 131 
37 11 115 59 104 58 97 143 266 182 34 208 246 
38 11 96 114 72 216 258 69 196 15 183 118 187 
39 11 40 130 48 163 197 191 84 4 19 255 11 
40 11 48 39 130 191 197 163 84 4 19 255 11 
41 11 227 45 220 163 51 11 4 213 197 255 178 
42 11 166 224 232 68 88 91 170 50 32 240 171 
43 11 198 269 74 66 226 147 120 146 108 90 202 
44 11 9 2 20 274 111 199 167 46 214 91 261 
45 11 220 213 41 136 207 85 227 129 163 130 262 
46 11 199 9 20 2 261 251 44 111 167 200 274 
47 11 131 102 6 64 36 152 141 5 103 8 200 
48 11 40 39 84 191 130 197 163 150 4 19 55 
49 11 138 178 29 60 7 144 122 11 13 205 255 
50 11 240 176 32 166 88 214 42 30 57 91 171 
51 11 178 227 205 106 41 11 49 255 4 122 19 
52 11 129 203 106 169 18 51 85 220 31 41 205 
53 11 94 18 203 144 205 106 132 31 138 49 51 
54 11 157 254 27 17 58 97 266 175 104 238 25 
55 11 271 263 231 191 264 99 84 150 19 48 197 
56 11 256 248 234 211 35 189 156 127 208 34 221 
57 11 33 171 32 113 215 240 50 88 176 30 166 
58 11 97 104 59 115 37 266 254 54 157 17 250 
59 11 115 104 97 58 37 143 182 254 266 246 3 
60 11 29 13 7 49 138 231 122 178 19 255 271 
61 11 75 253 175 25 225 157 27 188 272 54 17 
62 11 81 186 77 140 15 69 258 183 187 107 216 
63 11 161 83 212 118 124 190 265 16 196 173 38 
64 11 141 5 8 36 152 245 47 95 131 209 6 
65 11 201 195 192 100 210 165 133 265 112 173 218 
66 11 269 198 43 74 147 226 146 168 202 90 108 
67 11 270 82 154 174 155 223 237 79 264 71 263 
68 11 88 232 42 166 224 206 32 170 171 215 91 
69 11 258 183 15 81 216 186 62 77 72 114 187 
70 11 95 111 249 209 274 46 8 9 5 44 200 
71 11 237 155 259 154 73 264 67 13 270 271 231 
72 11 38 114 96 216 258 69 183 196 15 81 187 
73 11 259 13 71 60 237 155 132 29 231 154 271 
74 11 226 43 120 105 147 198 269 66 185 108 262 
75 11 61 253 175 225 25 272 181 193 188 157 27 
76 11 23 24 86 186 98 183 107 69 142 258 268 
77 11 81 187 15 62 140 216 69 247 258 186 183 
78 11 158 241 153 89 14 235 193 139 125 230 206 
79 11 174 223 82 109 236 270 180 92 67 121 99 
80 11 22 93 21 243 169 137 85 129 52 185 220 
81 11 77 15 62 69 258 186 187 140 183 216 247 
82 11 223 270 174 263 67 264 99 154 79 109 150 
83 11 63 212 161 118 190 124 16 33 196 30 265 
84 11 48 191 150 40 99 219 39 55 130 197 263 
85 11 129 220 45 136 213 21 169 137 52 185 207 
86 11 23 24 107 142 145 268 76 186 260 26 127 
87 11 162 225 188 164 193 235 204 117 125 139 25 
88 11 68 42 166 232 32 224 171 215 50 240 206 
89 11 230 206 159 153 241 78 119 252 158 68 232 
90 11 202 146 160 120 177 74 43 134 198 105 66 
91 11 170 274 166 42 224 44 111 9 232 50 2 
92 11 121 180 194 109 222 257 110 236 79 184 219 
93 11 80 22 243 21 169 137 181 129 85 52 185 
94 11 53 18 203 31 106 239 205 52 144 14 51 
95 11 70 8 5 209 249 141 111 200 245 46 36 
96 11 114 38 72 216 258 69 15 183 196 187 77 
97 11 104 58 59 115 37 254 266 54 157 250 182 
98 11 24 76 23 162 179 117 204 142 238 250 86 
99 11 150 263 55 219 84 223 264 191 82 174 109 
100 11 195 165 133 210 192 267 201 218 65 103 12 
101 10 252 239 241 14 89 119 78 94 230 159 
102 11 131 6 47 201 103 36 152 267 100 133 165 
103 11 267 200 152 133 36 6 165 218 5 46 261 
104 11 97 59 115 58 37 254 266 54 143 182 157 
105 11 185 137 120 262 74 136 207 226 21 85 213 
106 11 205 51 203 52 18 178 227 41 49 144 138 
107 11 145 86 23 127 24 186 142 268 76 62 260 
108 11 147 28 257 194 184 226 110 168 273 92 121 
109 11 219 174 150 92 223 110 99 79 82 121 180 
110 11 184 219 109 92 194 150 257 121 84 180 28 
111 11 274 9 44 20 46 2 199 70 91 167 170 
112 11 173 265 124 65 192 195 161 201 210 100 212 
113 11 215 171 57 33 32 164 88 139 125 50 68 
114 11 96 38 72 216 258 69 15 183 187 196 77 
115 11 59 104 37 97 58 143 182 266 254 246 3 
116 11 172 256 56 248 66 211 189 234 269 198 146 
117 11 204 188 238 25 27 225 250 157 179 254 162 
118 11 83 63 190 196 161 212 38 72 96 114 124 
119 11 159 230 252 151 229 123 89 206 224 232 170 
120 11 105 90 74 146 202 137 43 226 160 185 198 
121 11 180 92 222 194 236 257 109 110 79 28 184 
122 11 19 255 4 11 7 197 29 178 163 49 60 
123 11 151 249 170 209 70 91 274 111 224 95 229 
124 11 265 161 212 173 63 112 83 16 192 242 126 
125 11 139 235 153 193 164 113 215 87 158 171 33 
126 11 242 12 16 30 214 167 176 251 261 218 2 
127 11 145 268 107 260 142 244 86 143 26 3 182 
128 11 65 112 201 173 195 192 100 102 265 210 165 
129 11 85 220 52 169 45 21 136 213 41 227 137 
130 11 39 40 48 163 197 84 191 207 213 45 4 
131 11 47 6 102 36 152 103 64 5 267 141 133 
132 11 144 73 138 13 60 259 49 29 205 7 178 
133 11 165 267 218 100 210 103 200 251 195 261 12 
134 11 177 221 160 34 208 148 156 266 202 17 90 
135 11 149 233 228 247 140 187 77 62 81 217 15 
136 11 213 207 262 45 185 220 85 129 41 130 137 
137 11 185 21 105 22 85 136 80 262 129 207 169 
138 11 49 144 60 29 178 7 13 205 122 11 51 
139 11 125 235 153 193 164 113 215 158 87 171 206 
140 11 62 77 81 187 15 186 247 228 69 258 107 
141 11 8 5 64 36 245 95 152 209 70 249 200 
142 11 268 260 26 244 3 246 24 86 182 143 23 
143 11 182 244 3 26 260 246 59 37 115 268 104 
144 11 138 49 205 132 60 178 29 13 51 106 7 
145 11 107 86 127 268 142 23 24 260 186 244 26 
146 11 202 90 120 160 177 43 198 74 66 269 134 
147 11 108 226 28 43 74 168 257 184 194 269 198 
148 11 17 266 272 54 157 175 58 97 253 254 104 
149 11 135 233 228 140 247 234 248 62 77 187 81 
150 11 219 99 84 263 55 109 191 48 223 40 174 
151 11 123 170 224 91 249 232 274 209 111 42 70 
152 11 36 5 103 200 141 6 267 8 95 64 133 
153 11 139 125 235 158 206 89 78 193 230 215 113 
154 11 155 237 264 71 270 67 82 259 263 271 223 
155 11 237 154 71 264 259 270 67 271 73 82 263 
156 11 189 208 34 221 211 37 35 134 115 59 104 
157 11 54 254 27 175 25 238 17 250 58 97 266 
158 11 78 153 193 235 139 125 241 89 75 14 206 
159 11 230 206 232 119 224 68 42 89 170 88 151 
160 11 177 90 202 134 146 120 221 272 148 181 17 
161 11 212 63 83 124 265 118 16 173 30 190 126 
162 11 87 188 204 117 98 225 190 164 238 25 196 
163 11 197 4 39 40 11 19 255 122 130 227 41 
164 11 113 125 87 139 190 33 215 57 235 171 162 
165 11 133 100 218 210 267 195 192 103 251 261 12 
166 11 42 88 224 68 91 232 50 170 240 32 176 
167 11 214 2 199 20 251 261 9 12 44 46 176 
168 11 273 10 28 108 147 257 194 269 222 66 198 
169 11 21 129 80 85 52 22 243 93 220 31 137 
170 11 91 224 151 42 232 123 166 274 111 68 44 
171 11 215 32 57 113 33 88 50 240 68 166 42 
172 11 116 256 66 269 198 56 146 10 202 43 189 
173 11 112 265 124 192 65 161 195 212 63 210 100 
174 11 223 82 270 79 109 99 263 67 264 150 219 
175 11 253 25 157 27 54 61 17 254 148 225 238 
176 11 240 50 214 30 167 126 16 2 20 44 32 
177 11 134 160 221 202 90 146 148 34 208 272 156 
178 11 49 51 11 122 255 227 7 138 4 19 205 
179 11 250 246 238 3 26 182 244 254 27 260 143 
180 11 121 92 236 222 194 257 109 79 110 174 28 
181 11 272 93 75 148 61 22 80 253 160 17 175 
182 11 3 246 244 26 143 260 179 268 59 142 115 
183 11 69 258 15 186 81 76 62 216 72 77 23 
184 11 110 219 194 109 150 84 92 108 257 28 48 
185 11 262 136 105 137 207 213 85 45 220 21 129 
186 11 62 183 81 69 76 258 15 23 107 86 77 
187 11 77 247 216 81 15 228 62 69 140 258 114 
188 11 204 117 225 25 162 27 238 87 175 253 157 
189 11 156 211 35 208 34 221 256 37 56 115 134 
190 11 118 83 164 196 162 63 212 87 33 161 113 
191 11 48 40 84 197 55 39 163 19 4 99 150 
192 11 195 210 100 65 165 133 218 265 201 242 12 
193 11 235 125 139 158 87 225 75 153 61 164 188 
194 11 257 28 92 121 222 110 180 184 108 109 236 
195 11 192 100 65 210 165 201 133 218 267 265 242 
196 11 72 118 183 38 258 69 96 114 190 76 98 
197 11 163 4 19 255 40 11 122 191 39 48 7 
198 11 269 66 43 74 226 147 146 202 90 120 108 
199 11 20 2 167 9 46 44 261 214 251 111 274 
200 11 103 46 267 152 261 251 36 133 5 218 199 
201 11 65 100 195 192 165 133 210 267 6 102 218 
202 11 146 90 160 177 120 134 43 198 74 66 269 
203 11 18 106 52 205 31 51 94 53 144 178 129 
204 11 117 188 25 238 27 225 250 157 179 162 254 
205 11 106 51 178 144 49 138 203 227 11 122 7 
206 11 230 159 68 232 88 224 42 89 153 215 166 
207 11 262 136 213 45 185 130 220 39 85 41 163 
208 11 34 156 221 37 189 115 266 58 104 59 97 
209 11 249 245 95 8 70 123 151 141 229 5 111 
210 11 165 218 192 100 195 133 12 242 267 251 126 
211 11 35 189 56 256 156 234 248 208 34 127 143 
212 11 161 83 63 124 16 265 30 118 126 242 33 
213 11 45 136 207 220 262 41 130 85 39 163 185 
214 11 167 2 20 199 176 12 44 9 251 261 126 
215 11 171 113 32 57 33 88 68 50 166 240 42 
216 11 15 114 187 258 69 72 77 96 81 38 183 
217 11 247 187 228 96 114 216 38 233 77 72 15 
218 11 133 165 210 251 261 267 12 100 242 167 200 
219 11 150 99 109 84 110 184 48 263 191 223 174 
220 11 45 213 85 41 129 136 227 207 163 51 52 
221 11 134 34 208 156 177 189 266 148 37 160 17 
222 11 121 180 257 92 194 236 28 110 109 79 108 
223 11 174 82 270 99 263 109 79 264 150 67 219 
224 11 232 42 170 166 68 91 88 151 159 206 123 
225 11 188 25 204 117 61 87 253 175 75 27 162 
226 11 74 147 43 108 105 198 120 262 269 184 185 
227 11 41 11 51 4 178 163 255 19 122 197 45 
228 11 247 187 233 77 140 81 62 15 216 69 258 
229 10 209 249 123 245 151 119 8 70 95 170 
230 11 159 206 89 232 68 119 224 88 42 153 166 
231 11 271 55 7 29 13 60 264 122 19 263 191 
232 11 224 42 68 88 166 170 91 206 159 151 230 
233 11 228 247 140 187 77 135 81 217 149 62 216 
234 11 248 56 35 211 256 127 189 145 156 107 143 
235 11 193 125 139 153 158 87 164 225 113 75 78 
236 11 180 121 222 92 79 109 194 257 174 223 110 
237 11 155 154 71 259 264 270 67 73 271 82 263 
238 11 250 27 179 254 157 117 54 204 246 25 97 
239 11 14 94 31 53 241 18 203 78 52 106 243 
240 11 50 176 32 30 166 214 57 88 171 42 91 
241 11 78 89 14 158 252 153 239 230 206 159 119 
242 11 126 12 16 30 214 167 251 218 261 210 176 
243 11 93 80 169 22 21 31 129 52 85 137 181 
244 11 260 26 3 182 143 246 268 142 179 59 115 
245 11 8 209 249 141 95 5 64 70 229 123 36 
246 11 3 182 26 244 179 260 143 250 268 142 59 
247 11 228 187 77 140 81 216 233 15 62 69 258 
248 11 234 56 256 211 35 189 127 156 145 208 34 
249 11 209 70 123 95 245 8 151 111 229 274 5 
250 11 238 179 254 27 246 3 157 182 54 97 59 
251 11 261 167 12 199 20 2 46 218 214 9 242 
252 10 119 89 230 159 241 101 206 229 78 151 
253 11 175 25 61 157 27 54 75 17 225 254 148 
254 11 54 157 27 238 250 97 58 104 59 115 179 
255 11 4 19 122 11 197 7 163 178 227 29 49 
256 11 56 211 248 35 189 234 156 208 34 221 127 
257 11 194 28 121 222 92 180 108 110 184 236 109 
258 11 69 183 15 216 81 72 186 62 77 114 38 
259 11 73 13 71 237 155 154 60 231 271 29 264 
260 11 244 26 268 3 142 182 143 246 179 127 86 
261 11 251 199 167 46 12 20 2 218 214 9 44 
262 11 207 136 185 213 45 130 220 105 39 85 137 
263 11 264 99 55 271 150 82 223 270 231 191 174 
264 11 263 271 55 154 231 99 155 270 82 237 223 
265 11 124 173 192 112 161 212 195 210 65 242 16 
266 11 17 58 97 148 54 104 115 59 37 157 254 
267 11 133 103 165 218 200 100 210 251 261 152 46 
268 11 142 260 26 244 3 182 246 143 86 24 127 
269 11 66 198 43 74 147 226 168 146 108 273 202 
270 11 82 223 174 67 154 264 263 155 237 99 79 
271 11 231 55 264 263 7 29 13 191 60 19 99 
272 11 148 181 17 253 175 266 61 75 54 157 160 
273 11 168 10 28 108 147 257 194 222 269 66 121 
274 11 111 44 9 91 2 20 199 46 70 170 167 
DEPOT_SECTION
   1
   -1
EOF
