NAME :  X-n237-kX-w23-c11.cctp
COMMENT : 	Adapted by Maziero, Usberti and Cavellucci from the Uchoa, Pecin, Pessoa, Poggi, Subramanian, and Vidal (2013)
TYPE :  CCTP
DIMENSION :    177
EDGE_WEIGHT_TYPE : 	EUC_2D	
CAPACITY : 	18
VERTICES_WITHIN_COVERAGE :  11
VERTICES_WITH_DEMAND : 	23
NODE_COORD_SECTION
1 0 0
2 80 386
3 521 652
4 597 936
5 836 69
6 503 987
7 618 169
8 115 662
9 312 175
10 78 83
11 364 317
12 12 454
13 980 537
14 403 383
15 144 443
16 739 464
17 886 511
18 904 106
19 794 539
20 821 608
21 781 347
22 336 490
23 101 736
24 365 68
25 282 286
26 54 50
27 651 264
28 619 661
29 950 369
30 183 707
31 5 651
32 867 449
33 75 82
34 522 8
35 833 699
36 881 677
37 201 77
38 536 593
39 99 113
40 120 133
41 428 231
42 190 508
43 431 218
44 569 117
45 865 639
46 708 9
47 511 977
48 104 838
49 229 467
50 956 568
51 431 929
52 913 42
53 854 504
54 236 176
55 377 404
56 380 468
57 620 146
58 675 114
59 556 640
60 99 777
61 12 194
62 920 116
63 846 384
64 525 23
65 199 348
66 757 593
67 573 358
68 264 448
69 246 267
70 555 181
71 738 446
72 130 836
73 102 787
74 669 905
75 490 45
76 883 547
77 971 638
78 256 227
79 489 411
80 826 228
81 514 866
82 129 566
83 7 118
84 161 160
85 27 21
86 695 395
87 20 546
88 379 259
89 686 273
90 157 499
91 784 186
92 649 934
93 999 236
94 978 479
95 440 534
96 26 411
97 114 126
98 661 528
99 695 420
100 172 317
101 116 701
102 940 438
103 824 136
104 837 507
105 125 570
106 773 241
107 542 708
108 441 235
109 808 413
110 68 374
111 593 651
112 71 712
113 26 569
114 918 629
115 165 731
116 941 282
117 285 379
118 788 366
119 33 507
120 597 983
121 299 617
122 799 35
123 414 697
124 529 178
125 118 484
126 349 554
127 477 280
128 591 189
129 807 670
130 163 621
131 245 24
132 960 27
133 139 44
134 45 584
135 281 434
136 684 501
137 284 414
138 57 354
139 306 107
140 952 66
141 862 741
142 240 516
143 806 277
144 782 700
145 82 208
146 951 550
147 710 44
148 537 764
149 407 191
150 629 133
151 608 911
152 760 125
153 727 517
154 73 420
155 637 903
156 676 550
157 933 456
158 812 155
159 846 181
160 116 175
161 344 992
162 28 667
163 439 245
164 891 450
165 156 734
166 390 441
167 663 560
168 210 731
169 42 176
170 505 517
171 923 66
172 490 844
173 210 644
174 313 79
175 79 559
176 631 889
177 471 120
DEMAND_SECTION
2 1
3 1
4 1
5 1
6 1
7 1
8 1
9 1
10 1
11 1
12 1
13 1
14 1
15 1
16 1
17 1
18 1
19 1
20 1
21 1
22 1
23 1
24 1
COVERAGE_SECTION
2 10 110 154 138 96 15 12 125 100 65 119 
3 7 59 107 38 111 28 148 123 
4 9 151 120 92 155 176 74 47 6 81 
5 11 122 103 18 52 171 158 152 62 159 140 91 
6 11 47 51 120 4 81 151 172 92 155 161 176 
7 9 57 128 150 70 44 58 124 27 89 
8 11 101 130 112 23 30 165 115 162 105 82 173 
9 11 139 54 78 149 174 88 69 25 24 43 41 
10 11 33 39 26 97 40 133 83 85 160 169 84 
11 11 88 14 25 55 117 163 41 108 127 43 137 
12 11 96 119 154 87 2 110 125 138 113 175 15 
13 11 146 50 94 157 17 76 77 102 114 164 53 
14 11 55 166 11 56 79 117 137 22 88 127 135 
15 9 125 90 154 42 2 49 110 65 68 
16 11 71 153 99 136 86 109 19 98 104 156 118 
17 11 53 76 104 164 32 157 146 50 102 19 94 
18 11 62 171 140 52 5 103 159 132 158 122 91 
19 11 104 66 53 153 20 76 16 17 71 32 136 
20 11 45 129 66 19 76 36 35 114 144 104 53 
21 11 118 109 143 63 86 106 71 99 89 16 80 
22 10 56 126 166 135 68 137 55 142 49 95 
23 11 101 112 60 73 165 115 8 30 162 48 72 
24 11 174 139 177 9 75 131 149 37 43 64 34 
25 9 69 78 11 117 88 65 100 9 54 
26 11 33 85 10 39 83 133 97 40 169 160 37 
27 8 89 128 7 57 67 106 70 150 
28 5 111 59 107 3 38 
29 10 102 116 157 164 63 94 32 93 109 17 
30 9 115 168 165 101 173 8 23 130 60 
31 11 162 134 113 112 87 8 175 101 23 105 119 
32 11 164 53 17 104 157 63 109 102 76 29 94 
33 11 10 26 39 97 40 133 83 85 169 160 84 
34 11 64 75 44 177 150 24 57 124 70 46 58 
35 10 129 141 144 36 45 20 114 66 77 76 
36 11 45 35 114 141 129 20 77 144 76 50 146 
37 11 131 133 84 40 97 54 39 139 174 10 33 
38 8 59 3 111 170 28 95 107 167 
39 11 97 40 10 33 160 26 84 133 169 83 145 
40 11 97 39 160 84 10 33 145 169 133 37 26 
41 11 43 108 163 149 88 127 11 124 177 9 70 
42 8 90 142 49 125 15 82 105 68 
43 11 41 108 163 149 88 127 124 177 11 9 70 
44 11 57 150 70 7 124 128 177 64 58 75 34 
45 11 36 20 114 129 35 76 141 144 77 50 66 
46 9 147 122 58 152 5 150 57 103 44 
47 11 6 120 51 4 81 151 172 92 155 176 161 
48 4 72 73 60 23 
49 9 68 142 42 135 137 90 15 117 22 
50 11 146 13 77 114 76 17 94 157 45 53 102 
51 6 6 47 172 81 161 4 
52 11 171 140 132 18 62 5 122 103 158 159 152 
53 11 104 17 76 32 164 19 157 109 146 102 20 
54 10 78 9 84 69 139 37 25 160 40 174 
55 11 14 166 56 11 137 22 117 135 79 68 95 
56 11 166 22 55 14 95 126 135 137 68 79 117 
57 9 150 7 128 44 58 70 124 27 147 
58 8 150 57 147 7 152 44 46 128 
59 5 3 111 38 28 107 
60 9 73 23 48 72 112 165 101 115 30 
61 10 169 145 83 160 39 97 40 10 33 26 
62 11 18 171 140 52 5 103 132 159 158 93 80 
63 10 109 118 32 21 164 29 102 157 143 53 
64 11 34 75 44 177 150 57 124 70 24 7 58 
65 9 100 117 69 25 137 15 68 135 49 
66 10 19 20 153 129 156 167 144 98 45 104 
67 10 79 27 127 86 99 89 128 14 170 163 
68 10 135 137 49 117 142 22 42 56 65 90 
69 9 25 78 100 54 65 9 117 11 88 
70 11 124 128 7 44 57 150 177 108 127 27 43 
71 11 16 99 86 153 109 136 118 21 19 98 104 
72 5 48 73 60 23 165 
73 8 60 23 48 72 165 112 115 101 
74 6 155 92 176 151 4 120 
75 11 64 34 177 44 24 124 70 57 150 149 128 
76 11 17 53 104 146 50 20 19 114 45 164 13 
77 11 114 50 146 36 13 45 76 141 35 17 20 
78 9 69 54 25 9 84 100 88 139 65 
79 10 14 67 166 170 55 56 95 127 11 22 
80 8 159 143 106 91 158 103 152 21 
81 8 172 51 151 148 4 47 176 6 
82 8 105 175 130 90 125 42 134 8 
83 11 169 61 33 10 26 39 85 97 40 145 160 
84 11 160 40 97 54 39 37 145 10 33 78 133 
85 11 26 33 10 83 133 39 97 40 169 61 160 
86 11 99 71 16 118 21 136 109 89 153 67 98 
87 10 113 119 134 175 12 31 105 82 125 162 
88 11 41 11 163 43 108 149 127 25 9 14 78 
89 8 27 106 21 143 86 7 128 91 
90 8 42 125 15 82 105 49 142 175 
91 8 158 106 80 159 103 152 143 5 
92 6 155 74 151 176 4 120 
93 10 116 29 62 18 159 80 140 171 143 103 
94 11 157 102 13 146 50 164 17 29 32 76 53 
95 10 170 56 126 166 22 38 79 3 55 14 
96 11 12 154 110 2 138 119 125 15 87 175 90 
97 11 40 39 160 10 84 33 133 145 169 26 37 
98 8 156 167 136 153 16 71 99 66 
99 11 86 71 16 136 153 118 21 98 109 156 67 
100 8 65 69 25 2 110 138 78 15 
101 11 23 8 112 165 115 30 60 73 130 162 168 
102 10 157 164 94 29 32 17 13 53 63 146 
103 9 158 159 91 152 5 18 80 62 122 
104 11 53 17 19 76 32 164 109 20 16 157 153 
105 9 82 175 130 90 134 125 42 8 113 
106 8 143 80 91 89 158 159 21 103 
107 5 148 3 59 111 28 
108 11 163 41 43 149 127 88 124 11 177 70 9 
109 11 63 118 32 21 71 16 164 104 53 99 86 
110 9 2 138 154 96 12 15 100 125 65 
111 5 28 59 3 107 38 
112 11 23 101 162 8 60 73 165 31 115 30 130 
113 10 87 134 175 119 31 162 105 82 12 125 
114 11 45 77 36 50 146 76 20 35 13 129 17 
115 9 165 30 168 101 23 60 73 8 112 
116 10 93 29 80 143 63 159 102 62 21 106 
117 11 137 135 68 65 25 55 11 49 14 69 22 
118 11 21 109 63 143 71 86 99 16 32 106 164 
119 10 87 12 113 175 134 125 96 154 105 82 
120 9 4 92 151 47 155 6 176 74 81 
121 4 126 173 142 22 
122 11 5 147 46 152 103 52 158 18 171 62 58 
123 4 3 107 121 148 
124 11 70 128 44 177 7 57 108 43 150 163 41 
125 9 90 15 42 154 82 175 105 119 2 
126 7 22 121 56 95 142 166 68 
127 11 163 108 41 43 88 149 124 11 67 70 14 
128 10 7 70 57 124 150 44 27 58 89 177 
129 10 35 144 20 45 36 141 66 114 19 76 
130 6 173 8 105 82 30 101 
131 11 37 174 139 133 24 54 84 9 40 97 39 
132 11 140 52 171 18 62 5 122 103 159 158 93 
133 11 37 10 33 39 26 97 40 131 85 84 160 
134 10 113 175 87 31 119 105 162 82 8 125 
135 10 137 68 117 49 22 142 55 56 166 42 
136 9 98 153 156 167 16 71 99 86 19 
137 11 135 117 68 49 22 55 65 166 56 142 14 
138 8 110 2 96 154 12 100 15 65 
139 11 174 9 24 54 131 37 78 149 84 177 43 
140 11 171 132 52 62 18 5 103 122 159 158 93 
141 8 35 36 129 144 45 114 20 77 
142 6 49 42 68 90 135 22 
143 9 106 80 21 118 91 159 63 89 158 
144 8 129 35 141 20 36 45 66 114 
145 9 160 169 61 40 97 84 39 83 10 
146 11 50 13 76 17 94 114 77 157 53 102 164 
147 9 46 58 122 152 150 5 57 103 158 
148 4 107 172 81 3 
149 11 43 41 108 163 88 9 177 127 124 24 139 
150 9 57 7 58 44 128 70 124 147 152 
151 7 4 155 176 92 74 120 81 
152 8 158 103 91 58 5 147 122 159 
153 10 136 16 156 98 19 71 167 66 99 104 
154 11 2 110 96 138 12 15 125 119 90 87 175 
155 6 176 151 74 92 4 120 
156 8 167 98 136 153 66 16 19 71 
157 11 102 164 94 32 17 29 53 13 146 76 104 
158 8 103 91 159 152 80 5 106 18 
159 10 158 103 80 91 106 18 62 152 143 5 
160 10 40 84 145 97 39 169 10 33 61 54 
161 4 51 6 47 172 
162 11 31 112 134 8 101 113 23 175 87 60 105 
163 11 108 41 43 127 88 149 11 124 177 70 14 
164 11 32 157 102 17 53 104 63 109 94 76 29 
165 9 115 30 101 168 23 60 73 8 112 
166 11 56 55 14 22 79 95 135 137 126 117 68 
167 8 156 98 136 153 66 28 111 16 
168 6 30 115 165 173 101 23 
169 10 61 145 83 160 39 97 40 10 33 84 
170 10 95 38 79 59 56 3 166 98 111 126 
171 11 52 140 18 62 132 5 103 122 159 158 152 
172 6 81 148 51 47 151 4 
173 6 130 30 168 121 8 115 
174 11 139 24 131 9 37 54 149 78 177 84 133 
175 10 134 105 82 113 87 119 125 90 130 8 
176 6 155 151 74 92 4 120 
177 11 75 124 149 44 70 43 64 24 41 108 34 
DEPOT_SECTION
   1
   -1
EOF
