NAME :  X-n214-kX-w21-c9.cctp
COMMENT : 	Adapted by Maziero, Usberti and Cavellucci from the Uchoa, Pecin, Pessoa, Poggi, Subramanian, and Vidal (2013)
TYPE :  CCTP
DIMENSION :    153
EDGE_WEIGHT_TYPE : 	EUC_2D	
CAPACITY : 	944
VERTICES_WITHIN_COVERAGE :  9
VERTICES_WITH_DEMAND : 	21
NODE_COORD_SECTION
1 500 500
2 753 355
3 663 83
4 725 286
5 581 444
6 700 205
7 630 475
8 560 407
9 848 374
10 752 315
11 454 310
12 685 227
13 747 468
14 540 348
15 882 346
16 762 228
17 884 307
18 681 274
19 761 254
20 791 205
21 699 559
22 694 352
23 679 11
24 656 446
25 838 395
26 769 381
27 710 296
28 653 489
29 711 447
30 516 322
31 704 265
32 742 358
33 578 423
34 923 378
35 449 254
36 626 264
37 701 203
38 751 293
39 640 218
40 671 134
41 465 361
42 894 399
43 824 388
44 561 443
45 663 9
46 768 339
47 590 60
48 735 280
49 842 365
50 671 124
51 680 251
52 558 451
53 884 356
54 746 384
55 687 227
56 855 350
57 656 450
58 560 459
59 591 433
60 753 384
61 739 215
62 742 304
63 509 418
64 667 17
65 534 297
66 605 382
67 817 366
68 728 264
69 856 360
70 666 107
71 538 317
72 875 290
73 725 237
74 563 394
75 775 378
76 587 443
77 696 387
78 704 153
79 557 440
80 762 279
81 824 522
82 764 259
83 759 334
84 750 391
85 893 283
86 900 308
87 595 73
88 641 474
89 852 182
90 526 330
91 735 460
92 901 303
93 545 395
94 741 339
95 795 456
96 783 343
97 694 224
98 698 323
99 683 222
100 704 269
101 769 321
102 596 321
103 605 103
104 567 464
105 743 205
106 622 449
107 745 269
108 603 447
109 634 194
110 832 312
111 662 86
112 608 618
113 489 267
114 837 289
115 569 497
116 749 387
117 683 355
118 682 81
119 701 170
120 683 308
121 659 582
122 668 329
123 662 288
124 897 399
125 770 366
126 582 485
127 848 381
128 828 150
129 536 445
130 770 259
131 702 94
132 823 162
133 552 317
134 626 88
135 999 631
136 860 274
137 654 285
138 650 335
139 637 568
140 449 359
141 552 440
142 810 205
143 628 24
144 728 294
145 733 311
146 750 327
147 727 278
148 725 355
149 723 556
150 449 346
151 731 373
152 678 44
153 604 593
DEMAND_SECTION
2 83
3 84
4 34
5 17
6 88
7 59
8 56
9 33
10 21
11 37
12 15
13 97
14 23
15 76
16 94
17 99
18 30
19 44
20 45
21 8
22 37
COVERAGE_SECTION
2 9 32 94 125 46 83 146 148 151 60 
3 9 111 118 70 134 131 50 152 40 103 
4 9 147 144 48 27 68 62 107 145 38 
5 9 76 59 44 33 108 52 79 104 58 
6 9 37 97 99 55 12 119 61 73 105 
7 7 88 28 106 57 24 108 126 
8 9 74 93 33 79 141 44 59 5 52 
9 9 127 49 69 25 56 43 67 53 15 
10 9 146 62 101 145 83 38 94 46 144 
11 9 150 140 41 113 35 30 90 65 71 
12 9 55 99 97 51 6 37 73 31 39 
13 5 91 29 95 84 116 
14 9 90 71 133 30 93 65 74 8 102 
15 9 53 56 69 17 86 9 49 92 127 
16 9 19 61 105 82 130 20 73 107 68 
17 9 86 92 72 85 15 136 53 114 56 
18 9 51 100 123 31 137 120 27 4 147 
19 9 82 130 107 80 16 68 48 38 73 
20 9 142 16 105 61 132 19 130 82 89 
21 7 149 121 139 28 153 13 88 
22 9 117 98 148 77 122 151 120 138 32 
23 6 64 45 152 143 118 3 
24 5 57 88 106 7 28 
25 9 43 127 9 49 67 69 56 42 124 
26 9 75 125 60 84 116 54 2 32 151 
27 9 4 144 147 145 100 48 98 120 31 
28 6 88 7 57 24 106 108 
29 4 91 13 24 57 
30 8 90 71 65 14 133 113 11 41 
31 9 100 68 18 147 51 4 27 48 73 
32 9 2 148 94 151 54 60 83 125 116 
33 9 59 5 76 8 44 79 141 74 52 
34 9 124 42 53 15 69 56 86 9 127 
35 5 113 11 150 30 65 
36 5 137 123 39 18 51 
37 9 6 97 99 55 12 119 61 73 105 
38 9 62 80 48 10 144 107 145 4 147 
39 7 109 99 12 36 55 51 97 
40 8 50 70 78 119 111 131 3 118 
41 8 140 150 11 30 90 63 14 71 
42 9 124 34 53 127 9 15 69 25 49 
43 9 25 67 127 9 49 69 56 75 26 
44 9 79 52 141 58 5 104 129 33 76 
45 7 64 23 143 152 3 118 111 
46 9 83 96 101 2 146 94 125 10 32 
47 6 87 103 134 143 3 111 
48 9 147 4 107 144 68 38 62 80 27 
49 9 9 69 127 56 67 43 25 53 15 
50 8 40 70 111 3 131 78 118 119 
51 9 18 12 55 31 99 97 100 123 137 
52 9 58 44 79 141 104 129 5 76 33 
53 9 15 69 56 9 49 42 127 34 124 
54 9 116 60 84 151 26 32 2 75 125 
55 9 12 99 97 51 6 37 73 31 100 
56 9 69 49 9 15 53 127 67 110 25 
57 5 24 88 106 7 28 
58 9 52 104 44 79 141 5 129 76 126 
59 9 76 5 33 108 44 79 106 52 104 
60 9 116 54 84 26 75 125 151 32 2 
61 9 105 16 73 6 37 19 97 68 82 
62 9 145 38 10 144 146 4 48 147 80 
63 6 129 93 141 8 79 44 
64 7 45 23 152 143 3 118 111 
65 6 71 133 30 90 14 113 
66 3 74 33 8 
67 9 43 49 9 127 25 69 56 96 75 
68 9 147 48 107 4 31 100 73 144 19 
69 9 56 49 9 127 53 15 25 67 43 
70 8 50 111 3 40 118 131 134 78 
71 6 133 90 65 30 14 102 
72 8 17 85 136 92 86 114 110 15 
73 9 61 68 97 31 105 16 100 107 55 
74 9 8 93 33 66 79 141 59 44 14 
75 9 26 125 60 84 116 54 2 96 32 
76 9 5 59 108 33 44 104 52 79 58 
77 5 22 117 151 148 54 
78 8 119 40 50 37 6 131 70 105 
79 9 44 141 52 58 129 5 104 33 76 
80 8 38 82 107 130 19 48 62 147 
81 9 95 13 149 91 25 21 43 29 42 
82 9 19 130 80 107 16 38 48 68 147 
83 9 46 146 101 94 10 2 96 32 62 
84 9 116 54 60 26 151 75 125 32 2 
85 8 72 92 17 86 136 114 15 110 
86 9 92 17 85 72 15 53 136 56 114 
87 6 47 103 134 143 111 3 
88 6 7 28 57 106 24 108 
89 6 132 128 142 20 136 16 
90 7 30 71 14 133 65 41 93 
91 4 13 29 95 84 
92 9 86 17 85 72 15 136 53 56 114 
93 9 74 8 33 63 141 14 79 44 129 
94 9 146 32 83 2 148 10 46 145 101 
95 9 13 91 81 43 25 26 84 75 60 
96 8 46 83 101 125 2 75 146 26 
97 9 55 12 99 6 37 51 73 31 61 
98 9 120 22 27 122 117 145 144 148 4 
99 9 12 55 97 6 37 51 39 73 31 
100 9 31 18 68 147 4 27 51 48 144 
101 9 83 10 46 146 96 62 38 94 145 
102 4 133 138 71 14 
103 8 134 87 47 111 3 70 50 40 
104 9 58 52 44 5 79 126 141 76 115 
105 9 61 16 73 37 6 20 19 97 119 
106 8 108 7 88 24 57 59 76 5 
107 9 48 68 80 147 82 19 38 4 130 
108 8 76 59 106 5 33 7 104 44 
109 5 39 99 12 55 6 
110 5 114 56 136 72 17 
111 9 3 70 118 134 50 131 152 40 103 
112 5 153 139 121 21 115 
113 6 35 65 11 30 71 90 
114 4 110 136 72 17 
115 8 126 104 58 52 5 44 76 79 
116 9 54 84 60 26 151 75 32 125 2 
117 8 22 122 77 98 138 148 120 151 
118 8 3 111 131 70 152 50 40 134 
119 8 78 37 6 40 97 50 99 105 
120 9 98 122 123 27 18 137 138 100 22 
121 6 139 21 153 112 149 28 
122 7 138 120 117 98 22 123 137 
123 9 137 18 120 51 122 36 100 31 27 
124 9 42 34 53 127 9 15 69 25 49 
125 9 75 26 2 60 96 46 32 54 116 
126 9 115 104 58 5 52 76 108 44 7 
127 9 9 25 49 69 43 56 67 53 15 
128 5 132 89 142 20 105 
129 8 141 79 52 44 58 104 63 5 
130 8 82 19 80 107 16 38 48 68 
131 7 118 70 3 111 50 40 152 
132 6 128 89 142 20 16 105 
133 6 71 65 90 14 30 102 
134 9 103 87 111 3 70 47 118 50 40 
135 9 81 124 42 34 95 25 149 127 9 
136 6 72 114 85 17 110 92 
137 8 123 18 36 120 51 122 138 100 
138 4 122 117 120 22 
139 6 121 153 112 21 28 149 
140 8 150 41 11 30 90 63 14 71 
141 9 79 44 52 129 58 104 5 33 8 
142 7 20 132 89 16 128 105 130 
143 8 45 64 47 23 152 87 134 3 
144 9 4 48 147 62 27 145 38 68 107 
145 9 62 144 10 146 38 4 27 94 48 
146 9 83 10 94 101 46 145 62 2 32 
147 9 4 48 68 144 107 27 100 31 38 
148 9 32 151 94 2 22 54 146 60 83 
149 8 21 121 139 13 28 91 81 29 
150 9 140 41 11 30 90 113 14 35 63 
151 9 32 54 148 116 60 84 2 94 77 
152 8 64 23 118 45 3 111 143 131 
153 5 112 139 121 21 115 
DEPOT_SECTION
   1
   -1
EOF
