NAME :  X-n270-kX-w107-c9.cctp
COMMENT : 	Adapted by Maziero, Usberti and Cavellucci from the Uchoa, Pecin, Pessoa, Poggi, Subramanian, and Vidal (2013)
TYPE :  CCTP
DIMENSION :    228
EDGE_WEIGHT_TYPE : 	EUC_2D	
CAPACITY : 	585
VERTICES_WITHIN_COVERAGE :  9
VERTICES_WITH_DEMAND : 	107
NODE_COORD_SECTION
1 500 500
2 643 512
3 707 407
4 394 355
5 140 470
6 364 215
7 493 857
8 117 466
9 462 38
10 551 479
11 742 498
12 533 706
13 788 425
14 799 6
15 836 680
16 88 225
17 164 988
18 537 20
19 612 395
20 314 942
21 342 974
22 518 758
23 860 774
24 313 36
25 275 23
26 324 971
27 822 588
28 272 458
29 620 666
30 868 427
31 694 750
32 953 419
33 236 823
34 887 411
35 124 814
36 193 899
37 687 303
38 447 220
39 716 472
40 415 141
41 738 309
42 445 672
43 524 60
44 112 157
45 859 935
46 104 596
47 556 54
48 362 223
49 723 661
50 474 338
51 274 568
52 315 380
53 704 863
54 936 260
55 93 859
56 703 935
57 381 302
58 695 239
59 880 823
60 335 961
61 37 637
62 288 169
63 455 499
64 599 796
65 155 910
66 80 459
67 93 565
68 959 544
69 926 58
70 762 531
71 22 839
72 459 575
73 737 409
74 854 328
75 921 781
76 221 23
77 685 179
78 202 804
79 422 992
80 945 292
81 66 976
82 487 429
83 614 711
84 407 546
85 883 298
86 709 692
87 535 319
88 965 217
89 336 35
90 703 595
91 677 841
92 51 503
93 334 968
94 628 154
95 488 437
96 680 869
97 987 264
98 474 906
99 866 911
100 940 542
101 106 988
102 558 398
103 661 206
104 500 17
105 710 588
106 23 696
107 181 909
108 107 556
109 516 409
110 345 879
111 684 742
112 86 682
113 447 182
114 825 545
115 880 72
116 840 689
117 129 532
118 89 305
119 434 407
120 348 132
121 390 473
122 598 286
123 464 891
124 671 336
125 762 909
126 136 633
127 40 814
128 445 889
129 980 135
130 318 2
131 688 101
132 387 142
133 480 339
134 884 826
135 207 24
136 557 694
137 740 695
138 897 75
139 731 708
140 699 899
141 768 584
142 671 669
143 818 715
144 933 659
145 500 706
146 891 85
147 73 147
148 862 849
149 539 728
150 139 118
151 931 588
152 850 28
153 891 612
154 709 636
155 628 448
156 277 45
157 588 720
158 803 710
159 712 63
160 804 68
161 536 318
162 189 17
163 548 667
164 838 835
165 890 749
166 998 675
167 862 272
168 551 695
169 692 757
170 735 752
171 468 626
172 535 665
173 734 66
174 936 93
175 941 63
176 717 545
177 929 175
178 719 743
179 224 25
180 709 712
181 467 579
182 550 683
183 264 122
184 749 182
185 234 56
186 868 936
187 790 705
188 576 674
189 494 607
190 412 701
191 614 627
192 883 597
193 233 64
194 598 659
195 813 611
196 868 603
197 555 673
198 93 100
199 743 870
200 600 452
201 619 753
202 850 547
203 600 727
204 63 175
205 789 598
206 753 615
207 803 64
208 835 42
209 591 543
210 576 872
211 530 707
212 187 153
213 627 789
214 787 650
215 194 350
216 857 704
217 487 672
218 511 732
219 872 794
220 143 149
221 910 236
222 963 91
223 747 666
224 712 736
225 302 59
226 766 680
227 680 683
228 648 800
DEMAND_SECTION
2 77
3 91
4 67
5 69
6 68
7 64
8 65
9 83
10 64
11 77
12 87
13 99
14 84
15 74
16 89
17 76
18 68
19 87
20 69
21 97
22 87
23 59
24 82
25 75
26 55
27 95
28 63
29 87
30 72
31 53
32 66
33 95
34 58
35 76
36 66
37 53
38 67
39 56
40 71
41 67
42 52
43 85
44 99
45 62
46 51
47 53
48 63
49 71
50 78
51 71
52 77
53 85
54 82
55 94
56 67
57 54
58 66
59 64
60 94
61 75
62 72
63 66
64 95
65 59
66 68
67 94
68 84
69 94
70 62
71 73
72 66
73 97
74 71
75 62
76 60
77 86
78 99
79 51
80 90
81 72
82 84
83 78
84 81
85 50
86 55
87 56
88 80
89 63
90 52
91 71
92 75
93 71
94 59
95 78
96 89
97 89
98 93
99 74
100 73
101 85
102 68
103 71
104 78
105 90
106 60
107 95
108 75
COVERAGE_SECTION
2 9 209 155 200 176 39 10 11 105 90 
3 9 73 39 124 13 155 19 11 41 37 
4 9 57 119 50 52 133 121 82 95 109 
5 9 8 66 117 108 92 67 46 215 28 
6 9 48 132 38 120 57 62 113 40 183 
7 9 123 98 128 210 22 64 218 149 110 
8 9 5 66 117 92 108 67 46 215 28 
9 9 104 43 18 47 40 89 132 113 120 
10 9 200 209 95 109 82 102 155 2 63 
11 9 39 70 176 13 73 141 114 105 3 
12 9 211 168 149 136 182 145 218 197 172 
13 9 73 30 3 11 39 34 70 74 41 
14 7 208 152 207 160 173 115 159 
15 7 116 216 143 158 187 214 226 
16 8 204 44 147 118 220 150 212 198 
17 9 101 65 107 36 81 55 20 26 93 
18 9 104 47 43 9 94 131 40 159 113 
19 9 102 155 200 124 3 109 10 87 161 
20 9 60 26 93 21 110 79 36 107 128 
21 9 93 60 26 20 79 110 128 98 123 
22 9 218 149 211 12 145 168 136 157 182 
23 8 219 165 59 134 75 164 216 143 
24 9 89 225 130 156 25 185 193 179 76 
25 9 156 24 225 130 179 185 76 193 89 
26 9 93 60 21 20 110 79 128 36 107 
27 9 195 205 114 196 202 141 192 214 153 
28 9 52 51 121 5 215 8 4 84 117 
29 9 194 191 83 188 142 227 157 203 197 
30 9 34 13 32 74 202 114 85 73 100 
31 8 169 111 224 178 170 180 139 86 
32 9 34 30 100 68 80 74 85 97 54 
33 9 78 36 107 35 65 110 20 55 60 
34 9 30 32 74 13 85 80 100 167 202 
35 9 55 78 127 65 71 36 107 33 112 
36 9 107 65 33 17 78 55 35 101 20 
37 9 124 41 58 122 103 3 73 19 77 
38 9 113 6 40 48 132 57 50 133 87 
39 9 11 3 73 176 70 2 13 155 105 
40 9 132 113 120 38 6 48 9 62 89 
41 9 37 124 58 73 3 74 13 184 103 
42 7 217 190 171 145 189 218 172 
43 9 47 18 104 9 40 94 113 132 131 
44 7 220 147 150 204 198 16 212 
45 9 186 99 148 125 164 134 59 199 219 
46 9 67 108 126 117 61 112 92 106 5 
47 9 43 18 104 9 94 131 159 40 113 
48 9 6 57 38 132 62 120 113 40 4 
49 9 223 154 86 137 226 139 227 142 180 
50 9 133 87 161 119 4 109 82 57 95 
51 9 28 84 117 121 126 5 108 46 67 
52 9 4 28 57 121 119 215 48 50 133 
53 8 96 91 140 199 56 125 228 169 
54 7 80 221 97 88 85 167 177 
55 9 35 127 71 65 107 36 81 78 101 
56 9 140 125 96 53 199 91 210 228 45 
57 9 4 48 6 50 52 38 133 119 113 
58 9 103 77 37 184 41 124 94 122 131 
59 8 134 219 148 164 23 75 165 99 
60 9 93 21 26 20 110 79 128 123 98 
61 9 106 112 46 67 126 108 92 117 127 
62 9 183 120 6 48 212 132 225 193 156 
63 9 84 95 121 72 82 181 119 10 109 
64 9 213 201 228 203 157 210 83 22 91 
65 9 107 36 17 55 101 35 81 78 33 
66 9 8 92 5 117 108 67 46 118 215 
67 9 108 46 117 92 126 61 8 5 66 
68 9 100 151 192 153 196 202 144 32 114 
69 6 175 138 174 146 115 222 
70 9 11 176 141 114 205 39 105 27 206 
71 9 127 55 35 106 81 65 112 101 107 
72 6 181 189 171 84 63 42 
73 9 3 13 39 11 124 41 155 37 70 
74 9 85 167 34 80 30 54 221 13 41 
75 9 165 219 134 59 23 148 164 216 143 
76 8 179 135 162 185 193 25 156 225 
77 9 103 58 94 184 131 159 173 37 122 
78 9 33 35 36 107 65 55 110 127 112 
79 9 21 93 60 26 98 128 123 20 110 
80 8 54 97 85 221 88 167 74 177 
81 9 101 17 65 55 107 71 36 127 35 
82 9 95 109 119 63 102 10 133 50 121 
83 9 203 157 201 29 188 194 136 168 182 
84 9 72 63 181 121 171 189 42 51 95 
85 8 167 74 80 54 221 97 34 88 
86 9 180 139 227 137 49 142 224 223 178 
87 9 161 133 50 122 102 109 19 82 95 
88 6 54 97 177 221 80 129 
89 9 24 130 225 156 25 120 185 193 179 
90 9 105 154 176 206 141 49 142 223 205 
91 9 96 53 228 140 199 213 169 64 31 
92 9 66 67 8 108 117 5 46 61 126 
93 9 60 21 26 20 110 79 128 123 98 
94 9 77 103 131 58 47 159 184 122 173 
95 9 82 109 119 63 10 102 133 50 121 
96 9 53 91 140 199 56 228 125 213 210 
97 8 80 54 88 221 177 85 167 129 
98 9 123 128 7 79 210 110 21 60 93 
99 9 45 186 148 164 134 59 125 219 199 
100 9 68 151 192 153 202 196 114 144 32 
101 9 81 17 65 107 36 55 71 35 127 
102 9 109 19 200 82 95 10 87 161 155 
103 9 77 58 94 184 37 122 131 41 124 
104 9 18 9 43 47 40 89 132 113 130 
105 9 90 176 154 206 141 49 70 205 223 
106 9 61 112 127 46 126 71 67 35 108 
107 9 36 65 17 55 33 78 101 35 81 
108 9 67 117 46 92 126 8 5 66 61 
109 9 82 95 102 10 133 50 119 87 161 
110 9 20 60 93 26 21 128 123 33 98 
111 9 31 169 224 178 180 170 86 139 227 
112 9 106 61 126 46 67 108 35 127 117 
113 9 38 40 132 6 48 120 57 43 9 
114 9 202 27 205 70 195 141 196 192 153 
115 3 138 146 69 
116 6 15 216 143 158 187 214 
117 9 108 67 5 8 46 92 66 126 61 
118 9 16 215 204 44 66 147 8 220 5 
119 9 82 95 4 121 50 109 133 63 57 
120 9 132 40 62 6 183 225 48 89 24 
121 9 63 84 119 95 82 4 28 52 72 
122 9 161 87 124 37 103 58 19 102 133 
123 9 98 128 7 79 210 110 22 60 21 
124 9 37 41 3 19 122 73 58 155 102 
125 9 199 56 140 53 96 45 99 164 91 
126 9 46 112 67 108 61 117 106 51 92 
127 9 71 55 35 106 112 65 78 81 107 
128 9 123 98 7 110 79 60 210 21 93 
129 5 222 174 177 175 88 
130 9 24 89 25 156 225 179 76 185 193 
131 9 159 173 77 94 184 103 160 207 58 
132 9 40 120 113 6 48 38 62 89 225 
133 9 50 87 161 109 119 4 82 95 102 
134 8 59 148 219 164 23 75 165 99 
135 7 76 179 162 185 193 25 156 
136 9 168 182 197 12 163 188 211 172 149 
137 7 139 223 226 86 180 49 224 
138 4 146 115 69 174 
139 6 137 180 86 224 178 170 
140 9 53 56 96 199 91 125 228 210 213 
141 9 205 206 195 70 27 105 176 90 114 
142 9 227 86 154 29 49 180 83 191 139 
143 5 158 187 116 15 216 
144 9 153 166 151 192 196 216 116 15 165 
145 9 218 211 12 217 149 168 172 22 182 
146 3 138 115 69 
147 6 204 44 198 220 150 16 
148 9 164 59 134 219 99 23 45 186 75 
149 9 12 211 218 168 22 136 145 182 157 
150 5 220 44 198 212 147 
151 9 100 153 192 68 196 144 202 27 166 
152 7 208 115 14 207 160 138 146 
153 9 192 196 151 144 27 202 195 100 15 
154 9 49 90 105 223 206 142 227 86 137 
155 9 200 19 2 10 102 3 39 209 73 
156 9 25 225 24 185 193 179 130 76 89 
157 9 203 83 136 168 201 188 149 182 12 
158 5 187 143 116 15 226 
159 8 173 131 207 160 14 77 94 184 
160 7 207 208 152 14 173 115 146 
161 9 87 133 50 122 102 109 19 82 95 
162 5 135 76 179 185 193 
163 8 197 172 182 136 168 188 12 211 
164 6 148 59 134 219 23 99 
165 9 23 75 219 216 59 134 116 143 15 
166 9 144 151 153 75 165 68 192 216 100 
167 6 85 74 221 54 80 88 
168 9 136 182 12 197 211 163 188 172 149 
169 8 31 111 224 178 170 180 228 139 
170 5 178 224 31 169 139 
171 7 189 181 217 42 72 172 145 
172 7 163 197 182 168 136 12 188 
173 8 159 131 207 160 14 208 184 152 
174 4 222 175 69 138 
175 5 69 174 222 138 146 
176 9 105 70 90 11 141 39 206 2 205 
177 3 88 221 129 
178 7 224 170 31 169 180 111 139 
179 8 76 135 185 162 193 25 156 225 
180 9 86 139 224 178 137 111 31 227 169 
181 6 72 189 171 84 63 217 
182 9 197 168 136 163 172 188 12 211 149 
183 9 62 193 185 225 156 212 120 24 25 
184 6 77 58 103 131 173 94 
185 9 193 179 76 135 156 25 162 225 183 
186 9 45 99 148 164 125 134 59 199 219 
187 5 158 143 226 137 15 
188 9 197 194 136 182 163 168 172 29 157 
189 6 171 181 72 217 172 42 
190 8 42 217 145 171 218 211 22 12 
191 8 194 29 188 142 197 163 83 182 
192 9 196 153 151 202 27 195 114 100 144 
193 9 185 179 76 135 156 25 162 183 225 
194 9 29 188 191 197 163 83 136 182 168 
195 9 27 205 214 141 196 206 114 192 15 
196 9 192 153 27 195 202 151 114 205 15 
197 8 163 182 136 188 168 172 12 211 
198 3 150 147 44 
199 7 53 125 140 96 91 56 164 
200 9 155 10 19 102 2 209 109 95 82 
201 9 203 213 83 157 64 228 111 169 31 
202 9 114 27 196 192 195 153 205 70 100 
203 9 157 83 201 136 188 168 149 29 182 
204 6 147 44 16 198 220 150 
205 9 141 195 27 206 214 114 70 196 105 
206 9 141 205 154 214 105 223 90 49 195 
207 7 160 208 14 152 173 115 146 
208 7 152 207 160 14 115 138 146 
209 7 2 10 191 200 155 189 194 
210 9 64 7 213 228 96 91 98 123 140 
211 9 12 149 168 136 145 182 218 172 197 
212 7 220 150 44 183 193 62 185 
213 9 228 64 201 203 91 169 111 31 83 
214 9 226 223 195 206 205 187 15 158 49 
215 9 118 52 5 28 8 66 16 57 117 
216 7 116 15 143 158 165 187 23 
217 7 145 42 172 171 211 12 163 
218 9 22 145 149 211 12 168 136 182 217 
219 8 23 59 134 165 75 164 148 216 
220 7 150 44 212 147 198 204 16 
221 6 54 88 167 177 80 85 
222 5 174 175 129 69 138 
223 8 226 49 137 214 139 86 154 206 
224 8 178 31 180 170 111 169 139 86 
225 9 24 156 89 25 130 185 193 183 179 
226 6 223 137 187 214 139 49 
227 9 142 86 180 49 154 139 111 137 29 
228 9 213 64 91 201 169 31 111 96 53 
DEPOT_SECTION
   1
   -1
EOF
