NAME :  X-n200-kX-w19-c9.cctp
COMMENT : 	Adapted by Maziero, Usberti and Cavellucci from the Uchoa, Pecin, Pessoa, Poggi, Subramanian, and Vidal (2013)
TYPE :  CCTP
DIMENSION :    142
EDGE_WEIGHT_TYPE : 	EUC_2D	
CAPACITY : 	402
VERTICES_WITHIN_COVERAGE :  9
VERTICES_WITH_DEMAND : 	19
NODE_COORD_SECTION
1 957 135
2 149 141
3 1 96
4 228 268
5 781 529
6 867 797
7 109 53
8 13 449
9 133 293
10 259 172
11 908 678
12 930 867
13 903 766
14 143 263
15 735 501
16 259 253
17 59 62
18 737 464
19 925 587
20 16 404
21 893 720
22 226 228
23 285 68
24 113 323
25 797 381
26 804 573
27 892 838
28 307 141
29 40 347
30 933 708
31 906 725
32 242 231
33 310 255
34 183 308
35 122 254
36 1 437
37 83 548
38 872 427
39 118 317
40 180 118
41 875 774
42 792 774
43 890 821
44 184 6
45 189 299
46 230 234
47 61 728
48 756 455
49 121 248
50 747 756
51 890 825
52 96 15
53 893 822
54 121 170
55 770 580
56 122 320
57 101 98
58 824 813
59 256 265
60 726 553
61 864 742
62 149 74
63 872 329
64 847 817
65 864 575
66 976 818
67 193 126
68 79 88
69 907 842
70 808 590
71 146 120
72 66 480
73 824 634
74 9 421
75 152 157
76 318 223
77 853 307
78 184 277
79 183 236
80 20 67
81 165 63
82 62 410
83 176 261
84 223 301
85 7 164
86 188 108
87 770 537
88 168 99
89 641 321
90 174 165
91 886 816
92 214 261
93 104 44
94 393 114
95 894 577
96 127 150
97 873 468
98 60 105
99 133 232
100 147 252
101 778 547
102 46 419
103 83 80
104 43 466
105 337 216
106 9 55
107 127 123
108 771 491
109 181 188
110 727 549
111 26 332
112 798 525
113 875 568
114 241 285
115 45 86
116 446 310
117 163 168
118 322 272
119 958 864
120 754 814
121 136 184
122 111 119
123 120 300
124 686 372
125 32 68
126 113 76
127 157 167
128 330 253
129 903 822
130 900 858
131 15 37
132 79 523
133 130 274
134 791 305
135 13 535
136 800 823
137 224 244
138 580 504
139 3 172
140 62 499
141 163 305
142 135 270
DEMAND_SECTION
2 83
3 52
4 73
5 70
6 86
7 51
8 74
9 84
10 52
11 93
12 91
13 89
14 64
15 75
16 64
17 61
18 2
19 86
20 95
COVERAGE_SECTION
2 9 75 71 96 127 107 117 90 40 54 
3 8 80 106 125 115 98 131 17 85 
4 9 92 114 137 59 84 16 46 22 32 
5 9 87 112 101 108 26 55 15 110 60 
6 9 41 91 64 43 51 53 129 58 13 
7 9 93 126 103 52 62 57 68 17 81 
8 8 36 74 104 20 102 72 82 140 
9 9 123 133 142 39 56 14 141 24 35 
10 9 28 32 22 46 76 67 109 137 16 
11 9 30 21 31 61 13 19 73 41 95 
12 8 119 130 69 27 129 51 53 43 
13 9 41 31 61 21 6 91 129 43 53 
14 9 142 100 133 35 49 9 83 99 78 
15 9 18 108 110 87 48 60 5 101 112 
16 9 59 32 4 46 137 114 22 92 33 
17 9 115 125 103 68 80 98 93 106 7 
18 9 48 15 108 5 87 110 112 60 101 
19 8 95 113 65 11 73 70 30 26 
20 7 74 102 36 8 82 29 104 
21 9 31 61 30 11 13 41 6 91 43 
22 9 46 32 137 92 4 16 79 59 114 
23 3 28 86 10 
24 7 39 56 123 9 133 141 142 
25 9 134 48 38 63 77 18 124 108 97 
26 8 70 55 101 112 5 87 65 73 
27 8 51 53 69 43 129 130 91 6 
28 6 10 23 105 76 94 32 
29 2 111 20 
30 9 31 11 21 13 61 41 6 66 91 
31 9 21 30 13 61 11 41 6 91 43 
32 9 46 22 137 16 59 4 92 114 79 
33 9 128 118 76 105 16 59 32 114 4 
34 8 45 141 78 84 83 9 92 4 
35 8 49 142 133 14 99 100 9 123 
36 8 8 74 20 102 104 82 72 140 
37 6 132 140 72 135 104 8 
38 9 97 25 63 48 108 77 112 5 18 
39 7 56 24 123 9 133 141 142 
40 9 86 67 88 71 2 90 75 107 117 
41 9 6 13 61 91 43 53 64 51 129 
42 8 50 58 136 120 64 6 61 41 
43 9 53 51 91 129 27 69 6 130 64 
44 5 81 62 52 7 93 
45 8 34 78 141 84 83 92 4 114 
46 9 22 32 137 92 4 16 59 79 114 
47 7 37 135 132 140 72 104 8 
48 9 18 108 15 5 112 87 25 101 110 
49 7 35 99 100 142 14 133 9 
50 7 42 120 136 58 64 61 6 
51 8 43 53 91 27 129 69 130 6 
52 9 93 7 17 126 103 68 62 57 125 
53 8 43 51 91 129 27 69 6 130 
54 7 96 121 75 127 2 117 107 
55 8 101 26 70 87 5 60 110 112 
56 7 39 24 123 9 141 133 142 
57 7 122 68 103 126 107 98 7 
58 8 64 136 6 42 91 41 43 51 
59 9 16 114 4 32 137 46 92 22 84 
60 7 110 87 55 101 15 5 108 
61 9 41 21 31 13 6 30 64 91 11 
62 9 81 88 126 7 71 86 40 57 93 
63 9 77 134 25 38 97 48 18 108 124 
64 8 58 6 91 43 51 53 136 27 
65 8 113 95 70 26 19 73 112 101 
66 9 119 12 69 129 53 27 43 51 130 
67 9 40 86 88 90 2 71 75 117 127 
68 7 103 57 98 17 115 126 122 
69 8 27 130 129 51 53 43 91 12 
70 8 26 55 73 101 65 87 112 5 
71 9 107 2 88 40 122 96 75 86 62 
72 6 140 104 132 8 102 37 
73 7 70 26 65 55 113 95 11 
74 8 20 36 8 102 82 104 29 72 
75 8 127 2 117 90 96 121 54 71 
76 9 105 128 33 118 16 59 32 10 28 
77 9 63 134 25 38 97 48 124 18 108 
78 9 83 45 34 92 141 79 14 4 100 
79 9 83 100 92 78 137 22 46 14 109 
80 9 125 106 131 115 3 17 98 68 103 
81 6 62 88 86 126 7 40 
82 3 102 20 74 
83 9 78 79 100 14 92 45 142 141 34 
84 7 114 4 45 34 92 78 59 
85 3 139 3 98 
86 7 40 67 88 71 2 81 62 
87 9 101 5 112 55 110 108 60 15 26 
88 9 40 86 71 62 81 67 2 107 75 
89 9 124 134 25 18 48 138 116 15 77 
90 8 117 127 75 109 2 121 67 40 
91 9 43 53 51 129 27 6 69 64 41 
92 9 4 137 46 78 22 114 83 79 32 
93 9 7 52 126 103 17 68 57 62 81 
94 7 28 105 23 76 10 128 33 
95 8 113 65 19 70 26 73 11 112 
96 8 54 2 75 107 127 121 122 71 
97 9 38 112 113 108 65 5 95 25 48 
98 6 115 68 103 57 17 125 
99 7 49 100 35 14 142 133 121 
100 9 14 142 99 35 49 133 83 79 9 
101 9 87 5 112 55 26 110 60 70 108 
102 6 82 20 74 8 104 36 
103 8 68 57 17 126 98 7 115 93 
104 7 72 8 140 102 36 74 82 
105 9 76 128 33 118 28 16 10 59 32 
106 9 80 131 125 3 115 17 98 68 103 
107 8 122 71 96 2 57 75 54 88 
108 9 15 5 48 18 112 87 101 110 60 
109 8 90 117 127 75 121 79 2 22 
110 7 60 87 15 101 55 5 108 
111 2 29 20 
112 9 5 87 101 108 26 55 70 15 110 
113 8 65 95 19 26 70 73 112 101 
114 8 4 84 59 92 16 137 46 32 
115 8 125 98 17 80 68 103 3 106 
116 6 128 118 105 33 76 16 
117 8 127 90 75 109 2 121 96 54 
118 9 33 128 76 105 16 59 114 32 4 
119 9 12 66 69 130 129 27 53 51 43 
120 7 136 42 50 58 64 6 41 
121 8 54 127 75 117 96 90 2 109 
122 7 107 57 71 96 126 2 68 
123 9 9 39 56 24 133 142 141 14 35 
124 9 89 18 48 25 134 15 108 138 77 
125 9 80 115 106 17 131 3 98 68 103 
126 8 7 57 103 93 62 68 122 107 
127 8 117 75 90 2 121 109 96 54 
128 9 33 118 76 105 16 59 32 114 46 
129 8 53 43 51 91 27 69 130 6 
130 8 69 27 12 51 129 53 43 91 
131 9 106 80 125 17 115 3 103 68 98 
132 6 37 140 72 104 135 8 
133 9 142 14 9 35 49 100 123 99 39 
134 9 77 25 63 124 38 89 48 18 97 
135 8 140 132 37 104 72 8 36 74 
136 8 58 64 120 42 6 50 91 41 
137 9 46 22 92 32 4 16 59 79 114 
138 6 60 110 15 18 124 48 
139 2 85 3 
140 7 72 132 104 37 135 8 102 
141 9 34 45 9 78 123 56 133 142 83 
142 9 133 14 35 100 9 49 123 99 83 
DEPOT_SECTION
   1
   -1
EOF
