NAME :  X-n219-kX-w87-c9.cctp
COMMENT : 	Adapted by Maziero, Usberti and Cavellucci from the Uchoa, Pecin, Pessoa, Poggi, Subramanian, and Vidal (2013)
TYPE :  CCTP
DIMENSION :    219
EDGE_WEIGHT_TYPE : 	EUC_2D	
CAPACITY : 	3
VERTICES_WITHIN_COVERAGE :  9
VERTICES_WITH_DEMAND : 	87
NODE_COORD_SECTION
1 0 0
2 18 761
3 835 397
4 299 16
5 31 168
6 142 257
7 242 984
8 612 357
9 663 812
10 105 188
11 487 636
12 993 703
13 672 148
14 506 259
15 953 706
16 888 203
17 107 534
18 772 692
19 475 182
20 828 775
21 719 220
22 655 722
23 844 197
24 918 600
25 460 844
26 739 102
27 301 523
28 341 627
29 989 936
30 935 602
31 44 72
32 861 67
33 163 416
34 981 503
35 722 397
36 317 903
37 547 95
38 944 106
39 935 192
40 128 376
41 908 176
42 720 226
43 738 793
44 791 498
45 712 751
46 530 693
47 141 673
48 380 544
49 634 301
50 427 853
51 606 949
52 47 557
53 48 202
54 791 67
55 546 876
56 526 842
57 535 216
58 828 214
59 829 352
60 623 473
61 374 1000
62 74 187
63 275 415
64 726 789
65 51 597
66 894 395
67 159 743
68 301 893
69 755 946
70 978 261
71 709 153
72 391 153
73 876 370
74 846 725
75 604 107
76 117 709
77 507 89
78 348 744
79 476 204
80 181 957
81 948 710
82 158 788
83 414 685
84 358 66
85 196 732
86 283 343
87 456 931
88 5 468
89 459 43
90 555 414
91 94 964
92 558 360
93 641 424
94 132 16
95 777 947
96 25 205
97 852 45
98 5 686
99 400 682
100 501 234
101 905 968
102 492 971
103 817 114
104 651 941
105 817 643
106 735 937
107 333 829
108 223 584
109 306 412
110 209 663
111 206 549
112 542 691
113 296 10
114 215 747
115 148 641
116 9 553
117 411 59
118 382 800
119 824 612
120 608 727
121 481 574
122 169 950
123 350 608
124 396 536
125 36 459
126 359 339
127 798 917
128 10 569
129 813 10
130 569 627
131 692 467
132 166 178
133 247 413
134 738 487
135 508 327
136 158 986
137 983 244
138 637 109
139 177 207
140 357 374
141 361 972
142 365 701
143 582 957
144 712 996
145 932 452
146 847 981
147 60 66
148 252 267
149 944 435
150 338 688
151 900 168
152 583 871
153 852 59
154 921 72
155 845 534
156 387 253
157 812 354
158 5 404
159 590 575
160 930 128
161 184 742
162 832 466
163 285 346
164 548 976
165 32 531
166 966 58
167 31 40
168 162 539
169 621 425
170 802 495
171 385 493
172 769 329
173 921 15
174 64 106
175 854 678
176 943 122
177 103 285
178 304 739
179 398 212
180 335 459
181 43 108
182 400 255
183 935 851
184 179 147
185 822 749
186 60 32
187 829 992
188 783 760
189 218 360
190 321 463
191 403 172
192 32 134
193 218 490
194 44 456
195 430 570
196 896 875
197 509 572
198 424 936
199 639 505
200 914 852
201 984 435
202 479 341
203 207 937
204 709 700
205 235 795
206 557 130
207 270 964
208 482 320
209 60 761
210 836 272
211 413 327
212 509 379
213 961 329
214 819 754
215 176 910
216 648 809
217 640 892
218 838 79
219 552 232
DEMAND_SECTION
2 1
3 1
4 1
5 1
6 1
7 1
8 1
9 1
10 1
11 1
12 1
13 1
14 1
15 1
16 1
17 1
18 1
19 1
20 1
21 1
22 1
23 1
24 1
25 1
26 1
27 1
28 1
29 1
30 1
31 1
32 1
33 1
34 1
35 1
36 1
37 1
38 1
39 1
40 1
41 1
42 1
43 1
44 1
45 1
46 1
47 1
48 1
49 1
50 1
51 1
52 1
53 1
54 1
55 1
56 1
57 1
58 1
59 1
60 1
61 1
62 1
63 1
64 1
65 1
66 1
67 1
68 1
69 1
70 1
71 1
72 1
73 1
74 1
75 1
76 1
77 1
78 1
79 1
80 1
81 1
82 1
83 1
84 1
85 1
86 1
87 1
88 1
COVERAGE_SECTION
2 9 209 98 76 67 82 47 65 161 115 
3 9 59 73 157 66 162 172 170 44 145 
4 9 113 84 117 89 72 94 184 191 132 
5 9 192 96 53 62 181 174 10 31 147 
6 9 177 139 10 132 62 53 148 184 40 
7 9 207 203 80 122 136 215 68 36 141 
8 9 92 49 169 93 90 212 135 35 60 
9 9 216 64 43 45 217 22 152 120 204 
10 9 62 53 132 139 5 6 96 184 192 
11 9 121 197 46 112 130 195 83 99 159 
12 9 15 81 30 24 175 74 183 200 185 
13 9 71 138 75 26 21 42 206 37 54 
14 9 100 57 219 79 208 135 19 202 182 
15 9 81 12 175 30 74 24 185 214 20 
16 9 41 151 23 39 58 160 210 176 137 
17 9 168 52 165 65 111 116 194 125 128 
18 9 204 105 188 185 214 74 175 45 119 
19 9 79 100 57 191 14 179 72 219 206 
20 9 214 185 188 74 43 18 175 64 200 
21 9 42 71 13 58 49 26 172 23 210 
22 9 120 204 45 216 9 64 43 112 18 
23 9 58 16 151 41 210 103 39 160 218 
24 9 30 119 155 175 105 15 81 34 12 
25 9 50 56 87 118 55 198 152 107 102 
26 9 71 54 103 13 138 218 129 21 153 
27 9 190 180 48 171 193 124 111 123 108 
28 9 123 150 142 99 48 83 124 195 27 
29 9 101 183 196 200 146 187 127 95 20 
30 9 24 15 34 81 119 175 155 12 105 
31 9 147 167 181 174 186 192 5 94 62 
32 9 153 97 218 154 103 54 129 173 38 
33 9 40 189 133 193 63 168 194 17 125 
34 9 201 145 149 30 24 66 155 162 73 
35 9 131 172 93 134 157 169 3 59 8 
36 9 68 107 207 141 7 198 61 203 50 
37 9 206 77 75 138 89 19 57 79 13 
38 9 176 160 154 166 151 41 39 32 173 
39 9 41 151 16 160 176 137 70 38 23 
40 9 33 189 177 194 6 125 133 158 193 
41 9 151 39 16 160 176 23 38 58 137 
42 9 21 71 13 58 49 172 26 210 23 
43 9 64 45 188 9 214 216 20 185 204 
44 9 170 162 134 155 131 3 119 35 66 
45 9 64 43 204 22 188 9 18 216 120 
46 9 112 11 130 120 83 197 22 121 99 
47 9 115 76 110 67 85 161 114 82 65 
48 9 124 171 195 123 27 28 180 190 121 
49 9 8 92 219 42 21 93 169 135 35 
50 9 25 118 87 198 107 56 36 55 68 
51 9 143 104 164 217 152 55 102 144 106 
52 9 165 116 128 65 17 88 125 194 168 
53 9 96 62 5 10 192 181 174 177 6 
54 9 218 103 129 153 26 97 32 71 154 
55 9 152 56 143 25 51 217 164 87 102 
56 9 55 152 25 50 87 217 216 143 102 
57 9 219 100 14 79 19 206 135 208 37 
58 9 23 210 16 151 41 103 21 39 42 
59 9 157 3 73 172 66 210 162 35 213 
60 9 199 169 93 131 90 159 134 8 35 
61 9 141 198 87 207 36 102 68 7 50 
62 9 53 10 5 96 192 174 181 132 6 
63 9 133 109 190 163 86 180 189 140 193 
64 9 43 45 188 9 216 204 22 214 20 
65 9 52 128 116 165 17 98 115 47 168 
66 9 73 3 149 145 59 157 162 213 201 
67 9 161 85 82 76 114 47 205 110 209 
68 9 36 107 207 141 203 7 205 118 215 
69 9 95 106 127 144 187 146 104 217 51 
70 9 137 213 39 16 41 151 160 210 176 
71 9 13 26 21 42 138 75 103 54 58 
72 9 191 179 19 84 117 79 156 182 89 
73 9 66 3 59 157 149 213 145 162 210 
74 9 185 214 175 20 188 18 105 81 15 
75 9 138 206 37 13 77 71 57 26 219 
76 9 47 67 115 161 209 85 82 110 114 
77 9 37 206 89 19 75 117 79 57 72 
78 9 178 142 150 118 99 107 83 28 205 
79 9 19 100 57 14 179 191 219 182 72 
80 9 122 203 136 215 7 91 207 68 36 
81 9 15 12 175 74 30 24 185 20 214 
82 9 67 161 85 114 205 76 209 47 215 
83 9 99 142 150 11 78 28 123 46 195 
84 9 117 4 113 72 89 191 77 179 19 
85 9 161 114 67 82 110 205 47 76 115 
86 9 163 189 63 109 126 133 140 148 190 
87 9 198 102 50 25 164 141 55 61 56 
88 9 125 194 158 165 116 52 128 17 65 
89 9 117 77 37 84 72 206 19 191 75 
90 9 92 212 169 8 93 60 135 202 208 
91 9 136 122 80 215 203 7 207 82 209 
92 9 212 8 90 135 202 208 169 49 93 
93 9 169 60 131 8 199 35 90 92 134 
94 9 186 147 31 167 174 181 184 192 113 
95 9 69 127 106 187 146 144 104 101 196 
96 9 53 5 62 192 10 181 174 177 6 
97 9 153 32 218 129 54 154 173 103 38 
98 9 2 209 65 76 128 116 52 47 115 
99 9 83 142 150 28 78 123 11 178 195 
100 9 14 57 79 219 19 208 135 182 179 
101 9 146 187 29 196 200 127 183 95 69 
102 9 87 164 198 143 55 51 61 25 141 
103 9 218 54 32 153 97 26 23 151 58 
104 9 51 217 143 144 106 152 69 164 55 
105 9 119 175 18 74 185 24 214 155 188 
106 9 69 95 144 127 104 217 187 146 51 
107 9 118 68 36 78 178 50 205 25 142 
108 9 111 168 110 115 193 27 47 17 28 
109 9 63 190 180 133 140 163 86 126 189 
110 9 115 47 85 108 161 114 67 76 111 
111 9 108 168 193 27 17 115 110 33 47 
112 9 46 130 120 11 22 197 159 83 121 
113 9 4 84 117 94 89 72 184 191 132 
114 9 85 161 205 67 82 110 178 47 76 
115 9 47 110 76 108 67 85 168 65 161 
116 9 128 165 52 65 88 125 17 194 98 
117 9 89 84 72 77 191 4 113 19 37 
118 9 107 78 50 25 178 142 83 99 150 
119 9 105 175 155 18 24 30 74 44 170 
120 9 22 112 46 216 9 204 45 130 64 
121 9 197 195 11 124 130 48 159 171 46 
122 9 80 136 203 215 91 7 207 68 36 
123 9 28 48 150 124 99 195 142 27 83 
124 9 48 171 195 123 121 27 180 190 28 
125 9 194 88 158 165 116 52 17 128 40 
126 9 140 211 163 86 109 156 182 63 202 
127 9 95 69 106 146 187 196 144 101 200 
128 9 116 52 165 65 88 17 125 98 194 
129 9 97 54 153 218 32 103 173 26 154 
130 9 159 112 46 197 11 121 120 22 199 
131 9 134 199 93 60 35 169 44 170 8 
132 9 139 184 10 6 62 53 148 177 174 
133 9 63 109 189 163 86 193 33 190 180 
134 9 131 44 170 35 162 199 60 93 155 
135 9 208 202 212 92 14 100 211 90 219 
136 9 80 122 91 203 215 7 207 68 36 
137 9 70 39 213 41 16 151 160 176 38 
138 9 75 13 206 71 37 26 77 21 42 
139 9 132 184 6 10 148 62 177 53 5 
140 9 126 109 211 163 86 180 63 190 133 
141 9 61 198 36 207 68 87 7 102 50 
142 9 150 99 78 83 178 28 123 118 107 
143 9 51 164 104 152 217 55 102 56 87 
144 9 106 69 95 104 51 127 187 217 143 
145 9 149 201 66 34 73 162 3 155 213 
146 9 187 101 95 127 69 196 106 144 200 
147 9 31 186 167 174 181 192 94 5 62 
148 9 86 163 139 189 6 132 126 156 184 
149 9 145 201 66 34 73 213 3 162 155 
150 9 142 78 28 178 99 83 123 118 110 
151 9 41 16 39 160 23 176 38 58 154 
152 9 55 217 56 51 143 216 104 9 164 
153 9 32 97 218 54 129 103 154 173 38 
154 9 38 166 176 160 173 32 153 97 218 
155 9 170 44 162 119 24 30 105 134 145 
156 9 182 179 211 191 126 72 79 19 100 
157 9 59 3 172 73 210 66 35 162 58 
158 9 125 88 194 40 165 116 177 33 52 
159 9 130 197 199 60 121 11 112 46 131 
160 9 176 38 151 41 154 39 166 16 32 
161 9 85 67 114 82 205 76 47 110 115 
162 9 170 44 3 155 66 134 145 73 59 
163 9 86 189 109 63 126 133 140 148 190 
164 9 143 102 51 55 87 104 152 217 198 
165 9 52 116 128 65 88 125 17 194 158 
166 9 154 38 173 176 160 32 153 97 151 
167 9 186 31 147 181 174 192 94 5 62 
168 9 111 17 193 108 115 52 33 65 165 
169 9 93 60 90 8 131 199 92 35 212 
170 9 44 162 155 134 3 131 119 35 66 
171 9 124 48 180 190 27 195 109 123 140 
172 9 157 59 35 210 3 42 73 21 58 
173 9 154 166 97 32 153 38 218 129 176 
174 9 181 31 147 192 5 167 186 62 10 
175 9 74 105 119 185 18 214 81 20 24 
176 9 160 38 154 151 41 166 39 16 32 
177 9 6 40 10 53 62 139 96 132 5 
178 9 78 150 142 114 205 107 118 85 99 
179 9 191 156 182 72 79 19 100 211 14 
180 9 190 109 171 27 63 140 48 124 133 
181 9 174 192 31 147 5 167 186 62 53 
182 9 156 179 211 191 79 126 72 100 19 
183 9 200 196 29 101 20 81 15 214 127 
184 9 132 139 10 62 6 174 94 148 181 
185 9 214 20 74 188 18 175 43 64 105 
186 9 167 147 31 94 174 181 192 5 62 
187 9 146 95 101 127 69 106 144 196 200 
188 9 214 185 20 43 64 18 45 74 204 
189 9 133 86 163 33 63 40 148 109 6 
190 9 180 109 27 63 171 133 140 48 124 
191 9 72 179 19 79 156 182 117 84 100 
192 9 181 5 174 31 62 53 96 147 10 
193 9 111 168 133 27 33 63 108 190 109 
194 9 125 88 158 165 17 52 116 40 128 
195 9 124 121 48 197 11 123 171 28 83 
196 9 200 183 101 127 29 146 20 187 95 
197 9 121 11 195 130 159 124 46 112 48 
198 9 87 141 102 61 50 25 36 68 164 
199 9 60 131 93 169 159 134 90 35 130 
200 9 183 196 29 20 101 127 214 185 74 
201 9 149 145 34 66 213 73 3 162 155 
202 9 208 135 212 211 92 14 90 100 182 
203 9 80 122 215 7 136 207 68 36 91 
204 9 45 22 18 64 188 43 120 9 105 
205 9 114 85 161 82 178 67 107 68 78 
206 9 37 75 77 138 57 19 219 79 13 
207 9 7 203 36 68 80 141 122 215 61 
208 9 202 135 212 14 211 92 100 182 219 
209 9 2 76 98 67 82 47 161 85 115 
210 9 58 23 59 157 16 172 73 41 151 
211 9 126 202 208 140 182 156 135 212 14 
212 9 202 135 92 90 208 8 211 14 169 
213 9 70 137 66 73 149 201 145 59 210 
214 9 185 20 188 74 18 175 43 64 45 
215 9 122 203 80 136 91 7 207 82 68 
216 9 9 64 217 45 22 152 43 120 55 
217 9 104 152 51 9 216 143 55 106 56 
218 9 153 32 97 103 54 129 154 26 160 
219 9 57 100 14 79 19 206 135 49 208 
DEPOT_SECTION
   1
   -1
EOF
