NAME :  X-n284-kX-w28-c9.cctp
COMMENT : 	Adapted by Maziero, Usberti and Cavellucci from the Uchoa, Pecin, Pessoa, Poggi, Subramanian, and Vidal (2013)
TYPE :  CCTP
DIMENSION :    205
EDGE_WEIGHT_TYPE : 	EUC_2D	
CAPACITY : 	109
VERTICES_WITHIN_COVERAGE :  9
VERTICES_WITH_DEMAND : 	28
NODE_COORD_SECTION
1 674 825
2 549 534
3 43 315
4 542 420
5 45 580
6 180 450
7 369 618
8 287 721
9 36 426
10 411 408
11 170 446
12 21 333
13 37 428
14 617 456
15 52 527
16 114 227
17 32 303
18 233 638
19 314 568
20 290 736
21 549 449
22 317 699
23 676 992
24 45 851
25 455 508
26 128 446
27 34 302
28 152 660
29 550 576
30 559 585
31 306 655
32 183 449
33 380 586
34 21 277
35 306 679
36 347 595
37 324 384
38 103 480
39 197 495
40 20 321
41 100 638
42 350 574
43 198 437
44 370 722
45 513 438
46 273 645
47 6 508
48 44 581
49 309 763
50 18 616
51 128 603
52 543 466
53 625 525
54 54 449
55 504 517
56 49 401
57 638 459
58 329 614
59 657 416
60 1 296
61 217 443
62 1 416
63 157 731
64 244 727
65 548 588
66 559 438
67 459 433
68 9 408
69 55 295
70 357 711
71 31 407
72 544 414
73 285 801
74 439 387
75 66 345
76 347 636
77 353 713
78 192 450
79 428 346
80 18 359
81 364 653
82 293 515
83 532 411
84 225 722
85 259 227
86 19 558
87 368 573
88 382 645
89 596 630
90 27 367
91 186 460
92 116 629
93 177 576
94 89 544
95 574 623
96 166 458
97 541 481
98 255 545
99 38 273
100 264 757
101 59 278
102 351 298
103 26 447
104 334 620
105 21 527
106 547 547
107 54 551
108 530 414
109 53 441
110 103 273
111 141 256
112 324 558
113 262 511
114 592 418
115 307 581
116 344 619
117 140 436
118 603 511
119 155 633
120 83 545
121 389 638
122 231 732
123 36 435
124 50 491
125 487 555
126 314 840
127 589 589
128 199 463
129 55 501
130 30 368
131 308 729
132 97 678
133 69 439
134 96 618
135 39 321
136 47 409
137 51 527
138 428 484
139 279 744
140 39 640
141 70 417
142 320 800
143 88 326
144 5 405
145 9 520
146 26 200
147 432 556
148 501 579
149 27 571
150 602 440
151 398 657
152 176 482
153 517 509
154 184 464
155 350 606
156 45 407
157 612 434
158 318 979
159 226 642
160 544 431
161 607 574
162 130 767
163 204 742
164 104 463
165 584 495
166 183 642
167 528 588
168 37 256
169 189 421
170 537 541
171 554 484
172 395 514
173 31 647
174 636 432
175 337 505
176 396 435
177 603 501
178 173 629
179 575 395
180 309 604
181 371 795
182 29 521
183 375 623
184 525 449
185 482 542
186 589 420
187 343 673
188 45 558
189 528 389
190 299 678
191 414 536
192 13 456
193 615 505
194 155 392
195 17 342
196 289 541
197 140 498
198 534 468
199 112 456
200 604 604
201 304 614
202 228 659
203 339 622
204 513 411
205 379 594
DEMAND_SECTION
2 7
3 3
4 3
5 5
6 4
7 8
8 1
9 2
10 9
11 5
12 2
13 2
14 4
15 1
16 3
17 4
18 10
19 2
20 2
21 3
22 9
23 2
24 1
25 6
26 8
27 9
28 7
29 8
COVERAGE_SECTION
2 7 106 170 153 29 55 171 30 
3 9 135 17 27 69 40 12 195 75 101 
4 9 72 160 83 108 66 21 204 45 184 
5 9 48 149 188 107 86 50 120 15 137 
6 9 32 11 78 91 154 96 43 128 169 
7 9 183 155 116 205 76 121 88 203 36 
8 9 20 131 139 22 64 100 190 35 49 
9 9 13 123 71 136 156 103 109 56 54 
10 7 176 74 67 79 138 37 204 
11 9 6 32 96 91 78 154 43 169 117 
12 9 195 40 135 80 3 17 27 90 130 
13 9 9 123 109 136 71 103 156 54 56 
14 9 57 150 157 174 114 186 177 193 165 
15 9 137 107 182 129 105 188 120 124 94 
16 6 111 110 101 168 99 69 
17 9 27 3 135 40 69 34 99 12 60 
18 9 159 202 46 166 178 31 201 190 119 
19 9 112 115 42 180 196 36 201 58 155 
20 9 139 8 131 49 100 22 64 35 122 
21 7 66 52 160 184 198 4 97 
22 9 35 190 131 8 187 77 70 31 20 
23 5 158 181 89 95 126 
24 7 162 63 132 163 173 140 28 
25 7 138 185 55 191 147 125 172 
26 7 117 199 164 96 11 38 6 
27 9 17 3 135 69 40 34 99 12 60 
28 9 119 166 178 92 41 132 51 134 63 
29 9 65 30 167 106 170 127 2 148 95 
30 9 65 29 127 167 106 95 161 170 200 
31 9 35 190 46 187 201 22 76 104 58 
32 9 6 78 91 11 154 43 96 128 169 
33 7 205 87 42 7 36 155 183 
34 9 99 168 17 27 60 69 101 3 40 
35 9 190 22 31 187 8 46 131 77 20 
36 9 155 42 116 58 104 203 87 7 205 
37 2 176 10 
38 4 164 199 197 26 
39 9 152 128 154 91 78 6 32 96 11 
40 9 12 135 195 17 3 27 60 80 34 
41 9 92 134 132 51 119 28 140 173 178 
42 9 87 36 112 33 155 205 19 115 58 
43 9 78 169 32 61 6 91 128 11 154 
44 9 70 77 187 22 131 81 151 49 181 
45 6 184 204 108 160 83 4 
46 9 31 18 190 201 35 159 202 180 58 
47 8 145 105 182 124 129 137 15 86 
48 9 5 149 188 107 86 50 120 137 15 
49 9 20 131 139 142 73 100 8 22 77 
50 9 140 173 48 5 149 86 188 107 134 
51 9 92 134 119 41 178 93 28 166 94 
52 5 198 97 21 171 184 
53 7 193 118 177 165 161 57 14 
54 6 109 133 123 13 103 9 
55 5 153 185 170 125 2 
56 7 156 136 71 141 9 13 123 
57 7 14 174 157 150 59 193 177 
58 9 104 203 116 155 180 201 36 76 7 
59 6 174 57 157 14 150 114 
60 9 34 40 17 27 12 99 135 3 195 
61 7 43 78 128 32 91 169 6 
62 9 68 144 71 9 13 103 123 192 156 
63 9 162 163 84 28 122 132 64 166 119 
64 9 122 84 100 139 8 163 20 131 202 
65 9 30 29 167 106 127 95 148 170 2 
66 9 21 160 4 72 52 186 184 83 108 
67 6 74 10 45 204 138 176 
68 9 144 62 71 9 13 156 123 136 56 
69 9 101 27 3 17 99 135 34 168 40 
70 9 77 44 187 22 131 81 35 190 151 
71 9 156 136 56 9 13 68 144 123 62 
72 9 4 83 108 160 66 189 204 21 179 
73 9 142 49 100 126 139 20 131 8 64 
74 5 10 79 67 176 204 
75 4 143 135 3 130 
76 9 203 116 104 81 7 58 155 183 88 
77 9 70 44 22 187 131 35 81 190 8 
78 9 32 6 91 43 128 154 11 61 96 
79 5 74 10 102 67 176 
80 7 90 130 195 12 40 135 144 
81 9 88 76 121 187 183 151 7 116 203 
82 7 196 113 175 98 112 19 115 
83 9 108 72 4 204 189 160 45 66 184 
84 9 122 64 163 100 139 8 202 20 63 
85 3 102 111 16 
86 9 149 188 105 5 48 107 182 145 15 
87 7 33 42 205 36 155 7 112 
88 9 121 81 151 183 7 76 116 187 203 
89 8 95 200 127 161 30 65 29 167 
90 7 130 80 195 12 56 71 144 
91 9 154 32 6 78 128 96 11 152 43 
92 9 41 134 51 119 28 132 178 166 140 
93 8 178 51 119 166 92 159 39 18 
94 7 120 107 15 137 188 129 5 
95 8 89 200 127 30 65 29 167 161 
96 9 11 6 32 154 91 152 78 128 117 
97 4 171 52 198 21 
98 9 196 113 82 19 115 112 39 180 93 
99 9 34 168 101 69 27 17 3 60 135 
100 9 139 20 64 122 8 49 73 84 131 
101 9 69 99 168 27 17 34 3 110 135 
102 5 37 79 85 10 74 
103 7 123 192 13 9 54 109 62 
104 9 203 58 116 76 155 36 180 201 7 
105 9 182 145 47 137 15 86 188 107 129 
106 9 170 2 29 30 65 167 153 55 148 
107 9 188 15 137 5 120 48 149 86 94 
108 9 83 4 72 204 160 189 45 184 66 
109 7 54 133 123 13 9 103 141 
110 6 111 101 16 69 143 99 
111 3 16 110 101 
112 9 19 115 42 196 36 87 180 82 155 
113 7 82 98 196 39 175 19 112 
114 7 186 150 157 179 66 14 174 
115 9 19 180 112 201 58 36 42 196 104 
116 9 203 104 155 58 76 36 7 183 180 
117 8 26 11 96 199 6 32 164 194 
118 9 177 193 165 53 171 14 2 57 161 
119 9 178 28 166 92 51 41 93 134 159 
120 7 94 107 15 137 188 5 129 
121 8 88 151 183 7 81 76 205 116 
122 9 84 64 163 100 139 8 20 202 63 
123 9 13 9 103 109 54 71 136 156 192 
124 5 129 15 137 182 54 
125 8 185 148 55 170 167 147 153 25 
126 9 142 73 181 49 100 139 20 131 8 
127 9 200 161 30 95 29 65 89 106 167 
128 9 91 78 154 32 6 43 61 152 39 
129 5 124 15 137 182 105 
130 7 90 80 195 12 56 71 156 
131 9 20 8 22 139 49 77 35 70 100 
132 8 41 92 28 134 140 119 173 63 
133 6 109 54 141 123 13 9 
134 9 41 92 51 132 119 140 5 48 28 
135 8 3 17 40 27 12 195 69 75 
136 8 156 56 71 9 13 141 123 109 
137 9 15 182 107 129 105 188 124 120 94 
138 6 25 172 191 176 67 147 
139 9 20 100 8 131 49 64 122 73 84 
140 8 173 50 48 5 41 134 132 149 
141 7 133 136 56 156 109 9 13 
142 9 73 49 126 181 139 20 100 131 8 
143 3 75 69 3 
144 9 68 62 71 9 13 156 136 123 56 
145 8 47 105 182 86 137 15 124 129 
146 9 168 99 34 101 16 60 69 27 17 
147 4 191 185 25 125 
148 8 125 167 185 65 29 170 106 30 
149 9 86 5 48 188 107 105 50 137 182 
150 9 157 14 114 186 174 57 66 179 21 
151 7 88 121 81 183 7 76 187 
152 9 154 91 39 96 128 6 32 11 78 
153 4 55 97 170 2 
154 9 91 6 32 128 78 96 152 11 43 
155 9 36 116 203 104 7 58 76 183 205 
156 8 136 56 71 9 13 141 123 109 
157 8 150 14 174 114 186 57 59 66 
158 8 126 142 73 181 49 100 139 20 
159 9 18 202 166 46 178 119 28 84 31 
160 9 4 66 72 21 108 83 184 45 52 
161 9 127 200 30 53 29 89 95 65 118 
162 8 63 163 132 84 122 28 24 64 
163 9 84 122 64 63 100 139 162 8 20 
164 6 199 38 26 133 117 197 
165 8 177 118 171 193 97 52 14 53 
166 9 178 119 28 159 202 18 93 51 92 
167 9 65 29 148 30 106 170 125 2 95 
168 9 99 34 101 69 27 17 60 146 3 
169 8 43 32 78 6 11 61 91 128 
170 8 106 2 29 153 55 65 167 30 
171 5 97 52 198 165 21 
172 6 191 138 147 175 25 87 
173 7 140 50 48 5 41 134 132 
174 7 157 59 57 14 150 114 186 
175 6 82 112 172 196 19 42 
176 5 10 138 67 74 172 
177 9 118 193 165 53 14 171 57 150 2 
178 9 166 119 28 51 93 159 92 18 202 
179 6 114 186 72 4 66 83 
180 9 201 58 115 104 203 19 116 36 155 
181 9 142 49 44 126 77 70 73 131 20 
182 9 105 145 137 15 47 129 124 86 107 
183 9 7 121 88 205 155 76 116 81 203 
184 6 45 198 21 52 160 4 
185 7 125 55 148 25 153 147 170 
186 8 114 150 157 179 66 72 14 160 
187 9 81 22 35 76 70 31 77 190 88 
188 9 107 5 149 48 86 15 137 105 120 
189 9 83 108 204 72 4 160 179 45 66 
190 9 35 31 22 46 187 8 131 20 76 
191 6 147 172 25 138 87 33 
192 7 103 123 13 9 54 62 109 
193 8 118 177 53 165 14 57 171 150 
194 3 169 117 11 
195 8 12 80 40 90 130 135 3 17 
196 9 82 98 19 112 113 115 175 180 42 
197 7 152 38 96 164 199 26 154 
198 4 52 97 184 21 
199 6 164 26 38 117 133 197 
200 9 127 89 161 95 30 65 29 167 106 
201 9 180 58 104 115 203 116 31 46 19 
202 9 159 18 46 166 84 178 64 122 190 
203 9 104 116 58 76 155 36 7 180 183 
204 8 108 83 45 189 4 72 160 184 
205 7 33 87 7 183 155 36 42 
DEPOT_SECTION
   1
   -1
EOF
