NAME :  X-n280-kX-w111-c9.cctp
COMMENT : 	Adapted by Maziero, Usberti and Cavellucci from the Uchoa, Pecin, Pessoa, Poggi, Subramanian, and Vidal (2013)
TYPE :  CCTP
DIMENSION :    280
EDGE_WEIGHT_TYPE : 	EUC_2D	
CAPACITY : 	192
VERTICES_WITHIN_COVERAGE :  9
VERTICES_WITH_DEMAND : 	111
NODE_COORD_SECTION
1 0 0
2 909 919
3 878 721
4 969 85
5 591 195
6 955 148
7 587 903
8 994 792
9 625 129
10 544 703
11 461 167
12 37 644
13 615 22
14 773 788
15 384 364
16 51 291
17 109 732
18 570 124
19 692 985
20 62 150
21 358 5
22 188 450
23 674 658
24 676 904
25 815 984
26 710 16
27 74 658
28 576 1000
29 636 695
30 547 92
31 587 397
32 26 150
33 182 561
34 938 462
35 362 928
36 366 835
37 516 892
38 448 923
39 501 445
40 513 799
41 905 388
42 474 791
43 560 782
44 465 552
45 315 645
46 738 396
47 45 915
48 797 871
49 922 643
50 793 586
51 921 458
52 160 295
53 598 257
54 516 221
55 99 169
56 788 634
57 425 751
58 616 680
59 949 444
60 987 459
61 182 279
62 127 354
63 791 822
64 645 609
65 857 386
66 917 154
67 398 480
68 729 688
69 134 510
70 172 2
71 499 737
72 780 565
73 908 477
74 917 341
75 272 553
76 421 876
77 770 2
78 497 623
79 853 27
80 853 521
81 519 196
82 90 822
83 827 901
84 350 168
85 656 56
86 199 924
87 732 55
88 772 748
89 884 973
90 158 430
91 563 13
92 50 959
93 609 223
94 628 860
95 264 436
96 699 764
97 441 479
98 95 246
99 236 627
100 307 893
101 695 302
102 378 639
103 830 30
104 44 339
105 885 644
106 122 603
107 850 732
108 155 865
109 230 346
110 300 719
111 55 954
112 467 494
113 153 641
114 713 82
115 659 564
116 881 18
117 781 654
118 490 806
119 823 569
120 878 496
121 441 898
122 589 516
123 165 614
124 17 749
125 164 778
126 296 858
127 258 488
128 437 866
129 187 88
130 725 988
131 125 619
132 352 701
133 447 517
134 316 80
135 743 575
136 555 373
137 84 140
138 341 827
139 541 567
140 919 768
141 945 924
142 397 932
143 905 944
144 892 37
145 74 227
146 911 617
147 668 697
148 1 96
149 223 299
150 637 118
151 622 958
152 356 127
153 347 777
154 157 190
155 8 497
156 138 78
157 100 192
158 384 598
159 23 228
160 110 163
161 345 464
162 53 628
163 316 705
164 112 361
165 642 405
166 235 578
167 489 621
168 563 916
169 759 215
170 822 262
171 597 310
172 960 837
173 164 988
174 37 513
175 648 247
176 375 402
177 531 205
178 935 676
179 103 549
180 964 651
181 233 241
182 891 112
183 378 472
184 457 893
185 852 861
186 113 701
187 340 913
188 662 198
189 667 718
190 140 332
191 809 908
192 968 908
193 163 857
194 333 418
195 59 136
196 839 123
197 529 215
198 385 380
199 319 417
200 318 216
201 156 119
202 816 160
203 267 210
204 528 320
205 138 787
206 473 713
207 537 114
208 168 838
209 774 825
210 32 510
211 216 372
212 16 935
213 60 733
214 500 37
215 343 363
216 429 41
217 205 398
218 708 298
219 411 109
220 840 359
221 112 603
222 816 310
223 865 775
224 259 348
225 893 516
226 814 607
227 605 162
228 781 239
229 359 199
230 16 739
231 482 214
232 70 526
233 528 103
234 572 770
235 802 517
236 876 469
237 118 571
238 952 781
239 823 795
240 522 595
241 52 336
242 456 367
243 255 413
244 410 194
245 956 21
246 717 142
247 766 880
248 524 825
249 657 640
250 189 232
251 471 339
252 920 809
253 688 98
254 660 781
255 441 81
256 236 735
257 784 692
258 743 446
259 201 32
260 188 957
261 381 605
262 380 904
263 227 263
264 69 94
265 123 416
266 341 341
267 450 482
268 251 533
269 352 591
270 724 967
271 753 539
272 684 924
273 617 989
274 455 500
275 472 926
276 395 683
277 167 357
278 789 678
279 897 272
280 991 492
DEMAND_SECTION
2 92
3 88
4 93
5 90
6 73
7 100
8 53
9 66
10 82
11 59
12 100
13 76
14 84
15 56
16 91
17 58
18 65
19 56
20 68
21 88
22 54
23 76
24 80
25 53
26 1
27 2
28 2
29 7
30 10
31 9
32 8
33 3
34 3
35 2
36 9
37 6
38 10
39 3
40 1
41 4
42 6
43 1
44 4
45 3
46 7
47 7
48 2
49 1
50 1
51 4
52 4
53 5
54 4
55 7
56 3
57 3
58 8
59 6
60 4
61 4
62 2
63 1
64 7
65 5
66 1
67 6
68 8
69 4
70 8
71 7
72 2
73 1
74 9
75 4
76 3
77 3
78 9
79 8
80 5
81 9
82 9
83 4
84 9
85 8
86 6
87 8
88 7
89 9
90 3
91 1
92 8
93 1
94 2
95 4
96 3
97 3
98 7
99 4
100 6
101 6
102 2
103 6
104 7
105 8
106 6
107 3
108 10
109 9
110 5
111 7
112 10
COVERAGE_SECTION
2 9 143 141 89 192 185 83 172 191 252 
3 9 107 223 140 178 105 49 239 238 252 
4 9 6 245 182 66 144 116 79 196 103 
5 9 93 227 177 53 197 188 81 9 18 
6 9 66 4 182 196 245 144 279 202 116 
7 9 168 94 151 37 24 273 28 272 248 
8 9 238 172 252 140 192 178 223 3 141 
9 9 150 227 18 253 5 188 85 30 207 
10 9 71 206 234 58 43 29 78 167 40 
11 9 231 244 81 54 219 177 197 255 207 
12 9 162 27 221 131 213 106 186 230 124 
13 9 85 91 26 30 150 253 9 18 114 
14 9 209 63 88 239 96 48 247 223 107 
15 9 198 176 215 266 242 194 199 251 161 
16 9 241 104 98 145 159 164 190 62 52 
17 9 186 213 205 125 27 82 230 124 113 
18 9 207 30 233 227 9 150 5 81 177 
19 9 130 270 272 151 273 24 28 25 247 
20 9 195 137 32 55 160 264 157 145 148 
21 9 216 134 255 219 152 214 259 84 70 
22 9 90 217 265 95 243 127 69 211 277 
23 9 249 147 29 64 189 58 68 115 117 
24 9 272 94 151 270 19 7 247 130 273 
25 9 89 191 83 130 270 143 2 48 247 
26 9 87 77 114 85 253 13 103 150 246 
27 9 162 12 186 131 221 106 213 113 17 
28 9 273 151 168 7 19 37 275 272 24 
29 9 58 147 189 23 249 64 254 10 68 
30 9 233 207 18 214 91 9 227 150 13 
31 9 136 165 171 204 39 122 251 242 53 
32 9 20 195 137 148 264 55 159 157 160 
33 9 123 166 237 69 106 268 179 131 221 
34 9 51 59 73 60 280 236 120 225 41 
35 9 187 262 142 100 76 121 38 36 126 
36 9 138 153 76 262 126 128 187 100 35 
37 9 168 275 184 248 7 38 121 128 118 
38 9 275 121 184 142 76 128 262 37 35 
39 9 112 267 97 274 133 136 242 31 67 
40 9 118 248 42 43 71 234 37 206 57 
41 9 65 74 59 220 51 34 236 73 60 
42 9 118 40 71 248 57 206 128 43 76 
43 9 234 40 248 118 71 10 42 254 94 
44 9 133 274 112 240 267 167 97 139 78 
45 9 163 102 269 132 110 261 99 158 276 
46 9 258 165 218 101 220 222 65 235 271 
47 9 212 111 92 82 108 193 173 208 260 
48 9 247 191 83 63 209 185 239 14 25 
49 9 146 178 105 180 3 107 226 119 140 
50 9 72 226 119 56 135 271 117 235 80 
51 9 34 73 59 236 120 225 60 41 280 
52 9 61 190 277 149 62 250 263 98 164 
53 9 93 175 171 5 197 177 188 54 204 
54 9 197 177 81 231 11 5 53 93 204 
55 9 160 157 137 20 195 154 145 32 201 
56 9 117 226 278 50 257 72 119 135 68 
57 9 206 42 276 71 153 118 132 40 36 
58 9 29 147 249 23 189 10 64 234 254 
59 9 34 51 60 73 280 41 236 120 225 
60 9 280 59 34 51 73 41 225 236 120 
61 9 52 149 250 263 181 190 277 109 154 
62 9 164 190 277 265 52 241 90 104 217 
63 9 209 14 239 48 247 185 88 83 191 
64 9 249 115 23 58 29 147 135 122 189 
65 9 220 41 74 236 222 51 73 59 34 
66 9 6 182 196 4 202 144 279 245 116 
67 9 183 97 267 161 274 133 112 176 194 
68 9 257 278 117 147 23 189 88 56 96 
69 9 179 237 232 33 22 90 106 265 221 
70 9 259 156 129 201 264 134 137 160 195 
71 9 206 10 42 40 118 57 43 234 248 
72 9 50 271 135 119 235 226 56 80 117 
73 9 51 236 34 120 225 59 80 60 280 
74 9 41 279 65 220 222 59 51 34 170 
75 9 268 166 127 99 269 33 45 161 95 
76 9 128 121 184 262 38 142 36 275 35 
77 9 26 87 103 79 114 116 85 253 144 
78 9 167 240 139 44 10 206 71 158 133 
79 9 103 116 144 77 182 196 245 87 4 
80 9 120 225 235 119 236 73 72 50 51 
81 9 177 197 54 231 11 5 207 18 227 
82 9 205 108 208 193 125 17 213 47 124 
83 9 191 48 185 247 2 25 63 143 89 
84 9 229 152 200 244 219 203 134 11 255 
85 9 13 253 114 150 26 87 9 91 246 
86 9 260 173 108 193 208 100 126 187 111 
87 9 114 26 253 77 85 246 103 150 13 
88 9 14 257 239 278 68 96 63 209 107 
89 9 143 2 25 141 83 191 192 185 48 
90 9 22 265 217 277 62 211 164 69 243 
91 9 13 214 30 233 85 207 18 150 9 
92 9 111 212 47 173 260 108 82 193 86 
93 9 5 53 175 188 227 177 197 171 54 
94 9 7 24 254 272 168 151 43 234 248 
95 9 243 127 199 217 194 22 211 161 224 
96 9 254 189 147 88 14 68 29 209 23 
97 9 267 274 112 133 67 183 39 44 161 
98 9 145 157 16 159 55 52 154 160 61 
99 9 166 123 45 75 113 33 268 256 131 
100 9 126 187 35 138 262 36 142 86 76 
101 9 218 175 171 46 53 228 169 188 165 
102 9 261 158 276 269 45 132 163 110 167 
103 9 79 116 144 77 196 87 182 26 245 
104 9 241 16 164 62 190 98 265 159 145 
105 9 49 146 178 3 180 226 107 119 56 
106 9 221 131 237 123 113 179 27 33 162 
107 9 3 223 239 257 140 88 278 14 105 
108 9 193 208 86 82 205 125 260 47 173 
109 9 224 211 149 217 277 243 61 263 52 
110 9 163 132 256 153 45 276 99 102 138 
111 9 92 47 212 173 260 108 82 193 86 
112 9 274 267 97 133 44 39 67 183 139 
113 9 123 131 106 221 186 237 27 99 33 
114 9 253 87 246 85 26 150 77 9 13 
115 9 64 249 122 135 23 271 139 72 58 
116 9 144 79 103 245 182 4 77 196 66 
117 9 56 278 257 226 68 50 135 72 88 
118 9 42 40 248 71 43 128 57 37 234 
119 9 50 226 72 235 80 56 271 135 225 
120 9 225 236 80 73 51 34 235 59 119 
121 9 184 38 76 128 275 142 262 37 35 
122 9 139 115 240 64 39 31 165 112 44 
123 9 113 131 106 221 33 237 99 166 179 
124 9 230 213 17 82 12 27 186 162 205 
125 9 205 208 17 193 256 82 108 186 213 
126 9 100 138 187 36 35 153 262 86 142 
127 9 268 95 75 243 22 161 166 199 194 
128 9 76 121 184 38 262 275 36 142 118 
129 9 201 156 259 70 154 160 137 264 55 
130 9 270 19 272 25 24 151 273 191 247 
131 9 106 221 113 123 237 27 162 179 33 
132 9 163 276 110 45 102 153 57 261 158 
133 9 274 112 267 97 44 67 183 39 158 
134 9 152 21 84 219 216 255 259 229 129 
135 9 271 72 50 56 226 119 235 115 117 
136 9 31 204 171 39 251 165 242 53 122 
137 9 20 195 55 160 264 157 32 201 156 
138 9 36 153 126 100 187 262 76 35 128 
139 9 240 122 78 167 44 112 133 274 64 
140 9 238 252 223 3 107 8 172 178 239 
141 9 192 2 143 89 172 185 252 83 191 
142 9 262 35 38 121 187 76 184 275 128 
143 9 2 89 141 192 83 25 185 191 172 
144 9 116 79 103 245 182 4 196 66 77 
145 9 98 157 159 55 16 160 20 137 32 
146 9 49 105 180 178 226 119 225 3 80 
147 9 189 29 23 58 249 68 96 254 64 
148 9 32 264 195 20 137 55 160 159 156 
149 9 263 61 109 181 224 52 211 250 277 
150 9 9 227 253 85 18 114 188 246 5 
151 9 273 28 7 272 168 19 24 94 270 
152 9 84 219 134 229 244 200 255 11 216 
153 9 138 36 110 132 163 57 126 276 256 
154 9 250 160 157 55 201 98 137 145 61 
155 9 210 174 232 179 69 237 162 265 221 
156 9 201 129 264 259 137 70 160 195 55 
157 9 55 160 145 98 137 20 154 195 32 
158 9 261 269 102 45 276 44 133 167 132 
159 9 145 16 98 32 157 20 55 195 137 
160 9 55 157 137 20 154 195 201 145 264 
161 9 183 194 199 67 176 95 127 198 97 
162 9 12 27 221 106 131 237 179 186 113 
163 9 110 132 45 153 276 256 102 99 57 
164 9 62 190 277 265 241 104 52 90 16 
165 9 31 136 46 171 258 101 122 218 204 
166 9 75 268 99 33 123 127 113 45 106 
167 9 78 240 44 139 206 10 158 261 102 
168 9 7 37 151 28 94 273 275 248 184 
169 9 228 170 202 246 218 188 101 222 175 
170 9 228 222 279 169 220 202 218 74 65 
171 9 53 204 136 175 31 93 101 165 218 
172 9 252 8 238 192 140 141 2 185 223 
173 9 260 86 111 92 108 193 47 208 212 
174 9 210 155 232 179 69 237 162 221 106 
175 9 93 53 188 101 5 218 171 227 169 
176 9 198 15 194 215 199 161 183 266 67 
177 9 197 81 54 231 5 11 93 53 227 
178 9 49 180 105 146 3 140 107 238 223 
179 9 237 232 69 221 106 131 174 33 210 
180 9 178 49 146 105 3 140 238 107 8 
181 9 263 250 203 149 61 200 52 154 109 
182 9 66 196 6 144 4 202 79 116 103 
183 9 67 161 97 176 194 267 199 133 274 
184 9 121 38 128 275 76 37 142 262 118 
185 9 83 48 191 63 239 2 209 252 223 
186 9 17 27 213 113 131 205 125 162 12 
187 9 35 100 262 142 126 36 138 76 121 
188 9 175 93 227 5 9 246 150 53 169 
189 9 147 29 96 23 254 58 68 249 234 
190 9 62 277 164 52 61 211 265 241 149 
191 9 83 48 247 185 25 63 209 89 2 
192 9 141 2 172 143 89 252 8 185 238 
193 9 108 208 205 86 125 82 260 47 173 
194 9 199 176 161 215 198 183 95 15 266 
195 9 20 137 32 264 55 160 157 148 145 
196 9 202 182 66 103 79 144 116 6 169 
197 9 177 54 81 231 5 93 53 11 227 
198 9 15 176 215 266 194 242 199 183 161 
199 9 194 161 95 176 215 243 198 266 183 
200 9 229 203 84 181 244 152 263 149 266 
201 9 129 156 160 154 137 55 264 157 195 
202 9 196 169 228 182 66 246 170 114 103 
203 9 181 200 263 250 84 229 149 61 154 
204 9 136 251 171 242 53 31 54 197 177 
205 9 125 82 208 17 193 108 186 213 256 
206 9 71 57 10 42 276 78 167 40 118 
207 9 233 30 18 227 81 214 9 177 11 
208 9 193 108 205 125 82 86 17 260 256 
209 9 63 14 48 247 239 88 185 191 83 
210 9 174 155 232 179 69 237 162 221 106 
211 9 217 109 224 277 243 149 95 90 22 
212 9 47 92 111 82 108 173 193 260 208 
213 9 230 124 17 186 27 12 82 205 162 
214 9 91 216 30 233 255 207 18 219 13 
215 9 266 15 198 176 194 199 224 161 243 
216 9 255 219 214 21 152 233 134 30 11 
217 9 211 243 22 277 90 109 95 224 265 
218 9 101 175 228 169 46 222 188 171 53 
219 9 255 152 216 11 84 244 134 229 214 
220 9 65 222 41 74 170 279 46 236 51 
221 9 106 131 237 123 179 113 162 27 33 
222 9 170 220 228 65 279 74 218 169 46 
223 9 107 239 140 3 252 185 238 63 14 
224 9 109 211 149 243 217 266 215 95 199 
225 9 120 80 73 236 51 34 119 59 235 
226 9 50 56 119 72 117 278 135 105 257 
227 9 5 9 18 150 93 188 207 177 30 
228 9 169 170 222 202 218 101 246 279 188 
229 9 84 200 244 152 203 219 11 231 134 
230 9 124 213 17 12 27 186 82 162 205 
231 9 54 81 197 177 11 244 5 207 204 
232 9 174 179 210 69 237 155 221 106 162 
233 9 207 30 18 214 255 11 81 91 227 
234 9 43 40 10 248 71 254 118 29 42 
235 9 80 72 271 119 50 120 135 236 225 
236 9 120 73 51 225 80 34 59 65 41 
237 9 179 106 221 131 69 123 33 232 113 
238 9 140 8 252 172 223 3 178 107 185 
239 9 63 223 14 209 88 107 185 48 3 
240 9 139 78 167 44 122 133 10 112 274 
241 9 104 16 164 62 190 98 265 145 159 
242 9 251 15 198 204 176 39 136 97 215 
243 9 95 217 211 199 224 109 127 22 194 
244 9 229 11 84 231 219 152 200 54 81 
245 9 4 144 116 79 182 103 6 66 196 
246 9 253 114 188 150 169 87 9 202 85 
247 9 48 191 209 63 83 185 14 24 272 
248 9 40 118 43 42 37 234 71 184 128 
249 9 23 64 58 147 29 115 189 68 135 
250 9 181 61 263 154 52 149 203 98 157 
251 9 242 204 15 136 198 39 176 231 54 
252 9 140 238 172 223 8 185 3 239 107 
253 9 114 85 246 150 87 9 26 188 13 
254 9 96 189 147 94 29 234 43 58 14 
255 9 219 216 214 11 233 152 207 30 21 
256 9 110 125 163 99 205 153 45 132 208 
257 9 278 117 68 88 56 107 226 14 3 
258 9 46 235 271 165 72 65 135 220 80 
259 9 70 129 156 201 134 264 21 137 160 
260 9 86 173 108 193 208 111 100 92 126 
261 9 158 269 102 45 276 44 132 167 133 
262 9 35 142 187 76 121 128 36 38 100 
263 9 181 149 61 250 203 52 109 224 154 
264 9 195 137 20 148 32 156 160 55 201 
265 9 90 164 62 22 277 217 190 69 211 
266 9 215 15 198 176 194 199 224 109 243 
267 9 97 274 112 133 67 39 44 183 161 
268 9 75 127 166 33 99 95 22 269 161 
269 9 261 158 102 45 75 276 132 268 166 
270 9 130 19 272 24 25 247 151 191 273 
271 9 72 135 235 50 119 226 258 115 56 
272 9 24 270 19 151 130 94 247 273 7 
273 9 151 28 19 7 168 272 24 130 270 
274 9 112 133 267 97 44 67 39 183 139 
275 9 38 184 121 37 128 76 142 168 262 
276 9 102 132 57 261 163 206 158 45 110 
277 9 190 62 211 164 217 52 109 90 265 
278 9 257 117 56 68 88 226 107 50 3 
279 9 74 170 222 220 41 66 65 228 6 
280 9 60 34 59 51 73 225 120 236 41 
DEPOT_SECTION
   1
   -1
EOF
