NAME :  X-n280-kX-w27-c9.cctp
COMMENT : 	Adapted by Maziero, Usberti and Cavellucci from the Uchoa, Pecin, Pessoa, Poggi, Subramanian, and Vidal (2013)
TYPE :  CCTP
DIMENSION :    162
EDGE_WEIGHT_TYPE : 	EUC_2D	
CAPACITY : 	192
VERTICES_WITHIN_COVERAGE :  9
VERTICES_WITH_DEMAND : 	27
NODE_COORD_SECTION
1 0 0
2 909 919
3 878 721
4 969 85
5 591 195
6 955 148
7 587 903
8 994 792
9 625 129
10 544 703
11 461 167
12 37 644
13 615 22
14 773 788
15 384 364
16 51 291
17 109 732
18 570 124
19 692 985
20 62 150
21 358 5
22 188 450
23 674 658
24 676 904
25 815 984
26 710 16
27 74 658
28 576 1000
29 636 695
30 547 92
31 26 150
32 516 892
33 560 782
34 797 871
35 922 643
36 598 257
37 516 221
38 99 169
39 616 680
40 791 822
41 645 609
42 917 154
43 729 688
44 134 510
45 499 737
46 770 2
47 497 623
48 853 27
49 519 196
50 90 822
51 827 901
52 350 168
53 656 56
54 732 55
55 772 748
56 884 973
57 158 430
58 563 13
59 609 223
60 628 860
61 264 436
62 699 764
63 95 246
64 830 30
65 44 339
66 885 644
67 122 603
68 850 732
69 153 641
70 713 82
71 659 564
72 881 18
73 17 749
74 164 778
75 258 488
76 725 988
77 125 619
78 316 80
79 84 140
80 919 768
81 945 924
82 905 944
83 892 37
84 74 227
85 911 617
86 668 697
87 1 96
88 637 118
89 622 958
90 356 127
91 100 192
92 23 228
93 110 163
94 53 628
95 112 361
96 489 621
97 563 916
98 960 837
99 648 247
100 375 402
101 531 205
102 935 676
103 964 651
104 891 112
105 852 861
106 113 701
107 662 198
108 667 718
109 809 908
110 968 908
111 333 418
112 59 136
113 839 123
114 529 215
115 385 380
116 138 787
117 473 713
118 537 114
119 168 838
120 774 825
121 216 372
122 60 733
123 500 37
124 343 363
125 429 41
126 205 398
127 411 109
128 112 603
129 865 775
130 605 162
131 359 199
132 16 739
133 482 214
134 528 103
135 572 770
136 952 781
137 823 795
138 522 595
139 52 336
140 456 367
141 255 413
142 410 194
143 956 21
144 717 142
145 766 880
146 657 640
147 471 339
148 920 809
149 688 98
150 660 781
151 441 81
152 784 692
153 201 32
154 69 94
155 123 416
156 341 341
157 251 533
158 724 967
159 684 924
160 617 989
161 789 678
162 897 272
DEMAND_SECTION
2 92
3 88
4 93
5 90
6 73
7 100
8 53
9 66
10 82
11 59
12 100
13 76
14 84
15 56
16 91
17 58
18 65
19 56
20 68
21 88
22 54
23 76
24 80
25 53
26 1
27 2
28 2
COVERAGE_SECTION
2 9 82 81 56 110 105 51 98 109 148 
3 9 68 129 80 102 66 35 137 136 148 
4 9 6 143 104 42 83 72 48 113 64 
5 9 59 130 101 36 114 107 49 9 18 
6 8 42 4 104 113 143 83 162 72 
7 8 97 60 89 32 24 160 28 159 
8 9 136 98 148 80 110 102 129 3 81 
9 9 88 130 18 149 5 107 53 30 118 
10 8 45 117 135 39 33 29 47 96 
11 9 133 142 49 37 127 101 114 151 118 
12 9 94 27 128 77 122 67 106 132 73 
13 9 53 58 26 30 88 149 9 18 70 
14 9 120 40 55 137 62 34 145 129 68 
15 7 115 100 124 156 140 111 147 
16 6 139 65 63 84 92 95 
17 9 106 122 116 74 27 50 132 73 69 
18 9 118 30 134 130 9 88 5 49 101 
19 9 76 158 159 89 160 24 28 25 145 
20 9 112 79 31 38 93 154 91 84 87 
21 8 125 78 151 127 90 123 153 52 
22 8 57 126 155 61 141 75 44 121 
23 8 146 86 29 41 108 39 43 71 
24 9 159 60 89 158 19 7 145 76 160 
25 9 56 109 51 76 158 82 2 34 145 
26 9 54 46 70 53 149 13 64 88 144 
27 9 94 12 106 77 128 67 122 69 17 
28 8 160 89 97 7 19 32 159 24 
29 9 39 86 108 23 146 41 150 10 43 
30 9 134 118 18 123 58 9 130 88 13 
31 9 20 112 79 87 154 38 92 91 93 
32 2 97 7 
33 5 135 45 10 150 60 
34 9 145 109 51 40 120 105 137 14 25 
35 7 85 102 66 103 3 68 80 
36 7 59 99 5 114 101 107 37 
37 8 114 101 49 133 11 5 36 59 
38 7 93 91 79 20 112 84 31 
39 9 29 86 146 23 108 10 41 135 150 
40 9 120 14 137 34 145 105 55 51 109 
41 7 146 71 23 39 29 86 108 
42 8 6 104 113 4 83 162 143 72 
43 7 152 161 86 23 108 55 62 
44 5 22 57 67 155 128 
45 4 117 10 33 135 
46 9 26 54 64 48 70 72 53 149 83 
47 5 96 138 10 117 45 
48 9 64 72 83 46 104 113 143 54 4 
49 9 101 114 37 133 11 5 118 18 130 
50 6 116 119 74 17 122 73 
51 9 109 34 105 145 2 25 40 82 56 
52 7 131 90 142 127 78 11 151 
53 9 13 149 70 88 26 54 9 58 144 
54 9 70 26 149 46 53 144 64 88 13 
55 9 14 152 137 161 43 62 40 120 68 
56 9 82 2 25 81 51 109 110 105 34 
57 7 22 155 126 121 95 44 141 
58 9 13 123 30 134 53 118 18 88 9 
59 8 5 36 99 107 130 101 114 37 
60 8 7 24 150 159 97 89 33 135 
61 6 141 75 126 111 22 121 
62 9 150 108 86 55 14 43 29 120 23 
63 6 84 91 16 92 38 93 
64 9 48 72 83 46 113 54 104 26 143 
65 7 139 16 95 63 155 92 84 
66 6 35 85 102 3 103 68 
67 5 128 77 69 27 94 
68 9 3 129 137 152 80 55 161 14 66 
69 5 77 67 128 106 27 
70 9 149 54 144 53 26 88 46 9 13 
71 4 41 146 23 39 
72 9 83 48 64 143 104 4 46 113 42 
73 9 132 122 17 50 12 27 106 94 116 
74 6 116 119 17 50 106 122 
75 5 157 61 141 22 111 
76 9 158 19 159 25 24 89 160 109 145 
77 5 67 128 69 27 94 
78 8 90 21 52 127 125 151 153 131 
79 7 20 112 38 93 154 91 31 
80 9 136 148 129 3 68 8 98 102 137 
81 9 110 2 82 56 98 105 148 51 109 
82 9 2 56 81 110 51 25 105 109 98 
83 9 72 48 64 143 104 4 113 42 46 
84 9 63 91 92 38 16 93 20 79 31 
85 5 35 66 103 102 3 
86 9 108 29 23 39 146 43 62 150 41 
87 8 31 154 112 20 79 38 93 92 
88 9 9 130 149 53 18 70 107 144 5 
89 9 160 28 7 159 97 19 24 60 158 
90 8 52 127 78 131 142 151 11 125 
91 8 38 93 84 63 79 20 112 31 
92 9 84 16 63 31 91 20 38 112 79 
93 7 38 91 79 20 112 84 154 
94 7 12 27 128 67 77 106 69 
95 5 155 139 65 57 16 
96 4 47 138 117 10 
97 6 7 32 89 28 60 160 
98 9 148 8 136 110 80 81 2 105 129 
99 5 59 36 107 5 130 
100 5 115 15 111 124 156 
101 9 114 49 37 133 5 11 59 36 130 
102 9 35 103 66 85 3 80 68 136 129 
103 9 102 35 85 66 3 80 136 68 8 
104 8 42 113 6 83 4 48 72 64 
105 9 51 34 109 40 137 2 120 148 129 
106 9 17 27 122 69 77 116 74 94 12 
107 8 99 59 130 5 9 144 88 36 
108 9 86 29 62 23 150 39 43 146 135 
109 9 51 34 145 105 25 40 120 56 2 
110 9 81 2 98 82 56 148 8 105 136 
111 6 100 124 115 61 15 156 
112 9 20 79 31 154 38 93 91 87 84 
113 7 104 42 64 48 83 72 6 
114 9 101 37 49 133 5 59 36 11 130 
115 6 15 100 124 156 111 140 
116 6 74 50 119 17 106 122 
117 4 45 10 47 96 
118 9 134 30 18 130 49 123 9 101 11 
119 4 116 74 50 17 
120 9 40 14 34 145 137 55 105 109 51 
121 5 126 141 61 57 22 
122 9 132 73 17 106 27 12 50 116 94 
123 9 58 125 30 134 151 118 18 127 13 
124 6 156 15 115 100 111 141 
125 9 151 127 123 21 90 134 78 30 11 
126 6 121 141 22 57 61 155 
127 9 151 90 125 11 52 142 78 131 123 
128 5 67 77 69 94 27 
129 9 68 137 80 3 148 105 136 40 14 
130 9 5 9 18 88 59 107 118 101 30 
131 7 52 142 90 127 11 133 78 
132 9 73 122 17 12 27 106 50 94 116 
133 8 37 49 114 101 11 142 5 118 
134 9 118 30 18 123 151 11 49 58 130 
135 5 33 10 45 150 29 
136 9 80 8 148 98 129 3 102 68 105 
137 9 40 129 14 120 55 68 105 34 3 
138 3 47 96 10 
139 7 65 16 95 63 155 84 92 
140 5 147 15 115 100 124 
141 6 61 126 121 75 22 111 
142 8 131 11 52 133 127 90 37 49 
143 9 4 83 72 48 104 64 6 42 113 
144 7 149 70 107 88 54 9 53 
145 9 34 109 120 40 51 105 14 24 159 
146 8 23 41 39 86 29 71 108 43 
147 6 140 15 115 100 133 37 
148 9 80 136 98 129 8 105 3 137 68 
149 9 70 53 144 88 54 9 26 107 13 
150 9 62 108 86 60 29 135 33 39 14 
151 9 127 125 123 11 134 90 118 30 21 
152 6 161 43 55 68 14 3 
153 5 78 154 21 79 93 
154 7 112 79 20 87 31 93 38 
155 6 57 95 22 126 44 121 
156 6 124 15 115 100 111 141 
157 3 75 61 22 
158 9 76 19 159 24 25 145 89 109 160 
159 9 24 158 19 89 76 60 145 160 7 
160 9 89 28 19 7 97 159 24 76 158 
161 5 152 43 55 68 3 
162 2 42 6 
DEPOT_SECTION
   1
   -1
EOF
