NAME :  X-n214-kX-w85-c11.cctp
COMMENT : 	Adapted by Maziero, Usberti and Cavellucci from the Uchoa, Pecin, Pessoa, Poggi, Subramanian, and Vidal (2013)
TYPE :  CCTP
DIMENSION :    214
EDGE_WEIGHT_TYPE : 	EUC_2D	
CAPACITY : 	944
VERTICES_WITHIN_COVERAGE :  11
VERTICES_WITH_DEMAND : 	85
NODE_COORD_SECTION
1 500 500
2 753 355
3 663 83
4 725 286
5 581 444
6 700 205
7 630 475
8 560 407
9 848 374
10 752 315
11 454 310
12 685 227
13 747 468
14 540 348
15 882 346
16 762 228
17 884 307
18 681 274
19 761 254
20 791 205
21 699 559
22 694 352
23 679 11
24 656 446
25 428 487
26 838 395
27 554 590
28 567 250
29 769 381
30 753 20
31 710 296
32 653 489
33 711 447
34 516 322
35 704 265
36 742 358
37 578 423
38 923 378
39 451 120
40 449 254
41 626 264
42 701 203
43 751 293
44 835 0
45 810 318
46 640 218
47 493 226
48 483 445
49 671 134
50 465 361
51 521 69
52 894 399
53 824 388
54 605 238
55 848 251
56 561 443
57 663 9
58 768 339
59 634 426
60 590 60
61 735 280
62 842 365
63 671 124
64 680 251
65 615 361
66 558 451
67 884 356
68 746 384
69 687 227
70 855 350
71 656 450
72 560 459
73 591 433
74 451 36
75 747 26
76 753 384
77 530 259
78 739 215
79 537 267
80 742 304
81 509 418
82 667 17
83 534 297
84 605 382
85 470 482
86 817 366
87 815 268
88 728 264
89 778 44
90 856 360
91 818 284
92 666 107
93 628 378
94 538 317
95 715 34
96 875 290
97 495 468
98 584 145
99 725 237
100 563 394
101 775 378
102 587 443
103 535 665
104 696 387
105 704 153
106 667 448
107 557 440
108 682 461
109 762 279
110 824 522
111 764 259
112 759 334
113 750 391
114 893 283
115 900 308
116 595 73
117 641 474
118 597 236
119 294 448
120 852 182
121 526 330
122 735 460
123 901 303
124 639 390
125 545 395
126 494 2
127 741 339
128 795 456
129 783 343
130 694 224
131 756 99
132 698 323
133 683 222
134 704 269
135 769 321
136 596 321
137 605 103
138 507 448
139 567 464
140 743 205
141 622 449
142 767 116
143 745 269
144 603 447
145 634 194
146 832 312
147 796 292
148 662 86
149 608 618
150 489 267
151 837 289
152 478 510
153 569 497
154 611 550
155 749 387
156 683 355
157 682 81
158 701 170
159 653 414
160 584 21
161 683 308
162 659 582
163 668 329
164 662 288
165 897 399
166 770 366
167 540 212
168 606 309
169 581 254
170 582 485
171 848 381
172 828 150
173 536 445
174 531 56
175 707 424
176 587 191
177 770 259
178 702 94
179 823 162
180 644 364
181 570 186
182 552 317
183 626 88
184 999 631
185 860 274
186 354 662
187 625 323
188 654 285
189 785 82
190 650 335
191 637 568
192 449 359
193 885 77
194 552 440
195 810 205
196 628 24
197 728 294
198 733 311
199 750 327
200 727 278
201 618 336
202 537 137
203 718 413
204 725 355
205 710 139
206 723 556
207 449 346
208 731 373
209 349 465
210 572 542
211 612 377
212 711 417
213 678 44
214 604 593
DEMAND_SECTION
2 83
3 84
4 34
5 17
6 88
7 59
8 56
9 33
10 21
11 37
12 15
13 97
14 23
15 76
16 94
17 99
18 30
19 44
20 45
21 8
22 37
23 43
24 15
25 18
26 73
27 65
28 89
29 5
30 13
31 64
32 60
33 20
34 12
35 59
36 25
37 2
38 60
39 61
40 6
41 17
42 65
43 26
44 96
45 21
46 63
47 29
48 24
49 51
50 48
51 65
52 58
53 40
54 34
55 81
56 21
57 51
58 31
59 20
60 34
61 47
62 61
63 2
64 93
65 75
66 85
67 27
68 57
69 86
70 61
71 98
72 76
73 68
74 30
75 72
76 28
77 12
78 24
79 42
80 95
81 3
82 92
83 32
84 59
85 33
86 68
COVERAGE_SECTION
2 11 36 127 166 58 112 199 204 208 76 68 29 
3 11 148 157 92 183 178 63 213 49 137 82 116 
4 11 200 197 61 31 88 80 143 198 43 134 35 
5 11 102 73 56 37 144 66 107 139 72 194 141 
6 11 42 130 133 69 12 158 78 99 140 64 105 
7 11 117 32 141 71 24 144 106 59 170 102 108 
8 11 100 125 37 107 194 56 73 5 66 102 173 
9 11 171 62 90 26 70 53 86 67 15 52 165 
10 11 199 80 135 198 112 43 127 58 197 109 61 
11 11 207 192 50 150 40 34 121 83 94 77 47 
12 11 69 133 130 64 6 42 99 35 46 134 18 
13 11 122 33 128 175 203 212 108 113 155 106 68 
14 11 121 94 182 34 125 83 100 8 136 84 50 
15 11 67 70 90 17 115 9 62 123 171 38 52 
16 11 19 78 140 111 177 20 99 143 88 109 195 
17 11 115 123 96 114 15 185 67 151 70 146 90 
18 11 64 134 164 35 188 161 31 4 200 12 69 
19 11 111 177 143 109 16 88 61 43 99 200 78 
20 11 195 16 140 78 179 19 177 111 120 172 87 
21 11 206 162 191 32 154 108 214 13 117 122 149 
22 11 156 132 204 104 163 208 161 190 36 127 180 
23 11 82 57 213 95 196 75 157 3 30 148 178 
24 11 71 106 59 108 117 159 141 7 32 144 33 
25 11 85 152 48 97 209 138 81 173 192 50 194 
26 11 53 171 9 62 86 90 70 52 165 67 101 
27 11 214 210 149 154 103 191 153 162 170 152 139 
28 11 169 118 79 77 54 167 83 41 176 181 182 
29 11 101 166 76 113 155 68 2 36 208 129 58 
30 11 75 89 95 189 23 131 213 44 82 178 57 
31 11 4 197 200 198 134 61 132 161 35 80 18 
32 11 117 7 71 108 24 106 141 144 59 170 33 
33 11 175 122 212 108 203 13 106 24 71 104 159 
34 11 121 94 83 14 182 79 150 11 50 77 207 
35 11 134 88 18 200 64 4 31 61 99 197 143 
36 11 2 204 127 208 68 76 112 166 155 58 199 
37 11 73 5 102 8 56 107 194 100 66 144 72 
38 11 165 52 67 15 90 70 115 9 171 123 17 
39 11 74 51 202 174 47 126 167 40 98 181 60 
40 11 150 47 11 77 79 207 34 83 167 192 50 
41 11 54 188 118 164 169 46 168 18 64 187 28 
42 11 6 130 133 69 12 158 78 99 140 105 64 
43 11 80 109 61 10 197 143 198 4 200 135 199 
44 11 89 30 75 193 189 95 131 142 172 23 179 
45 11 146 147 91 129 151 135 58 86 87 112 70 
46 11 145 54 133 12 118 41 69 64 130 176 6 
47 11 150 167 77 40 79 28 83 181 169 11 34 
48 11 138 97 81 85 173 152 25 194 107 66 56 
49 11 63 92 105 205 158 148 178 3 157 183 145 
50 11 192 207 11 34 121 81 14 94 48 125 83 
51 11 174 60 202 126 116 74 160 39 137 98 183 
52 11 165 38 67 171 9 15 90 26 62 70 53 
53 11 26 86 171 9 62 90 70 101 29 166 129 
54 11 118 169 41 28 46 176 145 181 188 167 168 
55 11 185 87 151 91 96 114 195 146 147 17 120 
56 11 107 66 194 72 5 139 173 37 102 73 8 
57 11 82 23 196 213 95 3 157 148 160 75 183 
58 11 112 129 135 2 199 127 166 10 36 101 29 
59 11 159 141 24 71 124 144 106 73 93 7 117 
60 11 116 160 137 183 196 174 51 3 148 98 82 
61 11 200 4 143 197 88 43 80 109 31 198 134 
62 11 9 90 171 70 86 53 26 67 15 146 45 
63 11 49 92 148 3 205 178 105 157 158 183 137 
64 11 18 12 69 35 133 130 134 164 188 99 6 
65 11 211 93 84 201 180 124 187 136 190 168 100 
66 11 72 56 107 194 139 173 5 102 37 73 170 
67 11 15 90 70 9 62 52 171 38 165 17 115 
68 11 155 76 113 208 29 36 2 101 166 204 203 
69 11 12 133 130 64 6 42 99 35 134 18 46 
70 11 90 62 9 15 67 171 86 146 26 53 17 
71 11 24 106 108 117 59 141 7 159 32 144 33 
72 11 66 139 56 107 194 5 173 102 170 153 37 
73 11 102 5 37 144 56 107 141 66 139 8 72 
74 11 126 51 174 39 202 160 60 116 137 98 196 
75 11 30 95 89 189 23 213 131 82 178 157 57 
76 11 155 68 113 29 101 166 208 36 2 204 203 
77 11 79 28 83 150 167 47 169 94 182 34 118 
78 11 140 16 99 6 42 19 130 88 111 20 69 
79 11 77 83 28 169 150 94 182 167 34 47 121 
80 11 198 43 10 197 199 4 61 200 109 135 31 
81 11 138 48 173 125 194 8 97 107 56 66 100 
82 11 57 23 213 196 95 3 157 148 75 183 160 
83 11 94 182 79 34 121 77 14 150 28 169 136 
84 11 211 65 93 124 180 100 201 37 8 59 73 
85 11 97 152 48 25 138 81 173 194 66 72 107 
86 11 53 62 9 171 26 90 70 129 101 166 45 
87 11 91 151 147 55 185 177 146 45 111 109 19 
88 11 200 61 143 4 35 134 99 197 19 111 31 
89 11 30 75 189 131 95 44 142 178 213 157 23 
90 11 70 62 9 171 67 15 26 86 53 52 146 
91 11 87 151 147 146 45 185 55 177 109 96 111 
92 11 63 148 3 49 157 178 183 205 105 137 213 
93 11 124 211 65 180 84 201 159 59 190 187 156 
94 11 182 121 83 34 14 79 136 77 168 150 28 
95 11 75 213 30 23 82 157 57 178 89 3 148 
96 11 17 114 185 123 115 151 55 146 15 91 70 
97 11 138 48 85 152 173 81 194 66 72 107 25 
98 11 181 176 137 202 145 183 116 167 60 49 63 
99 11 78 88 130 35 140 16 134 143 69 19 6 
100 11 8 125 37 84 107 194 73 56 14 211 5 
101 11 29 166 76 113 155 68 2 129 36 58 86 
102 11 5 73 144 37 56 139 66 107 72 194 141 
103 11 27 149 214 210 154 191 162 152 153 186 170 
104 11 203 212 22 156 208 175 204 68 159 155 36 
105 11 205 158 49 63 42 6 178 92 140 78 130 
106 11 24 71 108 117 159 59 32 33 141 7 175 
107 11 56 194 66 72 173 5 139 37 102 8 73 
108 11 106 71 24 33 32 117 175 122 212 7 159 
109 11 43 111 143 177 19 61 80 200 147 10 88 
110 11 128 13 206 122 26 21 53 33 52 165 171 
111 11 19 177 109 143 16 43 61 88 200 99 147 
112 11 58 199 135 127 10 2 129 36 80 166 198 
113 11 155 68 76 29 208 101 166 36 2 203 204 
114 11 96 123 17 115 185 55 151 15 146 67 91 
115 11 123 17 114 96 15 67 185 70 151 90 146 
116 11 60 137 183 160 196 174 148 3 98 51 92 
117 11 7 32 71 141 24 106 108 144 59 170 159 
118 11 54 169 28 41 176 46 145 181 167 79 77 
119 11 209 25 85 192 207 48 50 152 97 11 138 
120 11 179 172 195 20 55 185 87 16 91 142 151 
121 11 34 94 14 182 83 79 50 125 77 136 150 
122 11 13 33 175 212 203 108 128 106 113 155 68 
123 11 115 17 114 96 15 185 67 70 151 146 90 
124 11 93 180 159 211 84 59 65 156 190 104 201 
125 11 100 8 37 81 194 14 107 56 173 66 73 
126 11 74 174 51 160 60 116 39 196 202 137 183 
127 11 199 36 112 2 204 10 58 198 135 80 208 
128 11 13 122 110 53 26 29 113 101 76 155 33 
129 11 58 112 135 166 2 101 45 199 29 86 10 
130 11 69 12 133 6 42 64 99 35 78 134 18 
131 11 142 189 178 89 205 75 105 157 95 30 172 
132 11 161 22 31 163 156 198 197 204 4 127 80 
133 11 12 69 130 6 42 64 46 99 35 134 18 
134 11 35 18 88 200 4 31 64 61 197 99 143 
135 11 112 10 58 199 129 80 43 127 198 2 147 
136 11 168 201 187 65 182 190 94 211 14 84 41 
137 11 183 116 60 98 148 3 92 63 49 202 157 
138 11 97 48 173 81 194 85 66 107 56 72 139 
139 11 72 66 56 5 107 170 194 102 153 173 73 
140 11 78 16 99 42 6 20 19 130 158 111 69 
141 11 144 59 7 117 24 71 73 102 5 106 159 
142 11 131 189 205 178 172 179 89 105 158 20 75 
143 11 61 88 109 200 111 19 43 4 177 197 80 
144 11 102 73 141 5 37 59 7 139 56 170 66 
145 11 46 176 54 118 133 12 69 181 6 130 42 
146 11 45 151 91 147 70 87 185 96 17 62 90 
147 11 91 45 87 109 135 146 151 177 43 111 10 
148 11 3 92 157 183 63 178 213 49 137 116 82 
149 11 214 191 27 162 154 210 103 21 153 206 170 
150 11 47 40 77 79 83 11 34 94 121 167 28 
151 11 91 146 185 87 96 45 55 147 17 114 70 
152 11 85 97 25 48 138 173 153 72 81 66 210 
153 11 170 139 72 210 66 5 56 102 107 194 144 
154 11 191 210 214 162 149 153 27 170 32 7 117 
155 11 68 113 76 29 208 101 36 166 2 203 204 
156 11 22 163 104 132 190 180 204 161 208 124 36 
157 11 3 148 178 92 213 63 49 183 95 205 82 
158 11 105 205 42 6 49 130 63 133 140 12 69 
159 11 59 124 24 71 106 93 141 104 180 108 175 
160 11 60 196 116 174 51 183 57 82 137 126 23 
161 11 132 163 164 31 18 188 190 134 22 4 156 
162 11 191 21 214 154 149 206 32 210 27 117 7 
163 11 190 161 156 132 22 164 180 187 188 201 31 
164 11 188 18 161 64 163 41 134 35 31 190 132 
165 11 52 38 67 171 9 15 90 26 62 70 53 
166 11 101 29 2 76 129 58 36 68 155 113 112 
167 11 181 28 77 47 176 79 169 118 54 150 202 
168 11 136 187 201 41 190 65 188 182 164 169 163 
169 11 28 118 54 41 79 77 167 168 176 83 46 
170 11 153 139 72 5 66 102 144 56 7 107 73 
171 11 9 26 62 90 53 70 86 67 15 52 165 
172 11 179 120 195 20 142 189 131 193 140 16 55 
173 11 194 107 66 56 72 138 139 81 5 8 37 
174 11 51 60 160 126 116 202 74 137 183 39 196 
175 11 212 203 33 104 108 122 106 113 159 24 68 
176 11 181 98 118 145 54 167 46 28 169 202 41 
177 11 111 19 109 143 16 43 61 88 147 87 200 
178 11 157 92 3 148 63 205 49 131 213 105 95 
179 11 172 120 195 20 142 189 16 140 55 131 78 
180 11 93 124 65 190 211 201 156 163 84 187 22 
181 11 176 167 98 118 202 54 28 145 169 46 77 
182 11 94 83 121 14 34 136 79 168 77 28 169 
183 11 137 116 148 3 92 60 157 63 49 196 213 
184 11 110 165 52 38 128 26 206 171 9 67 53 
185 11 96 55 151 114 17 91 87 146 123 115 147 
186 11 103 25 152 209 27 85 119 97 210 48 149 
187 11 201 168 190 136 65 163 180 188 164 93 211 
188 11 164 18 41 161 64 163 187 190 134 35 168 
189 11 131 142 89 75 30 172 178 95 179 205 44 
190 11 163 187 180 201 156 161 65 22 93 132 164 
191 11 162 154 214 149 21 210 32 27 206 7 117 
192 11 207 50 11 34 121 81 14 48 94 150 125 
193 11 44 172 189 179 120 89 142 131 30 75 195 
194 11 107 56 66 173 72 139 5 37 8 102 73 
195 11 20 179 120 16 172 55 87 140 177 19 111 
196 11 57 82 160 60 23 213 116 183 3 148 157 
197 11 4 61 200 80 31 198 43 88 143 10 134 
198 11 80 197 10 199 43 4 31 127 61 200 112 
199 11 112 10 127 135 58 198 80 2 36 43 129 
200 11 4 61 88 197 143 31 134 35 43 80 198 
201 11 187 65 136 168 190 180 211 93 84 163 124 
202 11 98 181 51 176 167 137 174 116 39 60 47 
203 11 212 175 104 33 113 68 155 208 76 122 204 
204 11 36 208 127 2 22 68 199 76 112 155 132 
205 11 105 158 49 63 178 92 131 142 157 42 6 
206 11 21 162 191 13 32 122 108 110 33 154 117 
207 11 192 50 11 34 121 150 14 40 81 94 83 
208 11 36 68 204 155 76 113 2 127 104 29 166 
209 11 119 25 85 48 152 97 192 207 50 138 81 
210 11 154 153 27 170 214 191 139 72 149 7 66 
211 11 84 65 93 124 180 201 100 59 159 187 37 
212 11 175 203 33 104 113 68 155 208 122 76 108 
213 11 82 23 157 57 95 3 148 196 178 92 183 
214 11 149 191 154 27 162 210 103 21 153 170 32 
DEPOT_SECTION
   1
   -1
EOF
