NAME :  X-n219-kX-w43-c7.cctp
COMMENT : 	Adapted by Maziero, Usberti and Cavellucci from the Uchoa, Pecin, Pessoa, Poggi, Subramanian, and Vidal (2013)
TYPE :  CCTP
DIMENSION :    181
EDGE_WEIGHT_TYPE : 	EUC_2D	
CAPACITY : 	3
VERTICES_WITHIN_COVERAGE :  7
VERTICES_WITH_DEMAND : 	43
NODE_COORD_SECTION
1 0 0
2 18 761
3 835 397
4 299 16
5 31 168
6 142 257
7 242 984
8 612 357
9 663 812
10 105 188
11 487 636
12 993 703
13 672 148
14 506 259
15 953 706
16 888 203
17 107 534
18 772 692
19 475 182
20 828 775
21 719 220
22 655 722
23 844 197
24 918 600
25 460 844
26 739 102
27 301 523
28 341 627
29 989 936
30 935 602
31 44 72
32 861 67
33 163 416
34 981 503
35 722 397
36 317 903
37 547 95
38 944 106
39 935 192
40 128 376
41 908 176
42 720 226
43 738 793
44 791 498
45 712 751
46 530 693
47 380 544
48 634 301
49 427 853
50 47 557
51 48 202
52 791 67
53 546 876
54 526 842
55 535 216
56 828 214
57 829 352
58 374 1000
59 74 187
60 726 789
61 51 597
62 894 395
63 301 893
64 978 261
65 709 153
66 391 153
67 876 370
68 846 725
69 604 107
70 507 89
71 476 204
72 181 957
73 948 710
74 414 685
75 358 66
76 456 931
77 459 43
78 555 414
79 94 964
80 558 360
81 641 424
82 132 16
83 25 205
84 852 45
85 5 686
86 400 682
87 501 234
88 905 968
89 817 114
90 817 643
91 333 829
92 223 584
93 206 549
94 542 691
95 296 10
96 9 553
97 411 59
98 382 800
99 824 612
100 608 727
101 481 574
102 169 950
103 350 608
104 396 536
105 36 459
106 10 569
107 813 10
108 569 627
109 692 467
110 166 178
111 247 413
112 738 487
113 508 327
114 158 986
115 983 244
116 637 109
117 177 207
118 361 972
119 365 701
120 932 452
121 60 66
122 252 267
123 944 435
124 338 688
125 900 168
126 852 59
127 921 72
128 845 534
129 812 354
130 5 404
131 590 575
132 930 128
133 832 466
134 32 531
135 966 58
136 31 40
137 162 539
138 621 425
139 802 495
140 385 493
141 769 329
142 921 15
143 64 106
144 854 678
145 943 122
146 103 285
147 398 212
148 335 459
149 43 108
150 935 851
151 179 147
152 822 749
153 60 32
154 783 760
155 218 360
156 321 463
157 403 172
158 32 134
159 218 490
160 44 456
161 430 570
162 896 875
163 509 572
164 424 936
165 914 852
166 984 435
167 479 341
168 207 937
169 709 700
170 557 130
171 270 964
172 482 320
173 60 761
174 836 272
175 509 379
176 819 754
177 176 910
178 648 809
179 640 892
180 838 79
181 552 232
DEMAND_SECTION
2 1
3 1
4 1
5 1
6 1
7 1
8 1
9 1
10 1
11 1
12 1
13 1
14 1
15 1
16 1
17 1
18 1
19 1
20 1
21 1
22 1
23 1
24 1
25 1
26 1
27 1
28 1
29 1
30 1
31 1
32 1
33 1
34 1
35 1
36 1
37 1
38 1
39 1
40 1
41 1
42 1
43 1
44 1
COVERAGE_SECTION
2 3 173 85 61 
3 7 57 67 129 62 133 141 139 
4 7 95 75 97 77 66 82 151 
5 7 158 83 51 59 149 143 10 
6 7 146 117 10 110 59 51 122 
7 7 171 168 72 102 114 177 63 
8 7 80 48 138 81 78 175 113 
9 6 178 60 43 45 179 22 
10 7 59 51 110 117 5 6 83 
11 7 101 163 46 94 108 161 74 
12 7 15 73 30 24 144 68 150 
13 7 65 116 69 26 21 42 170 
14 7 87 55 181 71 172 113 19 
15 7 73 12 144 30 68 24 152 
16 7 41 125 23 39 56 132 174 
17 7 137 50 134 61 93 96 160 
18 7 169 90 154 152 176 68 144 
19 7 71 87 55 157 14 147 66 
20 7 176 152 154 68 43 18 144 
21 7 42 65 13 56 48 26 141 
22 7 100 169 45 178 9 60 43 
23 7 56 16 125 41 174 89 39 
24 7 30 99 128 144 90 15 73 
25 6 49 54 76 98 53 164 
26 7 65 52 89 13 116 180 107 
27 7 156 148 47 140 159 104 93 
28 7 103 124 119 86 47 74 104 
29 4 88 150 162 165 
30 7 24 15 34 73 99 144 128 
31 7 121 136 149 143 153 158 5 
32 7 126 84 180 127 89 52 107 
33 6 40 155 111 159 137 160 
34 7 166 120 123 30 24 62 128 
35 7 109 141 81 112 129 138 3 
36 7 63 91 171 118 7 164 58 
37 7 170 70 69 116 77 19 55 
38 7 145 132 127 135 125 41 39 
39 7 41 125 16 132 145 115 64 
40 7 33 155 146 160 6 105 111 
41 7 125 39 16 132 145 23 38 
42 7 21 65 13 56 48 141 26 
43 7 60 45 154 9 176 178 20 
44 7 139 133 112 128 109 3 99 
45 7 60 43 169 22 154 9 18 
46 7 94 11 108 100 74 163 22 
47 7 104 140 161 103 27 28 148 
48 7 8 80 181 42 21 81 138 
49 7 25 98 76 164 91 54 36 
50 6 134 96 106 61 17 105 
51 7 83 59 5 10 158 149 143 
52 7 180 89 107 126 26 84 32 
53 3 54 25 179 
54 6 53 25 49 76 179 178 
55 7 181 87 14 71 19 170 113 
56 7 23 174 16 125 41 89 21 
57 7 129 3 67 141 62 174 133 
58 6 118 164 76 171 36 63 
59 7 51 10 5 83 158 143 149 
60 7 43 45 154 9 178 169 22 
61 6 50 106 96 134 17 85 
62 7 67 3 123 120 57 129 133 
63 6 36 91 171 118 168 7 
64 6 115 39 16 41 125 132 
65 7 13 26 21 42 116 69 89 
66 6 157 147 19 75 97 71 
67 6 62 3 57 129 123 120 
68 7 152 176 144 20 154 18 90 
69 7 116 170 37 13 70 65 55 
70 7 37 170 77 19 69 97 71 
71 7 19 87 55 14 147 157 181 
72 7 102 168 114 177 7 79 171 
73 7 15 12 144 68 30 24 152 
74 6 86 119 124 11 28 103 
75 7 97 4 95 66 77 157 70 
76 5 164 49 25 118 53 
77 7 97 70 37 75 66 170 19 
78 6 80 175 138 8 81 113 
79 7 114 102 72 177 168 7 171 
80 7 175 8 78 113 167 172 138 
81 5 138 109 8 35 78 
82 7 153 121 31 136 143 149 151 
83 7 51 5 59 158 10 149 143 
84 7 126 32 180 107 52 127 142 
85 6 2 173 61 106 96 50 
86 6 74 119 124 28 103 11 
87 7 14 55 71 181 19 172 113 
88 4 29 162 165 150 
89 7 180 52 32 126 84 26 23 
90 7 99 144 18 68 152 24 176 
91 4 98 63 36 49 
92 4 93 137 159 27 
93 5 92 137 159 27 17 
94 7 46 108 100 11 22 163 131 
95 7 4 75 97 82 77 66 151 
96 6 106 134 50 61 105 17 
97 7 77 75 66 70 157 4 95 
98 5 91 49 25 119 74 
99 7 90 144 128 18 24 30 68 
100 7 22 94 46 178 9 169 45 
101 7 163 161 11 104 108 47 131 
102 7 72 114 168 177 79 7 171 
103 7 28 47 124 104 86 161 119 
104 7 47 140 161 103 101 27 148 
105 6 160 130 134 96 50 17 
106 6 96 50 134 61 17 105 
107 7 84 52 126 180 32 89 142 
108 7 131 94 46 163 11 101 100 
109 5 112 81 35 138 44 
110 7 117 151 10 6 59 51 122 
111 3 155 159 33 
112 5 109 44 139 35 133 
113 6 172 167 175 80 14 87 
114 7 72 102 79 168 177 7 171 
115 6 64 39 41 16 125 132 
116 7 69 13 170 65 37 26 70 
117 7 110 151 6 10 122 59 146 
118 7 58 164 36 171 63 76 7 
119 5 124 86 74 28 103 
120 7 123 166 62 34 67 133 3 
121 7 31 153 136 143 149 158 82 
122 4 117 155 6 110 
123 6 120 166 62 34 67 3 
124 5 119 28 86 74 103 
125 7 41 16 39 132 23 145 38 
126 7 32 84 180 52 107 89 127 
127 7 38 135 145 132 142 32 126 
128 7 139 44 133 99 24 30 90 
129 7 57 3 141 67 174 62 35 
130 6 105 160 40 134 96 146 
131 5 108 163 101 11 94 
132 7 145 38 125 41 127 39 135 
133 7 139 44 3 128 62 112 120 
134 6 50 96 106 61 105 17 
135 7 127 38 142 145 132 32 126 
136 7 153 31 121 149 143 158 82 
137 6 93 17 159 92 50 33 
138 5 81 78 8 109 80 
139 7 44 133 128 112 3 109 99 
140 6 104 47 148 156 27 161 
141 7 129 57 35 174 3 42 67 
142 7 127 135 84 32 126 38 180 
143 7 149 31 121 158 5 136 153 
144 7 68 90 99 152 18 176 73 
145 7 132 38 127 125 41 135 39 
146 7 6 40 10 51 59 117 83 
147 5 157 66 71 19 87 
148 4 156 140 27 47 
149 7 143 158 31 121 5 136 153 
150 7 165 162 29 88 20 73 15 
151 7 110 117 10 59 6 143 82 
152 7 176 20 68 154 18 144 43 
153 7 136 121 31 82 143 149 158 
154 7 176 152 20 43 60 18 45 
155 4 111 33 40 122 
156 4 148 27 140 111 
157 5 66 147 19 71 97 
158 7 149 5 143 31 59 51 83 
159 6 93 137 111 27 33 92 
160 6 105 130 134 17 50 96 
161 7 104 101 47 163 11 103 140 
162 5 165 150 88 29 20 
163 7 101 11 161 108 131 104 46 
164 6 76 118 58 49 25 36 
165 6 150 162 29 20 88 176 
166 6 123 120 34 62 67 3 
167 6 172 113 175 80 14 78 
168 7 72 102 177 7 114 171 63 
169 7 45 22 18 60 154 43 100 
170 7 37 69 70 116 55 19 181 
171 7 7 168 36 63 72 118 102 
172 6 167 113 175 14 80 87 
173 2 2 85 
174 7 56 23 57 129 16 141 67 
175 6 167 113 80 78 172 8 
176 7 152 20 154 68 18 144 43 
177 7 102 168 72 114 79 7 171 
178 6 9 60 179 45 22 43 
179 3 9 178 53 
180 7 126 32 84 89 52 107 127 
181 7 55 87 14 71 19 170 113 
DEPOT_SECTION
   1
   -1
EOF
