NAME :  X-n209-kX-w83-c7.cctp
COMMENT : 	Adapted by Maziero, Usberti and Cavellucci from the Uchoa, Pecin, Pessoa, Poggi, Subramanian, and Vidal (2013)
TYPE :  CCTP
DIMENSION :    204
EDGE_WEIGHT_TYPE : 	EUC_2D	
CAPACITY : 	101
VERTICES_WITHIN_COVERAGE :  7
VERTICES_WITH_DEMAND : 	83
NODE_COORD_SECTION
1 0 0
2 487 949
3 492 770
4 150 556
5 130 719
6 962 393
7 54 890
8 861 705
9 338 631
10 119 741
11 48 296
12 982 827
13 18 954
14 558 698
15 857 337
16 963 72
17 218 46
18 705 484
19 315 3
20 331 358
21 688 156
22 314 338
23 214 428
24 193 866
25 381 924
26 968 10
27 797 382
28 733 544
29 956 878
30 576 270
31 257 778
32 713 605
33 270 940
34 880 401
35 245 168
36 973 29
37 888 919
38 943 703
39 364 248
40 932 60
41 575 18
42 663 990
43 667 351
44 85 708
45 801 330
46 261 91
47 163 953
48 509 249
49 237 336
50 791 356
51 314 168
52 356 726
53 260 412
54 630 144
55 534 255
56 356 444
57 448 320
58 987 333
59 691 109
60 319 476
61 83 716
62 395 818
63 605 769
64 633 162
65 651 644
66 221 4
67 551 912
68 762 604
69 337 41
70 156 318
71 756 357
72 749 173
73 535 235
74 719 700
75 900 564
76 717 4
77 337 441
78 759 103
79 615 132
80 365 498
81 42 268
82 952 2
83 989 303
84 471 821
85 650 215
86 302 881
87 61 459
88 391 405
89 364 170
90 643 744
91 324 620
92 92 914
93 133 607
94 223 949
95 988 415
96 943 616
97 764 6
98 659 250
99 766 532
100 730 338
101 850 489
102 481 467
103 564 296
104 469 531
105 538 121
106 997 183
107 127 966
108 880 538
109 300 985
110 781 68
111 884 92
112 438 673
113 591 658
114 928 894
115 107 816
116 581 799
117 46 288
118 548 0
119 379 725
120 186 490
121 947 161
122 702 712
123 230 722
124 40 891
125 362 568
126 26 614
127 396 104
128 756 658
129 818 433
130 236 62
131 314 56
132 276 466
133 789 828
134 626 677
135 626 156
136 369 506
137 207 461
138 566 842
139 676 871
140 135 983
141 956 181
142 5 209
143 10 57
144 499 617
145 369 482
146 975 194
147 882 465
148 716 147
149 740 993
150 77 480
151 742 233
152 869 824
153 809 987
154 999 514
155 748 391
156 366 917
157 272 875
158 0 9
159 260 359
160 449 208
161 278 711
162 422 445
163 341 448
164 683 498
165 930 690
166 184 567
167 257 360
168 783 645
169 282 884
170 978 688
171 514 349
172 343 552
173 290 171
174 675 414
175 386 86
176 575 26
177 863 973
178 223 412
179 958 176
180 391 824
181 228 93
182 704 946
183 938 995
184 159 343
185 698 106
186 361 937
187 201 120
188 158 852
189 786 630
190 91 909
191 291 333
192 575 931
193 60 763
194 321 837
195 154 302
196 490 215
197 612 394
198 70 159
199 972 987
200 527 340
201 34 241
202 688 334
203 878 485
204 124 413
DEMAND_SECTION
2 7
3 6
4 7
5 8
6 10
7 7
8 7
9 10
10 8
11 5
12 6
13 5
14 6
15 5
16 8
17 5
18 8
19 6
20 6
21 7
22 5
23 9
24 10
25 6
26 6
27 6
28 7
29 8
30 9
31 7
32 6
33 6
34 10
35 5
36 5
37 8
38 10
39 9
40 9
41 6
42 7
43 9
44 9
45 10
46 9
47 10
48 10
49 8
50 7
51 10
52 5
53 9
54 8
55 7
56 5
57 9
58 10
59 6
60 9
61 6
62 5
63 8
64 8
65 6
66 8
67 8
68 6
69 6
70 5
71 10
72 8
73 6
74 9
75 6
76 8
77 10
78 7
79 9
80 7
81 10
82 6
83 10
84 6
COVERAGE_SECTION
2 7 67 192 25 156 186 84 138 
3 7 84 116 14 138 62 112 63 
4 7 166 93 120 150 137 87 126 
5 7 10 44 61 193 115 123 93 
6 7 95 58 34 83 147 15 203 
7 7 124 190 92 13 115 107 188 
8 7 165 38 168 189 128 170 152 
9 7 91 125 172 52 161 119 112 
10 7 5 61 44 193 115 123 188 
11 7 117 81 201 142 195 70 184 
12 7 29 114 152 38 37 170 165 
13 7 124 7 92 190 107 140 47 
14 7 113 134 63 90 3 144 116 
15 7 45 34 50 27 71 129 6 
16 7 40 36 26 82 111 121 179 
17 7 130 66 181 46 187 131 19 
18 7 164 28 174 99 155 32 129 
19 7 69 131 66 130 46 17 175 
20 7 22 191 159 167 88 77 53 
21 7 148 59 185 64 54 135 72 
22 7 191 20 159 167 49 53 88 
23 7 178 137 53 120 132 167 159 
24 7 188 157 94 169 47 115 33 
25 7 156 186 86 180 109 194 62 
26 7 82 36 16 40 111 121 179 
27 7 50 71 155 45 129 15 100 
28 7 99 32 18 68 164 189 168 
29 7 114 12 37 152 199 183 177 
30 7 103 55 73 48 98 200 85 
31 7 123 161 194 157 24 169 52 
32 7 68 28 128 65 189 168 99 
33 7 94 109 169 157 86 186 156 
34 7 147 15 129 6 203 27 101 
35 7 173 187 51 181 46 130 89 
36 7 26 82 16 40 111 121 179 
37 7 114 177 29 183 152 153 199 
38 7 165 170 8 96 12 152 75 
39 7 89 51 160 22 173 57 191 
40 6 16 36 111 82 26 121 
41 6 176 118 105 79 54 76 
42 7 182 149 192 139 67 153 138 
43 7 202 100 174 197 71 155 98 
44 7 61 5 10 193 115 126 93 
45 7 50 27 71 15 100 155 129 
46 7 181 130 17 131 187 35 173 
47 7 107 140 94 92 190 24 188 
48 7 55 73 196 30 103 160 200 
49 7 167 159 191 22 178 184 53 
50 7 27 45 71 155 100 15 129 
51 7 173 89 35 46 39 127 175 
52 7 119 161 9 112 62 180 91 
53 7 178 23 167 159 132 137 49 
54 7 135 64 79 21 59 85 185 
55 7 73 48 30 103 196 200 171 
56 7 163 77 145 60 88 80 136 
57 7 171 200 48 88 55 39 160 
58 7 83 6 95 34 15 146 106 
59 7 185 148 21 78 54 64 79 
60 7 163 77 132 56 145 80 136 
61 7 44 10 5 193 115 126 93 
62 7 180 84 194 119 52 156 25 
63 7 116 90 138 14 134 113 3 
64 7 135 54 79 21 85 59 148 
65 7 134 113 32 122 74 90 128 
66 7 17 130 181 19 46 131 187 
67 7 192 138 2 116 84 139 42 
68 7 189 168 32 128 28 99 74 
69 7 131 19 175 127 46 130 17 
70 7 195 184 49 204 167 11 159 
71 7 100 50 155 27 45 202 43 
72 7 148 151 21 78 185 59 85 
73 7 55 48 196 30 103 160 200 
74 7 122 128 168 65 90 32 134 
75 7 108 96 203 101 147 154 165 
76 7 97 110 185 59 78 41 148 
77 7 163 56 60 145 80 88 132 
78 7 110 185 148 59 72 21 97 
79 7 54 135 64 21 105 59 185 
80 7 136 145 60 56 163 172 77 
81 7 117 201 11 142 198 195 70 
82 7 26 36 40 16 111 121 179 
83 7 58 6 146 95 106 141 179 
84 7 3 62 180 138 116 67 2 
85 7 98 64 135 21 54 79 30 
86 7 169 157 194 33 156 186 25 
87 7 150 204 120 4 137 184 23 
88 7 162 56 77 163 20 145 80 
89 6 51 127 173 39 175 160 
90 7 63 122 134 116 74 14 65 
91 7 9 125 172 161 52 119 136 
92 7 190 7 124 107 47 140 13 
93 7 4 166 126 5 44 61 120 
94 7 33 47 109 24 169 157 140 
95 7 6 58 154 34 83 147 203 
96 7 75 165 170 38 108 154 8 
97 7 76 110 78 185 59 111 148 
98 7 85 30 151 202 64 21 135 
99 7 28 68 18 32 164 101 189 
100 7 71 202 155 43 50 45 27 
101 7 203 147 108 129 75 34 99 
102 6 162 104 88 145 136 80 
103 7 30 55 200 73 48 171 98 
104 7 102 144 162 136 80 145 125 
105 5 79 54 135 176 64 
106 5 146 179 141 121 16 
107 7 140 47 92 190 94 7 13 
108 7 75 203 101 147 96 99 154 
109 7 33 186 94 156 25 169 86 
110 7 78 97 76 185 59 148 111 
111 6 40 16 121 110 36 179 
112 7 119 144 52 9 3 14 91 
113 7 134 14 65 90 144 63 122 
114 7 29 37 12 152 183 177 199 
115 7 188 193 10 7 190 24 92 
116 7 63 138 90 3 14 84 67 
117 7 11 81 201 142 195 70 184 
118 5 41 176 105 79 54 
119 7 52 112 62 180 161 9 91 
120 7 137 23 4 166 178 132 204 
121 5 179 141 146 106 16 
122 7 74 90 128 134 65 168 32 
123 7 161 31 5 10 52 91 9 
124 7 7 190 92 13 115 107 188 
125 7 172 136 91 9 80 145 60 
126 7 93 44 61 4 150 5 193 
127 5 175 89 69 131 51 
128 7 168 189 68 74 32 122 65 
129 7 27 101 34 147 203 50 155 
130 7 17 181 46 66 187 131 19 
131 7 69 19 46 130 175 181 127 
132 7 60 53 77 163 137 23 178 
133 7 152 139 37 8 122 182 74 
134 7 113 65 90 14 122 63 74 
135 7 64 54 79 21 85 59 185 
136 7 80 145 172 60 125 56 163 
137 7 23 120 178 132 53 204 166 
138 7 116 67 63 192 84 3 139 
139 7 182 138 192 116 42 133 63 
140 7 107 47 92 190 94 13 7 
141 5 179 121 146 106 16 
142 7 201 81 198 117 11 143 195 
143 7 158 198 142 201 187 17 81 
144 7 112 104 14 113 134 125 102 
145 7 80 136 56 163 60 77 162 
146 5 141 106 179 121 83 
147 7 203 101 34 129 108 75 6 
148 7 21 72 59 185 78 64 54 
149 7 182 153 42 177 139 37 133 
150 7 87 204 4 120 137 166 93 
151 7 72 98 148 21 85 100 45 
152 7 133 114 37 29 12 8 38 
153 7 177 149 37 182 183 42 114 
154 7 95 75 96 108 203 6 147 
155 7 71 27 50 100 174 45 129 
156 7 25 186 86 169 194 109 180 
157 7 169 86 194 33 24 94 31 
158 7 143 198 142 17 66 187 201 
159 7 167 49 191 53 22 178 20 
160 6 196 48 73 89 39 55 
161 7 123 31 52 9 91 119 194 
162 7 88 102 145 56 80 136 163 
163 7 77 56 60 145 80 136 88 
164 7 18 28 174 99 32 155 197 
165 7 38 170 8 96 75 12 152 
166 7 4 93 120 137 132 150 23 
167 7 159 49 191 53 22 178 20 
168 7 189 128 68 32 74 8 122 
169 7 157 86 33 194 94 156 24 
170 7 38 165 96 8 12 75 152 
171 7 200 57 103 55 30 48 197 
172 7 125 136 80 91 145 9 60 
173 7 51 35 89 46 181 187 39 
174 7 43 197 18 155 202 164 100 
175 5 127 69 131 89 19 
176 6 41 118 105 79 54 135 
177 7 153 37 183 114 199 149 29 
178 7 23 53 137 167 159 132 49 
179 5 141 121 146 106 16 
180 7 62 194 84 156 25 119 52 
181 7 130 46 187 17 35 66 131 
182 7 149 42 139 153 192 133 67 
183 7 199 177 37 114 29 153 12 
184 7 70 195 49 204 178 167 23 
185 7 59 148 21 78 54 72 64 
186 7 156 25 109 86 33 169 157 
187 7 181 35 46 130 17 173 66 
188 7 24 115 190 92 47 7 157 
189 7 168 68 128 32 74 99 28 
190 7 92 7 124 107 47 13 140 
191 7 22 159 167 20 49 53 178 
192 7 67 138 2 42 139 182 116 
193 7 61 44 10 115 5 7 124 
194 7 86 169 157 180 62 31 156 
195 7 70 184 49 11 117 204 81 
196 6 48 160 73 55 30 105 
197 6 174 43 202 200 171 103 
198 7 142 201 81 143 117 187 11 
199 7 183 114 37 29 177 12 153 
200 7 171 103 57 30 55 48 197 
201 7 81 142 117 11 198 195 70 
202 7 43 100 71 174 155 98 197 
203 7 147 101 108 129 75 34 99 
204 7 87 184 150 23 137 120 178 
DEPOT_SECTION
   1
   -1
EOF
