NAME :  X-n298-kX-w59-c7.cctp
COMMENT : 	Adapted by Maziero, Usberti and Cavellucci from the Uchoa, Pecin, Pessoa, Poggi, Subramanian, and Vidal (2013)
TYPE :  CCTP
DIMENSION :    231
EDGE_WEIGHT_TYPE : 	EUC_2D	
CAPACITY : 	55
VERTICES_WITHIN_COVERAGE :  7
VERTICES_WITH_DEMAND : 	59
NODE_COORD_SECTION
1 440 732
2 221 348
3 117 545
4 493 645
5 135 12
6 775 997
7 745 444
8 950 311
9 530 150
10 900 508
11 48 519
12 269 217
13 722 349
14 480 733
15 977 422
16 999 220
17 636 332
18 851 162
19 559 567
20 389 69
21 529 835
22 303 427
23 400 638
24 894 904
25 482 109
26 579 800
27 184 82
28 669 753
29 906 424
30 374 692
31 174 613
32 75 37
33 38 563
34 838 157
35 710 709
36 176 67
37 449 326
38 71 389
39 710 115
40 237 547
41 530 27
42 631 223
43 171 342
44 226 65
45 6 998
46 24 635
47 668 165
48 318 608
49 429 82
50 212 237
51 853 126
52 387 47
53 677 144
54 111 790
55 957 32
56 511 647
57 457 561
58 86 687
59 290 456
60 473 563
61 807 725
62 461 468
63 739 235
64 257 340
65 588 545
66 6 311
67 994 946
68 452 534
69 422 545
70 248 611
71 43 366
72 977 96
73 822 580
74 86 263
75 715 99
76 668 981
77 424 638
78 297 607
79 251 282
80 237 413
81 202 573
82 181 385
83 126 528
84 978 846
85 70 99
86 333 357
87 157 734
88 627 268
89 818 433
90 738 555
91 978 59
92 42 595
93 870 933
94 19 120
95 165 679
96 131 984
97 319 417
98 187 376
99 251 482
100 657 219
101 209 397
102 800 377
103 228 116
104 566 559
105 490 156
106 216 547
107 938 222
108 543 747
109 569 59
110 971 515
111 616 306
112 695 837
113 778 101
114 462 74
115 87 682
116 608 430
117 511 313
118 710 300
119 630 24
120 626 650
121 531 719
122 598 824
123 279 169
124 286 268
125 259 659
126 782 132
127 862 518
128 457 603
129 44 44
130 527 818
131 164 156
132 23 86
133 333 488
134 517 137
135 541 888
136 122 280
137 159 655
138 200 158
139 446 283
140 107 315
141 588 270
142 158 374
143 26 353
144 959 76
145 852 328
146 437 138
147 53 938
148 333 192
149 922 499
150 8 561
151 989 908
152 100 860
153 10 960
154 842 190
155 595 716
156 199 373
157 159 67
158 979 25
159 488 479
160 528 160
161 223 342
162 503 159
163 711 681
164 342 509
165 931 593
166 766 953
167 710 172
168 172 159
169 685 836
170 639 155
171 763 656
172 269 241
173 330 177
174 901 124
175 692 19
176 949 178
177 79 795
178 833 852
179 336 444
180 877 0
181 296 597
182 566 735
183 940 377
184 939 827
185 908 120
186 50 741
187 753 744
188 577 351
189 141 616
190 97 625
191 496 160
192 515 598
193 274 510
194 291 170
195 800 300
196 74 609
197 791 396
198 453 848
199 395 290
200 525 743
201 260 385
202 1 346
203 231 504
204 837 572
205 606 473
206 123 80
207 477 169
208 383 59
209 890 101
210 68 598
211 172 367
212 569 289
213 84 19
214 454 412
215 261 233
216 693 375
217 588 854
218 276 538
219 599 569
220 142 158
221 324 194
222 739 325
223 638 182
224 858 93
225 40 923
226 37 599
227 638 39
228 568 674
229 439 570
230 587 278
231 597 608
DEMAND_SECTION
2 2
3 9
4 1
5 4
6 9
7 5
8 7
9 2
10 4
11 7
12 2
13 9
14 5
15 10
16 5
17 8
18 5
19 8
20 8
21 6
22 7
23 2
24 1
25 3
26 9
27 1
28 1
29 10
30 3
31 4
32 8
33 10
34 7
35 9
36 6
37 1
38 1
39 9
40 9
41 5
42 9
43 3
44 6
45 4
46 2
47 8
48 3
49 10
50 6
51 9
52 5
53 5
54 7
55 10
56 5
57 8
58 1
59 4
60 4
COVERAGE_SECTION
2 7 161 156 64 98 43 101 211 
3 7 83 210 11 189 196 33 190 
4 7 56 192 128 77 228 121 60 
5 7 213 157 32 36 206 27 129 
6 3 166 76 93 
7 7 197 89 216 102 13 90 222 
8 7 183 107 145 16 15 29 176 
9 7 160 134 162 191 105 207 25 
10 7 149 127 110 29 165 204 73 
11 7 33 150 3 92 83 210 226 
12 7 215 172 123 194 124 50 221 
13 7 222 216 118 102 197 17 195 
14 7 200 121 108 182 4 56 130 
15 7 183 29 110 149 8 10 127 
16 7 107 176 8 72 185 174 144 
17 7 111 188 88 216 230 141 212 
18 7 34 154 51 174 224 185 209 
19 7 104 65 219 192 231 60 56 
20 7 208 52 49 114 146 25 173 
21 7 130 135 26 217 122 198 108 
22 7 97 59 179 201 80 133 86 
23 7 77 30 128 229 48 4 57 
24 7 93 178 184 151 84 67 166 
25 7 114 134 105 191 146 162 49 
26 7 122 130 217 21 108 182 200 
27 7 36 157 44 103 206 131 138 
28 7 35 155 163 187 169 112 122 
29 7 183 15 149 10 89 127 145 
30 5 23 77 48 14 78 
31 7 189 137 81 95 70 106 190 
32 7 213 129 85 206 5 132 157 
33 7 150 92 226 11 210 196 46 
34 7 18 154 51 126 224 174 209 
35 7 163 187 28 171 61 120 155 
36 7 27 157 44 206 5 103 131 
37 4 139 117 199 214 
38 7 71 143 140 202 142 66 211 
39 7 75 53 167 47 113 126 170 
40 7 106 218 203 81 193 70 99 
41 7 109 114 25 119 227 134 49 
42 7 100 223 88 141 170 47 230 
43 7 211 142 98 156 82 2 161 
44 7 27 36 103 157 138 206 5 
45 4 153 147 225 96 
46 7 226 92 196 210 33 190 150 
47 7 53 170 223 167 100 39 42 
48 7 78 181 70 125 218 23 30 
49 7 114 20 208 52 146 25 105 
50 7 215 172 12 79 124 138 168 
51 7 224 34 18 209 174 185 154 
52 7 208 20 49 114 146 25 173 
53 7 47 170 167 39 223 75 100 
54 4 177 152 87 186 
55 7 158 91 144 72 180 209 185 
56 7 4 192 228 128 121 77 14 
57 7 60 229 68 69 128 192 77 
58 7 115 190 186 95 196 137 46 
59 7 22 99 179 97 133 193 80 
60 7 57 229 68 128 69 192 4 
61 3 187 171 35 
62 5 159 214 68 69 57 
63 7 167 118 100 195 222 47 42 
64 6 161 2 201 79 156 101 
65 6 104 219 19 231 205 192 
66 6 202 143 71 74 140 38 
67 6 151 84 24 93 184 178 
68 7 57 69 60 229 159 62 128 
69 7 229 68 57 60 128 62 164 
70 7 78 125 181 81 40 48 106 
71 6 143 38 202 66 140 74 
72 7 144 91 55 158 185 174 176 
73 5 204 127 90 171 10 
74 6 136 140 66 143 71 43 
75 7 39 53 113 167 126 47 175 
76 2 166 6 
77 7 23 128 4 229 30 57 56 
78 7 181 48 70 125 218 40 193 
79 7 124 172 215 64 50 161 12 
80 6 101 201 156 98 82 2 
81 7 106 40 31 70 189 203 218 
82 7 98 211 156 142 101 43 2 
83 7 3 11 81 189 210 106 33 
84 5 184 151 67 24 93 
85 7 132 94 206 129 32 213 220 
86 4 97 22 64 201 
87 4 95 54 137 58 
88 7 141 111 230 42 100 212 17 
89 7 197 102 7 29 127 145 10 
90 4 73 204 171 7 
91 7 144 55 158 72 185 209 174 
92 7 226 210 33 196 46 150 190 
93 7 24 178 166 6 151 67 184 
94 7 132 85 129 32 206 213 220 
95 6 137 87 31 189 115 58 
96 4 147 225 153 45 
97 6 22 179 59 86 201 133 
98 7 82 156 211 142 101 43 2 
99 6 203 193 59 218 40 80 
100 7 42 223 47 88 170 167 53 
101 6 156 82 98 80 211 2 
102 7 197 89 145 195 222 13 7 
103 7 138 44 27 36 168 123 131 
104 7 19 65 219 231 192 60 205 
105 7 191 162 207 134 160 9 25 
106 7 40 81 203 218 193 70 99 
107 7 176 16 8 154 174 18 185 
108 7 200 182 121 155 26 14 130 
109 7 41 119 227 134 9 25 114 
110 6 149 10 165 15 127 29 
111 7 17 88 230 141 212 188 42 
112 3 169 28 122 
113 7 126 75 39 51 224 34 18 
114 7 49 25 146 20 52 208 41 
115 7 58 190 186 196 137 95 46 
116 4 205 188 216 17 
117 6 37 212 139 188 230 141 
118 7 222 13 63 216 17 88 195 
119 7 227 175 109 41 75 39 53 
120 6 231 228 155 219 163 35 
121 7 200 108 182 14 228 155 56 
122 6 26 217 21 130 135 169 
123 7 194 12 221 173 148 215 172 
124 5 172 79 215 12 64 
125 5 70 78 181 48 95 
126 7 113 34 51 39 18 75 167 
127 7 10 204 149 73 89 165 29 
128 7 229 57 60 77 4 192 23 
129 7 32 132 213 85 94 206 5 
130 7 21 26 122 135 217 108 200 
131 7 168 220 138 103 27 206 157 
132 7 94 129 85 32 213 206 5 
133 7 164 179 59 193 22 97 218 
134 7 9 160 162 191 105 25 207 
135 4 21 217 130 122 
136 6 140 74 43 50 211 142 
137 7 95 189 31 190 115 87 58 
138 7 168 131 103 220 27 50 123 
139 3 37 199 117 
140 6 136 74 43 142 38 71 
141 7 230 212 88 111 42 17 188 
142 7 211 82 98 43 156 101 2 
143 6 71 202 66 38 140 74 
144 7 91 72 55 158 185 209 174 
145 7 195 102 197 8 183 29 89 
146 6 207 25 105 49 191 114 
147 3 225 153 45 
148 5 221 173 194 123 12 
149 7 10 110 127 29 165 15 204 
150 7 33 92 226 11 210 46 196 
151 6 67 84 24 184 93 178 
152 3 177 54 225 
153 3 45 147 225 
154 7 18 34 51 126 174 185 224 
155 7 182 228 108 121 120 200 28 
156 7 98 82 101 211 2 161 142 
157 7 36 27 206 5 44 103 32 
158 7 55 91 144 72 180 209 185 
159 5 62 68 214 60 57 
160 7 9 134 162 191 105 207 25 
161 7 2 64 156 98 43 101 201 
162 7 191 105 160 134 9 207 25 
163 6 35 171 187 28 120 61 
164 7 133 179 193 218 59 69 22 
165 2 110 10 
166 3 6 76 93 
167 7 47 53 39 63 100 75 170 
168 7 131 138 220 103 27 50 36 
169 3 112 28 122 
170 7 223 47 53 100 42 167 39 
171 4 163 35 61 187 
172 7 215 12 124 79 50 221 123 
173 5 148 221 194 123 12 
174 7 185 209 51 224 18 34 176 
175 7 227 119 75 39 113 53 109 
176 7 107 16 185 174 72 209 18 
177 4 54 186 152 87 
178 3 24 93 184 
179 7 97 22 133 59 164 86 193 
180 7 55 224 209 158 144 91 185 
181 7 78 48 70 218 125 40 193 
182 7 108 155 121 200 228 26 14 
183 7 15 29 8 145 149 89 10 
184 4 84 24 151 178 
185 7 174 209 51 224 144 18 176 
186 7 177 58 115 54 87 46 190 
187 5 35 61 163 28 171 
188 6 111 17 212 230 117 141 
189 7 31 137 190 95 196 3 81 
190 7 196 210 189 115 58 92 226 
191 7 105 162 207 134 160 9 25 
192 7 56 4 19 60 128 104 57 
193 7 218 99 203 40 59 133 164 
194 7 123 173 221 148 12 215 172 
195 7 145 222 102 63 118 13 197 
196 7 210 190 92 226 46 33 189 
197 7 102 89 7 13 222 145 195 
198 2 21 130 
199 2 139 37 
200 7 108 121 182 14 130 155 26 
201 7 80 64 101 2 161 22 156 
202 6 143 66 71 38 140 74 
203 6 99 40 193 106 218 81 
204 5 73 127 10 165 90 
205 5 116 65 104 219 19 
206 7 157 36 85 27 32 5 213 
207 7 105 191 162 134 146 160 9 
208 7 20 52 49 114 146 25 173 
209 7 174 185 224 51 18 144 34 
210 7 196 92 226 190 33 46 150 
211 7 142 98 82 43 156 101 2 
212 7 230 141 111 88 117 188 17 
213 7 32 129 5 206 85 157 132 
214 4 62 159 37 117 
215 7 172 12 124 50 79 123 194 
216 7 13 222 17 118 7 197 116 
217 5 122 26 135 21 130 
218 7 193 40 203 99 106 181 78 
219 6 65 104 231 19 120 192 
220 7 131 168 138 206 27 85 157 
221 6 148 173 194 123 12 172 
222 7 13 118 195 216 102 197 63 
223 7 170 47 42 100 53 167 88 
224 7 51 209 174 185 34 18 113 
225 3 147 153 45 
226 7 92 210 33 46 196 150 190 
227 7 119 175 109 75 39 41 53 
228 7 155 121 182 56 120 231 108 
229 7 57 69 60 68 128 77 23 
230 7 141 212 111 88 42 17 188 
231 6 219 120 19 104 65 228 
DEPOT_SECTION
   1
   -1
EOF
