NAME :  X-n204-kX-w20-c7.cctp
COMMENT : 	Adapted by Maziero, Usberti and Cavellucci from the Uchoa, Pecin, Pessoa, Poggi, Subramanian, and Vidal (2013)
TYPE :  CCTP
DIMENSION :    109
EDGE_WEIGHT_TYPE : 	EUC_2D	
CAPACITY : 	836
VERTICES_WITHIN_COVERAGE :  7
VERTICES_WITH_DEMAND : 	20
NODE_COORD_SECTION
1 500 500
2 221 542
3 320 456
4 576 827
5 679 994
6 371 461
7 961 844
8 986 379
9 175 540
10 126 517
11 329 626
12 477 890
13 191 356
14 584 917
15 308 653
16 0 7
17 273 302
18 672 381
19 235 415
20 583 149
21 672 124
22 832 999
23 842 964
24 582 965
25 939 849
26 639 874
27 829 350
28 7 53
29 801 92
30 943 0
31 833 402
32 408 940
33 635 871
34 733 313
35 344 619
36 628 291
37 674 92
38 668 279
39 510 811
40 49 182
41 528 946
42 271 745
43 405 872
44 622 488
45 668 978
46 939 73
47 586 348
48 951 167
49 992 460
50 746 847
51 279 459
52 656 687
53 547 792
54 517 152
55 252 618
56 590 47
57 348 609
58 777 112
59 528 198
60 877 457
61 864 723
62 584 875
63 439 447
64 560 994
65 447 951
66 969 519
67 141 22
68 313 643
69 294 475
70 332 440
71 96 492
72 62 541
73 119 370
74 342 587
75 321 337
76 287 454
77 216 497
78 188 327
79 175 352
80 281 702
81 247 645
82 424 677
83 438 666
84 462 532
85 343 658
86 127 368
87 245 363
88 356 488
89 259 410
90 196 492
91 303 336
92 285 277
93 167 560
94 328 277
95 355 399
96 236 522
97 345 467
98 250 337
99 232 388
100 362 702
101 105 507
102 245 521
103 257 647
104 423 470
105 206 467
106 241 305
107 210 392
108 371 627
109 219 344
DEMAND_SECTION
2 61
3 96
4 52
5 58
6 81
7 76
8 51
9 98
10 65
11 84
12 63
13 79
14 89
15 70
16 93
17 84
18 100
19 70
20 52
21 86
COVERAGE_SECTION
2 6 96 102 77 9 90 93 
3 7 70 97 69 76 51 88 6 
4 7 53 62 39 33 26 14 12 
5 7 45 24 64 14 26 33 62 
6 7 97 88 70 3 104 95 63 
7 5 25 61 23 22 50 
8 6 49 60 66 31 27 48 
9 6 93 2 90 10 77 96 
10 5 101 71 9 93 72 
11 7 35 68 57 15 85 74 108 
12 7 65 43 41 32 39 62 14 
13 7 79 78 109 107 99 87 98 
14 7 62 24 41 33 26 64 4 
15 7 68 11 85 35 103 80 57 
16 3 28 67 40 
17 7 92 106 98 91 75 94 87 
18 5 34 47 36 38 44 
19 5 89 99 107 87 105 
20 5 54 59 21 56 37 
21 7 37 20 58 56 29 38 54 
22 7 23 5 45 50 25 7 26 
23 7 22 25 50 5 7 45 26 
24 7 64 14 41 45 62 5 26 
25 5 7 61 23 22 50 
26 7 33 62 14 4 24 45 50 
27 6 31 34 60 8 18 38 
28 3 16 40 67 
29 6 58 37 21 46 48 30 
30 6 46 48 29 58 37 21 
31 6 27 60 34 8 18 49 
32 6 65 43 12 41 64 39 
33 7 26 62 14 4 24 45 50 
34 6 38 18 27 36 31 47 
35 7 57 11 108 74 68 85 15 
36 4 38 47 18 34 
37 7 21 56 58 20 29 54 59 
38 4 36 34 18 47 
39 7 53 4 12 62 43 14 41 
40 3 28 16 67 
41 7 24 64 14 12 65 62 32 
42 5 80 15 103 100 81 
43 6 32 12 65 39 41 53 
44 3 18 47 84 
45 7 5 24 14 26 64 33 62 
46 6 30 48 29 58 37 21 
47 3 36 18 38 
48 6 46 30 29 58 8 27 
49 5 66 8 60 31 27 
50 7 26 33 23 45 5 62 4 
51 3 76 69 3 
52 2 53 4 
53 7 39 4 62 33 12 26 14 
54 2 59 20 
55 7 81 103 15 68 11 2 80 
56 5 37 20 21 54 59 
57 6 35 74 11 108 68 85 
58 6 29 37 21 46 48 20 
59 2 54 20 
60 6 31 66 49 27 8 34 
61 4 25 7 50 52 
62 7 14 4 33 26 24 41 53 
63 5 104 6 84 88 97 
64 7 24 41 14 45 5 62 65 
65 7 32 12 41 43 64 24 14 
66 4 49 60 8 31 
67 3 28 16 40 
68 7 15 11 85 35 57 103 108 
69 3 51 76 3 
70 7 3 97 6 76 95 69 88 
71 4 101 10 72 9 
72 3 101 71 10 
73 3 86 79 13 
74 5 57 35 11 108 68 
75 3 91 17 94 
76 4 51 69 3 70 
77 5 90 96 105 102 2 
78 7 79 13 109 106 98 87 107 
79 7 13 78 109 86 107 73 99 
80 7 42 15 103 81 68 85 100 
81 6 103 55 15 68 80 11 
82 7 83 100 108 85 35 57 11 
83 7 82 108 100 85 35 57 11 
84 4 104 63 6 88 
85 7 68 11 15 35 108 100 57 
86 3 73 79 13 
87 7 98 99 109 107 89 19 13 
88 6 97 6 3 70 69 104 
89 6 19 99 87 76 107 51 
90 5 77 105 96 9 2 
91 5 75 17 98 92 87 
92 6 17 94 106 91 98 75 
93 3 9 2 10 
94 4 92 17 75 91 
95 3 70 6 3 
96 3 102 2 77 
97 7 88 3 6 70 69 76 51 
98 7 87 109 106 17 91 99 13 
99 7 107 19 87 89 109 13 98 
100 7 85 82 15 108 68 80 11 
101 4 71 10 72 9 
102 3 96 2 77 
103 6 81 55 15 68 80 11 
104 5 63 6 88 84 97 
105 4 90 77 19 96 
106 7 17 98 109 92 78 87 91 
107 7 99 19 13 87 109 89 79 
108 6 35 57 11 85 74 68 
109 7 13 87 98 78 79 106 99 
DEPOT_SECTION
   1
   -1
EOF
