NAME :  X-n261-kX-w104-c7.cctp
COMMENT : 	Adapted by Maziero, Usberti and Cavellucci from the Uchoa, Pecin, Pessoa, Poggi, Subramanian, and Vidal (2013)
TYPE :  CCTP
DIMENSION :    257
EDGE_WEIGHT_TYPE : 	EUC_2D	
CAPACITY : 	1081
VERTICES_WITHIN_COVERAGE :  7
VERTICES_WITH_DEMAND : 	104
NODE_COORD_SECTION
1 0 0
2 377 105
3 535 93
4 820 625
5 689 745
6 774 283
7 399 810
8 242 139
9 300 948
10 557 255
11 22 828
12 27 768
13 961 829
14 825 225
15 288 996
16 126 160
17 219 243
18 504 918
19 532 806
20 566 734
21 327 943
22 848 66
23 45 889
24 952 169
25 736 63
26 939 925
27 569 517
28 969 917
29 603 637
30 188 762
31 800 102
32 879 687
33 289 83
34 836 360
35 887 699
36 21 962
37 857 715
38 447 519
39 931 500
40 316 483
41 572 230
42 417 554
43 488 340
44 760 763
45 403 224
46 470 796
47 67 194
48 927 576
49 524 679
50 155 89
51 629 678
52 469 465
53 810 467
54 354 298
55 87 548
56 618 236
57 338 855
58 774 799
59 811 201
60 684 462
61 892 995
62 449 985
63 120 176
64 552 983
65 455 433
66 244 763
67 790 650
68 189 400
69 717 607
70 351 60
71 546 941
72 138 585
73 567 342
74 790 315
75 568 9
76 20 172
77 600 355
78 909 984
79 992 956
80 36 62
81 614 755
82 883 36
83 401 520
84 463 924
85 109 540
86 218 461
87 337 584
88 157 686
89 789 99
90 246 760
91 792 669
92 52 48
93 60 712
94 629 450
95 712 438
96 661 974
97 533 49
98 853 566
99 495 195
100 573 191
101 519 673
102 737 157
103 493 383
104 957 695
105 536 532
106 926 788
107 513 86
108 59 246
109 803 472
110 391 39
111 311 531
112 706 871
113 741 723
114 936 7
115 100 581
116 799 359
117 477 410
118 689 805
119 45 244
120 818 770
121 339 47
122 607 57
123 763 168
124 324 924
125 358 40
126 977 409
127 823 138
128 453 911
129 771 182
130 912 18
131 251 585
132 422 585
133 514 160
134 854 59
135 24 75
136 22 64
137 729 52
138 73 223
139 572 821
140 126 236
141 259 824
142 167 213
143 277 169
144 184 250
145 153 833
146 563 253
147 978 112
148 724 23
149 161 329
150 15 579
151 461 782
152 851 737
153 237 951
154 105 942
155 972 950
156 749 340
157 36 228
158 744 110
159 705 528
160 181 44
161 420 81
162 671 370
163 309 69
164 987 831
165 951 322
166 953 17
167 388 269
168 585 943
169 395 150
170 484 870
171 995 462
172 472 391
173 221 661
174 488 756
175 138 121
176 724 451
177 16 23
178 280 363
179 491 164
180 414 545
181 448 33
182 835 445
183 506 839
184 734 57
185 991 663
186 671 263
187 578 546
188 344 527
189 180 806
190 93 625
191 731 998
192 380 871
193 920 900
194 518 179
195 80 406
196 282 281
197 835 214
198 895 580
199 785 78
200 407 979
201 31 260
202 346 961
203 938 233
204 603 917
205 144 637
206 572 723
207 838 477
208 545 568
209 260 584
210 348 33
211 483 309
212 237 419
213 417 484
214 79 619
215 514 471
216 108 359
217 59 792
218 532 185
219 536 745
220 781 371
221 440 901
222 953 180
223 290 771
224 332 323
225 264 881
226 152 663
227 94 101
228 614 160
229 202 225
230 148 85
231 93 799
232 934 466
233 999 195
234 660 791
235 761 946
236 547 966
237 980 316
238 608 512
239 398 136
240 166 24
241 547 880
242 634 985
243 457 149
244 682 442
245 523 885
246 926 617
247 536 487
248 445 327
249 851 455
250 59 176
251 474 325
252 471 123
253 335 879
254 650 321
255 796 593
256 477 184
257 417 342
DEMAND_SECTION
2 64
3 73
4 98
5 36
6 76
7 13
8 74
9 43
10 80
11 59
12 95
13 33
14 68
15 35
16 64
17 59
18 22
19 10
20 60
21 36
22 20
23 49
24 67
25 69
26 83
27 99
28 25
29 94
30 34
31 96
32 8
33 49
34 89
35 99
36 21
37 70
38 71
39 45
40 32
41 11
42 48
43 35
44 21
45 90
46 99
47 41
48 55
49 59
50 1
51 36
52 94
53 97
54 44
55 55
56 13
57 35
58 71
59 78
60 57
61 96
62 41
63 35
64 13
65 70
66 17
67 41
68 18
69 6
70 81
71 55
72 80
73 34
74 76
75 58
76 33
77 10
78 64
79 66
80 12
81 87
82 21
83 61
84 54
85 7
86 48
87 47
88 26
89 26
90 9
91 35
92 77
93 57
94 97
95 51
96 10
97 39
98 25
99 66
100 92
101 36
102 35
103 59
104 71
105 53
COVERAGE_SECTION
2 7 239 169 161 70 110 125 121 
3 7 107 97 133 252 122 179 194 
4 7 67 255 91 98 32 198 37 
5 7 234 113 118 44 81 51 58 
6 7 74 156 14 116 220 59 197 
7 7 192 151 46 57 253 221 170 
8 7 143 33 229 163 50 142 175 
9 7 21 124 202 15 153 225 253 
10 7 146 41 56 100 218 194 99 
11 7 217 12 23 231 93 145 36 
12 7 217 11 93 231 23 145 88 
13 7 164 106 193 28 26 155 79 
14 7 197 59 129 6 123 127 74 
15 7 9 21 153 202 124 225 200 
16 7 63 175 142 227 47 250 140 
17 7 229 144 142 196 140 143 149 
18 7 245 84 71 128 170 241 236 
19 7 183 139 219 46 174 151 241 
20 7 206 219 81 49 101 19 174 
21 7 124 202 9 253 15 200 225 
22 7 134 82 31 199 89 127 130 
23 7 11 36 154 217 231 12 145 
24 7 222 233 147 203 197 127 14 
25 7 184 137 148 158 199 89 31 
26 7 28 193 155 79 78 61 13 
27 7 187 105 238 247 208 215 94 
28 7 26 155 79 193 13 164 78 
29 7 51 49 208 101 206 187 20 
30 7 189 66 90 145 88 141 223 
31 7 89 199 127 158 22 134 25 
32 7 35 37 152 104 246 4 91 
33 7 163 121 70 8 210 125 143 
34 7 116 220 74 182 156 249 6 
35 7 32 37 152 104 246 106 120 
36 7 23 154 11 217 231 145 12 
37 7 152 35 32 120 91 67 4 
38 7 180 42 83 213 52 132 215 
39 7 232 171 48 198 249 207 98 
40 7 111 188 83 86 213 212 87 
41 7 146 10 100 56 218 194 228 
42 7 180 132 83 38 213 188 87 
43 7 251 211 103 248 172 117 257 
44 7 58 113 120 5 118 152 91 
45 7 167 169 256 239 54 243 99 
46 7 151 174 183 19 7 170 219 
47 7 250 138 157 76 108 119 63 
48 7 198 246 98 39 185 232 4 
49 7 101 206 219 20 174 29 51 
50 7 230 175 160 227 240 16 63 
51 7 29 206 81 20 5 49 101 
52 7 65 215 213 117 38 247 172 
53 7 109 207 182 249 176 220 95 
54 7 224 167 196 257 45 248 178 
55 7 85 115 72 214 190 150 205 
56 7 41 146 186 10 100 228 254 
57 7 253 192 124 7 225 141 21 
58 7 44 120 113 118 112 152 5 
59 7 197 14 129 123 127 102 6 
60 7 244 95 176 94 159 238 162 
61 7 78 26 155 193 79 28 235 
62 7 200 84 128 221 18 236 64 
63 7 16 47 175 140 142 250 138 
64 7 236 71 168 18 242 204 245 
65 7 117 52 172 103 213 215 38 
66 7 90 223 30 141 189 173 145 
67 7 91 4 255 69 113 37 32 
68 6 212 86 149 216 178 195 
69 7 159 255 67 91 4 51 29 
70 7 121 125 210 163 110 2 33 
71 7 236 168 64 18 241 245 204 
72 7 115 205 85 190 55 214 226 
73 7 77 43 103 254 10 146 211 
74 7 6 116 156 220 34 14 197 
75 7 97 122 3 107 181 252 148 
76 7 250 47 157 138 119 108 201 
77 7 73 254 162 94 10 146 103 
78 7 61 26 155 193 79 28 235 
79 7 155 28 26 78 193 61 164 
80 7 136 135 92 177 227 76 230 
81 7 20 206 234 5 51 139 219 
82 7 130 134 22 114 166 31 199 
83 7 180 42 213 38 188 132 52 
84 7 128 221 18 170 62 245 200 
85 7 55 115 72 214 190 150 205 
86 7 212 68 40 111 178 131 209 
87 7 188 111 209 42 132 131 180 
88 7 226 205 173 30 190 93 72 
89 7 31 199 158 127 25 22 184 
90 7 66 223 30 141 189 173 88 
91 7 67 4 113 255 37 32 152 
92 7 80 136 135 177 227 230 50 
93 7 12 217 190 231 214 88 226 
94 7 244 60 238 95 27 162 176 
95 7 176 244 60 162 94 159 220 
96 6 242 191 204 168 235 64 
97 7 107 3 75 122 181 252 133 
98 7 198 255 4 48 246 207 39 
99 7 256 194 179 218 133 243 252 
100 7 41 218 228 194 146 56 10 
101 7 49 206 219 20 174 29 208 
102 7 123 129 158 89 31 59 127 
103 7 172 117 43 251 65 248 211 
104 7 185 35 32 246 106 37 152 
105 7 27 208 187 247 215 238 38 
106 7 13 164 152 35 104 37 120 
107 7 3 97 252 133 179 181 243 
108 7 119 138 157 201 47 140 250 
109 7 53 207 182 249 176 95 220 
110 7 125 210 70 161 121 181 2 
111 7 188 40 87 209 131 83 180 
112 5 118 234 235 58 96 
113 7 44 5 91 58 67 120 118 
114 7 166 130 82 134 22 147 24 
115 7 55 72 85 214 190 205 150 
116 7 220 34 74 156 6 182 53 
117 7 172 103 65 52 43 215 251 
118 6 234 5 112 44 58 81 
119 7 108 157 201 138 47 250 76 
120 7 152 58 44 37 113 35 32 
121 7 210 70 125 163 110 33 2 
122 7 75 97 3 107 228 137 148 
123 7 129 102 59 158 127 89 31 
124 7 21 9 202 253 57 225 192 
125 7 210 121 70 110 163 2 161 
126 7 171 232 165 237 39 249 182 
127 7 31 89 59 123 129 199 22 
128 7 84 221 18 170 62 245 200 
129 7 123 102 59 127 14 197 158 
130 7 114 82 166 134 22 147 31 
131 7 209 111 173 87 188 72 205 
132 7 42 180 83 38 87 188 213 
133 7 194 179 218 99 256 252 243 
134 7 22 82 31 130 199 89 127 
135 7 136 80 92 177 227 76 250 
136 7 135 80 92 177 227 76 250 
137 7 184 25 148 158 199 89 31 
138 7 108 47 119 157 250 140 201 
139 5 19 241 183 81 245 
140 7 142 138 63 144 108 47 16 
141 7 225 223 66 90 189 57 30 
142 7 229 144 140 17 63 16 138 
143 7 8 33 17 229 163 196 142 
144 7 229 17 142 140 149 63 196 
145 7 189 231 30 217 141 66 90 
146 7 10 41 56 100 218 194 73 
147 7 24 222 233 166 114 130 82 
148 7 137 184 25 199 158 89 31 
149 6 216 68 144 140 17 195 
150 7 214 55 115 190 85 72 93 
151 7 46 174 7 183 19 219 170 
152 7 37 120 35 32 91 106 44 
153 7 9 15 225 21 124 202 253 
154 7 23 36 145 153 11 231 189 
155 7 79 28 26 78 193 61 164 
156 7 220 74 116 6 162 34 254 
157 7 119 108 201 138 47 250 76 
158 7 89 25 102 199 184 31 137 
159 7 60 176 69 244 95 238 94 
160 7 240 50 230 175 227 8 33 
161 7 2 110 181 239 252 70 169 
162 7 254 77 244 95 156 94 60 
163 7 33 121 70 210 125 2 110 
164 7 13 106 28 193 26 155 79 
165 7 237 203 126 34 233 222 232 
166 7 114 130 82 147 134 22 24 
167 7 54 45 224 257 248 211 251 
168 6 204 71 236 64 242 241 
169 7 239 2 243 161 45 252 256 
170 7 183 245 128 18 221 84 241 
171 7 126 232 39 48 249 165 237 
172 7 117 103 65 43 251 248 52 
173 7 88 226 205 131 209 90 66 
174 7 151 46 219 19 20 49 183 
175 7 50 230 16 227 63 160 142 
176 7 95 60 244 159 109 53 94 
177 7 136 80 92 135 227 230 76 
178 7 224 212 196 54 68 86 149 
179 7 133 256 99 194 243 218 252 
180 7 42 83 132 38 213 188 87 
181 7 161 110 107 97 125 252 210 
182 7 249 207 53 109 34 220 116 
183 7 170 19 245 46 241 139 151 
184 7 25 137 148 158 199 89 31 
185 7 104 246 48 35 32 198 106 
186 7 56 254 41 6 162 146 156 
187 7 27 208 105 238 247 29 215 
188 7 111 40 83 87 180 42 213 
189 7 145 30 66 90 141 231 225 
190 7 214 115 205 72 226 55 85 
191 7 235 96 242 112 204 168 61 
192 7 57 253 7 221 124 128 21 
193 7 26 28 155 13 78 79 164 
194 7 218 133 99 179 256 100 243 
195 5 216 68 149 85 55 
196 7 224 17 54 178 229 144 167 
197 7 14 59 129 127 123 6 203 
198 7 48 98 246 4 39 255 32 
199 7 89 31 25 158 184 137 22 
200 7 62 202 84 128 221 21 124 
201 6 119 108 157 138 47 76 
202 7 21 124 9 200 15 253 192 
203 7 222 24 233 165 237 197 14 
204 5 168 71 241 236 242 
205 7 226 88 72 190 214 115 173 
206 7 20 219 81 49 51 101 174 
207 7 249 53 182 109 98 39 232 
208 7 105 187 27 247 238 29 215 
209 7 131 111 87 173 188 40 72 
210 7 125 121 70 110 163 33 2 
211 7 251 43 248 257 103 172 73 
212 7 86 68 178 40 149 111 224 
213 7 83 38 52 180 65 42 188 
214 7 190 115 205 72 55 150 85 
215 7 247 52 105 65 117 27 38 
216 5 195 149 68 108 140 
217 7 231 12 11 93 23 145 189 
218 7 194 133 99 100 179 256 41 
219 7 20 206 174 19 49 101 81 
220 7 116 156 34 74 6 182 95 
221 7 128 84 170 18 192 62 200 
222 7 24 233 203 147 197 14 127 
223 7 90 66 141 57 30 225 189 
224 7 54 196 178 167 257 248 45 
225 7 141 253 124 153 9 57 21 
226 7 88 205 173 190 72 214 115 
227 7 175 230 50 16 92 80 135 
228 7 100 56 41 218 194 133 122 
229 7 17 144 142 140 143 8 63 
230 7 50 175 160 227 240 16 63 
231 7 217 145 12 11 189 93 23 
232 7 39 171 126 249 207 182 48 
233 7 222 24 203 147 237 165 197 
234 5 118 5 81 112 139 
235 7 191 112 96 242 61 58 78 
236 7 64 71 168 18 204 245 241 
237 7 165 126 203 233 222 171 24 
238 7 27 187 94 105 247 208 60 
239 7 169 2 161 243 252 45 70 
240 7 160 230 50 175 227 92 80 
241 6 245 18 183 71 139 170 
242 7 96 168 204 64 236 71 191 
243 7 252 179 256 133 99 239 169 
244 7 60 95 176 94 162 159 238 
245 7 241 18 170 183 71 84 128 
246 7 48 198 185 32 104 98 35 
247 7 215 27 105 52 187 238 208 
248 7 251 257 211 43 172 103 167 
249 7 182 207 53 109 232 39 34 
250 7 47 76 138 157 63 16 119 
251 7 211 43 248 257 103 172 117 
252 7 243 179 107 133 256 161 3 
253 7 57 124 192 21 225 9 202 
254 7 162 77 186 73 56 156 146 
255 7 4 67 98 91 69 198 159 
256 7 99 179 243 194 133 218 252 
257 7 248 251 43 172 211 54 167 
DEPOT_SECTION
   1
   -1
EOF
