NAME :  X-n261-kX-w26-c9.cctp
COMMENT : 	Adapted by Maziero, Usberti and Cavellucci from the Uchoa, Pecin, Pessoa, Poggi, Subramanian, and Vidal (2013)
TYPE :  CCTP
DIMENSION :    172
EDGE_WEIGHT_TYPE : 	EUC_2D	
CAPACITY : 	1081
VERTICES_WITHIN_COVERAGE :  9
VERTICES_WITH_DEMAND : 	26
NODE_COORD_SECTION
1 0 0
2 377 105
3 535 93
4 820 625
5 689 745
6 774 283
7 399 810
8 242 139
9 300 948
10 557 255
11 22 828
12 27 768
13 961 829
14 825 225
15 288 996
16 126 160
17 219 243
18 504 918
19 532 806
20 566 734
21 327 943
22 848 66
23 45 889
24 952 169
25 736 63
26 939 925
27 569 517
28 969 917
29 603 637
30 800 102
31 879 687
32 289 83
33 836 360
34 887 699
35 21 962
36 857 715
37 572 230
38 760 763
39 470 796
40 67 194
41 927 576
42 524 679
43 155 89
44 629 678
45 618 236
46 338 855
47 774 799
48 811 201
49 892 995
50 449 985
51 120 176
52 552 983
53 790 650
54 717 607
55 351 60
56 546 941
57 567 342
58 790 315
59 568 9
60 600 355
61 909 984
62 992 956
63 614 755
64 883 36
65 463 924
66 789 99
67 792 669
68 60 712
69 629 450
70 533 49
71 853 566
72 573 191
73 519 673
74 737 157
75 536 532
76 926 788
77 513 86
78 391 39
79 741 723
80 936 7
81 799 359
82 689 805
83 339 47
84 607 57
85 763 168
86 324 924
87 358 40
88 823 138
89 453 911
90 771 182
91 912 18
92 514 160
93 854 59
94 729 52
95 572 821
96 126 236
97 167 213
98 277 169
99 184 250
100 563 253
101 978 112
102 724 23
103 161 329
104 461 782
105 237 951
106 105 942
107 972 950
108 749 340
109 744 110
110 181 44
111 420 81
112 309 69
113 987 831
114 951 322
115 953 17
116 585 943
117 395 150
118 484 870
119 488 756
120 138 121
121 280 363
122 491 164
123 448 33
124 506 839
125 734 57
126 671 263
127 578 546
128 608 856
129 380 871
130 920 900
131 282 281
132 835 214
133 895 580
134 785 78
135 407 979
136 346 961
137 938 233
138 572 723
139 545 568
140 348 33
141 483 309
142 514 471
143 59 792
144 532 185
145 536 745
146 781 371
147 440 901
148 953 180
149 290 771
150 332 323
151 264 881
152 94 101
153 614 160
154 202 225
155 148 85
156 93 799
157 999 195
158 660 791
159 547 966
160 980 316
161 608 512
162 398 136
163 166 24
164 547 880
165 523 885
166 926 617
167 536 487
168 59 176
169 471 123
170 335 879
171 650 321
172 796 593
DEMAND_SECTION
2 64
3 73
4 98
5 36
6 76
7 13
8 74
9 43
10 80
11 59
12 95
13 33
14 68
15 35
16 64
17 59
18 22
19 10
20 60
21 36
22 20
23 49
24 67
25 69
26 83
27 99
COVERAGE_SECTION
2 9 162 117 111 55 78 87 83 112 140 
3 8 77 70 92 169 84 122 59 144 
4 9 53 172 67 71 31 133 36 34 54 
5 9 158 79 82 38 63 44 47 138 20 
6 9 58 108 14 81 146 48 132 33 90 
7 9 129 104 39 46 170 147 118 119 124 
8 9 98 32 154 112 43 97 120 17 155 
9 9 21 86 136 15 105 151 170 46 129 
10 7 100 37 45 72 144 57 141 
11 7 143 12 23 156 68 35 106 
12 5 143 11 68 156 23 
13 7 113 76 130 28 26 107 62 
14 9 132 48 90 6 85 88 58 74 137 
15 9 9 21 105 136 86 151 135 170 46 
16 9 51 120 97 152 40 168 96 43 155 
17 9 154 99 97 131 96 98 103 8 51 
18 9 165 65 56 89 118 164 159 147 124 
19 9 124 95 145 39 119 104 164 20 118 
20 9 138 145 63 42 73 19 119 44 95 
21 9 86 136 9 170 15 135 151 46 129 
22 9 93 64 30 134 66 88 91 80 25 
23 7 11 35 106 143 156 12 68 
24 9 148 157 101 137 132 88 14 48 22 
25 9 125 94 102 109 134 66 30 74 85 
26 9 28 130 107 62 61 49 13 113 76 
27 7 127 75 161 167 139 142 69 
28 9 26 107 62 130 13 113 61 49 76 
29 9 44 42 139 73 138 127 20 54 63 
30 9 66 134 88 109 22 93 25 85 125 
31 6 34 36 166 4 67 53 
32 9 112 83 55 8 140 87 98 2 78 
33 5 81 146 58 108 6 
34 6 31 36 166 76 4 67 
35 7 23 106 11 143 156 12 105 
36 6 34 31 67 53 4 76 
37 7 100 10 72 45 144 153 92 
38 7 47 79 5 82 67 158 36 
39 9 104 119 124 19 7 118 145 165 95 
40 4 168 51 16 96 
41 5 133 166 71 4 31 
42 9 73 138 145 20 119 29 44 139 63 
43 8 155 120 110 152 163 16 51 8 
44 9 29 138 63 20 5 42 73 54 145 
45 8 37 100 126 10 72 153 171 144 
46 8 170 129 86 7 151 21 149 9 
47 6 38 79 82 5 158 36 
48 9 132 14 90 85 88 74 6 30 66 
49 7 61 26 107 130 62 28 13 
50 9 135 65 89 147 18 159 52 136 56 
51 7 16 40 120 96 97 168 152 
52 7 159 56 116 18 165 50 164 
53 8 67 4 172 54 79 36 31 71 
54 8 172 53 67 4 44 29 79 5 
55 9 83 87 140 112 78 2 32 111 162 
56 8 159 116 52 18 164 165 65 118 
57 5 60 171 10 100 141 
58 9 6 81 108 146 33 14 132 48 126 
59 9 70 84 3 77 123 169 102 153 92 
60 6 57 171 69 10 100 126 
61 8 49 26 107 130 62 28 13 113 
62 9 107 28 26 61 130 49 113 13 76 
63 9 20 138 158 5 44 95 145 82 19 
64 9 91 93 22 80 115 30 134 66 88 
65 9 89 147 18 118 50 165 135 56 159 
66 9 30 134 109 88 25 22 125 85 93 
67 8 53 4 79 172 36 31 54 38 
68 4 12 143 156 11 
69 4 161 27 60 167 
70 9 77 3 59 84 123 169 92 111 122 
71 6 133 172 4 41 166 53 
72 7 37 144 153 100 45 10 92 
73 9 42 138 145 20 119 29 139 44 104 
74 9 85 90 109 66 30 48 88 134 25 
75 6 27 139 127 167 142 161 
76 6 13 113 34 36 31 130 
77 7 3 70 169 92 122 123 111 
78 9 87 140 55 111 83 123 2 112 162 
79 7 38 5 67 47 53 82 158 
80 9 115 91 64 93 22 101 24 30 134 
81 5 146 33 58 108 6 
82 7 158 5 38 47 63 128 79 
83 9 140 55 87 112 78 32 2 111 162 
84 9 59 70 3 77 153 94 102 125 25 
85 9 90 74 48 109 88 66 30 14 132 
86 9 21 9 136 170 46 151 129 15 105 
87 9 140 83 55 78 112 2 111 32 123 
88 9 30 66 48 85 90 134 22 132 109 
89 9 65 147 18 118 50 165 135 129 124 
90 9 85 74 48 88 14 132 109 30 66 
91 9 80 64 115 93 22 101 30 134 66 
92 5 122 144 169 72 3 
93 9 22 64 30 91 134 66 88 80 115 
94 9 125 25 102 109 134 66 30 74 22 
95 8 19 128 164 124 63 165 145 20 
96 6 97 51 99 40 16 154 
97 8 154 99 96 17 51 16 120 40 
98 9 8 32 17 154 112 131 97 2 117 
99 8 154 17 97 96 103 51 131 16 
100 7 10 37 45 72 144 57 141 
101 9 24 148 157 115 80 91 64 137 93 
102 9 94 125 25 134 109 66 30 84 22 
103 5 99 96 17 154 97 
104 9 39 119 7 124 19 145 118 20 95 
105 8 9 15 151 21 86 136 170 106 
106 7 23 35 105 11 156 143 151 
107 9 62 28 26 61 130 49 113 13 76 
108 7 146 58 81 6 33 171 126 
109 9 66 25 74 134 125 30 94 85 90 
110 8 163 43 155 120 152 8 32 16 
111 8 2 78 123 162 169 55 117 87 
112 9 32 83 55 140 87 2 78 8 98 
113 7 13 76 28 130 26 107 62 
114 6 160 137 33 157 148 24 
115 9 80 91 64 101 93 22 24 148 30 
116 5 56 159 52 164 18 
117 6 162 2 111 169 122 55 
118 9 124 165 89 18 147 65 164 39 19 
119 9 104 39 145 19 20 42 124 73 138 
120 9 43 155 16 152 51 110 97 168 163 
121 4 150 131 103 17 
122 5 92 144 169 77 3 
123 9 111 78 77 70 87 169 140 2 55 
124 9 118 19 165 39 164 95 104 18 119 
125 9 25 94 102 109 134 66 30 74 22 
126 8 45 171 37 6 100 108 10 60 
127 8 27 139 75 161 167 29 142 69 
128 7 95 164 158 116 165 19 82 
129 9 46 170 7 147 86 89 21 136 65 
130 9 26 28 107 13 61 62 113 49 76 
131 7 150 17 121 154 99 98 103 
132 9 14 48 90 88 85 6 137 58 74 
133 7 41 71 166 4 172 31 34 
134 9 66 30 25 109 125 94 22 88 93 
135 9 50 136 65 89 147 21 86 9 129 
136 9 21 86 9 135 15 170 129 46 50 
137 9 148 24 157 114 160 132 14 101 48 
138 9 20 145 63 42 44 73 119 29 19 
139 8 75 127 27 167 161 29 142 73 
140 9 87 83 55 78 112 32 2 111 123 
141 3 57 10 100 
142 3 167 75 27 
143 5 156 12 11 68 23 
144 6 92 72 122 37 10 100 
145 9 20 138 119 19 42 73 63 39 95 
146 5 81 108 33 58 6 
147 9 89 65 118 18 129 50 135 165 124 
148 9 24 157 137 101 132 14 88 160 114 
149 4 46 151 7 170 
150 3 131 121 17 
151 7 170 86 105 9 46 21 149 
152 5 120 155 43 16 51 
153 8 72 45 37 144 92 84 3 100 
154 9 17 99 97 96 98 8 51 131 16 
155 8 43 120 110 152 163 16 51 8 
156 5 143 12 11 68 23 
157 9 148 24 137 101 160 114 132 14 115 
158 7 82 5 63 128 95 38 79 
159 7 52 56 116 18 165 164 65 
160 6 114 137 157 148 24 33 
161 6 27 127 69 75 167 139 
162 6 117 2 111 169 55 78 
163 7 110 155 43 120 152 32 8 
164 7 165 18 124 56 95 118 128 
165 9 164 18 118 124 56 65 89 19 95 
166 6 41 133 31 71 34 4 
167 6 142 27 75 127 161 139 
168 4 40 51 16 152 
169 6 122 77 92 111 3 162 
170 8 46 86 129 21 151 9 136 7 
171 8 60 126 57 45 108 100 10 37 
172 6 4 53 71 67 54 133 
DEPOT_SECTION
   1
   -1
EOF
