NAME :  X-n261-kX-w52-c7.cctp
COMMENT : 	Adapted by Maziero, Usberti and Cavellucci from the Uchoa, Pecin, Pessoa, Poggi, Subramanian, and Vidal (2013)
TYPE :  CCTP
DIMENSION :    218
EDGE_WEIGHT_TYPE : 	EUC_2D	
CAPACITY : 	1081
VERTICES_WITHIN_COVERAGE :  7
VERTICES_WITH_DEMAND : 	52
NODE_COORD_SECTION
1 0 0
2 377 105
3 535 93
4 820 625
5 689 745
6 774 283
7 399 810
8 242 139
9 300 948
10 557 255
11 22 828
12 27 768
13 961 829
14 825 225
15 288 996
16 126 160
17 219 243
18 504 918
19 532 806
20 566 734
21 327 943
22 848 66
23 45 889
24 952 169
25 736 63
26 939 925
27 569 517
28 969 917
29 603 637
30 188 762
31 800 102
32 879 687
33 289 83
34 836 360
35 887 699
36 21 962
37 857 715
38 447 519
39 931 500
40 316 483
41 572 230
42 417 554
43 488 340
44 760 763
45 403 224
46 470 796
47 67 194
48 927 576
49 524 679
50 155 89
51 629 678
52 469 465
53 810 467
54 354 298
55 618 236
56 338 855
57 774 799
58 811 201
59 892 995
60 449 985
61 120 176
62 552 983
63 455 433
64 244 763
65 790 650
66 717 607
67 351 60
68 546 941
69 567 342
70 790 315
71 568 9
72 20 172
73 600 355
74 909 984
75 992 956
76 614 755
77 883 36
78 401 520
79 463 924
80 218 461
81 337 584
82 157 686
83 789 99
84 246 760
85 792 669
86 52 48
87 60 712
88 629 450
89 533 49
90 853 566
91 573 191
92 519 673
93 737 157
94 493 383
95 957 695
96 536 532
97 926 788
98 513 86
99 59 246
100 803 472
101 391 39
102 311 531
103 741 723
104 936 7
105 799 359
106 477 410
107 689 805
108 45 244
109 818 770
110 339 47
111 607 57
112 763 168
113 324 924
114 358 40
115 977 409
116 823 138
117 453 911
118 771 182
119 912 18
120 422 585
121 854 59
122 729 52
123 73 223
124 572 821
125 126 236
126 259 824
127 167 213
128 277 169
129 184 250
130 153 833
131 563 253
132 978 112
133 724 23
134 161 329
135 461 782
136 851 737
137 237 951
138 105 942
139 972 950
140 749 340
141 36 228
142 744 110
143 181 44
144 420 81
145 309 69
146 987 831
147 951 322
148 953 17
149 388 269
150 395 150
151 484 870
152 995 462
153 472 391
154 488 756
155 138 121
156 724 451
157 414 545
158 835 445
159 506 839
160 734 57
161 991 663
162 671 263
163 578 546
164 344 527
165 180 806
166 380 871
167 920 900
168 282 281
169 835 214
170 895 580
171 785 78
172 407 979
173 31 260
174 346 961
175 938 233
176 572 723
177 838 477
178 545 568
179 260 584
180 348 33
181 483 309
182 237 419
183 417 484
184 514 471
185 59 792
186 532 185
187 536 745
188 781 371
189 440 901
190 953 180
191 290 771
192 332 323
193 264 881
194 94 101
195 614 160
196 202 225
197 148 85
198 93 799
199 934 466
200 999 195
201 660 791
202 547 966
203 980 316
204 608 512
205 398 136
206 166 24
207 547 880
208 523 885
209 926 617
210 536 487
211 445 327
212 851 455
213 59 176
214 474 325
215 471 123
216 335 879
217 796 593
218 417 342
DEMAND_SECTION
2 64
3 73
4 98
5 36
6 76
7 13
8 74
9 43
10 80
11 59
12 95
13 33
14 68
15 35
16 64
17 59
18 22
19 10
20 60
21 36
22 20
23 49
24 67
25 69
26 83
27 99
28 25
29 94
30 34
31 96
32 8
33 49
34 89
35 99
36 21
37 70
38 71
39 45
40 32
41 11
42 48
43 35
44 21
45 90
46 99
47 41
48 55
49 59
50 1
51 36
52 94
53 97
COVERAGE_SECTION
2 7 205 150 144 67 101 114 110 
3 4 98 89 215 111 
4 7 65 217 85 90 32 170 37 
5 7 201 103 107 44 76 51 57 
6 7 70 140 14 105 188 58 169 
7 7 166 135 46 56 216 189 151 
8 7 128 33 196 145 50 127 155 
9 7 21 113 174 15 137 193 216 
10 5 131 41 55 91 186 
11 7 185 12 23 198 87 130 36 
12 7 185 11 87 198 23 130 82 
13 7 146 97 167 28 26 139 75 
14 7 169 58 118 6 112 116 70 
15 7 9 21 137 174 113 193 172 
16 7 61 155 127 194 47 213 125 
17 7 196 129 127 168 125 128 134 
18 7 208 79 68 117 151 207 202 
19 7 159 124 187 46 154 135 207 
20 7 176 187 76 49 92 19 154 
21 7 113 174 9 216 15 172 193 
22 7 121 77 31 171 83 116 119 
23 7 11 36 138 185 198 12 130 
24 7 190 200 132 175 169 116 14 
25 7 160 122 133 142 171 83 31 
26 7 28 167 139 75 74 59 13 
27 7 163 96 204 210 178 184 88 
28 7 26 139 75 167 13 146 74 
29 7 51 49 178 92 176 163 20 
30 7 165 64 84 130 82 126 191 
31 7 83 171 116 142 22 121 25 
32 7 35 37 136 95 209 4 85 
33 7 145 110 67 8 180 114 128 
34 7 105 188 70 158 140 212 6 
35 7 32 37 136 95 209 97 109 
36 7 23 138 11 185 198 130 12 
37 7 136 35 32 109 85 65 4 
38 7 157 42 78 183 52 120 184 
39 7 199 152 48 170 212 177 90 
40 7 102 164 78 80 183 182 81 
41 6 131 10 91 55 186 195 
42 7 157 120 78 38 183 164 81 
43 7 214 181 94 211 153 106 218 
44 7 57 103 109 5 107 136 85 
45 4 149 150 205 54 
46 7 135 154 159 19 7 151 187 
47 7 213 123 141 72 99 108 61 
48 7 170 209 90 39 161 199 4 
49 7 92 176 187 20 154 29 51 
50 7 197 155 143 194 206 16 61 
51 7 29 176 76 20 5 49 92 
52 7 63 184 183 106 38 210 153 
53 6 100 177 158 212 156 188 
54 6 192 149 168 218 45 211 
55 6 41 131 162 10 91 195 
56 7 216 166 113 7 193 126 21 
57 6 44 109 103 107 136 5 
58 7 169 14 118 112 116 93 6 
59 6 74 26 139 167 75 28 
60 7 172 79 117 189 18 202 62 
61 7 16 47 155 125 127 213 123 
62 4 202 68 18 208 
63 7 106 52 153 94 183 184 38 
64 6 84 191 30 126 165 130 
65 7 85 4 217 66 103 37 32 
66 6 217 65 85 4 51 29 
67 7 110 114 180 145 101 2 33 
68 5 202 62 18 207 208 
69 6 73 43 94 10 131 181 
70 7 6 105 140 188 34 14 169 
71 6 89 111 3 98 215 133 
72 7 213 47 141 123 108 99 173 
73 5 69 88 10 131 94 
74 6 59 26 139 167 75 28 
75 7 139 28 26 74 167 59 146 
76 7 20 176 201 5 51 124 187 
77 7 119 121 22 104 148 31 171 
78 7 157 42 183 38 164 120 52 
79 7 117 189 18 151 60 208 172 
80 4 182 40 102 179 
81 6 164 102 179 42 120 157 
82 2 30 87 
83 7 31 171 142 116 25 22 160 
84 6 64 191 30 126 165 82 
85 7 65 4 103 217 37 32 136 
86 3 194 197 50 
87 4 12 185 198 82 
88 3 204 27 156 
89 5 98 3 71 111 215 
90 7 170 217 4 48 209 177 39 
91 6 41 186 195 131 55 10 
92 7 49 176 187 20 154 29 178 
93 7 112 118 142 83 31 58 116 
94 7 153 106 43 214 63 211 181 
95 7 161 35 32 209 97 37 136 
96 7 27 178 163 210 184 204 38 
97 7 13 146 136 35 95 37 109 
98 3 3 89 215 
99 7 108 123 141 173 47 125 213 
100 6 53 177 158 212 156 188 
101 6 114 180 67 144 110 2 
102 6 164 40 81 179 78 157 
103 7 44 5 85 57 65 109 107 
104 7 148 119 77 121 22 132 24 
105 7 188 34 70 140 6 158 53 
106 7 153 94 63 52 43 184 214 
107 5 201 5 44 57 76 
108 7 99 141 173 123 47 213 72 
109 7 136 57 44 37 103 35 32 
110 7 180 67 114 145 101 33 2 
111 7 71 89 3 98 195 122 133 
112 7 118 93 58 142 116 83 31 
113 7 21 9 174 216 56 193 166 
114 7 180 110 67 101 145 2 144 
115 7 152 199 147 203 39 212 158 
116 7 31 83 58 112 118 171 22 
117 7 79 189 18 151 60 208 172 
118 7 112 93 58 116 14 169 142 
119 7 104 77 148 121 22 132 31 
120 7 42 157 78 38 81 164 183 
121 7 22 77 31 119 171 83 116 
122 7 160 25 133 142 171 83 31 
123 7 99 47 108 141 213 125 173 
124 5 19 207 159 76 208 
125 7 127 123 61 129 99 47 16 
126 7 193 191 64 84 165 56 30 
127 7 196 129 125 17 61 16 123 
128 7 8 33 17 196 145 168 127 
129 7 196 17 127 125 134 61 168 
130 7 165 198 30 185 126 64 84 
131 6 10 41 55 91 186 69 
132 7 24 190 200 148 104 119 77 
133 7 122 160 25 171 142 83 31 
134 3 129 125 17 
135 7 46 154 7 159 19 187 151 
136 7 37 109 35 32 85 97 44 
137 7 9 15 193 21 113 174 216 
138 7 23 36 130 137 11 198 165 
139 7 75 28 26 74 167 59 146 
140 5 188 70 105 6 34 
141 7 108 99 173 123 47 213 72 
142 7 83 25 93 171 160 31 122 
143 7 206 50 197 155 194 8 33 
144 6 2 101 205 215 67 150 
145 7 33 110 67 180 114 2 101 
146 7 13 97 28 167 26 139 75 
147 7 203 175 115 34 200 190 199 
148 7 104 119 77 132 121 22 24 
149 7 54 45 192 218 211 181 214 
150 5 205 2 144 45 215 
151 7 159 208 117 18 189 79 207 
152 7 115 199 39 48 212 147 203 
153 7 106 94 63 43 214 211 52 
154 7 135 46 187 19 20 49 159 
155 7 50 197 16 194 61 143 127 
156 3 100 53 88 
157 7 42 78 120 38 183 164 81 
158 7 212 177 53 100 34 188 105 
159 7 151 19 208 46 207 124 135 
160 7 25 122 133 142 171 83 31 
161 7 95 209 48 35 32 170 97 
162 5 55 41 6 131 140 
163 7 27 178 96 204 210 29 184 
164 7 102 40 78 81 157 42 183 
165 7 130 30 64 84 126 198 193 
166 7 56 216 7 189 113 117 21 
167 7 26 28 139 13 74 75 146 
168 6 192 17 54 196 129 149 
169 7 14 58 118 116 112 6 175 
170 7 48 90 209 4 39 217 32 
171 7 83 31 25 142 160 122 22 
172 7 60 174 79 117 189 21 113 
173 6 108 99 141 123 47 72 
174 7 21 113 9 172 15 216 166 
175 7 190 24 200 147 203 169 14 
176 7 20 187 76 49 51 92 154 
177 7 212 53 158 100 90 39 199 
178 7 96 163 27 210 204 29 184 
179 4 102 81 164 40 
180 7 114 110 67 101 145 33 2 
181 7 214 43 211 218 94 153 69 
182 5 80 40 134 102 192 
183 7 78 38 52 157 63 42 164 
184 7 210 52 96 63 106 27 38 
185 7 198 12 11 87 23 130 165 
186 2 91 41 
187 7 20 176 154 19 49 92 76 
188 6 105 140 34 70 6 158 
189 7 117 79 151 18 166 60 172 
190 7 24 200 175 132 169 14 116 
191 7 84 64 126 56 30 193 165 
192 6 54 168 149 218 211 45 
193 7 126 216 113 137 9 56 21 
194 5 155 197 50 16 86 
195 5 91 55 41 186 111 
196 7 17 129 127 125 128 8 61 
197 7 50 155 143 194 206 16 61 
198 7 185 130 12 11 165 87 23 
199 7 39 152 115 212 177 158 48 
200 7 190 24 175 132 203 147 169 
201 4 107 5 76 124 
202 5 62 68 18 208 207 
203 7 147 115 175 200 190 152 24 
204 6 27 163 88 96 210 178 
205 6 150 2 144 215 45 67 
206 6 143 197 50 155 194 86 
207 6 208 18 159 68 124 151 
208 7 207 18 151 159 68 79 117 
209 7 48 170 161 32 95 90 35 
210 7 184 27 96 52 163 204 178 
211 7 214 218 181 43 153 94 149 
212 7 158 177 53 100 199 39 34 
213 7 47 72 123 141 61 16 108 
214 7 181 43 211 218 94 153 106 
215 3 98 144 3 
216 7 56 113 166 21 193 9 174 
217 6 4 65 90 85 66 170 
218 7 211 214 43 153 181 54 149 
DEPOT_SECTION
   1
   -1
EOF
