NAME :  X-n204-kX-w20-c9.cctp
COMMENT : 	Adapted by Maziero, Usberti and Cavellucci from the Uchoa, Pecin, Pessoa, Poggi, Subramanian, and Vidal (2013)
TYPE :  CCTP
DIMENSION :    127
EDGE_WEIGHT_TYPE : 	EUC_2D	
CAPACITY : 	836
VERTICES_WITHIN_COVERAGE :  9
VERTICES_WITH_DEMAND : 	20
NODE_COORD_SECTION
1 500 500
2 221 542
3 320 456
4 576 827
5 679 994
6 371 461
7 961 844
8 986 379
9 175 540
10 126 517
11 329 626
12 477 890
13 191 356
14 584 917
15 308 653
16 0 7
17 273 302
18 672 381
19 235 415
20 583 149
21 672 124
22 644 646
23 400 544
24 832 999
25 842 964
26 582 965
27 939 849
28 898 605
29 639 874
30 829 350
31 7 53
32 801 92
33 943 0
34 833 402
35 408 940
36 635 871
37 733 313
38 344 619
39 628 291
40 674 92
41 668 279
42 510 811
43 49 182
44 528 946
45 271 745
46 405 872
47 622 488
48 668 978
49 939 73
50 270 446
51 586 348
52 951 167
53 992 460
54 746 847
55 279 459
56 656 687
57 547 792
58 517 152
59 252 618
60 184 96
61 590 47
62 348 609
63 777 112
64 528 198
65 877 457
66 864 723
67 584 875
68 817 233
69 439 447
70 560 994
71 447 951
72 969 519
73 287 534
74 141 22
75 313 643
76 294 475
77 327 361
78 332 440
79 96 492
80 62 541
81 119 370
82 342 587
83 316 552
84 90 370
85 111 575
86 321 337
87 287 454
88 364 560
89 215 488
90 216 497
91 133 584
92 188 327
93 175 352
94 281 702
95 247 645
96 424 677
97 438 666
98 454 547
99 96 387
100 462 532
101 343 658
102 127 368
103 245 363
104 356 488
105 259 410
106 196 492
107 303 336
108 287 528
109 285 277
110 167 560
111 328 277
112 355 399
113 236 522
114 345 467
115 250 337
116 232 388
117 362 702
118 105 507
119 245 521
120 257 647
121 423 470
122 206 467
123 241 305
124 210 392
125 371 627
126 219 344
127 96 427
DEMAND_SECTION
2 61
3 96
4 52
5 58
6 81
7 76
8 51
9 98
10 65
11 84
12 63
13 79
14 89
15 70
16 93
17 84
18 100
19 70
20 52
21 86
COVERAGE_SECTION
2 8 113 119 90 9 89 106 110 73 
3 8 78 114 76 87 55 104 6 50 
4 9 57 67 42 36 29 14 12 44 26 
5 9 48 26 70 14 29 36 67 24 44 
6 9 114 104 78 3 121 112 69 76 87 
7 7 27 66 25 24 54 28 5 
8 9 53 65 72 34 30 52 68 28 37 
9 8 110 2 106 10 90 91 113 89 
10 8 118 79 9 110 85 91 80 106 
11 9 38 75 62 15 101 82 125 83 88 
12 9 71 46 44 35 42 67 14 4 57 
13 9 93 92 126 124 116 103 115 102 123 
14 9 67 26 44 36 29 70 4 48 12 
15 9 75 11 101 38 120 94 62 95 59 
16 4 31 74 43 60 
17 8 109 123 115 107 86 111 103 126 
18 6 37 51 39 41 47 30 
19 8 105 116 124 50 103 122 55 87 
20 5 58 64 21 61 40 
21 9 40 20 63 61 32 41 58 64 39 
22 5 56 47 57 4 97 
23 9 88 98 100 104 82 121 62 83 6 
24 9 25 5 48 54 27 7 29 36 26 
25 9 24 27 54 5 7 48 29 36 66 
26 9 70 14 44 48 67 5 29 36 12 
27 7 7 66 25 24 54 28 5 
28 7 72 66 65 53 34 8 7 
29 9 36 67 14 4 26 48 54 57 5 
30 9 34 37 65 68 8 18 41 53 39 
31 5 16 43 74 60 84 
32 9 63 40 21 49 68 52 33 61 20 
33 9 49 52 32 63 68 40 21 61 30 
34 9 30 65 37 8 18 53 68 72 41 
35 6 71 46 12 44 70 42 
36 9 29 67 14 4 26 48 54 57 5 
37 7 41 18 30 39 68 34 51 
38 9 62 11 125 82 75 101 15 88 83 
39 5 41 51 18 37 64 
40 9 21 61 63 20 32 58 64 41 68 
41 6 39 37 18 51 20 21 
42 9 57 4 12 67 46 14 44 36 29 
43 6 31 60 16 74 84 81 
44 9 26 70 14 12 71 67 35 4 36 
45 6 94 15 120 117 95 75 
46 8 35 12 71 42 44 57 117 4 
47 6 18 51 22 100 98 69 
48 9 5 26 14 29 70 36 67 44 54 
49 9 33 52 32 63 68 40 21 30 8 
50 6 55 87 76 105 19 3 
51 3 39 18 41 
52 9 49 68 33 32 63 8 30 37 34 
53 7 72 8 65 34 28 30 68 
54 9 29 36 25 48 5 67 4 66 24 
55 5 87 50 76 3 105 
56 5 22 57 4 54 36 
57 9 42 4 67 36 12 29 14 56 44 
58 2 64 20 
59 9 95 120 15 75 11 2 94 73 38 
60 4 74 43 31 16 
61 6 40 20 21 58 64 63 
62 9 38 82 11 125 75 101 88 15 83 
63 9 32 40 21 68 49 52 20 61 41 
64 2 58 20 
65 7 34 72 53 30 8 28 37 
66 7 28 27 7 54 56 72 22 
67 9 14 4 36 29 26 44 57 42 12 
68 9 37 30 63 32 52 41 34 21 39 
69 7 121 6 100 104 114 112 98 
70 9 26 44 14 48 5 67 71 12 29 
71 9 35 12 44 46 70 26 14 42 67 
72 7 53 65 28 8 34 30 66 
73 6 108 83 119 113 76 2 
74 4 60 31 16 43 
75 9 15 11 101 38 62 120 125 82 59 
76 6 55 87 3 50 78 114 
77 5 86 107 112 78 17 
78 9 3 114 6 87 112 76 104 55 50 
79 7 118 10 80 127 85 9 110 
80 5 118 79 85 10 91 
81 7 102 84 99 93 127 13 92 
82 9 62 38 88 11 83 125 75 101 23 
83 8 73 108 82 88 62 38 11 104 
84 6 99 81 102 127 93 13 
85 3 91 110 10 
86 6 107 77 17 111 109 112 
87 6 55 50 76 3 78 105 
88 9 82 23 83 62 38 125 104 11 73 
89 6 90 106 122 113 119 2 
90 6 89 106 113 122 119 2 
91 3 85 110 9 
92 9 93 13 126 123 115 103 124 102 116 
93 9 13 92 126 102 124 81 116 103 115 
94 9 45 15 120 95 75 101 117 59 11 
95 8 120 59 15 75 94 11 101 38 
96 9 97 117 125 101 38 62 11 75 15 
97 8 96 125 117 101 38 62 11 98 
98 9 100 23 121 88 69 104 125 82 6 
99 6 84 81 102 127 93 13 
100 9 98 23 121 69 88 6 104 82 125 
101 9 75 11 15 38 125 117 62 82 94 
102 7 81 99 84 93 13 127 92 
103 9 115 116 126 124 105 19 13 123 107 
104 9 114 6 3 78 76 121 23 88 83 
105 8 19 116 50 103 87 124 55 76 
106 7 89 90 122 113 9 2 119 
107 7 86 77 17 115 109 103 111 
108 6 73 83 119 113 76 2 
109 6 17 111 123 107 115 86 
110 7 9 91 2 85 10 106 113 
111 4 109 17 86 107 
112 6 77 78 6 3 114 86 
113 5 119 2 90 89 106 
114 9 104 3 6 78 76 87 55 112 50 
115 9 103 126 123 17 107 116 13 92 124 
116 9 124 19 103 105 126 13 115 93 50 
117 9 101 96 15 125 75 94 11 97 38 
118 7 79 10 80 85 9 127 91 
119 6 113 2 90 108 73 89 
120 8 95 59 15 75 94 11 101 38 
121 8 69 6 104 100 23 114 98 78 
122 6 89 106 90 19 113 50 
123 9 17 115 126 109 92 103 107 13 93 
124 9 116 19 13 103 126 105 93 115 92 
125 9 38 62 11 101 82 75 88 15 96 
126 9 13 103 115 92 93 123 116 124 17 
127 7 99 84 81 79 102 118 10 
DEPOT_SECTION
   1
   -1
EOF
