NAME :  X-n228-kX-w90-c9.cctp
COMMENT : 	Adapted by Maziero, Usberti and Cavellucci from the Uchoa, Pecin, Pessoa, Poggi, Subramanian, and Vidal (2013)
TYPE :  CCTP
DIMENSION :    223
EDGE_WEIGHT_TYPE : 	EUC_2D	
CAPACITY : 	154
VERTICES_WITHIN_COVERAGE :  9
VERTICES_WITH_DEMAND : 	90
NODE_COORD_SECTION
1 550 574
2 177 24
3 448 476
4 934 619
5 323 122
6 430 76
7 364 9
8 988 994
9 91 636
10 938 641
11 979 764
12 4 748
13 420 164
14 294 15
15 304 89
16 362 207
17 770 344
18 67 634
19 90 44
20 712 418
21 299 6
22 997 871
23 38 695
24 830 1000
25 916 622
26 445 107
27 314 222
28 292 519
29 183 344
30 520 434
31 262 283
32 996 902
33 115 158
34 371 61
35 971 352
36 448 484
37 299 89
38 402 147
39 537 431
40 389 48
41 186 22
42 658 505
43 459 528
44 956 900
45 486 383
46 36 651
47 994 713
48 270 100
49 944 606
50 813 917
51 318 42
52 17 369
53 398 280
54 74 760
55 910 623
56 96 604
57 432 96
58 188 17
59 441 480
60 458 124
61 557 620
62 196 51
63 253 137
64 953 658
65 389 0
66 386 127
67 140 683
68 293 75
69 475 386
70 224 487
71 299 157
72 556 346
73 366 110
74 681 864
75 220 97
76 382 140
77 266 88
78 440 423
79 168 19
80 616 244
81 270 177
82 126 666
83 332 85
84 234 26
85 834 571
86 49 602
87 248 74
88 81 696
89 308 43
90 915 675
91 500 518
92 510 353
93 329 86
94 830 724
95 993 634
96 959 600
97 991 973
98 411 25
99 382 303
100 477 58
101 225 31
102 439 456
103 120 710
104 462 471
105 107 134
106 970 995
107 427 501
108 938 650
109 370 16
110 460 140
111 263 59
112 411 89
113 953 944
114 79 357
115 757 867
116 343 121
117 361 316
118 407 508
119 414 117
120 576 591
121 418 27
122 837 660
123 174 487
124 168 601
125 854 575
126 193 51
127 458 659
128 957 641
129 51 647
130 137 714
131 203 140
132 386 146
133 976 649
134 281 121
135 453 69
136 393 25
137 341 532
138 466 153
139 507 472
140 946 963
141 327 78
142 301 135
143 256 139
144 997 980
145 343 173
146 860 622
147 151 798
148 317 211
149 418 6
150 833 694
151 83 641
152 229 449
153 283 204
154 513 697
155 232 96
156 247 22
157 651 664
158 857 701
159 337 72
160 439 65
161 398 106
162 409 24
163 931 476
164 368 92
165 97 676
166 880 606
167 281 199
168 410 110
169 252 22
170 181 147
171 945 948
172 135 618
173 348 443
174 296 39
175 953 368
176 81 826
177 997 734
178 533 134
179 372 134
180 231 681
181 317 479
182 143 603
183 122 38
184 220 898
185 946 690
186 95 37
187 429 9
188 137 64
189 361 258
190 153 65
191 536 296
192 509 404
193 423 59
194 162 759
195 525 342
196 943 678
197 522 195
198 371 335
199 289 136
200 191 568
201 505 381
202 265 55
203 125 62
204 304 44
205 958 610
206 975 966
207 277 631
208 285 169
209 486 111
210 940 621
211 993 964
212 771 548
213 484 276
214 440 455
215 104 561
216 200 61
217 491 62
218 277 169
219 177 695
220 628 312
221 430 429
222 945 994
223 461 608
DEMAND_SECTION
2 79
3 57
4 88
5 54
6 92
7 84
8 61
9 100
10 61
11 69
12 78
13 54
14 59
15 60
16 61
17 85
18 67
19 96
20 57
21 57
22 52
23 80
24 60
25 71
26 93
27 59
28 88
29 77
30 50
31 98
32 53
33 54
34 99
35 10
36 9
37 8
38 9
39 7
40 10
41 9
42 2
43 3
44 3
45 7
46 8
47 3
48 2
49 2
50 10
51 2
52 10
53 3
54 9
55 7
56 4
57 6
58 6
59 3
60 3
61 9
62 9
63 9
64 5
65 2
66 10
67 2
68 5
69 9
70 6
71 3
72 7
73 10
74 7
75 10
76 6
77 3
78 10
79 6
80 2
81 4
82 4
83 9
84 5
85 9
86 5
87 5
88 7
89 1
90 10
91 4
COVERAGE_SECTION
2 9 41 79 58 126 62 216 190 101 84 
3 9 36 59 104 102 214 107 221 118 43 
4 9 210 49 25 10 55 205 96 108 128 
5 9 116 142 93 199 15 83 37 71 134 
6 9 160 193 57 112 135 26 168 119 161 
7 9 109 65 136 40 162 98 34 149 51 
8 9 144 106 97 211 206 222 140 113 171 
9 9 151 18 56 165 129 82 172 86 46 
10 9 108 128 210 4 64 25 55 49 196 
11 9 177 47 185 196 22 64 90 133 108 
12 9 23 54 88 46 176 129 165 103 18 
13 9 38 132 76 110 119 138 66 60 168 
14 9 21 174 89 204 51 169 156 202 111 
15 9 37 68 93 141 83 48 159 5 77 
16 9 145 148 27 189 132 76 13 38 179 
17 9 20 220 80 175 42 35 212 163 72 
18 9 151 129 9 46 86 56 165 88 82 
19 9 186 183 203 188 190 79 2 105 41 
20 9 17 42 220 212 72 39 30 85 80 
21 9 14 174 89 204 51 169 156 202 111 
22 9 32 44 113 171 211 206 97 140 11 
23 9 88 46 129 165 12 18 151 54 9 
24 9 50 222 140 171 113 106 206 115 8 
25 9 55 4 210 10 49 108 166 205 128 
26 9 57 60 119 6 168 110 112 135 209 
27 9 148 153 167 16 145 189 208 81 218 
28 9 181 137 70 152 173 200 207 118 123 
29 9 31 114 152 123 70 52 153 167 27 
30 9 39 192 139 201 45 69 104 78 92 
31 9 27 153 167 148 29 189 117 81 218 
32 9 22 44 113 211 206 171 97 144 140 
33 9 105 170 131 188 203 190 19 183 75 
34 9 40 164 159 136 109 83 141 73 93 
35 9 175 163 17 96 125 49 85 205 20 
36 9 3 59 104 107 102 214 43 118 221 
37 9 15 68 93 141 48 77 83 134 5 
38 9 132 76 13 66 119 179 168 161 73 
39 9 30 192 139 201 45 69 92 104 72 
40 9 34 136 162 98 121 193 109 7 112 
41 9 58 2 79 126 62 101 216 84 190 
42 9 20 120 212 39 61 30 139 91 157 
43 9 91 107 36 59 3 118 104 139 102 
44 9 32 113 171 22 140 206 211 97 144 
45 9 69 201 192 92 195 30 78 39 221 
46 9 129 18 23 151 86 9 88 165 56 
47 9 177 11 185 196 133 64 95 128 108 
48 9 77 134 37 68 87 15 155 63 143 
49 9 205 4 96 210 25 10 128 55 108 
50 9 115 24 171 140 74 113 44 222 206 
51 9 89 204 174 14 159 141 21 68 83 
52 9 114 29 123 215 152 33 86 70 56 
53 9 99 189 117 198 16 213 27 148 13 
54 9 88 176 103 12 23 130 147 165 194 
55 9 25 4 210 10 166 49 108 128 146 
56 9 9 151 172 18 215 86 182 129 82 
57 9 26 6 112 168 119 160 135 161 60 
58 9 41 2 79 126 62 101 216 84 156 
59 9 3 36 104 102 107 214 118 43 221 
60 9 110 26 138 209 57 119 168 13 135 
61 9 120 154 223 157 127 91 43 42 139 
62 9 126 216 41 2 58 101 79 84 190 
63 9 143 134 199 218 48 81 208 155 142 
64 9 108 128 196 10 133 185 210 90 4 
65 9 109 136 7 149 162 98 121 187 40 
66 9 76 179 132 161 38 73 168 119 164 
67 9 82 130 103 219 165 88 172 9 151 
68 9 37 15 77 204 48 111 141 202 89 
69 9 45 201 192 92 78 221 30 195 39 
70 9 152 123 28 200 181 137 124 173 182 
71 9 208 142 199 218 81 134 5 167 143 
72 9 195 92 191 201 192 45 220 39 69 
73 9 164 116 179 66 161 76 132 83 93 
74 9 115 50 24 157 94 150 154 158 122 
75 9 155 87 216 131 77 48 62 63 126 
76 9 132 179 66 38 73 161 119 168 116 
77 9 48 87 111 68 37 202 155 134 15 
78 9 221 214 102 69 104 3 59 45 36 
79 9 2 41 58 126 62 190 183 216 188 
80 9 220 191 197 72 195 213 178 92 138 
81 9 218 208 167 153 71 143 63 199 142 
82 9 67 165 103 9 130 172 151 88 219 
83 9 93 141 159 15 37 164 5 116 68 
84 9 101 156 169 202 111 62 58 41 126 
85 9 125 146 166 212 122 55 25 4 49 
86 9 18 129 56 46 151 9 215 172 165 
87 9 111 77 202 155 48 75 68 101 84 
88 9 165 103 23 82 151 129 130 67 9 
89 9 204 51 174 14 68 21 141 159 202 
90 9 196 108 185 10 64 55 25 128 4 
91 9 43 139 104 36 3 59 107 30 102 
92 9 195 201 45 72 69 192 191 213 30 
93 9 83 141 159 15 37 5 68 116 164 
94 9 150 158 122 90 146 185 196 166 55 
95 9 133 128 205 64 96 10 210 49 108 
96 9 205 49 210 4 128 10 25 95 133 
97 9 144 211 206 8 106 140 113 222 171 
98 9 162 121 136 149 187 40 65 193 109 
99 9 117 53 198 189 16 27 213 148 31 
100 7 217 135 160 6 193 209 26 
101 9 84 156 169 62 126 216 41 58 111 
102 9 214 3 59 104 221 36 78 107 118 
103 9 130 67 88 165 82 219 194 54 151 
104 9 3 36 59 102 214 139 107 78 221 
105 9 33 203 170 188 190 19 131 183 186 
106 9 8 222 206 97 144 211 140 171 113 
107 9 118 59 36 3 43 104 102 214 221 
108 9 10 64 128 196 210 4 90 25 133 
109 9 7 65 136 40 162 98 34 121 149 
110 9 138 60 26 209 13 119 57 38 168 
111 9 202 87 77 68 169 174 156 48 84 
112 9 161 168 57 6 119 193 160 26 164 
113 9 171 140 206 44 211 97 222 106 144 
114 9 52 29 123 152 70 31 33 215 105 
115 9 50 74 24 94 150 158 44 171 113 
116 9 5 73 179 83 93 164 66 76 142 
117 9 198 99 53 189 31 27 16 148 173 
118 9 107 59 36 3 43 102 214 104 137 
119 9 168 161 57 112 66 38 26 76 132 
120 9 61 91 157 223 42 154 43 127 139 
121 9 98 162 149 187 136 193 40 65 160 
122 9 150 146 158 94 166 90 55 125 25 
123 9 70 152 200 215 124 182 28 172 56 
124 9 182 172 200 56 215 82 9 67 151 
125 9 85 166 146 55 25 122 212 4 49 
126 9 62 216 41 2 58 101 79 190 84 
127 9 223 154 61 43 120 91 118 107 137 
128 9 64 10 108 133 210 205 4 49 95 
129 9 46 18 151 9 86 23 165 88 56 
130 9 103 67 219 82 194 165 88 54 147 
131 9 170 75 63 143 155 81 48 216 218 
132 9 76 38 179 66 13 119 73 161 168 
133 9 128 95 64 108 10 205 196 210 185 
134 9 199 48 142 143 63 77 37 15 71 
135 8 160 6 100 193 57 26 217 112 
136 9 162 98 40 65 109 121 149 7 187 
137 9 28 181 118 173 107 59 36 43 207 
138 9 110 60 13 209 26 119 38 57 178 
139 9 30 104 91 39 3 36 59 192 214 
140 9 171 113 206 222 106 97 211 8 144 
141 9 93 83 159 15 37 68 51 89 204 
142 9 199 71 134 5 208 218 116 143 15 
143 9 63 134 199 218 81 48 208 142 71 
144 9 97 211 8 206 106 140 222 113 171 
145 9 16 148 71 179 76 132 116 5 27 
146 9 166 122 125 55 25 85 4 90 150 
147 9 194 176 130 54 103 219 67 184 88 
148 9 27 153 167 16 145 208 71 81 218 
149 8 187 98 162 121 65 136 109 40 
150 9 158 94 122 146 90 166 55 25 196 
151 9 9 18 129 165 56 46 82 86 88 
152 9 70 123 181 28 29 173 200 137 124 
153 9 167 81 148 208 27 218 71 145 199 
154 9 127 61 223 120 157 43 91 107 118 
155 9 75 87 77 48 63 216 111 143 131 
156 9 169 84 101 202 111 14 87 174 21 
157 9 61 120 154 42 212 150 122 94 127 
158 9 150 94 122 90 146 196 185 55 108 
159 9 141 83 93 34 51 15 164 89 37 
160 8 6 135 193 57 112 100 26 121 
161 9 168 119 112 66 73 164 57 76 179 
162 9 98 121 136 149 187 40 65 193 109 
163 9 175 125 96 35 49 85 205 166 4 
164 9 73 34 161 83 159 116 66 93 179 
165 9 88 82 151 9 103 67 18 129 130 
166 9 146 55 25 125 4 85 210 49 10 
167 9 153 81 208 218 148 27 71 199 143 
168 9 119 161 112 57 66 26 38 6 76 
169 9 156 84 101 202 111 14 174 21 87 
170 9 131 75 33 155 63 105 143 190 216 
171 9 113 140 206 222 44 211 97 106 144 
172 9 182 124 56 9 82 151 67 215 165 
173 9 181 221 118 137 102 214 28 78 107 
174 9 204 89 51 14 21 202 68 111 169 
175 9 35 163 17 125 96 85 49 205 20 
176 9 54 147 194 12 103 130 88 23 165 
177 9 47 11 185 196 64 133 95 90 128 
178 8 209 197 138 110 60 217 26 100 
179 9 76 66 132 73 116 38 161 164 119 
180 9 219 207 67 130 124 194 82 103 172 
181 9 28 173 137 70 152 118 107 59 102 
182 9 172 124 56 215 200 9 82 151 67 
183 9 203 186 188 19 190 79 2 41 58 
184 9 147 194 176 54 130 219 103 180 67 
185 9 196 64 90 108 10 128 133 47 177 
186 9 19 183 203 188 190 79 2 41 58 
187 8 149 121 98 162 136 65 193 40 
188 9 203 190 183 186 19 79 2 126 62 
189 9 53 99 16 117 27 148 198 145 153 
190 9 188 203 183 126 62 216 2 79 41 
191 9 195 72 213 92 201 220 80 45 197 
192 9 201 45 30 69 39 92 195 139 78 
193 9 160 6 112 121 135 40 98 57 162 
194 9 147 130 103 219 67 54 82 88 180 
195 9 92 72 201 191 45 192 69 213 39 
196 9 185 64 90 108 10 128 133 210 4 
197 9 178 138 110 213 209 60 191 80 13 
198 9 117 99 53 189 173 221 78 69 31 
199 9 142 134 71 143 208 218 63 5 48 
200 9 124 182 172 123 70 215 56 207 28 
201 9 45 192 92 69 195 30 39 72 78 
202 9 111 87 77 68 169 174 156 204 84 
203 9 188 183 190 19 186 79 2 126 62 
204 9 89 174 51 14 68 21 141 202 159 
205 9 96 49 210 4 128 10 95 133 25 
206 9 97 211 144 106 140 8 113 171 222 
207 9 180 200 28 124 137 219 182 172 67 
208 9 218 81 71 167 199 153 142 143 63 
209 9 60 110 26 138 217 178 135 100 57 
210 9 4 49 10 205 25 128 96 108 55 
211 9 97 144 206 8 106 113 140 171 222 
212 9 85 125 146 42 166 122 20 55 150 
213 9 191 195 92 53 197 72 99 45 201 
214 9 102 3 59 104 221 36 78 107 118 
215 9 56 182 172 86 124 9 18 151 200 
216 9 62 126 101 41 75 2 58 155 190 
217 5 100 135 209 160 6 
218 9 208 81 71 167 199 153 143 63 142 
219 9 67 130 180 82 103 194 165 172 124 
220 9 80 72 191 195 92 20 201 17 213 
221 9 78 102 214 3 59 104 36 69 45 
222 9 106 140 206 8 171 97 113 144 211 
223 9 127 43 61 91 154 107 118 120 36 
DEPOT_SECTION
   1
   -1
EOF
