NAME :  X-n298-kX-w59-c9.cctp
COMMENT : 	Adapted by Maziero, Usberti and Cavellucci from the Uchoa, Pecin, Pessoa, Poggi, Subramanian, and Vidal (2013)
TYPE :  CCTP
DIMENSION :    242
EDGE_WEIGHT_TYPE : 	EUC_2D	
CAPACITY : 	55
VERTICES_WITHIN_COVERAGE :  9
VERTICES_WITH_DEMAND : 	59
NODE_COORD_SECTION
1 440 732
2 221 348
3 117 545
4 493 645
5 135 12
6 775 997
7 745 444
8 950 311
9 530 150
10 900 508
11 48 519
12 269 217
13 722 349
14 480 733
15 977 422
16 999 220
17 636 332
18 851 162
19 559 567
20 389 69
21 529 835
22 303 427
23 400 638
24 894 904
25 482 109
26 579 800
27 184 82
28 669 753
29 906 424
30 374 692
31 174 613
32 75 37
33 38 563
34 838 157
35 710 709
36 176 67
37 449 326
38 71 389
39 710 115
40 237 547
41 530 27
42 631 223
43 171 342
44 226 65
45 6 998
46 24 635
47 668 165
48 318 608
49 429 82
50 212 237
51 853 126
52 387 47
53 677 144
54 111 790
55 957 32
56 511 647
57 457 561
58 86 687
59 290 456
60 473 563
61 807 725
62 461 468
63 739 235
64 257 340
65 588 545
66 6 311
67 994 946
68 452 534
69 422 545
70 248 611
71 43 366
72 977 96
73 822 580
74 86 263
75 715 99
76 668 981
77 424 638
78 297 607
79 251 282
80 237 413
81 202 573
82 181 385
83 126 528
84 978 846
85 70 99
86 333 357
87 49 870
88 157 734
89 627 268
90 818 433
91 738 555
92 978 59
93 42 595
94 870 933
95 19 120
96 165 679
97 131 984
98 319 417
99 187 376
100 251 482
101 657 219
102 209 397
103 800 377
104 228 116
105 566 559
106 490 156
107 216 547
108 600 893
109 938 222
110 543 747
111 569 59
112 971 515
113 616 306
114 695 837
115 537 957
116 778 101
117 462 74
118 87 682
119 608 430
120 511 313
121 710 300
122 630 24
123 626 650
124 531 719
125 598 824
126 279 169
127 286 268
128 259 659
129 782 132
130 862 518
131 457 603
132 44 44
133 527 818
134 164 156
135 23 86
136 39 282
137 333 488
138 517 137
139 541 888
140 122 280
141 159 655
142 200 158
143 446 283
144 107 315
145 588 270
146 158 374
147 26 353
148 959 76
149 852 328
150 437 138
151 53 938
152 333 192
153 922 499
154 8 561
155 989 908
156 100 860
157 10 960
158 842 190
159 595 716
160 199 373
161 159 67
162 979 25
163 488 479
164 742 853
165 528 160
166 223 342
167 503 159
168 711 681
169 342 509
170 931 593
171 766 953
172 710 172
173 172 159
174 685 836
175 639 155
176 763 656
177 269 241
178 330 177
179 901 124
180 713 860
181 692 19
182 96 876
183 949 178
184 79 795
185 833 852
186 336 444
187 877 0
188 296 597
189 566 735
190 940 377
191 939 827
192 908 120
193 50 741
194 670 569
195 753 744
196 577 351
197 141 616
198 97 625
199 64 875
200 496 160
201 515 598
202 274 510
203 291 170
204 800 300
205 74 609
206 791 396
207 453 848
208 395 290
209 525 743
210 260 385
211 1 346
212 231 504
213 837 572
214 606 473
215 123 80
216 477 169
217 383 59
218 510 410
219 890 101
220 68 598
221 172 367
222 569 289
223 84 19
224 454 412
225 261 233
226 693 375
227 588 854
228 276 538
229 599 569
230 142 158
231 324 194
232 739 325
233 638 182
234 858 93
235 40 923
236 37 599
237 638 39
238 218 714
239 568 674
240 439 570
241 587 278
242 597 608
DEMAND_SECTION
2 2
3 9
4 1
5 4
6 9
7 5
8 7
9 2
10 4
11 7
12 2
13 9
14 5
15 10
16 5
17 8
18 5
19 8
20 8
21 6
22 7
23 2
24 1
25 3
26 9
27 1
28 1
29 10
30 3
31 4
32 8
33 10
34 7
35 9
36 6
37 1
38 1
39 9
40 9
41 5
42 9
43 3
44 6
45 4
46 2
47 8
48 3
49 10
50 6
51 9
52 5
53 5
54 7
55 10
56 5
57 8
58 1
59 4
60 4
COVERAGE_SECTION
2 9 166 160 64 99 43 102 221 82 210 
3 9 83 220 11 197 205 33 198 31 81 
4 9 56 201 131 77 239 124 60 14 57 
5 9 223 161 32 36 215 27 132 44 85 
6 7 171 76 94 164 180 24 185 
7 8 206 90 226 103 13 91 232 119 
8 9 190 109 149 16 15 29 183 204 158 
9 9 165 138 167 200 106 216 25 150 111 
10 9 153 130 112 29 170 213 73 90 15 
11 9 33 154 3 93 83 220 236 205 198 
12 9 225 177 126 203 127 50 231 79 152 
13 9 232 226 121 103 206 17 204 7 113 
14 8 209 124 110 189 4 56 133 239 
15 9 190 29 112 153 8 10 130 149 90 
16 9 109 183 8 72 192 179 148 18 158 
17 9 113 196 89 226 241 145 222 121 13 
18 9 34 158 51 179 234 192 219 129 116 
19 9 105 65 229 201 242 60 56 4 57 
20 8 217 52 49 117 150 25 178 106 
21 9 133 139 26 227 125 207 110 108 209 
22 9 98 59 186 210 80 137 86 100 202 
23 9 77 30 131 240 48 4 57 69 60 
24 8 94 185 191 155 84 67 171 6 
25 9 117 138 106 200 150 167 49 216 9 
26 9 125 133 227 21 110 189 209 159 124 
27 9 36 161 44 104 215 134 142 173 5 
28 9 35 159 168 195 174 114 125 26 189 
29 9 190 15 153 10 90 130 149 112 103 
30 6 23 77 48 14 78 128 
31 9 197 141 81 96 70 107 198 3 40 
32 9 223 132 85 215 5 135 161 95 36 
33 9 154 93 236 11 220 205 46 3 198 
34 9 18 158 51 129 234 179 219 192 116 
35 7 168 195 28 176 61 123 159 
36 9 27 161 44 215 5 104 134 173 142 
37 5 143 120 208 224 218 
38 9 71 147 144 211 146 66 221 43 82 
39 9 75 53 172 47 116 129 175 181 233 
40 9 107 228 212 81 202 70 100 188 78 
41 9 111 117 25 122 237 138 49 9 165 
42 9 101 233 89 145 175 47 241 113 53 
43 9 221 146 99 160 82 2 166 102 144 
44 9 27 36 104 161 142 215 5 173 134 
45 8 157 151 235 97 87 199 182 156 
46 9 236 93 205 220 33 198 154 118 58 
47 9 53 175 233 172 101 39 42 75 63 
48 9 78 188 70 128 228 23 30 40 169 
49 9 117 20 217 52 150 25 106 216 200 
50 9 225 177 12 79 127 142 173 134 126 
51 9 234 34 18 219 179 192 158 129 116 
52 8 217 20 49 117 150 25 178 41 
53 9 47 175 172 39 233 75 101 42 129 
54 8 184 156 88 193 182 199 87 58 
55 9 162 92 148 72 187 219 192 179 234 
56 9 4 201 239 131 124 77 14 60 19 
57 9 60 240 68 69 131 201 77 163 4 
58 9 118 198 193 96 205 141 46 88 197 
59 9 22 100 186 98 137 202 80 169 212 
60 9 57 240 68 131 69 201 4 163 19 
61 3 195 176 35 
62 8 163 224 68 218 69 57 60 240 
63 9 172 121 101 204 232 47 42 53 129 
64 8 166 2 210 79 160 102 80 86 
65 8 105 229 19 242 214 194 201 123 
66 9 211 136 147 71 74 144 38 140 146 
67 8 155 84 24 94 191 185 6 171 
68 9 57 69 60 240 163 62 131 201 77 
69 9 240 68 57 60 131 62 169 77 163 
70 9 78 128 188 81 40 48 107 31 228 
71 9 147 38 211 66 144 136 74 146 140 
72 9 148 92 55 162 192 179 183 219 234 
73 6 213 130 91 176 10 170 
74 9 140 136 144 66 147 71 43 211 230 
75 9 39 53 116 172 129 47 181 175 237 
76 4 171 6 108 180 
77 9 23 131 4 240 30 57 56 60 69 
78 9 188 48 70 128 228 40 202 81 107 
79 8 127 177 225 64 50 166 12 2 
80 8 102 210 160 99 82 2 22 59 
81 9 107 40 31 70 197 212 228 83 3 
82 8 99 221 160 146 102 43 2 166 
83 9 3 11 81 197 220 107 33 205 31 
84 6 191 155 67 24 94 185 
85 9 135 95 215 132 32 223 230 161 5 
86 5 98 22 64 210 186 
87 8 199 182 156 235 151 184 157 54 
88 7 96 238 54 141 58 118 184 
89 9 145 113 241 42 101 222 17 233 121 
90 9 206 103 7 29 130 149 10 153 13 
91 7 194 73 213 176 7 130 168 
92 9 148 55 162 72 192 219 179 187 183 
93 9 236 220 33 205 46 154 198 11 3 
94 8 24 185 171 6 155 67 191 84 
95 9 135 85 132 32 215 223 230 134 161 
96 8 141 88 238 31 197 118 58 198 
97 7 151 235 182 157 45 156 199 
98 7 22 186 59 86 210 137 80 
99 9 82 160 221 146 102 43 2 166 80 
100 8 212 202 59 228 40 80 107 22 
101 9 42 233 47 89 175 172 53 63 145 
102 8 160 82 99 80 221 2 210 146 
103 9 206 90 149 204 232 13 7 226 29 
104 9 142 44 27 36 173 126 134 203 161 
105 9 19 65 229 242 201 60 214 56 194 
106 9 200 167 216 138 165 9 25 150 117 
107 9 40 81 212 228 202 70 100 31 83 
108 6 227 139 125 115 21 26 
109 9 183 16 8 158 179 18 192 34 51 
110 9 209 189 124 159 26 14 133 239 21 
111 9 41 122 237 138 9 25 117 165 175 
112 6 153 10 170 15 130 29 
113 9 17 89 241 145 222 196 42 121 101 
114 7 174 180 164 28 125 227 108 
115 4 139 108 227 21 
116 9 129 75 39 51 234 34 18 172 53 
117 9 49 25 150 20 52 217 41 138 106 
118 9 58 198 193 205 141 96 46 197 220 
119 7 214 196 218 226 17 65 113 
120 8 37 222 143 196 241 145 218 113 
121 9 232 13 63 226 17 89 204 113 101 
122 9 237 181 111 41 75 39 53 175 47 
123 9 242 239 159 229 168 194 35 189 19 
124 9 209 110 189 14 239 159 56 4 26 
125 9 26 227 108 21 133 139 174 110 189 
126 9 203 12 231 178 152 225 177 104 142 
127 6 177 79 225 12 64 50 
128 7 70 78 238 188 48 96 31 
129 9 116 34 51 39 18 75 172 158 234 
130 8 10 213 153 73 90 170 29 112 
131 9 240 57 60 77 4 201 23 69 68 
132 9 32 135 223 85 95 215 5 161 36 
133 9 21 26 125 139 227 110 209 207 189 
134 9 173 230 142 104 27 215 161 36 50 
135 9 95 132 85 32 223 215 5 161 230 
136 9 66 74 147 211 144 140 71 38 43 
137 9 169 186 59 202 22 98 228 100 212 
138 9 9 165 167 200 106 25 216 150 117 
139 7 21 227 108 115 133 125 26 
140 9 144 74 43 136 50 221 146 99 71 
141 9 96 197 31 198 118 88 58 238 81 
142 9 173 134 104 230 27 50 126 12 203 
143 4 37 208 120 216 
144 9 140 74 43 136 146 38 71 221 147 
145 9 241 222 89 113 42 17 196 101 120 
146 9 221 82 99 43 160 102 2 166 144 
147 9 71 211 66 38 136 144 74 140 146 
148 9 92 72 55 162 192 219 179 183 234 
149 9 204 103 206 8 190 29 90 232 13 
150 8 216 25 106 49 200 117 167 138 
151 8 235 157 199 87 182 45 97 156 
152 6 231 178 203 126 12 177 
153 9 10 112 130 29 170 15 213 90 190 
154 9 33 93 236 11 220 46 205 3 198 
155 6 67 84 24 191 94 185 
156 8 182 199 87 184 54 235 151 97 
157 8 45 151 235 87 199 182 97 156 
158 9 18 34 51 129 179 192 234 109 219 
159 9 189 239 110 124 123 209 28 26 125 
160 9 99 82 102 221 2 166 146 43 80 
161 9 36 27 215 5 44 104 32 134 223 
162 9 55 92 148 72 187 219 192 179 234 
163 7 62 68 218 224 60 57 69 
164 7 180 114 174 185 171 195 28 
165 9 9 138 167 200 106 216 25 150 117 
166 9 2 64 160 99 43 102 210 221 82 
167 8 200 106 165 138 9 216 25 150 
168 7 35 176 195 28 123 61 194 
169 9 137 186 202 228 59 69 22 98 100 
170 3 112 10 153 
171 7 6 76 164 94 180 185 114 
172 9 47 53 39 63 101 75 175 233 129 
173 9 134 142 230 104 27 50 36 161 215 
174 7 114 180 164 28 125 227 108 
175 9 233 47 53 101 42 172 39 75 9 
176 5 168 35 61 195 73 
177 9 225 12 127 79 50 231 126 203 152 
178 7 152 231 203 126 12 177 225 
179 9 192 219 51 234 18 34 183 148 72 
180 6 114 164 174 171 28 108 
181 9 237 122 75 39 116 53 111 129 175 
182 8 156 199 87 235 151 184 54 97 
183 9 109 16 192 179 72 219 18 148 158 
184 8 54 193 156 87 199 182 88 58 
185 7 24 94 164 191 180 171 61 
186 9 98 22 137 59 169 86 202 100 210 
187 9 55 234 219 162 148 92 192 179 51 
188 9 78 48 70 228 128 40 202 107 81 
189 9 110 159 124 209 239 26 14 133 125 
190 9 15 29 8 149 153 90 10 103 112 
191 6 84 24 155 185 94 67 
192 9 179 219 51 234 148 18 183 72 34 
193 9 184 58 118 54 88 46 198 87 156 
194 8 91 229 242 65 123 105 19 214 
195 6 35 61 168 28 176 114 
196 8 113 17 222 241 120 145 119 218 
197 9 31 141 198 96 205 3 81 220 118 
198 9 205 220 197 118 58 93 236 141 46 
199 8 87 182 156 235 151 184 54 157 
200 8 106 167 216 138 165 9 25 150 
201 9 56 4 19 60 131 105 57 240 242 
202 9 228 100 212 40 59 137 169 107 22 
203 8 126 178 231 152 12 225 177 104 
204 9 149 232 103 63 121 13 206 158 226 
205 9 220 198 93 236 46 33 197 118 3 
206 9 103 90 7 13 232 149 204 226 29 
207 3 21 133 139 
208 3 143 37 86 
209 9 110 124 189 14 133 159 26 239 21 
210 8 80 64 102 2 166 22 160 98 
211 9 147 66 71 136 38 144 74 140 146 
212 8 100 40 202 107 228 81 59 80 
213 7 73 130 10 170 91 153 176 
214 7 119 65 105 229 19 194 218 
215 9 161 36 85 27 32 5 223 230 134 
216 8 106 200 167 138 150 165 9 25 
217 8 20 52 49 117 150 25 178 152 
218 7 224 163 62 196 120 119 37 
219 9 179 192 234 51 18 148 34 72 55 
220 9 205 93 236 198 33 46 154 3 197 
221 9 146 99 82 43 160 102 2 166 80 
222 9 241 145 113 89 120 196 17 42 101 
223 9 32 132 5 215 85 161 135 36 27 
224 7 62 218 163 37 120 68 186 
225 9 177 12 127 50 79 126 203 231 152 
226 9 13 232 17 121 7 206 119 113 103 
227 8 125 108 26 139 21 133 174 114 
228 9 202 40 212 100 107 188 78 169 137 
229 9 65 105 242 19 194 123 201 214 239 
230 9 134 173 142 215 27 85 161 104 36 
231 7 152 178 203 126 12 177 225 
232 9 13 121 204 226 103 206 63 17 149 
233 9 175 47 42 101 53 172 89 39 145 
234 9 51 219 179 192 34 18 116 129 187 
235 8 151 157 87 199 182 45 156 97 
236 9 93 220 33 46 205 154 198 11 3 
237 9 122 181 111 75 39 41 53 175 47 
238 6 88 96 128 141 70 31 
239 9 159 124 189 56 123 242 110 4 209 
240 9 57 69 60 68 131 77 23 201 4 
241 9 145 222 113 89 42 17 196 120 101 
242 9 229 123 19 105 65 239 194 201 56 
DEPOT_SECTION
   1
   -1
EOF
