NAME :  X-n275-kX-w54-c11.cctp
COMMENT : 	Adapted by Maziero, Usberti and Cavellucci from the Uchoa, Pecin, Pessoa, Poggi, Subramanian, and Vidal (2013)
TYPE :  CCTP
DIMENSION :    246
EDGE_WEIGHT_TYPE : 	EUC_2D	
CAPACITY : 	10
VERTICES_WITHIN_COVERAGE :  11
VERTICES_WITH_DEMAND : 	54
NODE_COORD_SECTION
1 409 418
2 378 220
3 469 585
4 91 695
5 351 130
6 424 101
7 70 693
8 324 133
9 367 215
10 218 906
11 90 688
12 417 223
13 42 693
14 134 482
15 594 488
16 431 269
17 383 606
18 100 597
19 85 697
20 378 218
21 196 640
22 213 635
23 520 537
24 509 542
25 388 549
26 476 583
27 409 565
28 155 828
29 60 690
30 415 269
31 127 578
32 363 304
33 392 329
34 424 660
35 505 683
36 372 120
37 438 620
38 578 421
39 116 716
40 107 719
41 117 677
42 324 275
43 246 789
44 363 223
45 139 682
46 376 197
47 397 52
48 107 727
49 64 671
50 369 275
51 96 659
52 129 627
53 45 581
54 403 585
55 70 731
56 528 736
57 379 320
58 424 608
59 436 607
60 54 687
61 342 544
62 595 525
63 508 336
64 338 90
65 269 820
66 316 293
67 575 485
68 335 179
69 1 727
70 571 436
71 15 696
72 227 760
73 324 538
74 523 519
75 620 500
76 217 427
77 206 622
78 602 506
79 486 347
80 100 740
81 161 660
82 528 559
83 386 460
84 330 295
85 301 729
86 334 243
87 219 610
88 70 560
89 334 161
90 589 420
91 428 605
92 478 509
93 76 753
94 464 167
95 18 327
96 451 63
97 406 145
98 431 608
99 213 707
100 95 635
101 550 573
102 172 811
103 119 788
104 348 210
105 364 347
106 591 428
107 436 611
108 416 528
109 504 383
110 255 720
111 100 830
112 82 693
113 522 281
114 331 406
115 426 244
116 529 618
117 153 648
118 124 719
119 419 70
120 12 653
121 433 169
122 370 686
123 811 620
124 160 691
125 204 673
126 57 666
127 627 541
128 332 114
129 497 575
130 469 605
131 49 648
132 547 588
133 305 746
134 192 805
135 370 621
136 89 757
137 287 223
138 380 129
139 441 683
140 402 577
141 255 442
142 260 288
143 322 693
144 502 313
145 431 473
146 106 701
147 390 398
148 443 175
149 335 272
150 390 225
151 194 867
152 170 621
153 311 241
154 358 323
155 427 911
156 374 566
157 388 263
158 352 701
159 82 671
160 451 565
161 91 833
162 292 609
163 466 592
164 561 488
165 131 779
166 186 699
167 567 525
168 635 481
169 404 512
170 459 694
171 456 399
172 91 725
173 483 196
174 128 824
175 517 442
176 97 705
177 263 806
178 381 215
179 386 164
180 497 137
181 311 737
182 100 611
183 414 525
184 79 643
185 284 318
186 155 706
187 426 661
188 297 164
189 454 197
190 499 697
191 480 310
192 145 692
193 390 236
194 350 333
195 605 460
196 709 391
197 426 192
198 98 767
199 141 672
200 399 684
201 107 853
202 309 266
203 376 510
204 205 771
205 105 676
206 682 508
207 236 173
208 256 311
209 59 713
210 307 278
211 566 711
212 430 559
213 85 479
214 376 276
215 171 400
216 430 237
217 201 588
218 478 593
219 291 132
220 464 582
221 669 494
222 562 733
223 298 173
224 438 567
225 402 206
226 364 561
227 415 580
228 87 693
229 502 751
230 132 831
231 574 481
232 19 707
233 486 590
234 399 205
235 165 712
236 63 746
237 50 740
238 514 246
239 400 617
240 421 162
241 497 582
242 260 817
243 58 721
244 332 614
245 190 878
246 346 218
DEMAND_SECTION
2 1
3 1
4 1
5 1
6 1
7 1
8 1
9 1
10 1
11 1
12 1
13 1
14 1
15 1
16 1
17 1
18 1
19 1
20 1
21 1
22 1
23 1
24 1
25 1
26 1
27 1
28 1
29 1
30 1
31 1
32 1
33 1
34 1
35 1
36 1
37 1
38 1
39 1
40 1
41 1
42 1
43 1
44 1
45 1
46 1
47 1
48 1
49 1
50 1
51 1
52 1
53 1
54 1
55 1
COVERAGE_SECTION
2 11 20 178 9 150 44 193 46 234 225 104 246 
3 11 220 26 163 218 233 130 160 241 129 224 59 
4 11 228 19 11 112 176 146 7 205 159 40 172 
5 11 36 128 8 138 89 64 179 68 97 219 188 
6 11 119 96 97 138 36 47 240 121 179 148 94 
7 11 29 112 19 60 228 4 11 49 209 159 13 
8 11 128 5 89 219 188 64 68 223 36 138 179 
9 11 44 20 2 178 46 104 246 150 193 234 225 
10 11 245 151 242 28 65 134 102 177 230 43 174 
11 11 228 4 112 19 176 159 205 7 146 41 29 
12 11 216 115 225 234 150 193 197 178 2 20 189 
13 11 60 29 209 71 232 7 49 126 243 112 19 
14 11 213 215 31 76 88 18 217 141 53 182 152 
15 11 67 78 231 75 195 164 62 168 167 70 106 
16 11 30 115 216 157 12 193 214 150 50 191 225 
17 11 135 239 54 140 58 156 227 91 98 27 226 
18 11 182 31 100 52 88 184 53 51 131 117 152 
19 11 228 112 4 11 176 7 146 29 159 172 205 
20 11 2 178 9 150 44 46 193 234 225 104 246 
21 11 22 77 152 125 87 81 117 217 166 124 199 
22 11 77 21 87 125 152 217 81 117 166 99 124 
23 11 24 74 82 129 101 167 92 241 132 233 26 
24 11 23 82 74 129 241 92 101 26 233 3 132 
25 11 156 27 226 140 108 183 54 169 203 227 212 
26 11 3 218 220 233 163 241 129 130 160 224 59 
27 11 140 227 54 212 25 224 156 108 183 160 91 
28 10 230 102 174 134 103 201 111 151 165 245 
29 11 60 7 13 49 112 209 126 19 228 159 11 
30 11 16 115 157 216 214 193 12 50 150 2 57 
31 11 18 182 52 88 152 100 117 217 184 53 51 
32 11 154 57 50 214 194 84 33 105 149 66 157 
33 11 57 105 154 32 194 214 50 30 157 147 84 
34 11 187 139 200 37 170 239 107 58 98 59 91 
35 11 190 170 56 139 211 229 116 222 187 34 130 
36 11 138 5 128 97 64 179 8 6 89 240 119 
37 11 107 59 98 58 91 130 239 163 34 187 220 
38 11 90 106 70 195 231 67 175 15 164 109 168 
39 11 40 118 48 146 176 172 80 4 19 228 11 
40 11 48 39 118 172 176 146 80 4 19 228 11 
41 11 205 45 199 146 51 11 4 192 176 228 159 
42 11 149 202 210 66 84 86 153 50 32 214 154 
43 11 177 242 72 65 204 134 110 133 102 85 181 
44 11 9 2 20 246 104 178 150 46 193 86 234 
45 11 199 192 41 124 186 81 205 117 146 118 235 
46 11 178 9 20 2 234 225 44 104 150 179 246 
47 11 119 96 6 64 36 138 128 5 97 8 179 
48 11 40 39 80 172 118 176 146 136 4 19 55 
49 11 126 159 29 60 7 131 112 11 13 184 228 
50 11 214 157 32 149 84 193 42 30 57 86 154 
51 11 159 205 184 100 41 11 49 228 4 112 19 
52 11 117 182 100 152 18 51 81 199 31 41 184 
53 11 88 18 182 131 184 100 120 31 126 49 51 
54 11 140 227 27 17 58 91 239 156 98 212 25 
55 11 243 236 209 172 237 93 80 136 19 48 176 
56 11 229 222 211 190 35 170 139 116 187 34 200 
57 11 33 154 32 105 194 214 50 84 157 30 149 
58 11 91 98 59 107 37 239 227 54 140 17 224 
59 11 107 98 91 58 37 130 163 227 239 220 3 
60 11 29 13 7 49 126 209 112 159 19 228 243 
61 11 73 226 156 25 203 140 27 169 244 54 17 
62 11 78 167 75 127 15 67 231 164 168 101 195 
63 10 144 79 191 109 113 171 238 16 175 38 
64 11 128 5 8 36 138 219 47 89 119 188 6 
65 11 242 177 43 72 134 204 133 151 181 85 102 
66 11 84 210 42 149 202 185 32 153 154 194 86 
67 11 231 164 15 78 195 167 62 75 70 106 168 
68 11 89 104 223 188 246 46 8 9 5 44 179 
69 6 232 71 237 13 243 209 
70 11 38 106 90 195 231 67 164 175 15 78 168 
71 8 232 13 69 60 120 29 209 243 
72 11 204 43 110 99 134 177 242 65 166 102 235 
73 10 61 226 156 203 25 244 162 169 140 27 
74 11 23 24 82 167 92 164 101 67 129 231 241 
75 11 78 168 15 62 127 195 67 221 231 167 164 
76 6 141 215 14 114 208 185 
77 11 22 87 21 217 152 125 81 117 52 166 199 
78 11 75 15 62 67 231 167 168 127 164 195 221 
79 11 63 191 144 109 171 113 16 33 175 30 238 
80 11 48 172 136 40 93 198 39 55 118 176 236 
81 11 117 199 45 124 192 21 152 125 52 166 186 
82 11 23 24 101 129 132 241 74 167 233 26 116 
83 8 145 203 169 147 183 108 114 25 
84 11 66 42 149 210 32 202 154 194 50 214 185 
85 11 181 133 143 110 158 72 43 122 177 99 65 
86 11 153 246 149 42 202 44 104 9 210 50 2 
87 11 77 22 217 21 152 125 162 117 81 52 166 
88 11 53 18 182 31 100 213 184 52 131 14 51 
89 11 68 8 5 188 223 128 104 179 219 46 36 
90 11 106 38 70 195 231 67 15 164 175 168 75 
91 11 98 58 59 107 37 227 239 54 140 224 163 
92 11 24 74 23 145 160 108 183 129 212 224 82 
93 7 136 236 55 198 80 237 172 
94 9 148 121 189 173 240 180 197 97 12 
95 7 213 215 14 76 88 208 142 
96 11 119 6 47 180 97 36 138 240 94 121 148 
97 11 240 179 138 121 36 6 148 197 5 46 234 
98 11 91 59 107 58 37 227 239 54 130 163 140 
99 11 166 125 110 235 72 124 186 204 21 81 192 
100 11 184 51 182 52 18 159 205 41 49 131 126 
101 11 132 82 23 116 24 167 129 241 74 62 233 
102 10 134 28 230 174 165 204 103 151 245 111 
103 9 165 198 174 136 230 111 80 161 28 
104 11 246 9 44 20 46 2 178 68 86 150 153 
105 10 194 154 57 33 32 147 84 114 50 66 
106 11 90 38 70 195 231 67 15 164 168 175 75 
107 11 59 98 37 91 58 130 163 239 227 220 3 
108 11 183 169 212 25 27 203 224 140 160 227 145 
109 11 79 63 171 175 144 191 38 70 90 106 113 
110 11 99 85 72 133 181 125 43 204 143 166 177 
111 7 161 201 174 230 103 28 165 
112 11 19 228 4 11 7 176 29 159 146 49 60 
113 9 238 144 191 63 79 16 173 216 115 
114 7 147 105 194 83 141 154 33 
115 11 216 12 16 30 193 150 157 225 234 197 2 
116 11 132 241 101 233 129 218 82 130 26 3 163 
117 11 81 199 52 152 45 21 124 192 41 205 125 
118 11 39 40 48 146 176 80 172 186 192 45 4 
119 11 47 6 96 36 138 97 64 5 240 128 121 
120 11 131 71 126 13 60 232 49 29 184 7 159 
121 10 148 240 197 94 189 97 179 225 234 12 
122 11 158 200 143 34 187 135 139 239 181 17 85 
123 9 206 221 127 168 75 62 78 196 15 
124 11 192 186 235 45 166 199 81 117 41 118 125 
125 11 166 21 99 22 81 124 77 235 117 186 152 
126 11 49 131 60 29 159 7 13 184 112 11 51 
127 11 62 75 78 168 15 167 221 206 67 231 101 
128 11 8 5 64 36 219 89 138 188 68 223 179 
129 11 241 233 26 218 3 220 24 82 163 130 23 
130 11 163 218 3 26 233 220 59 37 107 241 98 
131 11 126 49 184 120 60 159 29 13 51 100 7 
132 11 101 82 116 241 129 23 24 233 167 218 26 
133 11 181 85 110 143 158 43 177 72 65 242 122 
134 11 102 204 28 43 72 151 230 165 174 242 177 
135 11 17 239 244 54 140 156 58 91 226 227 98 
136 8 198 93 80 236 55 172 48 40 
137 10 153 202 86 223 210 246 188 104 42 68 
138 11 36 5 97 179 128 6 240 8 89 64 121 
139 11 170 187 34 200 190 37 35 122 107 59 98 
140 11 54 227 27 156 25 212 17 224 58 91 239 
141 6 76 114 215 73 14 185 
142 9 208 185 210 202 66 42 153 84 137 
143 11 158 85 181 122 133 110 200 244 135 162 17 
144 10 191 63 79 113 238 109 16 30 171 115 
145 11 83 169 183 108 92 203 171 147 212 25 175 
146 11 176 4 39 40 11 19 228 112 118 205 41 
147 9 105 114 83 171 33 194 57 154 145 
148 10 121 94 197 189 240 173 97 225 234 12 
149 11 42 84 202 66 86 210 50 153 214 32 157 
150 11 193 2 178 20 225 234 9 12 44 46 157 
151 11 245 10 28 102 134 230 174 242 201 65 177 
152 11 21 117 77 81 52 22 217 87 199 31 125 
153 10 86 202 137 42 210 149 246 104 66 44 
154 11 194 32 57 105 33 84 50 214 66 149 42 
155 10 229 65 242 177 56 133 10 181 43 170 
156 11 226 25 140 27 54 61 17 227 135 203 212 
157 11 214 50 193 30 150 115 16 2 20 44 32 
158 11 122 143 200 181 85 133 135 34 187 244 139 
159 11 49 51 11 112 228 205 7 126 4 19 184 
160 11 224 220 212 3 26 163 218 227 27 233 130 
161 6 111 201 174 230 103 28 
162 11 244 87 73 135 61 22 77 226 143 17 156 
163 11 3 220 218 26 130 233 160 241 59 129 107 
164 11 67 231 15 167 78 74 62 195 70 75 23 
165 9 103 198 174 136 80 102 230 28 48 
166 11 235 124 99 125 186 192 81 45 199 21 117 
167 11 62 164 78 67 74 231 15 23 101 82 75 
168 11 75 221 195 78 15 206 62 67 127 231 106 
169 11 183 108 203 25 145 27 212 83 156 226 140 
170 11 139 190 35 187 34 200 229 37 56 107 122 
171 11 109 79 147 175 145 63 191 83 33 144 105 
172 11 48 40 80 176 55 39 146 19 4 93 136 
173 9 189 94 148 121 197 238 180 216 12 
174 8 230 28 111 201 103 161 165 102 
175 11 70 109 164 38 231 67 90 106 171 74 92 
176 11 146 4 19 228 40 11 112 172 39 48 7 
177 11 242 65 43 72 204 134 133 181 85 110 102 
178 11 20 2 150 9 46 44 234 193 225 104 246 
179 11 97 46 240 138 234 225 36 121 5 197 178 
180 9 94 173 148 121 189 240 6 96 197 
181 11 133 85 143 158 110 122 43 177 72 65 242 
182 11 18 100 52 184 31 51 88 53 131 159 117 
183 11 108 169 25 212 27 203 224 140 160 145 227 
184 11 100 51 159 131 49 126 182 205 11 112 7 
185 9 208 142 66 210 84 202 42 194 149 
186 11 235 124 192 45 166 118 199 39 81 41 146 
187 11 34 139 200 37 170 107 239 58 98 59 91 
188 10 223 219 89 8 68 137 128 207 5 104 
189 10 148 197 173 94 121 12 216 240 225 115 
190 11 35 170 56 229 139 211 222 187 34 116 130 
191 11 144 79 63 113 16 238 30 109 115 216 33 
192 11 45 124 186 199 235 41 118 81 39 146 166 
193 11 150 2 20 178 157 12 44 9 225 234 115 
194 11 154 105 32 57 33 84 66 50 149 214 42 
195 11 15 106 168 231 67 70 75 90 78 38 164 
196 10 221 168 206 90 106 195 38 75 70 15 
197 11 121 148 189 225 234 240 12 94 216 150 179 
198 8 136 93 80 103 165 48 236 172 
199 11 45 192 81 41 117 124 205 186 146 51 52 
200 11 122 34 187 139 158 170 239 135 37 143 17 
201 7 111 161 230 174 28 103 102 
202 10 210 42 153 149 66 86 84 137 142 185 
203 11 169 25 183 108 61 83 226 156 73 27 145 
204 11 72 134 43 102 99 177 110 235 242 165 166 
205 11 41 11 51 4 159 146 228 19 112 176 45 
206 10 221 168 75 127 78 62 15 195 67 231 
207 8 188 223 219 137 8 68 89 153 
208 8 142 185 210 66 202 84 42 149 
209 11 243 55 7 29 13 60 237 112 19 236 172 
210 11 202 42 66 84 149 153 86 185 142 137 208 
211 11 222 56 35 190 229 116 170 132 139 101 130 
212 11 224 27 160 227 140 108 54 183 220 25 91 
213 11 14 88 31 53 215 18 182 76 52 100 217 
214 11 50 157 32 30 149 193 57 84 154 42 86 
215 7 76 14 141 213 208 185 142 
216 11 115 12 16 30 193 150 225 197 234 189 157 
217 11 87 77 152 22 21 31 117 52 81 125 162 
218 11 233 26 3 163 130 220 241 129 160 59 107 
219 10 8 188 223 128 89 5 64 68 207 36 
220 11 3 163 26 218 160 233 130 224 241 129 59 
221 10 206 168 75 127 78 195 15 62 67 231 
222 11 211 56 229 190 35 170 116 139 132 187 34 
223 10 188 68 89 219 8 137 104 207 246 5 
224 11 212 160 227 27 220 3 140 163 54 91 59 
225 11 234 150 12 178 20 2 46 197 193 9 216 
226 11 156 25 61 140 27 54 73 17 203 227 135 
227 11 54 140 27 212 224 91 58 98 59 107 160 
228 11 4 19 112 11 176 7 146 159 205 29 49 
229 11 56 190 222 35 170 211 139 187 34 200 116 
230 8 174 28 111 201 161 102 103 165 
231 11 67 164 15 195 78 70 167 62 75 106 38 
232 8 71 13 69 60 209 243 29 237 
233 11 218 26 241 3 129 163 130 220 160 116 82 
234 11 225 178 150 46 12 20 2 197 193 9 44 
235 11 186 124 166 192 45 118 199 99 39 81 125 
236 7 237 93 55 243 136 209 172 
237 5 236 243 55 209 93 
238 7 113 173 144 191 189 216 16 
239 11 17 58 91 135 54 98 107 59 37 140 227 
240 11 121 97 148 197 179 94 189 225 234 138 46 
241 11 129 233 26 218 3 163 220 130 82 24 116 
242 11 65 177 43 72 134 204 151 133 102 245 181 
243 11 209 55 237 236 7 29 13 172 60 19 93 
244 11 135 162 17 226 156 239 61 73 54 140 143 
245 11 151 10 28 102 134 230 174 201 242 65 111 
246 11 104 44 9 86 2 20 178 46 68 153 150 
DEPOT_SECTION
   1
   -1
EOF
