NAME :  X-n251-kX-w50-c9.cctp
COMMENT : 	Adapted by Maziero, Usberti and Cavellucci from the Uchoa, Pecin, Pessoa, Poggi, Subramanian, and Vidal (2013)
TYPE :  CCTP
DIMENSION :    191
EDGE_WEIGHT_TYPE : 	EUC_2D	
CAPACITY : 	69
VERTICES_WITHIN_COVERAGE :  9
VERTICES_WITH_DEMAND : 	50
NODE_COORD_SECTION
1 112 700
2 363 779
3 245 896
4 238 19
5 184 351
6 305 763
7 366 814
8 137 857
9 564 31
10 303 157
11 523 830
12 134 231
13 851 445
14 740 311
15 163 95
16 275 499
17 470 814
18 453 217
19 818 525
20 311 911
21 177 374
22 230 4
23 590 302
24 196 103
25 553 879
26 316 446
27 665 375
28 587 609
29 510 95
30 907 455
31 805 956
32 342 345
33 785 309
34 649 584
35 850 24
36 26 126
37 447 817
38 145 527
39 218 825
40 405 151
41 389 436
42 452 619
43 407 367
44 948 514
45 836 996
46 578 334
47 491 929
48 325 696
49 838 842
50 983 788
51 623 549
52 915 72
53 774 336
54 81 238
55 534 537
56 295 406
57 853 358
58 742 581
59 32 964
60 747 352
61 610 799
62 786 853
63 755 957
64 485 734
65 419 256
66 941 589
67 68 42
68 817 595
69 397 274
70 727 302
71 216 237
72 821 320
73 516 531
74 561 920
75 128 834
76 162 534
77 279 644
78 188 329
79 336 782
80 728 230
81 139 848
82 350 154
83 242 162
84 791 925
85 907 497
86 52 593
87 786 457
88 629 745
89 935 439
90 78 835
91 232 226
92 123 479
93 205 840
94 932 357
95 917 917
96 325 559
97 413 373
98 362 477
99 827 881
100 845 263
101 11 938
102 88 535
103 436 200
104 940 319
105 325 59
106 34 264
107 47 470
108 322 89
109 757 29
110 825 289
111 287 304
112 288 406
113 287 623
114 616 828
115 60 445
116 978 511
117 956 171
118 818 184
119 605 464
120 462 934
121 599 895
122 364 90
123 304 854
124 753 926
125 343 127
126 422 270
127 472 104
128 453 844
129 526 137
130 230 995
131 675 278
132 495 428
133 507 67
134 654 332
135 526 932
136 473 898
137 618 85
138 433 373
139 409 207
140 470 925
141 534 887
142 770 74
143 546 47
144 597 299
145 630 398
146 538 29
147 524 66
148 326 841
149 533 86
150 503 136
151 557 307
152 350 13
153 720 957
154 515 103
155 338 918
156 427 792
157 441 297
158 764 238
159 488 66
160 596 931
161 578 922
162 361 962
163 539 869
164 468 807
165 537 7
166 440 120
167 400 190
168 469 264
169 572 82
170 451 908
171 440 203
172 628 934
173 635 25
174 490 104
175 528 2
176 482 957
177 457 847
178 183 354
179 814 278
180 359 893
181 598 325
182 552 367
183 665 287
184 549 277
185 474 937
186 499 922
187 522 337
188 442 130
189 559 398
190 515 935
191 605 773
DEMAND_SECTION
2 5
3 7
4 5
5 8
6 7
7 8
8 7
9 9
10 7
11 6
12 7
13 8
14 6
15 9
16 8
17 8
18 9
19 6
20 8
21 5
22 6
23 7
24 7
25 6
26 9
27 6
28 7
29 10
30 9
31 5
32 10
33 10
34 9
35 5
36 7
37 6
38 9
39 8
40 9
41 6
42 5
43 8
44 6
45 5
46 5
47 5
48 7
49 5
50 7
51 7
COVERAGE_SECTION
2 9 79 7 6 156 148 48 37 123 164 
3 9 20 93 123 39 155 148 130 180 8 
4 9 22 24 105 15 108 152 83 122 125 
5 9 178 78 21 111 71 112 56 12 91 
6 9 79 2 48 7 148 123 39 77 156 
7 9 2 79 148 156 123 180 6 37 128 
8 9 81 75 90 93 39 3 59 101 130 
9 6 143 146 165 175 169 147 
10 9 82 125 83 108 122 91 105 40 167 
11 9 163 17 25 141 164 177 128 37 136 
12 9 54 71 91 106 78 83 5 178 15 
13 9 30 87 85 89 19 57 44 94 72 
14 9 70 53 60 33 131 158 183 72 179 
15 9 24 83 4 67 22 12 36 91 71 
16 9 26 96 98 112 56 76 113 41 38 
17 9 164 37 128 177 156 11 64 136 163 
18 7 171 103 139 168 65 167 126 
19 9 68 87 13 85 58 30 44 66 89 
20 8 155 180 123 3 162 148 7 130 
21 9 178 5 78 112 92 56 111 115 71 
22 9 4 24 105 15 152 108 83 122 67 
23 7 144 181 151 46 184 134 182 
24 9 15 83 4 22 10 108 91 71 105 
25 9 163 141 74 121 161 11 135 160 190 
26 9 56 112 98 16 41 32 96 43 97 
27 9 145 134 181 60 183 46 70 131 14 
28 9 34 51 55 73 42 88 119 58 64 
29 8 154 174 149 133 147 159 127 150 
30 9 89 85 13 44 116 94 57 19 87 
31 9 84 63 45 124 99 153 62 49 95 
32 9 43 111 97 56 112 69 138 41 26 
33 9 53 72 179 14 110 60 70 158 100 
34 9 51 28 58 55 119 73 88 68 19 
35 5 52 109 142 118 117 
36 9 67 54 106 15 12 24 83 71 91 
37 8 17 164 128 156 177 11 7 136 
38 9 76 92 102 107 86 115 16 21 113 
39 9 93 3 81 8 75 123 6 148 79 
40 8 167 188 166 82 139 103 171 125 
41 9 98 97 43 26 138 56 32 112 132 
42 9 73 55 64 28 96 48 113 98 77 
43 8 97 138 32 41 157 69 126 132 
44 9 116 85 30 66 89 13 19 68 94 
45 9 31 84 63 124 95 99 153 62 49 
46 8 181 23 151 144 182 187 184 189 
47 9 186 185 140 190 120 176 135 136 170 
48 9 77 6 113 79 2 7 96 156 148 
49 9 99 62 84 95 31 124 63 45 50 
50 9 95 49 99 66 62 84 31 45 68 
51 9 34 28 119 55 73 58 145 189 132 
52 7 35 117 142 118 109 100 158 
53 9 33 60 14 72 70 110 179 57 158 
54 9 12 106 36 71 78 91 5 178 15 
55 9 73 28 51 119 42 132 34 189 145 
56 9 112 26 32 16 98 41 111 43 21 
57 9 72 110 94 53 33 13 179 100 104 
58 9 68 34 19 51 87 28 13 119 85 
59 9 101 90 8 81 75 130 93 3 39 
60 9 53 14 70 33 72 27 134 110 179 
61 9 191 114 88 11 121 25 163 141 161 
62 9 99 49 84 124 31 63 153 95 45 
63 9 124 153 84 31 45 99 62 172 49 
64 9 164 17 156 37 11 128 177 42 191 
65 8 126 69 157 139 168 18 171 103 
66 9 44 116 85 68 30 19 89 13 58 
67 9 36 15 24 22 4 54 12 83 106 
68 9 19 58 66 85 87 13 44 30 34 
69 8 126 65 157 139 168 18 171 103 
70 9 14 60 131 33 53 183 80 158 134 
71 9 91 83 12 78 111 5 10 178 24 
72 9 110 33 179 53 57 100 14 60 70 
73 9 55 28 132 42 51 119 189 34 41 
74 9 161 135 160 25 141 121 190 163 186 
75 9 81 8 90 93 39 3 101 59 123 
76 9 38 92 102 16 86 107 115 113 21 
77 9 113 48 96 6 16 79 2 76 42 
78 9 5 178 21 71 111 12 91 112 56 
79 9 2 6 7 148 123 48 156 180 37 
80 8 158 70 131 14 183 33 179 118 
81 9 8 75 90 93 39 3 101 59 123 
82 9 125 10 40 167 122 108 139 188 166 
83 9 10 91 24 71 15 125 82 108 12 
84 9 31 124 63 99 62 153 45 49 95 
85 9 30 44 89 116 13 19 66 87 68 
86 9 102 38 107 76 92 115 77 113 16 
87 9 13 19 60 57 30 53 85 58 68 
88 9 191 61 114 11 28 64 121 163 25 
89 9 30 85 44 94 13 116 57 104 19 
90 9 75 81 8 101 93 59 39 3 130 
91 9 71 83 111 12 10 78 24 5 178 
92 9 38 102 76 115 107 21 86 178 5 
93 9 39 81 3 8 75 123 148 6 90 
94 9 104 57 89 30 72 13 110 100 85 
95 9 99 49 45 31 84 50 62 124 63 
96 9 113 16 98 77 26 48 41 42 56 
97 8 43 138 41 32 157 132 69 126 
98 9 41 26 16 96 56 112 97 43 138 
99 9 49 62 84 31 124 95 63 45 153 
100 9 110 179 72 33 118 158 57 53 104 
101 9 59 90 8 81 75 93 130 39 3 
102 9 38 92 86 76 107 115 21 16 178 
103 7 171 18 139 167 40 65 188 
104 9 94 57 100 72 110 89 179 30 117 
105 8 108 122 152 125 4 82 10 22 
106 9 54 12 36 78 5 178 21 115 71 
107 9 115 92 102 38 86 76 21 178 5 
108 8 105 122 125 10 82 152 40 83 
109 3 142 35 173 
110 9 179 72 100 33 53 57 158 14 70 
111 9 32 91 71 56 78 112 5 69 178 
112 9 56 26 32 16 111 98 41 21 178 
113 9 77 96 48 16 6 76 98 42 79 
114 9 61 191 121 25 88 163 11 141 161 
115 9 107 92 102 38 76 21 86 178 5 
116 9 44 85 89 66 30 13 19 94 68 
117 9 52 118 100 104 110 179 35 94 72 
118 8 158 100 179 80 110 142 33 72 
119 9 145 189 51 55 27 73 182 132 34 
120 6 140 185 170 47 176 136 
121 9 161 160 74 25 172 141 163 114 135 
122 8 108 125 105 82 40 152 166 188 
123 9 148 20 180 3 155 7 79 6 39 
124 9 63 84 153 31 62 99 45 49 172 
125 8 82 108 122 10 40 105 167 166 
126 8 65 69 157 168 18 139 171 103 
127 8 174 166 29 188 159 154 150 133 
128 8 177 37 17 164 136 156 170 11 
129 3 150 154 29 
130 9 3 20 155 162 93 123 180 8 39 
131 9 183 70 134 80 14 144 23 181 27 
132 8 189 138 182 187 97 73 41 43 
133 4 147 159 29 149 
134 9 27 183 181 131 144 145 23 46 70 
135 9 190 186 47 74 141 176 185 161 140 
136 7 170 140 186 47 120 185 177 
137 3 169 173 9 
138 7 97 43 157 41 132 32 187 
139 8 167 103 171 18 65 40 126 69 
140 7 120 185 47 170 136 186 176 
141 9 163 25 74 135 186 190 161 11 47 
142 3 109 35 118 
143 5 146 9 147 149 165 
144 7 23 181 46 151 184 134 183 
145 9 27 134 119 189 181 46 182 23 144 
146 4 143 165 9 175 
147 5 133 149 143 29 159 
148 9 123 7 79 180 2 20 155 6 3 
149 6 147 29 154 133 169 143 
150 4 129 154 174 29 
151 7 184 23 46 144 181 187 182 
152 5 105 122 108 4 125 
153 9 63 124 84 31 172 45 62 160 99 
154 8 29 149 174 150 129 133 147 127 
155 6 20 180 162 123 148 3 
156 9 37 164 17 128 177 2 7 64 79 
157 6 126 168 65 69 138 43 
158 9 80 179 33 70 118 14 110 100 131 
159 3 133 29 147 
160 9 161 172 121 74 25 135 141 190 163 
161 9 74 160 121 25 172 135 141 190 163 
162 4 155 180 20 120 
163 9 25 141 11 74 135 121 161 186 190 
164 9 17 37 128 177 156 11 64 136 163 
165 4 175 146 9 143 
166 5 188 127 40 174 150 
167 8 139 103 40 171 18 82 65 188 
168 4 157 126 18 65 
169 5 149 143 137 147 9 
170 5 136 140 120 185 47 
171 7 103 18 139 167 65 40 168 
172 9 160 121 161 74 25 153 135 141 114 
173 3 137 9 169 
174 8 127 29 154 150 159 133 149 129 
175 4 165 146 9 143 
176 7 185 47 120 140 186 190 135 
177 8 128 37 17 164 136 170 156 11 
178 9 5 21 78 111 112 71 56 12 91 
179 9 110 100 33 72 158 53 14 57 70 
180 6 155 20 148 123 162 7 
181 9 46 23 144 151 134 182 184 183 187 
182 7 189 46 187 151 181 23 144 
183 9 131 134 70 144 23 181 14 80 27 
184 3 151 23 144 
185 7 120 140 47 176 186 170 136 
186 9 47 190 135 140 185 136 120 176 141 
187 5 182 151 46 184 189 
188 6 166 127 40 174 150 103 
189 9 182 46 132 145 187 119 181 151 23 
190 9 135 186 47 176 185 140 74 141 120 
191 9 61 88 114 11 163 25 121 64 141 
DEPOT_SECTION
   1
   -1
EOF
