NAME :  X-n200-kX-w79-c9.cctp
COMMENT : 	Adapted by Maziero, Usberti and Cavellucci from the Uchoa, Pecin, Pessoa, Poggi, Subramanian, and Vidal (2013)
TYPE :  CCTP
DIMENSION :    198
EDGE_WEIGHT_TYPE : 	EUC_2D	
CAPACITY : 	402
VERTICES_WITHIN_COVERAGE :  9
VERTICES_WITH_DEMAND : 	79
NODE_COORD_SECTION
1 957 135
2 149 141
3 1 96
4 228 268
5 781 529
6 867 797
7 109 53
8 13 449
9 133 293
10 259 172
11 908 678
12 930 867
13 903 766
14 143 263
15 735 501
16 259 253
17 59 62
18 737 464
19 925 587
20 16 404
21 893 720
22 131 188
23 226 228
24 285 68
25 113 323
26 67 307
27 797 381
28 804 573
29 892 838
30 307 141
31 40 347
32 933 708
33 906 725
34 242 231
35 310 255
36 183 308
37 57 153
38 122 254
39 1 437
40 83 548
41 872 427
42 118 317
43 100 402
44 54 335
45 180 118
46 875 774
47 792 774
48 92 166
49 890 821
50 184 6
51 189 299
52 230 234
53 61 728
54 147 501
55 180 371
56 756 455
57 121 248
58 747 756
59 890 825
60 275 63
61 67 131
62 96 15
63 709 611
64 893 822
65 121 170
66 770 580
67 122 320
68 695 626
69 712 670
70 101 98
71 824 813
72 256 265
73 726 553
74 248 359
75 864 742
76 149 74
77 872 329
78 847 817
79 864 575
80 976 818
81 193 126
82 79 88
83 97 403
84 284 424
85 907 842
86 808 590
87 146 120
88 66 480
89 824 634
90 9 421
91 152 157
92 318 223
93 853 307
94 184 277
95 268 379
96 183 236
97 93 217
98 207 439
99 280 417
100 80 110
101 20 67
102 142 384
103 165 63
104 62 410
105 176 261
106 223 301
107 830 608
108 7 164
109 188 108
110 770 537
111 168 99
112 641 321
113 174 165
114 886 816
115 53 303
116 216 377
117 214 261
118 104 44
119 393 114
120 222 51
121 261 355
122 894 577
123 35 285
124 93 509
125 127 150
126 873 468
127 60 105
128 133 232
129 147 252
130 778 547
131 227 403
132 46 419
133 82 381
134 83 80
135 43 466
136 246 330
137 337 216
138 83 205
139 9 55
140 127 123
141 121 449
142 72 189
143 771 491
144 73 201
145 181 188
146 727 549
147 26 332
148 17 212
149 59 359
150 798 525
151 714 613
152 91 419
153 229 353
154 875 568
155 241 285
156 236 368
157 45 86
158 446 310
159 128 366
160 163 168
161 322 272
162 958 864
163 754 814
164 136 184
165 111 119
166 120 300
167 686 372
168 32 68
169 224 70
170 113 76
171 228 73
172 216 34
173 218 360
174 157 167
175 84 263
176 330 253
177 903 822
178 900 858
179 270 381
180 15 37
181 79 523
182 207 329
183 130 274
184 870 860
185 791 305
186 13 535
187 800 823
188 224 244
189 580 504
190 88 389
191 3 172
192 62 499
193 791 692
194 186 373
195 300 26
196 52 204
197 163 305
198 135 270
DEMAND_SECTION
2 83
3 52
4 73
5 70
6 86
7 51
8 74
9 84
10 52
11 93
12 91
13 89
14 64
15 75
16 64
17 61
18 2
19 86
20 95
21 100
22 73
23 61
24 83
25 60
26 85
27 48
28 66
29 70
30 91
31 54
32 55
33 64
34 56
35 62
36 89
37 100
38 96
39 67
40 21
41 15
42 55
43 58
44 84
45 85
46 91
47 55
48 79
49 79
50 82
51 91
52 89
53 22
54 31
55 85
56 22
57 72
58 59
59 95
60 99
61 98
62 54
63 96
64 69
65 97
66 67
67 80
68 65
69 86
70 90
71 72
72 69
73 80
74 72
75 62
76 78
77 24
78 88
79 70
80 71
COVERAGE_SECTION
2 9 91 87 125 174 140 160 113 45 65 
3 9 101 139 168 157 127 180 17 108 61 
4 9 117 155 188 72 106 16 52 23 34 
5 9 110 150 130 143 28 66 15 146 73 
6 9 46 114 78 49 59 64 177 71 13 
7 9 118 170 134 62 76 70 82 17 103 
8 9 39 90 135 20 132 88 104 192 152 
9 9 166 183 198 42 67 14 197 25 38 
10 9 30 34 23 52 92 81 145 188 16 
11 9 32 21 33 75 13 19 89 46 122 
12 9 162 178 85 29 177 59 64 184 49 
13 9 46 33 75 21 6 114 177 49 64 
14 9 198 129 183 38 57 9 105 128 94 
15 9 18 143 146 110 56 73 5 130 150 
16 9 72 34 4 52 188 155 23 117 35 
17 9 157 168 134 82 101 127 118 139 7 
18 9 56 15 143 5 110 146 150 73 130 
19 9 122 154 79 11 107 89 86 32 28 
20 9 90 132 39 8 104 31 149 135 133 
21 9 33 75 32 11 13 46 6 114 49 
22 9 164 65 174 91 125 160 128 48 97 
23 9 52 34 188 117 4 16 96 72 155 
24 9 60 195 171 169 120 30 172 109 10 
25 9 42 67 166 9 159 26 183 197 198 
26 9 115 44 123 175 31 147 25 42 149 
27 9 185 56 41 77 93 18 167 143 126 
28 9 86 66 130 107 150 5 110 79 89 
29 9 59 64 85 49 177 178 114 184 6 
30 9 10 24 137 92 60 119 171 169 34 
31 9 44 147 149 115 26 133 20 123 190 
32 9 33 11 21 13 75 46 6 80 114 
33 9 21 32 13 75 11 46 6 114 49 
34 9 52 23 188 16 72 4 117 155 96 
35 9 176 161 92 137 16 72 34 155 4 
36 9 51 197 94 182 106 105 9 117 4 
37 9 61 48 142 127 100 108 144 196 191 
38 9 57 198 183 14 128 129 175 9 166 
39 9 8 90 20 132 135 104 88 192 152 
40 9 181 124 192 88 186 54 135 141 8 
41 9 126 27 77 56 143 93 150 5 18 
42 9 67 25 166 9 183 197 159 198 26 
43 9 83 190 152 133 104 102 159 141 132 
44 9 31 149 147 26 115 123 133 25 190 
45 9 109 81 111 87 2 113 91 140 160 
46 9 6 13 75 114 49 64 78 59 177 
47 9 58 71 187 163 78 6 75 193 46 
48 9 65 142 37 125 138 144 61 22 164 
49 9 64 59 114 177 29 85 6 178 78 
50 9 172 120 103 169 76 171 62 7 118 
51 9 36 94 197 106 182 105 117 4 155 
52 9 23 34 188 117 4 16 72 96 155 
53 9 40 186 181 124 192 54 88 135 8 
54 9 124 141 181 40 88 192 98 152 43 
55 9 194 116 102 173 182 153 159 156 131 
56 9 18 143 15 5 150 110 27 130 146 
57 9 38 128 129 198 14 183 175 97 9 
58 9 47 163 193 187 69 71 78 75 6 
59 9 49 64 114 29 177 85 178 6 184 
60 9 24 195 171 169 120 172 30 109 81 
61 9 37 100 127 48 82 165 70 157 134 
62 9 118 7 17 170 134 82 76 70 168 
63 9 151 68 69 73 146 66 130 110 86 
64 9 49 59 114 177 29 85 6 178 184 
65 9 22 125 164 48 91 174 2 160 140 
66 9 130 28 86 110 5 73 146 150 151 
67 9 42 25 166 9 197 159 183 198 26 
68 9 63 151 69 73 146 66 130 110 193 
69 9 68 151 63 193 58 66 73 89 146 
70 9 165 82 100 134 170 140 127 7 61 
71 9 78 187 6 47 114 46 49 184 59 
72 9 16 155 4 34 188 52 117 23 106 
73 9 146 110 66 130 15 5 63 151 143 
74 9 121 156 153 95 136 173 179 116 131 
75 9 46 21 33 13 6 32 78 114 11 
76 9 103 111 170 7 87 109 45 70 118 
77 9 93 185 27 41 126 56 18 143 167 
78 9 71 6 114 49 59 64 187 184 29 
79 9 154 122 107 86 28 19 89 150 130 
80 9 162 12 85 177 64 29 49 59 178 
81 9 45 109 111 113 2 87 91 160 174 
82 9 134 100 70 127 17 157 170 61 165 
83 9 43 152 190 133 104 159 102 141 132 
84 8 99 179 95 131 121 74 156 98 
85 9 29 178 177 59 64 49 114 12 184 
86 9 28 107 66 89 130 79 110 150 5 
87 9 140 2 111 45 165 125 91 109 76 
88 9 192 135 124 181 8 141 132 152 40 
89 9 107 86 28 193 79 66 154 122 11 
90 9 20 39 8 132 104 135 31 149 88 
91 9 174 2 160 113 125 164 65 22 87 
92 9 137 176 35 161 16 72 34 10 30 
93 9 77 185 27 41 126 56 167 18 143 
94 9 105 51 36 117 197 96 14 4 129 
95 9 179 121 74 156 99 153 84 131 116 
96 9 105 129 117 94 188 23 52 14 145 
97 8 138 144 142 57 128 196 38 175 
98 8 131 116 194 55 99 156 84 173 
99 8 84 179 95 131 121 74 156 116 
100 9 127 82 70 61 134 165 157 170 37 
101 9 168 139 180 157 3 17 127 82 134 
102 9 159 55 194 43 83 190 133 152 67 
103 9 76 111 109 170 7 45 120 169 172 
104 9 132 152 190 133 83 43 20 149 90 
105 9 94 96 129 14 117 51 198 197 36 
106 9 155 182 4 51 136 36 117 94 72 
107 9 89 86 28 79 154 66 122 130 150 
108 9 191 148 37 196 3 61 142 144 127 
109 9 45 81 111 87 2 103 76 169 171 
110 9 130 5 150 66 146 143 73 15 28 
111 9 45 109 87 76 103 81 2 140 91 
112 9 167 185 27 18 56 189 158 15 93 
113 9 160 174 91 145 2 164 81 45 22 
114 9 49 64 59 177 29 6 85 78 46 
115 8 26 123 44 147 31 175 149 25 
116 8 173 156 153 131 194 55 74 182 
117 9 4 188 52 94 23 155 105 96 34 
118 9 7 62 170 134 17 82 70 76 103 
119 9 30 137 24 195 60 92 10 176 35 
120 9 172 169 171 60 103 50 24 109 111 
121 9 74 95 156 179 136 153 173 116 131 
122 9 154 79 19 107 86 28 89 11 150 
123 8 115 26 147 44 175 31 148 149 
124 9 181 192 40 88 54 135 141 186 152 
125 9 65 2 91 140 174 164 165 87 22 
126 9 41 150 154 143 79 5 122 27 56 
127 9 100 157 82 61 134 70 17 168 37 
128 9 57 129 38 14 198 183 97 22 164 
129 9 14 198 128 38 57 183 105 96 9 
130 9 110 5 150 66 28 146 73 86 143 
131 8 116 156 98 173 95 179 74 153 
132 9 104 20 90 8 152 135 39 133 190 
133 9 190 83 43 149 104 152 159 132 31 
134 9 82 70 17 100 170 127 7 157 118 
135 9 88 8 192 132 39 90 104 124 152 
136 9 74 121 153 106 156 182 173 155 95 
137 9 92 176 35 161 30 16 10 72 34 
138 8 144 97 142 196 48 22 65 57 
139 9 101 180 168 3 157 17 127 82 134 
140 9 165 87 125 2 70 91 65 111 100 
141 9 152 43 83 54 88 124 102 190 104 
142 8 144 138 196 48 97 37 65 61 
143 9 15 5 56 18 150 110 130 146 73 
144 8 138 142 196 97 48 37 65 148 
145 9 113 160 174 91 164 96 22 2 23 
146 9 73 110 15 130 66 5 63 151 143 
147 9 31 44 115 149 26 123 20 133 190 
148 8 196 191 108 144 142 138 37 123 
149 9 31 44 133 190 147 104 26 115 83 
150 9 5 110 130 143 28 66 86 15 146 
151 9 63 68 69 73 66 146 130 110 86 
152 9 83 43 104 190 133 141 132 102 159 
153 9 173 156 74 116 136 121 182 95 194 
154 9 79 122 19 107 28 86 89 150 130 
155 9 4 106 72 117 16 188 136 52 34 
156 9 74 153 173 116 121 95 131 179 136 
157 9 168 127 17 101 82 134 100 3 139 
158 9 176 161 137 35 92 121 179 95 16 
159 9 102 25 43 67 190 83 133 42 55 
160 9 174 113 91 145 2 164 22 125 65 
161 9 35 176 92 137 16 72 155 34 4 
162 9 12 80 85 178 177 29 64 59 49 
163 9 187 47 58 71 78 6 184 46 193 
164 9 22 65 174 91 160 125 113 2 145 
165 9 140 70 100 87 125 170 2 82 61 
166 9 9 42 67 25 183 198 197 14 38 
167 9 112 18 56 27 185 15 143 189 93 
168 9 101 157 139 17 180 3 127 82 134 
169 9 171 120 172 60 109 103 24 111 81 
170 9 7 70 134 118 76 82 165 100 140 
171 9 169 120 172 60 109 24 81 103 111 
172 9 120 169 171 50 103 60 24 76 109 
173 9 153 116 156 74 182 194 55 136 121 
174 9 160 91 113 2 164 145 22 125 65 
175 8 38 57 26 97 183 115 198 166 
176 9 35 161 92 137 16 72 34 155 52 
177 9 64 49 59 114 29 85 178 6 184 
178 9 85 29 184 12 59 177 64 49 114 
179 9 95 121 74 156 99 84 131 153 116 
180 9 139 101 168 17 157 3 134 82 127 
181 9 124 40 192 88 135 186 54 141 8 
182 9 36 106 153 173 51 136 116 156 194 
183 9 198 14 9 38 57 129 166 128 42 
184 9 178 29 59 85 49 64 114 78 177 
185 9 93 27 77 167 41 112 56 18 126 
186 9 192 181 40 135 88 124 8 39 90 
187 9 71 78 163 47 6 184 58 114 46 
188 9 52 23 117 34 4 16 72 96 155 
189 9 73 146 15 18 63 68 167 151 56 
190 9 133 83 43 152 104 149 159 132 102 
191 9 108 148 37 196 142 3 61 144 138 
192 9 88 181 124 135 40 186 8 141 132 
193 9 89 58 47 69 75 107 86 21 151 
194 8 55 116 173 102 153 182 156 131 
195 9 24 60 120 172 171 169 30 50 119 
196 8 144 142 138 148 97 37 48 191 
197 9 36 51 9 94 166 67 183 198 105 
198 9 183 14 38 129 9 57 166 128 105 
DEPOT_SECTION
   1
   -1
EOF
