NAME :  X-n298-kX-w118-c9.cctp
COMMENT : 	Adapted by Maziero, Usberti and Cavellucci from the Uchoa, Pecin, Pessoa, Poggi, Subramanian, and Vidal (2013)
TYPE :  CCTP
DIMENSION :    295
EDGE_WEIGHT_TYPE : 	EUC_2D	
CAPACITY : 	55
VERTICES_WITHIN_COVERAGE :  9
VERTICES_WITH_DEMAND : 	118
NODE_COORD_SECTION
1 440 732
2 221 348
3 117 545
4 493 645
5 135 12
6 775 997
7 745 444
8 950 311
9 530 150
10 900 508
11 48 519
12 269 217
13 722 349
14 480 733
15 977 422
16 999 220
17 636 332
18 851 162
19 559 567
20 389 69
21 529 835
22 303 427
23 400 638
24 894 904
25 482 109
26 579 800
27 184 82
28 669 753
29 906 424
30 374 692
31 174 613
32 75 37
33 38 563
34 838 157
35 710 709
36 176 67
37 449 326
38 71 389
39 710 115
40 237 547
41 530 27
42 631 223
43 171 342
44 226 65
45 6 998
46 24 635
47 668 165
48 318 608
49 429 82
50 212 237
51 853 126
52 387 47
53 677 144
54 111 790
55 957 32
56 511 647
57 457 561
58 86 687
59 290 456
60 473 563
61 807 725
62 461 468
63 739 235
64 257 340
65 588 545
66 6 311
67 268 976
68 552 414
69 994 946
70 452 534
71 422 545
72 248 611
73 43 366
74 977 96
75 822 580
76 940 650
77 86 263
78 715 99
79 668 981
80 424 638
81 297 607
82 251 282
83 237 413
84 202 573
85 181 385
86 126 528
87 386 811
88 978 846
89 70 99
90 333 357
91 49 870
92 157 734
93 627 268
94 818 433
95 738 555
96 350 909
97 337 926
98 978 59
99 42 595
100 870 933
101 19 120
102 165 679
103 131 984
104 232 755
105 319 417
106 187 376
107 251 482
108 657 219
109 209 397
110 800 377
111 228 116
112 566 559
113 490 156
114 216 547
115 964 677
116 85 897
117 292 807
118 600 893
119 938 222
120 543 747
121 572 976
122 569 59
123 712 574
124 971 515
125 616 306
126 695 837
127 421 821
128 604 995
129 537 957
130 1000 653
131 282 817
132 380 874
133 778 101
134 462 74
135 87 682
136 441 228
137 608 430
138 511 313
139 710 300
140 630 24
141 626 650
142 531 719
143 598 824
144 995 622
145 258 981
146 358 281
147 279 169
148 286 268
149 259 659
150 782 132
151 862 518
152 457 603
153 210 438
154 44 44
155 527 818
156 164 156
157 23 86
158 342 930
159 39 282
160 269 848
161 436 886
162 323 340
163 237 891
164 333 488
165 517 137
166 591 972
167 541 888
168 122 280
169 159 655
170 200 158
171 446 283
172 107 315
173 588 270
174 158 374
175 26 353
176 959 76
177 852 328
178 927 736
179 437 138
180 53 938
181 333 192
182 922 499
183 407 948
184 970 664
185 237 738
186 8 561
187 989 908
188 100 860
189 10 960
190 842 190
191 595 716
192 286 965
193 199 373
194 159 67
195 979 25
196 488 479
197 804 620
198 742 853
199 528 160
200 223 342
201 503 159
202 711 681
203 339 340
204 342 509
205 931 593
206 766 953
207 710 172
208 521 451
209 172 159
210 685 836
211 639 155
212 763 656
213 269 241
214 825 761
215 330 177
216 901 124
217 713 860
218 619 926
219 692 19
220 96 876
221 949 178
222 79 795
223 833 852
224 336 444
225 877 0
226 296 597
227 566 735
228 940 377
229 939 827
230 908 120
231 50 741
232 670 569
233 753 744
234 577 351
235 141 616
236 97 625
237 64 875
238 496 160
239 515 598
240 344 803
241 274 510
242 291 170
243 800 300
244 74 609
245 791 396
246 453 848
247 405 191
248 395 290
249 525 743
250 260 385
251 408 837
252 1 346
253 231 504
254 837 572
255 606 473
256 900 729
257 346 868
258 123 80
259 477 169
260 383 59
261 510 410
262 890 101
263 952 635
264 825 722
265 68 598
266 234 841
267 911 720
268 172 367
269 569 289
270 84 19
271 694 916
272 454 412
273 261 233
274 693 375
275 588 854
276 276 538
277 599 569
278 142 158
279 338 805
280 324 194
281 739 325
282 845 639
283 638 182
284 858 93
285 40 923
286 37 599
287 638 39
288 218 714
289 568 674
290 288 840
291 439 570
292 325 801
293 587 278
294 992 674
295 597 608
DEMAND_SECTION
2 2
3 9
4 1
5 4
6 9
7 5
8 7
9 2
10 4
11 7
12 2
13 9
14 5
15 10
16 5
17 8
18 5
19 8
20 8
21 6
22 7
23 2
24 1
25 3
26 9
27 1
28 1
29 10
30 3
31 4
32 8
33 10
34 7
35 9
36 6
37 1
38 1
39 9
40 9
41 5
42 9
43 3
44 6
45 4
46 2
47 8
48 3
49 10
50 6
51 9
52 5
53 5
54 7
55 10
56 5
57 8
58 1
59 4
60 4
61 10
62 7
63 8
64 9
65 8
66 1
67 5
68 9
69 8
70 4
71 7
72 5
73 2
74 9
75 1
76 6
77 10
78 10
79 7
80 10
81 6
82 6
83 9
84 2
85 6
86 1
87 9
88 8
89 10
90 3
91 9
92 3
93 8
94 10
95 6
96 10
97 9
98 7
99 7
100 4
101 1
102 3
103 4
104 5
105 10
106 4
107 2
108 9
109 1
110 6
111 4
112 7
113 5
114 1
115 3
116 4
117 4
118 6
119 6
COVERAGE_SECTION
2 9 200 193 64 106 43 109 268 85 250 
3 9 86 265 11 235 244 33 236 31 84 
4 9 56 239 152 80 289 142 60 14 57 
5 9 270 194 32 36 258 27 154 44 89 
6 8 206 79 100 271 198 217 24 223 
7 9 245 94 274 110 13 95 281 123 137 
8 9 228 119 177 16 15 29 221 243 190 
9 9 199 165 201 238 113 259 25 179 122 
10 9 182 151 124 29 205 254 75 94 15 
11 9 33 186 3 99 86 265 286 244 236 
12 9 273 213 147 242 148 50 280 82 181 
13 9 281 274 139 110 245 17 243 7 125 
14 9 249 142 120 227 4 56 155 127 289 
15 9 228 29 124 182 8 10 151 177 94 
16 9 119 221 8 74 230 216 176 18 190 
17 9 125 234 93 274 293 173 269 139 13 
18 9 34 190 51 216 284 230 262 150 133 
19 9 112 65 277 239 295 60 56 4 57 
20 9 260 52 49 134 179 25 215 247 113 
21 9 155 167 26 275 143 246 120 118 249 
22 9 105 59 224 250 83 164 90 107 241 
23 9 80 30 152 291 48 4 57 71 60 
24 8 100 223 229 187 88 69 206 6 
25 9 134 165 113 238 179 201 49 259 9 
26 9 143 155 275 21 120 227 249 191 142 
27 9 36 194 44 111 258 156 170 209 5 
28 9 35 191 202 233 210 126 143 26 227 
29 9 228 15 182 10 94 151 177 124 110 
30 9 23 80 48 14 81 240 279 87 149 
31 9 235 169 84 102 72 114 236 3 40 
32 9 270 154 89 258 5 157 194 101 36 
33 9 186 99 286 11 265 244 46 3 236 
34 9 18 190 51 150 284 216 262 230 133 
35 9 202 233 28 212 61 141 191 264 214 
36 9 27 194 44 258 5 111 156 209 170 
37 8 171 138 248 272 136 146 261 203 
38 9 73 175 172 252 174 66 268 43 85 
39 9 78 53 207 47 133 150 211 219 283 
40 9 114 276 253 84 241 72 107 226 81 
41 9 122 134 25 140 287 165 49 9 199 
42 9 108 283 93 173 211 47 293 125 53 
43 9 268 174 106 193 85 2 200 109 172 
44 9 27 36 111 194 170 258 5 209 156 
45 9 189 180 285 103 116 91 237 220 188 
46 9 286 99 244 265 33 236 186 135 58 
47 9 53 211 283 207 108 39 42 78 63 
48 9 81 226 72 149 276 23 30 40 204 
49 9 134 20 260 52 179 25 113 259 238 
50 9 273 213 12 82 148 170 209 156 147 
51 9 284 34 18 262 216 230 190 150 133 
52 9 260 20 49 134 179 25 215 41 247 
53 9 47 211 207 39 283 78 108 42 150 
54 9 222 188 92 231 220 237 91 58 116 
55 9 195 98 176 74 225 262 230 216 284 
56 9 4 239 289 152 142 80 14 60 19 
57 9 60 291 70 71 152 239 80 196 4 
58 9 135 236 231 102 244 169 46 92 235 
59 9 22 107 224 105 164 241 83 204 253 
60 9 57 291 70 152 71 239 4 196 19 
61 9 264 214 233 212 256 282 35 267 197 
62 9 196 272 208 70 261 71 57 60 291 
63 9 207 139 108 243 281 47 42 53 150 
64 9 200 2 250 82 162 193 109 83 90 
65 9 112 277 19 295 255 232 239 141 208 
66 9 252 159 175 73 77 172 38 168 174 
67 9 145 192 97 158 163 96 160 257 103 
68 9 261 208 137 234 255 196 272 62 138 
69 9 187 88 24 100 229 223 178 6 206 
70 9 57 71 60 291 196 62 152 239 80 
71 9 291 70 57 60 152 62 204 80 196 
72 9 81 149 226 84 40 48 114 31 276 
73 9 175 38 252 66 172 159 77 174 168 
74 9 176 98 55 195 230 216 221 262 284 
75 9 254 197 282 151 95 212 10 123 205 
76 9 263 184 115 294 205 130 144 267 178 
77 9 168 159 172 66 175 73 43 252 278 
78 9 39 53 133 207 150 47 219 211 287 
79 9 128 271 218 166 121 206 6 118 217 
80 9 23 152 4 291 30 57 56 60 71 
81 9 226 48 72 149 276 40 241 84 114 
82 9 148 213 273 64 50 200 12 2 162 
83 9 109 250 153 193 106 85 2 22 59 
84 9 114 40 31 72 235 253 276 86 3 
85 9 106 268 193 174 109 43 2 153 200 
86 9 3 11 84 235 265 114 33 244 31 
87 9 251 127 240 279 292 132 257 246 161 
88 9 229 187 69 24 178 100 256 267 223 
89 9 157 101 258 154 32 270 278 194 5 
90 8 203 162 105 22 64 250 146 224 
91 9 237 116 220 188 285 180 222 189 54 
92 9 102 288 54 104 169 185 58 135 222 
93 9 173 125 293 42 108 269 17 283 139 
94 9 245 110 7 29 151 177 10 182 13 
95 9 123 232 75 197 254 212 7 151 202 
96 9 97 158 257 132 183 192 161 251 290 
97 9 158 96 257 192 132 183 67 145 290 
98 9 176 55 195 74 230 262 216 225 221 
99 9 286 265 33 244 46 186 236 11 3 
100 8 24 223 206 6 187 69 229 88 
101 9 157 89 154 32 258 270 278 156 194 
102 9 169 92 288 31 235 135 58 236 185 
103 9 180 116 285 220 189 45 145 188 237 
104 9 185 288 92 117 131 266 149 160 102 
105 9 22 224 59 90 250 164 162 203 83 
106 9 85 193 268 174 109 43 2 200 83 
107 9 253 241 59 153 276 40 83 114 22 
108 9 42 283 47 93 211 207 53 63 173 
109 9 193 85 106 83 153 268 2 250 174 
110 9 245 94 177 243 281 13 7 274 29 
111 9 170 44 27 36 209 147 156 242 194 
112 9 19 65 277 295 239 60 255 56 232 
113 9 238 201 259 165 199 9 25 179 134 
114 9 40 84 253 276 241 72 107 31 86 
115 9 184 294 76 130 263 144 267 178 256 
116 9 220 237 188 91 180 285 103 189 222 
117 9 131 290 292 279 160 240 266 104 257 
118 9 218 275 167 143 166 121 129 21 26 
119 9 221 16 8 190 216 18 230 34 51 
120 9 249 227 142 191 26 14 155 289 21 
121 9 166 128 129 218 118 167 79 275 271 
122 9 41 140 287 165 9 25 134 199 211 
123 9 95 232 212 197 202 75 277 141 295 
124 9 182 10 205 15 151 144 29 263 76 
125 9 17 93 293 173 269 234 42 139 108 
126 8 210 217 198 271 28 143 275 118 
127 9 251 87 246 132 161 240 279 257 292 
128 9 166 121 79 218 129 118 271 167 275 
129 9 121 166 167 128 218 118 275 21 161 
130 9 294 144 184 115 263 76 205 178 267 
131 9 117 290 160 292 266 279 240 104 257 
132 9 257 96 251 161 87 97 127 158 246 
133 9 150 78 39 51 284 34 18 207 53 
134 9 49 25 179 20 52 260 41 165 113 
135 9 58 236 231 244 169 102 46 235 265 
136 8 247 171 259 248 113 238 179 201 
137 9 255 68 234 208 261 274 17 65 125 
138 9 37 269 171 234 293 173 261 125 68 
139 9 281 13 63 274 17 93 243 125 108 
140 9 287 219 122 41 78 39 53 211 47 
141 9 295 289 191 277 202 232 35 227 19 
142 9 249 120 227 14 289 191 56 4 26 
143 9 26 275 118 21 155 167 210 120 227 
144 9 130 263 184 294 76 115 205 124 267 
145 9 67 192 163 97 158 96 103 160 266 
146 7 248 203 162 148 90 171 181 
147 9 242 12 280 215 181 273 213 111 170 
148 8 213 82 273 12 146 64 50 162 
149 9 72 81 288 226 48 185 102 31 104 
150 9 133 34 51 39 18 78 207 190 284 
151 9 10 254 182 75 94 205 29 124 197 
152 9 291 57 60 80 4 239 23 71 70 
153 9 83 109 85 107 106 193 253 250 268 
154 9 32 157 270 89 101 258 5 194 36 
155 9 21 26 143 167 275 120 249 246 227 
156 9 209 278 170 111 27 258 194 36 50 
157 9 101 154 89 32 270 258 5 194 278 
158 9 97 96 257 192 183 132 67 145 161 
159 9 66 77 175 252 172 168 73 38 43 
160 9 290 131 266 117 163 292 257 279 240 
161 9 246 251 132 127 183 96 87 257 158 
162 8 203 90 64 146 105 250 148 248 
163 9 266 160 290 131 192 67 145 117 97 
164 9 204 224 59 241 22 105 276 107 253 
165 9 9 199 201 238 113 25 259 179 134 
166 9 121 128 218 129 79 118 167 271 275 
167 9 21 275 118 129 155 143 218 121 26 
168 9 172 77 43 159 50 268 174 106 73 
169 9 102 235 31 236 135 92 58 288 84 
170 9 209 156 111 278 27 50 147 12 242 
171 7 37 248 136 138 146 247 259 
172 9 168 77 43 159 174 38 73 268 175 
173 9 293 269 93 125 42 17 234 108 138 
174 9 268 85 106 43 193 109 2 200 172 
175 9 73 252 66 38 159 172 77 168 174 
176 9 98 74 55 195 230 262 216 221 284 
177 9 243 110 245 8 228 29 94 281 13 
178 9 267 256 115 184 76 294 229 264 263 
179 9 259 25 113 49 247 238 134 201 165 
180 9 285 189 116 237 91 220 45 103 188 
181 7 280 215 242 147 12 247 213 
182 9 10 124 151 29 205 15 254 94 228 
183 9 158 161 96 97 132 257 246 251 192 
184 9 115 294 130 76 263 144 205 267 178 
185 9 104 288 92 149 117 131 102 266 292 
186 9 33 99 286 11 265 46 244 3 236 
187 9 69 88 24 229 100 223 178 256 267 
188 9 220 237 116 91 222 54 285 180 103 
189 9 45 180 285 91 116 237 220 103 188 
190 9 18 34 51 150 216 230 284 119 262 
191 9 227 289 120 142 141 249 28 26 143 
192 9 67 145 97 158 96 163 257 160 183 
193 9 106 85 109 268 2 200 174 43 83 
194 9 36 27 258 5 44 111 32 156 270 
195 9 55 98 176 74 225 262 230 216 284 
196 9 62 208 70 261 272 60 57 68 71 
197 9 75 282 212 254 95 123 264 61 202 
198 8 217 126 210 271 223 206 233 28 
199 9 9 165 201 238 113 259 25 179 134 
200 9 2 64 193 106 43 109 250 268 85 
201 9 238 113 199 165 9 259 25 179 136 
202 9 35 212 233 28 141 61 123 197 232 
203 8 162 90 146 248 105 64 148 250 
204 9 164 224 241 276 59 71 22 105 107 
205 9 263 76 144 184 124 10 115 130 182 
206 8 6 271 79 198 100 217 223 126 
207 9 47 53 39 63 108 78 211 283 150 
208 9 261 196 68 62 272 255 137 70 65 
209 9 156 170 278 111 27 50 36 194 258 
210 8 126 217 198 271 28 143 275 118 
211 9 283 47 53 108 42 207 39 78 9 
212 9 197 202 35 61 282 233 264 75 123 
213 9 273 12 148 82 50 280 147 242 181 
214 8 264 61 233 256 223 267 178 212 
215 8 181 280 242 147 12 247 213 273 
216 9 230 262 51 284 18 34 221 176 74 
217 8 126 198 210 271 206 218 28 118 
218 9 118 166 121 128 79 271 275 167 129 
219 9 287 140 78 39 133 53 122 150 211 
220 9 188 116 237 91 285 180 222 54 103 
221 9 119 16 230 216 74 262 18 176 190 
222 9 54 231 188 91 237 220 92 116 58 
223 8 24 100 198 214 229 217 206 61 
224 9 105 22 164 59 204 90 241 107 250 
225 9 55 284 262 195 176 98 230 216 51 
226 9 81 48 72 276 149 40 241 114 84 
227 9 120 191 142 249 289 26 14 155 143 
228 9 15 29 8 177 182 94 10 110 124 
229 9 88 24 178 187 256 223 267 100 69 
230 9 216 262 51 284 176 18 221 74 34 
231 9 222 58 135 54 92 46 236 91 188 
232 9 123 95 277 295 65 141 112 19 255 
233 8 35 61 214 264 202 28 212 126 
234 9 125 17 269 68 293 138 173 137 261 
235 9 31 169 236 102 244 3 84 265 135 
236 9 244 265 235 135 58 99 286 169 46 
237 9 91 116 220 188 285 180 222 54 189 
238 9 113 201 259 165 199 9 25 179 136 
239 9 56 4 19 60 152 112 57 291 295 
240 9 279 292 87 117 131 257 290 251 127 
241 9 276 107 253 40 59 164 204 114 22 
242 8 147 215 280 181 12 273 213 111 
243 9 177 281 110 63 139 13 245 190 274 
244 9 265 236 99 286 46 33 235 135 3 
245 9 110 94 7 13 281 177 243 274 29 
246 9 127 161 251 21 87 132 155 167 257 
247 7 136 179 181 259 215 280 113 
248 7 146 171 37 203 136 162 90 
249 9 120 142 227 14 155 191 26 289 21 
250 9 83 64 109 2 200 22 193 105 153 
251 9 127 87 132 246 161 257 240 279 292 
252 9 175 66 73 159 38 172 77 168 174 
253 9 107 40 241 114 276 153 84 59 83 
254 9 75 197 151 282 10 205 95 182 212 
255 9 137 65 68 208 112 277 19 232 261 
256 9 267 178 264 115 214 76 61 184 229 
257 9 132 96 97 158 279 290 240 251 87 
258 9 194 36 89 27 32 5 270 278 156 
259 9 113 238 201 165 179 199 9 25 136 
260 9 20 52 49 134 179 25 215 247 181 
261 9 68 208 272 196 62 234 138 137 37 
262 9 216 230 284 51 18 176 34 74 55 
263 9 76 184 115 144 205 130 294 267 178 
264 9 61 214 233 256 282 267 212 178 197 
265 9 244 99 286 236 33 46 186 3 235 
266 9 160 163 131 290 117 104 292 185 279 
267 9 256 178 115 76 184 264 294 263 214 
268 9 174 106 85 43 193 109 2 200 83 
269 9 293 173 125 93 138 234 17 42 108 
270 9 32 154 5 258 89 194 157 36 27 
271 8 217 79 218 126 198 206 210 118 
272 9 62 261 196 208 37 68 138 70 224 
273 9 213 12 148 50 82 147 242 280 181 
274 9 13 281 17 139 7 245 137 125 110 
275 9 143 118 26 167 21 155 218 210 126 
276 9 241 40 253 107 114 226 81 204 164 
277 9 65 112 295 19 232 141 239 255 289 
278 9 156 209 170 258 27 89 194 111 36 
279 9 240 292 117 87 131 290 257 251 132 
280 7 181 215 242 147 12 213 273 
281 9 13 139 243 274 110 245 63 17 177 
282 9 197 75 254 212 264 61 76 205 267 
283 9 211 47 42 108 53 207 93 39 173 
284 9 51 262 216 230 34 18 133 150 225 
285 9 180 189 116 91 237 220 45 188 103 
286 9 99 265 33 46 244 186 236 11 3 
287 9 140 219 122 78 39 41 53 211 47 
288 9 185 104 92 102 149 169 72 31 117 
289 9 191 142 227 56 141 295 120 4 249 
290 9 160 131 117 266 292 279 257 240 163 
291 9 57 71 60 70 152 80 23 239 4 
292 9 279 240 117 131 290 87 257 160 251 
293 9 173 269 125 93 42 17 234 138 108 
294 9 130 184 115 144 263 76 178 267 205 
295 9 277 141 19 112 65 289 232 239 56 
DEPOT_SECTION
   1
   -1
EOF
