NAME :  X-n242-kX-w96-c7.cctp
COMMENT : 	Adapted by Maziero, Usberti and Cavellucci from the Uchoa, Pecin, Pessoa, Poggi, Subramanian, and Vidal (2013)
TYPE :  CCTP
DIMENSION :    242
EDGE_WEIGHT_TYPE : 	EUC_2D	
CAPACITY : 	28
VERTICES_WITHIN_COVERAGE :  7
VERTICES_WITH_DEMAND : 	96
NODE_COORD_SECTION
1 0 0
2 346 793
3 692 966
4 171 666
5 287 795
6 93 919
7 712 216
8 991 988
9 475 266
10 71 307
11 83 987
12 518 392
13 807 134
14 377 164
15 692 127
16 701 530
17 831 255
18 938 210
19 873 127
20 569 817
21 796 379
22 6 182
23 917 620
24 728 936
25 157 644
26 668 333
27 564 876
28 861 333
29 70 79
30 330 931
31 513 308
32 230 725
33 896 107
34 234 758
35 911 970
36 177 587
37 697 37
38 947 615
39 861 54
40 620 667
41 739 572
42 861 818
43 917 398
44 555 473
45 992 303
46 701 695
47 588 974
48 556 781
49 627 213
50 19 93
51 837 398
52 277 133
53 521 177
54 694 875
55 575 428
56 949 337
57 752 458
58 432 417
59 173 459
60 881 966
61 101 210
62 270 113
63 951 30
64 959 856
65 554 981
66 72 873
67 681 319
68 149 612
69 799 203
70 30 618
71 92 644
72 997 104
73 727 707
74 163 790
75 364 966
76 119 969
77 931 207
78 820 844
79 630 384
80 721 103
81 209 814
82 176 751
83 476 638
84 76 178
85 62 523
86 737 499
87 442 611
88 42 123
89 194 726
90 835 589
91 521 825
92 554 637
93 11 702
94 129 540
95 659 941
96 122 683
97 123 119
98 111 386
99 253 262
100 338 989
101 844 543
102 596 175
103 657 234
104 369 551
105 688 921
106 228 473
107 676 942
108 463 128
109 875 97
110 982 861
111 67 607
112 445 748
113 828 305
114 659 433
115 43 98
116 216 200
117 673 668
118 387 303
119 768 421
120 258 543
121 737 698
122 124 97
123 859 222
124 130 599
125 52 803
126 157 460
127 888 289
128 970 456
129 854 776
130 600 549
131 877 51
132 992 969
133 80 304
134 893 539
135 805 76
136 990 256
137 873 464
138 306 119
139 101 574
140 836 204
141 74 223
142 438 996
143 150 894
144 979 964
145 733 939
146 716 390
147 787 27
148 947 450
149 599 860
150 893 538
151 801 106
152 846 847
153 627 625
154 553 193
155 435 902
156 860 100
157 472 765
158 605 123
159 887 327
160 752 426
161 996 198
162 789 612
163 803 935
164 361 801
165 760 739
166 170 958
167 786 418
168 107 470
169 531 586
170 646 977
171 892 113
172 486 445
173 778 834
174 438 499
175 128 494
176 572 1000
177 174 964
178 599 871
179 957 677
180 518 177
181 93 349
182 506 454
183 792 919
184 55 284
185 116 755
186 368 125
187 502 114
188 994 392
189 523 837
190 721 780
191 907 303
192 719 842
193 799 638
194 928 824
195 280 162
196 697 736
197 131 96
198 680 683
199 850 512
200 972 443
201 913 538
202 499 296
203 296 811
204 664 100
205 237 179
206 232 621
207 252 659
208 474 107
209 401 630
210 556 126
211 804 296
212 180 632
213 405 387
214 475 300
215 992 105
216 137 104
217 454 340
218 821 145
219 307 108
220 780 725
221 453 269
222 756 679
223 196 467
224 120 954
225 512 344
226 266 435
227 559 986
228 248 22
229 446 627
230 672 964
231 247 606
232 834 425
233 269 568
234 115 328
235 565 915
236 621 421
237 701 511
238 70 610
239 771 636
240 937 537
241 664 187
242 840 406
DEMAND_SECTION
2 6
3 2
4 2
5 1
6 8
7 3
8 1
9 4
10 7
11 10
12 4
13 6
14 9
15 7
16 2
17 6
18 2
19 2
20 5
21 4
22 6
23 4
24 10
25 1
26 1
27 1
28 3
29 1
30 4
31 6
32 1
33 7
34 9
35 7
36 3
37 10
38 10
39 6
40 4
41 1
42 3
43 10
44 10
45 7
46 9
47 10
48 8
49 4
50 10
51 7
52 7
53 7
54 5
55 1
56 3
57 8
58 10
59 7
60 3
61 6
62 3
63 9
64 7
65 10
66 6
67 5
68 8
69 8
70 5
71 2
72 5
73 8
74 1
75 7
76 10
77 9
78 7
79 9
80 7
81 5
82 2
83 5
84 4
85 6
86 10
87 3
88 6
89 3
90 6
91 4
92 3
93 3
94 7
95 6
96 6
97 9
COVERAGE_SECTION
2 7 164 203 5 112 34 157 32 
3 7 230 107 95 105 24 170 145 
4 7 25 212 96 68 89 206 36 
5 7 203 2 34 164 81 32 89 
6 7 224 66 76 143 11 166 177 
7 7 241 103 49 69 15 67 80 
8 7 132 144 35 60 110 64 194 
9 7 221 214 202 31 217 225 118 
10 7 133 184 181 234 141 98 61 
11 7 76 224 6 166 177 66 143 
12 7 225 172 182 55 217 31 44 
13 7 218 151 135 156 19 69 140 
14 7 186 138 219 108 195 52 208 
15 7 80 204 241 158 37 7 102 
16 7 237 86 41 57 130 114 160 
17 7 123 211 113 140 69 127 28 
18 7 77 161 136 123 127 191 140 
19 7 171 33 109 156 218 13 39 
20 7 48 91 189 149 27 178 235 
21 7 167 51 119 242 232 160 28 
22 7 88 84 141 50 115 61 184 
23 7 38 179 201 134 150 240 90 
24 7 145 105 3 107 230 183 95 
25 7 4 212 68 96 124 36 71 
26 7 67 79 146 103 114 236 7 
27 7 178 149 235 189 20 91 48 
28 7 159 113 127 191 211 51 242 
29 7 115 88 50 122 197 97 216 
30 7 75 100 155 203 142 164 2 
31 7 202 225 214 9 217 221 12 
32 7 34 89 82 207 4 5 81 
33 7 171 109 19 156 131 39 218 
34 7 32 89 82 81 5 74 203 
35 7 60 144 132 8 163 64 183 
36 7 68 212 124 25 206 94 231 
37 7 80 204 15 147 135 151 158 
38 7 23 179 240 201 134 150 90 
39 7 131 109 156 135 33 171 19 
40 7 153 117 198 92 46 196 73 
41 7 16 162 237 239 86 193 90 
42 7 152 129 78 194 173 64 183 
43 7 148 56 200 159 188 242 128 
44 7 55 182 172 236 130 12 114 
45 7 136 56 191 188 127 161 18 
46 7 198 73 121 117 196 222 165 
47 7 176 227 65 170 235 95 230 
48 7 20 91 189 157 149 27 178 
49 7 103 241 102 154 7 158 15 
50 7 115 88 29 22 84 122 97 
51 7 242 232 21 167 28 119 137 
52 7 62 195 138 219 205 116 186 
53 7 180 154 210 187 102 108 208 
54 7 192 105 107 24 95 145 3 
55 7 236 44 12 79 182 114 172 
56 7 191 45 159 43 188 127 28 
57 7 160 119 86 167 237 146 16 
58 7 213 172 217 174 182 12 225 
59 7 126 223 106 175 168 94 98 
60 7 35 163 144 183 132 8 152 
61 7 141 84 184 97 133 22 10 
62 7 52 138 219 195 205 228 186 
63 7 131 215 72 39 33 109 171 
64 7 110 194 42 144 152 132 35 
65 7 227 176 47 235 170 27 95 
66 7 6 125 143 224 76 11 74 
67 7 26 146 79 103 7 114 236 
68 7 124 25 212 36 4 139 71 
69 7 140 17 218 123 13 7 211 
70 7 111 238 71 139 93 85 124 
71 7 238 111 96 124 25 68 70 
72 7 215 63 161 33 171 18 77 
73 7 121 46 222 196 165 198 220 
74 7 82 81 185 89 34 32 143 
75 7 100 30 142 155 164 203 2 
76 7 224 11 166 177 6 143 66 
77 7 18 161 123 136 127 140 19 
78 7 152 173 42 129 183 163 192 
79 7 236 114 26 55 67 146 12 
80 7 15 204 37 151 135 13 147 
81 7 74 34 82 5 203 89 32 
82 7 89 74 34 32 185 81 4 
83 7 229 87 209 169 92 112 157 
84 7 61 141 88 22 97 115 122 
85 7 139 94 168 175 111 238 70 
86 7 237 57 16 41 160 119 167 
87 7 229 83 209 169 104 174 92 
88 7 115 50 29 84 22 97 122 
89 7 82 32 34 4 74 185 96 
90 7 101 162 193 134 150 199 239 
91 7 189 20 48 27 157 149 178 
92 7 169 40 153 83 130 229 87 
93 7 70 71 125 238 111 96 185 
94 7 139 175 124 36 85 168 68 
95 7 107 230 105 170 3 24 145 
96 7 71 4 25 185 68 212 89 
97 7 216 122 197 29 84 88 115 
98 7 181 234 168 126 133 10 59 
99 7 116 205 195 52 118 62 138 
100 7 75 30 142 155 177 166 203 
101 7 199 90 134 150 201 137 162 
102 7 154 49 158 210 241 53 180 
103 7 49 241 7 102 67 26 154 
104 7 209 174 87 233 229 120 231 
105 7 107 95 24 3 54 230 145 
106 7 223 226 59 126 120 175 233 
107 7 95 230 105 3 170 24 145 
108 7 208 187 180 53 14 210 186 
109 7 156 33 171 19 39 131 218 
110 7 64 194 144 132 8 42 35 
111 7 238 70 71 139 124 68 85 
112 7 157 164 91 2 83 48 189 
113 7 211 28 17 127 159 191 21 
114 7 236 79 146 55 237 160 57 
115 7 50 88 29 122 97 84 197 
116 7 205 99 195 52 62 61 138 
117 7 198 46 40 153 73 121 196 
118 7 221 217 213 214 9 202 58 
119 7 160 167 57 21 146 232 51 
120 7 233 231 106 206 36 223 226 
121 7 73 222 46 165 220 196 198 
122 7 197 216 97 29 115 88 84 
123 7 140 17 69 127 77 18 218 
124 7 68 139 36 25 71 94 212 
125 7 66 185 93 74 6 82 143 
126 7 59 223 175 168 106 94 98 
127 7 191 159 28 113 17 123 56 
128 7 200 148 188 43 240 137 201 
129 7 42 152 78 194 220 173 165 
130 7 169 153 44 92 16 237 40 
131 7 39 109 156 33 171 19 135 
132 7 144 8 35 110 60 64 194 
133 7 10 184 234 181 141 98 61 
134 7 150 201 240 101 199 90 137 
135 7 151 147 13 39 156 218 109 
136 7 45 161 18 77 56 191 127 
137 7 199 232 242 51 148 150 134 
138 7 219 52 62 195 186 14 205 
139 7 124 94 111 238 68 85 71 
140 7 123 69 17 218 13 19 77 
141 7 61 84 184 22 133 10 88 
142 7 75 155 100 65 227 30 176 
143 7 6 166 224 177 66 76 81 
144 7 132 8 35 60 110 64 194 
145 7 24 105 3 107 183 230 163 
146 7 160 119 114 26 167 57 67 
147 7 135 39 151 37 131 80 156 
148 7 128 200 43 137 188 240 201 
149 7 178 27 20 235 189 91 48 
150 7 134 201 240 101 199 90 137 
151 7 13 135 218 156 19 109 39 
152 7 78 42 173 129 194 183 163 
153 7 40 117 92 198 130 46 169 
154 7 53 180 102 210 49 158 187 
155 7 142 75 30 189 91 164 100 
156 7 109 19 171 33 39 131 151 
157 7 112 91 48 189 20 164 83 
158 7 210 102 204 15 154 241 49 
159 7 28 191 127 56 113 43 51 
160 7 119 57 167 146 21 86 232 
161 7 136 18 77 215 72 45 171 
162 7 193 239 90 41 222 101 121 
163 7 183 145 24 60 78 152 173 
164 7 2 203 5 112 157 155 30 
165 7 220 73 121 190 222 196 46 
166 7 177 224 76 143 6 11 66 
167 7 119 160 21 232 57 51 242 
168 7 175 126 59 85 94 98 223 
169 7 92 83 130 87 229 153 44 
170 7 230 95 107 3 47 105 176 
171 7 33 109 19 156 131 39 218 
172 7 182 58 12 174 44 55 213 
173 7 78 192 152 190 42 183 54 
174 7 172 58 182 104 87 213 44 
175 7 168 126 94 59 85 223 139 
176 7 227 65 47 170 235 95 230 
177 7 166 76 224 143 6 11 66 
178 7 149 27 235 20 189 91 95 
179 7 38 23 240 129 201 90 194 
180 7 53 154 210 187 108 102 208 
181 7 234 98 10 133 184 168 141 
182 7 172 44 12 55 174 58 225 
183 7 163 145 24 78 173 152 60 
184 7 10 133 141 234 181 61 84 
185 7 74 82 96 125 89 4 81 
186 7 14 138 219 52 108 195 62 
187 7 208 108 210 180 53 154 158 
188 7 200 128 56 148 43 45 191 
189 7 91 20 27 48 149 178 157 
190 7 196 165 192 73 173 220 121 
191 7 127 159 56 28 113 45 17 
192 7 54 173 190 105 24 145 78 
193 7 162 239 222 90 121 41 220 
194 7 64 110 42 152 129 78 35 
195 7 52 205 62 138 219 116 186 
196 7 46 73 190 121 198 165 117 
197 7 122 216 97 29 115 88 84 
198 7 117 46 73 196 121 40 222 
199 7 101 150 134 137 201 90 232 
200 7 128 148 188 43 240 137 56 
201 7 134 150 240 199 101 23 38 
202 7 31 214 9 225 221 217 12 
203 7 5 2 164 34 81 32 30 
204 7 15 80 158 37 241 102 210 
205 7 116 195 52 62 99 138 219 
206 7 231 207 212 36 233 4 25 
207 7 206 231 32 212 4 89 233 
208 7 108 187 180 53 210 186 14 
209 7 87 229 83 104 112 174 169 
210 7 158 187 53 102 180 154 208 
211 7 113 17 28 21 127 159 123 
212 7 25 4 68 36 206 124 231 
213 7 58 217 118 172 214 12 225 
214 7 202 9 221 31 217 225 118 
215 7 72 63 161 33 171 109 18 
216 7 197 122 97 29 115 84 88 
217 7 214 225 202 31 213 221 9 
218 7 13 151 19 156 140 69 135 
219 7 138 62 52 195 186 14 205 
220 7 165 121 222 73 190 196 46 
221 7 9 214 202 217 31 118 225 
222 7 121 73 239 220 46 193 165 
223 7 59 106 126 175 226 168 120 
224 7 76 6 11 166 177 143 66 
225 7 31 12 202 214 217 9 221 
226 7 106 223 59 120 126 233 213 
227 7 65 176 47 235 170 27 95 
228 7 62 219 138 52 197 216 195 
229 7 87 83 209 169 92 104 112 
230 7 3 107 95 170 105 24 145 
231 7 206 233 207 120 212 36 4 
232 7 242 51 167 137 21 119 160 
233 7 120 231 206 207 36 104 106 
234 7 181 133 10 98 184 141 61 
235 7 27 178 47 149 65 227 176 
236 7 79 114 55 44 26 146 12 
237 7 16 86 41 57 114 160 130 
238 7 111 71 70 139 124 68 85 
239 7 193 162 222 121 41 90 73 
240 7 201 134 150 38 23 128 148 
241 7 49 103 7 15 102 158 204 
242 7 51 232 21 167 137 119 28 
DEPOT_SECTION
   1
   -1
EOF
