NAME :  X-n275-kX-w54-c9.cctp
COMMENT : 	Adapted by Maziero, Usberti and Cavellucci from the Uchoa, Pecin, Pessoa, Poggi, Subramanian, and Vidal (2013)
TYPE :  CCTP
DIMENSION :    229
EDGE_WEIGHT_TYPE : 	EUC_2D	
CAPACITY : 	10
VERTICES_WITHIN_COVERAGE :  9
VERTICES_WITH_DEMAND : 	54
NODE_COORD_SECTION
1 409 418
2 378 220
3 469 585
4 91 695
5 351 130
6 424 101
7 70 693
8 324 133
9 367 215
10 218 906
11 90 688
12 417 223
13 42 693
14 134 482
15 594 488
16 431 269
17 383 606
18 100 597
19 85 697
20 378 218
21 196 640
22 213 635
23 520 537
24 509 542
25 388 549
26 476 583
27 409 565
28 155 828
29 60 690
30 415 269
31 127 578
32 363 304
33 392 329
34 424 660
35 505 683
36 372 120
37 438 620
38 578 421
39 116 716
40 107 719
41 117 677
42 324 275
43 246 789
44 363 223
45 139 682
46 376 197
47 397 52
48 107 727
49 64 671
50 369 275
51 96 659
52 129 627
53 45 581
54 403 585
55 70 731
56 528 736
57 379 320
58 424 608
59 436 607
60 54 687
61 342 544
62 595 525
63 508 336
64 338 90
65 269 820
66 316 293
67 575 485
68 335 179
69 1 727
70 571 436
71 15 696
72 227 760
73 324 538
74 523 519
75 620 500
76 217 427
77 206 622
78 602 506
79 486 347
80 100 740
81 161 660
82 528 559
83 330 295
84 301 729
85 334 243
86 219 610
87 70 560
88 334 161
89 589 420
90 428 605
91 478 509
92 76 753
93 18 327
94 451 63
95 406 145
96 431 608
97 213 707
98 95 635
99 550 573
100 172 811
101 348 210
102 364 347
103 591 428
104 436 611
105 416 528
106 504 383
107 255 720
108 82 693
109 522 281
110 426 244
111 529 618
112 153 648
113 124 719
114 419 70
115 12 653
116 370 686
117 160 691
118 204 673
119 57 666
120 627 541
121 332 114
122 497 575
123 469 605
124 49 648
125 547 588
126 305 746
127 192 805
128 370 621
129 89 757
130 380 129
131 441 683
132 402 577
133 260 288
134 502 313
135 106 701
136 390 398
137 335 272
138 390 225
139 194 867
140 170 621
141 311 241
142 358 323
143 427 911
144 374 566
145 388 263
146 352 701
147 82 671
148 451 565
149 292 609
150 466 592
151 561 488
152 186 699
153 567 525
154 635 481
155 404 512
156 459 694
157 456 399
158 91 725
159 128 824
160 517 442
161 97 705
162 263 806
163 381 215
164 386 164
165 497 137
166 311 737
167 100 611
168 414 525
169 79 643
170 284 318
171 155 706
172 426 661
173 297 164
174 454 197
175 499 697
176 480 310
177 145 692
178 390 236
179 350 333
180 605 460
181 709 391
182 426 192
183 98 767
184 141 672
185 399 684
186 107 853
187 309 266
188 376 510
189 205 771
190 105 676
191 682 508
192 236 173
193 256 311
194 59 713
195 307 278
196 566 711
197 430 559
198 85 479
199 376 276
200 171 400
201 430 237
202 201 588
203 478 593
204 291 132
205 464 582
206 669 494
207 562 733
208 298 173
209 438 567
210 402 206
211 364 561
212 415 580
213 87 693
214 502 751
215 132 831
216 574 481
217 19 707
218 486 590
219 399 205
220 165 712
221 63 746
222 50 740
223 400 617
224 497 582
225 260 817
226 58 721
227 332 614
228 190 878
229 346 218
DEMAND_SECTION
2 1
3 1
4 1
5 1
6 1
7 1
8 1
9 1
10 1
11 1
12 1
13 1
14 1
15 1
16 1
17 1
18 1
19 1
20 1
21 1
22 1
23 1
24 1
25 1
26 1
27 1
28 1
29 1
30 1
31 1
32 1
33 1
34 1
35 1
36 1
37 1
38 1
39 1
40 1
41 1
42 1
43 1
44 1
45 1
46 1
47 1
48 1
49 1
50 1
51 1
52 1
53 1
54 1
55 1
COVERAGE_SECTION
2 9 20 163 9 138 44 178 46 219 210 
3 9 205 26 150 203 218 123 148 224 122 
4 9 213 19 11 108 161 135 7 190 147 
5 9 36 121 8 130 88 64 164 68 95 
6 7 114 94 95 130 36 47 164 
7 9 29 108 19 60 213 4 11 49 194 
8 9 121 5 88 204 173 64 68 208 36 
9 9 44 20 2 163 46 101 229 138 178 
10 9 228 139 225 28 65 127 100 162 215 
11 9 213 4 108 19 161 147 190 7 135 
12 9 201 110 210 219 138 178 182 163 2 
13 9 60 29 194 71 217 7 49 119 226 
14 8 198 200 31 76 87 18 202 53 
15 9 67 78 216 75 180 151 62 154 153 
16 9 30 110 201 145 12 178 199 138 50 
17 9 128 223 54 132 58 144 212 90 96 
18 9 167 31 98 52 87 169 53 51 124 
19 9 213 108 4 11 161 7 135 29 147 
20 9 2 163 9 138 44 46 178 219 210 
21 9 22 77 140 118 86 81 112 202 152 
22 9 77 21 86 118 140 202 81 112 152 
23 9 24 74 82 122 99 153 91 224 125 
24 9 23 82 74 122 224 91 99 26 218 
25 9 144 27 211 132 105 168 54 155 188 
26 9 3 203 205 218 150 224 122 123 148 
27 9 132 212 54 197 25 209 144 105 168 
28 6 215 100 159 127 186 139 
29 9 60 7 13 49 108 194 119 19 213 
30 9 16 110 145 201 199 178 12 50 138 
31 9 18 167 52 87 140 98 112 202 169 
32 9 142 57 50 199 179 83 33 102 137 
33 9 57 102 142 32 179 199 50 30 145 
34 9 172 131 185 37 156 223 104 58 96 
35 9 175 156 56 131 196 214 111 207 172 
36 9 130 5 121 95 64 164 8 6 88 
37 9 104 59 96 58 90 123 223 150 34 
38 9 89 103 70 180 216 67 160 15 151 
39 9 40 113 48 135 161 158 80 4 19 
40 9 48 39 113 158 161 135 80 4 19 
41 9 190 45 184 135 51 11 4 177 161 
42 9 137 187 195 66 83 85 141 50 32 
43 9 162 225 72 65 189 127 107 126 100 
44 9 9 2 20 229 101 163 138 46 178 
45 9 184 177 41 117 171 81 190 112 135 
46 9 163 9 20 2 219 210 44 101 138 
47 9 114 94 6 64 36 130 121 5 95 
48 9 40 39 80 158 113 161 135 129 4 
49 9 119 147 29 60 7 124 108 11 13 
50 9 199 145 32 137 83 178 42 30 57 
51 9 147 190 169 98 41 11 49 213 4 
52 9 112 167 98 140 18 51 81 184 31 
53 9 87 18 167 124 169 98 115 31 119 
54 9 132 212 27 17 58 90 223 144 96 
55 9 226 221 194 158 222 92 80 129 19 
56 9 214 207 196 175 35 156 131 111 172 
57 9 33 142 32 102 179 199 50 83 145 
58 9 90 96 59 104 37 223 212 54 132 
59 9 104 96 90 58 37 123 150 212 223 
60 9 29 13 7 49 119 194 108 147 19 
61 9 73 211 144 25 188 132 27 155 227 
62 9 78 153 75 120 15 67 216 151 154 
63 8 134 79 176 106 109 157 16 160 
64 9 121 5 8 36 130 204 47 88 114 
65 9 225 162 43 72 127 189 126 139 166 
66 9 83 195 42 137 187 170 32 141 142 
67 9 216 151 15 78 180 153 62 75 70 
68 9 88 101 208 173 229 46 8 9 5 
69 4 217 71 222 13 
70 9 38 103 89 180 216 67 151 160 15 
71 7 217 13 69 60 115 29 194 
72 9 189 43 107 97 127 162 225 65 152 
73 8 61 211 144 188 25 227 149 155 
74 9 23 24 82 153 91 151 99 67 122 
75 9 78 154 15 62 120 180 67 206 216 
76 2 200 14 
77 9 22 86 21 202 140 118 81 112 52 
78 9 75 15 62 67 216 153 154 120 151 
79 9 63 176 134 106 157 109 16 33 160 
80 9 48 158 129 40 92 183 39 55 113 
81 9 112 184 45 117 177 21 140 118 52 
82 9 23 24 99 122 125 224 74 153 218 
83 9 66 42 137 195 32 187 142 179 50 
84 8 166 126 107 146 72 43 116 162 
85 9 141 229 137 42 187 44 101 9 195 
86 9 77 22 202 21 140 118 149 112 81 
87 9 53 18 167 31 98 198 169 52 124 
88 9 68 8 5 173 208 121 101 164 204 
89 9 103 38 70 180 216 67 15 151 160 
90 9 96 58 59 104 37 212 223 54 132 
91 8 24 74 23 148 105 168 122 197 
92 7 129 221 55 183 80 222 158 
93 5 198 200 14 76 87 
94 7 114 6 47 165 95 36 130 
95 6 164 130 36 6 182 5 
96 9 90 59 104 58 37 212 223 54 123 
97 9 152 118 107 220 72 117 171 189 21 
98 9 169 51 167 52 18 147 190 41 49 
99 9 125 82 23 111 24 153 122 224 74 
100 7 127 28 215 159 189 139 228 
101 9 229 9 44 20 46 2 163 68 85 
102 7 179 142 57 33 32 136 83 
103 9 89 38 70 180 216 67 15 151 154 
104 9 59 96 37 90 58 123 150 223 212 
105 9 168 155 197 25 27 188 209 132 148 
106 9 79 63 157 160 134 176 38 70 89 
107 8 97 84 72 126 166 118 43 189 
108 9 19 213 4 11 7 161 29 147 135 
109 5 134 176 63 79 16 
110 9 201 12 16 30 178 138 145 210 219 
111 9 125 224 99 218 122 203 82 123 26 
112 9 81 184 52 140 45 21 117 177 41 
113 9 39 40 48 135 161 80 158 171 177 
114 8 47 6 94 36 130 95 64 5 
115 9 124 71 119 13 60 217 49 29 169 
116 8 146 185 34 172 128 131 223 166 
117 9 177 171 220 45 152 184 81 112 41 
118 9 152 21 97 22 81 117 77 220 112 
119 9 49 124 60 29 147 7 13 169 108 
120 9 62 75 78 154 15 153 206 191 67 
121 9 8 5 64 36 204 88 130 173 68 
122 9 224 218 26 203 3 205 24 82 150 
123 9 150 203 3 26 218 205 59 37 104 
124 9 119 49 169 115 60 147 29 13 51 
125 9 99 82 111 224 122 23 24 218 153 
126 8 166 84 107 146 43 162 72 65 
127 8 100 189 28 43 72 139 215 159 
128 9 17 223 227 54 132 144 58 90 211 
129 7 183 92 80 221 55 158 48 
130 8 36 5 95 164 121 6 8 88 
131 9 156 172 34 185 175 37 35 116 104 
132 9 54 212 27 144 25 197 17 209 58 
133 7 193 170 195 187 66 42 141 
134 7 176 63 79 109 106 16 30 
135 9 161 4 39 40 11 19 213 108 113 
136 5 102 157 33 179 57 
137 9 42 83 187 66 85 195 50 141 199 
138 9 178 2 163 20 210 219 9 12 44 
139 9 228 10 28 100 127 215 159 225 186 
140 9 21 112 77 81 52 22 202 86 184 
141 7 85 187 42 195 137 229 101 
142 9 179 32 57 102 33 83 50 199 66 
143 8 214 65 225 162 56 126 10 166 
144 9 211 25 132 27 54 61 17 212 128 
145 9 199 50 178 30 138 110 16 2 20 
146 8 116 185 166 84 126 128 34 172 
147 9 49 51 11 108 213 190 7 119 4 
148 9 209 205 197 3 26 150 203 212 27 
149 8 227 86 73 128 61 22 77 211 
150 9 3 205 203 26 123 218 148 224 59 
151 9 67 216 15 153 78 74 62 180 70 
152 9 220 117 97 118 171 177 81 45 184 
153 9 62 151 78 67 74 216 15 23 99 
154 9 75 206 180 78 15 191 62 67 120 
155 7 168 105 188 25 27 197 144 
156 9 131 175 35 172 34 185 214 37 56 
157 7 106 79 136 160 63 176 33 
158 9 48 40 80 161 55 39 135 19 4 
159 4 215 28 186 100 
160 9 70 106 151 38 216 67 89 103 157 
161 9 135 4 19 213 40 11 108 158 39 
162 9 225 65 43 72 189 127 126 166 84 
163 9 20 2 138 9 46 44 219 178 210 
164 7 95 46 130 219 210 36 5 
165 2 174 6 
166 8 126 84 146 107 116 43 162 72 
167 9 18 98 52 169 31 51 87 53 124 
168 9 105 155 25 197 27 188 209 132 148 
169 9 98 51 147 124 49 119 167 190 11 
170 7 193 133 66 195 83 187 42 
171 9 220 117 177 45 152 113 184 39 81 
172 9 34 131 185 37 156 104 223 58 96 
173 7 208 204 88 8 68 121 192 
174 3 182 12 201 
175 9 35 156 56 214 131 196 207 172 34 
176 8 134 79 63 109 16 30 106 110 
177 9 45 117 171 184 220 41 113 81 39 
178 9 138 2 20 163 145 12 44 9 210 
179 9 142 102 32 57 33 83 66 50 137 
180 9 15 103 154 216 67 70 75 89 78 
181 8 206 154 191 89 103 180 38 75 
182 5 174 210 219 12 201 
183 6 129 92 80 48 221 158 
184 9 45 177 81 41 112 117 190 171 135 
185 9 116 34 172 131 146 156 223 128 37 
186 3 215 159 28 
187 8 195 42 141 137 66 85 83 133 
188 8 155 25 168 105 61 211 144 73 
189 9 72 127 43 100 97 162 107 220 225 
190 9 41 11 51 4 147 135 213 19 108 
191 8 206 154 75 120 78 62 15 180 
192 5 173 208 204 8 68 
193 7 133 170 195 66 187 83 42 
194 9 226 55 7 29 13 60 222 108 19 
195 9 187 42 66 83 137 141 85 170 133 
196 9 207 56 35 175 214 111 156 125 131 
197 9 209 27 148 212 132 105 54 168 205 
198 9 14 87 31 53 200 18 167 76 52 
199 9 50 145 32 30 137 178 57 83 142 
200 5 76 14 198 193 170 
201 9 110 12 16 30 178 138 210 182 219 
202 9 86 77 140 22 21 31 112 52 81 
203 9 218 26 3 150 123 205 224 122 148 
204 9 8 173 208 121 88 5 64 68 192 
205 9 3 150 26 203 148 218 123 209 224 
206 8 191 154 75 120 78 180 15 62 
207 9 196 56 214 175 35 156 111 131 125 
208 7 173 68 88 204 8 101 192 
209 9 197 148 212 27 205 3 132 150 54 
210 9 219 138 12 163 20 2 46 182 178 
211 9 144 25 61 132 27 54 73 17 188 
212 9 54 132 27 197 209 90 58 96 59 
213 9 4 19 108 11 161 7 135 147 190 
214 9 56 175 207 35 156 196 131 172 34 
215 4 159 28 186 100 
216 9 67 151 15 180 78 70 153 62 75 
217 6 71 13 69 60 194 226 
218 9 203 26 224 3 122 150 123 205 148 
219 9 210 163 138 46 12 20 2 182 178 
220 9 171 117 152 177 45 113 184 97 39 
221 6 222 92 55 226 129 194 
222 5 221 226 55 194 92 
223 9 17 58 90 128 54 96 104 59 37 
224 9 122 218 26 203 3 150 205 123 82 
225 9 65 162 43 72 127 189 139 126 100 
226 9 194 55 222 221 7 29 13 158 60 
227 9 128 149 17 211 144 223 61 73 54 
228 9 139 10 28 100 127 215 159 186 225 
229 9 101 44 9 85 2 20 163 46 68 
DEPOT_SECTION
   1
   -1
EOF
