NAME :  X-n294-kX-w29-c11.cctp
COMMENT : 	Adapted by Maziero, Usberti and Cavellucci from the Uchoa, Pecin, Pessoa, Poggi, Subramanian, and Vidal (2013)
TYPE :  CCTP
DIMENSION :    204
EDGE_WEIGHT_TYPE : 	EUC_2D	
CAPACITY : 	285
VERTICES_WITHIN_COVERAGE :  11
VERTICES_WITH_DEMAND : 	29
NODE_COORD_SECTION
1 500 500
2 940 231
3 721 848
4 618 44
5 993 145
6 636 512
7 274 496
8 245 945
9 449 812
10 29 650
11 399 8
12 548 19
13 769 717
14 221 850
15 980 233
16 477 922
17 498 720
18 136 832
19 351 663
20 58 67
21 889 569
22 28 334
23 804 928
24 900 138
25 393 403
26 982 609
27 79 299
28 684 582
29 169 252
30 405 925
31 875 191
32 674 112
33 576 537
34 539 63
35 338 657
36 210 209
37 676 568
38 572 890
39 30 527
40 131 724
41 671 842
42 727 566
43 819 108
44 929 582
45 713 738
46 352 626
47 887 547
48 11 147
49 958 60
50 790 956
51 974 63
52 961 969
53 758 840
54 88 44
55 507 811
56 768 476
57 51 914
58 953 33
59 922 45
60 544 867
61 322 79
62 586 764
63 168 480
64 925 138
65 797 107
66 751 783
67 738 913
68 703 73
69 681 886
70 627 27
71 887 310
72 478 345
73 571 600
74 834 858
75 126 769
76 317 934
77 542 94
78 370 432
79 520 621
80 631 484
81 820 918
82 687 877
83 752 983
84 709 898
85 300 878
86 728 617
87 66 59
88 991 657
89 717 47
90 100 392
91 438 722
92 43 247
93 69 560
94 471 14
95 115 806
96 194 337
97 921 320
98 36 456
99 277 601
100 962 575
101 108 931
102 11 814
103 209 800
104 126 149
105 31 219
106 97 324
107 759 480
108 780 669
109 786 769
110 282 633
111 361 17
112 957 103
113 711 939
114 27 318
115 665 656
116 539 783
117 824 841
118 833 988
119 16 637
120 41 388
121 623 780
122 700 658
123 87 771
124 658 874
125 527 853
126 352 829
127 937 639
128 833 692
129 421 999
130 509 61
131 246 352
132 488 408
133 342 691
134 95 216
135 700 873
136 659 568
137 988 980
138 241 353
139 28 661
140 724 842
141 2 660
142 210 180
143 840 841
144 430 92
145 265 453
146 20 952
147 673 659
148 185 335
149 138 655
150 769 741
151 831 678
152 401 625
153 212 360
154 192 520
155 449 679
156 333 352
157 837 944
158 377 500
159 797 97
160 65 235
161 440 877
162 439 326
163 407 621
164 169 68
165 253 243
166 76 852
167 642 116
168 598 124
169 997 660
170 14 98
171 791 671
172 299 800
173 575 109
174 865 708
175 290 897
176 953 348
177 25 242
178 761 886
179 909 336
180 501 846
181 731 4
182 337 71
183 106 973
184 623 580
185 978 669
186 884 559
187 10 910
188 390 602
189 569 98
190 672 867
191 69 790
192 584 520
193 193 416
194 761 734
195 192 875
196 88 353
197 98 68
198 642 658
199 824 694
200 238 825
201 137 683
202 357 593
203 537 99
204 68 173
DEMAND_SECTION
2 94
3 7
4 83
5 31
6 9
7 78
8 50
9 18
10 10
11 11
12 68
13 37
14 57
15 83
16 38
17 94
18 12
19 63
20 84
21 19
22 68
23 32
24 98
25 47
26 97
27 25
28 98
29 30
30 30
COVERAGE_SECTION
2 9 15 31 97 64 71 5 24 179 176 
3 11 140 135 53 82 41 84 190 69 178 67 124 
4 11 70 189 12 167 173 34 168 32 68 77 203 
5 11 112 64 51 15 49 24 2 58 59 31 43 
6 9 80 192 136 33 37 184 28 42 73 
7 9 145 154 158 99 63 193 78 202 110 
8 11 175 76 85 195 14 200 101 183 103 172 18 
9 11 55 180 161 125 91 116 126 17 60 16 30 
10 9 139 119 141 93 149 201 39 40 123 
11 7 111 94 182 144 61 130 12 
12 10 34 130 4 77 94 70 203 189 173 168 
13 11 194 150 108 171 109 45 199 66 128 151 122 
14 10 200 195 103 175 85 18 172 8 95 75 
15 10 2 5 97 64 31 176 71 24 179 112 
16 11 161 30 180 125 60 129 38 9 55 116 126 
17 9 91 155 116 55 62 79 9 180 163 
18 11 95 166 75 195 123 191 103 14 200 101 40 
19 11 35 133 46 152 163 202 188 110 99 155 91 
20 10 87 54 197 170 48 204 104 164 105 134 
21 9 186 47 44 100 127 26 151 185 88 
22 11 114 120 27 196 106 92 90 177 160 105 98 
23 11 81 50 157 178 118 67 74 83 117 113 143 
24 11 64 31 112 43 5 59 49 2 51 65 159 
25 7 78 156 162 132 158 72 145 
26 9 100 88 169 127 44 185 21 186 47 
27 11 106 114 196 22 92 160 177 134 105 90 120 
28 11 37 136 42 86 184 115 122 147 6 198 80 
29 11 36 134 142 165 148 96 27 106 160 104 153 
30 11 161 16 129 76 126 85 175 9 180 125 60 
31 8 24 64 2 43 15 65 71 112 
32 6 167 68 168 89 4 70 
33 6 192 73 184 6 80 136 
34 9 130 77 203 12 189 173 4 94 168 
35 11 19 46 133 110 202 152 188 163 99 155 91 
36 7 142 165 29 104 134 148 96 
37 11 28 136 42 184 6 86 115 147 122 80 198 
38 10 60 125 180 124 16 55 190 69 41 116 
39 5 93 98 119 10 139 
40 7 201 75 123 149 95 191 18 
41 10 190 124 82 135 69 3 140 84 121 53 
42 11 28 37 86 136 107 122 56 184 6 147 115 
43 5 65 159 24 31 64 
44 9 100 21 186 47 127 26 88 185 169 
45 11 194 150 66 13 109 122 147 115 108 121 171 
46 10 202 35 19 188 152 163 133 110 99 155 
47 7 186 21 44 100 127 26 56 
48 11 170 204 105 20 177 160 87 92 134 104 197 
49 10 51 58 59 112 64 5 24 43 31 159 
50 11 23 83 81 157 118 67 178 113 84 74 53 
51 10 49 58 112 59 5 64 24 43 31 15 
52 9 137 157 118 81 23 74 50 143 117 
53 11 140 3 178 66 117 135 67 84 109 74 82 
54 9 197 87 20 164 170 104 48 204 134 
55 10 180 116 125 9 60 17 62 161 38 91 
56 4 107 42 37 28 
57 11 187 146 101 166 183 102 18 191 95 195 123 
58 10 49 59 51 112 64 24 5 43 159 65 
59 10 58 49 51 112 64 24 43 5 159 65 
60 10 125 38 180 55 116 16 161 9 62 124 
61 4 182 111 11 144 
62 10 121 116 55 17 125 60 41 180 198 38 
63 5 154 193 145 7 90 
64 11 24 112 5 31 49 51 59 2 58 15 43 
65 5 159 43 68 89 24 
66 10 109 150 194 53 45 140 13 3 117 41 
67 11 84 178 113 135 82 69 3 50 23 83 140 
68 6 89 32 181 167 70 4 
69 11 82 190 135 124 84 41 3 113 140 67 178 
70 11 4 12 68 167 89 189 34 32 173 168 181 
71 4 179 97 176 2 
72 3 162 132 25 
73 7 79 184 33 192 198 136 6 
74 8 143 117 81 23 53 178 157 109 
75 9 95 123 40 191 18 201 103 166 149 
76 11 175 85 8 30 126 129 14 172 200 161 195 
77 8 203 189 34 173 130 168 12 4 
78 8 25 158 156 145 7 132 162 72 
79 4 73 155 17 33 
80 7 6 192 33 136 37 184 28 
81 11 23 157 50 74 178 118 117 143 67 83 53 
82 11 69 135 190 124 84 41 3 140 67 113 178 
83 11 50 113 67 23 118 81 157 84 178 69 135 
84 11 135 69 82 67 113 190 3 178 124 140 41 
85 11 175 76 126 172 200 14 8 195 30 103 161 
86 11 122 42 28 147 37 108 115 171 136 198 13 
87 10 20 54 197 170 164 48 104 204 134 105 
88 8 169 185 26 127 100 44 21 174 
89 7 68 181 32 70 159 4 65 
90 8 196 120 106 98 22 27 193 148 
91 11 155 17 9 133 152 19 163 55 116 35 46 
92 11 177 160 105 134 27 114 204 22 106 48 196 
93 6 39 119 10 98 139 149 
94 9 130 11 12 34 144 77 203 111 189 
95 10 18 75 123 191 166 40 103 195 102 14 
96 10 148 153 138 131 193 29 106 196 90 165 
97 5 179 71 176 2 15 
98 6 120 39 90 93 196 22 
99 7 110 46 202 35 19 7 133 
100 9 44 26 127 21 47 186 88 169 185 
101 11 183 57 166 146 187 195 18 95 8 14 191 
102 11 191 166 123 187 95 57 75 18 146 40 101 
103 9 200 14 195 18 75 172 95 40 85 
104 11 204 134 197 142 164 36 160 20 87 29 54 
105 11 177 92 160 204 134 48 27 114 22 104 170 
106 11 196 27 90 22 114 120 148 92 160 96 29 
107 6 56 42 37 6 28 80 
108 11 171 13 199 151 128 194 150 86 122 174 45 
109 9 150 66 194 13 53 45 117 199 128 
110 6 99 35 46 19 133 202 
111 6 11 182 61 144 94 130 
112 11 49 51 64 5 24 59 58 31 2 15 43 
113 11 67 84 83 69 82 135 178 50 190 124 3 
114 11 22 27 106 196 120 92 177 160 105 90 134 
115 11 147 198 122 86 28 184 136 37 45 42 73 
116 10 55 62 125 180 17 60 121 9 38 91 
117 8 143 74 53 81 178 109 23 66 
118 10 157 50 23 81 83 67 178 52 74 113 
119 9 10 139 141 93 39 149 201 40 123 
120 7 22 90 196 98 114 106 27 
121 10 62 41 116 45 124 190 82 60 3 140 
122 11 147 115 86 198 28 45 108 13 171 37 42 
123 10 191 75 95 40 18 166 102 201 103 139 
124 10 190 69 82 41 135 84 3 140 113 38 
125 10 60 180 55 38 116 16 9 161 62 121 
126 11 172 85 175 9 161 30 76 200 14 91 133 
127 9 185 26 88 44 169 100 21 186 174 
128 9 199 151 174 171 108 13 150 194 109 
129 11 30 16 76 161 175 85 180 60 125 126 8 
130 8 34 77 203 12 94 189 173 144 
131 9 138 153 96 148 193 156 145 165 29 
132 3 72 25 162 
133 11 19 35 46 110 152 163 202 91 188 155 99 
134 11 160 204 92 105 104 177 29 27 106 48 36 
135 11 82 69 84 190 3 140 41 124 67 178 53 
136 11 37 28 184 6 42 86 115 33 80 192 147 
137 8 52 118 157 81 23 74 50 143 
138 9 131 153 96 148 193 156 145 165 29 
139 10 10 141 119 93 149 201 40 123 39 191 
140 11 3 53 135 82 41 178 84 190 69 66 67 
141 11 139 119 10 93 39 149 201 123 40 191 102 
142 6 36 165 29 104 164 134 
143 8 117 74 81 53 109 178 23 157 
144 4 130 94 11 182 
145 11 7 193 154 63 131 138 78 153 158 156 96 
146 11 187 57 183 101 166 102 18 191 95 195 123 
147 11 115 122 198 86 28 45 37 136 184 108 42 
148 10 96 153 138 131 193 29 106 196 90 27 
149 5 201 40 10 139 75 
150 10 194 13 109 66 45 199 108 171 128 151 
151 9 128 199 171 174 108 13 150 194 109 
152 8 163 188 46 202 19 35 155 133 
153 10 96 138 131 148 193 145 29 90 106 156 
154 5 63 7 145 193 99 
155 9 91 17 152 163 79 188 19 133 46 
156 8 25 131 78 138 162 153 145 165 
157 10 81 23 118 50 74 83 178 143 67 117 
158 7 78 202 25 7 188 145 163 
159 5 65 43 89 68 24 
160 11 92 134 105 177 204 27 114 106 48 29 104 
161 11 16 30 9 180 125 55 126 60 129 38 76 
162 5 72 25 132 156 78 
163 8 152 188 46 202 19 155 35 133 
164 7 197 54 104 87 20 142 204 
165 7 36 142 29 131 96 138 148 
166 11 95 191 18 57 102 123 101 187 75 146 195 
167 7 32 168 173 68 189 4 70 
168 7 173 189 167 77 203 32 4 
169 8 88 185 26 127 100 44 174 21 
170 11 48 20 87 197 54 204 105 104 134 177 160 
171 11 108 199 151 128 13 194 150 86 174 122 109 
172 10 126 200 85 103 14 175 133 195 76 19 
173 7 189 168 77 203 34 167 4 
174 6 128 199 151 171 108 13 
175 11 85 76 8 14 200 126 172 195 30 103 161 
176 5 97 179 71 2 15 
177 11 92 105 160 134 114 27 204 22 48 106 196 
178 11 67 53 84 3 140 23 135 81 113 82 50 
179 4 97 71 176 2 
180 10 125 55 60 9 161 116 16 38 62 30 
181 6 89 68 70 159 4 32 
182 4 61 111 11 144 
183 11 101 57 146 187 166 195 8 18 95 14 102 
184 10 136 37 73 28 33 6 192 198 115 147 
185 8 88 169 127 26 100 44 174 21 
186 7 21 47 44 100 127 26 151 
187 11 57 146 166 102 101 183 191 18 95 123 75 
188 7 152 163 202 46 19 35 155 
189 9 173 77 203 168 34 130 4 167 12 
190 10 124 82 69 41 135 84 3 140 67 113 
191 10 123 95 75 166 102 18 40 57 201 187 
192 6 33 6 80 184 73 136 
193 10 153 63 96 138 145 148 131 90 154 7 
194 10 150 13 109 45 66 108 171 199 128 151 
195 11 14 200 18 103 8 175 101 95 85 166 75 
196 10 106 90 27 120 22 114 148 96 92 98 
197 9 54 87 20 164 104 170 204 48 134 
198 11 115 147 122 184 28 73 136 86 37 45 62 
199 9 128 151 171 174 108 13 150 194 109 
200 10 14 103 172 195 85 175 18 126 8 95 
201 6 149 40 75 123 139 10 
202 10 46 188 152 163 35 19 99 110 158 133 
203 7 77 189 34 173 130 168 12 
204 11 134 105 160 48 104 92 177 170 20 197 87 
DEPOT_SECTION
   1
   -1
EOF
