NAME :  X-n284-kX-w113-c9.cctp
COMMENT : 	Adapted by Maziero, Usberti and Cavellucci from the Uchoa, Pecin, Pessoa, Poggi, Subramanian, and Vidal (2013)
TYPE :  CCTP
DIMENSION :    284
EDGE_WEIGHT_TYPE : 	EUC_2D	
CAPACITY : 	109
VERTICES_WITHIN_COVERAGE :  9
VERTICES_WITH_DEMAND : 	113
NODE_COORD_SECTION
1 674 825
2 549 534
3 43 315
4 542 420
5 45 580
6 180 450
7 369 618
8 287 721
9 36 426
10 411 408
11 170 446
12 21 333
13 37 428
14 617 456
15 52 527
16 114 227
17 32 303
18 233 638
19 314 568
20 290 736
21 549 449
22 317 699
23 676 992
24 45 851
25 455 508
26 128 446
27 34 302
28 152 660
29 550 576
30 559 585
31 306 655
32 183 449
33 380 586
34 726 399
35 21 277
36 306 679
37 128 317
38 547 726
39 242 389
40 347 595
41 324 384
42 531 492
43 103 480
44 197 495
45 20 321
46 66 402
47 100 638
48 453 582
49 120 514
50 691 499
51 311 449
52 350 574
53 198 437
54 370 722
55 513 438
56 273 645
57 6 508
58 44 581
59 309 763
60 18 616
61 128 603
62 543 466
63 687 466
64 625 525
65 54 449
66 504 517
67 592 375
68 49 401
69 638 459
70 329 614
71 657 416
72 1 296
73 217 443
74 42 721
75 1 416
76 157 731
77 244 727
78 128 320
79 548 588
80 559 438
81 425 920
82 17 481
83 130 376
84 459 433
85 9 408
86 364 507
87 55 295
88 357 711
89 168 292
90 31 407
91 544 414
92 285 801
93 439 387
94 751 638
95 66 345
96 347 636
97 413 579
98 353 713
99 686 492
100 192 450
101 535 479
102 658 301
103 428 346
104 18 359
105 364 653
106 293 515
107 326 459
108 60 370
109 252 426
110 532 411
111 225 722
112 259 227
113 19 558
114 368 573
115 382 645
116 84 434
117 596 630
118 27 367
119 186 460
120 116 629
121 177 576
122 89 544
123 574 623
124 841 288
125 166 458
126 541 481
127 255 545
128 38 273
129 672 313
130 264 757
131 59 278
132 351 298
133 26 447
134 334 620
135 21 527
136 268 402
137 547 547
138 54 551
139 530 414
140 53 441
141 103 273
142 181 327
143 163 342
144 141 256
145 619 383
146 502 494
147 324 558
148 121 518
149 116 307
150 262 511
151 592 418
152 85 355
153 442 622
154 307 581
155 344 619
156 509 653
157 140 436
158 603 511
159 155 633
160 83 545
161 389 638
162 231 732
163 141 362
164 36 435
165 499 331
166 605 327
167 217 375
168 50 491
169 487 555
170 625 355
171 415 599
172 314 840
173 589 589
174 199 463
175 683 488
176 55 501
177 30 368
178 308 729
179 609 370
180 97 678
181 69 439
182 208 380
183 85 478
184 96 618
185 39 321
186 47 409
187 541 489
188 76 376
189 469 638
190 501 458
191 51 527
192 428 484
193 197 390
194 279 744
195 181 319
196 39 640
197 70 417
198 320 800
199 88 326
200 448 624
201 5 405
202 9 520
203 26 200
204 432 556
205 405 541
206 242 429
207 501 579
208 479 427
209 27 571
210 602 440
211 398 657
212 176 482
213 517 509
214 184 464
215 350 606
216 45 407
217 52 465
218 612 434
219 318 979
220 226 642
221 544 431
222 607 574
223 130 767
224 204 742
225 518 464
226 439 619
227 104 463
228 584 495
229 183 642
230 747 478
231 528 588
232 37 256
233 113 395
234 189 421
235 537 541
236 554 484
237 395 514
238 31 647
239 63 473
240 636 432
241 337 505
242 678 518
243 396 435
244 603 501
245 173 629
246 575 395
247 309 604
248 371 795
249 262 452
250 29 521
251 375 623
252 525 449
253 482 542
254 589 420
255 86 340
256 22 705
257 343 673
258 45 558
259 530 483
260 528 389
261 299 678
262 486 326
263 414 536
264 673 15
265 56 354
266 13 456
267 615 505
268 155 392
269 17 342
270 505 333
271 264 387
272 289 541
273 140 498
274 445 606
275 534 468
276 112 456
277 604 604
278 304 614
279 228 659
280 339 622
281 513 411
282 290 422
283 728 457
284 379 594
DEMAND_SECTION
2 7
3 3
4 3
5 5
6 4
7 8
8 1
9 2
10 9
11 5
12 2
13 2
14 4
15 1
16 3
17 4
18 10
19 2
20 2
21 3
22 9
23 2
24 1
25 6
26 8
27 9
28 7
29 8
30 8
31 4
32 6
33 2
34 7
35 5
36 10
37 4
38 9
39 6
40 8
41 1
42 5
43 5
44 8
45 5
46 5
47 4
48 8
49 3
50 6
51 7
52 7
53 9
54 9
55 5
56 4
57 3
58 9
59 3
60 7
61 9
62 1
63 6
64 2
65 8
66 9
67 2
68 6
69 7
70 7
71 7
72 10
73 10
74 5
75 5
76 8
77 7
78 3
79 2
80 3
81 3
82 1
83 9
84 4
85 2
86 1
87 5
88 5
89 5
90 6
91 4
92 8
93 9
94 2
95 2
96 8
97 5
98 6
99 8
100 7
101 10
102 5
103 1
104 6
105 1
106 1
107 9
108 7
109 6
110 3
111 4
112 7
113 7
114 6
COVERAGE_SECTION
2 9 137 235 213 29 42 187 66 236 30 
3 9 185 17 27 87 45 12 269 95 131 
4 9 91 221 110 139 80 21 281 55 252 
5 9 58 209 258 138 113 60 160 15 191 
6 9 32 11 100 119 214 125 53 174 234 
7 9 251 215 155 284 96 161 115 280 40 
8 9 20 178 194 22 77 130 261 36 59 
9 9 13 164 90 186 216 133 140 68 65 
10 9 243 93 84 103 208 192 41 107 281 
11 9 6 32 125 119 100 214 53 234 157 
12 9 269 45 185 104 3 17 27 118 177 
13 9 9 164 140 186 90 133 216 65 68 
14 9 69 210 218 240 151 254 244 267 228 
15 9 191 138 250 176 135 258 160 168 122 
16 9 144 141 131 149 232 89 128 87 37 
17 9 27 3 185 45 87 35 128 12 72 
18 9 220 279 56 229 245 31 278 261 159 
19 9 147 154 52 247 272 40 278 70 215 
20 9 194 8 178 59 130 22 77 36 162 
21 9 80 62 221 252 275 4 101 126 225 
22 9 36 261 178 8 257 98 88 31 20 
23 9 81 38 219 94 248 117 156 123 172 
24 9 223 74 256 76 180 224 238 196 28 
25 9 192 253 146 66 263 204 169 205 237 
26 9 157 276 227 125 11 43 116 6 233 
27 9 17 3 185 87 45 35 128 12 72 
28 9 159 229 245 120 47 180 61 184 76 
29 9 79 30 231 137 235 173 2 207 123 
30 9 79 29 173 231 137 123 222 235 277 
31 9 36 261 56 257 278 22 96 134 70 
32 9 6 100 119 11 214 53 125 174 234 
33 9 284 114 52 7 40 97 215 171 251 
34 9 283 71 63 230 240 175 99 129 50 
35 9 128 232 17 27 72 87 131 3 45 
36 9 261 22 31 257 8 56 178 98 20 
37 9 78 149 199 143 89 163 255 141 195 
38 9 156 123 117 189 277 79 231 30 200 
39 9 271 136 167 182 109 206 193 282 73 
40 9 215 52 155 70 134 280 114 7 284 
41 9 282 136 271 51 107 39 109 243 10 
42 9 259 187 101 126 213 236 275 62 146 
43 9 227 183 276 49 239 273 26 148 116 
44 9 212 174 214 119 100 6 32 125 11 
45 9 12 185 269 17 3 27 72 104 35 
46 9 197 68 186 216 188 108 90 116 181 
47 9 120 184 180 61 159 28 196 238 245 
48 9 274 204 97 226 153 171 200 169 207 
49 9 148 273 43 122 160 183 227 276 212 
50 9 99 175 242 63 283 230 69 64 267 
51 9 107 282 249 241 109 136 41 106 206 
52 9 114 40 147 33 215 284 19 154 70 
53 9 100 234 32 73 6 119 174 11 214 
54 9 88 98 257 22 178 105 211 59 248 
55 9 252 190 225 281 139 221 110 4 208 
56 9 31 18 261 278 36 220 279 247 70 
57 9 202 135 250 82 168 176 191 15 113 
58 9 5 209 258 138 113 60 160 191 15 
59 9 20 178 194 198 92 130 8 22 98 
60 9 196 238 58 5 209 113 258 138 184 
61 9 120 184 159 47 245 121 28 229 122 
62 9 275 101 126 21 236 259 187 225 252 
63 9 175 99 50 283 69 242 71 230 240 
64 9 267 158 244 228 222 242 69 14 99 
65 9 140 217 181 164 239 13 133 9 116 
66 9 213 146 253 42 235 169 259 187 2 
67 9 179 246 145 170 151 254 166 91 218 
68 9 216 186 46 90 197 9 13 108 164 
69 9 14 240 218 210 71 63 267 175 244 
70 9 134 280 155 215 247 278 40 96 7 
71 9 240 69 218 145 14 63 210 151 179 
72 9 35 45 17 27 12 128 185 3 269 
73 9 53 100 174 206 32 119 234 6 109 
74 9 256 180 238 196 223 47 60 76 184 
75 9 85 201 90 9 13 133 164 266 216 
76 9 223 224 111 28 162 180 77 229 159 
77 9 162 111 130 194 8 224 20 178 279 
78 9 37 149 199 143 163 255 89 141 142 
79 9 30 29 231 137 173 123 207 235 2 
80 9 21 221 4 91 62 254 252 110 139 
81 9 219 248 172 198 92 59 54 98 88 
82 9 266 57 168 133 217 202 250 176 135 
83 9 163 233 268 143 152 188 78 255 37 
84 9 208 190 93 10 55 281 192 243 225 
85 9 201 75 90 9 13 216 164 186 68 
86 9 241 237 205 263 107 147 114 52 192 
87 9 131 27 3 17 128 185 35 232 45 
88 9 98 54 257 22 178 105 36 261 211 
89 9 195 142 144 37 78 143 149 141 163 
90 9 216 186 68 9 13 85 201 164 75 
91 9 4 110 139 221 80 260 281 21 246 
92 9 198 59 130 172 194 20 178 8 77 
93 9 10 103 84 208 243 262 281 165 270 
94 9 242 50 277 117 222 99 230 175 64 
95 9 265 152 255 108 199 188 185 3 177 
96 9 280 155 134 105 7 70 215 251 115 
97 9 171 204 33 284 205 48 274 263 114 
98 9 88 54 22 257 178 36 105 261 8 
99 9 175 50 63 242 283 69 230 64 267 
100 9 32 6 119 53 174 214 11 73 125 
101 9 126 259 275 187 42 62 236 225 252 
102 9 129 166 170 179 145 67 71 34 246 
103 9 93 262 10 165 270 132 84 243 208 
104 9 118 177 269 12 45 265 108 185 201 
105 9 115 96 161 257 251 211 7 155 280 
106 9 272 150 241 127 147 19 107 154 51 
107 9 51 241 282 86 249 106 243 41 109 
108 9 265 188 95 152 177 46 68 118 216 
109 9 206 249 136 39 282 73 271 53 167 
110 9 139 91 4 281 260 221 55 80 252 
111 9 162 77 224 130 194 8 279 20 76 
112 9 89 132 195 144 142 16 143 167 37 
113 9 209 258 135 5 58 138 250 202 15 
114 9 33 52 284 40 215 7 97 147 205 
115 9 161 105 211 251 7 96 155 257 280 
116 9 181 197 140 65 227 276 46 183 239 
117 9 123 277 173 222 30 79 29 231 156 
118 9 177 104 269 265 108 12 68 90 201 
119 9 214 32 6 100 174 125 11 212 53 
120 9 47 184 61 159 28 180 245 229 196 
121 9 245 61 159 229 120 148 220 44 18 
122 9 160 138 15 148 191 49 258 176 5 
123 9 117 277 173 30 79 29 231 222 156 
124 9 34 129 102 283 230 71 170 63 166 
125 9 11 6 32 214 119 212 100 174 157 
126 9 101 187 259 236 42 62 275 225 21 
127 9 272 150 106 19 154 147 44 247 121 
128 9 35 232 131 87 27 17 3 72 185 
129 9 102 170 166 179 145 67 34 71 240 
130 9 194 20 77 162 8 59 92 111 178 
131 9 87 128 232 27 17 35 3 141 185 
132 9 41 103 112 271 10 93 136 262 282 
133 9 164 266 13 9 65 140 217 82 75 
134 9 280 70 155 96 215 40 247 278 7 
135 9 250 202 57 191 15 113 258 138 176 
136 9 271 39 109 282 206 249 167 41 51 
137 9 235 2 29 30 79 231 213 66 207 
138 9 258 15 191 5 160 58 209 113 122 
139 9 110 4 91 281 221 260 55 252 80 
140 9 65 181 164 13 9 217 133 197 116 
141 9 149 144 131 16 37 78 87 199 128 
142 9 195 143 89 78 163 37 182 167 193 
143 9 142 195 163 78 37 83 89 268 149 
144 9 16 141 89 149 37 78 195 142 131 
145 9 179 67 170 151 246 254 71 218 240 
146 9 213 66 42 259 225 101 190 187 126 
147 9 19 154 52 272 40 114 247 106 215 
148 9 49 273 122 43 160 183 227 276 212 
149 9 37 78 199 141 255 89 144 152 143 
150 9 106 127 272 249 44 241 19 147 51 
151 9 254 210 218 246 80 67 145 14 240 
152 9 255 95 188 108 199 265 233 83 46 
153 9 226 200 274 189 171 48 97 161 211 
154 9 19 247 147 278 70 40 52 272 134 
155 9 280 134 215 70 96 40 7 251 247 
156 9 189 200 231 123 153 207 79 226 274 
157 9 26 11 125 276 6 32 227 268 233 
158 9 244 267 228 64 236 14 2 69 222 
159 9 245 28 229 120 61 47 121 184 220 
160 9 122 138 15 191 258 148 49 5 176 
161 9 115 211 251 7 105 96 284 171 155 
162 9 111 77 224 130 194 8 20 279 76 
163 9 83 143 268 233 78 37 142 152 195 
164 9 13 9 133 140 65 90 186 216 266 
165 9 270 262 260 103 281 93 110 139 91 
166 9 170 179 67 145 102 129 246 151 254 
167 9 182 193 39 271 234 136 142 206 109 
168 9 176 239 217 82 15 191 183 250 65 
169 9 253 207 66 48 235 231 204 213 25 
170 9 179 145 166 67 102 129 246 71 151 
171 9 97 226 274 153 284 33 200 48 204 
172 9 198 92 248 59 130 194 20 178 8 
173 9 277 222 30 123 29 79 117 137 231 
174 9 119 100 214 32 6 53 73 212 44 
175 9 99 50 63 242 69 283 230 64 267 
176 9 168 15 191 239 250 217 183 82 135 
177 9 118 104 269 108 265 12 68 90 216 
178 9 20 8 22 194 59 98 36 88 130 
179 9 145 67 170 246 166 151 254 218 71 
180 9 47 120 28 184 196 74 159 238 76 
181 9 116 140 65 197 217 164 13 9 239 
182 9 167 193 39 234 268 271 53 142 143 
183 9 43 239 227 217 276 168 176 65 181 
184 9 47 120 61 180 159 196 5 58 28 
185 9 3 17 45 27 12 269 87 95 265 
186 9 216 68 90 9 46 13 197 164 140 
187 9 126 42 101 259 236 275 62 213 225 
188 9 108 152 46 265 95 68 255 197 233 
189 9 200 153 226 274 156 48 171 207 211 
190 9 225 55 252 275 146 208 259 101 62 
191 9 15 250 138 176 135 258 168 160 122 
192 9 25 237 263 243 84 205 86 204 146 
193 9 182 167 234 268 39 53 73 143 100 
194 9 20 130 8 178 59 77 162 92 111 
195 9 142 143 89 37 78 163 149 167 182 
196 9 238 60 58 5 47 184 256 180 209 
197 9 46 116 181 186 68 216 140 9 13 
198 9 92 59 172 248 194 20 130 178 8 
199 9 255 95 152 149 78 37 265 87 3 
200 9 153 226 274 189 171 48 97 211 161 
201 9 85 75 90 9 13 216 186 164 68 
202 9 57 135 250 113 82 191 15 168 176 
203 9 232 128 35 131 16 72 87 27 17 
204 9 263 97 205 48 171 253 274 25 169 
205 9 263 237 204 97 114 33 86 171 284 
206 9 109 73 249 136 39 53 271 282 100 
207 9 169 231 253 48 79 29 235 137 30 
208 9 84 55 190 281 252 139 225 110 93 
209 9 113 5 58 258 138 135 60 191 250 
210 9 218 14 151 254 240 69 80 246 21 
211 9 115 161 105 251 7 96 153 226 257 
212 9 214 119 44 125 174 6 32 11 100 
213 9 66 146 42 259 187 101 126 235 2 
214 9 119 6 32 174 100 125 212 11 53 
215 9 40 155 280 134 7 70 96 251 284 
216 9 186 68 90 9 13 46 197 164 140 
217 9 239 65 140 168 181 133 164 183 176 
218 9 210 14 240 151 254 69 71 145 80 
219 9 81 172 198 92 248 59 130 194 20 
220 9 18 279 229 56 245 159 28 111 31 
221 9 4 80 91 21 139 110 252 55 62 
222 9 173 277 30 64 29 117 123 79 158 
223 9 76 224 180 74 111 162 28 24 77 
224 9 111 162 77 76 130 194 223 8 20 
225 9 275 252 190 259 101 62 55 126 42 
226 9 153 200 274 171 189 48 97 161 211 
227 9 276 43 183 26 116 181 239 157 273 
228 9 244 158 236 267 187 126 62 14 64 
229 9 245 159 28 220 279 18 121 61 120 
230 9 283 50 63 99 175 242 34 71 69 
231 9 79 29 207 30 137 235 169 2 123 
232 9 128 35 131 87 27 17 72 203 3 
233 9 83 188 268 163 46 197 116 152 157 
234 9 53 32 100 6 11 193 73 119 174 
235 9 137 2 29 213 66 79 231 30 42 
236 9 126 187 101 62 42 259 275 228 21 
237 9 205 263 86 192 204 241 25 114 97 
238 9 196 60 256 58 5 47 184 180 74 
239 9 217 168 183 65 176 140 181 43 227 
240 9 218 71 69 14 210 151 254 145 63 
241 9 86 106 107 147 237 272 51 19 52 
242 9 50 99 175 63 64 267 69 158 244 
243 9 10 192 84 93 107 86 237 208 51 
244 9 158 267 228 64 14 236 69 210 2 
245 9 229 159 28 61 121 220 120 18 279 
246 9 67 151 254 91 4 179 80 110 145 
247 9 278 70 154 134 280 19 155 40 215 
248 9 198 59 54 172 98 88 92 178 20 
249 9 109 206 282 73 51 136 150 107 174 
250 9 135 202 191 15 57 176 168 113 138 
251 9 7 161 115 284 215 96 155 105 280 
252 9 55 225 275 21 62 190 221 101 4 
253 9 169 66 207 25 213 48 146 204 235 
254 9 151 210 218 246 80 67 91 14 221 
255 9 199 152 95 265 188 108 149 78 37 
256 9 74 238 196 180 60 47 184 120 223 
257 9 105 22 36 96 88 31 98 261 115 
258 9 138 5 209 58 113 15 191 135 160 
259 9 101 42 126 187 275 62 225 236 213 
260 9 110 139 281 91 4 221 246 55 80 
261 9 36 31 22 56 257 8 178 20 96 
262 9 165 270 103 260 93 281 110 139 208 
263 9 205 204 237 97 25 192 86 114 33 
264 9 102 129 166 124 170 270 165 179 262 
265 9 95 108 152 177 188 118 255 185 104 
266 9 133 82 164 13 9 217 65 75 140 
267 9 158 244 64 228 14 69 242 236 210 
268 9 83 163 193 233 234 157 143 182 11 
269 9 12 104 45 118 177 185 3 265 17 
270 9 165 262 260 103 281 110 93 139 91 
271 9 136 39 109 282 206 167 182 41 249 
272 9 106 127 19 147 150 154 241 247 52 
273 9 49 148 212 43 125 227 276 26 214 
274 9 226 153 200 48 171 189 97 204 207 
275 9 62 101 126 225 259 252 187 21 42 
276 9 227 26 43 157 183 116 181 273 239 
277 9 173 117 222 123 30 79 29 231 137 
278 9 247 70 134 154 280 155 31 56 19 
279 9 220 18 56 229 111 245 77 162 261 
280 9 134 155 70 96 215 40 7 247 251 
281 9 139 110 55 260 4 91 221 208 252 
282 9 136 51 109 249 271 206 41 107 39 
283 9 230 63 99 175 50 34 242 71 69 
284 9 33 114 7 251 215 40 52 171 97 
DEPOT_SECTION
   1
   -1
EOF
