NAME :  X-n219-kX-w21-c11.cctp
COMMENT : 	Adapted by Maziero, Usberti and Cavellucci from the Uchoa, Pecin, Pessoa, Poggi, Subramanian, and Vidal (2013)
TYPE :  CCTP
DIMENSION :    166
EDGE_WEIGHT_TYPE : 	EUC_2D	
CAPACITY : 	3
VERTICES_WITHIN_COVERAGE :  11
VERTICES_WITH_DEMAND : 	21
NODE_COORD_SECTION
1 0 0
2 18 761
3 835 397
4 299 16
5 31 168
6 142 257
7 242 984
8 612 357
9 663 812
10 105 188
11 487 636
12 993 703
13 672 148
14 506 259
15 953 706
16 888 203
17 107 534
18 772 692
19 475 182
20 828 775
21 719 220
22 655 722
23 844 197
24 918 600
25 739 102
26 989 936
27 935 602
28 44 72
29 163 416
30 722 397
31 317 903
32 547 95
33 935 192
34 128 376
35 908 176
36 720 226
37 738 793
38 791 498
39 712 751
40 530 693
41 634 301
42 47 557
43 48 202
44 535 216
45 828 214
46 829 352
47 623 473
48 374 1000
49 74 187
50 726 789
51 51 597
52 894 395
53 159 743
54 301 893
55 978 261
56 709 153
57 391 153
58 876 370
59 846 725
60 604 107
61 117 709
62 507 89
63 476 204
64 181 957
65 948 710
66 158 788
67 414 685
68 358 66
69 5 468
70 459 43
71 555 414
72 94 964
73 558 360
74 641 424
75 132 16
76 25 205
77 5 686
78 400 682
79 501 234
80 651 941
81 817 643
82 735 937
83 223 584
84 206 549
85 542 691
86 296 10
87 148 641
88 9 553
89 411 59
90 824 612
91 608 727
92 481 574
93 169 950
94 396 536
95 36 459
96 798 917
97 10 569
98 569 627
99 692 467
100 166 178
101 738 487
102 508 327
103 158 986
104 983 244
105 637 109
106 177 207
107 361 972
108 365 701
109 932 452
110 60 66
111 252 267
112 944 435
113 900 168
114 583 871
115 845 534
116 387 253
117 812 354
118 5 404
119 590 575
120 930 128
121 832 466
122 32 531
123 31 40
124 162 539
125 621 425
126 802 495
127 769 329
128 64 106
129 854 678
130 943 122
131 103 285
132 398 212
133 43 108
134 400 255
135 935 851
136 179 147
137 822 749
138 60 32
139 783 760
140 218 360
141 403 172
142 32 134
143 218 490
144 44 456
145 430 570
146 896 875
147 509 572
148 639 505
149 914 852
150 984 435
151 479 341
152 207 937
153 709 700
154 557 130
155 270 964
156 482 320
157 60 761
158 836 272
159 413 327
160 509 379
161 961 329
162 819 754
163 176 910
164 648 809
165 640 892
166 552 232
DEMAND_SECTION
2 1
3 1
4 1
5 1
6 1
7 1
8 1
9 1
10 1
11 1
12 1
13 1
14 1
15 1
16 1
17 1
18 1
19 1
20 1
21 1
22 1
COVERAGE_SECTION
2 8 157 77 61 53 66 51 87 97 
3 11 46 58 117 52 121 127 126 38 109 30 112 
4 11 86 68 89 70 57 75 136 141 100 62 132 
5 11 142 76 43 49 133 128 10 28 110 123 100 
6 11 131 106 10 100 49 43 111 136 34 76 140 
7 11 155 152 64 93 103 163 54 31 107 48 72 
8 11 73 41 125 74 71 160 102 30 47 151 156 
9 11 164 50 37 39 165 22 114 91 153 80 139 
10 11 49 43 100 106 5 6 76 136 142 128 131 
11 11 92 147 40 85 98 145 67 78 119 94 108 
12 11 15 65 27 24 129 59 135 149 137 20 162 
13 9 56 105 60 25 21 36 154 32 166 
14 11 79 44 166 63 156 102 19 151 134 73 159 
15 11 65 12 129 27 59 24 137 162 20 135 81 
16 10 35 113 23 33 45 120 158 130 104 55 
17 11 124 42 122 51 84 88 144 95 97 87 143 
18 11 153 81 139 137 162 59 129 39 90 20 37 
19 11 63 79 44 141 14 132 57 166 154 62 134 
20 11 162 137 139 59 37 18 129 50 149 39 146 
21 10 36 56 13 45 41 25 127 23 158 105 
22 11 91 153 39 164 9 50 37 85 18 40 98 
23 9 45 16 113 35 158 33 120 130 21 
24 10 27 90 115 129 81 15 65 12 59 109 
25 5 56 13 105 21 36 
26 7 135 146 149 96 20 65 12 
27 10 24 15 65 90 129 115 12 81 109 59 
28 11 110 123 133 128 138 142 5 75 49 43 10 
29 8 34 140 143 124 144 17 95 84 
30 11 99 127 74 101 117 125 3 46 8 38 47 
31 6 54 155 107 7 48 152 
32 11 154 62 60 105 70 19 44 63 13 166 89 
33 9 35 113 16 120 130 104 55 23 45 
34 9 29 140 131 144 6 95 118 143 69 
35 9 113 33 16 120 130 23 45 104 55 
36 10 21 56 13 45 41 127 25 158 23 105 
37 11 50 39 139 9 162 164 20 137 153 18 22 
38 11 126 121 101 115 99 3 90 30 52 117 81 
39 11 50 37 153 22 139 9 18 164 91 162 137 
40 10 85 11 98 91 67 147 22 92 78 119 
41 11 8 73 166 36 21 74 125 102 30 44 14 
42 11 122 88 97 51 17 69 95 144 124 87 77 
43 11 76 49 5 10 142 133 128 131 6 100 106 
44 11 166 79 14 63 19 154 102 156 32 60 41 
45 10 23 158 16 113 35 21 33 36 127 120 
46 11 117 3 58 127 52 158 121 30 161 45 112 
47 11 148 125 74 99 71 119 101 8 30 73 160 
48 5 107 155 31 54 7 
49 11 43 10 5 76 142 128 133 100 6 131 106 
50 11 37 39 139 9 164 153 22 162 20 137 18 
51 10 42 97 88 122 17 77 87 124 61 69 
52 11 58 3 112 109 46 117 121 161 150 126 158 
53 5 66 61 157 87 2 
54 7 31 155 107 152 7 163 48 
55 11 104 161 33 16 35 113 120 158 130 23 58 
56 8 13 25 21 36 105 60 45 23 
57 11 141 132 19 68 89 63 116 134 70 62 79 
58 11 52 3 46 117 112 161 109 121 158 127 150 
59 11 137 162 129 20 139 18 81 65 15 90 37 
60 11 105 154 32 13 62 56 44 25 166 19 70 
61 6 53 87 157 66 2 77 
62 11 32 154 70 19 60 89 63 44 57 105 141 
63 11 19 79 44 14 132 141 166 134 57 116 154 
64 10 93 152 103 163 7 72 155 54 31 66 
65 11 15 12 129 59 27 24 137 20 162 135 149 
66 5 53 61 157 163 2 
67 5 78 108 11 40 145 
68 11 89 4 86 57 70 141 62 132 19 63 116 
69 11 95 144 118 122 88 42 97 17 51 34 29 
70 11 89 62 32 68 57 154 19 141 60 4 63 
71 11 73 160 125 8 74 47 102 151 156 148 41 
72 11 103 93 64 163 152 7 155 66 157 2 54 
73 11 160 8 71 102 151 156 125 41 74 14 166 
74 11 125 47 99 8 148 30 71 73 101 41 160 
75 11 138 110 28 123 128 133 136 142 86 100 4 
76 11 43 5 49 142 10 133 128 131 6 28 110 
77 10 2 157 51 61 97 88 42 87 122 53 
78 5 67 108 11 145 40 
79 11 14 44 63 166 19 156 102 134 132 151 116 
80 4 165 82 114 9 
81 11 90 129 18 59 137 24 162 115 139 153 27 
82 5 96 80 165 9 37 
83 5 84 124 87 143 17 
84 6 83 124 143 17 87 29 
85 10 40 98 91 11 22 147 119 67 92 78 
86 11 4 68 89 75 70 57 136 141 100 62 132 
87 7 61 83 53 124 51 84 17 
88 11 97 122 42 51 69 95 17 144 77 118 124 
89 11 70 68 57 62 141 4 86 19 32 132 63 
90 11 81 129 115 18 24 27 59 38 126 137 162 
91 10 22 85 40 164 9 153 39 98 50 37 
92 9 147 145 11 94 98 119 40 67 85 
93 10 64 103 152 163 72 7 155 54 31 66 
94 4 145 92 147 11 
95 11 144 69 118 122 88 42 17 97 34 29 51 
96 5 82 146 149 37 20 
97 11 88 42 122 51 69 17 95 77 144 124 87 
98 11 119 85 40 147 11 92 91 22 148 145 153 
99 11 101 148 74 47 30 125 38 126 8 121 71 
100 11 106 136 10 6 49 43 111 131 128 5 142 
101 11 99 38 126 30 121 148 47 74 115 3 125 
102 11 156 151 160 73 14 79 159 71 166 8 44 
103 11 64 93 72 152 163 7 155 54 31 66 107 
104 10 55 33 161 35 16 113 120 130 23 158 
105 11 60 13 154 56 32 25 62 21 36 44 166 
106 11 100 136 6 10 111 49 131 43 5 76 128 
107 6 48 31 155 54 7 152 
108 4 78 67 11 145 
109 10 112 150 52 58 121 3 115 161 126 46 
110 11 28 138 123 128 133 142 75 5 49 10 43 
111 7 106 140 6 100 116 136 134 
112 10 109 150 52 58 161 3 121 115 46 126 
113 7 35 16 33 120 23 130 45 
114 4 165 164 80 9 
115 10 126 38 121 90 24 27 81 101 109 3 
116 10 134 132 159 141 57 63 19 79 156 14 
117 11 46 3 127 58 158 52 30 121 45 126 38 
118 11 95 69 144 34 122 88 131 29 42 17 97 
119 11 98 147 148 47 92 11 85 40 99 91 125 
120 5 130 113 35 33 16 
121 11 126 38 3 115 52 101 109 58 46 117 112 
122 11 42 88 97 51 69 95 17 144 118 124 77 
123 11 138 28 110 133 128 142 75 5 49 43 10 
124 9 84 17 143 83 87 42 29 51 122 
125 11 74 47 71 8 99 148 73 30 160 41 101 
126 11 38 121 115 101 3 99 90 30 52 109 117 
127 11 117 46 30 158 3 36 58 21 45 41 52 
128 11 133 28 110 142 5 123 138 49 10 43 76 
129 11 59 81 90 137 18 162 65 20 24 15 139 
130 5 120 113 35 33 16 
131 11 6 34 10 43 49 106 76 100 5 140 29 
132 10 141 116 134 57 63 19 79 159 14 44 
133 11 128 142 28 110 5 123 138 49 43 76 10 
134 10 116 132 159 141 63 57 79 19 156 14 
135 10 149 146 26 20 65 15 162 96 137 59 
136 11 100 106 10 49 6 128 75 111 133 43 110 
137 11 162 20 59 139 18 129 37 50 81 39 153 
138 11 123 110 28 75 128 133 142 5 49 10 136 
139 11 162 137 20 37 50 18 39 59 153 129 81 
140 6 29 34 111 6 143 131 
141 11 57 132 19 63 116 134 89 68 79 62 14 
142 11 133 5 128 28 49 43 76 110 10 123 138 
143 5 84 124 29 83 17 
144 11 95 69 118 122 17 42 88 34 97 29 51 
145 6 94 92 147 11 67 78 
146 7 149 135 96 26 20 162 137 
147 9 92 11 145 98 119 94 40 85 148 
148 11 47 99 74 125 119 101 71 30 98 147 8 
149 9 135 146 26 20 96 162 137 59 65 
150 10 112 109 52 161 58 3 121 115 27 55 
151 9 156 102 160 159 73 14 71 79 134 
152 10 64 93 163 7 103 155 54 31 72 66 
153 11 39 22 18 50 139 37 91 9 81 137 162 
154 11 32 60 62 105 44 19 166 63 13 79 70 
155 10 7 152 31 54 64 107 93 163 48 103 
156 11 151 102 160 14 159 73 79 134 166 63 116 
157 7 2 61 77 53 66 87 51 
158 11 45 23 46 117 16 127 58 35 113 3 36 
159 9 151 156 134 116 102 160 14 132 79 
160 11 151 102 73 71 156 8 159 14 125 74 79 
161 11 55 104 52 58 112 150 109 46 158 33 3 
162 11 137 20 139 59 18 129 37 50 39 81 153 
163 10 93 152 64 103 72 7 155 66 54 31 
164 9 9 50 165 39 22 114 37 91 153 
165 5 80 114 9 164 82 
166 11 44 79 14 63 19 154 102 41 156 73 151 
DEPOT_SECTION
   1
   -1
EOF
