NAME :  X-n233-kX-w23-c7.cctp
COMMENT : 	Adapted by Maziero, Usberti and Cavellucci from the Uchoa, Pecin, Pessoa, Poggi, Subramanian, and Vidal (2013)
TYPE :  CCTP
DIMENSION :    128
EDGE_WEIGHT_TYPE : 	EUC_2D	
CAPACITY : 	631
VERTICES_WITHIN_COVERAGE :  7
VERTICES_WITH_DEMAND : 	23
NODE_COORD_SECTION
1 500 500
2 816 981
3 349 338
4 22 205
5 385 344
6 913 54
7 524 123
8 239 335
9 150 84
10 84 860
11 645 647
12 507 516
13 153 940
14 429 602
15 596 759
16 776 399
17 942 767
18 871 2
19 714 950
20 72 400
21 765 315
22 666 798
23 287 851
24 3 201
25 253 251
26 37 22
27 973 599
28 726 13
29 82 262
30 834 714
31 37 861
32 290 110
33 423 350
34 406 414
35 846 956
36 849 683
37 79 883
38 433 93
39 229 248
40 382 597
41 544 618
42 732 387
43 563 807
44 780 940
45 665 561
46 591 536
47 35 216
48 811 927
49 592 744
50 280 384
51 153 27
52 401 481
53 72 488
54 381 300
55 139 848
56 386 572
57 660 422
58 719 264
59 761 560
60 231 203
61 769 312
62 905 645
63 304 372
64 970 966
65 51 257
66 189 934
67 516 6
68 756 36
69 47 139
70 428 61
71 100 853
72 923 919
73 751 480
74 555 726
75 463 190
76 130 131
77 105 943
78 83 892
79 869 706
80 668 913
81 954 694
82 282 907
83 339 810
84 339 296
85 367 511
86 72 181
87 415 387
88 882 359
89 485 115
90 368 424
91 991 97
92 634 849
93 37 450
94 899 115
95 983 90
96 696 466
97 629 807
98 171 930
99 919 111
100 129 852
101 504 181
102 469 662
103 563 555
104 213 837
105 645 830
106 384 375
107 65 890
108 561 523
109 725 818
110 998 76
111 636 804
112 912 114
113 652 948
114 117 832
115 648 144
116 371 627
117 235 979
118 271 865
119 553 750
120 723 813
121 570 761
122 159 883
123 294 874
124 265 793
125 999 75
126 662 727
127 568 454
128 220 931
DEMAND_SECTION
2 53
3 64
4 54
5 63
6 45
7 6
8 100
9 63
10 5
11 74
12 87
13 11
14 33
15 63
16 36
17 93
18 28
19 89
20 64
21 8
22 69
23 40
24 65
COVERAGE_SECTION
2 7 35 48 44 19 72 64 80 
3 7 5 84 54 106 63 33 87 
4 7 47 24 86 65 69 29 76 
5 7 106 3 33 54 87 84 34 
6 7 99 112 94 18 95 110 91 
7 6 89 101 75 38 70 67 
8 7 50 63 25 39 84 3 60 
9 7 76 51 69 86 26 32 60 
10 7 71 37 78 107 114 100 31 
11 7 126 45 41 49 74 15 46 
12 7 108 103 46 127 41 52 14 
13 7 98 66 77 122 128 78 100 
14 4 40 56 116 102 
15 7 49 121 119 74 43 97 111 
16 7 42 21 73 61 96 88 57 
17 6 81 79 30 36 62 72 
18 7 6 94 99 112 68 95 28 
19 5 80 113 44 48 2 
20 4 93 53 29 65 
21 4 61 58 42 16 
22 7 111 97 105 120 92 109 126 
23 6 118 123 82 124 83 104 
24 7 4 47 86 65 69 29 76 
25 6 39 60 8 84 3 63 
26 7 51 69 9 76 86 24 4 
27 6 62 81 79 36 17 30 
28 5 68 18 115 6 94 
29 7 65 47 86 4 24 69 20 
30 5 36 79 62 17 81 
31 7 107 10 37 78 71 114 100 
32 5 60 9 38 25 70 
33 6 5 87 106 54 34 3 
34 7 87 90 106 33 52 5 3 
35 6 2 48 44 72 64 19 
36 5 79 30 62 81 17 
37 7 78 107 10 71 31 100 114 
38 6 70 89 7 75 101 67 
39 6 25 60 8 84 50 63 
40 3 56 116 14 
41 6 103 102 46 108 11 12 
42 6 16 21 57 61 96 73 
43 6 121 15 119 97 49 111 
44 6 48 2 19 35 80 113 
45 6 46 11 59 96 103 108 
46 6 108 103 45 127 12 41 
47 7 4 24 65 86 29 69 76 
48 6 44 35 2 19 72 109 
49 7 15 121 119 74 43 126 97 
50 7 63 8 3 90 106 84 5 
51 7 9 76 26 69 32 86 60 
52 7 85 90 34 56 87 106 12 
53 2 93 20 
54 6 84 5 3 33 106 87 
55 5 100 114 71 122 10 
56 5 40 14 116 85 52 
57 5 96 42 127 73 16 
58 2 21 61 
59 5 73 45 96 11 36 
60 6 39 25 32 76 8 84 
61 5 21 58 42 16 88 
62 6 36 81 79 27 30 17 
63 7 50 3 8 106 90 84 5 
64 6 72 35 2 48 44 17 
65 7 29 47 4 24 86 69 20 
66 7 98 128 13 122 117 77 82 
67 7 70 89 7 38 101 75 115 
68 5 28 18 115 6 94 
69 7 86 4 24 47 76 9 26 
70 6 38 89 67 7 75 101 
71 7 10 114 100 37 55 78 107 
72 6 64 35 48 2 44 17 
73 5 96 59 16 42 57 
74 5 119 121 49 15 43 
75 4 101 89 7 38 
76 7 9 86 69 51 60 47 4 
77 7 13 78 37 107 98 122 66 
78 7 37 107 10 71 31 77 100 
79 5 36 30 62 81 17 
80 4 113 19 92 105 
81 6 62 17 79 27 36 30 
82 7 123 118 23 128 117 66 104 
83 3 23 124 123 
84 7 54 3 5 63 106 25 33 
85 6 52 56 40 90 34 14 
86 7 69 47 4 24 76 65 29 
87 7 34 106 33 5 90 3 54 
88 4 16 61 21 42 
89 6 7 38 101 75 70 67 
90 7 34 106 87 52 5 63 85 
91 6 95 110 125 99 112 6 
92 4 105 97 111 22 
93 2 53 20 
94 5 112 99 6 95 91 
95 6 91 110 125 99 112 6 
96 6 57 73 42 45 16 59 
97 5 111 105 22 92 15 
98 7 66 13 122 128 77 117 55 
99 5 112 94 6 95 91 
100 7 55 114 71 122 10 37 78 
101 3 75 7 89 
102 2 14 41 
103 7 108 46 41 12 127 45 11 
104 5 118 124 122 23 55 
105 4 92 97 111 22 
106 7 5 87 34 33 3 90 54 
107 7 37 78 10 31 71 77 100 
108 6 103 46 12 127 41 45 
109 5 120 22 105 111 92 
110 6 125 95 91 99 6 112 
111 5 97 105 22 92 15 
112 5 99 94 6 95 91 
113 3 80 19 92 
114 6 100 55 71 10 37 122 
115 1 7 
116 3 40 56 14 
117 7 128 66 98 82 13 118 123 
118 7 23 123 82 104 124 128 83 
119 5 121 74 49 15 43 
120 5 109 22 105 111 97 
121 6 119 15 49 74 43 97 
122 7 55 100 98 13 66 71 114 
123 7 23 118 82 83 124 104 128 
124 5 23 104 118 83 123 
125 6 110 95 91 99 6 112 
126 7 22 49 15 111 11 97 121 
127 6 108 46 12 57 103 96 
128 7 66 98 117 82 13 122 118 
DEPOT_SECTION
   1
   -1
EOF
