NAME :  X-n270-kX-w26-c11.cctp
COMMENT : 	Adapted by Maziero, Usberti and Cavellucci from the Uchoa, Pecin, Pessoa, Poggi, Subramanian, and Vidal (2013)
TYPE :  CCTP
DIMENSION :    162
EDGE_WEIGHT_TYPE : 	EUC_2D	
CAPACITY : 	585
VERTICES_WITHIN_COVERAGE :  11
VERTICES_WITH_DEMAND : 	26
NODE_COORD_SECTION
1 500 500
2 643 512
3 707 407
4 394 355
5 140 470
6 364 215
7 493 857
8 117 466
9 462 38
10 551 479
11 742 498
12 533 706
13 788 425
14 799 6
15 836 680
16 88 225
17 164 988
18 537 20
19 612 395
20 314 942
21 342 974
22 518 758
23 860 774
24 313 36
25 275 23
26 324 971
27 822 588
28 272 458
29 868 427
30 953 419
31 236 823
32 887 411
33 193 899
34 687 303
35 447 220
36 716 472
37 415 141
38 738 309
39 445 672
40 524 60
41 112 157
42 859 935
43 104 596
44 556 54
45 362 223
46 474 338
47 274 568
48 315 380
49 93 859
50 381 302
51 695 239
52 880 823
53 335 961
54 37 637
55 288 169
56 455 499
57 599 796
58 155 910
59 80 459
60 93 565
61 959 544
62 762 531
63 737 409
64 854 328
65 921 781
66 221 23
67 202 804
68 422 992
69 66 976
70 487 429
71 535 319
72 336 35
73 51 503
74 334 968
75 488 437
76 474 906
77 866 911
78 940 542
79 106 988
80 558 398
81 500 17
82 710 588
83 181 909
84 107 556
85 516 409
86 345 879
87 447 182
88 825 545
89 840 689
90 129 532
91 89 305
92 434 407
93 348 132
94 390 473
95 598 286
96 464 891
97 671 336
98 136 633
99 445 889
100 318 2
101 387 142
102 480 339
103 884 826
104 207 24
105 557 694
106 768 584
107 818 715
108 933 659
109 500 706
110 73 147
111 862 849
112 504 643
113 539 728
114 931 588
115 850 28
116 891 612
117 628 448
118 277 45
119 588 720
120 803 710
121 712 63
122 804 68
123 536 318
124 189 17
125 548 667
126 838 835
127 890 749
128 551 695
129 535 665
130 734 66
131 717 545
132 224 25
133 550 683
134 264 122
135 234 56
136 868 936
137 790 705
138 576 674
139 412 701
140 883 597
141 233 64
142 813 611
143 868 603
144 555 673
145 600 452
146 850 547
147 63 175
148 789 598
149 753 615
150 803 64
151 835 42
152 591 543
153 576 872
154 530 707
155 787 650
156 194 350
157 857 704
158 487 672
159 511 732
160 872 794
161 143 149
162 302 59
DEMAND_SECTION
2 77
3 91
4 67
5 69
6 68
7 64
8 65
9 83
10 64
11 77
12 87
13 99
14 84
15 74
16 89
17 76
18 68
19 87
20 69
21 97
22 87
23 59
24 82
25 75
26 55
27 95
COVERAGE_SECTION
2 8 152 117 145 131 36 10 11 82 
3 11 63 36 97 13 117 19 11 38 34 145 2 
4 11 50 92 46 48 102 94 70 75 85 45 6 
5 11 8 59 90 84 73 60 43 156 28 98 47 
6 11 45 101 35 93 50 55 87 37 134 4 46 
7 10 96 76 99 153 22 57 159 113 86 109 
8 11 5 59 90 73 84 60 43 156 28 91 98 
9 11 81 40 18 44 37 72 101 87 93 100 24 
10 10 145 152 75 85 70 80 117 2 56 19 
11 10 36 62 131 13 63 106 88 82 3 2 
12 11 154 128 113 105 133 109 159 144 129 125 22 
13 11 63 29 3 11 36 32 62 64 38 88 146 
14 6 151 115 150 122 130 121 
15 7 89 157 107 120 137 155 142 
16 5 147 41 110 91 161 
17 11 79 58 83 33 69 49 20 26 74 53 21 
18 9 81 44 40 9 37 121 87 101 72 
19 11 80 117 145 97 3 85 10 71 123 95 34 
20 11 53 26 74 21 86 68 33 83 99 31 17 
21 11 74 53 26 20 68 86 99 76 96 33 83 
22 10 159 113 154 12 109 128 105 119 133 57 
23 9 160 127 52 103 65 126 157 107 111 
24 11 72 162 100 118 25 135 141 132 66 134 93 
25 11 118 24 162 100 132 135 66 141 72 104 124 
26 11 74 53 21 20 86 68 99 33 83 17 96 
27 11 142 148 88 143 146 106 140 155 116 149 62 
28 10 48 47 94 5 156 8 4 90 92 56 
29 10 32 13 30 64 146 88 63 78 11 61 
30 7 32 29 78 61 64 146 13 
31 10 67 33 83 58 86 20 49 53 26 74 
32 8 29 30 64 13 78 146 88 63 
33 10 83 58 31 17 67 49 79 20 26 69 
34 8 97 38 51 95 3 63 19 123 
35 11 87 6 37 45 101 50 46 102 71 93 123 
36 11 11 3 63 131 62 2 13 117 82 145 106 
37 11 101 87 93 35 6 45 9 55 72 40 162 
38 7 34 97 51 63 3 64 13 
39 8 158 139 109 112 159 129 154 12 
40 9 44 18 81 9 37 87 101 35 121 
41 4 161 110 147 16 
42 8 136 77 111 126 103 52 160 23 
43 9 60 84 98 90 54 73 5 8 59 
44 8 40 18 81 9 121 37 87 130 
45 11 6 50 35 101 55 93 87 37 4 134 46 
46 11 102 71 123 92 4 85 70 50 75 80 35 
47 9 28 90 94 98 5 84 43 60 8 
48 11 4 28 50 94 92 156 45 46 102 6 70 
49 8 58 83 33 69 67 79 17 31 
50 11 4 45 6 46 48 35 102 92 87 71 123 
51 5 34 38 97 95 3 
52 10 103 160 111 126 23 65 127 77 42 136 
53 11 74 21 26 20 86 68 99 96 76 33 83 
54 8 43 60 98 84 73 90 59 8 
55 10 134 93 6 45 101 162 141 118 135 37 
56 6 75 94 70 92 10 85 
57 4 119 153 22 113 
58 8 83 33 17 49 79 69 67 31 
59 11 8 73 5 90 84 60 43 91 156 54 98 
60 9 84 43 90 73 98 54 8 5 59 
61 10 78 114 140 116 143 146 108 30 88 27 
62 10 11 131 106 88 148 36 82 27 149 146 
63 11 3 13 36 11 97 38 117 34 62 19 29 
64 5 32 29 13 38 30 
65 11 127 160 103 52 23 111 126 157 107 89 108 
66 9 132 104 124 135 141 25 118 162 24 
67 7 31 33 83 58 49 86 20 
68 11 21 74 53 26 76 99 96 20 86 7 153 
69 8 79 17 58 49 83 33 67 31 
70 11 75 85 92 56 80 10 102 46 94 145 4 
71 11 123 102 46 95 80 85 19 70 75 35 92 
72 11 24 100 162 118 25 93 135 141 132 134 66 
73 9 59 60 8 84 90 5 43 54 98 
74 11 53 21 26 20 86 68 99 96 76 33 83 
75 11 70 85 92 56 10 80 102 46 94 145 4 
76 11 96 99 7 68 153 86 21 53 74 22 26 
77 9 42 136 111 126 103 52 160 23 65 
78 11 61 114 140 116 146 143 88 108 30 27 29 
79 8 69 17 58 83 33 49 67 31 
80 11 85 19 145 70 75 10 71 123 117 102 46 
81 10 18 9 40 44 37 72 101 87 100 24 
82 6 131 149 106 62 148 11 
83 10 33 58 17 49 31 67 79 69 20 26 
84 9 60 90 43 73 98 8 5 59 54 
85 11 70 75 80 10 102 46 92 71 123 145 19 
86 11 20 53 74 26 21 99 96 31 76 68 7 
87 11 35 37 101 6 45 93 50 40 9 46 55 
88 11 146 27 148 62 142 106 143 140 116 11 149 
89 7 15 157 107 120 137 155 127 
90 10 84 60 5 8 43 73 59 98 54 47 
91 9 16 156 147 41 59 110 8 161 5 
92 11 70 75 4 94 46 85 102 56 50 48 80 
93 11 101 37 55 6 134 162 45 72 24 87 118 
94 8 56 92 75 70 4 28 48 85 
95 9 123 71 97 34 51 19 80 102 46 
96 11 76 99 7 68 153 86 22 53 21 74 20 
97 10 34 38 3 19 95 63 51 117 80 123 
98 9 43 60 84 54 90 47 73 5 8 
99 11 96 76 7 86 68 53 153 21 74 20 26 
100 11 24 72 25 118 162 132 66 135 141 104 124 
101 11 37 93 87 6 45 35 55 72 162 134 9 
102 11 46 71 123 85 92 4 70 75 80 50 35 
103 10 52 111 160 126 23 65 127 77 136 42 
104 7 66 132 124 135 141 25 118 
105 10 128 133 144 12 125 138 154 129 113 119 
106 9 148 149 142 62 27 82 131 88 155 
107 5 120 137 89 15 157 
108 10 116 114 140 143 157 89 15 127 78 61 
109 11 159 154 12 158 113 128 129 22 133 105 125 
110 4 147 41 161 16 
111 10 126 52 103 160 77 23 42 136 65 127 
112 8 158 129 125 144 133 109 39 12 
113 10 12 154 159 128 22 105 109 133 119 144 
114 10 78 116 140 61 143 108 146 27 88 142 
115 4 151 14 150 122 
116 11 140 143 114 108 27 146 142 78 15 89 88 
117 11 145 19 2 10 80 3 36 152 63 85 97 
118 11 25 162 24 135 141 132 100 66 72 104 134 
119 8 105 128 138 113 133 12 144 154 
120 5 137 107 89 15 157 
121 6 130 150 122 14 151 115 
122 6 150 151 115 14 130 121 
123 11 71 102 46 95 80 85 19 70 75 35 92 
124 7 104 66 132 135 141 25 118 
125 9 144 129 133 105 128 138 12 154 112 
126 8 111 52 103 160 23 77 65 127 
127 10 23 65 160 157 52 103 89 107 15 120 
128 11 105 133 12 144 154 125 138 129 113 119 109 
129 10 125 144 133 128 105 112 12 138 154 158 
130 6 121 150 122 14 151 115 
131 9 82 62 11 106 36 149 2 148 88 
132 9 66 104 135 124 141 25 118 162 24 
133 10 144 128 105 125 129 138 12 154 113 119 
134 10 55 141 135 162 118 93 24 25 132 66 
135 10 141 132 66 104 118 25 124 162 134 24 
136 9 42 77 111 126 103 52 160 23 65 
137 4 120 107 15 89 
138 8 144 105 133 125 128 129 119 12 
139 8 39 158 109 159 112 154 22 12 
140 11 143 116 114 146 27 142 88 78 108 61 148 
141 10 135 132 66 104 118 25 124 134 162 24 
142 11 27 148 155 106 143 149 88 140 15 146 116 
143 11 140 116 27 142 146 114 88 148 15 108 89 
144 9 125 133 105 138 128 129 12 154 113 
145 11 117 10 19 80 2 152 85 75 70 3 36 
146 11 88 27 143 140 142 116 148 62 78 106 114 
147 4 110 41 16 161 
148 10 106 142 27 149 155 88 62 143 82 146 
149 6 106 148 155 82 142 27 
150 6 122 151 14 115 130 121 
151 4 115 150 122 14 
152 4 2 10 145 117 
153 5 57 7 76 96 22 
154 11 12 113 128 105 109 133 159 129 144 125 22 
155 7 142 149 148 137 15 120 89 
156 10 91 48 5 28 8 59 16 50 90 4 
157 8 89 15 107 120 127 137 23 108 
158 8 112 109 39 129 154 12 125 133 
159 11 22 109 113 154 12 128 105 133 158 129 144 
160 9 23 52 103 127 65 126 111 157 107 
161 4 41 110 147 16 
162 11 24 118 72 25 100 135 141 134 132 93 66 
DEPOT_SECTION
   1
   -1
EOF
