NAME :  X-n251-kX-w50-c11.cctp
COMMENT : 	Adapted by Maziero, Usberti and Cavellucci from the Uchoa, Pecin, Pessoa, Poggi, Subramanian, and Vidal (2013)
TYPE :  CCTP
DIMENSION :    204
EDGE_WEIGHT_TYPE : 	EUC_2D	
CAPACITY : 	69
VERTICES_WITHIN_COVERAGE :  11
VERTICES_WITH_DEMAND : 	50
NODE_COORD_SECTION
1 112 700
2 363 779
3 245 896
4 238 19
5 184 351
6 305 763
7 366 814
8 137 857
9 564 31
10 303 157
11 523 830
12 134 231
13 851 445
14 740 311
15 163 95
16 275 499
17 470 814
18 453 217
19 818 525
20 311 911
21 177 374
22 230 4
23 590 302
24 196 103
25 553 879
26 316 446
27 665 375
28 587 609
29 510 95
30 907 455
31 805 956
32 342 345
33 785 309
34 649 584
35 850 24
36 26 126
37 447 817
38 145 527
39 218 825
40 405 151
41 389 436
42 452 619
43 407 367
44 948 514
45 836 996
46 578 334
47 491 929
48 325 696
49 838 842
50 983 788
51 623 549
52 915 72
53 774 336
54 81 238
55 534 537
56 295 406
57 853 358
58 742 581
59 32 964
60 747 352
61 610 799
62 786 853
63 755 957
64 485 734
65 419 256
66 941 589
67 68 42
68 817 595
69 397 274
70 727 302
71 216 237
72 821 320
73 516 531
74 561 920
75 128 834
76 162 534
77 279 644
78 188 329
79 520 301
80 336 782
81 728 230
82 139 848
83 350 154
84 242 162
85 791 925
86 907 497
87 52 593
88 786 457
89 629 745
90 935 439
91 641 78
92 78 835
93 232 226
94 123 479
95 205 840
96 932 357
97 917 917
98 325 559
99 413 373
100 362 477
101 827 881
102 845 263
103 11 938
104 88 535
105 436 200
106 940 319
107 325 59
108 34 264
109 47 470
110 322 89
111 757 29
112 825 289
113 287 304
114 288 406
115 287 623
116 616 828
117 60 445
118 978 511
119 956 171
120 818 184
121 605 464
122 462 934
123 599 895
124 364 90
125 304 854
126 753 926
127 544 127
128 343 127
129 422 270
130 472 104
131 453 844
132 526 137
133 230 995
134 675 278
135 495 428
136 535 57
137 507 67
138 654 332
139 526 932
140 473 898
141 618 85
142 433 373
143 409 207
144 470 925
145 534 887
146 770 74
147 546 47
148 597 299
149 630 398
150 433 936
151 538 29
152 524 66
153 326 841
154 533 86
155 503 136
156 557 307
157 350 13
158 720 957
159 515 103
160 496 204
161 482 329
162 338 918
163 427 792
164 441 297
165 764 238
166 488 66
167 596 931
168 578 922
169 361 962
170 539 869
171 460 149
172 468 807
173 537 7
174 697 29
175 440 120
176 400 190
177 469 264
178 425 950
179 572 82
180 451 908
181 440 203
182 628 934
183 528 30
184 635 25
185 490 104
186 528 2
187 434 938
188 482 957
189 457 847
190 183 354
191 444 930
192 814 278
193 359 893
194 598 325
195 552 367
196 665 287
197 549 277
198 474 937
199 499 922
200 522 337
201 442 130
202 559 398
203 515 935
204 605 773
DEMAND_SECTION
2 5
3 7
4 5
5 8
6 7
7 8
8 7
9 9
10 7
11 6
12 7
13 8
14 6
15 9
16 8
17 8
18 9
19 6
20 8
21 5
22 6
23 7
24 7
25 6
26 9
27 6
28 7
29 10
30 9
31 5
32 10
33 10
34 9
35 5
36 7
37 6
38 9
39 8
40 9
41 6
42 5
43 8
44 6
45 5
46 5
47 5
48 7
49 5
50 7
51 7
COVERAGE_SECTION
2 11 80 7 6 163 153 48 37 125 172 131 17 
3 11 20 95 125 39 162 153 133 193 8 82 75 
4 11 22 24 107 15 110 157 84 124 128 10 67 
5 11 190 78 21 113 71 114 56 12 93 94 54 
6 11 80 2 48 7 153 125 39 77 163 95 115 
7 11 2 80 153 163 125 193 6 37 131 189 172 
8 11 82 75 92 95 39 3 59 103 133 125 20 
9 8 147 151 173 183 136 186 179 152 
10 11 83 128 84 110 124 93 107 40 176 143 71 
11 11 170 17 25 145 172 189 131 37 140 61 116 
12 11 54 71 93 108 78 84 5 190 15 24 21 
13 11 30 88 86 90 19 57 44 96 72 53 60 
14 11 70 53 60 33 134 165 196 72 192 81 112 
15 11 24 84 4 67 22 12 36 93 71 10 110 
16 11 26 98 100 114 56 76 115 41 38 77 94 
17 11 172 37 131 189 163 11 64 140 170 180 145 
18 8 181 105 143 160 177 65 176 129 
19 11 68 88 13 86 58 30 44 66 90 118 57 
20 10 162 193 125 3 169 153 7 133 178 150 
21 11 190 5 78 114 94 56 113 117 71 12 38 
22 11 4 24 107 15 157 110 84 124 67 128 10 
23 10 148 194 156 46 197 79 138 195 196 200 
24 11 15 84 4 22 10 110 93 71 107 12 67 
25 11 170 145 74 123 168 11 139 167 203 199 47 
26 11 56 114 100 16 41 32 98 43 99 142 113 
27 11 149 138 194 60 196 46 70 134 14 148 23 
28 11 34 51 55 73 42 89 121 58 64 204 61 
29 10 159 185 154 137 152 166 130 155 132 136 
30 11 90 86 13 44 118 96 57 19 88 66 106 
31 11 85 63 45 126 101 158 62 49 97 182 167 
32 11 43 113 99 56 114 69 142 41 26 129 164 
33 11 53 72 192 14 112 60 70 165 102 57 81 
34 11 51 28 58 55 121 73 89 68 19 88 149 
35 8 52 111 146 174 120 119 184 91 
36 11 67 54 108 15 12 24 84 71 93 4 22 
37 10 17 172 131 163 189 11 7 140 64 180 
38 11 76 94 104 109 87 117 16 21 115 190 77 
39 11 95 3 82 8 75 125 6 153 80 20 92 
40 11 176 201 175 83 171 143 105 181 128 124 18 
41 11 100 99 43 26 142 56 32 114 135 16 98 
42 11 73 55 64 28 98 48 115 100 77 163 2 
43 10 99 142 32 41 164 161 69 129 135 65 
44 11 118 86 30 66 90 13 19 68 96 88 57 
45 11 31 85 63 126 97 101 158 62 49 182 167 
46 11 194 23 156 148 195 200 197 79 202 138 149 
47 11 199 198 144 203 122 188 139 140 180 191 150 
48 11 77 6 115 80 2 7 98 163 153 42 125 
49 11 101 62 85 97 31 126 63 45 50 158 116 
50 11 97 49 101 66 62 85 31 45 68 126 44 
51 11 34 28 121 55 73 58 149 202 135 27 42 
52 10 35 119 146 120 111 102 174 165 192 112 
53 11 33 60 14 72 70 112 192 57 165 102 134 
54 11 12 108 36 71 78 93 5 190 15 21 24 
55 11 73 28 51 121 42 135 34 202 149 195 41 
56 11 114 26 32 16 100 41 113 43 21 99 190 
57 11 72 112 96 53 33 13 192 102 106 60 30 
58 11 68 34 19 51 88 28 13 121 86 66 89 
59 11 103 92 8 82 75 133 95 3 39 20 125 
60 11 53 14 70 33 72 27 138 112 192 134 196 
61 11 204 116 89 11 123 25 170 145 168 74 167 
62 11 101 49 85 126 31 63 158 97 45 116 182 
63 11 126 158 85 31 45 101 62 182 49 167 97 
64 11 172 17 163 37 11 131 189 42 204 2 61 
65 9 129 69 164 143 177 18 181 105 176 
66 11 44 118 86 68 30 19 90 13 58 50 88 
67 11 36 15 24 22 4 54 12 84 108 71 93 
68 11 19 58 66 86 88 13 44 30 34 118 90 
69 10 129 65 164 143 177 18 181 105 176 32 
70 11 14 60 134 33 53 196 81 165 138 192 27 
71 11 93 84 12 78 113 5 10 190 24 54 21 
72 11 112 33 192 53 57 102 14 60 70 165 96 
73 11 55 28 135 42 51 121 202 34 41 100 195 
74 11 168 139 167 25 145 123 203 170 199 182 47 
75 11 82 8 92 95 39 3 103 59 125 6 133 
76 11 38 94 104 16 87 109 117 115 21 77 98 
77 11 115 48 98 6 16 80 2 76 42 38 100 
78 11 5 190 21 71 113 12 93 114 56 54 32 
79 7 200 156 197 161 177 46 23 
80 11 2 6 7 153 125 48 163 193 37 39 20 
81 10 165 70 134 14 196 33 192 120 112 53 
82 11 8 75 92 95 39 3 103 59 125 133 20 
83 11 128 10 40 176 124 110 143 201 175 105 107 
84 11 10 93 24 71 15 128 83 110 12 107 124 
85 11 31 126 63 101 62 158 45 49 97 182 123 
86 11 30 44 90 118 13 19 66 88 68 96 57 
87 11 104 38 109 76 94 117 77 115 16 92 21 
88 11 13 19 60 57 30 53 86 58 68 72 27 
89 11 204 61 116 11 28 64 123 170 25 34 145 
90 11 30 86 44 96 13 118 57 106 19 66 88 
91 5 141 184 179 174 9 
92 11 75 82 8 103 95 59 39 3 133 125 6 
93 11 71 84 113 12 10 78 24 5 190 83 15 
94 11 38 104 76 117 109 21 87 190 5 16 78 
95 11 39 82 3 8 75 125 153 6 92 20 80 
96 11 106 57 90 30 72 13 112 102 86 192 33 
97 11 101 49 45 31 85 50 62 126 63 158 182 
98 11 115 16 100 77 26 48 41 42 56 114 76 
99 10 43 142 41 32 164 161 135 69 129 200 
100 11 41 26 16 98 56 114 99 43 142 32 135 
101 11 49 62 85 31 126 97 63 45 158 50 182 
102 11 112 192 72 33 120 165 57 53 106 14 81 
103 11 59 92 8 82 75 95 133 39 3 20 125 
104 11 38 94 87 76 109 117 21 16 190 5 115 
105 10 181 18 143 176 171 40 65 160 201 129 
106 11 96 57 102 72 112 90 192 30 119 13 33 
107 9 110 124 157 128 4 83 10 22 40 
108 11 54 12 36 78 5 190 21 117 71 93 109 
109 11 117 94 104 38 87 76 21 190 5 78 108 
110 10 107 124 128 10 83 157 40 84 4 175 
111 7 146 174 35 184 91 141 52 
112 11 192 72 102 33 53 57 165 14 70 60 120 
113 11 32 93 71 56 78 114 5 69 190 21 43 
114 11 56 26 32 16 113 100 41 21 190 5 43 
115 11 77 98 48 16 6 76 100 42 80 38 2 
116 11 61 204 123 25 89 170 11 145 168 167 74 
117 11 109 94 104 38 76 21 87 190 5 78 108 
118 11 44 86 90 66 30 13 19 96 68 106 57 
119 11 52 120 102 106 112 192 35 96 72 165 146 
120 9 165 102 192 81 112 146 33 72 119 
121 11 149 202 51 55 27 73 195 135 34 46 194 
122 11 144 198 191 180 187 47 150 188 140 199 178 
123 11 168 167 74 25 182 145 170 116 139 203 61 
124 9 110 128 107 83 40 157 175 201 10 
125 11 153 20 193 3 162 7 80 6 39 2 95 
126 11 63 85 158 31 62 101 45 49 182 123 167 
127 5 132 159 154 155 29 
128 10 83 110 124 10 40 107 176 175 201 143 
129 9 65 69 164 177 18 143 181 105 176 
130 9 185 175 29 201 166 159 155 171 137 
131 10 189 37 17 172 140 163 180 11 144 191 
132 4 127 155 159 29 
133 11 3 20 162 169 95 125 193 8 39 82 153 
134 11 196 70 138 81 14 148 23 194 27 165 60 
135 11 202 142 195 200 99 161 73 41 43 55 121 
136 7 152 147 151 183 154 137 9 
137 6 152 166 29 136 154 159 
138 11 27 196 194 134 148 149 23 46 70 14 60 
139 11 203 199 47 74 145 188 198 168 144 25 140 
140 10 180 144 199 47 122 198 191 189 150 187 
141 4 91 179 184 9 
142 10 99 43 161 164 41 135 32 200 129 69 
143 11 176 105 181 18 65 40 129 69 171 83 177 
144 11 122 198 47 180 191 140 199 188 187 150 203 
145 11 170 25 74 139 199 203 168 11 47 140 123 
146 7 111 174 35 120 91 184 52 
147 9 136 151 9 183 152 154 173 137 179 
148 8 23 194 46 156 197 138 196 79 
149 11 27 138 121 202 194 46 195 23 148 196 156 
150 10 187 191 178 122 180 144 198 188 140 47 
151 7 183 147 173 9 136 186 152 
152 7 136 137 154 147 29 166 183 
153 11 125 7 80 193 2 20 162 6 3 39 163 
154 9 152 29 159 136 137 179 147 127 185 
155 7 132 159 185 29 127 130 171 
156 8 197 23 46 79 148 194 200 195 
157 6 107 124 110 4 128 22 
158 11 63 126 85 31 182 45 62 167 101 123 168 
159 9 29 154 185 155 132 137 127 152 130 
160 1 18 
161 9 200 79 164 142 177 156 195 99 43 
162 10 20 193 169 125 153 178 3 150 187 191 
163 10 37 172 17 131 189 2 7 64 80 11 
164 9 129 177 65 69 161 142 43 79 18 
165 11 81 192 33 70 120 14 112 102 134 53 72 
166 4 137 29 152 185 
167 11 168 182 123 74 25 139 145 203 170 199 47 
168 11 74 167 123 25 182 139 145 203 170 199 47 
169 10 162 178 193 20 150 187 191 122 180 144 
170 11 25 145 11 74 139 123 168 199 203 140 47 
171 7 201 175 155 130 185 40 105 
172 11 17 37 131 189 163 11 64 140 170 7 180 
173 6 186 151 183 9 147 136 
174 6 111 184 91 146 141 9 
175 7 201 171 130 40 185 155 166 
176 11 143 105 40 181 18 83 65 171 201 175 129 
177 7 164 129 18 65 79 160 161 
178 10 187 150 191 122 180 144 198 188 169 47 
179 7 154 147 136 141 152 9 127 
180 10 191 140 144 122 150 187 198 47 178 199 
181 10 105 18 143 176 160 65 171 40 177 129 
182 11 167 123 168 74 25 158 139 145 116 170 203 
183 6 151 147 173 136 186 9 
184 7 91 141 174 9 179 147 151 
185 10 130 29 159 155 166 137 154 132 152 175 
186 5 173 183 151 9 147 
187 10 150 191 178 122 180 144 198 188 140 47 
188 11 198 47 122 144 199 203 191 139 187 150 178 
189 10 131 37 17 172 140 180 163 11 144 191 
190 11 5 21 78 113 114 71 56 12 93 94 117 
191 10 150 187 122 180 144 178 198 140 47 188 
192 11 112 102 33 72 165 53 14 57 70 120 81 
193 10 162 20 153 125 169 7 150 178 187 180 
194 11 46 23 148 156 138 195 197 196 200 149 79 
195 11 202 46 200 156 194 79 23 161 148 135 149 
196 10 134 138 70 148 23 194 14 81 27 46 
197 4 156 79 23 148 
198 11 122 144 47 188 199 191 180 140 187 150 203 
199 11 47 203 139 144 198 140 122 188 145 180 191 
200 9 79 161 195 156 46 197 202 23 194 
201 7 175 171 130 40 185 155 105 
202 11 195 46 135 149 200 121 194 156 23 161 79 
203 11 139 199 47 188 198 144 74 145 122 140 168 
204 11 61 89 116 11 170 25 123 64 145 17 172 
DEPOT_SECTION
   1
   -1
EOF
