NAME :  X-n247-kX-w24-c7.cctp
COMMENT : 	Adapted by Maziero, Usberti and Cavellucci from the Uchoa, Pecin, Pessoa, Poggi, Subramanian, and Vidal (2013)
TYPE :  CCTP
DIMENSION :    154
EDGE_WEIGHT_TYPE : 	EUC_2D	
CAPACITY : 	134
VERTICES_WITHIN_COVERAGE :  7
VERTICES_WITH_DEMAND : 	24
NODE_COORD_SECTION
1 500 500
2 612 199
3 864 279
4 746 395
5 738 519
6 797 59
7 867 206
8 846 399
9 654 172
10 874 275
11 675 479
12 780 372
13 692 446
14 541 183
15 747 432
16 845 403
17 787 317
18 472 325
19 682 246
20 779 308
21 815 316
22 690 306
23 923 403
24 643 526
25 849 293
26 766 443
27 833 421
28 949 458
29 675 431
30 930 480
31 677 173
32 479 247
33 849 285
34 794 366
35 878 230
36 564 141
37 845 320
38 700 404
39 925 215
40 418 269
41 766 533
42 671 522
43 725 496
44 863 250
45 663 460
46 848 251
47 689 490
48 745 448
49 776 427
50 783 292
51 680 173
52 895 273
53 886 125
54 930 364
55 584 185
56 440 130
57 684 326
58 737 309
59 554 164
60 859 254
61 981 334
62 717 258
63 686 463
64 733 431
65 586 486
66 523 196
67 712 541
68 759 432
69 658 583
70 860 312
71 762 359
72 498 208
73 842 221
74 895 461
75 870 277
76 644 438
77 556 305
78 747 522
79 646 445
80 867 380
81 663 507
82 791 379
83 650 277
84 897 279
85 758 306
86 641 183
87 904 291
88 825 374
89 405 305
90 758 442
91 750 530
92 567 564
93 890 268
94 833 289
95 845 276
96 809 347
97 818 88
98 678 259
99 853 219
100 493 509
101 581 187
102 789 397
103 537 240
104 714 339
105 777 371
106 499 301
107 835 370
108 598 221
109 857 214
110 463 400
111 844 400
112 860 267
113 662 184
114 638 185
115 781 293
116 866 305
117 786 343
118 715 530
119 753 534
120 934 403
121 590 211
122 646 141
123 719 302
124 597 150
125 761 360
126 761 367
127 813 282
128 870 167
129 713 265
130 713 242
131 855 296
132 535 169
133 900 254
134 872 218
135 680 535
136 687 498
137 764 452
138 500 143
139 720 452
140 855 297
141 755 492
142 748 411
143 651 282
144 839 364
145 839 66
146 846 29
147 604 597
148 762 520
149 896 131
150 586 465
151 582 216
152 681 187
153 725 408
154 792 337
DEMAND_SECTION
2 99
3 72
4 87
5 77
6 78
7 76
8 74
9 78
10 92
11 96
12 75
13 96
14 72
15 99
16 63
17 93
18 64
19 68
20 82
21 53
22 91
23 74
24 67
25 65
COVERAGE_SECTION
2 7 121 108 114 55 86 101 151 
3 7 75 10 112 33 95 131 140 
4 7 142 153 126 15 64 125 68 
5 7 78 91 119 148 118 43 41 
6 3 97 145 146 
7 7 109 134 99 35 73 128 44 
8 6 111 16 27 80 107 88 
9 7 113 86 114 31 51 152 122 
10 7 75 3 112 93 52 84 60 
11 7 47 63 45 136 81 13 42 
12 7 105 82 34 126 71 125 102 
13 7 63 29 139 45 11 38 47 
14 6 132 66 59 101 55 36 
15 7 68 64 90 48 142 26 137 
16 6 111 8 27 80 107 88 
17 7 20 154 50 115 117 21 85 
18 6 106 89 110 32 40 77 
19 7 98 130 129 62 83 143 152 
20 7 17 115 50 85 154 117 21 
21 7 17 37 154 94 96 127 20 
22 7 57 123 104 143 58 129 83 
23 5 120 54 28 80 74 
24 7 42 81 135 136 11 47 69 
25 7 131 140 33 94 95 3 116 
26 6 90 137 68 49 15 48 
27 4 16 111 8 88 
28 5 30 74 120 23 54 
29 6 13 45 76 79 63 38 
30 4 28 74 23 120 
31 4 51 152 113 9 
32 6 72 103 106 40 66 18 
33 7 25 95 131 140 3 94 112 
34 7 82 12 105 96 117 154 102 
35 7 134 44 7 109 99 60 133 
36 6 59 124 132 14 55 101 
37 5 70 140 116 131 25 
38 5 153 29 13 64 4 
39 4 133 35 134 7 
40 6 89 32 18 106 72 103 
41 5 119 148 91 78 5 
42 7 135 81 24 136 47 11 67 
43 7 5 141 78 118 47 136 91 
44 6 60 46 112 35 10 75 
45 7 11 63 79 76 29 13 47 
46 6 60 44 112 95 73 3 
47 7 136 11 63 81 43 42 45 
48 7 90 15 137 64 68 26 139 
49 5 68 26 90 137 15 
50 5 115 20 17 85 127 
51 4 31 152 113 9 
52 7 84 93 87 133 10 75 3 
53 5 149 128 145 97 7 
54 4 120 23 61 80 
55 6 101 121 2 151 59 124 
56 5 138 72 132 66 14 
57 4 22 104 123 143 
58 6 123 85 104 20 22 115 
59 7 132 14 36 101 55 66 124 
60 6 44 46 112 3 75 10 
61 4 54 120 87 23 
62 5 129 130 19 98 123 
63 7 13 11 45 47 29 136 139 
64 7 15 48 153 139 142 68 90 
65 6 150 24 79 76 81 92 
66 6 14 72 132 59 103 138 
67 5 118 135 5 78 91 
68 7 90 15 26 49 48 137 142 
69 4 135 147 24 42 
70 5 116 140 37 131 25 
71 5 125 126 105 12 117 
72 6 66 32 14 103 132 138 
73 5 99 109 7 134 46 
74 5 30 28 23 120 27 
75 7 10 3 112 33 93 131 52 
76 5 79 45 29 13 63 
77 3 106 103 18 
78 6 5 91 119 148 41 141 
79 5 76 45 29 63 11 
80 4 8 111 16 144 
81 7 42 136 24 11 47 135 45 
82 7 12 34 105 102 126 88 71 
83 7 143 98 19 22 57 129 62 
84 7 52 93 87 10 133 75 3 
85 6 20 58 115 50 17 123 
86 7 114 9 113 2 31 51 152 
87 6 84 52 93 10 75 133 
88 6 107 144 96 34 111 8 
89 6 40 18 32 106 110 72 
90 7 26 68 137 48 15 49 64 
91 5 119 78 5 41 148 
92 6 147 65 24 100 69 150 
93 7 52 84 10 133 75 87 3 
94 7 25 33 95 127 131 140 21 
95 7 33 25 112 94 3 131 140 
96 7 154 117 34 88 21 144 107 
97 5 145 6 146 53 149 
98 7 19 83 143 129 62 130 22 
99 6 109 73 7 134 35 46 
100 6 92 65 150 110 147 24 
101 6 55 121 151 2 59 108 
102 5 82 12 105 34 49 
103 4 66 72 151 14 
104 4 57 123 58 22 
105 6 12 82 126 34 71 125 
106 4 18 77 32 103 
107 5 144 88 8 111 16 
108 5 121 151 2 101 55 
109 6 99 7 134 73 35 44 
110 6 18 106 89 100 77 40 
111 6 8 16 27 80 107 88 
112 7 3 60 75 10 44 95 46 
113 6 9 31 152 51 86 114 
114 7 86 9 113 2 31 152 51 
115 5 50 20 17 85 127 
116 5 70 131 140 25 3 
117 6 154 96 34 17 71 105 
118 6 67 5 78 43 91 135 
119 5 91 41 78 148 5 
120 5 23 54 28 74 80 
121 5 151 108 2 101 55 
122 3 9 86 31 
123 7 58 22 104 129 85 57 62 
124 7 36 55 101 59 122 2 114 
125 5 71 126 105 12 117 
126 5 125 71 105 12 4 
127 4 94 50 95 21 
128 6 7 149 53 109 134 99 
129 6 62 130 19 98 123 22 
130 5 62 129 19 98 123 
131 7 140 25 33 116 70 3 95 
132 7 14 59 66 36 138 101 55 
133 4 93 52 84 10 
134 7 7 35 109 99 73 44 60 
135 7 42 67 81 118 24 136 47 
136 7 47 11 81 42 63 43 135 
137 6 26 90 48 68 15 49 
138 7 132 14 59 66 56 36 72 
139 7 48 64 13 15 63 90 43 
140 7 131 25 33 116 70 3 94 
141 7 148 43 78 5 91 137 41 
142 7 4 15 153 68 64 49 90 
143 7 83 98 22 19 57 129 62 
144 5 107 88 80 96 8 
145 5 97 146 6 53 149 
146 5 145 6 97 53 149 
147 4 92 69 24 135 
148 6 41 78 91 119 5 141 
149 4 53 128 7 145 
150 5 65 79 76 45 24 
151 5 121 108 101 55 2 
152 4 51 31 113 9 
153 7 142 64 4 38 15 68 139 
154 6 117 96 17 34 21 20 
DEPOT_SECTION
   1
   -1
EOF
