NAME :  X-n251-kX-w100-c11.cctp
COMMENT : 	Adapted by Maziero, Usberti and Cavellucci from the Uchoa, Pecin, Pessoa, Poggi, Subramanian, and Vidal (2013)
TYPE :  CCTP
DIMENSION :    225
EDGE_WEIGHT_TYPE : 	EUC_2D	
CAPACITY : 	69
VERTICES_WITHIN_COVERAGE :  11
VERTICES_WITH_DEMAND : 	100
NODE_COORD_SECTION
1 112 700
2 363 779
3 245 896
4 238 19
5 184 351
6 305 763
7 366 814
8 137 857
9 564 31
10 303 157
11 523 830
12 134 231
13 851 445
14 740 311
15 163 95
16 275 499
17 470 814
18 453 217
19 818 525
20 311 911
21 177 374
22 230 4
23 590 302
24 196 103
25 553 879
26 316 446
27 665 375
28 587 609
29 510 95
30 907 455
31 805 956
32 342 345
33 785 309
34 649 584
35 850 24
36 26 126
37 447 817
38 145 527
39 218 825
40 405 151
41 389 436
42 452 619
43 407 367
44 948 514
45 836 996
46 578 334
47 491 929
48 325 696
49 838 842
50 983 788
51 623 549
52 915 72
53 774 336
54 81 238
55 534 537
56 295 406
57 853 358
58 742 581
59 32 964
60 747 352
61 610 799
62 786 853
63 506 168
64 755 957
65 408 67
66 485 734
67 419 256
68 508 155
69 941 589
70 68 42
71 817 595
72 397 274
73 727 302
74 216 237
75 821 320
76 516 531
77 614 163
78 561 920
79 128 834
80 162 534
81 279 644
82 188 329
83 520 301
84 336 782
85 728 230
86 139 848
87 350 154
88 242 162
89 791 925
90 907 497
91 52 593
92 786 457
93 629 745
94 935 439
95 641 78
96 78 835
97 232 226
98 123 479
99 205 840
100 932 357
101 917 917
102 325 559
103 413 373
104 362 477
105 827 881
106 845 263
107 11 938
108 88 535
109 436 200
110 940 319
111 325 59
112 34 264
113 47 470
114 322 89
115 757 29
116 825 289
117 287 304
118 657 82
119 288 406
120 287 623
121 616 828
122 60 445
123 978 511
124 956 171
125 818 184
126 605 464
127 462 934
128 599 895
129 364 90
130 304 854
131 753 926
132 544 127
133 343 127
134 422 270
135 472 104
136 453 844
137 526 137
138 230 995
139 675 278
140 495 428
141 535 57
142 684 158
143 446 37
144 507 67
145 654 332
146 526 932
147 479 288
148 708 108
149 588 159
150 473 898
151 618 85
152 433 373
153 409 207
154 470 925
155 534 887
156 770 74
157 546 47
158 612 177
159 597 299
160 630 398
161 433 936
162 538 29
163 524 66
164 326 841
165 533 86
166 503 136
167 557 307
168 350 13
169 720 957
170 515 103
171 496 204
172 482 329
173 338 918
174 427 792
175 441 297
176 764 238
177 504 147
178 488 66
179 509 204
180 596 931
181 578 922
182 496 161
183 361 962
184 539 869
185 460 149
186 468 807
187 448 49
188 609 100
189 537 7
190 697 29
191 440 120
192 400 190
193 469 264
194 425 950
195 572 82
196 451 908
197 440 203
198 628 934
199 632 84
200 528 30
201 508 184
202 635 25
203 490 104
204 528 2
205 434 938
206 482 957
207 457 847
208 495 287
209 183 354
210 444 930
211 814 278
212 359 893
213 598 325
214 552 367
215 665 287
216 549 277
217 474 937
218 499 922
219 522 337
220 442 130
221 559 398
222 564 162
223 524 193
224 515 935
225 605 773
DEMAND_SECTION
2 5
3 7
4 5
5 8
6 7
7 8
8 7
9 9
10 7
11 6
12 7
13 8
14 6
15 9
16 8
17 8
18 9
19 6
20 8
21 5
22 6
23 7
24 7
25 6
26 9
27 6
28 7
29 10
30 9
31 5
32 10
33 10
34 9
35 5
36 7
37 6
38 9
39 8
40 9
41 6
42 5
43 8
44 6
45 5
46 5
47 5
48 7
49 5
50 7
51 7
52 8
53 9
54 10
55 5
56 10
57 10
58 9
59 8
60 9
61 7
62 10
63 10
64 6
65 9
66 8
67 9
68 7
69 5
70 8
71 10
72 9
73 7
74 8
75 9
76 5
77 10
78 8
79 9
80 9
81 8
82 9
83 8
84 10
85 5
86 10
87 6
88 10
89 7
90 8
91 5
92 7
93 7
94 5
95 5
96 7
97 5
98 9
99 6
100 10
101 5
COVERAGE_SECTION
2 11 84 7 6 174 164 48 37 130 186 136 17 
3 11 20 99 130 39 173 164 138 212 8 86 79 
4 11 22 24 111 15 114 168 88 129 133 10 70 
5 11 209 82 21 117 74 119 56 12 97 98 54 
6 11 84 2 48 7 164 130 39 81 174 99 120 
7 11 2 84 164 174 130 212 6 37 136 207 186 
8 11 86 79 96 99 39 3 59 107 138 130 20 
9 8 157 162 189 200 141 204 195 163 
10 11 87 133 88 114 129 97 111 40 192 153 74 
11 11 184 17 25 155 186 207 136 37 150 61 121 
12 11 54 74 97 112 82 88 5 209 15 24 21 
13 11 30 92 90 94 19 57 44 100 75 53 60 
14 11 73 53 60 33 139 176 215 75 211 85 116 
15 11 24 88 4 70 22 12 36 97 74 10 114 
16 11 26 102 104 119 56 80 120 41 38 81 98 
17 11 186 37 136 207 174 11 66 150 184 196 155 
18 10 197 109 153 171 193 67 179 192 134 201 
19 11 71 92 13 90 58 30 44 69 94 123 57 
20 10 173 212 130 3 183 164 7 138 194 161 
21 11 209 5 82 119 98 56 117 122 74 12 38 
22 11 4 24 111 15 168 114 88 129 70 133 10 
23 10 159 213 167 46 216 83 145 214 215 219 
24 11 15 88 4 22 10 114 97 74 111 12 70 
25 11 184 155 78 128 181 11 146 180 224 218 47 
26 11 56 119 104 16 41 32 102 43 103 152 117 
27 11 160 145 213 60 215 46 73 139 14 159 23 
28 11 34 51 55 76 42 93 126 58 66 225 61 
29 10 170 203 165 144 163 178 135 166 137 141 
30 11 94 90 13 44 123 100 57 19 92 69 110 
31 11 89 64 45 131 105 169 62 49 101 198 180 
32 11 43 117 103 56 119 72 152 41 26 134 175 
33 11 53 75 211 14 116 60 73 176 106 57 85 
34 11 51 28 58 55 126 76 93 71 19 92 160 
35 11 52 115 156 190 125 148 124 118 142 202 95 
36 11 70 54 112 15 12 24 88 74 97 4 22 
37 10 17 186 136 174 207 11 7 150 66 196 
38 11 80 98 108 113 91 122 16 21 120 209 81 
39 11 99 3 86 8 79 130 6 164 84 20 96 
40 11 192 220 191 87 185 153 109 197 133 129 18 
41 11 104 103 43 26 152 56 32 119 140 16 102 
42 11 76 55 66 28 102 48 120 104 81 174 2 
43 11 103 152 32 41 175 172 72 134 140 147 67 
44 11 123 90 30 69 94 13 19 71 100 92 57 
45 11 31 89 64 131 101 105 169 62 49 198 180 
46 11 213 23 167 159 214 219 216 83 221 145 160 
47 11 218 217 154 224 127 206 146 150 196 210 161 
48 11 81 6 120 84 2 7 102 174 164 42 130 
49 11 105 62 89 101 31 131 64 45 50 169 121 
50 11 101 49 105 69 62 89 31 45 71 131 44 
51 11 34 28 126 55 76 58 160 221 140 27 42 
52 11 35 124 156 125 115 106 148 190 176 211 116 
53 11 33 60 14 75 73 116 211 57 176 106 139 
54 11 12 112 36 74 82 97 5 209 15 21 24 
55 11 76 28 51 126 42 140 34 221 160 214 41 
56 11 119 26 32 16 104 41 117 43 21 103 209 
57 11 75 116 100 53 33 13 211 106 110 60 30 
58 11 71 34 19 51 92 28 13 126 90 69 93 
59 11 107 96 8 86 79 138 99 3 39 20 130 
60 11 53 14 73 33 75 27 145 116 211 139 215 
61 11 225 121 93 11 128 25 184 155 181 78 180 
62 11 105 49 89 131 31 64 169 101 45 121 198 
63 10 182 68 201 177 223 166 179 137 171 185 
64 11 131 169 89 31 45 105 62 198 49 180 101 
65 9 187 143 129 191 220 135 168 178 111 
66 11 186 17 174 37 11 136 207 42 225 2 61 
67 11 134 72 175 153 193 18 197 109 147 192 208 
68 11 177 63 182 166 137 201 223 132 185 179 171 
69 11 44 123 90 71 30 19 94 13 58 50 92 
70 11 36 15 24 22 4 54 12 88 112 74 97 
71 11 19 58 69 90 92 13 44 30 34 123 94 
72 11 134 67 175 153 193 18 147 197 109 192 32 
73 11 14 60 139 33 53 215 85 176 145 211 27 
74 11 97 88 12 82 117 5 10 209 24 54 21 
75 11 116 33 211 53 57 106 14 60 73 176 100 
76 11 55 28 140 42 51 126 221 34 41 104 214 
77 5 158 149 222 188 142 
78 11 181 146 180 25 155 128 224 184 218 198 47 
79 11 86 8 96 99 39 3 107 59 130 6 138 
80 11 38 98 108 16 91 113 122 120 21 81 102 
81 11 120 48 102 6 16 84 2 80 42 38 104 
82 11 5 209 21 74 117 12 97 119 56 54 32 
83 9 208 219 167 216 147 172 193 46 23 
84 11 2 6 7 164 130 48 174 212 37 39 20 
85 11 176 73 139 14 142 215 33 211 125 116 53 
86 11 8 79 96 99 39 3 107 59 130 138 20 
87 11 133 10 40 192 129 114 153 220 191 109 111 
88 11 10 97 24 74 15 133 87 114 12 111 129 
89 11 31 131 64 105 62 169 45 49 101 198 128 
90 11 30 44 94 123 13 19 69 92 71 100 57 
91 11 108 38 113 80 98 122 81 120 16 96 21 
92 11 13 19 60 57 30 53 90 58 71 75 27 
93 11 225 61 121 11 28 66 128 184 25 34 155 
94 11 30 90 44 100 13 123 57 110 19 69 92 
95 10 199 118 151 188 202 195 148 190 77 9 
96 11 79 86 8 107 99 59 39 3 138 130 6 
97 11 74 88 117 12 10 82 24 5 209 87 15 
98 11 38 108 80 122 113 21 91 209 5 16 82 
99 11 39 86 3 8 79 130 164 6 96 20 84 
100 11 110 57 94 30 75 13 116 106 90 211 33 
101 11 105 49 45 31 89 50 62 131 64 169 198 
102 11 120 16 104 81 26 48 41 42 56 119 80 
103 11 43 152 41 32 175 172 140 72 134 147 219 
104 11 41 26 16 102 56 119 103 43 152 32 140 
105 11 49 62 89 31 131 101 64 45 169 50 198 
106 11 116 211 75 33 125 176 57 53 110 14 85 
107 11 59 96 8 86 79 99 138 39 3 20 130 
108 11 38 98 91 80 113 122 21 16 209 5 120 
109 11 197 18 153 192 185 40 67 171 220 134 182 
110 11 100 57 106 75 116 94 211 30 124 13 33 
111 11 114 129 168 133 65 4 87 10 22 40 143 
112 11 54 12 36 82 5 209 21 122 74 97 113 
113 11 122 98 108 38 91 80 21 209 5 82 112 
114 11 111 129 133 10 87 168 65 40 88 4 191 
115 11 156 190 35 148 118 202 95 199 142 151 52 
116 11 211 75 106 33 53 57 176 14 73 60 125 
117 11 32 97 74 56 82 119 5 72 209 21 43 
118 10 95 199 151 188 148 202 190 142 195 77 
119 11 56 26 32 16 117 104 41 21 209 5 43 
120 11 81 102 48 16 6 80 104 42 84 38 2 
121 11 61 225 128 25 93 184 11 155 181 180 78 
122 11 113 98 108 38 80 21 91 209 5 82 112 
123 11 44 90 94 69 30 13 19 100 71 110 57 
124 11 52 125 106 110 116 211 35 100 75 176 156 
125 11 176 106 211 85 116 156 33 148 75 142 124 
126 11 160 221 51 55 27 76 214 140 34 46 213 
127 11 154 217 210 196 205 47 161 206 150 218 194 
128 11 181 180 78 25 198 155 184 121 146 224 61 
129 11 114 133 65 111 87 40 168 191 220 10 187 
130 11 164 20 212 3 173 7 84 6 39 2 99 
131 11 64 89 169 31 62 105 45 49 198 128 180 
132 8 137 170 222 165 166 177 68 29 
133 11 87 114 129 10 40 111 192 65 191 220 153 
134 11 67 72 175 193 147 18 153 197 109 208 192 
135 11 203 191 29 220 178 170 166 185 144 177 187 
136 10 207 37 17 186 150 174 196 11 154 210 
137 9 132 166 177 68 170 63 182 29 222 
138 11 3 20 173 183 99 130 212 8 39 86 164 
139 11 215 73 145 85 14 159 23 213 27 176 60 
140 11 221 152 214 219 103 172 76 41 43 55 126 
141 7 163 157 162 200 165 144 9 
142 11 148 77 158 118 85 199 95 188 149 151 176 
143 3 187 65 178 
144 6 163 178 29 141 165 170 
145 11 27 215 213 139 159 160 23 46 73 14 60 
146 11 224 218 47 78 155 206 217 181 154 25 150 
147 9 208 193 175 172 83 134 219 67 216 
148 11 142 118 156 95 190 199 115 151 188 77 202 
149 6 222 77 158 132 188 137 
150 10 196 154 218 47 127 217 210 207 161 205 
151 9 199 188 95 118 195 202 9 77 149 
152 11 103 43 172 175 41 140 32 219 147 134 72 
153 11 192 109 197 18 67 40 134 72 185 87 193 
154 11 127 217 47 196 210 150 218 206 205 161 224 
155 11 184 25 78 146 218 224 181 11 47 150 128 
156 11 115 148 190 35 118 125 142 95 199 202 52 
157 9 141 162 9 200 163 165 189 144 195 
158 4 77 149 222 142 
159 8 23 213 46 167 216 145 215 83 
160 11 27 145 126 221 213 46 214 23 159 215 167 
161 10 205 210 194 127 196 154 217 206 150 47 
162 7 200 157 189 9 141 204 163 
163 7 141 144 165 157 29 178 200 
164 11 130 7 84 212 2 20 173 6 3 39 174 
165 9 163 29 170 141 144 195 157 132 203 
166 11 177 68 137 182 63 170 203 29 132 135 185 
167 9 216 23 46 83 159 213 219 214 208 
168 9 111 129 65 114 143 187 4 133 22 
169 11 64 131 89 31 198 45 62 180 105 128 181 
170 10 29 165 203 166 137 144 132 163 135 177 
171 6 179 201 223 63 182 18 
172 11 147 219 208 83 175 152 193 167 214 103 43 
173 10 20 212 183 130 164 194 3 161 205 210 
174 10 37 186 17 136 207 2 7 66 84 11 
175 11 134 147 193 67 72 172 208 152 43 83 18 
176 11 85 211 33 73 125 14 116 106 139 53 75 
177 11 68 166 182 63 137 201 185 132 170 203 223 
178 4 144 29 163 203 
179 5 171 223 201 63 182 
180 11 181 198 128 78 25 146 155 224 184 218 47 
181 11 78 180 128 25 198 146 155 224 184 218 47 
182 10 63 68 177 166 201 137 185 171 223 179 
183 10 173 194 212 20 161 205 210 127 196 154 
184 11 25 155 11 78 146 128 181 218 224 150 47 
185 11 220 191 182 177 166 135 68 63 203 40 109 
186 11 17 37 136 207 174 11 66 150 184 7 196 
187 3 143 178 65 
188 9 151 199 95 195 118 77 149 132 158 
189 6 204 162 200 9 157 141 
190 11 115 202 118 95 148 199 156 151 188 142 9 
191 11 220 185 135 40 203 65 166 177 182 187 178 
192 11 153 109 40 197 18 87 67 185 220 191 134 
193 9 147 208 175 134 18 67 83 171 172 
194 10 205 161 210 127 196 154 217 206 183 47 
195 8 165 188 157 141 151 163 9 132 
196 10 210 150 154 127 161 205 217 47 194 218 
197 11 109 18 153 192 171 67 185 40 193 134 179 
198 11 180 128 181 78 25 169 146 155 121 184 224 
199 9 95 151 118 188 202 195 148 77 190 
200 6 162 157 189 141 204 9 
201 8 63 223 179 171 182 68 177 166 
202 10 95 199 118 151 190 9 188 195 157 162 
203 11 135 29 170 166 178 144 177 165 137 163 191 
204 5 189 200 162 9 157 
205 10 161 210 194 127 196 154 217 206 150 47 
206 11 217 47 127 154 218 224 210 146 205 161 194 
207 10 136 37 17 186 150 196 174 11 154 210 
208 8 147 83 193 172 175 216 219 167 
209 11 5 21 82 117 119 74 56 12 97 98 122 
210 10 161 205 127 196 154 194 217 150 47 206 
211 11 116 106 33 75 176 53 14 57 73 125 85 
212 10 173 20 164 130 183 7 161 194 205 196 
213 11 46 23 159 167 145 214 216 215 219 160 83 
214 11 221 46 219 167 213 83 23 172 159 140 160 
215 10 139 145 73 159 23 213 14 85 27 46 
216 5 167 83 23 159 208 
217 11 127 154 47 206 218 210 196 150 205 161 224 
218 11 47 224 146 154 217 150 127 206 155 196 210 
219 11 83 172 214 167 46 208 147 216 221 23 213 
220 11 191 185 135 40 203 166 182 177 109 68 65 
221 11 214 46 140 160 219 126 213 167 23 172 83 
222 6 149 132 137 77 158 223 
223 5 201 179 171 63 68 
224 11 146 218 47 206 217 154 78 155 127 150 181 
225 11 61 93 121 11 184 25 128 66 155 17 186 
DEPOT_SECTION
   1
   -1
EOF
