NAME :  X-n247-kX-w24-c11.cctp
COMMENT : 	Adapted by Maziero, Usberti and Cavellucci from the Uchoa, Pecin, Pessoa, Poggi, Subramanian, and Vidal (2013)
TYPE :  CCTP
DIMENSION :    192
EDGE_WEIGHT_TYPE : 	EUC_2D	
CAPACITY : 	134
VERTICES_WITHIN_COVERAGE :  11
VERTICES_WITH_DEMAND : 	24
NODE_COORD_SECTION
1 500 500
2 612 199
3 864 279
4 746 395
5 738 519
6 797 59
7 867 206
8 846 399
9 654 172
10 874 275
11 675 479
12 780 372
13 692 446
14 541 183
15 747 432
16 845 403
17 787 317
18 472 325
19 682 246
20 779 308
21 815 316
22 690 306
23 923 403
24 643 526
25 849 293
26 789 424
27 766 443
28 833 421
29 949 458
30 675 431
31 930 480
32 677 173
33 479 247
34 849 285
35 711 358
36 794 366
37 878 230
38 564 141
39 845 320
40 769 345
41 528 256
42 700 404
43 851 369
44 925 215
45 608 654
46 562 80
47 418 269
48 766 533
49 933 280
50 671 522
51 725 496
52 863 250
53 864 328
54 663 460
55 848 251
56 689 490
57 745 448
58 746 345
59 776 427
60 925 251
61 783 292
62 680 173
63 895 273
64 785 253
65 886 125
66 916 247
67 930 364
68 584 185
69 440 130
70 684 326
71 737 309
72 554 164
73 859 254
74 981 334
75 717 258
76 855 321
77 623 443
78 685 162
79 686 463
80 733 431
81 586 486
82 523 196
83 712 541
84 759 432
85 658 583
86 860 312
87 762 359
88 498 208
89 504 64
90 842 221
91 895 461
92 870 277
93 644 438
94 556 305
95 747 522
96 646 445
97 867 380
98 669 372
99 663 507
100 691 172
101 384 100
102 791 379
103 650 277
104 897 279
105 758 306
106 971 92
107 641 183
108 904 291
109 825 374
110 405 305
111 786 431
112 758 442
113 750 530
114 567 564
115 890 268
116 833 289
117 637 408
118 845 276
119 809 347
120 818 88
121 678 259
122 853 219
123 493 509
124 581 187
125 789 397
126 537 240
127 714 339
128 777 371
129 683 378
130 499 301
131 835 370
132 598 221
133 857 214
134 463 400
135 844 400
136 860 267
137 662 184
138 638 185
139 781 293
140 866 305
141 786 343
142 715 530
143 992 531
144 753 534
145 566 216
146 934 403
147 590 211
148 646 141
149 719 302
150 597 150
151 761 360
152 761 367
153 813 282
154 775 536
155 805 178
156 870 167
157 713 265
158 713 242
159 855 296
160 535 169
161 900 254
162 877 365
163 872 218
164 680 535
165 687 498
166 741 557
167 720 61
168 764 452
169 500 143
170 916 505
171 803 183
172 720 452
173 855 297
174 755 492
175 748 411
176 829 123
177 651 282
178 839 364
179 839 66
180 846 29
181 604 597
182 762 520
183 896 131
184 586 465
185 582 216
186 681 187
187 924 98
188 428 684
189 725 408
190 792 337
191 677 142
192 797 262
DEMAND_SECTION
2 99
3 72
4 87
5 77
6 78
7 76
8 74
9 78
10 92
11 96
12 75
13 96
14 72
15 99
16 63
17 93
18 64
19 68
20 82
21 53
22 91
23 74
24 67
25 65
COVERAGE_SECTION
2 11 147 132 138 68 107 124 185 145 9 150 137 
3 11 92 10 136 34 118 159 173 25 73 140 115 
4 11 175 189 152 15 80 151 84 87 128 12 125 
5 11 95 113 144 182 142 51 48 174 83 166 154 
6 6 120 179 180 176 167 65 
7 9 133 163 122 37 90 156 52 55 73 
8 9 135 16 28 97 43 131 109 178 162 
9 10 137 107 138 32 62 186 148 78 100 191 
10 11 92 3 136 115 63 104 73 34 52 159 118 
11 11 56 79 54 165 99 13 50 96 30 93 172 
12 11 128 102 36 152 87 151 125 40 141 190 119 
13 11 79 30 172 54 11 42 56 80 96 93 189 
14 11 160 82 72 124 145 68 38 88 185 147 126 
15 11 84 80 112 57 175 27 168 59 189 172 4 
16 9 135 8 28 97 131 43 109 178 162 
17 11 20 190 61 139 141 21 105 40 119 153 36 
18 9 130 110 134 33 47 94 41 126 88 
19 10 121 158 157 75 103 177 186 22 137 149 
20 11 17 139 61 105 190 141 21 40 71 153 119 
21 11 17 39 190 116 119 153 20 61 76 141 25 
22 11 70 149 127 177 71 157 103 121 75 35 19 
23 9 146 67 162 29 97 91 8 31 16 
24 11 50 99 164 165 11 56 85 54 81 83 142 
25 11 159 173 34 116 118 3 140 86 92 39 136 
26 10 111 59 125 27 84 112 168 15 175 28 
27 10 112 168 84 59 15 57 111 26 80 175 
28 9 16 135 8 26 109 111 125 131 97 
29 9 31 91 146 170 23 143 67 97 16 
30 11 13 54 93 96 79 42 117 11 172 77 129 
31 7 29 170 91 23 146 143 28 
32 8 62 78 100 186 137 9 191 107 
33 10 88 41 126 130 47 82 18 14 145 110 
34 11 25 118 159 173 3 116 136 92 140 10 86 
35 11 127 129 58 70 98 42 151 4 87 152 189 
36 11 102 12 128 119 141 190 125 109 40 87 152 
37 11 163 52 7 133 122 73 161 55 90 115 136 
38 11 72 150 160 14 68 124 46 169 82 2 145 
39 10 76 86 53 173 140 159 25 21 116 34 
40 11 87 141 151 58 152 190 128 12 17 36 20 
41 9 126 33 130 145 94 88 82 185 14 
42 11 189 129 30 13 80 98 4 35 175 172 15 
43 9 178 131 97 109 162 8 135 16 53 
44 10 66 60 161 37 163 7 115 49 63 133 
45 4 181 85 114 24 
46 9 89 38 150 72 169 160 148 14 68 
47 11 110 33 18 130 88 41 126 82 134 69 94 
48 8 154 144 182 113 95 5 166 174 
49 10 60 108 104 66 63 161 115 10 92 44 
50 11 164 99 24 165 56 11 83 142 51 79 85 
51 11 5 174 95 142 56 165 113 172 182 83 144 
52 10 73 55 136 37 10 92 3 115 118 122 
53 8 76 86 39 140 173 159 25 162 
54 11 11 79 96 93 30 13 56 77 165 99 117 
55 8 73 52 136 118 90 3 122 34 
56 11 165 11 79 99 51 50 54 13 164 142 172 
57 11 112 15 168 80 84 27 172 59 175 111 174 
58 11 87 151 40 152 127 35 71 128 141 105 12 
59 10 111 26 84 27 112 168 15 175 125 57 
60 10 66 161 49 44 63 115 104 108 37 10 
61 9 139 20 17 105 153 192 64 21 190 
62 8 32 100 78 186 137 9 191 107 
63 11 104 115 108 161 10 92 3 66 136 60 49 
64 5 192 61 139 153 20 
65 11 183 156 187 176 179 120 7 106 133 163 155 
66 10 60 161 44 63 115 49 104 37 108 10 
67 8 146 23 162 74 97 53 108 43 
68 11 124 147 2 185 145 72 150 132 14 38 160 
69 11 169 101 89 88 160 82 14 72 33 38 46 
70 11 22 127 35 149 98 129 177 71 103 58 121 
71 11 149 105 58 127 20 22 139 40 61 157 17 
72 11 160 14 38 124 68 82 150 145 169 147 185 
73 10 52 55 136 3 92 10 118 37 34 115 
74 8 67 49 146 108 23 60 104 63 
75 9 157 158 19 121 149 22 71 105 64 
76 10 39 86 53 140 173 159 25 34 116 21 
77 11 93 96 117 54 184 30 81 11 79 13 99 
78 7 62 100 32 191 186 137 9 
79 11 13 11 54 56 30 165 172 96 93 99 51 
80 11 15 57 189 172 175 84 112 27 168 4 42 
81 11 184 77 24 96 93 99 114 54 11 50 117 
82 11 14 88 160 72 126 145 169 124 41 68 185 
83 9 142 164 166 5 95 113 144 50 51 
84 11 112 15 27 59 57 168 175 80 111 26 4 
85 7 164 181 24 50 83 99 142 
86 11 140 76 53 173 39 159 25 34 3 116 92 
87 11 151 152 40 128 58 12 141 36 102 190 4 
88 10 82 33 14 126 160 41 169 145 72 185 
89 10 46 169 69 38 160 72 14 101 150 82 
90 8 122 133 7 163 55 52 37 73 
91 9 31 170 29 23 146 28 16 8 135 
92 11 10 3 136 34 115 159 63 73 118 173 25 
93 11 96 77 54 117 30 13 79 11 184 42 56 
94 8 41 130 126 18 145 185 132 33 
95 11 5 113 144 182 48 154 174 142 51 166 83 
96 11 93 54 77 30 117 79 11 13 56 184 99 
97 9 162 43 8 135 16 178 131 109 53 
98 11 129 35 42 70 117 127 30 189 22 93 13 
99 11 50 165 24 11 56 164 54 79 142 83 51 
100 7 62 78 32 186 137 191 9 
101 11 69 169 89 88 160 82 47 33 14 46 72 
102 11 12 36 128 125 152 109 87 141 151 119 40 
103 10 177 121 19 22 70 157 75 158 149 132 
104 11 63 115 108 10 161 92 3 49 66 136 60 
105 10 20 71 139 61 17 149 40 58 141 190 
106 10 187 183 65 156 44 179 180 176 120 7 
107 11 138 9 137 2 32 62 186 148 78 100 150 
108 10 104 63 115 49 10 92 161 140 3 60 
109 10 131 178 43 119 36 135 8 102 16 97 
110 10 47 18 33 130 134 41 88 126 94 82 
111 10 26 59 27 84 112 168 125 15 175 57 
112 11 27 84 168 57 15 59 80 111 175 26 172 
113 10 144 95 5 48 182 154 166 142 174 83 
114 10 181 81 24 123 85 45 184 50 99 164 
115 11 63 104 10 161 92 108 3 136 52 66 73 
116 10 25 34 118 153 159 173 21 3 39 86 
117 11 93 77 96 30 98 129 54 42 13 79 184 
118 11 34 25 136 116 3 159 173 55 92 73 10 
119 11 190 141 36 109 21 178 131 17 102 12 40 
120 10 179 6 176 180 65 183 155 156 171 167 
121 10 19 103 177 157 75 158 22 149 70 186 
122 9 133 90 7 163 37 55 52 73 136 
123 10 114 81 184 134 181 77 24 96 93 99 
124 11 68 147 185 2 145 72 132 14 150 38 160 
125 11 102 12 26 128 36 59 111 152 4 109 175 
126 9 41 145 82 88 185 14 33 147 132 
127 11 35 58 70 149 71 22 129 151 87 40 105 
128 11 12 102 152 36 87 151 40 125 141 190 4 
129 11 98 42 35 127 70 189 30 117 4 13 58 
130 8 18 41 94 33 126 47 88 110 
131 10 178 109 43 8 135 16 97 119 36 162 
132 9 147 185 2 145 124 68 138 107 126 
133 9 122 7 163 90 37 52 55 73 156 
134 10 18 130 110 123 94 47 184 81 33 41 
135 9 8 16 28 97 131 43 109 178 162 
136 11 3 73 92 10 52 118 55 34 25 159 115 
137 9 9 32 186 62 107 138 100 78 191 
138 11 107 9 137 2 32 186 62 148 78 68 132 
139 10 61 20 17 105 153 192 64 21 190 71 
140 11 86 159 173 76 25 53 3 34 39 92 10 
141 11 190 40 119 36 17 87 128 12 151 152 20 
142 10 83 5 95 51 113 164 166 144 165 50 
143 6 31 170 29 91 146 23 
144 10 113 48 95 182 5 154 166 142 83 174 
145 10 185 147 132 124 68 126 14 82 2 72 
146 9 23 67 29 162 91 97 31 74 8 
147 10 185 132 2 145 124 68 138 14 107 72 
148 8 191 9 107 78 32 138 137 62 
149 10 71 22 127 157 105 70 75 58 35 121 
150 11 38 68 124 72 148 2 138 107 9 147 14 
151 11 87 152 40 128 58 12 141 36 102 4 190 
152 11 151 87 128 12 40 58 4 102 36 141 125 
153 9 116 192 61 118 21 139 34 25 64 
154 8 48 182 144 113 95 166 5 174 
155 7 171 90 176 122 133 156 7 
156 11 7 183 65 133 163 122 176 90 37 155 171 
157 9 75 158 19 121 149 22 71 105 103 
158 8 75 157 19 121 149 186 22 71 
159 11 173 25 34 140 86 3 118 116 92 76 39 
160 11 14 72 82 38 169 124 68 88 145 150 185 
161 10 66 115 63 60 104 10 37 52 108 92 
162 8 97 43 178 53 131 8 135 76 
163 10 7 37 133 122 90 52 73 55 161 136 
164 10 50 83 99 142 24 165 56 85 11 5 
165 11 56 11 99 50 79 51 164 142 54 83 13 
166 8 144 113 83 48 95 142 5 154 
167 1 6 
168 10 27 112 57 84 15 59 111 80 26 174 
169 11 160 14 72 82 69 38 88 89 46 124 68 
170 6 31 91 29 143 23 146 
171 7 155 90 122 133 176 7 156 
172 11 57 80 13 15 79 112 51 84 168 189 27 
173 11 159 25 34 140 86 3 116 118 76 39 92 
174 10 182 51 95 5 113 168 48 144 57 154 
175 11 4 15 189 84 80 59 112 27 57 26 111 
176 10 120 65 179 155 156 171 183 6 7 133 
177 10 103 121 22 19 70 157 75 149 158 132 
178 9 131 43 109 97 119 8 135 162 16 
179 11 120 180 6 176 65 183 187 156 155 167 171 
180 10 179 6 120 176 65 187 183 167 106 156 
181 8 114 85 45 24 164 50 99 81 
182 10 48 95 113 144 154 5 174 166 51 142 
183 11 65 187 156 176 7 106 179 44 120 163 133 
184 11 81 77 96 93 117 54 24 99 11 30 79 
185 10 147 145 132 124 68 2 126 14 72 82 
186 9 62 32 100 137 78 9 107 138 191 
187 11 183 65 106 156 179 176 180 120 44 7 163 
188 7 45 114 123 181 85 81 24 
189 11 175 80 4 42 15 84 172 57 112 13 35 
190 11 141 119 17 40 36 21 20 12 87 128 151 
191 7 78 32 62 148 100 9 137 
192 6 64 153 61 139 116 20 
DEPOT_SECTION
   1
   -1
EOF
