NAME :  X-n294-kX-w117-c7.cctp
COMMENT : 	Adapted by Maziero, Usberti and Cavellucci from the Uchoa, Pecin, Pessoa, Poggi, Subramanian, and Vidal (2013)
TYPE :  CCTP
DIMENSION :    287
EDGE_WEIGHT_TYPE : 	EUC_2D	
CAPACITY : 	285
VERTICES_WITHIN_COVERAGE :  7
VERTICES_WITH_DEMAND : 	117
NODE_COORD_SECTION
1 500 500
2 940 231
3 721 848
4 618 44
5 993 145
6 636 512
7 274 496
8 245 945
9 449 812
10 29 650
11 399 8
12 548 19
13 769 717
14 221 850
15 980 233
16 477 922
17 498 720
18 136 832
19 351 663
20 58 67
21 889 569
22 28 334
23 804 928
24 900 138
25 393 403
26 982 609
27 79 299
28 684 582
29 169 252
30 405 925
31 875 191
32 674 112
33 576 537
34 539 63
35 338 657
36 210 209
37 676 568
38 949 826
39 572 890
40 210 615
41 737 46
42 30 527
43 131 724
44 671 842
45 727 566
46 507 497
47 524 134
48 167 665
49 819 108
50 929 582
51 713 738
52 352 626
53 887 547
54 176 645
55 611 289
56 457 532
57 11 147
58 958 60
59 587 187
60 790 956
61 974 63
62 306 225
63 961 969
64 238 736
65 758 840
66 88 44
67 507 811
68 768 476
69 51 914
70 494 445
71 953 33
72 922 45
73 748 111
74 544 867
75 477 596
76 322 79
77 439 150
78 586 764
79 214 599
80 168 480
81 925 138
82 797 107
83 751 783
84 738 913
85 703 73
86 681 886
87 627 27
88 887 310
89 478 345
90 571 600
91 834 858
92 549 370
93 657 233
94 126 769
95 317 934
96 237 55
97 851 409
98 838 426
99 477 559
100 542 94
101 370 432
102 520 621
103 666 178
104 631 484
105 733 255
106 820 918
107 687 877
108 752 983
109 157 720
110 709 898
111 300 878
112 728 617
113 66 59
114 991 657
115 717 47
116 463 177
117 586 397
118 792 307
119 438 722
120 43 247
121 71 476
122 69 560
123 211 73
124 471 14
125 115 806
126 194 337
127 921 320
128 104 495
129 36 456
130 500 152
131 782 316
132 881 374
133 277 601
134 962 575
135 588 181
136 941 728
137 108 931
138 11 814
139 209 800
140 129 525
141 126 149
142 31 219
143 97 324
144 495 122
145 759 480
146 859 782
147 780 669
148 786 769
149 759 159
150 282 633
151 361 17
152 957 103
153 711 939
154 544 544
155 27 318
156 665 656
157 523 586
158 842 429
159 539 783
160 769 347
161 937 386
162 824 841
163 738 391
164 833 988
165 16 637
166 91 472
167 41 388
168 623 780
169 660 155
170 700 658
171 946 783
172 607 815
173 87 771
174 658 874
175 527 853
176 459 577
177 352 829
178 427 235
179 937 639
180 554 438
181 833 692
182 421 999
183 908 447
184 469 163
185 737 238
186 509 61
187 488 408
188 600 359
189 510 460
190 342 691
191 95 216
192 787 465
193 700 873
194 659 568
195 478 525
196 988 980
197 303 119
198 28 661
199 724 842
200 2 660
201 210 180
202 840 841
203 843 9
204 430 92
205 265 453
206 209 673
207 20 952
208 673 659
209 185 335
210 138 655
211 263 155
212 769 741
213 325 260
214 831 678
215 401 625
216 118 426
217 192 520
218 596 376
219 449 679
220 579 295
221 333 352
222 837 944
223 377 500
224 797 97
225 65 235
226 440 877
227 439 326
228 407 621
229 550 241
230 169 68
231 253 243
232 76 852
233 642 116
234 598 124
235 564 374
236 997 660
237 14 98
238 845 303
239 774 9
240 791 671
241 299 800
242 575 109
243 290 897
244 953 348
245 895 790
246 25 242
247 761 886
248 909 336
249 501 846
250 731 4
251 337 71
252 106 973
253 400 229
254 846 368
255 623 580
256 978 669
257 884 559
258 10 910
259 390 602
260 451 134
261 324 221
262 569 98
263 735 341
264 411 220
265 672 867
266 69 790
267 584 520
268 193 416
269 954 912
270 761 734
271 192 875
272 88 353
273 777 38
274 98 68
275 642 658
276 838 305
277 824 694
278 238 825
279 344 138
280 137 683
281 357 593
282 541 423
283 537 99
284 137 539
285 719 213
286 68 173
287 788 339
DEMAND_SECTION
2 94
3 7
4 83
5 31
6 9
7 78
8 50
9 18
10 10
11 11
12 68
13 37
14 57
15 83
16 38
17 94
18 12
19 63
20 84
21 19
22 68
23 32
24 98
25 47
26 97
27 25
28 98
29 30
30 30
31 10
32 20
33 64
34 56
35 73
36 32
37 51
38 51
39 45
40 72
41 81
42 26
43 46
44 16
45 39
46 9
47 52
48 60
49 39
50 39
51 97
52 40
53 79
54 2
55 86
56 69
57 28
58 73
59 46
60 1
61 31
62 99
63 91
64 19
65 41
66 99
67 23
68 52
69 81
70 89
71 48
72 11
73 21
74 36
75 24
76 56
77 93
78 32
79 30
80 81
81 15
82 98
83 61
84 32
85 57
86 8
87 48
88 45
89 19
90 43
91 6
92 9
93 40
94 66
95 1
96 55
97 32
98 24
99 47
100 72
101 36
102 77
103 28
104 44
105 4
106 42
107 38
108 15
109 13
110 81
111 58
112 77
113 88
114 91
115 44
116 88
117 68
118 40
COVERAGE_SECTION
2 7 15 31 127 81 88 5 24 
3 7 199 193 65 107 44 110 265 
4 7 87 262 12 233 242 34 234 
5 7 152 81 61 15 58 24 2 
6 7 104 267 194 33 37 255 28 
7 7 205 217 223 133 80 268 101 
8 7 243 95 111 271 14 278 137 
9 7 67 249 226 175 119 159 177 
10 7 198 165 200 122 210 280 42 
11 7 151 124 251 204 76 186 260 
12 7 34 186 4 100 124 87 283 
13 7 270 212 147 240 148 51 277 
14 7 278 271 139 243 111 18 241 
15 7 2 5 127 81 31 244 88 
16 7 226 30 249 175 74 182 39 
17 7 119 219 159 67 78 102 9 
18 7 125 232 94 271 173 266 139 
19 7 35 190 52 215 228 281 259 
20 7 113 66 274 237 57 286 141 
21 7 257 53 50 134 179 26 183 
22 6 155 167 27 272 143 120 
23 7 106 60 222 247 164 84 91 
24 7 81 31 152 49 5 72 58 
25 7 101 221 227 187 223 89 70 
26 7 134 114 236 179 50 256 21 
27 7 143 155 272 22 120 225 246 
28 7 37 194 45 112 255 156 170 
29 7 36 191 201 231 209 126 27 
30 7 226 16 182 95 177 111 243 
31 7 24 81 2 49 15 82 238 
32 7 233 169 85 103 73 234 115 
33 7 267 154 90 255 6 157 104 
34 7 186 100 283 12 262 242 47 
35 7 19 52 190 150 281 215 259 
36 7 201 231 29 211 62 141 191 
37 7 28 194 45 255 6 112 156 
38 6 171 245 269 136 146 202 
39 7 74 175 172 249 174 16 67 
40 7 79 54 206 48 133 150 210 
41 7 115 273 250 85 239 73 224 
42 7 122 121 129 128 166 140 284 
43 7 109 280 94 173 48 210 125 
44 7 265 174 107 193 86 3 199 
45 7 28 37 112 194 145 170 68 
46 7 189 195 70 154 56 99 180 
47 7 130 144 283 100 242 262 184 
48 7 54 210 280 206 109 40 43 
49 7 82 224 73 149 273 24 31 
50 7 134 21 257 53 179 26 114 
51 7 270 212 83 13 148 170 208 
52 7 281 35 19 259 215 228 190 
53 7 257 21 50 134 183 179 26 
54 7 48 210 206 40 280 79 109 
55 7 220 188 93 229 218 235 92 
56 7 195 99 176 46 75 157 223 
57 7 237 286 142 20 246 225 113 
58 7 61 71 72 152 81 5 24 
59 7 135 234 229 242 103 169 47 
60 7 23 108 106 222 164 84 247 
61 7 58 71 152 72 5 81 24 
62 7 261 213 231 211 253 279 36 
63 7 196 269 222 164 38 106 23 
64 7 206 139 109 241 278 48 43 
65 7 199 3 247 83 162 193 84 
66 7 274 113 20 230 237 141 123 
67 7 249 159 175 9 74 17 78 
68 7 145 192 98 158 163 45 97 
69 7 258 207 137 232 252 138 18 
70 7 189 187 282 46 180 195 92 
71 7 58 72 61 152 81 203 24 
72 7 71 58 61 152 203 81 24 
73 7 82 149 224 85 41 49 115 
74 7 175 39 249 67 172 159 16 
75 7 176 99 157 102 56 195 228 
76 7 251 197 279 151 96 211 11 
77 7 260 184 116 204 130 144 264 
78 7 168 159 172 67 17 175 74 
79 7 40 54 133 206 150 48 217 
80 7 217 140 128 284 268 216 166 
81 7 24 152 5 31 58 61 72 
82 7 224 49 73 149 273 41 85 
83 7 148 212 270 65 51 199 13 
84 7 110 247 153 193 107 86 3 
85 7 115 41 32 73 250 233 273 
86 7 107 265 193 174 110 44 3 
87 7 4 12 85 233 115 262 34 
88 7 248 127 238 276 132 254 244 
89 7 227 187 92 235 282 70 25 
90 7 157 102 255 154 33 267 275 
91 7 202 162 106 23 65 247 146 
92 7 235 117 218 188 282 180 187 
93 7 103 285 55 169 105 185 59 
94 7 125 173 43 109 266 18 280 
95 7 243 111 8 30 177 182 14 
96 7 123 230 76 197 251 211 201 
97 7 98 158 254 132 183 192 161 
98 7 158 97 254 192 132 183 68 
99 7 176 56 195 75 157 46 154 
100 7 283 262 34 242 47 186 144 
101 7 25 223 221 205 7 187 70 
102 7 157 75 90 99 176 154 219 
103 7 169 93 285 32 233 135 59 
104 7 6 267 33 194 180 37 255 
105 7 185 285 131 93 118 263 149 
106 7 23 222 60 91 247 164 162 
107 7 86 193 265 174 110 44 3 
108 7 60 153 84 23 164 106 222 
109 7 43 280 48 94 210 206 54 
110 7 193 86 107 84 153 265 3 
111 7 243 95 177 241 278 14 8 
112 7 170 45 28 208 37 147 156 
113 7 20 66 274 237 230 57 141 
114 6 236 256 26 179 134 136 
115 7 41 85 250 273 239 73 32 
116 7 184 77 130 260 144 264 178 
117 7 218 235 188 92 180 282 104 
118 7 131 287 160 276 238 263 105 
119 7 219 17 9 190 215 19 228 
120 7 246 225 142 191 27 155 286 
121 7 166 128 129 42 216 140 122 
122 7 42 140 284 128 121 166 165 
123 7 96 230 211 197 201 76 274 
124 7 186 11 12 34 204 100 283 
125 7 18 94 173 266 232 43 139 
126 4 209 268 29 143 
127 7 248 88 244 132 161 238 276 
128 7 166 121 140 284 80 216 122 
129 6 121 166 167 42 128 216 
130 7 47 144 184 116 260 77 283 
131 7 118 287 160 263 276 238 105 
132 7 254 97 248 161 88 98 127 
133 7 150 79 40 52 281 35 19 
134 7 50 26 179 21 53 257 114 
135 7 59 234 229 242 169 103 47 
136 5 171 256 245 114 236 
137 7 252 69 232 207 258 271 18 
138 7 266 232 173 258 125 69 94 
139 7 278 14 64 271 18 94 241 
140 7 284 128 80 217 166 122 121 
141 7 286 191 274 201 230 36 225 
142 7 246 120 225 286 191 57 27 
143 6 272 27 22 155 167 209 
144 7 130 47 260 283 184 100 77 
145 7 68 192 163 45 98 158 97 
146 5 245 202 162 148 91 
147 7 240 13 277 214 181 270 212 
148 6 212 83 270 13 146 65 
149 7 73 82 285 224 49 185 103 
150 7 133 35 52 40 19 79 190 
151 7 11 251 76 204 124 197 279 
152 7 58 61 81 5 24 72 71 
153 7 84 110 108 86 107 193 247 
154 7 33 157 267 46 90 99 195 
155 7 22 27 143 272 167 120 246 
156 7 208 275 170 112 28 255 194 
157 7 102 75 154 90 99 176 33 
158 7 98 97 254 192 132 183 68 
159 7 67 78 175 249 17 172 74 
160 7 287 131 263 118 163 254 276 
161 7 244 132 248 127 183 97 88 
162 6 202 91 65 146 106 247 
163 7 263 160 287 131 192 68 145 
164 7 222 60 23 106 108 84 247 
165 7 10 198 200 122 42 210 280 
166 6 121 128 216 129 140 80 
167 6 22 272 129 155 143 216 
168 7 172 78 44 159 51 174 265 
169 7 103 233 32 234 135 93 59 
170 7 208 156 112 275 28 51 147 
171 4 38 245 136 146 
172 7 168 78 44 159 174 74 39 
173 7 266 94 125 43 18 232 109 
174 7 265 86 107 44 193 110 3 
175 7 74 249 67 39 159 16 9 
176 7 99 75 56 195 157 228 259 
177 7 241 111 243 9 226 30 95 
178 7 264 253 116 184 77 227 260 
179 6 256 26 114 50 236 134 
180 7 282 189 117 70 235 92 187 
181 5 277 214 240 147 13 
182 7 30 16 95 226 243 111 249 
183 7 158 161 97 98 132 254 53 
184 7 116 77 130 260 144 47 204 
185 7 105 285 93 149 118 131 103 
186 7 34 100 283 12 124 144 262 
187 7 70 282 189 89 92 180 235 
188 7 218 235 117 92 220 55 282 
189 7 70 46 282 180 187 195 56 
190 7 19 35 52 150 215 228 281 
191 7 225 286 120 142 141 246 29 
192 7 68 145 98 158 97 163 254 
193 7 107 86 110 265 3 199 44 
194 7 37 28 255 6 45 112 156 
195 7 56 99 46 176 154 75 189 
196 7 63 269 164 222 38 106 23 
197 7 76 279 211 251 96 123 261 
198 7 10 200 165 122 210 280 43 
199 7 3 65 193 107 44 247 110 
200 7 198 165 10 122 42 210 280 
201 7 36 211 231 29 141 62 123 
202 6 162 91 146 245 106 65 
203 7 239 273 72 224 49 82 41 
204 7 260 77 144 184 186 124 11 
205 5 7 268 217 80 101 
206 7 48 54 40 64 109 210 280 
207 7 258 69 252 137 232 138 18 
208 7 156 170 275 112 28 51 37 
209 4 126 268 29 143 
210 7 280 48 54 109 43 206 40 
211 7 197 201 36 62 279 231 261 
212 7 270 13 148 83 51 277 147 
213 7 261 62 231 253 221 264 178 
214 5 181 277 240 147 13 
215 7 228 259 52 281 19 35 219 
216 6 166 121 128 80 268 272 
217 7 80 284 140 79 7 128 40 
218 7 188 117 235 92 282 180 220 
219 7 119 17 215 228 75 102 259 
220 7 55 229 188 235 92 218 93 
221 4 25 101 213 227 
222 7 106 23 164 60 91 108 247 
223 7 101 56 281 25 7 259 195 
224 7 82 49 73 273 149 41 239 
225 7 120 191 142 246 286 27 155 
226 7 16 30 9 249 175 67 177 
227 7 89 25 178 187 253 221 264 
228 7 215 259 52 281 176 19 219 
229 7 220 59 135 55 130 93 116 
230 7 123 96 274 66 141 113 20 
231 7 36 62 213 261 201 29 211 
232 7 125 266 18 69 138 173 137 
233 7 32 169 234 103 242 85 262 
234 7 242 262 233 135 59 100 283 
235 7 92 117 218 188 282 180 220 
236 6 114 256 26 179 136 134 
237 7 57 20 113 274 66 286 142 
238 7 276 88 118 131 254 287 248 
239 7 273 250 41 115 203 224 85 
240 7 147 277 214 181 13 270 212 
241 7 177 278 111 64 139 14 243 
242 7 262 234 100 283 47 34 233 
243 7 111 95 8 14 278 177 241 
244 7 161 127 248 88 132 183 254 
245 6 146 171 38 202 136 162 
246 7 120 142 225 191 155 27 286 
247 7 84 65 110 3 199 23 193 
248 7 127 88 244 132 161 254 238 
249 7 175 67 74 9 226 159 16 
250 7 41 239 115 273 85 87 73 
251 7 76 151 197 279 11 204 96 
252 7 137 69 207 258 232 271 8 
253 7 264 178 261 213 116 77 62 
254 7 132 97 98 158 276 238 287 
255 7 194 37 90 28 33 6 267 
256 6 114 236 179 26 136 134 
257 7 21 53 50 134 179 26 183 
258 7 69 207 232 138 137 252 266 
259 7 215 228 281 52 19 176 35 
260 7 77 184 116 144 204 130 47 
261 7 62 213 231 253 279 264 211 
262 7 242 100 283 234 34 47 186 
263 7 160 163 131 287 118 105 185 
264 7 253 178 116 77 184 261 213 
265 7 174 107 86 44 193 110 3 
266 7 173 125 94 232 138 18 43 
267 7 33 154 6 104 255 46 90 
268 5 80 216 126 205 209 
269 7 63 196 38 222 171 91 106 
270 7 212 13 148 51 83 147 240 
271 7 14 278 18 139 8 243 137 
272 6 143 27 167 22 155 216 
273 7 239 41 250 115 224 82 203 
274 7 66 113 20 230 141 237 286 
275 7 156 208 170 255 28 90 194 
276 7 238 118 88 131 287 254 248 
277 6 181 214 240 147 13 212 
278 7 14 139 241 271 111 64 243 
279 7 197 76 251 211 261 62 77 
280 7 210 48 43 109 54 206 94 
281 7 52 259 215 228 35 19 133 
282 7 180 189 70 117 92 235 187 
283 7 100 262 34 47 242 186 144 
284 7 140 128 217 80 122 166 121 
285 7 185 105 103 93 149 169 73 
286 7 191 142 225 57 141 120 246 
287 7 160 131 118 263 276 254 238 
DEPOT_SECTION
   1
   -1
EOF
