NAME :  X-n256-kX-w25-c7.cctp
COMMENT : 	Adapted by Maziero, Usberti and Cavellucci from the Uchoa, Pecin, Pessoa, Poggi, Subramanian, and Vidal (2013)
TYPE :  CCTP
DIMENSION :    156
EDGE_WEIGHT_TYPE : 	EUC_2D	
CAPACITY : 	1225
VERTICES_WITHIN_COVERAGE :  7
VERTICES_WITH_DEMAND : 	25
NODE_COORD_SECTION
1 500 500
2 878 606
3 35 593
4 320 125
5 189 244
6 274 784
7 900 310
8 742 640
9 800 448
10 66 599
11 829 588
12 660 698
13 290 673
14 669 619
15 252 742
16 425 160
17 291 114
18 289 90
19 813 663
20 847 528
21 589 738
22 756 687
23 777 547
24 810 554
25 823 501
26 5 179
27 277 59
28 76 127
29 229 65
30 868 256
31 713 640
32 692 668
33 332 773
34 782 719
35 230 680
36 447 107
37 155 252
38 793 605
39 248 236
40 741 596
41 324 753
42 195 632
43 296 66
44 330 780
45 659 553
46 426 102
47 309 755
48 215 242
49 373 110
50 862 596
51 83 155
52 816 433
53 917 345
54 62 661
55 874 602
56 908 590
57 812 701
58 796 520
59 30 230
60 189 199
61 774 664
62 146 730
63 188 748
64 954 296
65 279 160
66 730 640
67 56 562
68 819 427
69 873 663
70 308 101
71 256 669
72 280 122
73 800 663
74 193 65
75 583 843
76 523 797
77 753 415
78 786 576
79 60 623
80 512 166
81 928 312
82 823 802
83 266 776
84 166 204
85 793 691
86 906 599
87 217 20
88 880 572
89 53 561
90 386 713
91 764 423
92 98 577
93 77 608
94 875 607
95 266 847
96 861 673
97 657 665
98 784 424
99 882 574
100 349 113
101 519 674
102 568 693
103 681 739
104 243 887
105 328 130
106 907 505
107 364 107
108 809 640
109 873 414
110 775 601
111 194 309
112 246 850
113 181 782
114 695 698
115 213 701
116 213 214
117 175 243
118 466 38
119 697 594
120 307 170
121 794 695
122 24 575
123 775 559
124 897 309
125 415 180
126 201 293
127 366 205
128 265 765
129 707 632
130 274 809
131 901 604
132 685 725
133 319 167
134 221 697
135 379 190
136 629 657
137 94 552
138 884 628
139 967 297
140 913 279
141 196 313
142 276 84
143 692 632
144 284 743
145 253 739
146 874 303
147 248 819
148 866 544
149 686 590
150 482 177
151 287 794
152 764 592
153 254 616
154 827 593
155 920 321
156 98 555
DEMAND_SECTION
2 83
3 68
4 78
5 76
6 79
7 76
8 78
9 61
10 78
11 79
12 86
13 53
14 66
15 81
16 87
17 88
18 66
19 84
20 86
21 89
22 84
23 84
24 88
25 83
26 66
COVERAGE_SECTION
2 7 94 55 50 131 138 86 99 
3 6 122 10 67 89 79 93 
4 7 105 70 17 100 72 133 18 
5 7 117 48 37 116 60 84 126 
6 7 83 151 128 130 144 147 47 
7 7 124 155 146 81 140 53 64 
8 6 66 31 129 61 40 22 
9 6 52 68 98 91 77 25 
10 6 93 79 3 67 92 89 
11 7 154 50 24 38 78 55 94 
12 6 97 114 132 32 103 136 
13 7 71 35 153 144 134 145 15 
14 5 143 149 119 129 97 
15 7 145 128 144 83 6 134 115 
16 7 125 135 36 46 150 49 127 
17 7 72 70 18 4 142 105 43 
18 7 142 70 17 43 27 72 4 
19 7 73 108 85 121 57 61 96 
20 7 148 25 24 58 88 99 11 
21 7 102 12 76 136 103 101 132 
22 7 61 85 121 34 8 73 66 
23 6 123 78 58 24 152 110 
24 7 78 23 123 58 11 154 20 
25 7 58 20 24 9 148 23 52 
26 3 59 51 28 
27 7 43 142 18 29 70 17 72 
28 5 51 26 59 84 74 
29 7 74 87 27 142 18 43 72 
30 4 146 140 124 7 
31 5 129 66 143 8 32 
32 6 114 31 97 143 129 12 
33 6 44 41 47 151 144 6 
34 7 121 85 57 22 61 73 19 
35 7 134 115 71 42 13 145 15 
36 7 46 16 118 49 150 125 107 
37 5 117 5 84 48 126 
38 7 110 78 152 154 108 11 123 
39 3 48 116 5 
40 4 152 110 8 119 
41 6 47 33 44 144 151 6 
42 7 35 153 134 71 115 13 62 
43 7 27 18 142 70 17 72 4 
44 6 33 41 47 151 6 144 
45 3 149 119 14 
46 7 36 49 16 107 118 100 125 
47 7 41 144 33 44 6 128 151 
48 5 5 116 39 117 60 
49 6 107 100 105 46 4 70 
50 7 55 94 2 88 99 11 154 
51 4 28 26 59 84 
52 6 68 9 98 91 109 77 
53 4 155 81 7 124 
54 7 79 93 10 3 92 122 67 
55 7 94 2 50 131 138 99 88 
56 6 86 131 99 88 2 55 
57 7 121 85 34 19 73 61 96 
58 6 23 25 24 123 20 78 
59 2 26 51 
60 5 84 116 5 117 48 
61 7 73 22 85 121 19 8 108 
62 7 63 113 115 134 35 15 145 
63 7 113 62 115 134 15 145 128 
64 7 139 81 155 140 7 124 53 
65 4 120 72 133 17 
66 5 8 31 129 143 40 
67 4 89 122 3 10 
68 6 52 9 98 91 109 77 
69 7 96 138 94 2 19 55 131 
70 7 17 18 4 72 105 142 43 
71 7 35 13 134 153 115 145 42 
72 6 17 18 70 65 142 4 
73 7 19 108 61 85 121 57 22 
74 6 29 87 27 142 18 43 
75 6 76 21 103 102 132 12 
76 4 75 21 102 101 
77 3 91 98 9 
78 7 123 110 152 23 38 24 154 
79 7 93 10 54 3 92 122 67 
80 7 150 16 36 125 46 135 118 
81 7 155 7 64 124 53 140 139 
82 5 34 57 121 85 22 
83 7 6 128 151 130 15 144 145 
84 5 60 117 5 116 37 
85 7 121 57 73 34 61 19 22 
86 6 131 56 2 55 94 99 
87 6 29 74 27 142 43 18 
88 7 99 50 55 148 56 2 94 
89 4 67 122 3 10 
90 5 41 33 44 47 13 
91 5 77 98 9 52 68 
92 6 156 137 93 10 67 89 
93 6 10 79 92 3 67 89 
94 7 2 55 50 138 131 86 99 
95 7 112 147 130 104 151 6 83 
96 7 69 19 138 57 73 108 94 
97 6 136 12 32 14 143 114 
98 5 91 9 77 52 68 
99 7 88 55 50 56 2 94 148 
100 7 107 49 105 4 70 17 133 
101 6 102 21 136 76 97 90 
102 7 21 101 136 12 97 76 132 
103 6 132 114 12 32 97 22 
104 6 112 95 147 130 151 6 
105 7 4 100 70 133 17 107 120 
106 4 148 20 88 99 
107 6 49 100 105 4 70 46 
108 7 19 73 38 61 154 110 85 
109 3 68 52 9 
110 6 152 38 78 40 123 8 
111 3 141 126 5 
112 7 95 147 104 130 151 6 83 
113 6 63 62 147 15 145 83 
114 6 132 32 12 103 97 31 
115 7 134 35 63 71 145 15 42 
116 4 48 60 5 39 
117 6 5 37 48 84 60 116 
118 5 36 46 49 107 16 
119 3 149 14 143 
120 4 133 65 105 4 
121 7 85 57 34 73 19 61 22 
122 4 3 89 67 10 
123 6 23 78 24 152 110 58 
124 7 7 146 155 81 140 53 64 
125 7 16 135 127 150 46 36 49 
126 5 111 141 5 48 117 
127 6 135 125 133 120 16 105 
128 7 83 6 15 144 145 151 47 
129 5 31 143 66 8 32 
130 7 151 6 147 83 95 128 112 
131 6 86 56 2 94 55 138 
132 6 103 114 12 32 97 22 
133 4 120 105 65 4 
134 7 115 35 71 145 15 63 42 
135 6 127 125 16 133 120 105 
136 6 97 12 14 32 143 102 
137 5 156 92 67 89 10 
138 7 2 94 55 131 86 69 50 
139 6 64 81 155 140 7 53 
140 7 7 124 81 155 64 146 30 
141 3 111 126 5 
142 7 18 27 43 17 70 72 29 
143 5 129 31 14 32 119 
144 7 47 128 145 15 83 41 6 
145 7 15 128 144 83 6 134 115 
146 7 124 7 140 30 155 81 53 
147 7 130 112 95 6 151 83 128 
148 7 20 88 99 50 11 24 106 
149 4 119 14 143 45 
150 7 80 16 125 36 46 135 127 
151 7 6 130 83 128 44 47 147 
152 6 110 40 78 38 123 23 
153 7 71 42 13 35 134 115 145 
154 7 11 50 38 24 78 55 94 
155 6 81 7 53 124 64 140 
156 5 137 92 67 89 10 
DEPOT_SECTION
   1
   -1
EOF
