NAME :  X-n289-kX-w115-c7.cctp
COMMENT : 	Adapted by Maziero, Usberti and Cavellucci from the Uchoa, Pecin, Pessoa, Poggi, Subramanian, and Vidal (2013)
TYPE :  CCTP
DIMENSION :    270
EDGE_WEIGHT_TYPE : 	EUC_2D	
CAPACITY : 	267
VERTICES_WITHIN_COVERAGE :  7
VERTICES_WITH_DEMAND : 	115
NODE_COORD_SECTION
1 0 0
2 174 325
3 49 34
4 543 815
5 42 920
6 545 80
7 681 950
8 870 118
9 787 220
10 537 927
11 180 838
12 543 582
13 442 620
14 747 569
15 932 48
16 14 356
17 53 476
18 603 228
19 772 573
20 811 359
21 373 37
22 859 142
23 489 543
24 37 771
25 354 944
26 96 62
27 326 729
28 881 541
29 653 724
30 226 759
31 481 44
32 100 882
33 129 299
34 989 512
35 600 42
36 538 772
37 346 479
38 448 624
39 286 417
40 612 457
41 70 468
42 502 909
43 595 503
44 819 948
45 771 355
46 372 196
47 535 775
48 232 518
49 119 626
50 110 835
51 567 348
52 6 211
53 493 652
54 96 183
55 105 479
56 873 333
57 468 199
58 536 120
59 17 65
60 638 958
61 328 921
62 968 540
63 125 145
64 692 422
65 557 864
66 752 850
67 703 395
68 498 832
69 343 962
70 583 474
71 976 636
72 101 555
73 77 544
74 981 353
75 625 324
76 622 728
77 855 827
78 792 443
79 283 63
80 760 751
81 972 417
82 694 214
83 38 91
84 294 791
85 429 815
86 691 154
87 930 792
88 579 279
89 431 909
90 615 264
91 448 185
92 49 414
93 883 478
94 627 564
95 40 434
96 718 660
97 896 694
98 716 586
99 607 343
100 675 244
101 282 617
102 199 880
103 998 855
104 588 662
105 58 700
106 221 510
107 518 554
108 203 173
109 944 282
110 254 558
111 428 165
112 848 305
113 860 100
114 602 620
115 437 55
116 922 348
117 433 776
118 891 306
119 211 731
120 408 859
121 492 322
122 581 746
123 868 337
124 365 161
125 568 646
126 456 81
127 477 162
128 429 844
129 396 41
130 130 972
131 563 135
132 317 258
133 414 696
134 547 90
135 602 325
136 321 27
137 263 184
138 474 629
139 526 440
140 814 534
141 287 975
142 11 791
143 217 331
144 745 430
145 34 925
146 12 489
147 140 132
148 755 784
149 201 545
150 609 322
151 880 525
152 649 744
153 643 684
154 769 790
155 319 178
156 731 709
157 787 828
158 225 726
159 596 265
160 634 256
161 663 359
162 166 640
163 642 362
164 520 270
165 42 480
166 112 399
167 150 168
168 122 330
169 127 502
170 775 687
171 13 620
172 634 888
173 982 753
174 224 537
175 841 798
176 174 366
177 24 40
178 145 248
179 419 444
180 879 792
181 986 847
182 875 393
183 117 315
184 662 329
185 34 517
186 73 159
187 152 615
188 192 202
189 881 867
190 766 781
191 660 798
192 184 487
193 706 738
194 75 367
195 192 700
196 277 151
197 9 455
198 605 301
199 606 304
200 50 417
201 61 343
202 80 515
203 79 416
204 257 315
205 215 135
206 892 734
207 130 120
208 91 213
209 679 826
210 634 319
211 698 259
212 664 283
213 316 692
214 159 590
215 768 627
216 583 308
217 552 300
218 890 942
219 921 841
220 884 682
221 28 627
222 846 789
223 141 84
224 151 452
225 651 231
226 593 205
227 126 511
228 53 418
229 126 279
230 65 479
231 217 664
232 465 504
233 11 435
234 328 87
235 341 495
236 167 100
237 75 221
238 12 139
239 712 863
240 854 920
241 0 426
242 36 551
243 200 578
244 572 402
245 811 730
246 957 880
247 194 131
248 120 604
249 736 914
250 252 343
251 653 922
252 726 784
253 171 218
254 188 452
255 170 515
256 594 876
257 169 35
258 149 580
259 758 826
260 69 12
261 878 954
262 728 812
263 141 498
264 149 103
265 671 370
266 467 248
267 256 559
268 115 233
269 605 283
270 880 764
DEMAND_SECTION
2 73
3 71
4 59
5 29
6 19
7 79
8 27
9 13
10 77
11 21
12 99
13 24
14 71
15 38
16 59
17 56
18 41
19 87
20 28
21 81
22 18
23 49
24 28
25 35
26 86
27 40
28 89
29 75
30 25
31 56
32 43
33 57
34 88
35 37
36 88
37 76
38 37
39 67
40 3
41 64
42 53
43 72
44 55
45 22
46 56
47 51
48 30
49 15
50 1
51 46
52 78
53 18
54 62
55 100
56 43
57 87
58 4
59 71
60 87
61 36
62 77
63 61
64 5
65 96
66 82
67 22
68 33
69 30
70 32
71 88
72 5
73 47
74 47
75 28
76 65
77 77
78 13
79 57
80 52
81 36
82 24
83 78
84 17
85 12
86 50
87 70
88 45
89 41
90 11
91 51
92 54
93 14
94 70
95 76
96 57
97 59
98 100
99 7
100 10
101 23
102 25
103 65
104 70
105 2
106 25
107 91
108 86
109 48
110 24
111 94
112 7
113 19
114 97
115 79
116 15
COVERAGE_SECTION
2 6 176 143 33 168 183 229 
3 7 177 260 59 26 83 223 238 
4 7 47 36 68 65 122 256 42 
5 7 145 32 130 50 142 24 11 
6 7 134 58 131 35 31 126 127 
7 7 251 60 249 172 239 256 66 
8 7 113 22 15 9 109 86 112 
9 7 82 211 112 22 100 86 8 
10 7 42 65 256 68 172 60 89 
11 7 102 50 30 32 119 158 84 
12 7 107 23 125 114 138 53 94 
13 7 38 138 53 133 23 107 12 
14 7 19 98 215 140 96 94 170 
15 7 113 8 22 9 109 118 86 
16 6 201 194 92 200 241 228 
17 7 165 230 41 146 95 185 202 
18 7 226 90 159 160 225 269 88 
19 7 14 215 98 140 96 28 170 
20 7 45 123 112 56 182 78 118 
21 7 129 136 115 234 79 126 31 
22 7 8 113 9 15 112 109 118 
23 7 107 232 12 138 13 38 53 
24 7 142 105 50 32 221 5 171 
25 7 69 61 141 89 120 128 85 
26 7 223 3 260 83 207 264 177 
27 7 213 84 133 158 30 119 117 
28 7 151 93 140 62 34 19 78 
29 7 152 76 153 193 191 122 156 
30 7 119 158 195 84 11 231 27 
31 7 115 126 6 134 129 58 21 
32 7 50 5 145 11 130 102 142 
33 3 183 229 168 
34 7 62 81 151 93 28 71 74 
35 7 6 134 131 58 31 86 126 
36 7 47 4 122 68 65 76 117 
37 7 235 179 39 48 267 110 232 
38 7 13 138 53 133 23 107 12 
39 7 250 37 235 254 204 143 106 
40 7 70 43 244 64 139 163 265 
41 7 230 17 165 55 95 202 203 
42 7 10 65 89 68 128 256 4 
43 7 70 40 94 107 139 12 244 
44 5 240 261 218 249 189 
45 6 20 67 144 78 112 123 
46 7 124 155 111 91 132 57 196 
47 7 36 4 122 68 65 76 117 
48 7 106 174 149 110 267 192 255 
49 6 248 187 162 214 258 72 
50 7 32 11 24 102 142 5 145 
51 7 99 135 216 150 217 244 199 
52 5 237 238 186 208 54 
53 7 138 38 13 125 12 133 104 
54 7 208 186 237 63 268 167 147 
55 7 169 41 227 230 263 202 17 
56 7 123 118 112 116 182 20 109 
57 7 91 127 266 111 164 46 58 
58 7 131 134 6 127 126 31 35 
59 7 177 83 3 238 260 26 186 
60 7 251 7 172 256 10 249 239 
61 7 25 69 141 120 89 128 84 
62 7 34 28 151 71 93 81 140 
63 7 147 207 167 54 264 186 236 
64 6 67 144 265 161 163 40 
65 7 256 4 10 68 42 172 47 
66 7 259 157 239 262 154 148 249 
67 6 64 265 161 144 163 184 
68 7 4 65 47 128 85 36 42 
69 7 25 61 141 89 120 128 102 
70 7 43 40 139 244 94 107 12 
71 7 62 97 220 173 34 206 28 
72 7 73 202 227 248 258 169 242 
73 7 72 202 242 185 227 169 230 
74 7 116 81 109 118 56 182 123 
75 7 210 150 135 99 199 198 184 
76 7 29 152 122 153 104 191 193 
77 7 175 222 180 189 219 157 270 
78 7 144 20 45 140 93 182 67 
79 7 234 136 196 21 205 247 129 
80 7 190 148 154 252 156 245 193 
81 7 74 116 34 182 93 62 56 
82 7 100 211 225 86 160 212 18 
83 7 59 177 238 3 26 186 260 
84 7 27 30 158 213 119 11 102 
85 7 128 117 120 68 89 47 4 
86 7 82 225 100 211 226 18 9 
87 7 219 180 270 173 206 181 77 
88 7 159 269 216 198 217 199 90 
89 7 120 128 42 25 85 68 69 
90 7 159 160 269 18 198 88 199 
91 7 57 111 127 266 46 124 126 
92 7 200 228 95 203 233 241 194 
93 7 151 28 182 140 78 62 81 
94 7 114 43 12 98 70 125 104 
95 7 200 228 92 233 197 241 203 
96 7 156 215 170 98 153 193 29 
97 7 220 206 270 245 71 180 87 
98 7 14 19 215 96 94 140 170 
99 7 135 150 75 210 199 51 163 
100 7 211 225 82 212 160 90 18 
101 6 267 110 231 213 243 174 
102 7 11 32 50 130 30 141 84 
103 4 181 246 219 87 
104 7 125 114 153 76 122 29 12 
105 7 24 221 171 49 142 248 162 
106 7 48 174 149 192 255 110 267 
107 7 23 12 232 138 43 38 13 
108 7 188 205 247 167 253 137 147 
109 7 118 116 74 56 123 112 182 
110 7 267 174 48 149 106 243 101 
111 7 91 127 57 124 46 126 266 
112 7 56 123 118 20 116 45 182 
113 7 8 22 15 9 86 109 82 
114 7 125 104 94 12 153 107 76 
115 7 126 129 31 21 111 6 127 
116 7 56 118 123 74 182 109 81 
117 7 85 128 133 68 120 47 36 
118 7 56 123 112 116 109 182 20 
119 7 158 30 195 231 84 162 11 
120 7 128 85 89 117 68 25 61 
121 7 164 217 266 51 216 88 135 
122 7 76 36 47 152 29 4 104 
123 7 56 112 118 116 182 20 109 
124 7 46 155 111 234 91 196 137 
125 7 104 114 12 53 153 138 76 
126 7 115 31 129 127 6 58 111 
127 7 91 57 111 58 126 266 131 
128 7 120 85 89 117 68 42 4 
129 7 21 115 126 136 234 31 79 
130 7 32 5 145 102 50 11 141 
131 7 58 134 6 226 127 35 18 
132 7 155 46 204 137 250 124 196 
133 7 38 13 117 53 138 27 213 
134 7 6 58 131 35 31 126 127 
135 7 150 99 199 75 198 216 210 
136 7 79 21 234 129 115 196 124 
137 7 196 155 108 205 188 247 132 
138 7 38 53 13 12 23 107 133 
139 7 244 70 40 232 43 51 179 
140 7 19 28 151 14 93 78 215 
141 7 69 61 25 102 130 89 120 
142 7 24 105 50 32 5 145 221 
143 6 250 2 204 176 33 168 
144 7 78 64 67 45 265 20 161 
145 7 5 32 130 50 142 24 11 
146 7 165 197 185 17 230 233 41 
147 7 207 63 264 167 236 223 247 
148 7 190 154 252 80 262 259 157 
149 7 174 243 106 48 255 110 267 
150 7 135 75 199 99 198 210 216 
151 7 28 93 140 62 34 19 78 
152 6 29 76 191 193 153 122 
153 7 29 76 104 152 114 96 193 
154 7 190 148 259 80 157 252 262 
155 7 124 196 46 137 132 234 111 
156 7 193 170 80 96 252 29 148 
157 7 259 66 154 190 148 262 175 
158 7 119 30 195 231 84 213 27 
159 7 90 269 88 198 18 160 199 
160 7 90 225 159 212 269 18 100 
161 6 265 163 184 210 75 67 
162 6 187 49 214 231 248 258 
163 7 161 265 184 99 75 210 150 
164 7 217 266 121 88 216 159 269 
165 7 17 230 41 146 185 197 95 
166 6 203 194 228 92 200 224 
167 7 63 147 207 108 188 253 54 
168 3 183 33 229 
169 7 227 263 55 255 202 224 72 
170 7 156 245 215 96 80 193 190 
171 7 221 242 105 73 185 49 248 
172 7 251 256 60 209 7 65 239 
173 7 87 206 181 103 270 97 219 
174 7 48 149 106 110 267 243 255 
175 7 222 77 180 270 157 154 245 
176 5 2 143 168 166 183 
177 7 3 59 83 260 26 238 223 
178 7 268 229 253 33 208 188 183 
179 7 232 37 235 139 23 39 121 
180 7 270 222 175 77 87 206 219 
181 4 103 246 219 87 
182 7 123 56 116 20 93 118 112 
183 3 168 33 229 
184 6 161 210 75 163 265 212 
185 7 242 146 165 17 202 230 73 
186 7 54 63 208 237 238 207 147 
187 6 214 162 248 49 258 243 
188 7 253 108 167 178 205 247 137 
189 4 77 219 240 180 
190 7 154 148 80 252 259 262 157 
191 6 209 152 252 262 29 193 
192 7 255 254 106 263 224 48 169 
193 6 156 252 29 80 152 148 
194 4 201 166 203 92 
195 6 119 158 231 162 30 187 
196 7 137 155 205 108 234 247 79 
197 7 233 241 146 95 165 17 200 
198 7 199 269 150 216 135 75 88 
199 7 198 150 135 269 216 75 210 
200 7 92 228 95 203 233 241 41 
201 2 194 16 
202 7 73 230 55 72 185 227 17 
203 7 228 200 92 166 95 194 41 
204 7 250 143 132 2 176 39 33 
205 7 247 108 236 196 137 188 167 
206 7 270 97 220 180 87 222 245 
207 7 147 63 264 223 236 167 247 
208 6 237 54 268 186 178 167 
209 6 191 239 262 252 66 172 
210 7 75 150 184 199 135 198 99 
211 6 100 212 82 225 160 184 
212 6 160 100 211 184 210 90 
213 7 27 101 158 133 84 231 30 
214 6 258 187 248 243 162 49 
215 7 19 96 170 14 98 156 140 
216 7 198 199 135 88 150 217 269 
217 7 216 88 164 51 198 199 135 
218 3 261 240 44 
219 5 189 87 246 180 181 
220 7 97 206 270 245 71 170 180 
221 7 171 242 105 49 248 73 72 
222 7 175 180 77 270 245 157 206 
223 7 264 236 207 147 26 257 63 
224 7 254 263 192 55 169 227 166 
225 7 100 160 82 18 90 212 211 
226 7 18 159 90 225 160 88 131 
227 7 169 263 55 255 202 72 73 
228 7 200 92 95 203 233 41 241 
229 3 33 178 183 
230 7 17 41 165 202 55 185 95 
231 6 195 162 158 119 101 187 
232 7 23 107 179 139 12 13 38 
233 7 241 197 95 92 200 228 146 
234 7 79 136 21 129 196 124 155 
235 7 37 179 39 267 110 48 106 
236 7 264 223 247 147 207 205 63 
237 5 208 268 54 186 52 
238 7 83 186 52 59 54 177 237 
239 6 66 209 262 249 259 252 
240 4 218 261 44 189 
241 7 233 197 95 92 200 228 146 
242 7 185 73 202 72 146 165 171 
243 6 149 214 174 258 110 267 
244 7 51 139 40 99 70 163 135 
245 7 80 170 190 222 154 175 270 
246 3 181 103 219 
247 7 205 236 108 264 147 167 207 
248 6 49 187 258 214 72 162 
249 7 239 7 66 251 44 259 157 
250 7 204 143 2 39 176 132 254 
251 7 60 172 7 256 239 249 209 
252 6 262 148 190 154 80 193 
253 7 188 178 167 108 268 229 208 
254 7 192 224 255 263 106 48 169 
255 7 192 263 149 227 169 106 174 
256 7 65 172 251 10 4 60 42 
257 7 223 236 264 26 207 247 147 
258 6 214 187 248 243 72 49 
259 7 66 157 262 154 148 190 252 
260 7 3 177 26 59 83 223 257 
261 3 218 240 44 
262 6 252 259 148 66 154 190 
263 7 169 227 255 55 192 224 202 
264 7 236 223 207 147 63 247 167 
265 6 161 163 67 184 64 210 
266 7 57 164 91 121 127 111 217 
267 7 110 174 48 149 243 106 101 
268 6 208 178 237 229 54 253 
269 7 198 159 90 199 88 216 150 
270 7 180 206 222 175 87 77 97 
DEPOT_SECTION
   1
   -1
EOF
