NAME :  X-n256-kX-w51-c7.cctp
COMMENT : 	Adapted by Maziero, Usberti and Cavellucci from the Uchoa, Pecin, Pessoa, Poggi, Subramanian, and Vidal (2013)
TYPE :  CCTP
DIMENSION :    206
EDGE_WEIGHT_TYPE : 	EUC_2D	
CAPACITY : 	1225
VERTICES_WITHIN_COVERAGE :  7
VERTICES_WITH_DEMAND : 	51
NODE_COORD_SECTION
1 500 500
2 878 606
3 35 593
4 320 125
5 189 244
6 274 784
7 900 310
8 742 640
9 800 448
10 66 599
11 829 588
12 660 698
13 290 673
14 669 619
15 252 742
16 425 160
17 291 114
18 289 90
19 813 663
20 847 528
21 589 738
22 756 687
23 777 547
24 810 554
25 823 501
26 5 179
27 357 774
28 39 419
29 277 59
30 76 127
31 229 65
32 868 256
33 388 914
34 303 352
35 713 640
36 692 668
37 332 773
38 404 833
39 782 719
40 230 680
41 711 559
42 383 851
43 366 42
44 80 322
45 22 338
46 447 107
47 357 24
48 120 255
49 155 252
50 793 605
51 248 236
52 273 163
53 741 596
54 324 753
55 195 632
56 296 66
57 885 203
58 330 780
59 659 553
60 426 102
61 309 755
62 215 242
63 373 110
64 862 596
65 83 155
66 816 433
67 917 345
68 62 661
69 874 602
70 247 231
71 908 590
72 812 701
73 270 347
74 714 567
75 796 520
76 367 947
77 88 235
78 30 230
79 189 199
80 774 664
81 732 579
82 146 730
83 188 748
84 954 296
85 279 160
86 853 195
87 730 640
88 56 562
89 819 427
90 873 663
91 308 101
92 256 669
93 272 320
94 280 122
95 800 663
96 193 65
97 334 987
98 583 843
99 523 797
100 753 415
101 786 576
102 60 623
103 512 166
104 928 312
105 823 802
106 249 288
107 266 776
108 166 204
109 793 691
110 906 599
111 217 20
112 124 271
113 880 572
114 53 561
115 386 713
116 764 423
117 98 577
118 77 608
119 875 607
120 266 847
121 861 673
122 657 665
123 784 424
124 882 574
125 349 113
126 519 674
127 568 693
128 412 715
129 681 739
130 132 317
131 243 887
132 328 130
133 907 505
134 364 107
135 809 640
136 873 414
137 97 278
138 775 601
139 194 309
140 266 276
141 246 850
142 268 168
143 181 782
144 700 492
145 695 698
146 213 701
147 147 72
148 213 214
149 175 243
150 466 38
151 697 594
152 307 170
153 797 286
154 84 346
155 794 695
156 24 575
157 231 285
158 775 559
159 897 309
160 415 180
161 201 293
162 39 267
163 366 205
164 265 765
165 17 290
166 729 846
167 707 632
168 274 809
169 901 604
170 685 725
171 860 244
172 37 367
173 319 167
174 234 177
175 221 697
176 379 190
177 629 657
178 94 552
179 272 173
180 884 628
181 967 297
182 913 279
183 196 313
184 276 84
185 692 632
186 284 743
187 253 739
188 874 303
189 695 657
190 124 313
191 248 819
192 781 843
193 866 544
194 364 870
195 686 590
196 482 177
197 912 176
198 287 794
199 764 592
200 944 112
201 254 616
202 790 281
203 352 320
204 827 593
205 920 321
206 98 555
DEMAND_SECTION
2 83
3 68
4 78
5 76
6 79
7 76
8 78
9 61
10 78
11 79
12 86
13 53
14 66
15 81
16 87
17 88
18 66
19 84
20 86
21 89
22 84
23 84
24 88
25 83
26 66
27 53
28 88
29 74
30 81
31 61
32 76
33 83
34 92
35 76
36 54
37 99
38 64
39 67
40 62
41 87
42 72
43 80
44 72
45 74
46 72
47 62
48 92
49 77
50 87
51 62
52 81
COVERAGE_SECTION
2 7 119 69 64 169 180 110 124 
3 6 156 10 88 114 102 118 
4 7 132 91 17 125 94 173 18 
5 7 149 62 49 148 79 108 161 
6 7 107 198 164 168 186 191 61 
7 7 159 205 188 104 182 67 84 
8 6 87 35 167 80 53 22 
9 6 66 89 123 116 100 25 
10 6 118 102 3 88 117 114 
11 7 204 64 24 50 101 69 119 
12 7 122 145 170 36 129 177 189 
13 7 92 40 201 186 175 187 15 
14 6 185 195 151 167 189 122 
15 7 187 164 186 107 6 175 146 
16 7 160 176 46 60 196 63 163 
17 7 94 91 18 4 184 132 56 
18 7 184 91 17 56 29 94 4 
19 7 95 135 109 155 72 80 121 
20 7 193 25 24 75 113 124 11 
21 7 127 12 99 177 129 126 170 
22 7 80 109 155 39 8 95 87 
23 7 158 101 75 24 199 138 81 
24 7 101 23 158 75 11 204 20 
25 7 75 20 24 9 193 23 66 
26 7 78 65 30 162 77 165 137 
27 7 37 58 54 61 115 198 38 
28 4 172 45 154 44 
29 7 56 184 18 31 91 17 94 
30 7 65 26 147 77 78 108 96 
31 7 96 111 29 184 18 56 94 
32 7 171 188 182 57 159 7 86 
33 7 76 194 42 38 97 120 27 
34 6 73 93 203 106 140 157 
35 6 167 87 185 189 8 36 
36 7 189 145 35 122 185 167 12 
37 7 58 54 27 61 198 186 6 
38 7 42 194 27 33 58 37 54 
39 7 155 109 72 22 80 95 19 
40 7 175 146 92 55 13 187 15 
41 6 74 81 151 195 53 59 
42 7 194 38 33 27 58 37 76 
43 7 47 134 63 125 56 91 60 
44 7 154 190 137 130 45 172 112 
45 7 172 165 44 154 162 28 137 
46 7 60 16 150 63 196 160 134 
47 7 43 56 134 29 63 125 91 
48 7 112 137 49 77 149 190 130 
49 7 149 5 48 112 108 62 161 
50 7 138 101 199 204 135 11 158 
51 7 70 62 148 140 106 157 5 
52 7 85 142 179 152 174 94 173 
53 6 81 199 138 74 8 151 
54 7 61 37 58 27 186 198 6 
55 7 40 201 175 92 146 13 82 
56 7 29 18 184 91 17 94 4 
57 7 86 197 171 32 182 188 159 
58 7 37 27 54 61 198 6 186 
59 6 195 41 151 74 14 144 
60 7 46 63 16 134 150 125 160 
61 7 54 186 37 58 6 164 198 
62 7 5 148 51 70 149 157 79 
63 7 134 125 132 60 4 91 43 
64 7 69 119 2 113 124 11 204 
65 7 30 77 26 78 108 147 48 
66 6 89 9 123 116 136 100 
67 4 205 104 7 159 
68 7 102 118 10 3 117 156 88 
69 7 119 2 64 169 180 124 113 
70 7 51 62 148 140 157 174 106 
71 6 110 169 124 113 2 69 
72 7 155 109 39 19 95 80 121 
73 7 93 34 106 140 157 183 139 
74 6 41 81 151 195 53 199 
75 6 23 25 24 158 20 101 
76 6 33 97 194 42 38 131 
77 7 48 137 112 78 162 49 65 
78 7 162 26 77 165 137 65 48 
79 5 108 148 5 149 62 
80 7 95 22 109 155 19 8 135 
81 6 53 74 41 199 151 158 
82 7 83 143 146 175 40 15 187 
83 7 143 82 146 175 15 187 164 
84 7 181 104 205 182 7 159 67 
85 7 52 142 179 152 94 173 17 
86 7 57 171 197 32 182 153 202 
87 6 8 35 167 185 189 53 
88 4 114 156 3 10 
89 6 66 9 123 116 136 100 
90 7 121 180 119 2 19 69 169 
91 7 17 18 4 94 132 184 56 
92 7 40 13 175 201 146 187 55 
93 7 73 106 140 34 157 161 183 
94 7 17 18 91 85 184 4 52 
95 7 19 135 80 109 155 72 22 
96 7 31 147 111 29 184 18 56 
97 6 76 33 194 131 42 120 
98 7 99 21 129 166 127 170 12 
99 7 98 21 127 126 38 128 42 
100 3 116 123 9 
101 7 158 138 199 23 50 24 204 
102 7 118 10 68 3 117 156 88 
103 7 196 16 46 160 60 176 150 
104 7 205 7 84 159 67 182 181 
105 7 192 39 72 166 155 109 22 
106 7 157 140 93 161 51 62 70 
107 7 6 164 198 168 15 186 187 
108 5 79 149 5 148 49 
109 7 155 72 95 39 80 19 22 
110 6 169 71 2 69 119 124 
111 7 31 96 29 147 184 56 18 
112 7 48 137 49 190 130 77 149 
113 7 124 64 69 193 71 2 119 
114 4 88 156 3 10 
115 7 128 27 54 37 58 61 13 
116 5 100 123 9 66 89 
117 6 206 178 118 10 88 114 
118 6 10 102 117 3 88 114 
119 7 2 69 64 180 169 110 124 
120 7 141 191 168 131 198 6 107 
121 7 90 19 180 72 95 135 119 
122 7 177 12 36 189 14 185 145 
123 5 116 9 100 66 89 
124 7 113 69 64 71 2 119 193 
125 7 134 63 132 4 91 17 173 
126 7 127 21 177 128 99 122 115 
127 7 21 126 177 12 122 99 170 
128 7 115 27 54 37 58 61 126 
129 7 170 145 12 36 122 189 22 
130 7 190 112 44 137 154 48 139 
131 6 141 120 191 168 198 6 
132 7 4 125 91 173 17 134 152 
133 4 193 20 113 124 
134 7 63 125 132 4 91 60 43 
135 7 19 95 50 80 204 138 109 
136 3 89 66 9 
137 7 112 48 77 190 44 130 162 
138 7 199 50 101 53 158 81 8 
139 6 183 161 157 106 130 5 
140 7 106 157 51 93 70 62 161 
141 7 120 191 131 168 198 6 107 
142 7 179 52 85 174 152 94 173 
143 6 83 82 191 15 187 107 
144 2 41 59 
145 7 170 36 12 189 129 122 35 
146 7 175 40 83 92 187 15 55 
147 6 96 31 111 30 65 184 
148 5 62 79 5 70 51 
149 7 5 49 62 108 79 148 48 
150 7 46 60 43 47 63 134 16 
151 6 195 74 14 41 81 185 
152 7 173 85 52 179 142 132 4 
153 3 202 171 32 
154 7 44 172 190 130 45 137 112 
155 7 109 72 39 95 19 80 22 
156 4 3 114 88 10 
157 7 106 161 140 139 183 62 51 
158 7 23 101 24 199 138 75 81 
159 7 7 188 205 104 182 67 84 
160 7 16 176 163 196 60 46 63 
161 7 139 183 157 106 5 62 149 
162 7 165 78 77 137 44 45 48 
163 6 176 160 173 152 16 132 
164 7 107 6 15 186 187 198 61 
165 7 162 45 78 44 172 137 154 
166 7 192 105 129 170 39 98 145 
167 6 35 185 87 189 8 36 
168 7 198 6 191 107 120 164 141 
169 6 110 71 2 119 69 180 
170 7 129 145 12 36 122 189 22 
171 7 32 57 86 188 182 159 153 
172 7 45 154 28 44 165 162 190 
173 7 152 132 85 4 52 179 142 
174 5 142 179 52 148 85 
175 7 146 40 92 187 15 83 55 
176 6 163 160 16 173 152 132 
177 7 122 12 14 36 189 185 127 
178 5 206 117 88 114 10 
179 7 142 52 85 152 174 173 94 
180 7 2 119 69 169 110 90 64 
181 6 84 104 205 182 7 67 
182 7 7 159 104 205 84 188 32 
183 6 139 161 157 106 130 5 
184 7 18 29 56 17 91 94 31 
185 6 167 35 189 14 36 151 
186 7 61 164 187 15 107 54 6 
187 7 15 164 186 107 6 175 146 
188 7 159 7 182 32 205 104 67 
189 7 36 35 185 167 87 122 145 
190 7 130 112 137 44 154 48 49 
191 7 168 141 120 6 198 107 164 
192 7 166 105 39 129 72 155 109 
193 7 20 113 124 64 11 24 133 
194 7 42 33 38 76 27 58 120 
195 6 151 14 74 41 185 59 
196 7 103 16 160 46 60 176 163 
197 7 57 86 200 171 32 182 84 
198 7 6 168 107 164 58 61 191 
199 7 138 53 101 50 81 158 23 
200 7 197 57 86 171 32 182 84 
201 7 92 55 13 40 175 146 187 
202 3 153 171 32 
203 6 34 93 73 140 106 163 
204 7 11 64 50 24 101 69 119 
205 6 104 7 67 159 84 182 
206 5 178 117 88 114 10 
DEPOT_SECTION
   1
   -1
EOF
