NAME :  X-n242-kX-w96-c9.cctp
COMMENT : 	Adapted by Maziero, Usberti and Cavellucci from the Uchoa, Pecin, Pessoa, Poggi, Subramanian, and Vidal (2013)
TYPE :  CCTP
DIMENSION :    242
EDGE_WEIGHT_TYPE : 	EUC_2D	
CAPACITY : 	28
VERTICES_WITHIN_COVERAGE :  9
VERTICES_WITH_DEMAND : 	96
NODE_COORD_SECTION
1 0 0
2 346 793
3 692 966
4 171 666
5 287 795
6 93 919
7 712 216
8 991 988
9 475 266
10 71 307
11 83 987
12 518 392
13 807 134
14 377 164
15 692 127
16 701 530
17 831 255
18 938 210
19 873 127
20 569 817
21 796 379
22 6 182
23 917 620
24 728 936
25 157 644
26 668 333
27 564 876
28 861 333
29 70 79
30 330 931
31 513 308
32 230 725
33 896 107
34 234 758
35 911 970
36 177 587
37 697 37
38 947 615
39 861 54
40 620 667
41 739 572
42 861 818
43 917 398
44 555 473
45 992 303
46 701 695
47 588 974
48 556 781
49 627 213
50 19 93
51 837 398
52 277 133
53 521 177
54 694 875
55 575 428
56 949 337
57 752 458
58 432 417
59 173 459
60 881 966
61 101 210
62 270 113
63 951 30
64 959 856
65 554 981
66 72 873
67 681 319
68 149 612
69 799 203
70 30 618
71 92 644
72 997 104
73 727 707
74 163 790
75 364 966
76 119 969
77 931 207
78 820 844
79 630 384
80 721 103
81 209 814
82 176 751
83 476 638
84 76 178
85 62 523
86 737 499
87 442 611
88 42 123
89 194 726
90 835 589
91 521 825
92 554 637
93 11 702
94 129 540
95 659 941
96 122 683
97 123 119
98 111 386
99 253 262
100 338 989
101 844 543
102 596 175
103 657 234
104 369 551
105 688 921
106 228 473
107 676 942
108 463 128
109 875 97
110 982 861
111 67 607
112 445 748
113 828 305
114 659 433
115 43 98
116 216 200
117 673 668
118 387 303
119 768 421
120 258 543
121 737 698
122 124 97
123 859 222
124 130 599
125 52 803
126 157 460
127 888 289
128 970 456
129 854 776
130 600 549
131 877 51
132 992 969
133 80 304
134 893 539
135 805 76
136 990 256
137 873 464
138 306 119
139 101 574
140 836 204
141 74 223
142 438 996
143 150 894
144 979 964
145 733 939
146 716 390
147 787 27
148 947 450
149 599 860
150 893 538
151 801 106
152 846 847
153 627 625
154 553 193
155 435 902
156 860 100
157 472 765
158 605 123
159 887 327
160 752 426
161 996 198
162 789 612
163 803 935
164 361 801
165 760 739
166 170 958
167 786 418
168 107 470
169 531 586
170 646 977
171 892 113
172 486 445
173 778 834
174 438 499
175 128 494
176 572 1000
177 174 964
178 599 871
179 957 677
180 518 177
181 93 349
182 506 454
183 792 919
184 55 284
185 116 755
186 368 125
187 502 114
188 994 392
189 523 837
190 721 780
191 907 303
192 719 842
193 799 638
194 928 824
195 280 162
196 697 736
197 131 96
198 680 683
199 850 512
200 972 443
201 913 538
202 499 296
203 296 811
204 664 100
205 237 179
206 232 621
207 252 659
208 474 107
209 401 630
210 556 126
211 804 296
212 180 632
213 405 387
214 475 300
215 992 105
216 137 104
217 454 340
218 821 145
219 307 108
220 780 725
221 453 269
222 756 679
223 196 467
224 120 954
225 512 344
226 266 435
227 559 986
228 248 22
229 446 627
230 672 964
231 247 606
232 834 425
233 269 568
234 115 328
235 565 915
236 621 421
237 701 511
238 70 610
239 771 636
240 937 537
241 664 187
242 840 406
DEMAND_SECTION
2 6
3 2
4 2
5 1
6 8
7 3
8 1
9 4
10 7
11 10
12 4
13 6
14 9
15 7
16 2
17 6
18 2
19 2
20 5
21 4
22 6
23 4
24 10
25 1
26 1
27 1
28 3
29 1
30 4
31 6
32 1
33 7
34 9
35 7
36 3
37 10
38 10
39 6
40 4
41 1
42 3
43 10
44 10
45 7
46 9
47 10
48 8
49 4
50 10
51 7
52 7
53 7
54 5
55 1
56 3
57 8
58 10
59 7
60 3
61 6
62 3
63 9
64 7
65 10
66 6
67 5
68 8
69 8
70 5
71 2
72 5
73 8
74 1
75 7
76 10
77 9
78 7
79 9
80 7
81 5
82 2
83 5
84 4
85 6
86 10
87 3
88 6
89 3
90 6
91 4
92 3
93 3
94 7
95 6
96 6
97 9
COVERAGE_SECTION
2 9 164 203 5 112 34 157 32 30 81 
3 9 230 107 95 105 24 170 145 54 47 
4 9 25 212 96 68 89 206 36 124 207 
5 9 203 2 34 164 81 32 89 82 74 
6 9 224 66 76 143 11 166 177 125 74 
7 9 241 103 49 69 15 67 80 211 102 
8 9 132 144 35 60 110 64 194 163 152 
9 9 221 214 202 31 217 225 118 180 53 
10 9 133 184 181 234 141 98 61 84 22 
11 9 76 224 6 166 177 66 143 125 74 
12 9 225 172 182 55 217 31 44 58 202 
13 9 218 151 135 156 19 69 140 109 171 
14 9 186 138 219 108 195 52 208 62 221 
15 9 80 204 241 158 37 7 102 49 151 
16 9 237 86 41 57 130 114 160 153 162 
17 9 123 211 113 140 69 127 28 191 159 
18 9 77 161 136 123 127 191 140 19 171 
19 9 171 33 109 156 218 13 39 151 131 
20 9 48 91 189 149 27 178 235 157 54 
21 9 167 51 119 242 232 160 28 113 146 
22 9 88 84 141 50 115 61 184 29 97 
23 9 38 179 201 134 150 240 90 101 193 
24 9 145 105 3 107 230 183 95 54 163 
25 9 4 212 68 96 124 36 71 206 89 
26 9 67 79 146 103 114 236 7 160 49 
27 9 178 149 235 189 20 91 48 47 65 
28 9 159 113 127 191 211 51 242 21 17 
29 9 115 88 50 122 197 97 216 84 22 
30 9 75 100 155 203 142 164 2 5 177 
31 9 202 225 214 9 217 221 12 154 118 
32 9 34 89 82 207 4 5 81 74 206 
33 9 171 109 19 156 131 39 218 13 63 
34 9 32 89 82 81 5 74 203 207 4 
35 9 60 144 132 8 163 64 183 110 152 
36 9 68 212 124 25 206 94 231 139 4 
37 9 80 204 15 147 135 151 158 13 241 
38 9 23 179 240 201 134 150 90 101 199 
39 9 131 109 156 135 33 171 19 147 151 
40 9 153 117 198 92 46 196 73 130 169 
41 9 16 162 237 239 86 193 90 222 101 
42 9 152 129 78 194 173 64 183 220 110 
43 9 148 56 200 159 188 242 128 137 51 
44 9 55 182 172 236 130 12 114 79 169 
45 9 136 56 191 188 127 161 18 159 77 
46 9 198 73 121 117 196 222 165 220 40 
47 9 176 227 65 170 235 95 230 107 27 
48 9 20 91 189 157 149 27 178 112 40 
49 9 103 241 102 154 7 158 15 53 210 
50 9 115 88 29 22 84 122 97 197 216 
51 9 242 232 21 167 28 119 137 43 159 
52 9 62 195 138 219 205 116 186 14 228 
53 9 180 154 210 187 102 108 208 9 158 
54 9 192 105 107 24 95 145 3 230 173 
55 9 236 44 12 79 182 114 172 225 130 
56 9 191 45 159 43 188 127 28 136 200 
57 9 160 119 86 167 237 146 16 232 21 
58 9 213 172 217 174 182 12 225 118 214 
59 9 126 223 106 175 168 94 98 226 120 
60 9 35 163 144 183 132 8 152 64 78 
61 9 141 84 184 97 133 22 10 88 216 
62 9 52 138 219 195 205 228 186 116 14 
63 9 131 215 72 39 33 109 171 156 19 
64 9 110 194 42 144 152 132 35 129 60 
65 9 227 176 47 235 170 27 95 142 178 
66 9 6 125 143 224 76 11 74 185 166 
67 9 26 146 79 103 7 114 236 49 211 
68 9 124 25 212 36 4 139 71 94 96 
69 9 140 17 218 123 13 7 211 151 19 
70 9 111 238 71 139 93 85 124 96 68 
71 9 238 111 96 124 25 68 70 139 4 
72 9 215 63 161 33 171 18 77 109 19 
73 9 121 46 222 196 165 198 220 117 190 
74 9 82 81 185 89 34 32 143 125 96 
75 9 100 30 142 155 164 203 2 5 177 
76 9 224 11 166 177 6 143 66 81 125 
77 9 18 161 123 136 127 140 19 191 171 
78 9 152 173 42 129 183 163 192 194 190 
79 9 236 114 26 55 67 146 12 44 225 
80 9 15 204 37 151 135 13 147 241 218 
81 9 74 34 82 5 203 89 32 143 185 
82 9 89 74 34 32 185 81 4 96 25 
83 9 229 87 209 169 92 112 157 104 174 
84 9 61 141 88 22 97 115 122 216 29 
85 9 139 94 168 175 111 238 70 124 126 
86 9 237 57 16 41 160 119 167 114 146 
87 9 229 83 209 169 104 174 92 112 157 
88 9 115 50 29 84 22 97 122 197 216 
89 9 82 32 34 4 74 185 96 81 207 
90 9 101 162 193 134 150 199 239 23 201 
91 9 189 20 48 27 157 149 178 235 112 
92 9 169 40 153 83 130 229 87 117 198 
93 9 70 71 125 238 111 96 185 139 25 
94 9 139 175 124 36 85 168 68 126 111 
95 9 107 230 105 170 3 24 145 54 47 
96 9 71 4 25 185 68 212 89 124 82 
97 9 216 122 197 29 84 88 115 61 50 
98 9 181 234 168 126 133 10 59 175 184 
99 9 116 205 195 52 118 62 138 234 14 
100 9 75 30 142 155 177 166 203 164 2 
101 9 199 90 134 150 201 137 162 240 193 
102 9 154 49 158 210 241 53 180 103 204 
103 9 49 241 7 102 67 26 154 15 158 
104 9 209 174 87 233 229 120 231 83 58 
105 9 107 95 24 3 54 230 145 170 192 
106 9 223 226 59 126 120 175 233 94 168 
107 9 95 230 105 3 170 24 145 54 47 
108 9 208 187 180 53 14 210 186 154 9 
109 9 156 33 171 19 39 131 218 135 151 
110 9 64 194 144 132 8 42 35 152 60 
111 9 238 70 71 139 124 68 85 94 96 
112 9 157 164 91 2 83 48 189 229 209 
113 9 211 28 17 127 159 191 21 123 51 
114 9 236 79 146 55 237 160 57 26 86 
115 9 50 88 29 122 97 84 197 22 216 
116 9 205 99 195 52 62 61 138 97 216 
117 9 198 46 40 153 73 121 196 222 239 
118 9 221 217 213 214 9 202 58 31 225 
119 9 160 167 57 21 146 232 51 242 86 
120 9 233 231 106 206 36 223 226 104 207 
121 9 73 222 46 165 220 196 198 117 239 
122 9 197 216 97 29 115 88 84 50 61 
123 9 140 17 69 127 77 18 218 113 211 
124 9 68 139 36 25 71 94 212 238 111 
125 9 66 185 93 74 6 82 143 96 81 
126 9 59 223 175 168 106 94 98 226 85 
127 9 191 159 28 113 17 123 56 211 18 
128 9 200 148 188 43 240 137 201 150 134 
129 9 42 152 78 194 220 173 165 64 190 
130 9 169 153 44 92 16 237 40 55 114 
131 9 39 109 156 33 171 19 135 63 147 
132 9 144 8 35 110 60 64 194 152 163 
133 9 10 184 234 181 141 98 61 84 22 
134 9 150 201 240 101 199 90 137 23 38 
135 9 151 147 13 39 156 218 109 131 19 
136 9 45 161 18 77 56 191 127 159 123 
137 9 199 232 242 51 148 150 134 43 101 
138 9 219 52 62 195 186 14 205 228 116 
139 9 124 94 111 238 68 85 71 36 70 
140 9 123 69 17 218 13 19 77 211 127 
141 9 61 84 184 22 133 10 88 234 97 
142 9 75 155 100 65 227 30 176 235 47 
143 9 6 166 224 177 66 76 81 74 11 
144 9 132 8 35 60 110 64 194 152 163 
145 9 24 105 3 107 183 230 163 95 54 
146 9 160 119 114 26 167 57 67 21 79 
147 9 135 39 151 37 131 80 156 13 109 
148 9 128 200 43 137 188 240 201 150 134 
149 9 178 27 20 235 189 91 48 54 95 
150 9 134 201 240 101 199 90 137 23 38 
151 9 13 135 218 156 19 109 39 80 147 
152 9 78 42 173 129 194 183 163 64 60 
153 9 40 117 92 198 130 46 169 16 41 
154 9 53 180 102 210 49 158 187 9 108 
155 9 142 75 30 189 91 164 100 235 27 
156 9 109 19 171 33 39 131 151 135 218 
157 9 112 91 48 189 20 164 83 2 229 
158 9 210 102 204 15 154 241 49 53 180 
159 9 28 191 127 56 113 43 51 211 17 
160 9 119 57 167 146 21 86 232 51 242 
161 9 136 18 77 215 72 45 171 33 191 
162 9 193 239 90 41 222 101 121 73 220 
163 9 183 145 24 60 78 152 173 35 3 
164 9 2 203 5 112 157 155 30 34 32 
165 9 220 73 121 190 222 196 46 173 198 
166 9 177 224 76 143 6 11 66 81 30 
167 9 119 160 21 232 57 51 242 146 86 
168 9 175 126 59 85 94 98 223 139 106 
169 9 92 83 130 87 229 153 44 40 174 
170 9 230 95 107 3 47 105 176 227 24 
171 9 33 109 19 156 131 39 218 13 151 
172 9 182 58 12 174 44 55 213 225 217 
173 9 78 192 152 190 42 183 54 129 165 
174 9 172 58 182 104 87 213 44 169 229 
175 9 168 126 94 59 85 223 139 106 36 
176 9 227 65 47 170 235 95 230 107 27 
177 9 166 76 224 143 6 11 66 81 30 
178 9 149 27 235 20 189 91 95 54 48 
179 9 38 23 240 129 201 90 194 134 150 
180 9 53 154 210 187 108 102 208 9 158 
181 9 234 98 10 133 184 168 141 126 59 
182 9 172 44 12 55 174 58 225 236 213 
183 9 163 145 24 78 173 152 60 105 192 
184 9 10 133 141 234 181 61 84 22 98 
185 9 74 82 96 125 89 4 81 71 25 
186 9 14 138 219 52 108 195 62 208 187 
187 9 208 108 210 180 53 154 158 102 186 
188 9 200 128 56 148 43 45 191 159 136 
189 9 91 20 27 48 149 178 157 235 155 
190 9 196 165 192 73 173 220 121 46 54 
191 9 127 159 56 28 113 45 17 123 136 
192 9 54 173 190 105 24 145 78 183 196 
193 9 162 239 222 90 121 41 220 73 101 
194 9 64 110 42 152 129 78 35 144 60 
195 9 52 205 62 138 219 116 186 14 99 
196 9 46 73 190 121 198 165 117 222 220 
197 9 122 216 97 29 115 88 84 50 61 
198 9 117 46 73 196 121 40 222 153 165 
199 9 101 150 134 137 201 90 232 240 242 
200 9 128 148 188 43 240 137 56 201 134 
201 9 134 150 240 199 101 23 38 137 90 
202 9 31 214 9 225 221 217 12 118 154 
203 9 5 2 164 34 81 32 30 89 82 
204 9 15 80 158 37 241 102 210 49 7 
205 9 116 195 52 62 99 138 219 216 97 
206 9 231 207 212 36 233 4 25 120 68 
207 9 206 231 32 212 4 89 233 25 34 
208 9 108 187 180 53 210 186 14 154 158 
209 9 87 229 83 104 112 174 169 233 207 
210 9 158 187 53 102 180 154 208 108 204 
211 9 113 17 28 21 127 159 123 69 140 
212 9 25 4 68 36 206 124 231 96 207 
213 9 58 217 118 172 214 12 225 174 182 
214 9 202 9 221 31 217 225 118 12 213 
215 9 72 63 161 33 171 109 18 77 19 
216 9 197 122 97 29 115 84 88 61 50 
217 9 214 225 202 31 213 221 9 118 58 
218 9 13 151 19 156 140 69 135 109 171 
219 9 138 62 52 195 186 14 205 228 116 
220 9 165 121 222 73 190 196 46 193 239 
221 9 9 214 202 217 31 118 225 180 53 
222 9 121 73 239 220 46 193 165 162 198 
223 9 59 106 126 175 226 168 120 94 98 
224 9 76 6 11 166 177 143 66 81 125 
225 9 31 12 202 214 217 9 221 172 55 
226 9 106 223 59 120 126 233 213 175 104 
227 9 65 176 47 235 170 27 95 230 142 
228 9 62 219 138 52 197 216 195 122 205 
229 9 87 83 209 169 92 104 112 174 157 
230 9 3 107 95 170 105 24 145 47 54 
231 9 206 233 207 120 212 36 4 25 68 
232 9 242 51 167 137 21 119 160 43 57 
233 9 120 231 206 207 36 104 106 212 223 
234 9 181 133 10 98 184 141 61 126 168 
235 9 27 178 47 149 65 227 176 189 20 
236 9 79 114 55 44 26 146 12 67 182 
237 9 16 86 41 57 114 160 130 119 236 
238 9 111 71 70 139 124 68 85 96 94 
239 9 193 162 222 121 41 90 73 220 46 
240 9 201 134 150 38 23 128 148 199 101 
241 9 49 103 7 15 102 158 204 80 154 
242 9 51 232 21 167 137 119 28 43 160 
DEPOT_SECTION
   1
   -1
EOF
