NAME :  X-n261-kX-w26-c7.cctp
COMMENT : 	Adapted by Maziero, Usberti and Cavellucci from the Uchoa, Pecin, Pessoa, Poggi, Subramanian, and Vidal (2013)
TYPE :  CCTP
DIMENSION :    153
EDGE_WEIGHT_TYPE : 	EUC_2D	
CAPACITY : 	1081
VERTICES_WITHIN_COVERAGE :  7
VERTICES_WITH_DEMAND : 	26
NODE_COORD_SECTION
1 0 0
2 377 105
3 535 93
4 820 625
5 689 745
6 774 283
7 399 810
8 242 139
9 300 948
10 557 255
11 22 828
12 27 768
13 961 829
14 825 225
15 288 996
16 126 160
17 219 243
18 504 918
19 532 806
20 566 734
21 327 943
22 848 66
23 45 889
24 952 169
25 736 63
26 939 925
27 569 517
28 969 917
29 603 637
30 800 102
31 879 687
32 289 83
33 836 360
34 21 962
35 857 715
36 572 230
37 760 763
38 470 796
39 927 576
40 524 679
41 155 89
42 629 678
43 618 236
44 338 855
45 774 799
46 811 201
47 892 995
48 449 985
49 120 176
50 552 983
51 790 650
52 717 607
53 351 60
54 546 941
55 567 342
56 790 315
57 568 9
58 600 355
59 909 984
60 992 956
61 614 755
62 883 36
63 463 924
64 789 99
65 792 669
66 60 712
67 629 450
68 533 49
69 853 566
70 573 191
71 519 673
72 536 532
73 926 788
74 513 86
75 391 39
76 741 723
77 936 7
78 799 359
79 689 805
80 339 47
81 607 57
82 324 924
83 358 40
84 823 138
85 453 911
86 771 182
87 912 18
88 854 59
89 729 52
90 572 821
91 126 236
92 167 213
93 277 169
94 184 250
95 563 253
96 978 112
97 724 23
98 161 329
99 461 782
100 237 951
101 105 942
102 972 950
103 749 340
104 744 110
105 181 44
106 420 81
107 309 69
108 987 831
109 953 17
110 395 150
111 484 870
112 488 756
113 138 121
114 506 839
115 734 57
116 671 263
117 578 546
118 380 871
119 920 900
120 282 281
121 835 214
122 895 580
123 785 78
124 407 979
125 346 961
126 938 233
127 572 723
128 545 568
129 348 33
130 514 471
131 59 792
132 536 745
133 781 371
134 440 901
135 953 180
136 264 881
137 94 101
138 202 225
139 148 85
140 93 799
141 999 195
142 660 791
143 547 966
144 980 316
145 608 512
146 398 136
147 547 880
148 523 885
149 536 487
150 59 176
151 471 123
152 335 879
153 796 593
DEMAND_SECTION
2 64
3 73
4 98
5 36
6 76
7 13
8 74
9 43
10 80
11 59
12 95
13 33
14 68
15 35
16 64
17 59
18 22
19 10
20 60
21 36
22 20
23 49
24 67
25 69
26 83
27 99
COVERAGE_SECTION
2 7 146 110 106 53 75 83 80 
3 4 74 68 151 81 
4 7 51 153 65 69 31 122 35 
5 7 142 76 79 37 61 42 45 
6 7 56 103 14 78 133 46 121 
7 7 118 99 38 44 152 134 111 
8 7 93 32 138 107 41 92 113 
9 7 21 82 125 15 100 136 152 
10 4 95 36 43 70 
11 6 131 12 23 140 66 34 
12 5 131 11 66 140 23 
13 7 108 73 119 28 26 102 60 
14 6 121 46 86 6 84 56 
15 7 9 21 100 125 82 136 124 
16 6 49 113 92 137 150 91 
17 7 138 94 92 120 91 93 98 
18 7 148 63 54 85 111 147 143 
19 7 114 90 132 38 112 99 147 
20 7 127 132 61 40 71 19 112 
21 7 82 125 9 152 15 124 136 
22 7 88 62 30 123 64 84 87 
23 6 11 34 101 131 140 12 
24 7 135 141 96 126 121 84 14 
25 7 115 89 97 104 123 64 30 
26 7 28 119 102 60 59 47 13 
27 7 117 72 145 149 128 130 67 
28 7 26 102 60 119 13 108 59 
29 7 42 40 128 71 127 117 20 
30 7 64 123 84 104 22 88 25 
31 3 35 4 65 
32 7 107 80 53 8 129 83 93 
33 5 78 133 56 103 6 
34 6 23 101 11 131 140 12 
35 4 31 65 51 4 
36 4 95 10 70 43 
37 5 45 76 5 79 65 
38 7 99 112 114 19 7 111 132 
39 3 122 69 4 
40 7 71 127 132 20 112 29 42 
41 6 139 113 105 137 16 49 
42 7 29 127 61 20 5 40 71 
43 5 36 95 116 10 70 
44 6 152 118 82 7 136 21 
45 4 37 76 79 5 
46 5 121 14 86 84 6 
47 6 59 26 102 119 60 28 
48 7 124 63 85 134 18 143 50 
49 5 16 113 91 92 150 
50 4 143 54 18 148 
51 7 65 4 153 52 76 35 31 
52 6 153 51 65 4 42 29 
53 7 80 83 129 107 75 2 32 
54 5 143 50 18 147 148 
55 3 58 10 95 
56 7 6 78 103 133 33 14 121 
57 6 68 81 3 74 151 97 
58 4 55 67 10 95 
59 6 47 26 102 119 60 28 
60 7 102 28 26 59 119 47 108 
61 7 20 127 142 5 42 90 132 
62 7 87 88 22 77 109 30 123 
63 7 85 134 18 111 48 148 124 
64 7 30 123 104 84 25 22 115 
65 6 51 4 76 153 35 31 
66 3 12 131 140 
67 2 145 27 
68 5 74 3 57 81 151 
69 4 122 153 4 39 
70 4 36 95 43 10 
71 7 40 127 132 20 112 29 128 
72 6 27 128 117 149 130 145 
73 3 13 108 35 
74 3 3 68 151 
75 6 83 129 53 106 80 2 
76 6 37 5 65 45 51 79 
77 7 109 87 62 88 22 96 24 
78 5 133 33 56 103 6 
79 5 142 5 37 45 61 
80 7 129 53 83 107 75 32 2 
81 6 57 68 3 74 89 97 
82 7 21 9 125 152 44 136 118 
83 7 129 80 53 75 107 2 106 
84 6 30 64 46 86 123 22 
85 7 63 134 18 111 48 148 124 
86 5 46 84 14 121 104 
87 7 77 62 109 88 22 96 30 
88 7 22 62 30 87 123 64 84 
89 7 115 25 97 104 123 64 30 
90 5 19 147 114 61 148 
91 4 92 49 94 16 
92 6 138 94 91 17 49 16 
93 7 8 32 17 138 107 120 92 
94 7 138 17 92 91 98 49 120 
95 5 10 36 43 70 55 
96 7 24 135 141 109 77 87 62 
97 7 89 115 25 123 104 64 30 
98 3 94 91 17 
99 7 38 112 7 114 19 132 111 
100 7 9 15 136 21 82 125 152 
101 5 23 34 100 11 140 
102 7 60 28 26 59 119 47 108 
103 5 133 56 78 6 33 
104 6 64 25 123 115 30 89 
105 6 41 139 113 137 8 32 
106 6 2 75 146 151 53 110 
107 7 32 80 53 129 83 2 75 
108 7 13 73 28 119 26 102 60 
109 7 77 87 62 96 88 22 24 
110 4 146 2 106 151 
111 7 114 148 85 18 134 63 147 
112 7 99 38 132 19 20 40 114 
113 7 41 139 16 137 49 105 92 
114 7 111 19 148 38 147 90 99 
115 7 25 89 97 104 123 64 30 
116 5 43 36 6 95 103 
117 7 27 128 72 145 149 29 130 
118 7 44 152 7 134 82 85 21 
119 7 26 28 102 13 59 60 108 
120 3 17 138 94 
121 6 14 46 86 84 6 126 
122 5 39 69 4 153 31 
123 7 64 30 25 104 115 89 22 
124 7 48 125 63 85 134 21 82 
125 7 21 82 9 124 15 152 118 
126 6 135 24 141 144 121 14 
127 7 20 132 61 40 42 71 112 
128 7 72 117 27 149 145 29 130 
129 7 83 80 53 75 107 32 2 
130 3 149 72 27 
131 5 140 12 11 66 23 
132 7 20 127 112 19 40 71 61 
133 5 78 103 33 56 6 
134 7 85 63 111 18 118 48 124 
135 7 24 141 126 96 121 14 84 
136 6 152 82 100 9 44 21 
137 4 113 139 41 16 
138 7 17 94 92 91 93 8 49 
139 6 41 113 105 137 16 49 
140 5 131 12 11 66 23 
141 6 135 24 126 96 144 121 
142 4 79 5 61 90 
143 5 50 54 18 148 147 
144 4 126 141 135 24 
145 6 27 117 67 72 149 128 
146 5 110 2 106 151 53 
147 6 148 18 114 54 90 111 
148 7 147 18 111 114 54 63 85 
149 6 130 27 72 117 145 128 
150 2 49 16 
151 3 74 106 3 
152 7 44 82 118 21 136 9 125 
153 6 4 51 69 65 52 122 
DEPOT_SECTION
   1
   -1
EOF
