NAME :  X-n237-kX-w23-c9.cctp
COMMENT : 	Adapted by Maziero, Usberti and Cavellucci from the Uchoa, Pecin, Pessoa, Poggi, Subramanian, and Vidal (2013)
TYPE :  CCTP
DIMENSION :    155
EDGE_WEIGHT_TYPE : 	EUC_2D	
CAPACITY : 	18
VERTICES_WITHIN_COVERAGE :  9
VERTICES_WITH_DEMAND : 	23
NODE_COORD_SECTION
1 0 0
2 80 386
3 521 652
4 597 936
5 836 69
6 503 987
7 618 169
8 115 662
9 312 175
10 78 83
11 364 317
12 12 454
13 980 537
14 403 383
15 144 443
16 739 464
17 886 511
18 904 106
19 794 539
20 821 608
21 781 347
22 336 490
23 101 736
24 365 68
25 282 286
26 54 50
27 651 264
28 183 707
29 5 651
30 867 449
31 75 82
32 522 8
33 833 699
34 881 677
35 536 593
36 99 113
37 120 133
38 428 231
39 190 508
40 431 218
41 569 117
42 865 639
43 708 9
44 511 977
45 229 467
46 956 568
47 431 929
48 913 42
49 854 504
50 236 176
51 377 404
52 380 468
53 620 146
54 675 114
55 556 640
56 99 777
57 12 194
58 920 116
59 846 384
60 525 23
61 199 348
62 757 593
63 573 358
64 264 448
65 246 267
66 555 181
67 738 446
68 102 787
69 669 905
70 490 45
71 883 547
72 971 638
73 256 227
74 489 411
75 514 866
76 7 118
77 161 160
78 27 21
79 695 395
80 20 546
81 379 259
82 686 273
83 157 499
84 649 934
85 999 236
86 978 479
87 440 534
88 26 411
89 114 126
90 661 528
91 695 420
92 172 317
93 116 701
94 940 438
95 824 136
96 837 507
97 542 708
98 441 235
99 808 413
100 68 374
101 593 651
102 71 712
103 918 629
104 165 731
105 285 379
106 788 366
107 33 507
108 597 983
109 799 35
110 414 697
111 529 178
112 118 484
113 349 554
114 477 280
115 591 189
116 807 670
117 163 621
118 245 24
119 960 27
120 139 44
121 281 434
122 684 501
123 284 414
124 57 354
125 306 107
126 952 66
127 862 741
128 806 277
129 782 700
130 951 550
131 710 44
132 407 191
133 629 133
134 608 911
135 760 125
136 727 517
137 73 420
138 637 903
139 676 550
140 933 456
141 812 155
142 846 181
143 116 175
144 344 992
145 28 667
146 439 245
147 891 450
148 156 734
149 390 441
150 42 176
151 505 517
152 923 66
153 313 79
154 631 889
155 471 120
DEMAND_SECTION
2 1
3 1
4 1
5 1
6 1
7 1
8 1
9 1
10 1
11 1
12 1
13 1
14 1
15 1
16 1
17 1
18 1
19 1
20 1
21 1
22 1
23 1
24 1
COVERAGE_SECTION
2 9 100 137 124 88 15 12 112 92 61 
3 4 55 97 35 101 
4 9 134 108 84 138 154 69 44 6 75 
5 9 109 95 18 48 152 141 135 58 142 
6 8 44 47 108 4 75 134 84 138 
7 8 53 115 133 66 41 54 111 27 
8 8 93 117 102 23 28 148 104 145 
9 9 125 50 73 132 153 81 65 25 24 
10 9 31 36 26 89 37 120 76 78 143 
11 9 81 14 25 51 105 146 38 98 114 
12 8 88 107 137 80 2 100 112 124 
13 9 130 46 86 140 17 71 72 94 103 
14 9 51 149 11 52 74 105 123 22 81 
15 8 112 83 137 39 2 45 100 61 
16 9 67 136 91 122 79 99 19 90 96 
17 9 49 71 96 147 30 140 130 46 94 
18 9 58 152 126 48 5 95 142 119 141 
19 9 96 62 49 136 20 71 16 17 67 
20 9 42 116 62 19 71 34 33 103 129 
21 8 106 99 128 59 79 67 91 82 
22 8 52 113 149 121 64 123 51 45 
23 9 93 102 56 68 148 104 8 28 145 
24 8 153 125 155 9 70 118 132 40 
25 8 65 73 11 105 81 61 92 9 
26 9 31 78 10 36 76 120 89 37 150 
27 5 82 115 7 53 63 
28 5 104 148 93 8 23 
29 6 145 102 80 8 93 23 
30 9 147 49 17 96 140 59 99 94 71 
31 9 10 26 36 89 37 120 76 78 150 
32 9 60 70 41 155 133 24 53 111 66 
33 8 116 127 129 34 42 20 103 62 
34 9 42 33 103 127 116 20 72 129 71 
35 6 55 3 101 151 87 97 
36 9 89 37 10 31 143 26 77 120 150 
37 8 89 36 143 77 10 31 150 120 
38 9 40 98 146 132 81 114 11 111 155 
39 4 83 45 112 15 
40 9 38 98 146 132 81 114 111 155 11 
41 9 53 133 66 7 111 115 155 60 54 
42 9 34 20 103 116 33 71 127 129 72 
43 7 131 109 54 135 5 133 53 
44 8 6 108 47 4 75 134 84 138 
45 6 64 39 121 123 83 15 
46 9 130 13 72 103 71 17 86 140 42 
47 4 6 44 75 144 
48 9 152 126 119 18 58 5 109 95 141 
49 9 96 17 71 30 147 19 140 99 130 
50 7 73 9 77 65 125 25 143 
51 9 14 149 52 11 123 22 105 121 74 
52 9 149 22 51 14 87 113 121 123 64 
53 7 133 7 115 41 54 66 111 
54 7 133 53 131 7 135 41 43 
55 4 3 101 35 97 
56 6 68 23 102 148 93 104 
57 7 150 76 143 36 89 37 10 
58 9 18 152 126 48 5 95 119 142 141 
59 8 99 106 30 21 147 94 140 128 
60 9 32 70 41 155 133 53 111 66 24 
61 7 92 105 65 25 123 15 64 
62 7 19 20 136 116 139 129 90 
63 8 74 27 114 79 91 82 115 14 
64 7 121 123 45 105 22 39 52 
65 7 25 73 92 50 61 9 105 
66 9 111 115 7 41 53 133 155 98 114 
67 9 16 91 79 136 99 122 106 21 19 
68 6 56 23 148 102 104 93 
69 5 138 84 154 134 4 
70 9 60 32 155 41 24 111 66 53 133 
71 9 17 49 96 130 46 20 19 103 42 
72 9 103 46 130 34 13 42 71 127 33 
73 7 65 50 25 9 77 92 81 
74 8 14 63 149 151 51 52 87 114 
75 4 47 134 4 44 
76 9 150 57 31 10 26 36 78 89 37 
77 7 143 37 89 50 36 10 31 
78 9 26 31 10 76 120 36 89 37 150 
79 9 91 67 16 106 21 122 99 82 136 
80 3 107 12 29 
81 9 38 11 146 40 98 132 114 25 9 
82 5 27 21 128 79 7 
83 4 39 112 15 45 
84 6 138 69 134 154 4 108 
85 5 58 18 142 126 152 
86 8 140 94 13 130 46 147 17 30 
87 8 151 52 113 149 22 35 74 3 
88 9 12 137 100 2 124 107 112 15 80 
89 8 37 36 143 10 77 31 120 150 
90 6 139 122 136 16 67 91 
91 9 79 67 16 122 136 106 21 90 99 
92 6 61 65 25 2 100 124 
93 9 23 8 102 148 104 28 56 68 117 
94 8 140 147 86 30 17 13 49 59 
95 6 141 142 135 5 18 58 
96 9 49 17 19 71 30 147 99 20 16 
97 3 3 55 101 
98 9 146 38 40 132 114 81 111 11 155 
99 9 59 106 30 21 67 16 147 96 49 
100 8 2 124 137 88 12 15 92 112 
101 4 55 3 97 35 
102 9 23 93 145 8 56 68 148 29 104 
103 9 42 72 34 46 130 71 20 33 13 
104 6 148 28 93 23 56 68 
105 9 123 121 64 61 25 51 11 45 14 
106 9 21 99 59 128 67 79 91 16 30 
107 5 80 12 112 88 137 
108 9 4 84 134 44 138 6 154 69 75 
109 9 5 131 43 135 95 48 141 18 152 
110 2 3 97 
111 9 66 115 41 155 7 53 98 40 133 
112 5 83 15 39 137 107 
113 4 22 52 87 149 
114 9 146 98 38 40 81 132 111 11 63 
115 9 7 66 53 111 133 41 27 54 82 
116 9 33 129 20 42 34 127 62 103 19 
117 2 8 28 
118 8 153 125 120 24 50 77 9 37 
119 9 126 48 152 18 58 5 109 95 142 
120 8 10 31 36 26 89 37 118 78 
121 7 123 64 105 45 22 51 52 
122 7 90 136 139 16 67 91 79 
123 9 121 105 64 45 22 51 61 149 52 
124 7 100 2 88 137 12 92 15 
125 8 153 9 24 50 118 73 132 77 
126 9 152 119 48 58 18 5 95 109 142 
127 7 33 34 116 129 42 103 20 
128 5 21 106 142 59 82 
129 7 116 33 127 20 34 42 62 
130 9 46 13 71 17 86 103 72 140 49 
131 7 43 54 109 135 133 5 53 
132 9 40 38 98 146 81 9 155 114 111 
133 7 53 7 54 41 115 66 111 
134 6 4 138 154 84 69 108 
135 5 141 95 54 5 131 
136 8 122 16 139 90 19 67 62 91 
137 9 2 100 88 124 12 15 112 107 83 
138 5 154 134 69 84 4 
139 5 90 122 136 62 16 
140 8 94 147 86 30 17 49 13 130 
141 4 95 142 135 5 
142 6 141 95 18 58 135 128 
143 7 37 77 89 36 150 10 31 
144 3 47 6 44 
145 6 29 102 8 93 23 80 
146 9 98 38 40 114 81 132 11 111 155 
147 9 30 140 94 17 49 96 59 99 86 
148 6 104 28 93 23 56 68 
149 9 52 51 14 22 74 87 121 123 113 
150 7 57 76 143 36 89 37 10 
151 8 87 35 74 55 52 3 149 90 
152 9 48 126 18 58 119 5 95 109 142 
153 8 125 24 118 9 50 132 73 155 
154 5 138 134 69 84 4 
155 9 70 111 132 41 66 40 60 24 38 
DEPOT_SECTION
   1
   -1
EOF
