NAME :  X-n275-kX-w27-c9.cctp
COMMENT : 	Adapted by Maziero, Usberti and Cavellucci from the Uchoa, Pecin, Pessoa, Poggi, Subramanian, and Vidal (2013)
TYPE :  CCTP
DIMENSION :    163
EDGE_WEIGHT_TYPE : 	EUC_2D	
CAPACITY : 	10
VERTICES_WITHIN_COVERAGE :  9
VERTICES_WITH_DEMAND : 	27
NODE_COORD_SECTION
1 409 418
2 378 220
3 469 585
4 91 695
5 351 130
6 424 101
7 70 693
8 324 133
9 367 215
10 218 906
11 90 688
12 417 223
13 42 693
14 134 482
15 594 488
16 431 269
17 383 606
18 100 597
19 85 697
20 378 218
21 196 640
22 213 635
23 520 537
24 509 542
25 388 549
26 476 583
27 409 565
28 155 828
29 60 690
30 415 269
31 127 578
32 372 120
33 578 421
34 116 716
35 107 719
36 117 677
37 363 223
38 376 197
39 397 52
40 107 727
41 64 671
42 96 659
43 129 627
44 45 581
45 403 585
46 70 731
47 54 687
48 342 544
49 595 525
50 508 336
51 338 90
52 575 485
53 335 179
54 1 727
55 571 436
56 15 696
57 324 538
58 523 519
59 620 500
60 217 427
61 206 622
62 602 506
63 486 347
64 161 660
65 528 559
66 334 243
67 219 610
68 70 560
69 334 161
70 589 420
71 478 509
72 18 327
73 451 63
74 406 145
75 213 707
76 95 635
77 550 573
78 172 811
79 348 210
80 591 428
81 416 528
82 82 693
83 522 281
84 426 244
85 529 618
86 153 648
87 419 70
88 12 653
89 204 673
90 57 666
91 627 541
92 332 114
93 497 575
94 469 605
95 49 648
96 547 588
97 192 805
98 370 621
99 380 129
100 402 577
101 502 313
102 106 701
103 390 225
104 194 867
105 170 621
106 427 911
107 374 566
108 388 263
109 82 671
110 451 565
111 292 609
112 466 592
113 561 488
114 567 525
115 635 481
116 404 512
117 91 725
118 128 824
119 97 705
120 381 215
121 386 164
122 497 137
123 100 611
124 414 525
125 79 643
126 297 164
127 454 197
128 480 310
129 390 236
130 605 460
131 426 192
132 107 853
133 376 510
134 105 676
135 682 508
136 236 173
137 59 713
138 430 559
139 85 479
140 171 400
141 430 237
142 201 588
143 478 593
144 291 132
145 464 582
146 669 494
147 298 173
148 438 567
149 402 206
150 364 561
151 415 580
152 87 693
153 132 831
154 574 481
155 19 707
156 486 590
157 399 205
158 400 617
159 497 582
160 58 721
161 332 614
162 190 878
163 346 218
DEMAND_SECTION
2 1
3 1
4 1
5 1
6 1
7 1
8 1
9 1
10 1
11 1
12 1
13 1
14 1
15 1
16 1
17 1
18 1
19 1
20 1
21 1
22 1
23 1
24 1
25 1
26 1
27 1
28 1
COVERAGE_SECTION
2 9 20 120 9 103 37 129 38 157 149 
3 9 145 26 112 143 156 94 110 159 93 
4 9 152 19 11 82 119 102 7 134 109 
5 9 32 92 8 99 69 51 121 53 74 
6 7 87 73 74 99 32 39 121 
7 9 29 82 19 47 152 4 11 41 137 
8 9 92 5 69 144 126 51 53 147 32 
9 9 37 20 2 120 38 79 163 103 129 
10 6 162 104 28 97 78 153 
11 9 152 4 82 19 119 109 134 7 102 
12 9 141 84 149 157 103 129 131 120 2 
13 9 47 29 137 56 155 7 41 90 160 
14 8 139 140 31 60 68 18 142 44 
15 9 52 62 154 59 130 113 49 115 114 
16 7 30 84 141 108 12 129 103 
17 6 98 158 45 100 107 151 
18 9 123 31 76 43 68 125 44 42 95 
19 9 152 82 4 11 119 7 102 29 109 
20 9 2 120 9 103 37 38 129 157 149 
21 8 22 61 105 89 67 64 86 142 
22 8 61 21 67 89 105 142 64 86 
23 9 24 58 65 93 77 114 71 159 96 
24 9 23 65 58 93 159 71 77 26 156 
25 9 107 27 150 100 81 124 45 116 133 
26 9 3 143 145 156 112 159 93 94 110 
27 9 100 151 45 138 25 148 107 81 124 
28 6 153 78 118 97 132 104 
29 9 47 7 13 41 82 137 90 19 152 
30 7 16 84 108 141 129 12 103 
31 9 18 123 43 68 105 76 86 142 125 
32 9 99 5 92 74 51 121 8 6 69 
33 8 70 80 55 130 154 52 15 113 
34 7 35 40 102 119 117 4 19 
35 7 40 34 117 119 102 4 19 
36 6 134 102 42 11 4 119 
37 9 9 2 20 163 79 120 103 38 129 
38 9 120 9 20 2 157 149 37 79 103 
39 9 87 73 6 51 32 99 92 5 74 
40 6 35 34 117 119 102 4 
41 9 90 109 29 47 7 95 82 11 13 
42 9 109 134 125 76 36 11 41 152 4 
43 8 86 123 76 105 18 42 64 31 
44 9 68 18 123 95 125 76 88 31 90 
45 6 100 151 27 17 158 107 
46 4 160 137 117 19 
47 9 29 13 7 41 90 137 82 109 19 
48 9 57 150 107 25 133 100 27 116 161 
49 9 62 114 59 91 15 52 154 113 115 
50 5 101 63 128 83 16 
51 9 92 5 8 32 99 144 39 69 87 
52 9 154 113 15 62 130 114 49 59 55 
53 9 69 79 147 126 163 38 8 9 5 
54 3 155 56 13 
55 8 33 80 70 130 154 52 113 15 
56 7 155 13 54 47 88 29 137 
57 8 48 150 107 133 25 161 111 116 
58 9 23 24 65 114 71 113 77 52 93 
59 9 62 115 15 49 91 130 52 146 154 
60 2 140 14 
61 9 22 67 21 142 105 89 64 86 43 
62 9 59 15 49 52 154 114 115 91 113 
63 5 50 128 101 83 16 
64 5 86 21 105 89 43 
65 9 23 24 77 93 96 159 58 114 156 
66 4 163 37 79 9 
67 9 61 22 142 21 105 89 111 86 64 
68 9 44 18 123 31 76 139 125 43 95 
69 9 53 8 5 126 147 92 79 121 144 
70 8 80 33 55 130 154 52 15 113 
71 8 24 58 23 110 81 124 93 138 
72 5 139 140 14 60 68 
73 7 87 6 39 122 74 32 99 
74 6 121 99 32 6 131 5 
75 2 89 21 
76 9 125 42 123 43 18 109 134 36 41 
77 9 96 65 23 85 24 114 93 159 58 
78 6 97 28 153 118 104 162 
79 9 163 9 37 20 38 2 120 53 66 
80 9 70 33 55 130 154 52 15 113 115 
81 9 124 116 138 25 27 133 148 100 110 
82 9 19 152 4 11 7 119 29 109 102 
83 5 101 128 50 63 16 
84 9 141 12 16 30 129 103 108 149 157 
85 9 96 159 77 156 93 143 65 94 26 
86 5 64 43 105 21 36 
87 8 39 6 73 32 99 74 51 5 
88 9 95 56 90 13 47 155 41 29 125 
89 6 21 75 22 64 61 86 
90 9 41 95 47 29 109 7 13 125 82 
91 9 49 59 62 115 15 114 146 135 52 
92 9 8 5 51 32 144 69 99 126 53 
93 9 159 156 26 143 3 145 24 65 112 
94 6 112 143 3 26 156 145 
95 9 90 41 125 88 47 109 29 13 42 
96 9 77 65 85 159 93 23 24 156 114 
97 5 78 28 104 153 118 
98 7 17 158 161 45 100 107 150 
99 8 32 5 74 121 92 6 8 69 
100 8 45 151 27 107 25 138 17 148 
101 6 128 50 63 83 16 30 
102 8 119 4 34 35 11 19 152 82 
103 9 129 2 120 20 149 157 9 12 37 
104 8 162 10 28 78 97 153 118 132 
105 8 21 86 61 64 43 22 142 67 
106 1 10 
107 9 150 25 100 27 45 48 17 151 98 
108 7 129 30 103 84 16 2 20 
109 9 41 42 11 82 152 134 7 90 4 
110 9 148 145 138 3 26 112 143 151 27 
111 8 161 67 57 98 48 22 61 150 
112 8 3 145 143 26 94 156 110 159 
113 9 52 154 15 114 62 58 49 130 55 
114 9 49 113 62 52 58 154 15 23 77 
115 9 59 146 130 62 15 135 49 52 91 
116 7 124 81 133 25 27 138 107 
117 8 40 35 119 46 34 102 19 4 
118 4 153 28 132 78 
119 9 102 4 19 152 35 11 82 117 34 
120 9 20 2 103 9 38 37 157 129 149 
121 7 74 38 99 157 149 32 5 
122 2 127 6 
123 9 18 76 43 125 31 42 68 44 95 
124 9 81 116 25 138 27 133 148 100 110 
125 9 76 42 109 95 41 90 123 134 11 
126 7 147 144 69 8 53 92 136 
127 3 131 12 141 
128 7 101 63 50 83 16 30 84 
129 9 103 2 20 120 108 12 37 9 149 
130 9 15 80 115 154 52 55 59 70 62 
131 5 127 149 157 12 141 
132 3 153 118 28 
133 8 116 25 124 81 48 150 107 57 
134 9 36 11 42 4 109 102 152 19 82 
135 8 146 115 59 91 62 49 15 130 
136 5 126 147 144 8 53 
137 8 160 46 7 29 13 47 82 19 
138 9 148 27 110 151 100 81 45 124 145 
139 9 14 68 31 44 140 18 123 60 43 
140 3 60 14 139 
141 9 84 12 16 30 129 103 149 131 157 
142 9 67 61 105 22 21 31 86 43 64 
143 9 156 26 3 112 94 145 159 93 110 
144 9 8 126 147 92 69 5 51 53 136 
145 9 3 112 26 143 110 156 94 148 159 
146 8 135 115 59 91 62 130 15 49 
147 7 126 53 69 144 8 79 136 
148 9 138 110 151 27 145 3 100 112 45 
149 9 157 103 12 120 20 2 38 131 129 
150 9 107 25 48 100 27 45 57 17 133 
151 5 45 100 27 138 148 
152 9 4 19 82 11 119 7 102 109 134 
153 4 118 28 132 78 
154 9 52 113 15 130 62 55 114 49 59 
155 6 56 13 54 47 137 160 
156 9 143 26 159 3 93 112 94 145 110 
157 9 149 120 103 38 12 20 2 131 129 
158 3 17 98 45 
159 9 93 156 26 143 3 112 145 94 65 
160 7 137 46 7 29 13 117 47 
161 9 98 111 17 150 107 158 48 57 45 
162 8 104 10 28 78 97 153 118 132 
163 9 79 37 9 66 2 20 120 38 53 
DEPOT_SECTION
   1
   -1
EOF
