NAME :  X-n223-kX-w22-c11.cctp
COMMENT : 	Adapted by Maziero, Usberti and Cavellucci from the Uchoa, Pecin, Pessoa, Poggi, Subramanian, and Vidal (2013)
TYPE :  CCTP
DIMENSION :    135
EDGE_WEIGHT_TYPE : 	EUC_2D	
CAPACITY : 	37
VERTICES_WITHIN_COVERAGE :  11
VERTICES_WITH_DEMAND : 	22
NODE_COORD_SECTION
1 284 167
2 6 711
3 874 746
4 483 894
5 733 189
6 336 29
7 488 684
8 825 903
9 98 412
10 206 306
11 497 641
12 499 745
13 481 40
14 500 390
15 851 268
16 51 278
17 805 796
18 554 771
19 576 984
20 734 251
21 325 414
22 658 81
23 279 467
24 1000 804
25 554 594
26 645 168
27 614 267
28 939 719
29 935 800
30 31 554
31 489 840
32 377 684
33 945 808
34 720 165
35 226 34
36 73 255
37 748 344
38 168 461
39 164 493
40 833 284
41 746 100
42 944 597
43 371 28
44 552 186
45 610 541
46 578 665
47 749 655
48 898 974
49 520 642
50 914 373
51 610 738
52 752 74
53 729 90
54 464 658
55 964 397
56 388 732
57 712 144
58 45 437
59 910 738
60 956 879
61 318 560
62 592 913
63 907 240
64 399 931
65 763 180
66 626 876
67 302 689
68 813 999
69 10 249
70 557 816
71 915 680
72 131 722
73 553 946
74 306 260
75 627 26
76 493 282
77 312 212
78 985 939
79 194 262
80 992 698
81 834 844
82 1 651
83 20 349
84 163 503
85 579 761
86 2 469
87 103 284
88 784 300
89 826 222
90 231 82
91 62 272
92 22 273
93 805 267
94 212 590
95 327 114
96 7 372
97 646 219
98 259 282
99 961 241
100 692 298
101 801 272
102 646 242
103 189 387
104 119 294
105 31 339
106 730 188
107 93 759
108 824 259
109 924 237
110 57 338
111 780 316
112 305 615
113 345 763
114 751 295
115 134 317
116 128 324
117 98 293
118 739 331
119 814 179
120 27 359
121 776 143
122 710 173
123 53 438
124 933 313
125 147 288
126 10 811
127 37 799
128 837 214
129 752 302
130 42 300
131 489 208
132 608 548
133 788 301
134 54 335
135 769 226
DEMAND_SECTION
2 6
3 6
4 9
5 2
6 4
7 10
8 2
9 3
10 3
11 1
12 4
13 3
14 8
15 6
16 4
17 4
18 6
19 3
20 5
21 10
22 7
23 3
COVERAGE_SECTION
2 6 82 127 107 126 72 30 
3 11 59 28 71 29 17 33 81 80 24 47 60 
4 11 31 73 64 70 62 19 18 66 12 85 56 
5 10 106 34 122 65 57 135 20 121 119 26 
6 8 43 95 35 90 13 77 74 131 
7 11 54 11 49 12 46 18 32 56 25 85 51 
8 11 81 68 48 17 60 29 33 3 78 59 24 
9 11 123 58 38 110 120 134 116 103 96 105 83 
10 7 79 98 125 115 116 103 104 
11 11 49 54 7 25 46 12 32 18 56 85 132 
12 11 18 7 85 70 54 31 11 49 51 46 56 
13 11 43 6 75 44 131 95 22 26 77 76 97 
14 9 76 27 21 131 45 132 102 25 44 
15 10 40 108 93 101 89 128 63 133 88 109 
16 9 91 130 92 36 117 69 87 134 110 
17 11 81 3 8 59 29 33 47 28 71 60 24 
18 11 85 70 12 51 31 7 46 66 49 4 11 
19 11 73 62 66 4 31 70 64 18 85 68 51 
20 11 135 114 129 5 100 106 88 101 93 133 65 
21 11 23 103 61 98 74 10 38 14 39 84 79 
22 11 75 53 57 26 41 52 34 122 106 5 121 
23 11 21 61 38 39 103 84 94 112 10 98 9 
24 11 33 29 60 28 80 59 78 3 71 81 17 
25 8 49 132 11 46 45 54 7 51 
26 11 97 122 57 102 34 106 22 5 44 27 53 
27 11 102 97 100 44 26 20 76 122 131 106 114 
28 10 59 71 80 3 29 33 24 42 17 60 
29 11 33 24 59 3 28 60 81 80 71 17 78 
30 11 86 82 58 123 84 39 9 2 38 96 94 
31 11 4 70 18 12 85 73 62 64 66 56 7 
32 11 56 67 113 54 112 7 11 12 61 49 94 
33 11 29 24 60 59 28 3 81 80 71 78 17 
34 11 122 57 106 5 65 121 41 26 53 135 20 
35 4 90 6 95 43 
36 5 91 16 87 117 92 
37 9 118 129 111 114 88 133 100 101 20 
38 11 39 84 103 9 23 123 58 94 116 115 10 
39 11 84 38 9 94 103 23 123 58 30 86 61 
40 11 15 108 93 101 133 88 89 111 128 114 129 
41 10 53 52 121 57 34 122 65 106 5 22 
42 5 71 80 28 59 3 
43 8 6 95 13 35 90 77 131 44 
44 11 131 26 97 27 102 76 22 122 13 57 34 
45 5 132 25 46 49 11 
46 9 49 25 51 11 7 85 18 12 54 
47 4 17 3 51 71 
48 11 68 78 8 60 81 33 29 24 17 3 59 
49 11 11 7 54 25 46 12 132 51 18 85 45 
50 7 55 124 40 15 63 109 99 
51 10 85 18 46 70 12 49 7 66 11 25 
52 8 41 53 121 57 22 34 65 122 
53 10 41 52 57 121 22 34 122 65 106 5 
54 11 7 11 49 32 12 56 25 46 18 85 113 
55 7 50 124 99 109 63 15 40 
56 11 32 113 67 54 7 12 11 112 31 49 18 
57 11 34 122 106 5 41 53 65 121 26 52 22 
58 11 123 86 9 96 120 83 105 110 134 30 38 
59 11 28 3 71 29 33 80 24 17 81 42 60 
60 11 78 33 29 24 48 81 8 59 3 28 17 
61 11 112 23 94 67 32 21 84 39 54 38 56 
62 11 66 73 19 70 4 31 18 85 51 12 64 
63 7 109 99 15 128 124 89 108 
64 8 4 31 73 113 19 62 70 56 
65 10 5 106 121 34 135 119 122 57 89 20 
66 11 62 70 73 19 85 18 51 31 4 12 17 
67 9 112 32 113 56 61 94 54 72 7 
68 11 48 8 81 78 60 17 66 33 29 19 62 
69 5 92 16 91 130 36 
70 11 18 85 31 66 12 51 62 4 73 7 46 
71 9 28 59 3 80 42 29 33 24 17 
72 5 107 127 2 82 126 
73 11 19 62 4 66 31 70 64 18 85 12 51 
74 8 77 98 10 79 95 21 125 103 
75 10 22 53 52 41 26 57 13 34 122 44 
76 11 131 14 44 27 102 97 74 26 77 100 21 
77 8 74 98 95 79 10 90 131 125 
78 11 60 48 24 33 29 8 81 68 59 3 28 
79 6 10 125 98 115 104 116 
80 9 28 71 59 24 42 29 33 3 60 
81 11 17 8 3 29 33 60 59 48 68 28 24 
82 7 2 30 107 72 127 126 86 
83 11 120 105 96 134 110 130 92 16 91 58 123 
84 11 39 38 94 9 103 23 123 58 30 61 86 
85 10 18 51 70 12 46 7 31 66 49 11 
86 11 58 123 30 96 9 120 83 105 110 134 39 
87 8 117 104 36 91 125 115 116 16 
88 11 133 111 129 101 114 93 40 118 37 108 20 
89 9 128 108 119 93 15 101 135 40 65 
90 4 35 95 6 43 
91 7 16 36 130 92 117 87 69 
92 9 69 16 130 91 36 105 134 110 83 
93 11 101 108 40 133 88 15 89 111 135 114 128 
94 11 112 84 39 61 67 38 23 72 30 32 103 
95 8 6 43 77 90 35 74 13 98 
96 11 120 83 105 110 134 58 123 130 86 9 92 
97 11 102 26 27 122 106 100 5 34 20 44 57 
98 9 74 10 79 77 125 103 115 116 104 
99 4 109 63 124 15 
100 11 118 114 129 20 37 102 27 111 97 88 133 
101 11 93 108 133 88 40 111 15 114 89 135 129 
102 11 97 27 100 26 20 122 106 5 34 44 57 
103 11 38 10 116 115 9 125 39 104 84 23 79 
104 8 87 117 115 125 116 36 91 16 
105 11 83 120 134 110 96 130 16 92 91 117 87 
106 10 5 34 122 65 57 135 20 121 119 26 
107 4 72 127 126 2 
108 10 93 101 40 15 89 128 133 88 135 111 
109 6 63 99 124 15 128 89 
110 11 134 105 120 83 130 16 96 117 91 87 116 
111 11 88 133 129 114 37 118 101 93 40 108 20 
112 11 61 67 94 32 56 23 113 54 84 39 11 
113 9 56 32 67 112 12 54 7 31 64 
114 11 129 88 111 133 118 20 37 101 100 93 135 
115 8 116 104 125 117 87 10 110 79 
116 8 115 104 125 117 87 110 134 10 
117 8 87 104 91 115 116 36 16 125 
118 9 37 129 114 111 88 100 133 20 101 
119 7 128 89 65 121 135 108 5 
120 11 83 105 96 134 110 130 58 123 16 92 9 
121 10 65 41 119 34 5 57 106 53 122 52 
122 11 34 106 5 57 65 26 121 97 135 41 20 
123 11 58 9 86 96 120 83 110 105 134 38 30 
124 9 50 63 99 109 55 15 40 108 93 
125 7 104 115 116 87 117 79 10 
126 3 127 107 2 
127 3 126 107 2 
128 8 89 119 108 15 93 101 135 40 
129 11 114 111 88 118 133 37 20 101 100 93 135 
130 11 16 91 92 134 105 110 83 36 117 69 120 
131 11 44 76 27 97 26 102 13 77 14 95 74 
132 5 45 25 46 49 11 
133 11 88 111 101 129 114 93 40 108 118 37 15 
134 11 110 105 120 83 130 16 96 117 91 92 87 
135 10 20 65 5 106 93 101 89 108 119 128 
DEPOT_SECTION
   1
   -1
EOF
