NAME :  X-n289-kX-w115-c11.cctp
COMMENT : 	Adapted by Maziero, Usberti and Cavellucci from the Uchoa, Pecin, Pessoa, Poggi, Subramanian, and Vidal (2013)
TYPE :  CCTP
DIMENSION :    287
EDGE_WEIGHT_TYPE : 	EUC_2D	
CAPACITY : 	267
VERTICES_WITHIN_COVERAGE :  11
VERTICES_WITH_DEMAND : 	115
NODE_COORD_SECTION
1 0 0
2 174 325
3 49 34
4 543 815
5 42 920
6 545 80
7 681 950
8 870 118
9 787 220
10 537 927
11 180 838
12 543 582
13 442 620
14 747 569
15 932 48
16 14 356
17 53 476
18 603 228
19 772 573
20 811 359
21 373 37
22 859 142
23 489 543
24 37 771
25 354 944
26 96 62
27 326 729
28 881 541
29 653 724
30 226 759
31 481 44
32 100 882
33 129 299
34 989 512
35 600 42
36 538 772
37 346 479
38 448 624
39 286 417
40 612 457
41 70 468
42 502 909
43 595 503
44 819 948
45 771 355
46 372 196
47 535 775
48 232 518
49 119 626
50 110 835
51 567 348
52 6 211
53 493 652
54 96 183
55 105 479
56 873 333
57 468 199
58 536 120
59 17 65
60 638 958
61 328 921
62 968 540
63 125 145
64 692 422
65 557 864
66 752 850
67 703 395
68 498 832
69 343 962
70 583 474
71 976 636
72 101 555
73 77 544
74 981 353
75 625 324
76 622 728
77 855 827
78 792 443
79 283 63
80 760 751
81 972 417
82 694 214
83 38 91
84 294 791
85 429 815
86 691 154
87 930 792
88 579 279
89 431 909
90 615 264
91 448 185
92 49 414
93 883 478
94 627 564
95 40 434
96 718 660
97 896 694
98 716 586
99 607 343
100 675 244
101 282 617
102 199 880
103 998 855
104 588 662
105 58 700
106 221 510
107 518 554
108 203 173
109 944 282
110 254 558
111 428 165
112 848 305
113 860 100
114 602 620
115 437 55
116 922 348
117 433 776
118 891 306
119 211 731
120 408 859
121 492 322
122 581 746
123 868 337
124 365 161
125 568 646
126 456 81
127 477 162
128 429 844
129 396 41
130 130 972
131 563 135
132 317 258
133 414 696
134 547 90
135 602 325
136 321 27
137 263 184
138 474 629
139 526 440
140 814 534
141 287 975
142 11 791
143 217 331
144 745 430
145 34 925
146 84 298
147 12 489
148 140 132
149 755 784
150 948 889
151 201 545
152 609 322
153 880 525
154 649 744
155 643 684
156 769 790
157 319 178
158 731 709
159 787 828
160 225 726
161 596 265
162 634 256
163 663 359
164 166 640
165 642 362
166 520 270
167 42 480
168 112 399
169 150 168
170 82 292
171 122 330
172 127 502
173 775 687
174 13 620
175 634 888
176 68 320
177 982 753
178 224 537
179 841 798
180 174 366
181 24 40
182 145 248
183 419 444
184 879 792
185 929 876
186 123 355
187 986 847
188 948 915
189 875 393
190 117 315
191 662 329
192 34 517
193 73 159
194 80 288
195 152 615
196 192 202
197 881 867
198 766 781
199 660 798
200 184 487
201 706 738
202 75 367
203 192 700
204 277 151
205 9 455
206 605 301
207 102 332
208 193 612
209 606 304
210 50 417
211 61 343
212 80 515
213 79 416
214 257 315
215 215 135
216 892 734
217 130 120
218 91 213
219 679 826
220 634 319
221 698 259
222 664 283
223 316 692
224 159 590
225 768 627
226 583 308
227 552 300
228 890 942
229 921 841
230 884 682
231 28 627
232 846 789
233 141 84
234 151 452
235 651 231
236 593 205
237 126 511
238 998 988
239 53 418
240 126 279
241 65 479
242 217 664
243 916 983
244 465 504
245 11 435
246 328 87
247 341 495
248 167 100
249 75 221
250 12 139
251 712 863
252 854 920
253 95 312
254 65 272
255 0 426
256 700 806
257 36 551
258 200 578
259 572 402
260 695 326
261 811 730
262 957 880
263 194 131
264 120 604
265 998 976
266 736 914
267 252 343
268 653 922
269 726 784
270 171 218
271 188 452
272 170 515
273 594 876
274 169 35
275 149 580
276 758 826
277 69 12
278 878 954
279 728 812
280 141 498
281 149 103
282 671 370
283 467 248
284 256 559
285 115 233
286 605 283
287 880 764
DEMAND_SECTION
2 73
3 71
4 59
5 29
6 19
7 79
8 27
9 13
10 77
11 21
12 99
13 24
14 71
15 38
16 59
17 56
18 41
19 87
20 28
21 81
22 18
23 49
24 28
25 35
26 86
27 40
28 89
29 75
30 25
31 56
32 43
33 57
34 88
35 37
36 88
37 76
38 37
39 67
40 3
41 64
42 53
43 72
44 55
45 22
46 56
47 51
48 30
49 15
50 1
51 46
52 78
53 18
54 62
55 100
56 43
57 87
58 4
59 71
60 87
61 36
62 77
63 61
64 5
65 96
66 82
67 22
68 33
69 30
70 32
71 88
72 5
73 47
74 47
75 28
76 65
77 77
78 13
79 57
80 52
81 36
82 24
83 78
84 17
85 12
86 50
87 70
88 45
89 41
90 11
91 51
92 54
93 14
94 70
95 76
96 57
97 59
98 100
99 7
100 10
101 23
102 25
103 65
104 70
105 2
106 25
107 91
108 86
109 48
110 24
111 94
112 7
113 19
114 97
115 79
116 15
COVERAGE_SECTION
2 11 180 143 33 171 190 186 240 207 253 267 182 
3 11 181 277 59 26 83 233 250 217 274 281 193 
4 11 47 36 68 65 122 273 42 10 85 117 175 
5 11 145 32 130 50 142 24 11 102 105 30 141 
6 11 134 58 131 35 31 126 127 115 236 57 91 
7 11 268 60 266 175 251 273 66 219 44 256 10 
8 11 113 22 15 9 109 86 112 118 82 56 123 
9 11 82 221 112 22 100 86 8 118 45 235 222 
10 11 42 65 273 68 175 60 89 4 268 128 7 
11 11 102 50 30 32 119 160 84 203 130 24 5 
12 11 107 23 125 114 138 53 94 104 43 38 13 
13 11 38 138 53 133 23 107 12 244 125 223 104 
14 11 19 98 225 140 96 94 173 78 28 144 153 
15 11 113 8 22 9 109 118 86 112 82 56 123 
16 11 211 202 176 92 210 255 239 245 95 213 146 
17 11 167 241 41 147 95 192 212 205 55 239 210 
18 11 236 90 161 162 235 286 88 206 100 209 222 
19 11 14 225 98 140 96 28 173 153 78 158 94 
20 11 45 123 112 56 189 78 118 144 116 67 260 
21 11 129 136 115 246 79 126 31 124 111 204 157 
22 11 8 113 9 15 112 109 118 86 82 56 123 
23 11 107 244 12 138 13 38 53 139 43 70 183 
24 11 142 105 50 32 231 5 174 145 11 49 203 
25 11 69 61 141 89 120 128 85 42 84 102 68 
26 11 233 3 277 83 217 281 181 274 59 248 148 
27 11 223 84 133 160 30 119 117 101 242 85 203 
28 11 153 93 140 62 34 19 78 71 14 230 225 
29 11 154 76 155 201 199 122 158 104 96 269 256 
30 11 119 160 203 84 11 242 27 223 102 164 50 
31 11 115 126 6 134 129 58 21 127 35 131 111 
32 11 50 5 145 11 130 102 142 24 30 105 119 
33 11 190 240 171 253 207 146 170 194 2 182 186 
34 11 62 81 153 93 28 71 74 189 140 116 230 
35 11 6 134 131 58 31 86 126 236 115 127 18 
36 11 47 4 122 68 65 76 117 154 85 273 104 
37 11 247 183 39 48 284 110 244 106 178 101 23 
38 11 13 138 53 133 23 107 12 244 125 104 223 
39 11 267 37 247 271 214 143 106 48 180 200 178 
40 11 70 43 259 64 139 165 282 94 67 163 99 
41 11 241 17 167 55 95 212 213 239 210 92 192 
42 11 10 65 89 68 128 273 4 120 85 175 47 
43 11 70 40 94 107 139 12 259 23 114 64 244 
44 9 252 278 228 266 197 243 66 159 77 
45 11 20 67 144 260 78 112 123 282 56 64 163 
46 11 124 157 111 91 132 57 204 283 127 137 246 
47 11 36 4 122 68 65 76 117 85 273 154 104 
48 11 106 178 151 110 284 200 272 258 271 280 208 
49 11 264 195 164 224 275 72 208 231 73 258 105 
50 11 32 11 24 102 142 5 145 130 30 105 119 
51 11 99 135 226 152 227 259 209 206 75 88 220 
52 11 249 250 193 218 254 54 194 170 285 146 83 
53 11 138 38 13 125 12 133 104 107 23 114 36 
54 11 218 193 249 63 285 169 148 217 182 270 52 
55 11 172 41 237 241 280 212 17 234 167 213 73 
56 11 123 118 112 116 189 20 109 45 74 81 78 
57 11 91 127 283 111 166 46 58 124 131 126 121 
58 11 131 134 6 127 126 31 35 236 57 91 111 
59 11 181 83 3 250 277 26 193 233 217 63 281 
60 11 268 7 175 273 10 266 251 65 219 42 66 
61 11 25 69 141 120 89 128 84 102 85 11 42 
62 11 34 28 153 71 93 81 140 230 97 189 74 
63 11 148 217 169 54 281 193 248 233 263 218 108 
64 11 67 144 282 163 165 40 260 191 78 45 99 
65 11 273 4 10 68 42 175 47 36 268 122 199 
66 11 276 159 251 279 156 149 266 256 198 269 219 
67 11 64 282 163 144 165 260 191 45 78 220 75 
68 11 4 65 47 128 85 36 42 117 120 89 10 
69 11 25 61 141 89 120 128 102 42 85 84 10 
70 11 43 40 139 259 94 107 12 23 64 244 51 
71 11 62 97 230 177 34 216 28 153 287 87 93 
72 11 73 212 237 264 275 172 257 224 280 49 55 
73 11 72 212 257 192 237 172 241 55 17 167 264 
74 11 116 81 109 118 56 189 123 112 34 93 20 
75 11 220 152 135 99 209 206 191 165 226 286 163 
76 11 29 154 122 155 104 199 201 36 125 47 114 
77 11 179 232 184 197 229 159 287 87 185 252 156 
78 11 144 20 45 140 93 189 67 64 153 123 19 
79 11 246 136 204 21 215 263 129 274 157 248 137 
80 11 198 149 156 269 158 261 201 173 279 276 256 
81 11 74 116 34 189 93 62 56 123 118 109 153 
82 11 100 221 235 86 162 222 18 9 90 236 161 
83 11 59 181 250 3 26 193 277 217 63 233 54 
84 11 27 30 160 223 119 11 102 120 61 85 203 
85 11 128 117 120 68 89 47 4 36 42 133 27 
86 11 82 235 100 221 236 18 9 162 131 222 90 
87 11 229 184 287 177 216 187 77 185 232 179 197 
88 11 161 286 226 206 227 209 90 135 152 18 162 
89 11 120 128 42 25 85 68 69 61 10 117 65 
90 11 161 162 286 18 206 88 209 235 222 226 152 
91 11 57 111 127 283 46 124 126 58 166 131 157 
92 11 210 239 95 213 245 255 202 205 41 17 168 
93 11 153 28 189 140 78 62 81 34 116 20 123 
94 11 114 43 12 98 70 125 104 40 107 14 155 
95 11 210 239 92 245 205 255 213 17 41 167 241 
96 11 158 225 173 98 155 201 29 14 80 19 154 
97 11 230 216 287 261 71 184 87 177 232 179 173 
98 11 14 19 225 96 94 140 173 114 155 158 43 
99 11 135 152 75 220 209 51 165 206 226 191 163 
100 11 221 235 82 222 162 90 18 286 161 260 220 
101 11 284 110 242 223 208 258 178 151 48 164 27 
102 11 11 32 50 130 30 141 84 61 119 160 5 
103 9 187 262 150 185 188 229 87 177 197 
104 11 125 114 155 76 122 29 12 53 154 94 138 
105 11 24 231 174 49 142 264 164 195 203 50 224 
106 11 48 178 151 200 272 110 284 271 258 280 234 
107 11 23 12 244 138 43 38 13 53 70 125 114 
108 11 196 215 263 169 270 137 148 204 248 63 281 
109 11 118 116 74 56 123 112 189 81 20 22 9 
110 11 284 178 48 151 106 258 101 208 272 200 224 
111 11 91 127 57 124 46 126 283 115 157 58 246 
112 11 56 123 118 20 116 45 189 109 9 74 78 
113 11 8 22 15 9 86 109 82 112 118 221 56 
114 11 125 104 94 12 155 107 76 53 29 43 98 
115 11 126 129 31 21 111 6 127 246 134 58 136 
116 11 56 118 123 74 189 109 81 112 20 93 45 
117 11 85 128 133 68 120 47 36 4 27 89 53 
118 11 56 123 112 116 109 189 20 74 45 9 81 
119 11 160 30 203 242 84 164 11 223 27 208 195 
120 11 128 85 89 117 68 25 61 42 69 84 4 
121 11 166 227 283 51 226 88 135 259 206 209 99 
122 11 76 36 47 154 29 4 104 155 199 125 65 
123 11 56 112 118 116 189 20 109 45 74 78 81 
124 11 46 157 111 246 91 204 137 132 57 127 126 
125 11 104 114 12 53 155 138 76 94 122 107 29 
126 11 115 31 129 127 6 58 111 134 21 91 57 
127 11 91 57 111 58 126 283 131 134 6 46 124 
128 11 120 85 89 117 68 42 4 25 47 61 65 
129 11 21 115 126 136 246 31 79 124 111 127 91 
130 11 32 5 145 102 50 11 141 61 69 142 24 
131 11 58 134 6 236 127 35 18 57 126 31 91 
132 11 157 46 214 137 267 124 204 143 196 108 111 
133 11 38 13 117 53 138 27 223 85 36 47 128 
134 11 6 58 131 35 31 126 127 115 236 57 91 
135 11 152 99 209 75 206 226 220 51 286 88 165 
136 11 79 21 246 129 115 204 124 126 157 215 274 
137 11 204 157 108 215 196 263 132 270 124 46 169 
138 11 38 53 13 12 23 107 133 125 104 244 114 
139 11 259 70 40 244 43 51 183 23 107 121 99 
140 11 19 28 153 14 93 78 225 98 144 62 189 
141 11 69 61 25 102 130 89 120 11 84 128 32 
142 11 24 105 50 32 5 145 231 174 11 49 203 
143 11 267 2 214 180 33 171 186 190 240 39 182 
144 11 78 64 67 45 282 20 163 260 165 140 191 
145 11 5 32 130 50 142 24 11 102 105 30 141 
146 11 170 194 253 176 254 190 207 33 240 171 211 
147 11 167 205 192 17 241 245 41 95 255 257 212 
148 11 217 63 281 169 248 233 263 54 193 108 215 
149 11 198 156 269 80 279 276 159 256 66 201 261 
150 9 262 185 188 229 187 103 197 228 278 
151 11 178 258 106 48 272 110 284 200 224 275 208 
152 11 135 75 209 99 206 220 226 286 51 88 165 
153 11 28 93 140 62 34 19 78 189 14 81 71 
154 11 29 76 199 201 155 122 256 219 269 158 104 
155 11 29 76 104 154 114 96 201 125 122 158 199 
156 11 198 149 276 80 159 269 279 66 256 179 261 
157 11 124 204 46 137 132 246 111 215 108 79 91 
158 11 201 173 80 96 269 29 149 198 261 154 156 
159 11 276 66 156 198 149 279 179 77 232 269 80 
160 11 119 30 203 242 84 223 27 164 208 11 101 
161 11 90 286 88 206 18 162 209 226 227 152 135 
162 11 90 235 161 222 286 18 100 206 209 88 220 
163 11 282 165 191 260 220 75 67 99 152 64 135 
164 11 195 208 49 224 242 264 275 203 258 151 119 
165 11 163 282 191 99 75 220 152 135 260 209 67 
166 11 227 283 121 88 226 161 286 57 206 51 209 
167 11 17 241 41 147 192 205 95 212 245 55 239 
168 11 213 186 202 239 92 210 234 207 171 180 211 
169 11 63 148 217 108 196 270 54 263 281 248 215 
170 11 194 146 253 254 176 190 207 240 33 171 211 
171 11 190 207 186 33 253 146 240 2 170 176 194 
172 11 237 280 55 272 212 234 72 200 73 41 241 
173 11 158 261 225 96 80 201 198 149 156 230 269 
174 11 231 257 105 73 192 49 264 72 212 147 195 
175 11 268 273 60 219 7 65 251 199 10 256 266 
176 11 211 146 253 170 194 207 202 254 190 171 16 
177 11 87 216 187 103 287 97 229 184 71 230 262 
178 11 48 151 106 110 284 258 272 200 208 224 275 
179 11 232 77 184 287 159 156 261 198 197 216 149 
180 11 2 186 143 171 168 190 207 33 267 271 234 
181 11 3 59 83 277 26 250 233 193 217 281 274 
182 11 285 240 270 33 218 196 190 249 194 170 146 
183 11 244 37 247 139 23 39 121 107 259 70 51 
184 11 287 232 179 77 87 216 229 197 261 185 97 
185 9 150 262 229 188 197 187 103 228 87 
186 11 171 207 190 168 202 253 180 33 2 211 176 
187 9 103 262 150 185 229 87 188 177 197 
188 9 150 262 185 228 243 103 187 229 265 
189 11 123 56 116 20 93 118 112 78 81 45 74 
190 11 171 33 253 207 146 240 186 170 194 176 2 
191 11 163 220 260 75 165 282 222 152 99 135 209 
192 11 257 147 167 17 212 241 73 41 205 72 55 
193 11 54 63 218 249 250 217 148 83 169 52 285 
194 11 170 146 254 253 176 190 240 207 33 211 171 
195 11 224 164 264 49 275 208 258 72 242 151 203 
196 11 270 108 169 182 215 263 137 285 148 63 54 
197 10 77 229 185 252 150 184 228 262 179 188 
198 11 156 149 80 269 276 279 159 261 66 256 201 
199 11 219 256 154 269 279 29 201 76 251 175 122 
200 11 272 271 106 280 234 48 172 151 237 178 55 
201 11 158 269 29 80 154 149 256 198 199 279 96 
202 11 211 207 176 168 186 213 92 210 239 253 171 
203 11 119 160 242 164 30 208 195 49 224 264 101 
204 11 137 157 215 108 246 263 79 124 196 46 132 
205 11 245 255 147 95 167 17 210 92 239 241 41 
206 11 209 286 152 226 135 75 88 220 161 90 99 
207 11 171 253 190 186 176 146 211 33 202 170 194 
208 11 258 164 224 195 275 242 151 264 49 110 178 
209 11 206 152 135 286 226 75 220 88 99 161 90 
210 11 92 239 95 213 245 255 41 202 205 17 167 
211 11 176 202 207 253 16 146 170 194 171 186 190 
212 11 73 241 55 72 192 237 17 41 172 167 257 
213 11 239 210 92 168 95 202 41 17 241 55 245 
214 11 267 143 132 2 180 39 33 196 270 137 182 
215 11 263 108 248 204 137 196 169 281 148 217 233 
216 11 287 97 230 184 87 232 261 179 177 77 229 
217 11 148 63 281 233 248 169 263 26 193 54 215 
218 11 249 54 285 193 182 254 169 240 63 194 170 
219 11 256 199 251 279 269 66 175 276 149 154 201 
220 11 75 152 191 209 135 206 99 165 286 222 163 
221 11 100 222 82 235 162 260 191 90 220 286 9 
222 11 162 100 221 191 220 90 260 235 75 286 206 
223 11 27 101 160 133 84 242 30 119 203 117 13 
224 11 275 195 208 264 258 164 49 151 72 272 178 
225 11 19 96 173 14 98 158 140 261 80 201 230 
226 11 206 209 135 88 152 227 286 99 51 75 161 
227 11 226 88 166 51 206 209 135 161 286 152 121 
228 9 278 252 243 188 44 197 185 150 262 
229 10 185 197 87 262 150 184 187 77 103 188 
230 11 97 216 287 261 71 173 184 232 87 177 179 
231 11 174 257 105 49 264 73 72 192 212 195 275 
232 11 179 184 77 287 261 159 216 156 198 87 197 
233 11 281 248 217 148 26 274 63 263 169 215 193 
234 11 271 280 200 55 172 237 168 272 213 41 180 
235 11 100 162 82 18 90 222 221 236 161 286 206 
236 11 18 161 90 235 162 88 131 286 100 206 166 
237 11 172 280 55 272 212 72 73 200 234 241 41 
238 9 265 243 188 150 262 228 278 185 103 
239 11 210 92 95 213 245 41 255 202 205 17 168 
240 11 33 182 190 253 146 170 194 285 171 207 254 
241 11 17 41 167 212 55 192 95 147 205 239 210 
242 11 203 164 208 160 119 101 195 258 224 30 223 
243 9 278 228 188 238 265 252 150 44 185 
244 11 23 107 183 139 12 13 38 37 70 247 138 
245 11 255 205 95 92 210 239 147 167 17 41 241 
246 11 79 136 21 129 204 124 157 115 137 46 215 
247 11 37 183 39 284 110 48 106 178 244 101 151 
248 11 281 233 263 148 217 215 63 274 169 26 108 
249 11 218 285 54 254 193 194 52 170 182 240 146 
250 11 83 193 52 59 54 181 249 218 3 63 26 
251 11 66 219 279 266 256 276 269 175 159 199 268 
252 9 228 278 44 197 185 243 77 188 150 
253 11 146 207 190 170 176 194 171 33 240 211 254 
254 11 194 170 146 176 253 249 240 285 218 190 33 
255 11 245 205 95 92 210 239 147 167 16 17 213 
256 11 219 279 269 199 251 149 276 66 201 156 198 
257 11 192 73 212 72 147 167 174 231 17 241 41 
258 11 151 208 224 178 275 110 284 195 48 272 106 
259 11 51 139 40 99 70 165 135 152 75 226 163 
260 11 191 163 282 222 220 165 221 67 75 45 100 
261 11 80 173 198 232 156 179 287 149 216 158 230 
262 9 150 185 188 187 103 229 197 228 87 
263 11 215 248 108 281 148 169 217 63 196 233 204 
264 11 49 195 275 224 72 164 208 73 258 237 231 
265 9 238 188 243 150 262 228 103 185 278 
266 11 251 7 66 268 44 276 159 279 175 219 60 
267 11 214 143 2 39 180 132 271 186 33 171 190 
268 11 60 175 7 273 251 266 219 65 10 66 199 
269 11 279 149 256 198 156 80 201 276 219 199 66 
270 11 196 182 169 108 285 240 218 54 63 263 33 
271 11 200 234 272 280 106 48 172 237 55 180 178 
272 11 200 280 151 237 172 106 178 48 234 271 275 
273 11 65 175 268 10 4 60 42 219 199 68 7 
274 11 233 248 281 26 217 263 148 277 215 79 63 
275 11 224 195 264 258 72 208 49 164 151 272 237 
276 11 66 159 279 156 149 198 269 251 256 80 219 
277 11 3 181 26 59 83 233 274 281 217 248 148 
278 9 228 252 243 44 188 197 185 150 262 
279 11 269 256 276 149 66 156 198 219 251 159 80 
280 11 172 237 272 55 200 234 212 271 72 151 41 
281 11 248 233 217 148 63 263 169 26 274 215 108 
282 11 163 165 67 191 260 64 220 75 99 152 135 
283 11 57 166 91 121 127 111 227 46 88 161 226 
284 11 110 178 48 151 258 106 101 208 272 200 224 
285 11 218 182 249 240 54 270 254 194 33 170 146 
286 11 206 161 90 209 88 226 152 162 135 75 220 
287 11 184 216 232 179 87 77 97 261 230 229 177 
DEPOT_SECTION
   1
   -1
EOF
