NAME :  X-n228-kX-w22-c9.cctp
COMMENT : 	Adapted by Maziero, Usberti and Cavellucci from the Uchoa, Pecin, Pessoa, Poggi, Subramanian, and Vidal (2013)
TYPE :  CCTP
DIMENSION :    144
EDGE_WEIGHT_TYPE : 	EUC_2D	
CAPACITY : 	154
VERTICES_WITHIN_COVERAGE :  9
VERTICES_WITH_DEMAND : 	22
NODE_COORD_SECTION
1 550 574
2 177 24
3 448 476
4 934 619
5 323 122
6 430 76
7 364 9
8 988 994
9 91 636
10 938 641
11 979 764
12 4 748
13 420 164
14 294 15
15 304 89
16 362 207
17 770 344
18 67 634
19 90 44
20 712 418
21 299 6
22 997 871
23 38 695
24 830 1000
25 916 622
26 445 107
27 314 222
28 996 902
29 115 158
30 971 352
31 448 484
32 299 89
33 402 147
34 389 48
35 186 22
36 658 505
37 459 528
38 956 900
39 36 651
40 994 713
41 270 100
42 944 606
43 318 42
44 398 280
45 74 760
46 910 623
47 96 604
48 432 96
49 188 17
50 441 480
51 458 124
52 196 51
53 953 658
54 389 0
55 140 683
56 293 75
57 299 157
58 266 88
59 440 423
60 168 19
61 126 666
62 332 85
63 834 571
64 49 602
65 81 696
66 308 43
67 915 675
68 500 518
69 329 86
70 993 634
71 959 600
72 991 973
73 382 303
74 477 58
75 439 456
76 462 471
77 107 134
78 970 995
79 427 501
80 938 650
81 370 16
82 460 140
83 411 89
84 343 121
85 361 316
86 407 508
87 168 601
88 854 575
89 193 51
90 957 641
91 51 647
92 386 146
93 976 649
94 281 121
95 453 69
96 393 25
97 466 153
98 507 472
99 946 963
100 327 78
101 301 135
102 997 980
103 343 173
104 860 622
105 317 211
106 83 641
107 247 22
108 337 72
109 439 65
110 931 476
111 97 676
112 880 606
113 410 110
114 252 22
115 135 618
116 296 39
117 953 368
118 81 826
119 997 734
120 143 603
121 122 38
122 946 690
123 95 37
124 137 64
125 361 258
126 153 65
127 423 59
128 943 678
129 522 195
130 289 136
131 125 62
132 304 44
133 958 610
134 975 966
135 940 621
136 993 964
137 771 548
138 440 455
139 104 561
140 200 61
141 491 62
142 628 312
143 430 429
144 945 994
DEMAND_SECTION
2 79
3 57
4 88
5 54
6 92
7 84
8 61
9 100
10 61
11 69
12 78
13 54
14 59
15 60
16 61
17 85
18 67
19 96
20 57
21 57
22 52
23 80
COVERAGE_SECTION
2 7 35 60 49 89 52 140 126 
3 9 31 50 76 75 138 79 143 86 37 
4 9 135 42 25 10 46 133 71 80 90 
5 9 84 101 69 130 15 62 32 57 94 
6 7 109 127 48 83 95 26 113 
7 5 81 54 96 34 43 
8 7 102 78 72 136 134 144 99 
9 9 106 18 47 111 91 61 115 64 39 
10 9 80 90 135 4 53 25 46 42 128 
11 9 119 40 122 128 22 53 67 93 80 
12 8 23 45 65 39 118 91 111 18 
13 6 33 92 82 97 51 113 
14 7 21 116 66 132 43 114 107 
15 9 32 56 69 100 62 41 108 5 58 
16 7 103 105 27 125 92 13 33 
17 7 20 142 117 36 30 137 110 
18 9 106 91 9 39 64 47 111 65 61 
19 9 123 121 131 124 126 60 2 77 35 
20 5 17 36 142 137 63 
21 7 14 116 66 132 43 114 107 
22 7 28 38 136 134 72 99 11 
23 9 65 39 91 111 12 18 106 45 9 
24 5 144 99 78 134 8 
25 9 46 4 135 10 42 80 112 133 90 
26 7 48 51 6 113 82 83 95 
27 4 105 16 103 125 
28 7 22 38 136 134 72 102 99 
29 6 77 124 131 126 19 121 
30 9 117 110 17 71 88 42 63 133 20 
31 9 3 50 76 79 75 138 37 86 143 
32 9 15 56 69 100 41 58 62 94 5 
33 3 92 13 113 
34 5 96 127 81 7 83 
35 7 49 2 60 89 52 140 126 
36 4 20 137 98 68 
37 9 68 79 31 50 3 86 76 98 75 
38 7 28 22 99 134 136 72 102 
39 9 91 18 23 106 64 9 65 111 47 
40 9 119 11 122 128 93 53 70 90 80 
41 5 58 94 32 56 15 
42 9 133 4 71 135 25 10 90 46 80 
43 9 66 132 116 14 108 100 21 56 62 
44 7 73 125 85 16 27 105 13 
45 5 65 118 12 23 111 
46 9 25 4 135 10 112 42 80 90 104 
47 9 9 106 115 18 139 64 120 91 61 
48 7 26 6 83 113 109 95 51 
49 7 35 2 60 89 52 140 107 
50 9 3 31 76 75 79 138 86 37 143 
51 7 82 26 97 48 113 13 95 
52 7 89 140 35 2 49 60 126 
53 9 80 90 128 10 93 122 135 67 4 
54 4 81 96 7 34 
55 6 61 111 65 115 9 106 
56 7 32 15 58 132 41 100 66 
57 4 101 130 94 5 
58 5 41 56 32 94 15 
59 7 143 138 75 76 3 50 31 
60 9 2 35 49 89 52 126 121 140 124 
61 6 55 111 9 115 106 65 
62 8 69 100 108 15 32 5 84 56 
63 8 88 104 112 137 46 25 4 42 
64 9 18 91 47 39 106 9 139 115 111 
65 7 111 23 61 106 91 55 9 
66 8 132 43 116 14 56 21 100 108 
67 9 128 80 122 10 53 46 25 90 4 
68 8 37 98 76 31 3 50 79 75 
69 8 62 100 108 15 32 5 56 84 
70 9 93 90 133 53 71 10 135 42 80 
71 9 133 42 135 4 90 10 25 70 93 
72 7 102 136 134 8 78 99 144 
73 6 85 44 125 16 27 105 
74 6 141 95 109 6 127 26 
75 9 138 3 50 76 143 31 59 79 86 
76 9 3 31 50 75 138 98 79 59 143 
77 7 29 131 124 126 19 121 123 
78 7 8 144 134 72 102 136 99 
79 9 86 50 31 3 37 76 75 138 143 
80 9 10 53 90 128 135 4 67 25 93 
81 4 7 54 96 34 
82 7 97 51 26 13 48 33 113 
83 6 113 48 6 127 109 26 
84 4 5 62 69 101 
85 6 73 44 125 27 16 105 
86 8 79 50 31 3 37 75 138 76 
87 8 120 115 47 139 61 9 55 106 
88 8 63 112 104 46 25 137 4 42 
89 7 52 140 35 2 49 60 126 
90 9 53 10 80 93 135 133 4 42 70 
91 9 39 18 106 9 64 23 111 65 47 
92 3 33 13 113 
93 9 90 70 53 80 10 133 128 135 122 
94 7 130 41 101 58 32 15 57 
95 8 109 6 74 127 48 26 141 83 
96 4 34 54 81 7 
97 6 82 51 13 26 33 48 
98 6 76 68 3 31 50 138 
99 7 134 144 78 72 136 8 102 
100 9 69 62 108 15 32 56 43 66 132 
101 6 130 57 94 5 84 15 
102 7 72 136 8 134 78 99 144 
103 7 16 105 57 92 84 5 27 
104 7 112 88 46 25 63 4 67 
105 4 27 16 103 57 
106 9 9 18 91 111 47 39 61 64 65 
107 4 114 14 116 21 
108 7 100 62 69 43 15 66 32 
109 7 6 95 127 48 83 74 26 
110 9 117 88 71 30 42 63 133 112 4 
111 7 65 61 106 9 55 18 91 
112 9 104 46 25 88 4 63 135 42 10 
113 5 83 48 26 33 6 
114 4 107 14 116 21 
115 9 120 87 47 9 61 106 55 139 111 
116 7 132 66 43 14 21 56 114 
117 9 30 110 17 88 71 63 42 133 20 
118 5 45 12 65 23 111 
119 9 40 11 122 128 53 93 70 67 90 
120 8 115 87 47 139 9 61 106 55 
121 9 131 123 124 19 126 60 2 35 49 
122 9 128 53 67 80 10 90 93 40 119 
123 9 19 121 131 124 126 60 2 35 49 
124 9 131 126 121 123 19 60 2 89 52 
125 7 44 73 16 85 27 105 103 
126 9 124 131 121 89 52 140 2 60 35 
127 6 109 6 83 95 34 48 
128 9 122 53 67 80 10 90 93 135 4 
129 4 97 82 51 13 
130 5 101 94 57 5 41 
131 9 124 121 126 19 123 60 2 89 52 
132 8 66 116 43 14 56 21 100 108 
133 9 71 42 135 4 90 10 70 93 25 
134 7 72 136 102 78 99 8 144 
135 9 4 42 10 133 25 90 71 80 46 
136 7 72 102 134 8 78 99 144 
137 7 63 88 104 36 112 20 46 
138 9 75 3 50 76 143 31 59 79 86 
139 8 47 120 115 64 87 9 18 106 
140 6 52 89 35 2 49 126 
141 4 74 95 109 6 
142 2 20 17 
143 7 59 75 138 3 50 76 31 
144 7 78 99 134 8 72 102 136 
DEPOT_SECTION
   1
   -1
EOF
