NAME :  X-n228-kX-w45-c9.cctp
COMMENT : 	Adapted by Maziero, Usberti and Cavellucci from the Uchoa, Pecin, Pessoa, Poggi, Subramanian, and Vidal (2013)
TYPE :  CCTP
DIMENSION :    200
EDGE_WEIGHT_TYPE : 	EUC_2D	
CAPACITY : 	154
VERTICES_WITHIN_COVERAGE :  9
VERTICES_WITH_DEMAND : 	45
NODE_COORD_SECTION
1 550 574
2 177 24
3 448 476
4 934 619
5 323 122
6 430 76
7 364 9
8 988 994
9 91 636
10 938 641
11 979 764
12 4 748
13 420 164
14 294 15
15 304 89
16 362 207
17 770 344
18 67 634
19 90 44
20 712 418
21 299 6
22 997 871
23 38 695
24 830 1000
25 916 622
26 445 107
27 314 222
28 292 519
29 183 344
30 520 434
31 262 283
32 996 902
33 115 158
34 371 61
35 971 352
36 448 484
37 299 89
38 402 147
39 537 431
40 389 48
41 186 22
42 658 505
43 459 528
44 956 900
45 486 383
46 36 651
47 994 713
48 270 100
49 944 606
50 813 917
51 318 42
52 17 369
53 398 280
54 74 760
55 910 623
56 96 604
57 432 96
58 188 17
59 441 480
60 458 124
61 557 620
62 196 51
63 953 658
64 389 0
65 386 127
66 140 683
67 293 75
68 475 386
69 224 487
70 299 157
71 556 346
72 681 864
73 382 140
74 266 88
75 440 423
76 168 19
77 126 666
78 332 85
79 234 26
80 834 571
81 49 602
82 81 696
83 308 43
84 915 675
85 500 518
86 510 353
87 329 86
88 993 634
89 959 600
90 991 973
91 411 25
92 382 303
93 477 58
94 225 31
95 439 456
96 462 471
97 107 134
98 970 995
99 427 501
100 938 650
101 370 16
102 460 140
103 411 89
104 953 944
105 79 357
106 757 867
107 343 121
108 361 316
109 407 508
110 414 117
111 576 591
112 418 27
113 837 660
114 174 487
115 168 601
116 854 575
117 193 51
118 458 659
119 957 641
120 51 647
121 386 146
122 976 649
123 281 121
124 453 69
125 393 25
126 341 532
127 466 153
128 507 472
129 946 963
130 327 78
131 301 135
132 997 980
133 343 173
134 860 622
135 317 211
136 418 6
137 833 694
138 83 641
139 229 449
140 283 204
141 513 697
142 247 22
143 651 664
144 337 72
145 439 65
146 409 24
147 931 476
148 368 92
149 97 676
150 880 606
151 281 199
152 410 110
153 252 22
154 181 147
155 945 948
156 135 618
157 348 443
158 296 39
159 953 368
160 81 826
161 997 734
162 533 134
163 372 134
164 317 479
165 143 603
166 122 38
167 946 690
168 95 37
169 429 9
170 137 64
171 361 258
172 153 65
173 536 296
174 509 404
175 423 59
176 525 342
177 943 678
178 522 195
179 371 335
180 289 136
181 191 568
182 505 381
183 125 62
184 304 44
185 958 610
186 975 966
187 277 631
188 486 111
189 940 621
190 993 964
191 771 548
192 484 276
193 440 455
194 104 561
195 200 61
196 491 62
197 628 312
198 430 429
199 945 994
200 461 608
DEMAND_SECTION
2 79
3 57
4 88
5 54
6 92
7 84
8 61
9 100
10 61
11 69
12 78
13 54
14 59
15 60
16 61
17 85
18 67
19 96
20 57
21 57
22 52
23 80
24 60
25 71
26 93
27 59
28 88
29 77
30 50
31 98
32 53
33 54
34 99
35 10
36 9
37 8
38 9
39 7
40 10
41 9
42 2
43 3
44 3
45 7
46 8
COVERAGE_SECTION
2 9 41 76 58 117 62 195 172 94 79 
3 9 36 59 96 95 193 99 198 109 43 
4 9 189 49 25 10 55 185 89 100 119 
5 9 107 131 87 180 15 78 37 70 123 
6 8 145 175 57 103 124 26 152 110 
7 9 101 64 125 40 146 91 34 136 51 
8 9 132 98 90 190 186 199 129 104 155 
9 9 138 18 56 149 120 77 156 81 46 
10 9 100 119 189 4 63 25 55 49 177 
11 9 161 47 167 177 22 63 84 122 100 
12 8 23 54 82 46 160 120 149 18 
13 9 38 121 73 102 110 127 65 60 152 
14 7 21 158 83 184 51 153 142 
15 9 37 67 87 130 78 48 144 5 74 
16 9 133 135 27 171 121 73 13 38 163 
17 8 20 197 159 42 35 191 147 71 
18 9 138 120 9 46 81 56 149 82 77 
19 9 168 166 183 170 172 76 2 97 41 
20 8 17 42 197 191 71 39 30 80 
21 7 14 158 83 184 51 153 142 
22 9 32 44 104 155 190 186 90 129 11 
23 9 82 46 120 149 12 18 138 54 9 
24 9 50 199 129 155 104 98 186 106 8 
25 9 55 4 189 10 49 100 150 185 119 
26 9 57 60 110 6 152 102 103 124 188 
27 6 135 140 151 16 133 171 
28 9 164 126 69 139 157 181 187 109 114 
29 9 31 105 139 114 69 52 140 151 27 
30 9 39 174 128 182 45 68 96 75 86 
31 7 27 140 151 135 29 171 108 
32 9 22 44 104 190 186 155 90 132 129 
33 7 97 154 170 183 172 19 166 
34 8 40 148 144 125 101 78 130 87 
35 9 159 147 17 89 116 49 80 185 20 
36 9 3 59 96 99 95 193 43 109 198 
37 9 15 67 87 130 48 74 78 123 5 
38 7 121 73 13 65 110 163 152 
39 9 30 174 128 182 45 68 86 96 71 
40 9 34 125 146 91 112 175 101 7 103 
41 9 58 2 76 117 62 94 195 79 172 
42 9 20 111 191 39 61 30 128 85 143 
43 9 85 99 36 59 3 109 96 128 95 
44 9 32 104 155 22 129 186 190 90 132 
45 9 68 182 174 86 176 30 75 39 198 
46 9 120 18 23 138 81 9 82 149 56 
47 9 161 11 167 177 122 63 88 119 100 
48 5 74 123 37 67 15 
49 9 185 4 89 189 25 10 119 55 100 
50 9 106 24 155 129 72 104 44 199 186 
51 9 83 184 158 14 144 130 21 67 78 
52 9 105 29 114 194 139 33 81 69 56 
53 9 92 171 108 179 16 192 27 135 13 
54 5 82 160 12 23 149 
55 9 25 4 189 10 150 49 100 119 134 
56 9 9 138 156 18 194 81 165 120 77 
57 8 26 6 103 152 110 145 124 60 
58 9 41 2 76 117 62 94 195 79 142 
59 9 3 36 96 95 99 193 109 43 198 
60 9 102 26 127 188 57 110 152 13 124 
61 9 111 141 200 143 118 85 43 42 128 
62 9 117 195 41 2 58 94 76 79 172 
63 9 100 119 177 10 122 167 189 84 4 
64 9 101 125 7 136 146 91 112 169 40 
65 7 73 163 121 38 152 110 148 
66 6 77 149 82 156 9 138 
67 7 37 15 74 184 48 130 83 
68 9 45 182 174 86 75 198 30 176 39 
69 9 139 114 28 181 164 126 115 157 165 
70 5 131 180 123 5 151 
71 9 176 86 173 182 174 45 197 39 68 
72 7 106 50 24 143 137 141 113 
73 7 121 163 65 38 110 152 107 
74 5 48 67 37 123 15 
75 9 198 193 95 68 96 3 59 45 36 
76 9 2 41 58 117 62 172 166 195 170 
77 6 66 149 9 156 138 82 
78 9 87 130 144 15 37 148 5 107 67 
79 7 94 142 153 62 58 41 117 
80 9 116 134 150 191 113 55 25 4 49 
81 9 18 120 56 46 138 9 194 156 149 
82 7 149 23 77 138 120 66 9 
83 8 184 51 158 14 67 21 130 144 
84 9 177 100 167 10 63 55 25 119 4 
85 9 43 128 96 36 3 59 99 30 95 
86 9 176 182 45 71 68 174 173 192 30 
87 9 78 130 144 15 37 5 67 107 148 
88 9 122 119 185 63 89 10 189 49 100 
89 9 185 49 189 4 119 10 25 88 122 
90 9 132 190 186 8 98 129 104 199 155 
91 9 146 112 125 136 169 40 64 175 101 
92 9 108 53 179 171 16 27 192 135 31 
93 7 196 124 145 6 175 188 26 
94 8 79 142 153 62 117 195 41 58 
95 9 193 3 59 96 198 36 75 99 109 
96 9 3 36 59 95 193 128 99 75 198 
97 8 33 183 154 170 172 19 166 168 
98 9 8 199 186 90 132 190 129 155 104 
99 9 109 59 36 3 43 96 95 193 198 
100 9 10 63 119 177 189 4 84 25 122 
101 9 7 64 125 40 146 91 34 112 136 
102 9 127 60 26 188 13 110 57 38 152 
103 8 152 57 6 110 175 145 26 148 
104 9 155 129 186 44 190 90 199 98 132 
105 9 52 29 114 139 69 31 33 194 97 
106 7 50 72 24 137 44 155 104 
107 8 5 163 78 87 148 65 73 131 
108 9 179 92 53 171 31 27 16 135 157 
109 9 99 59 36 3 43 95 193 96 126 
110 8 152 57 103 65 38 26 73 121 
111 9 61 85 143 200 42 141 43 118 128 
112 9 91 146 136 169 125 175 40 64 145 
113 7 137 134 150 84 55 116 25 
114 9 69 139 181 194 115 165 28 156 56 
115 9 165 156 181 56 194 77 9 66 138 
116 9 80 150 134 55 25 113 191 4 49 
117 9 62 195 41 2 58 94 76 172 79 
118 9 200 141 61 43 111 85 109 99 126 
119 9 63 10 100 122 189 185 4 49 88 
120 9 46 18 138 9 81 23 149 82 56 
121 7 73 38 163 65 13 110 152 
122 9 119 88 63 100 10 185 177 189 167 
123 7 180 48 131 74 37 15 70 
124 8 145 6 93 175 57 26 196 103 
125 9 146 91 40 64 101 112 136 7 169 
126 9 28 164 109 157 99 59 36 43 187 
127 9 102 60 13 188 26 110 38 57 162 
128 9 30 96 85 39 3 36 59 174 193 
129 9 155 104 186 199 98 90 190 8 132 
130 9 87 78 144 15 37 67 51 83 184 
131 6 180 70 123 5 107 15 
132 9 90 190 8 186 98 129 199 104 155 
133 9 16 135 70 163 73 121 107 5 27 
134 9 150 113 116 55 25 80 4 84 137 
135 6 27 140 151 16 133 70 
136 8 169 91 146 112 64 125 101 40 
137 7 113 134 84 150 55 25 177 
138 9 9 18 120 149 56 46 77 81 82 
139 9 69 114 164 28 29 157 181 126 115 
140 6 151 135 27 70 133 180 
141 9 118 61 200 111 143 43 85 99 109 
142 6 153 79 94 14 158 21 
143 8 61 111 141 42 191 137 113 118 
144 9 130 78 87 34 51 15 148 83 37 
145 8 6 124 175 57 103 93 26 112 
146 9 91 112 125 136 169 40 64 175 101 
147 9 159 116 89 35 49 80 185 150 4 
148 7 34 78 144 107 65 87 163 
149 7 82 77 138 9 66 18 120 
150 9 134 55 25 116 4 80 189 49 10 
151 5 140 135 27 70 180 
152 8 110 103 57 65 26 38 6 73 
153 6 142 79 94 14 158 21 
154 4 33 97 172 195 
155 9 104 129 186 199 44 190 90 98 132 
156 9 165 115 56 9 77 138 66 194 149 
157 9 164 198 109 126 95 193 28 75 99 
158 7 184 83 51 14 21 67 153 
159 9 35 147 17 116 89 80 49 185 20 
160 5 54 12 82 23 149 
161 9 47 11 167 177 63 122 88 84 119 
162 8 188 178 127 102 60 196 26 93 
163 7 73 65 121 107 38 148 110 
164 9 28 157 126 69 139 109 99 59 95 
165 9 156 115 56 194 181 9 77 138 66 
166 9 183 168 170 19 172 76 2 41 58 
167 9 177 63 84 100 10 119 122 47 161 
168 9 19 166 183 170 172 76 2 41 58 
169 8 136 112 91 146 125 64 175 40 
170 9 183 172 166 168 19 76 2 117 62 
171 9 53 92 16 108 27 135 179 133 140 
172 9 170 183 166 117 62 195 2 76 41 
173 8 176 71 192 86 182 197 45 178 
174 9 182 45 30 68 39 86 176 128 75 
175 9 145 6 103 112 124 40 91 57 146 
176 9 86 71 182 173 45 174 68 192 39 
177 9 167 63 84 100 10 119 122 189 4 
178 8 162 127 102 192 188 60 173 13 
179 9 108 92 53 171 157 198 75 68 31 
180 5 131 123 70 5 48 
181 9 115 165 156 114 69 194 56 187 28 
182 9 45 174 86 68 176 30 39 71 75 
183 9 170 166 172 19 168 76 2 117 62 
184 8 83 158 51 14 67 21 130 144 
185 9 89 49 189 4 119 10 88 122 25 
186 9 90 190 132 98 129 8 104 155 199 
187 7 181 28 115 126 165 156 66 
188 9 60 102 26 127 196 162 124 93 57 
189 9 4 49 10 185 25 119 89 100 55 
190 9 90 132 186 8 98 104 129 155 199 
191 9 80 116 134 42 150 113 20 55 137 
192 9 173 176 86 53 178 71 92 45 182 
193 9 95 3 59 96 198 36 75 99 109 
194 9 56 165 156 81 115 9 18 138 181 
195 7 62 117 94 41 2 58 172 
196 5 93 124 188 145 6 
197 8 71 173 176 86 20 182 17 192 
198 9 75 95 193 3 59 96 36 68 45 
199 9 98 129 186 8 155 90 104 132 190 
200 9 118 43 61 85 141 99 109 111 36 
DEPOT_SECTION
   1
   -1
EOF
