NAME :  X-n214-kX-w85-c7.cctp
COMMENT : 	Adapted by Maziero, Usberti and Cavellucci from the Uchoa, Pecin, Pessoa, Poggi, Subramanian, and Vidal (2013)
TYPE :  CCTP
DIMENSION :    212
EDGE_WEIGHT_TYPE : 	EUC_2D	
CAPACITY : 	944
VERTICES_WITHIN_COVERAGE :  7
VERTICES_WITH_DEMAND : 	85
NODE_COORD_SECTION
1 500 500
2 753 355
3 663 83
4 725 286
5 581 444
6 700 205
7 630 475
8 560 407
9 848 374
10 752 315
11 454 310
12 685 227
13 747 468
14 540 348
15 882 346
16 762 228
17 884 307
18 681 274
19 761 254
20 791 205
21 699 559
22 694 352
23 679 11
24 656 446
25 428 487
26 838 395
27 554 590
28 567 250
29 769 381
30 753 20
31 710 296
32 653 489
33 711 447
34 516 322
35 704 265
36 742 358
37 578 423
38 923 378
39 451 120
40 449 254
41 626 264
42 701 203
43 751 293
44 835 0
45 810 318
46 640 218
47 493 226
48 483 445
49 671 134
50 465 361
51 521 69
52 894 399
53 824 388
54 605 238
55 848 251
56 561 443
57 663 9
58 768 339
59 634 426
60 590 60
61 735 280
62 842 365
63 671 124
64 680 251
65 615 361
66 558 451
67 884 356
68 746 384
69 687 227
70 855 350
71 656 450
72 560 459
73 591 433
74 451 36
75 747 26
76 753 384
77 530 259
78 739 215
79 537 267
80 742 304
81 509 418
82 667 17
83 534 297
84 605 382
85 470 482
86 817 366
87 815 268
88 728 264
89 778 44
90 856 360
91 818 284
92 666 107
93 628 378
94 538 317
95 715 34
96 875 290
97 495 468
98 725 237
99 563 394
100 775 378
101 587 443
102 535 665
103 696 387
104 704 153
105 667 448
106 557 440
107 682 461
108 762 279
109 824 522
110 764 259
111 759 334
112 750 391
113 893 283
114 900 308
115 595 73
116 641 474
117 597 236
118 294 448
119 852 182
120 526 330
121 735 460
122 901 303
123 639 390
124 545 395
125 494 2
126 741 339
127 795 456
128 783 343
129 694 224
130 756 99
131 698 323
132 683 222
133 704 269
134 769 321
135 596 321
136 605 103
137 507 448
138 567 464
139 743 205
140 622 449
141 745 269
142 603 447
143 634 194
144 832 312
145 796 292
146 662 86
147 608 618
148 489 267
149 837 289
150 478 510
151 569 497
152 611 550
153 749 387
154 683 355
155 682 81
156 701 170
157 653 414
158 584 21
159 683 308
160 659 582
161 668 329
162 662 288
163 897 399
164 770 366
165 540 212
166 606 309
167 581 254
168 582 485
169 848 381
170 828 150
171 536 445
172 531 56
173 707 424
174 587 191
175 770 259
176 702 94
177 823 162
178 644 364
179 570 186
180 552 317
181 626 88
182 999 631
183 860 274
184 354 662
185 625 323
186 654 285
187 785 82
188 650 335
189 637 568
190 449 359
191 885 77
192 552 440
193 810 205
194 628 24
195 728 294
196 733 311
197 750 327
198 727 278
199 618 336
200 537 137
201 718 413
202 725 355
203 710 139
204 723 556
205 449 346
206 731 373
207 349 465
208 572 542
209 612 377
210 711 417
211 678 44
212 604 593
DEMAND_SECTION
2 83
3 84
4 34
5 17
6 88
7 59
8 56
9 33
10 21
11 37
12 15
13 97
14 23
15 76
16 94
17 99
18 30
19 44
20 45
21 8
22 37
23 43
24 15
25 18
26 73
27 65
28 89
29 5
30 13
31 64
32 60
33 20
34 12
35 59
36 25
37 2
38 60
39 61
40 6
41 17
42 65
43 26
44 96
45 21
46 63
47 29
48 24
49 51
50 48
51 65
52 58
53 40
54 34
55 81
56 21
57 51
58 31
59 20
60 34
61 47
62 61
63 2
64 93
65 75
66 85
67 27
68 57
69 86
70 61
71 98
72 76
73 68
74 30
75 72
76 28
77 12
78 24
79 42
80 95
81 3
82 92
83 32
84 59
85 33
86 68
COVERAGE_SECTION
2 7 36 126 164 58 111 197 202 
3 7 146 155 92 181 176 63 211 
4 7 198 195 61 31 88 80 141 
5 7 101 73 56 37 142 66 106 
6 7 42 129 132 69 12 156 78 
7 7 116 32 140 71 24 142 105 
8 7 99 124 37 106 192 56 73 
9 7 169 62 90 26 70 53 86 
10 7 197 80 134 196 111 43 126 
11 7 205 190 50 148 40 34 120 
12 7 69 132 129 64 6 42 98 
13 7 121 33 127 173 201 210 107 
14 7 120 94 180 34 124 83 99 
15 7 67 70 90 17 114 9 62 
16 7 19 78 139 110 175 20 98 
17 7 114 122 96 113 15 183 67 
18 7 64 133 162 35 186 159 31 
19 7 110 175 141 108 16 88 61 
20 7 193 16 139 78 177 19 175 
21 7 204 160 189 32 152 107 212 
22 7 154 131 202 103 161 206 159 
23 7 82 57 211 95 194 75 155 
24 7 71 105 59 107 116 157 140 
25 7 85 150 48 97 207 137 81 
26 7 53 169 9 62 86 90 70 
27 7 212 208 147 152 102 189 151 
28 7 167 117 79 77 54 165 83 
29 7 100 164 76 112 153 68 2 
30 7 75 89 95 187 23 130 211 
31 7 4 195 198 196 133 61 131 
32 7 116 7 71 107 24 105 140 
33 7 173 121 210 107 201 13 105 
34 7 120 94 83 14 180 79 148 
35 7 133 88 18 198 64 4 31 
36 7 2 202 126 206 68 76 111 
37 7 73 5 101 8 56 106 192 
38 7 163 52 67 15 90 70 114 
39 7 74 51 200 172 47 125 165 
40 7 148 47 11 77 79 205 34 
41 7 54 186 117 162 167 46 166 
42 7 6 129 132 69 12 156 78 
43 7 80 108 61 10 195 141 196 
44 7 89 30 75 191 187 95 130 
45 7 144 145 91 128 149 134 58 
46 7 143 54 132 12 117 41 69 
47 7 148 165 77 40 79 28 83 
48 7 137 97 81 85 171 150 25 
49 7 63 92 104 203 156 146 176 
50 7 190 205 11 34 120 81 14 
51 7 172 60 200 125 115 74 158 
52 7 163 38 67 169 9 15 90 
53 7 26 86 169 9 62 90 70 
54 7 117 167 41 28 46 174 143 
55 7 183 87 149 91 96 113 193 
56 7 106 66 192 72 5 138 171 
57 7 82 23 194 211 95 3 155 
58 7 111 128 134 2 197 126 164 
59 7 157 140 24 71 123 142 105 
60 7 115 158 136 181 194 172 51 
61 7 198 4 141 195 88 43 80 
62 7 9 90 169 70 86 53 26 
63 7 49 92 146 3 203 176 104 
64 7 18 12 69 35 132 129 133 
65 7 209 93 84 199 178 123 185 
66 7 72 56 106 192 138 171 5 
67 7 15 90 70 9 62 52 169 
68 7 153 76 112 206 29 36 2 
69 7 12 132 129 64 6 42 98 
70 7 90 62 9 15 67 169 86 
71 7 24 105 107 116 59 140 7 
72 7 66 138 56 106 192 5 171 
73 7 101 5 37 142 56 106 140 
74 7 125 51 172 39 200 158 60 
75 7 30 95 89 187 23 211 130 
76 7 153 68 112 29 100 164 206 
77 7 79 28 83 148 165 47 167 
78 7 139 16 98 6 42 19 129 
79 7 77 83 28 167 148 94 180 
80 7 196 43 10 195 197 4 61 
81 7 137 48 171 124 192 8 97 
82 7 57 23 211 194 95 3 155 
83 7 94 180 79 34 120 77 14 
84 7 209 65 93 123 178 99 199 
85 7 97 150 48 25 137 81 171 
86 7 53 62 9 169 26 90 70 
87 7 91 149 145 55 183 175 144 
88 7 198 61 141 4 35 133 98 
89 6 30 75 187 130 95 44 
90 7 70 62 9 169 67 15 26 
91 7 87 149 145 144 45 183 55 
92 7 63 146 3 49 155 176 181 
93 7 123 209 65 178 84 199 157 
94 7 180 120 83 34 14 79 135 
95 7 75 211 30 23 82 155 57 
96 7 17 113 183 122 114 149 55 
97 7 137 48 85 150 171 81 192 
98 7 78 88 129 35 139 16 133 
99 7 8 124 37 84 106 192 73 
100 7 29 164 76 112 153 68 2 
101 7 5 73 142 37 56 138 66 
102 7 27 147 212 208 152 189 160 
103 7 201 210 22 154 206 173 202 
104 7 203 156 49 63 42 6 176 
105 7 24 71 107 116 157 59 32 
106 7 56 192 66 72 171 5 138 
107 7 105 71 24 33 32 116 173 
108 7 43 110 141 175 19 61 80 
109 7 127 13 204 121 26 21 53 
110 7 19 175 108 141 16 43 61 
111 7 58 197 134 126 10 2 128 
112 7 153 68 76 29 206 100 164 
113 7 96 122 17 114 183 55 149 
114 7 122 17 113 96 15 67 183 
115 7 60 136 181 158 194 172 146 
116 7 7 32 71 140 24 105 107 
117 7 54 167 28 41 174 46 143 
118 7 207 25 85 190 205 48 50 
119 7 177 170 193 20 55 183 87 
120 7 34 94 14 180 83 79 50 
121 7 13 33 173 210 201 107 127 
122 7 114 17 113 96 15 183 67 
123 7 93 178 157 209 84 59 65 
124 7 99 8 37 81 192 14 106 
125 7 74 172 51 158 60 115 39 
126 7 197 36 111 2 202 10 58 
127 7 13 121 109 53 26 29 112 
128 7 58 111 134 164 2 100 45 
129 7 69 12 132 6 42 64 98 
130 6 187 176 89 203 75 104 
131 7 159 22 31 161 154 196 195 
132 7 12 69 129 6 42 64 46 
133 7 35 18 88 198 4 31 64 
134 7 111 10 58 197 128 80 43 
135 7 166 199 185 65 180 188 94 
136 6 181 115 60 146 3 92 
137 7 97 48 171 81 192 85 66 
138 7 72 66 56 5 106 168 192 
139 7 78 16 98 42 6 20 19 
140 7 142 59 7 116 24 71 73 
141 7 61 88 108 198 110 19 43 
142 7 101 73 140 5 37 59 7 
143 7 46 174 54 117 132 12 69 
144 7 45 149 91 145 70 87 183 
145 7 91 45 87 108 134 144 149 
146 7 3 92 155 181 63 176 211 
147 7 212 189 27 160 152 208 102 
148 7 47 40 77 79 83 11 34 
149 7 91 144 183 87 96 45 55 
150 7 85 97 25 48 137 171 151 
151 7 168 138 72 208 66 5 56 
152 7 189 208 212 160 147 151 27 
153 7 68 112 76 29 206 100 36 
154 7 22 161 103 131 188 178 202 
155 7 3 146 176 92 211 63 49 
156 7 104 203 42 6 49 129 63 
157 7 59 123 24 71 105 93 140 
158 7 60 194 115 172 51 181 57 
159 7 131 161 162 31 18 186 188 
160 7 189 21 212 152 147 204 32 
161 7 188 159 154 131 22 162 178 
162 7 186 18 159 64 161 41 133 
163 7 52 38 67 169 9 15 90 
164 7 100 29 2 76 128 58 36 
165 7 179 28 77 47 174 79 167 
166 7 135 185 199 41 188 65 186 
167 7 28 117 54 41 79 77 165 
168 7 151 138 72 5 66 101 142 
169 7 9 26 62 90 53 70 86 
170 6 177 119 193 20 187 130 
171 7 192 106 66 56 72 137 138 
172 7 51 60 158 125 115 200 74 
173 7 210 201 33 103 107 121 105 
174 6 179 117 143 54 165 46 
175 7 110 19 108 141 16 43 61 
176 7 155 92 3 146 63 203 49 
177 6 170 119 193 20 187 16 
178 7 93 123 65 188 209 199 154 
179 6 174 165 117 200 54 28 
180 7 94 83 120 14 34 135 79 
181 7 136 115 146 3 92 60 155 
182 7 109 163 52 38 127 26 204 
183 7 96 55 149 113 17 91 87 
184 7 102 25 150 207 27 85 118 
185 7 199 166 188 135 65 161 178 
186 7 162 18 41 159 64 161 185 
187 6 130 89 75 30 170 176 
188 7 161 185 178 199 154 159 65 
189 7 160 152 212 147 21 208 32 
190 7 205 50 11 34 120 81 14 
191 6 44 170 187 177 119 89 
192 7 106 56 66 171 72 138 5 
193 7 20 177 119 16 170 55 87 
194 7 57 82 158 60 23 211 115 
195 7 4 61 198 80 31 196 43 
196 7 80 195 10 197 43 4 31 
197 7 111 10 126 134 58 196 80 
198 7 4 61 88 195 141 31 133 
199 7 185 65 135 166 188 178 209 
200 6 179 51 174 165 136 172 
201 7 210 173 103 33 112 68 153 
202 7 36 206 126 2 22 68 197 
203 7 104 156 49 63 176 92 130 
204 7 21 160 189 13 32 121 107 
205 7 190 50 11 34 120 148 14 
206 7 36 68 202 153 76 112 2 
207 7 118 25 85 48 150 97 190 
208 7 152 151 27 168 212 189 138 
209 7 84 65 93 123 178 199 99 
210 7 173 201 33 103 112 68 153 
211 7 82 23 155 57 95 3 146 
212 7 147 189 152 27 160 208 102 
DEPOT_SECTION
   1
   -1
EOF
