NAME :  X-n233-kX-w46-c9.cctp
COMMENT : 	Adapted by Maziero, Usberti and Cavellucci from the Uchoa, Pecin, Pessoa, Poggi, Subramanian, and Vidal (2013)
TYPE :  CCTP
DIMENSION :    191
EDGE_WEIGHT_TYPE : 	EUC_2D	
CAPACITY : 	631
VERTICES_WITHIN_COVERAGE :  9
VERTICES_WITH_DEMAND : 	46
NODE_COORD_SECTION
1 500 500
2 816 981
3 349 338
4 22 205
5 385 344
6 913 54
7 524 123
8 239 335
9 150 84
10 84 860
11 645 647
12 507 516
13 153 940
14 429 602
15 596 759
16 776 399
17 942 767
18 871 2
19 714 950
20 72 400
21 765 315
22 666 798
23 287 851
24 3 201
25 78 724
26 896 240
27 59 735
28 253 251
29 37 22
30 973 599
31 726 13
32 82 262
33 2 631
34 133 656
35 435 741
36 834 714
37 37 861
38 946 211
39 290 110
40 423 350
41 406 414
42 804 581
43 846 956
44 849 683
45 79 883
46 433 93
47 610 253
48 686 486
49 229 248
50 382 597
51 544 618
52 585 303
53 732 387
54 563 807
55 780 940
56 665 561
57 591 536
58 35 216
59 577 969
60 811 927
61 592 744
62 280 384
63 866 228
64 153 27
65 401 481
66 72 488
67 610 324
68 381 300
69 209 675
70 139 848
71 354 124
72 386 572
73 36 764
74 660 422
75 719 264
76 761 560
77 231 203
78 769 312
79 905 645
80 304 372
81 970 966
82 51 257
83 189 934
84 516 6
85 756 36
86 47 139
87 428 61
88 100 853
89 923 919
90 751 480
91 555 726
92 463 190
93 130 131
94 105 943
95 83 892
96 215 690
97 869 706
98 603 287
99 668 913
100 954 694
101 282 907
102 339 810
103 30 659
104 339 296
105 367 511
106 72 181
107 323 183
108 684 125
109 415 387
110 882 359
111 485 115
112 368 424
113 585 302
114 991 97
115 634 849
116 142 639
117 436 774
118 112 691
119 665 246
120 37 450
121 899 115
122 983 90
123 429 752
124 696 466
125 629 807
126 11 521
127 50 515
128 677 876
129 171 930
130 919 111
131 425 775
132 129 852
133 504 181
134 919 181
135 390 729
136 83 649
137 469 662
138 161 759
139 656 281
140 90 681
141 563 555
142 155 612
143 213 837
144 473 689
145 153 586
146 191 650
147 645 830
148 384 375
149 65 890
150 137 561
151 561 523
152 725 818
153 998 76
154 866 252
155 439 687
156 470 303
157 636 804
158 461 690
159 912 114
160 372 683
161 378 754
162 412 780
163 637 870
164 953 185
165 541 254
166 652 948
167 117 832
168 648 144
169 371 627
170 634 872
171 235 979
172 271 865
173 115 761
174 553 750
175 723 813
176 570 761
177 114 660
178 159 883
179 460 699
180 294 874
181 265 793
182 999 75
183 662 727
184 464 770
185 724 174
186 603 260
187 814 812
188 605 284
189 134 625
190 568 454
191 220 931
DEMAND_SECTION
2 53
3 64
4 54
5 63
6 45
7 6
8 100
9 63
10 5
11 74
12 87
13 11
14 33
15 63
16 36
17 93
18 28
19 89
20 64
21 8
22 69
23 40
24 65
25 29
26 30
27 19
28 78
29 78
30 55
31 6
32 94
33 25
34 38
35 2
36 69
37 42
38 43
39 94
40 74
41 54
42 93
43 76
44 92
45 49
46 85
47 4
COVERAGE_SECTION
2 9 43 60 55 19 89 81 99 166 187 
3 9 5 104 68 148 80 40 109 62 112 
4 9 58 24 106 82 86 32 93 9 29 
5 9 148 3 40 68 109 104 41 112 80 
6 8 130 159 121 18 122 153 114 182 
7 7 111 133 92 46 87 84 168 
8 9 62 80 28 49 104 3 77 5 68 
9 9 93 64 86 106 29 39 77 58 4 
10 9 88 45 95 149 167 132 37 70 178 
11 9 183 56 51 61 91 15 57 141 176 
12 9 151 141 57 190 51 65 14 72 105 
13 9 129 83 94 178 191 95 132 171 45 
14 9 50 72 169 137 155 158 144 160 179 
15 9 61 176 174 91 54 125 157 183 22 
16 9 53 21 90 78 124 110 74 48 75 
17 9 100 97 36 44 79 187 89 30 81 
18 9 6 121 130 159 85 122 31 153 182 
19 9 99 166 55 128 60 2 163 170 115 
20 6 120 66 127 126 32 82 
21 9 78 75 53 16 139 154 119 110 63 
22 9 157 125 147 175 115 152 183 163 128 
23 7 172 180 101 181 102 143 191 
24 9 4 58 106 82 86 32 93 29 9 
25 9 27 140 118 173 73 177 136 103 34 
26 9 63 154 38 134 164 110 121 159 130 
27 9 25 73 140 173 118 103 136 177 138 
28 9 49 77 8 104 107 3 80 62 68 
29 9 64 86 9 93 106 24 4 58 82 
30 9 79 100 97 44 42 17 36 76 90 
31 9 85 108 18 168 185 6 121 84 159 
32 9 82 58 106 4 24 86 20 93 49 
33 7 103 136 140 126 177 27 25 
34 9 116 177 189 118 142 136 140 146 145 
35 7 123 117 131 184 162 135 179 
36 9 44 97 79 187 17 100 42 175 152 
37 9 149 10 45 95 88 167 132 73 70 
38 8 164 134 26 63 154 159 130 121 
39 9 71 107 77 9 46 28 87 49 64 
40 9 5 109 148 68 41 156 3 112 104 
41 9 109 112 148 40 65 5 3 105 80 
42 9 76 44 90 79 36 56 97 48 124 
43 9 2 60 55 89 81 19 187 99 152 
44 9 97 36 79 100 42 17 187 30 76 
45 9 95 149 10 88 37 132 167 94 70 
46 8 87 111 71 7 92 133 84 107 
47 9 186 188 98 139 113 119 52 165 67 
48 9 124 90 74 56 76 57 53 190 16 
49 9 28 77 8 107 104 62 80 32 3 
50 5 72 169 14 105 160 
51 9 141 137 57 151 144 11 12 91 158 
52 6 113 98 188 67 186 47 
53 9 16 21 74 78 124 90 48 75 139 
54 6 176 15 174 125 61 157 
55 9 60 2 19 43 99 128 166 187 152 
56 9 48 57 11 76 124 141 151 90 51 
57 9 151 141 56 190 12 51 48 11 124 
58 9 4 24 82 106 32 86 93 9 20 
59 7 166 99 170 163 115 128 19 
60 9 55 43 2 19 89 187 152 128 99 
61 8 15 176 174 91 54 183 125 157 
62 9 80 8 3 112 148 104 5 41 68 
63 9 154 26 134 38 164 121 159 78 130 
64 9 9 93 29 86 39 106 77 4 58 
65 9 105 112 41 72 109 148 12 50 14 
66 6 127 120 126 20 150 145 
67 7 52 113 98 188 139 186 47 
68 8 104 5 3 40 148 156 109 80 
69 6 96 146 116 34 142 189 
70 7 132 167 88 178 10 45 95 
71 8 39 107 46 87 92 111 77 133 
72 5 50 14 169 105 65 
73 9 27 25 173 37 140 103 118 167 10 
74 9 124 48 53 190 90 67 16 57 56 
75 9 119 139 21 78 185 47 186 188 98 
76 9 42 90 56 48 124 11 44 16 79 
77 9 49 28 107 39 93 8 104 9 71 
78 9 21 75 53 16 154 139 110 119 63 
79 9 44 100 97 30 36 42 17 76 187 
80 9 62 3 8 148 112 104 5 68 41 
81 9 89 43 2 60 55 17 187 19 100 
82 9 32 58 4 24 106 86 20 93 49 
83 9 129 191 13 178 171 94 101 70 143 
84 9 87 111 7 46 133 92 168 71 108 
85 9 31 108 18 185 168 6 121 159 130 
86 9 106 4 24 58 93 9 29 82 32 
87 9 46 111 71 84 7 92 133 39 107 
88 9 10 167 132 45 70 95 149 37 178 
89 9 81 43 60 2 55 17 187 19 97 
90 9 124 48 76 16 53 74 42 56 21 
91 8 174 176 61 15 54 144 179 158 
92 6 133 111 7 165 46 156 
93 9 9 106 86 64 77 58 4 32 29 
94 9 13 95 45 149 129 178 83 10 88 
95 9 45 149 10 88 37 94 132 167 70 
96 6 69 146 138 34 116 142 
97 9 44 36 79 100 17 187 42 30 175 
98 8 188 113 52 186 47 67 139 165 
99 9 128 166 163 170 19 115 147 59 152 
100 9 79 17 97 30 44 36 187 42 89 
101 8 180 172 23 191 171 83 143 102 
102 6 23 161 181 180 162 172 
103 9 33 136 140 25 27 177 118 34 73 
104 9 68 3 5 80 148 28 40 62 8 
105 8 65 72 50 112 41 14 169 109 
106 9 86 58 4 24 93 82 32 9 77 
107 8 71 39 77 28 49 104 68 92 
108 9 168 185 85 31 119 75 47 186 139 
109 9 41 148 40 5 112 3 68 65 156 
110 9 154 16 26 78 21 63 53 38 90 
111 7 7 46 133 92 87 84 71 
112 9 41 148 109 65 5 80 105 3 40 
113 6 52 98 188 67 186 47 
114 8 122 153 182 130 159 6 121 164 
115 9 163 147 170 125 157 128 22 99 54 
116 9 189 34 142 177 146 145 118 136 140 
117 5 131 123 162 184 35 
118 9 140 177 34 25 136 116 27 173 189 
119 9 139 47 75 186 188 98 185 67 52 
120 6 66 20 127 126 150 145 
121 8 159 130 6 134 122 164 114 153 
122 8 114 153 182 130 159 6 121 164 
123 6 35 117 131 162 184 135 
124 9 48 74 90 53 56 16 76 57 190 
125 9 157 147 22 115 15 163 170 54 61 
126 6 127 66 120 33 150 20 
127 6 66 126 120 150 20 145 
128 9 99 163 170 115 147 152 166 175 22 
129 9 83 13 178 191 94 171 70 132 95 
130 8 159 121 6 122 134 114 164 153 
131 5 117 162 123 35 184 
132 8 70 167 88 178 10 45 95 149 
133 4 92 7 111 165 
134 8 164 38 26 159 121 130 63 154 
135 8 161 123 35 160 162 131 117 155 
136 9 140 177 34 118 103 189 116 25 142 
137 9 144 158 179 155 14 35 51 123 160 
138 7 173 118 167 96 25 70 143 
139 9 119 188 98 47 186 67 75 52 113 
140 9 118 177 136 25 34 27 103 116 189 
141 9 151 57 51 12 190 56 11 48 14 
142 7 189 145 116 34 146 150 177 
143 7 172 181 178 23 70 132 180 
144 8 158 179 137 155 35 123 184 91 
145 5 142 150 189 116 34 
146 8 69 96 116 142 34 189 145 177 
147 9 115 125 157 22 163 170 128 175 152 
148 9 5 109 41 40 3 112 68 80 104 
149 9 45 95 10 37 88 94 132 167 70 
150 5 145 142 189 116 34 
151 9 141 57 12 190 51 56 48 74 124 
152 9 175 22 128 147 187 157 115 125 163 
153 8 182 122 114 130 6 159 121 164 
154 9 63 26 134 38 110 164 78 21 121 
155 8 158 179 144 137 35 135 123 160 
156 3 40 165 68 
157 9 125 147 22 115 15 163 170 54 61 
158 8 179 144 155 137 35 123 184 135 
159 8 130 121 6 134 122 114 164 153 
160 5 135 169 155 161 35 
161 8 135 162 123 131 35 117 102 160 
162 5 131 117 123 161 35 
163 9 170 115 128 147 99 125 157 22 166 
164 8 38 134 26 130 159 121 114 63 
165 4 186 113 52 47 
166 8 99 19 128 59 170 163 115 147 
167 8 132 70 88 10 45 178 95 173 
168 9 108 185 119 47 186 7 139 75 188 
169 4 50 160 72 14 
170 9 163 115 128 147 99 125 157 166 22 
171 9 191 83 129 101 13 172 180 178 94 
172 8 23 180 101 143 181 191 102 83 
173 8 138 25 27 118 167 73 140 70 
174 6 176 91 61 15 54 184 
175 9 152 22 128 147 157 187 125 115 163 
176 7 174 15 61 91 54 125 157 
177 9 34 118 140 136 116 189 142 25 146 
178 9 70 132 129 13 83 88 167 143 95 
179 8 158 144 155 137 35 123 184 135 
180 7 23 172 101 102 181 143 191 
181 5 23 143 172 102 180 
182 8 153 122 114 130 6 159 121 164 
183 9 22 61 15 157 11 125 176 147 175 
184 4 117 123 131 35 
185 9 108 168 75 119 139 47 85 78 21 
186 8 47 188 98 113 52 139 165 67 
187 9 152 175 36 60 97 55 44 17 43 
188 8 98 186 113 52 47 67 139 119 
189 8 116 142 34 177 145 136 146 150 
190 9 151 57 12 74 141 48 124 67 56 
191 9 83 129 171 101 13 178 172 180 143 
DEPOT_SECTION
   1
   -1
EOF
