NAME :  X-n209-kX-w83-c9.cctp
COMMENT : 	Adapted by Maziero, Usberti and Cavellucci from the Uchoa, Pecin, Pessoa, Poggi, Subramanian, and Vidal (2013)
TYPE :  CCTP
DIMENSION :    208
EDGE_WEIGHT_TYPE : 	EUC_2D	
CAPACITY : 	101
VERTICES_WITHIN_COVERAGE :  9
VERTICES_WITH_DEMAND : 	83
NODE_COORD_SECTION
1 0 0
2 487 949
3 492 770
4 150 556
5 130 719
6 962 393
7 54 890
8 861 705
9 338 631
10 119 741
11 48 296
12 982 827
13 18 954
14 558 698
15 857 337
16 963 72
17 218 46
18 705 484
19 315 3
20 331 358
21 688 156
22 314 338
23 214 428
24 193 866
25 381 924
26 968 10
27 797 382
28 733 544
29 956 878
30 576 270
31 257 778
32 713 605
33 270 940
34 880 401
35 245 168
36 973 29
37 888 919
38 943 703
39 364 248
40 932 60
41 575 18
42 663 990
43 667 351
44 85 708
45 801 330
46 261 91
47 163 953
48 509 249
49 237 336
50 791 356
51 314 168
52 356 726
53 260 412
54 630 144
55 534 255
56 356 444
57 448 320
58 987 333
59 691 109
60 319 476
61 83 716
62 395 818
63 605 769
64 633 162
65 651 644
66 221 4
67 551 912
68 762 604
69 337 41
70 156 318
71 756 357
72 749 173
73 535 235
74 719 700
75 900 564
76 717 4
77 337 441
78 759 103
79 615 132
80 365 498
81 42 268
82 952 2
83 989 303
84 471 821
85 650 215
86 302 881
87 61 459
88 391 405
89 364 170
90 643 744
91 324 620
92 559 449
93 92 914
94 133 607
95 223 949
96 988 415
97 943 616
98 764 6
99 659 250
100 766 532
101 730 338
102 850 489
103 481 467
104 564 296
105 469 531
106 538 121
107 997 183
108 127 966
109 880 538
110 300 985
111 462 125
112 781 68
113 884 92
114 438 673
115 591 658
116 928 894
117 107 816
118 581 799
119 46 288
120 548 0
121 379 725
122 186 490
123 947 161
124 702 712
125 230 722
126 40 891
127 362 568
128 26 614
129 396 104
130 756 658
131 818 433
132 236 62
133 314 56
134 276 466
135 789 828
136 626 677
137 626 156
138 369 506
139 207 461
140 566 842
141 676 871
142 135 983
143 956 181
144 5 209
145 10 57
146 499 617
147 369 482
148 975 194
149 882 465
150 716 147
151 740 993
152 77 480
153 742 233
154 869 824
155 809 987
156 999 514
157 748 391
158 366 917
159 272 875
160 0 9
161 260 359
162 449 208
163 278 711
164 422 445
165 341 448
166 683 498
167 930 690
168 184 567
169 257 360
170 783 645
171 282 884
172 978 688
173 514 349
174 343 552
175 290 171
176 675 414
177 386 86
178 575 26
179 863 973
180 223 412
181 958 176
182 391 824
183 228 93
184 704 946
185 938 995
186 159 343
187 698 106
188 896 169
189 361 937
190 201 120
191 158 852
192 786 630
193 91 909
194 291 333
195 575 931
196 60 763
197 321 837
198 154 302
199 490 215
200 612 394
201 70 159
202 972 987
203 527 340
204 34 241
205 688 334
206 878 485
207 885 205
208 124 413
DEMAND_SECTION
2 7
3 6
4 7
5 8
6 10
7 7
8 7
9 10
10 8
11 5
12 6
13 5
14 6
15 5
16 8
17 5
18 8
19 6
20 6
21 7
22 5
23 9
24 10
25 6
26 6
27 6
28 7
29 8
30 9
31 7
32 6
33 6
34 10
35 5
36 5
37 8
38 10
39 9
40 9
41 6
42 7
43 9
44 9
45 10
46 9
47 10
48 10
49 8
50 7
51 10
52 5
53 9
54 8
55 7
56 5
57 9
58 10
59 6
60 9
61 6
62 5
63 8
64 8
65 6
66 8
67 8
68 6
69 6
70 5
71 10
72 8
73 6
74 9
75 6
76 8
77 10
78 7
79 9
80 7
81 10
82 6
83 10
84 6
COVERAGE_SECTION
2 9 67 195 25 158 189 84 140 182 62 
3 9 84 118 14 140 62 114 63 182 121 
4 9 168 94 122 152 139 87 128 23 208 
5 9 10 44 61 196 117 125 94 191 31 
6 9 96 58 34 83 149 15 206 156 102 
7 9 126 193 93 13 117 108 191 142 47 
8 9 167 38 170 192 130 172 154 97 68 
9 9 91 127 174 52 163 121 114 138 80 
10 9 5 61 44 196 117 125 191 94 31 
11 9 119 81 204 144 198 70 186 201 208 
12 9 29 116 154 38 37 172 167 202 8 
13 9 126 7 93 193 108 142 47 117 191 
14 9 115 136 63 90 3 146 118 65 114 
15 9 45 34 50 27 71 131 6 157 101 
16 9 40 36 26 82 113 123 181 143 107 
17 9 132 66 183 46 190 133 19 69 35 
18 9 166 28 176 100 157 32 131 200 68 
19 9 69 133 66 132 46 17 177 183 129 
20 9 22 194 161 169 88 77 53 56 165 
21 9 150 59 187 64 54 137 72 85 79 
22 9 194 20 161 169 49 53 88 39 77 
23 9 180 139 53 122 134 169 161 208 49 
24 9 191 159 95 171 47 117 33 31 86 
25 9 158 189 86 182 110 197 62 171 2 
26 9 82 36 16 40 113 123 181 143 107 
27 9 50 71 157 45 131 15 101 34 102 
28 9 100 32 18 68 166 192 170 130 65 
29 9 116 12 37 154 202 185 179 135 38 
30 9 104 55 73 48 99 203 85 173 199 
31 9 125 163 197 159 24 171 52 86 191 
32 9 68 28 130 65 192 170 100 74 124 
33 9 95 110 171 159 86 189 158 24 47 
34 9 149 15 131 6 206 27 102 50 45 
35 9 175 190 51 183 46 132 89 17 133 
36 9 26 82 16 40 113 123 181 143 107 
37 9 116 179 29 185 154 155 202 12 135 
38 9 167 172 8 97 12 154 75 170 192 
39 9 89 51 162 22 175 57 194 20 199 
40 9 16 36 113 82 26 123 188 181 143 
41 8 178 120 106 79 54 76 59 137 
42 9 184 151 195 141 67 155 140 2 179 
43 9 205 101 176 200 71 157 99 104 30 
44 9 61 5 10 196 117 128 94 125 191 
45 9 50 27 71 15 101 157 131 34 205 
46 9 183 132 17 133 190 35 175 69 51 
47 9 108 142 95 93 193 24 191 33 7 
48 9 55 73 199 30 104 162 203 57 173 
49 9 169 161 194 22 180 186 53 70 198 
50 9 27 45 71 157 101 15 131 34 205 
51 9 175 89 35 46 39 129 177 133 183 
52 9 121 163 9 114 62 182 91 31 197 
53 9 180 23 169 161 134 139 49 77 194 
54 9 137 64 79 21 59 85 187 150 106 
55 9 73 48 30 104 199 203 173 162 57 
56 9 165 77 147 60 88 80 138 164 134 
57 9 173 203 48 88 55 39 162 199 104 
58 9 83 6 96 34 15 148 107 143 181 
59 9 187 150 21 78 54 64 79 137 72 
60 9 165 77 134 56 147 80 138 174 53 
61 9 44 10 5 196 117 128 94 125 191 
62 9 182 84 197 121 52 158 25 3 86 
63 9 118 90 140 14 136 115 3 124 141 
64 9 137 54 79 21 85 59 150 187 99 
65 9 136 115 32 124 74 90 130 14 68 
66 9 17 132 183 19 46 133 190 69 35 
67 9 195 140 2 118 84 141 42 63 3 
68 9 192 170 32 130 28 100 74 65 124 
69 9 133 19 177 129 46 132 17 183 66 
70 9 198 186 49 208 169 11 161 119 180 
71 9 101 50 157 27 45 205 43 131 176 
72 9 150 153 21 78 187 59 85 112 64 
73 9 55 48 199 30 104 162 203 106 173 
74 9 124 130 170 65 90 32 136 192 68 
75 9 109 97 206 102 149 156 167 192 100 
76 9 98 112 187 59 78 41 150 178 21 
77 9 165 56 60 147 80 88 134 138 53 
78 9 112 187 150 59 72 21 98 76 113 
79 9 54 137 64 21 106 59 187 85 150 
80 9 138 147 60 56 165 174 77 127 164 
81 9 119 204 11 144 201 198 70 186 208 
82 9 26 36 40 16 113 123 181 188 143 
83 9 58 6 148 96 107 143 181 15 207 
84 9 3 62 182 140 118 67 2 121 25 
85 9 99 64 137 21 54 79 30 153 150 
86 9 171 159 197 33 158 189 25 95 110 
87 9 152 208 122 4 139 186 23 128 11 
88 9 164 56 77 165 20 147 80 60 22 
89 8 51 129 175 39 177 162 111 35 
90 9 63 124 136 118 74 14 65 115 140 
91 9 9 127 174 163 52 121 138 114 80 
92 9 200 103 173 203 176 105 166 164 43 
93 9 193 7 126 108 47 142 13 191 117 
94 9 4 168 128 5 44 61 122 10 152 
95 9 33 47 110 24 171 159 142 108 86 
96 9 6 58 156 34 83 149 206 15 102 
97 9 75 167 172 38 109 156 8 206 102 
98 9 76 112 78 187 59 113 150 21 72 
99 9 85 30 153 205 64 21 137 43 104 
100 9 28 68 18 32 166 102 192 131 109 
101 9 71 205 157 43 50 45 27 176 153 
102 9 206 149 109 131 75 34 100 27 28 
103 9 164 105 92 88 147 138 80 173 56 
104 9 30 55 203 73 48 173 99 200 199 
105 9 103 146 164 138 80 147 127 92 174 
106 8 111 79 54 137 178 64 199 41 
107 9 148 181 143 123 188 207 16 83 40 
108 9 142 47 93 193 95 7 13 126 191 
109 9 75 206 102 149 97 100 156 131 192 
110 9 33 189 95 158 25 171 86 159 47 
111 8 129 106 162 177 199 89 73 48 
112 9 78 98 76 187 59 150 113 72 21 
113 9 40 188 16 123 112 36 181 82 207 
114 9 121 146 52 9 3 14 91 127 105 
115 9 136 14 65 90 146 63 124 32 74 
116 9 29 37 12 154 185 179 202 155 135 
117 9 191 196 10 7 193 24 93 5 126 
118 9 63 140 90 3 14 84 67 141 136 
119 9 11 81 204 144 198 70 186 201 208 
120 8 41 178 106 79 111 54 76 137 
121 9 52 114 62 182 163 9 91 3 197 
122 9 139 23 4 168 180 134 208 53 152 
123 9 181 143 148 188 107 207 16 113 40 
124 9 74 90 130 136 65 170 32 63 192 
125 9 163 31 5 10 52 91 9 44 61 
126 9 7 193 93 13 117 108 191 196 142 
127 9 174 138 91 9 80 147 60 105 165 
128 9 94 44 61 4 152 5 196 10 87 
129 8 177 111 89 69 133 51 162 175 
130 9 170 192 68 74 32 124 65 8 28 
131 9 27 102 34 149 206 50 157 71 15 
132 9 17 183 46 66 190 133 19 69 35 
133 9 69 19 46 132 177 183 129 17 66 
134 9 60 53 77 165 139 23 180 56 122 
135 9 154 141 37 8 124 184 74 116 155 
136 9 115 65 90 14 124 63 74 32 118 
137 9 64 54 79 21 85 59 187 150 106 
138 9 80 147 174 60 127 56 165 77 164 
139 9 23 122 180 134 53 208 168 4 60 
140 9 118 67 63 195 84 3 141 90 2 
141 9 184 140 195 118 42 135 63 90 67 
142 9 108 47 93 193 95 13 7 24 126 
143 9 181 123 148 107 188 207 16 113 40 
144 9 204 81 201 119 11 145 198 70 160 
145 9 160 201 144 204 190 17 81 66 183 
146 9 114 105 14 115 136 127 103 3 65 
147 9 80 138 56 165 60 77 164 174 88 
148 9 143 107 181 123 188 207 83 16 113 
149 9 206 102 34 131 109 75 6 96 27 
150 9 21 72 59 187 78 64 54 137 153 
151 9 184 155 42 179 141 37 135 195 185 
152 9 87 208 4 122 139 168 94 128 23 
153 9 72 99 150 21 85 101 45 205 71 
154 9 135 116 37 29 12 8 38 167 179 
155 9 179 151 37 184 185 42 116 135 202 
156 9 96 75 97 109 206 6 149 102 34 
157 9 71 27 50 101 176 45 131 205 43 
158 9 25 189 86 171 197 110 182 33 62 
159 9 171 86 197 33 24 95 31 158 189 
160 9 145 201 144 17 66 190 204 132 183 
161 9 169 49 194 53 22 180 20 23 186 
162 8 199 48 111 73 89 39 55 57 
163 9 125 31 52 9 91 121 197 5 62 
164 9 88 103 147 56 80 138 165 77 105 
165 9 77 56 60 147 80 138 88 134 164 
166 9 18 28 176 100 32 157 200 68 92 
167 9 38 172 8 97 75 12 154 170 192 
168 9 4 94 122 139 134 152 23 91 174 
169 9 161 49 194 53 22 180 20 23 186 
170 9 192 130 68 32 74 8 124 28 100 
171 9 159 86 33 197 95 158 24 189 110 
172 9 38 167 97 8 12 75 154 156 109 
173 9 203 57 104 55 30 48 200 92 73 
174 9 127 138 80 91 147 9 60 165 56 
175 9 51 35 89 46 183 190 39 133 132 
176 9 43 200 18 157 205 166 101 71 92 
177 8 129 69 133 111 89 19 51 46 
178 8 41 120 106 79 54 137 59 76 
179 9 155 37 185 116 202 151 29 154 184 
180 9 23 53 139 169 161 134 49 122 186 
181 9 143 123 148 107 188 207 16 113 40 
182 9 62 197 84 158 25 121 52 86 3 
183 9 132 46 190 17 35 66 133 175 51 
184 9 151 42 141 155 195 135 67 179 140 
185 9 202 179 37 116 29 155 12 154 151 
186 9 70 198 49 208 180 169 23 161 11 
187 9 59 150 21 78 54 72 64 79 137 
188 9 207 123 143 181 113 148 107 40 16 
189 9 158 25 110 86 33 171 159 197 182 
190 9 183 35 46 132 17 175 66 51 133 
191 9 24 117 193 93 47 7 159 95 10 
192 9 170 68 130 32 74 100 28 8 124 
193 9 93 7 126 108 47 13 142 191 117 
194 9 22 161 169 20 49 53 180 39 77 
195 9 67 140 2 42 141 184 118 84 63 
196 9 61 44 10 117 5 7 126 191 193 
197 9 86 171 159 182 62 31 158 25 189 
198 9 70 186 49 11 119 208 81 169 161 
199 9 48 162 73 55 111 30 106 104 57 
200 9 176 43 92 205 203 173 104 166 18 
201 9 144 204 81 145 119 190 11 160 198 
202 9 185 116 37 29 179 12 155 154 151 
203 9 173 104 57 30 55 48 200 73 92 
204 9 81 144 119 11 201 198 70 186 145 
205 9 43 101 71 176 157 99 200 50 45 
206 9 149 102 109 131 75 34 100 156 6 
207 9 188 143 123 181 148 113 107 15 72 
208 9 87 186 152 23 139 122 180 70 198 
DEPOT_SECTION
   1
   -1
EOF
