NAME :  X-n237-kX-w47-c7.cctp
COMMENT : 	Adapted by Maziero, Usberti and Cavellucci from the Uchoa, Pecin, Pessoa, Poggi, Subramanian, and Vidal (2013)
TYPE :  CCTP
DIMENSION :    204
EDGE_WEIGHT_TYPE : 	EUC_2D	
CAPACITY : 	18
VERTICES_WITHIN_COVERAGE :  7
VERTICES_WITH_DEMAND : 	47
NODE_COORD_SECTION
1 0 0
2 80 386
3 521 652
4 597 936
5 836 69
6 503 987
7 618 169
8 115 662
9 312 175
10 78 83
11 364 317
12 12 454
13 980 537
14 403 383
15 144 443
16 739 464
17 886 511
18 904 106
19 794 539
20 821 608
21 781 347
22 336 490
23 101 736
24 365 68
25 618 684
26 282 286
27 311 806
28 557 793
29 54 50
30 651 264
31 619 661
32 156 994
33 950 369
34 183 707
35 673 856
36 5 651
37 867 449
38 946 914
39 75 82
40 522 8
41 573 493
42 833 699
43 881 677
44 201 77
45 536 593
46 67 895
47 99 113
48 120 133
49 428 231
50 701 845
51 626 782
52 113 914
53 569 117
54 865 639
55 708 9
56 511 977
57 104 838
58 956 568
59 431 929
60 615 707
61 913 42
62 854 504
63 236 176
64 377 404
65 380 468
66 590 752
67 620 146
68 616 746
69 675 114
70 556 640
71 99 777
72 12 194
73 920 116
74 846 384
75 525 23
76 199 348
77 813 875
78 757 593
79 573 358
80 264 448
81 289 765
82 246 267
83 245 876
84 378 754
85 636 653
86 555 181
87 738 446
88 882 942
89 102 787
90 669 905
91 490 45
92 883 547
93 971 638
94 256 227
95 489 411
96 514 866
97 7 118
98 415 820
99 161 160
100 27 21
101 695 395
102 64 937
103 770 896
104 20 546
105 986 803
106 379 259
107 686 273
108 133 869
109 157 499
110 649 934
111 999 236
112 670 615
113 978 479
114 646 823
115 440 534
116 26 411
117 114 126
118 661 528
119 946 326
120 695 420
121 172 317
122 116 701
123 940 438
124 824 136
125 837 507
126 542 708
127 808 413
128 68 374
129 582 768
130 593 651
131 71 712
132 26 569
133 918 629
134 165 731
135 941 282
136 285 379
137 227 977
138 788 366
139 33 507
140 597 983
141 799 35
142 414 697
143 529 178
144 235 743
145 118 484
146 349 554
147 591 189
148 807 670
149 163 621
150 874 932
151 245 24
152 960 27
153 139 44
154 45 584
155 281 434
156 684 501
157 284 414
158 20 905
159 57 354
160 306 107
161 167 289
162 952 66
163 862 741
164 806 277
165 782 700
166 82 208
167 951 550
168 710 44
169 537 764
170 407 191
171 629 133
172 608 911
173 760 125
174 727 517
175 679 836
176 73 420
177 637 903
178 297 723
179 55 920
180 676 550
181 933 456
182 326 903
183 846 181
184 116 175
185 344 992
186 28 667
187 439 245
188 891 450
189 224 732
190 156 734
191 390 441
192 115 896
193 210 731
194 42 176
195 505 517
196 923 66
197 490 844
198 342 859
199 210 644
200 313 79
201 399 775
202 876 843
203 631 889
204 182 284
DEMAND_SECTION
2 1
3 1
4 1
5 1
6 1
7 1
8 1
9 1
10 1
11 1
12 1
13 1
14 1
15 1
16 1
17 1
18 1
19 1
20 1
21 1
22 1
23 1
24 1
25 1
26 1
27 1
28 1
29 1
30 1
31 1
32 1
33 1
34 1
35 1
36 1
37 1
38 1
39 1
40 1
41 1
42 1
43 1
44 1
45 1
46 1
47 1
48 1
COVERAGE_SECTION
2 7 128 176 159 116 15 12 145 
3 7 70 126 45 130 31 25 60 
4 7 172 140 110 177 203 90 56 
5 6 141 124 18 61 196 173 
6 7 56 59 140 4 96 172 197 
7 7 67 147 171 86 53 69 143 
8 7 122 149 131 23 34 190 134 
9 7 160 63 94 170 200 106 82 
10 7 39 47 29 117 48 153 97 
11 7 106 14 26 64 136 187 49 
12 7 116 139 176 104 2 128 145 
13 7 167 58 113 181 17 92 93 
14 7 64 191 11 65 95 136 157 
15 5 145 109 176 2 128 
16 7 87 174 120 156 101 127 19 
17 7 62 92 125 188 37 181 167 
18 7 73 196 162 61 5 124 183 
19 7 125 78 62 174 20 92 16 
20 7 54 148 78 19 92 43 42 
21 6 138 127 164 74 101 87 
22 7 65 146 191 155 80 157 64 
23 7 122 131 71 89 190 134 8 
24 6 200 160 9 91 151 170 
25 7 31 60 85 130 68 66 70 
26 7 82 94 11 136 204 106 76 
27 7 81 198 178 84 201 83 182 
28 7 129 169 66 51 68 197 96 
29 7 39 100 10 47 97 153 117 
30 5 107 147 7 67 79 
31 7 85 25 130 60 70 112 68 
32 6 137 52 192 102 179 108 
33 7 119 123 135 181 188 74 113 
34 7 134 193 190 189 144 122 199 
35 6 175 50 114 90 203 177 
36 6 186 154 132 131 104 8 
37 7 188 62 17 125 181 74 127 
38 6 88 150 202 105 77 103 
39 7 10 29 47 117 48 153 97 
40 6 75 91 53 171 24 67 
41 6 195 118 45 156 95 180 
42 7 148 163 165 43 54 20 133 
43 7 54 42 133 163 148 20 93 
44 7 151 153 99 48 117 63 47 
45 7 70 3 130 195 31 41 115 
46 7 179 102 158 192 52 57 108 
47 7 117 48 10 39 184 29 99 
48 7 117 47 184 99 10 39 166 
49 4 187 170 106 11 
50 6 175 35 114 90 203 103 
51 5 68 114 129 66 28 
52 5 192 108 46 102 179 
53 6 67 171 86 7 143 147 
54 7 43 20 133 148 42 92 163 
55 7 168 141 69 173 5 171 67 
56 7 6 140 59 4 96 172 197 
57 5 108 89 192 71 46 
58 7 167 13 93 133 92 17 113 
59 7 6 56 197 96 185 182 98 
60 7 25 68 31 66 85 130 129 
61 7 196 162 152 18 73 5 141 
62 7 125 17 92 37 188 19 181 
63 7 94 9 99 82 160 44 26 
64 7 14 191 65 11 157 22 136 
65 7 191 22 64 14 115 146 155 
66 7 129 68 51 60 28 169 126 
67 7 171 7 147 53 69 86 143 
68 5 66 51 60 129 25 
69 5 171 67 168 7 173 
70 7 3 130 45 31 126 25 85 
71 5 89 23 57 131 190 
72 6 194 166 97 184 47 117 
73 7 18 196 162 61 5 124 152 
74 7 127 138 37 21 188 33 123 
75 6 40 91 53 171 67 143 
76 7 121 204 161 136 82 26 157 
77 6 103 202 150 88 50 38 
78 6 19 20 174 112 148 180 
79 6 95 30 101 41 120 107 
80 4 155 157 136 22 
81 6 178 27 144 189 193 84 
82 7 26 94 204 161 121 63 76 
83 6 182 27 198 137 108 81 
84 6 201 142 98 27 178 81 
85 7 31 25 130 112 60 70 68 
86 6 143 147 7 53 67 171 
87 7 16 120 101 174 127 156 138 
88 6 150 38 77 202 103 105 
89 5 71 23 57 190 131 
90 7 177 110 203 35 172 50 175 
91 6 75 40 53 24 143 86 
92 7 17 62 125 167 58 20 19 
93 7 133 58 167 43 13 54 92 
94 7 82 63 26 9 204 161 99 
95 7 14 79 191 195 64 41 65 
96 7 197 28 59 172 169 4 98 
97 7 194 72 39 10 29 47 100 
98 7 201 84 197 198 27 96 59 
99 7 184 48 117 63 47 44 166 
100 7 29 39 10 97 153 47 117 
101 7 120 87 16 138 21 156 127 
102 7 179 46 52 158 192 108 57 
103 6 77 50 90 35 175 150 
104 5 132 139 154 12 36 
105 7 202 38 163 43 93 150 88 
106 4 49 11 187 170 
107 3 30 21 164 
108 4 192 57 52 46 
109 2 145 15 
110 7 177 90 172 203 4 140 35 
111 6 135 119 33 73 18 183 
112 6 85 180 31 130 25 118 
113 7 181 123 13 167 58 188 17 
114 5 175 35 51 50 203 
115 7 195 65 146 191 22 45 95 
116 7 12 176 128 2 159 139 145 
117 7 48 47 184 10 99 39 153 
118 6 180 156 174 112 41 16 
119 7 33 135 111 123 74 181 188 
120 7 101 87 16 156 174 138 21 
121 6 161 204 76 82 26 2 
122 7 23 8 131 190 134 34 71 
123 7 181 188 113 33 37 17 13 
124 4 183 173 5 18 
125 7 62 17 19 92 37 188 127 
126 7 169 3 66 70 129 60 130 
127 7 74 138 37 21 87 16 188 
128 7 2 159 176 116 12 15 121 
129 6 66 28 68 169 51 60 
130 7 31 70 25 85 60 3 126 
131 7 23 122 186 8 71 89 190 
132 5 104 154 139 36 186 
133 7 54 93 43 58 167 92 20 
134 7 190 34 193 122 189 23 144 
135 6 119 111 33 164 74 183 
136 7 157 155 80 76 26 64 11 
137 6 32 83 185 182 52 192 
138 7 21 127 74 164 87 101 120 
139 6 104 12 132 154 145 116 
140 7 4 110 172 56 177 6 203 
141 6 5 168 55 173 124 61 
142 6 84 201 3 178 98 126 
143 5 86 147 53 7 67 
144 6 189 193 81 34 178 134 
145 3 109 15 176 
146 3 22 65 115 
147 7 7 86 67 143 171 53 30 
148 7 42 165 20 54 43 163 78 
149 2 199 8 
150 6 88 38 77 202 103 105 
151 7 44 200 160 153 24 63 99 
152 7 162 61 196 18 73 5 141 
153 7 44 10 39 47 29 117 48 
154 5 132 104 36 139 186 
155 5 157 80 136 22 64 
156 6 118 174 180 16 87 120 
157 6 155 136 80 22 64 76 
158 6 179 46 102 52 192 57 
159 6 128 2 116 176 12 121 
160 7 200 9 24 63 151 44 94 
161 6 204 121 76 82 94 26 
162 7 196 152 61 73 18 5 124 
163 7 42 43 148 165 54 202 133 
164 3 21 138 183 
165 7 148 42 163 20 43 54 78 
166 6 184 194 72 48 117 99 
167 7 58 13 92 17 113 133 93 
168 6 55 69 141 173 171 5 
169 7 28 129 66 126 68 51 197 
170 4 49 187 106 9 
171 6 67 7 69 53 147 86 
172 7 4 177 203 110 90 140 35 
173 3 124 69 5 
174 6 156 16 180 118 19 87 
175 5 35 50 114 90 203 
176 7 2 128 116 159 12 15 145 
177 7 203 172 90 110 4 35 175 
178 6 81 144 189 27 84 193 
179 7 102 46 158 52 192 108 57 
180 6 118 156 174 112 78 16 
181 7 123 188 113 37 17 33 62 
182 7 198 83 185 27 59 98 137 
183 3 124 18 73 
184 6 48 99 166 117 47 194 
185 7 182 59 137 198 83 6 56 
186 7 36 131 154 8 122 132 23 
187 4 49 106 170 11 
188 7 37 181 123 17 62 125 74 
189 7 193 144 34 134 190 81 178 
190 7 134 34 122 193 23 189 71 
191 7 65 64 14 22 95 115 155 
192 4 52 108 46 57 
193 7 189 144 34 134 190 81 178 
194 7 72 166 97 184 47 117 48 
195 7 115 41 45 95 70 65 3 
196 7 61 162 18 73 152 5 124 
197 7 96 98 28 169 59 201 129 
198 7 182 27 98 83 201 81 84 
199 3 149 34 193 
200 7 160 24 151 9 44 63 170 
201 7 84 98 142 27 198 81 178 
202 7 77 150 88 38 163 105 103 
203 7 177 172 90 110 35 4 114 
204 6 161 121 76 82 94 26 
DEPOT_SECTION
   1
   -1
EOF
