NAME :  X-n247-kX-w98-c9.cctp
COMMENT : 	Adapted by Maziero, Usberti and Cavellucci from the Uchoa, Pecin, Pessoa, Poggi, Subramanian, and Vidal (2013)
TYPE :  CCTP
DIMENSION :    245
EDGE_WEIGHT_TYPE : 	EUC_2D	
CAPACITY : 	134
VERTICES_WITHIN_COVERAGE :  9
VERTICES_WITH_DEMAND : 	98
NODE_COORD_SECTION
1 500 500
2 612 199
3 864 279
4 746 395
5 738 519
6 797 59
7 867 206
8 846 399
9 654 172
10 874 275
11 675 479
12 780 372
13 692 446
14 541 183
15 747 432
16 845 403
17 787 317
18 472 325
19 682 246
20 779 308
21 815 316
22 690 306
23 923 403
24 643 526
25 849 293
26 789 424
27 766 443
28 833 421
29 999 259
30 949 458
31 675 431
32 930 480
33 809 439
34 677 173
35 479 247
36 849 285
37 711 358
38 794 366
39 878 230
40 815 259
41 739 570
42 564 141
43 845 320
44 801 473
45 769 345
46 528 256
47 700 404
48 851 369
49 925 215
50 608 654
51 878 358
52 562 80
53 577 358
54 418 269
55 766 533
56 709 585
57 933 280
58 671 522
59 725 496
60 863 250
61 864 328
62 663 460
63 848 251
64 601 17
65 559 708
66 689 490
67 745 448
68 746 345
69 776 427
70 925 251
71 677 120
72 783 292
73 484 715
74 810 261
75 680 173
76 895 273
77 785 253
78 886 125
79 916 247
80 930 364
81 584 185
82 896 334
83 874 524
84 723 145
85 440 130
86 684 326
87 737 309
88 554 164
89 859 254
90 981 334
91 717 258
92 855 321
93 623 443
94 685 162
95 686 463
96 733 431
97 664 616
98 586 486
99 523 196
100 712 541
101 759 432
102 658 583
103 860 312
104 762 359
105 818 236
106 498 208
107 504 64
108 842 221
109 895 461
110 691 136
111 870 277
112 644 438
113 556 305
114 747 522
115 728 123
116 646 445
117 867 380
118 578 286
119 669 372
120 663 507
121 691 172
122 384 100
123 791 379
124 650 277
125 725 609
126 897 279
127 758 306
128 971 92
129 641 183
130 904 291
131 825 374
132 405 305
133 786 431
134 720 677
135 563 245
136 758 442
137 750 530
138 677 72
139 567 564
140 890 268
141 833 289
142 637 408
143 845 276
144 809 347
145 818 88
146 678 259
147 853 219
148 448 734
149 493 509
150 581 187
151 789 397
152 537 240
153 714 339
154 777 371
155 683 378
156 788 597
157 499 301
158 835 370
159 598 221
160 798 509
161 857 214
162 463 400
163 844 400
164 860 267
165 662 184
166 638 185
167 814 529
168 781 293
169 688 598
170 866 305
171 786 343
172 819 476
173 789 243
174 666 41
175 715 530
176 710 93
177 992 531
178 753 534
179 566 216
180 664 76
181 934 403
182 590 211
183 646 141
184 719 302
185 919 234
186 597 150
187 761 360
188 761 367
189 684 61
190 815 469
191 813 282
192 775 536
193 960 722
194 686 148
195 718 138
196 870 167
197 713 265
198 713 242
199 855 296
200 535 169
201 900 254
202 877 365
203 872 218
204 957 620
205 680 535
206 701 182
207 687 498
208 828 511
209 741 557
210 720 61
211 764 452
212 500 143
213 916 505
214 720 452
215 852 349
216 855 297
217 755 492
218 748 411
219 829 123
220 752 217
221 949 556
222 853 596
223 764 576
224 651 282
225 747 256
226 680 49
227 839 364
228 839 66
229 846 29
230 604 597
231 762 520
232 839 244
233 896 131
234 838 735
235 586 465
236 582 216
237 681 187
238 756 182
239 924 98
240 731 625
241 428 684
242 725 408
243 792 337
244 677 142
245 797 262
DEMAND_SECTION
2 99
3 72
4 87
5 77
6 78
7 76
8 74
9 78
10 92
11 96
12 75
13 96
14 72
15 99
16 63
17 93
18 64
19 68
20 82
21 53
22 91
23 74
24 67
25 65
26 85
27 52
28 77
29 91
30 58
31 73
32 62
33 94
34 84
35 74
36 95
37 62
38 62
39 78
40 89
41 87
42 54
43 73
44 81
45 84
46 51
47 84
48 100
49 69
50 52
51 99
52 95
53 85
54 89
55 96
56 60
57 75
58 97
59 65
60 57
61 57
62 97
63 86
64 97
65 52
66 66
67 100
68 53
69 54
70 3
71 8
72 1
73 3
74 2
75 8
76 6
77 9
78 8
79 8
80 5
81 6
82 4
83 7
84 9
85 1
86 7
87 1
88 6
89 7
90 6
91 10
92 3
93 6
94 5
95 1
96 10
97 5
98 2
99 2
COVERAGE_SECTION
2 9 182 159 166 81 129 150 236 179 9 
3 9 111 10 164 36 143 199 216 25 89 
4 9 218 242 188 15 96 187 101 104 154 
5 9 114 137 178 231 175 59 55 217 100 
6 9 145 228 229 219 210 176 115 78 195 
7 9 161 203 147 39 108 196 60 232 63 
8 9 163 16 28 117 48 158 131 227 202 
9 9 165 129 166 34 75 237 183 94 121 
10 9 111 3 164 140 76 126 89 36 60 
11 9 66 95 62 207 120 13 58 116 31 
12 9 154 123 38 188 104 187 151 45 171 
13 9 95 31 214 62 11 47 66 96 116 
14 9 200 99 88 150 179 81 42 106 236 
15 9 101 96 136 67 218 27 211 69 242 
16 9 163 8 28 117 158 48 131 227 202 
17 9 20 243 72 168 171 21 127 45 144 
18 9 157 132 162 35 54 113 46 152 53 
19 9 146 198 197 91 124 224 237 22 165 
20 9 17 168 72 127 243 171 21 45 87 
21 9 17 43 243 141 144 191 20 72 92 
22 9 86 184 153 224 87 197 124 146 91 
23 9 181 80 202 30 117 51 109 82 8 
24 9 58 120 205 207 11 66 102 62 98 
25 9 199 216 36 141 143 3 170 103 111 
26 9 133 69 33 151 27 101 136 211 15 
27 9 136 211 101 69 15 67 133 26 96 
28 9 16 163 8 33 26 131 133 151 158 
29 9 57 70 90 79 185 49 201 130 126 
30 9 32 109 181 213 23 177 80 221 83 
31 9 13 62 112 116 95 47 142 11 214 
32 9 30 213 109 83 23 181 221 177 208 
33 9 133 26 28 190 44 69 172 27 151 
34 9 75 94 121 237 165 9 206 194 244 
35 9 106 46 152 157 54 99 18 135 14 
36 9 25 143 199 216 3 141 164 111 170 
37 9 153 155 68 86 119 47 187 4 104 
38 9 123 12 154 144 171 243 151 131 45 
39 9 203 60 7 161 147 89 201 63 108 
40 9 74 245 105 191 232 77 173 63 143 
41 9 209 223 56 178 100 125 137 55 175 
42 9 88 186 200 14 81 150 52 212 99 
43 9 92 103 61 216 170 199 25 21 215 
44 9 190 172 33 160 211 133 27 208 26 
45 9 104 171 187 68 188 243 154 12 17 
46 9 152 135 35 157 179 113 106 118 99 
47 9 242 155 31 13 96 119 4 37 218 
48 9 227 158 117 215 131 202 51 8 163 
49 9 185 79 70 201 39 203 7 140 57 
50 9 230 97 65 102 169 139 134 56 125 
51 9 202 117 215 48 82 61 227 92 158 
52 9 107 42 64 186 88 212 200 180 183 
53 9 113 118 142 119 93 157 112 224 235 
54 9 132 35 18 157 106 46 152 99 162 
55 9 192 178 231 137 114 5 209 160 217 
56 9 169 125 41 209 100 240 102 97 175 
57 9 70 130 126 79 76 201 140 185 10 
58 9 205 120 24 207 66 11 100 175 59 
59 9 5 217 114 175 66 207 137 214 231 
60 9 89 63 164 39 232 10 111 3 140 
61 9 92 103 43 170 215 216 51 82 199 
62 9 11 95 116 112 31 13 66 93 207 
63 9 89 232 60 164 143 108 3 147 36 
64 9 174 52 226 180 138 189 107 210 71 
65 9 50 73 148 230 241 97 139 102 134 
66 9 207 11 95 120 59 58 62 13 205 
67 9 136 15 211 96 101 27 214 69 218 
68 9 104 187 45 188 153 37 87 154 171 
69 9 133 26 101 27 136 211 15 218 151 
70 9 79 185 201 57 49 76 140 126 130 
71 9 110 244 194 183 94 176 195 180 138 
72 9 168 20 17 127 191 245 77 21 74 
73 9 148 241 65 50 230 139 97 149 102 
74 9 40 245 191 77 105 173 232 141 143 
75 9 34 121 94 237 165 206 9 194 244 
76 9 126 140 130 201 10 111 3 79 164 
77 9 173 245 74 40 105 225 72 168 191 
78 9 233 196 239 219 228 145 7 128 161 
79 9 70 185 201 49 76 140 57 126 39 
80 9 181 23 82 51 202 90 117 61 130 
81 9 150 182 2 236 179 88 186 159 14 
82 9 51 61 202 103 170 92 130 80 215 
83 9 213 208 167 109 32 172 222 160 190 
84 9 195 115 110 194 94 121 206 244 238 
85 9 212 122 107 106 200 99 14 88 35 
86 9 22 153 37 184 119 155 224 87 124 
87 9 184 127 68 153 20 22 168 45 72 
88 9 200 14 42 150 81 99 186 179 212 
89 9 60 63 164 232 3 111 10 143 39 
90 9 80 57 29 181 82 130 23 70 126 
91 9 197 198 225 19 146 184 220 22 87 
92 9 43 103 61 170 216 199 215 25 36 
93 9 112 116 142 62 235 31 98 11 95 
94 9 75 121 34 194 244 237 206 110 165 
95 9 13 11 62 66 31 207 214 116 112 
96 9 15 67 242 214 218 101 136 27 211 
97 9 169 102 56 125 230 50 240 134 205 
98 9 235 93 24 116 112 120 139 62 11 
99 9 14 106 200 88 152 179 212 150 46 
100 9 175 205 209 5 41 114 137 178 56 
101 9 136 15 27 69 67 211 218 96 133 
102 9 97 169 56 205 230 24 58 100 125 
103 9 170 92 61 216 43 199 25 36 3 
104 9 187 188 45 154 68 12 171 38 123 
105 9 232 40 74 108 173 245 63 77 147 
106 9 99 35 14 152 200 46 212 179 88 
107 9 52 212 85 42 64 200 88 14 122 
108 9 147 161 232 105 7 203 63 60 39 
109 9 32 213 30 23 83 181 28 16 172 
110 9 194 244 71 94 195 84 121 75 115 
111 9 10 3 164 36 140 199 76 89 143 
112 9 116 93 62 142 31 13 95 11 235 
113 9 118 46 53 157 135 152 18 179 236 
114 9 5 137 178 231 55 192 217 175 59 
115 9 195 84 176 110 194 71 244 94 121 
116 9 112 62 93 31 142 95 11 13 66 
117 9 202 48 51 8 163 16 227 158 215 
118 9 113 135 46 152 159 236 179 53 124 
119 9 155 37 47 86 142 153 31 242 22 
120 9 58 207 24 11 66 205 62 95 175 
121 9 75 94 34 206 237 194 165 244 110 
122 9 85 212 107 106 200 99 54 35 14 
123 9 12 38 154 151 188 131 104 171 187 
124 9 224 146 19 22 86 197 91 198 118 
125 9 240 56 169 41 223 209 97 156 134 
126 9 76 140 130 10 201 111 3 57 79 
127 9 20 87 168 72 17 184 45 68 171 
128 9 239 233 78 196 49 228 229 219 185 
129 9 166 9 165 2 34 75 237 183 94 
130 9 126 76 140 57 10 111 201 170 3 
131 9 158 227 48 144 38 163 8 123 16 
132 9 54 18 35 157 162 46 106 152 113 
133 9 26 69 27 33 101 136 211 151 15 
134 9 240 125 97 169 56 156 41 223 102 
135 9 152 179 236 46 159 182 118 113 150 
136 9 27 101 211 67 15 69 96 133 218 
137 9 178 114 5 55 231 192 209 175 217 
138 9 189 180 226 174 176 210 71 110 244 
139 9 230 98 24 149 102 50 235 97 58 
140 9 76 126 10 201 111 130 3 164 60 
141 9 25 36 143 191 199 216 21 3 43 
142 9 112 93 116 31 119 155 62 47 13 
143 9 36 25 164 141 3 199 216 63 111 
144 9 243 171 38 131 21 227 158 17 123 
145 7 228 6 219 229 78 233 196 
146 9 19 124 224 197 91 198 22 184 86 
147 9 161 108 7 203 39 232 63 60 89 
148 9 73 241 65 50 139 230 149 97 102 
149 9 139 98 235 162 230 93 24 116 112 
150 9 81 182 236 2 179 88 159 14 186 
151 9 123 12 26 154 38 69 133 188 4 
152 9 46 135 179 99 106 236 14 35 182 
153 9 37 68 86 184 87 22 155 187 104 
154 9 12 123 188 38 104 187 45 151 171 
155 9 119 47 37 153 86 242 31 142 4 
156 9 223 41 192 209 125 240 222 55 178 
157 9 18 46 113 35 152 118 135 54 106 
158 9 227 131 48 215 8 163 16 117 144 
159 9 182 236 2 179 150 81 135 166 129 
160 9 167 208 192 44 231 172 55 190 217 
161 9 147 7 203 108 39 232 60 63 89 
162 9 18 157 132 149 53 113 54 235 98 
163 9 8 16 28 117 158 48 131 227 202 
164 9 3 89 111 10 60 143 63 36 25 
165 9 9 34 237 75 129 166 121 94 206 
166 9 129 9 165 2 34 237 75 183 94 
167 9 208 160 192 55 172 231 44 83 190 
168 9 72 20 17 127 191 245 77 21 74 
169 9 56 97 102 125 240 41 100 205 209 
170 9 103 199 216 92 25 61 3 36 43 
171 9 243 45 144 38 17 104 154 12 187 
172 9 190 44 208 33 160 167 133 28 26 
173 9 77 245 74 105 40 225 220 191 72 
174 9 226 189 138 180 210 176 64 71 110 
175 9 100 5 114 59 137 205 209 178 207 
176 9 210 115 138 189 71 195 110 180 226 
177 9 221 32 213 30 204 83 109 181 23 
178 9 137 55 114 231 5 192 209 175 41 
179 9 236 182 135 159 150 81 152 14 99 
180 9 138 189 226 174 71 176 210 110 183 
181 9 23 80 30 202 109 117 51 32 82 
182 9 236 159 2 179 150 81 135 166 14 
183 9 244 9 71 194 129 94 34 110 166 
184 9 87 22 153 197 127 86 91 68 225 
185 9 79 70 49 201 39 140 76 57 126 
186 9 42 81 150 88 183 2 166 129 9 
187 9 104 188 45 154 68 12 171 38 123 
188 9 187 104 154 12 45 68 4 123 38 
189 9 138 226 180 174 210 176 71 110 115 
190 9 172 44 33 160 208 133 28 26 211 
191 9 74 141 40 245 72 143 21 168 36 
192 9 55 231 178 137 114 160 167 209 5 
193 9 204 234 222 221 177 156 83 213 167 
194 9 244 110 94 121 75 34 71 195 84 
195 9 84 115 110 194 94 244 121 71 176 
196 9 7 233 78 161 203 147 219 108 39 
197 9 91 198 225 19 146 184 22 87 127 
198 9 91 197 19 225 146 220 184 206 237 
199 9 216 25 36 170 103 3 143 141 111 
200 9 14 88 99 42 212 150 81 106 179 
201 9 79 140 76 70 126 185 10 39 60 
202 9 51 117 48 215 82 227 61 158 8 
203 9 7 39 161 147 108 60 89 63 232 
204 9 221 177 193 222 213 83 32 30 234 
205 9 58 100 120 175 24 207 66 102 11 
206 9 121 237 75 34 94 194 165 84 110 
207 9 66 11 120 58 95 59 205 175 62 
208 9 167 160 172 190 44 83 192 55 231 
209 9 41 178 137 223 100 55 114 175 5 
210 9 176 189 226 138 174 180 115 71 6 
211 9 27 136 67 101 15 69 133 96 26 
212 9 200 14 88 99 85 42 106 107 52 
213 9 32 83 109 30 221 177 208 172 23 
214 9 67 96 13 15 95 136 59 101 211 
215 9 48 227 61 158 51 92 43 202 117 
216 9 199 25 36 170 103 3 141 143 92 
217 9 231 59 114 5 137 211 55 178 67 
218 9 4 15 242 101 96 69 136 27 67 
219 7 145 78 228 196 233 6 7 
220 8 238 225 173 198 77 91 197 206 
221 9 177 213 204 32 83 30 222 109 208 
222 9 156 83 167 208 223 192 160 221 55 
223 9 41 209 156 192 55 178 137 125 56 
224 9 124 146 22 19 86 197 91 184 118 
225 9 91 197 198 77 220 173 168 245 72 
226 9 189 174 138 180 210 176 71 64 110 
227 9 158 48 131 215 117 144 8 163 202 
228 8 145 229 6 219 78 233 239 196 
229 9 228 6 145 219 78 239 233 210 128 
230 9 139 102 50 97 24 169 205 58 56 
231 9 55 114 137 178 192 5 217 160 209 
232 9 63 89 105 108 60 40 147 164 143 
233 9 78 239 196 219 7 128 228 49 145 
234 9 193 134 222 156 240 204 125 223 41 
235 9 98 93 116 112 142 62 24 120 11 
236 9 182 179 159 150 81 2 135 152 14 
237 9 75 34 121 165 206 94 9 194 129 
238 7 220 84 206 195 115 121 173 
239 9 233 78 128 196 228 219 229 145 49 
240 9 125 56 169 134 41 223 156 97 209 
241 9 148 73 65 50 139 149 230 97 102 
242 9 218 96 4 47 15 101 214 67 136 
243 9 171 144 17 45 38 21 20 12 104 
244 9 194 110 71 94 34 75 183 121 9 
245 9 74 77 40 173 191 72 105 168 141 
DEPOT_SECTION
   1
   -1
EOF
