NAME :  X-n242-kX-w48-c11.cctp
COMMENT : 	Adapted by Maziero, Usberti and Cavellucci from the Uchoa, Pecin, Pessoa, Poggi, Subramanian, and Vidal (2013)
TYPE :  CCTP
DIMENSION :    231
EDGE_WEIGHT_TYPE : 	EUC_2D	
CAPACITY : 	28
VERTICES_WITHIN_COVERAGE :  11
VERTICES_WITH_DEMAND : 	48
NODE_COORD_SECTION
1 0 0
2 346 793
3 692 966
4 171 666
5 287 795
6 93 919
7 712 216
8 991 988
9 475 266
10 71 307
11 83 987
12 518 392
13 807 134
14 377 164
15 692 127
16 701 530
17 831 255
18 938 210
19 873 127
20 569 817
21 796 379
22 6 182
23 917 620
24 728 936
25 157 644
26 668 333
27 564 876
28 861 333
29 70 79
30 330 931
31 513 308
32 230 725
33 896 107
34 234 758
35 911 970
36 177 587
37 697 37
38 947 615
39 861 54
40 620 667
41 739 572
42 861 818
43 917 398
44 555 473
45 992 303
46 701 695
47 588 974
48 556 781
49 627 213
50 19 93
51 837 398
52 277 133
53 521 177
54 694 875
55 575 428
56 949 337
57 752 458
58 432 417
59 173 459
60 881 966
61 101 210
62 270 113
63 951 30
64 959 856
65 554 981
66 72 873
67 681 319
68 149 612
69 799 203
70 30 618
71 92 644
72 997 104
73 727 707
74 163 790
75 364 966
76 119 969
77 931 207
78 820 844
79 630 384
80 721 103
81 209 814
82 176 751
83 476 638
84 76 178
85 737 499
86 42 123
87 194 726
88 835 589
89 521 825
90 554 637
91 11 702
92 129 540
93 659 941
94 122 683
95 123 119
96 111 386
97 253 262
98 338 989
99 844 543
100 596 175
101 657 234
102 688 921
103 228 473
104 676 942
105 463 128
106 875 97
107 982 861
108 67 607
109 445 748
110 828 305
111 659 433
112 43 98
113 673 668
114 387 303
115 768 421
116 258 543
117 737 698
118 124 97
119 859 222
120 130 599
121 52 803
122 888 289
123 970 456
124 854 776
125 600 549
126 877 51
127 992 969
128 80 304
129 893 539
130 805 76
131 990 256
132 873 464
133 306 119
134 101 574
135 836 204
136 74 223
137 438 996
138 150 894
139 979 964
140 733 939
141 716 390
142 787 27
143 947 450
144 599 860
145 893 538
146 801 106
147 846 847
148 627 625
149 553 193
150 435 902
151 860 100
152 472 765
153 605 123
154 887 327
155 752 426
156 996 198
157 789 612
158 803 935
159 361 801
160 760 739
161 170 958
162 786 418
163 531 586
164 646 977
165 892 113
166 486 445
167 778 834
168 438 499
169 128 494
170 572 1000
171 174 964
172 599 871
173 957 677
174 518 177
175 93 349
176 506 454
177 792 919
178 55 284
179 116 755
180 368 125
181 502 114
182 994 392
183 523 837
184 721 780
185 907 303
186 719 842
187 799 638
188 928 824
189 280 162
190 697 736
191 131 96
192 680 683
193 972 443
194 913 538
195 499 296
196 296 811
197 664 100
198 232 621
199 252 659
200 474 107
201 556 126
202 804 296
203 180 632
204 405 387
205 475 300
206 992 105
207 137 104
208 454 340
209 821 145
210 307 108
211 780 725
212 453 269
213 756 679
214 196 467
215 120 954
216 512 344
217 559 986
218 446 627
219 672 964
220 247 606
221 834 425
222 269 568
223 115 328
224 565 915
225 621 421
226 701 511
227 70 610
228 771 636
229 937 537
230 664 187
231 840 406
DEMAND_SECTION
2 6
3 2
4 2
5 1
6 8
7 3
8 1
9 4
10 7
11 10
12 4
13 6
14 9
15 7
16 2
17 6
18 2
19 2
20 5
21 4
22 6
23 4
24 10
25 1
26 1
27 1
28 3
29 1
30 4
31 6
32 1
33 7
34 9
35 7
36 3
37 10
38 10
39 6
40 4
41 1
42 3
43 10
44 10
45 7
46 9
47 10
48 8
49 4
COVERAGE_SECTION
2 11 159 196 5 109 34 152 32 30 81 150 199 
3 11 219 104 93 102 24 164 140 54 47 177 158 
4 11 25 203 94 68 87 198 36 120 199 71 32 
5 11 196 2 34 159 81 32 87 82 74 199 30 
6 11 215 66 76 138 11 161 171 121 74 81 179 
7 11 230 101 49 69 15 67 80 202 100 13 17 
8 11 127 139 35 60 107 64 188 158 147 177 42 
9 11 212 205 195 31 208 216 114 174 53 149 12 
10 9 128 178 175 223 136 96 61 84 22 
11 11 76 215 6 161 171 66 138 121 74 81 179 
12 11 216 166 176 55 208 31 44 58 195 205 225 
13 11 209 146 130 151 19 69 135 106 165 80 33 
14 11 180 133 210 105 189 52 200 62 212 181 114 
15 11 80 197 230 153 37 7 100 49 146 101 13 
16 11 226 85 41 57 125 111 155 148 157 228 115 
17 11 119 202 110 135 69 122 28 185 154 209 77 
18 11 77 156 131 119 122 185 135 19 165 45 33 
19 11 165 33 106 151 209 13 39 146 126 130 135 
20 11 48 89 183 144 27 172 224 152 54 109 190 
21 11 162 51 115 231 221 155 28 110 141 202 57 
22 11 86 84 136 50 112 61 178 29 95 10 128 
23 10 38 173 194 129 145 229 88 99 187 157 
24 11 140 102 3 104 219 177 93 54 158 164 186 
25 11 4 203 68 94 120 36 71 198 87 134 227 
26 11 67 79 141 101 111 225 7 155 49 55 115 
27 11 172 144 224 183 20 89 48 47 65 217 93 
28 11 154 110 122 185 202 51 231 21 17 43 56 
29 11 112 86 50 118 191 95 207 84 22 61 136 
30 11 75 98 150 196 137 159 2 5 171 161 81 
31 11 195 216 205 9 208 212 12 149 114 53 174 
32 11 34 87 82 199 4 5 81 74 198 203 196 
33 11 165 106 19 151 126 39 209 13 63 146 130 
34 11 32 87 82 81 5 74 196 199 4 2 179 
35 11 60 139 127 8 158 64 177 107 147 188 78 
36 11 68 203 120 25 198 92 220 134 4 116 222 
37 11 80 197 15 142 130 146 153 13 230 209 39 
38 10 23 173 229 194 129 145 88 99 187 157 
39 11 126 106 151 130 33 165 19 142 146 63 13 
40 11 148 113 192 90 46 190 73 125 163 117 48 
41 11 16 157 226 228 85 187 88 213 99 57 113 
42 11 147 124 78 188 167 64 177 211 107 160 158 
43 11 143 56 193 154 182 231 123 132 51 28 221 
44 11 55 176 166 225 125 12 111 79 163 168 58 
45 11 131 56 185 182 122 156 18 154 77 43 28 
46 11 192 73 117 113 190 213 160 211 40 184 228 
47 11 170 217 65 164 224 93 219 104 27 3 172 
48 11 20 89 183 152 144 27 172 109 40 224 90 
49 11 101 230 100 149 7 153 15 53 201 174 67 
50 11 112 86 29 22 84 118 95 191 207 136 61 
51 11 231 221 21 162 28 115 132 43 154 155 110 
52 8 62 189 133 210 180 14 97 207 
53 11 174 149 201 181 100 105 200 9 153 49 212 
54 11 186 102 104 24 93 140 3 219 167 172 144 
55 11 225 44 12 79 176 111 166 216 125 26 31 
56 11 185 45 154 43 182 122 28 131 193 143 123 
57 11 155 115 85 162 226 141 16 221 21 111 231 
58 11 204 166 208 168 176 12 216 114 205 44 31 
59 7 214 103 169 92 96 116 36 
60 11 35 158 139 177 127 8 147 64 78 107 42 
61 10 136 84 178 95 128 22 10 86 207 118 
62 8 52 133 210 189 180 14 207 191 
63 11 126 206 72 39 33 106 165 151 19 130 142 
64 11 107 188 42 139 147 127 35 124 60 8 78 
65 11 217 170 47 224 164 27 93 137 172 219 104 
66 11 6 121 138 215 76 11 74 179 161 171 81 
67 11 26 141 79 101 7 111 225 49 202 155 21 
68 11 120 25 203 36 4 134 71 92 94 227 108 
69 11 135 17 209 119 13 7 202 146 19 110 151 
70 10 108 227 71 134 91 120 94 68 92 25 
71 11 227 108 94 120 25 68 70 134 4 203 91 
72 11 206 63 156 33 165 18 77 106 19 126 151 
73 11 117 46 213 190 160 192 211 113 184 228 187 
74 11 82 81 179 87 34 32 138 121 94 66 4 
75 11 98 30 137 150 159 196 2 5 171 65 161 
76 11 215 11 161 171 6 138 66 81 121 74 30 
77 11 18 156 119 131 122 135 19 185 165 33 17 
78 11 147 167 42 124 177 158 186 188 184 160 211 
79 11 225 111 26 55 67 141 12 44 216 155 31 
80 11 15 197 37 146 130 13 142 230 209 7 153 
81 11 74 34 82 5 196 87 32 138 179 2 66 
82 11 87 74 34 32 179 81 4 94 25 5 199 
83 8 218 163 90 109 152 168 40 148 
84 11 61 136 86 22 95 112 118 207 29 191 50 
85 10 226 57 16 41 155 115 162 111 141 99 
86 11 112 50 29 84 22 95 118 191 207 61 136 
87 11 82 32 34 4 74 179 94 81 199 25 203 
88 10 99 157 187 129 145 228 23 194 41 229 
89 11 183 20 48 27 152 144 172 224 109 150 65 
90 10 163 40 148 83 125 218 113 192 48 152 
91 11 70 71 121 227 108 94 179 134 25 120 4 
92 8 134 169 120 36 68 108 59 227 
93 11 104 219 102 164 3 24 140 54 47 172 224 
94 11 71 4 25 179 68 203 87 120 82 227 108 
95 10 207 118 191 29 84 86 112 61 50 136 
96 8 175 223 128 10 59 169 178 214 
97 9 189 52 114 62 133 223 14 61 210 
98 11 75 30 137 150 171 161 196 159 2 5 138 
99 10 88 129 145 194 132 157 229 187 23 41 
100 11 149 49 153 201 230 53 174 101 197 15 181 
101 11 49 230 7 100 67 26 149 15 153 197 69 
102 11 104 93 24 3 54 219 140 164 186 172 177 
103 8 214 59 116 169 222 92 36 220 
104 11 93 219 102 3 164 24 140 54 47 172 186 
105 11 200 181 174 53 14 201 180 149 9 100 212 
106 11 151 33 165 19 39 126 209 130 146 13 63 
107 11 64 188 139 127 8 42 35 147 60 124 78 
108 10 227 70 71 134 120 68 92 94 25 91 
109 9 152 159 89 2 83 48 183 218 20 
110 11 202 28 17 122 154 185 21 119 51 135 231 
111 11 225 79 141 55 226 155 57 26 85 16 115 
112 11 50 86 29 118 95 84 191 22 207 61 136 
113 11 192 46 40 148 73 117 190 213 228 160 41 
114 11 212 208 204 205 9 195 58 31 216 14 97 
115 11 155 162 57 21 141 221 51 231 85 111 226 
116 9 222 220 103 198 36 214 199 203 59 
117 11 73 213 46 160 211 190 192 113 228 184 187 
118 10 191 207 95 29 112 86 84 50 61 136 
119 11 135 17 69 122 77 18 209 110 202 185 19 
120 11 68 134 36 25 71 92 203 227 108 4 94 
121 11 66 179 91 74 6 82 138 94 81 87 71 
122 11 185 154 28 110 17 119 56 202 18 77 135 
123 10 193 143 182 43 229 132 194 145 129 56 
124 11 42 147 78 188 211 167 160 64 184 213 117 
125 11 163 148 44 90 16 226 40 55 111 225 176 
126 11 39 106 151 33 165 19 130 63 142 146 13 
127 11 139 8 35 107 60 64 188 147 158 42 177 
128 9 10 178 223 175 136 96 61 84 22 
129 10 145 194 229 99 88 132 23 38 143 123 
130 11 146 142 13 39 151 209 106 126 19 80 165 
131 11 45 156 18 77 56 185 122 154 119 182 28 
132 10 221 231 51 143 145 129 43 99 194 123 
133 8 210 52 62 189 180 14 97 105 
134 10 120 92 108 227 68 71 36 70 169 25 
135 11 119 69 17 209 13 19 77 202 122 110 18 
136 11 61 84 178 22 128 10 86 223 95 175 112 
137 11 75 150 98 65 217 30 170 224 47 27 183 
138 11 6 161 215 171 66 76 81 74 11 121 179 
139 11 127 8 35 60 107 64 188 147 158 42 177 
140 11 24 102 3 104 177 219 158 93 54 164 186 
141 11 155 115 111 26 162 57 67 21 79 225 85 
142 11 130 39 146 37 126 80 151 13 106 209 19 
143 10 123 193 43 132 182 229 194 145 129 56 
144 11 172 27 20 224 183 89 48 54 93 102 104 
145 10 129 194 229 99 88 132 23 38 143 123 
146 11 13 130 209 151 19 106 39 80 142 165 126 
147 11 78 42 167 124 188 177 158 64 60 186 107 
148 11 40 113 90 192 125 46 163 16 41 73 190 
149 11 53 174 100 201 49 153 181 9 105 230 101 
150 11 137 75 30 183 89 159 98 224 27 2 152 
151 11 106 19 165 33 39 126 146 130 209 13 142 
152 11 109 89 48 183 20 159 83 2 218 150 27 
153 11 201 100 197 15 149 230 49 53 174 181 80 
154 11 28 185 122 56 110 43 51 202 17 231 21 
155 11 115 57 162 141 21 85 221 51 231 111 226 
156 11 131 18 77 206 72 45 165 33 185 119 122 
157 10 187 228 88 41 213 99 117 73 211 16 
158 11 177 140 24 60 78 147 167 35 3 102 54 
159 11 2 196 5 109 152 150 30 34 32 81 89 
160 11 211 73 117 184 213 190 46 167 192 124 228 
161 11 171 215 76 138 6 11 66 81 30 74 98 
162 11 115 155 21 221 57 51 231 141 85 132 28 
163 9 90 83 125 218 148 44 40 168 176 
164 11 219 93 104 3 47 102 170 217 24 65 140 
165 11 33 106 19 151 126 39 209 13 146 130 206 
166 11 176 58 12 168 44 55 204 216 208 225 31 
167 11 78 186 147 184 42 177 54 124 160 158 211 
168 8 166 58 176 204 44 163 218 12 
169 8 92 59 214 134 103 36 120 96 
170 11 217 65 47 164 224 93 219 104 27 3 172 
171 11 161 76 215 138 6 11 66 81 30 98 74 
172 11 144 27 224 20 183 89 93 54 48 102 47 
173 11 38 23 229 124 194 88 188 129 145 187 42 
174 11 53 149 201 181 105 100 200 9 153 212 49 
175 9 223 96 10 128 178 136 59 61 169 
176 11 166 44 12 55 168 58 216 225 204 208 125 
177 11 158 140 24 78 167 147 60 102 186 54 3 
178 11 10 128 136 223 175 61 84 22 96 86 95 
179 11 74 82 94 121 87 4 81 71 25 32 34 
180 9 14 133 210 52 105 189 62 200 181 
181 11 200 105 201 174 53 149 153 100 180 14 9 
182 11 193 123 56 143 43 45 185 154 131 132 28 
183 11 89 20 27 48 144 172 152 224 150 109 65 
184 11 190 160 186 73 167 211 117 46 54 192 213 
185 11 122 154 56 28 110 45 17 119 131 43 18 
186 11 54 167 184 102 24 140 78 177 190 104 160 
187 11 157 228 213 88 117 41 211 73 99 160 46 
188 11 64 107 42 147 124 78 35 139 60 167 173 
189 8 52 62 133 210 180 14 97 207 
190 11 46 73 184 117 192 160 113 213 211 40 186 
191 9 118 207 95 29 112 86 84 50 61 
192 11 113 46 73 190 117 40 213 148 160 228 184 
193 11 123 143 182 43 229 132 56 194 129 145 231 
194 10 129 145 229 99 23 38 132 88 143 123 
195 11 31 205 9 216 212 208 12 114 149 53 174 
196 11 5 2 159 34 81 32 30 87 82 74 199 
197 11 15 80 153 37 230 100 201 49 7 101 146 
198 11 220 199 203 36 222 4 25 116 68 32 120 
199 11 198 220 32 203 4 87 222 25 34 36 68 
200 11 105 181 174 53 201 180 14 149 153 100 9 
201 11 153 181 53 100 174 149 200 105 197 49 230 
202 11 110 17 28 21 122 154 119 69 135 185 51 
203 11 25 4 68 36 198 120 220 94 199 71 87 
204 11 58 208 114 166 205 12 216 168 176 212 195 
205 11 195 9 212 31 208 216 114 12 204 58 174 
206 11 72 63 156 33 165 106 18 77 19 126 151 
207 9 191 118 95 29 112 84 86 61 50 
208 11 205 216 195 31 204 212 9 114 58 12 166 
209 11 13 146 19 151 135 69 130 106 165 33 119 
210 8 133 62 52 189 180 14 105 97 
211 11 160 117 213 73 184 190 46 187 228 124 192 
212 11 9 205 195 208 31 114 216 174 53 149 204 
213 11 117 73 228 211 46 187 160 157 192 190 113 
214 8 59 103 169 116 92 96 36 222 
215 11 76 6 11 161 171 138 66 81 121 74 179 
216 11 31 12 195 205 208 9 212 166 55 58 176 
217 11 65 170 47 224 164 27 93 219 137 172 104 
218 8 83 163 90 109 168 152 125 40 
219 11 3 104 93 164 102 24 140 47 54 170 217 
220 11 198 222 199 116 203 36 4 25 68 120 32 
221 10 231 51 162 132 21 115 155 43 57 28 
222 9 116 220 198 199 36 103 203 214 68 
223 9 175 128 10 96 178 136 61 59 97 
224 11 27 172 47 144 65 217 170 183 20 93 89 
225 11 79 111 55 44 26 141 12 67 176 226 125 
226 11 16 85 41 57 111 155 125 115 225 141 162 
227 10 108 71 70 134 120 68 94 92 25 36 
228 11 187 157 213 117 41 88 73 211 46 192 113 
229 10 194 129 145 38 23 123 143 99 132 193 
230 11 49 101 7 15 100 153 197 80 149 201 67 
231 11 51 221 21 162 132 115 28 43 155 154 57 
DEPOT_SECTION
   1
   -1
EOF
