NAME :  X-n294-kX-w29-c7.cctp
COMMENT : 	Adapted by Maziero, Usberti and Cavellucci from the Uchoa, Pecin, Pessoa, Poggi, Subramanian, and Vidal (2013)
TYPE :  CCTP
DIMENSION :    162
EDGE_WEIGHT_TYPE : 	EUC_2D	
CAPACITY : 	285
VERTICES_WITHIN_COVERAGE :  7
VERTICES_WITH_DEMAND : 	29
NODE_COORD_SECTION
1 500 500
2 940 231
3 721 848
4 618 44
5 993 145
6 636 512
7 274 496
8 245 945
9 449 812
10 29 650
11 399 8
12 548 19
13 769 717
14 221 850
15 980 233
16 477 922
17 498 720
18 136 832
19 351 663
20 58 67
21 889 569
22 28 334
23 804 928
24 900 138
25 393 403
26 982 609
27 79 299
28 684 582
29 169 252
30 405 925
31 875 191
32 576 537
33 539 63
34 338 657
35 210 209
36 676 568
37 572 890
38 671 842
39 727 566
40 819 108
41 929 582
42 713 738
43 352 626
44 887 547
45 11 147
46 958 60
47 790 956
48 974 63
49 961 969
50 758 840
51 88 44
52 507 811
53 51 914
54 953 33
55 922 45
56 544 867
57 322 79
58 586 764
59 925 138
60 751 783
61 738 913
62 681 886
63 627 27
64 478 345
65 834 858
66 126 769
67 317 934
68 370 432
69 631 484
70 820 918
71 687 877
72 752 983
73 709 898
74 300 878
75 728 617
76 66 59
77 991 657
78 438 722
79 43 247
80 471 14
81 115 806
82 194 337
83 277 601
84 962 575
85 108 931
86 209 800
87 31 219
88 97 324
89 780 669
90 786 769
91 282 633
92 361 17
93 957 103
94 27 318
95 665 656
96 539 783
97 833 988
98 16 637
99 41 388
100 700 658
101 87 771
102 658 874
103 527 853
104 352 829
105 937 639
106 833 692
107 421 999
108 509 61
109 342 691
110 95 216
111 700 873
112 659 568
113 988 980
114 28 661
115 724 842
116 2 660
117 210 180
118 430 92
119 265 453
120 20 952
121 673 659
122 185 335
123 769 741
124 831 678
125 401 625
126 192 520
127 449 679
128 333 352
129 837 944
130 377 500
131 65 235
132 440 877
133 439 326
134 407 621
135 169 68
136 253 243
137 76 852
138 997 660
139 14 98
140 791 671
141 299 800
142 290 897
143 25 242
144 761 886
145 501 846
146 337 71
147 106 973
148 623 580
149 978 669
150 884 559
151 390 602
152 672 867
153 69 790
154 584 520
155 761 734
156 192 875
157 88 353
158 98 68
159 642 658
160 824 694
161 238 825
162 357 593
DEMAND_SECTION
2 94
3 7
4 83
5 31
6 9
7 78
8 50
9 18
10 10
11 11
12 68
13 37
14 57
15 83
16 38
17 94
18 12
19 63
20 84
21 19
22 68
23 32
24 98
25 47
26 97
27 25
28 98
29 30
30 30
COVERAGE_SECTION
2 5 15 31 59 5 24 
3 7 115 111 50 71 38 73 152 
4 3 63 12 33 
5 7 93 59 48 15 46 24 2 
6 7 69 154 112 32 36 148 28 
7 5 119 126 130 83 68 
8 7 142 67 74 156 14 161 85 
9 7 52 145 132 103 78 96 104 
10 3 114 98 116 
11 6 92 80 146 118 57 108 
12 5 33 108 4 80 63 
13 7 155 123 89 140 90 42 160 
14 7 161 156 86 142 74 18 141 
15 4 2 5 59 31 
16 7 132 30 145 103 56 107 37 
17 6 78 127 96 52 58 9 
18 7 81 137 66 156 101 153 86 
19 7 34 109 43 125 134 162 151 
20 5 76 51 158 139 45 
21 6 150 44 41 84 105 26 
22 6 94 99 27 157 88 79 
23 7 70 47 129 144 97 61 65 
24 7 59 31 93 40 5 55 46 
25 5 68 128 133 130 64 
26 7 84 77 138 105 41 149 21 
27 7 88 94 157 22 79 131 143 
28 7 36 112 39 75 148 95 100 
29 7 35 110 117 136 122 82 27 
30 7 132 16 107 67 104 74 142 
31 5 24 59 2 40 15 
32 4 154 148 6 69 
33 2 108 12 
34 7 19 43 109 91 162 125 151 
35 4 117 136 29 110 
36 7 28 112 39 148 6 75 95 
37 6 56 103 145 102 16 52 
38 7 152 102 71 111 62 3 115 
39 5 28 36 75 112 100 
40 2 24 31 
41 7 84 21 150 44 105 26 77 
42 7 155 123 60 13 90 100 121 
43 7 162 34 19 151 125 134 109 
44 6 150 21 41 84 105 26 
45 6 139 87 20 143 131 76 
46 7 48 54 55 93 59 5 24 
47 7 23 72 70 129 97 61 144 
48 7 46 54 93 55 5 59 24 
49 5 113 129 97 70 23 
50 6 115 3 144 60 111 61 
51 5 158 76 20 135 139 
52 7 145 96 103 9 56 17 58 
53 5 120 85 137 147 18 
54 6 46 55 48 93 59 24 
55 6 54 46 48 93 59 24 
56 6 103 37 145 52 96 16 
57 3 146 92 11 
58 5 96 52 17 103 56 
59 7 24 93 5 31 46 48 55 
60 7 90 123 155 50 42 115 13 
61 6 73 144 111 71 62 3 
62 7 71 152 111 102 73 38 3 
63 3 4 12 33 
64 2 133 25 
65 4 70 23 50 144 
66 4 81 101 153 18 
67 7 142 74 8 30 104 107 14 
68 5 25 130 128 119 7 
69 6 6 154 32 112 36 148 
70 6 23 129 47 65 144 97 
71 7 62 111 152 102 73 38 3 
72 6 47 61 23 97 70 129 
73 6 111 62 71 61 152 3 
74 7 142 67 104 141 161 14 8 
75 7 100 39 28 121 36 89 95 
76 6 20 51 158 139 135 45 
77 5 138 149 26 105 84 
78 7 127 17 9 109 125 19 134 
79 6 143 131 87 110 27 94 
80 5 108 11 12 33 118 
81 6 18 66 101 153 137 86 
82 3 122 29 88 
83 5 91 43 162 34 19 
84 7 41 26 105 21 44 150 77 
85 6 147 53 137 120 156 18 
86 6 161 14 156 18 66 141 
87 6 143 79 131 110 45 27 
88 6 157 27 22 94 99 122 
89 7 140 13 160 124 106 155 123 
90 5 123 60 155 13 50 
91 5 83 34 43 19 109 
92 5 11 146 57 118 80 
93 7 46 48 59 5 24 55 54 
94 7 22 27 88 157 99 79 143 
95 7 121 159 100 75 28 148 112 
96 6 52 58 103 145 17 56 
97 7 129 47 23 70 72 61 144 
98 3 10 114 116 
99 4 22 157 94 88 
100 7 121 95 75 159 28 42 89 
101 5 153 66 81 18 137 
102 7 152 62 71 38 111 73 3 
103 7 56 145 52 37 96 16 9 
104 7 141 74 142 9 132 30 67 
105 6 149 26 77 41 138 84 
106 5 160 124 140 89 13 
107 7 30 16 67 132 142 74 145 
108 3 33 12 80 
109 7 19 34 43 91 125 134 162 
110 5 131 79 87 143 29 
111 7 71 62 73 152 3 115 38 
112 7 36 28 148 6 39 75 95 
113 5 49 97 129 70 23 
114 3 10 116 98 
115 7 3 50 111 71 38 144 73 
116 3 114 98 10 
117 3 35 136 29 
118 3 108 80 11 
119 3 7 126 68 
120 5 53 147 85 137 18 
121 7 95 100 159 75 28 42 36 
122 3 82 29 88 
123 7 155 13 90 60 42 160 89 
124 5 106 160 140 89 13 
125 7 134 151 43 162 19 34 127 
126 1 7 
127 5 78 17 125 134 151 
128 3 25 68 133 
129 7 70 23 97 47 65 72 144 
130 5 68 162 25 7 151 
131 6 79 110 87 143 27 94 
132 7 16 30 9 145 103 52 104 
133 3 64 25 128 
134 6 125 151 43 162 19 127 
135 4 158 51 76 20 
136 3 35 117 29 
137 6 81 153 18 53 101 85 
138 5 77 149 26 105 84 
139 6 45 20 76 158 51 87 
140 7 89 160 124 106 13 155 123 
141 6 104 161 74 86 14 142 
142 7 74 67 8 14 161 104 141 
143 6 79 87 131 110 94 27 
144 7 61 50 73 3 115 23 111 
145 7 103 52 56 9 132 96 16 
146 4 57 92 11 118 
147 6 85 53 120 137 156 8 
148 6 112 36 28 32 6 154 
149 5 77 138 105 26 84 
150 6 21 44 41 84 105 26 
151 6 125 134 162 43 19 34 
152 7 102 71 62 38 111 73 3 
153 5 101 81 66 137 18 
154 4 32 6 69 148 
155 7 123 13 90 42 60 89 140 
156 7 14 161 18 86 8 142 85 
157 5 88 27 99 22 94 
158 5 51 76 20 135 139 
159 6 95 121 100 148 28 112 
160 6 106 124 140 89 13 123 
161 6 14 86 141 156 74 142 
162 7 43 151 125 134 34 19 83 
DEPOT_SECTION
   1
   -1
EOF
