NAME :  X-n266-kX-w26-c7.cctp
COMMENT : 	Adapted by Maziero, Usberti and Cavellucci from the Uchoa, Pecin, Pessoa, Poggi, Subramanian, and Vidal (2013)
TYPE :  CCTP
DIMENSION :    124
EDGE_WEIGHT_TYPE : 	EUC_2D	
CAPACITY : 	35
VERTICES_WITHIN_COVERAGE :  7
VERTICES_WITH_DEMAND : 	26
NODE_COORD_SECTION
1 143 12
2 206 907
3 895 855
4 640 970
5 865 716
6 993 356
7 618 966
8 963 539
9 50 979
10 241 998
11 32 206
12 288 926
13 299 507
14 336 180
15 589 726
16 665 488
17 36 521
18 112 895
19 814 442
20 843 474
21 17 258
22 360 273
23 814 537
24 775 524
25 825 471
26 321 87
27 773 958
28 368 928
29 386 911
30 186 803
31 948 721
32 216 973
33 915 641
34 238 810
35 946 172
36 23 561
37 613 657
38 56 554
39 862 723
40 974 838
41 815 880
42 882 803
43 836 461
44 789 669
45 956 1000
46 580 959
47 262 31
48 960 74
49 237 910
50 353 828
51 923 491
52 987 930
53 34 820
54 837 536
55 835 467
56 988 937
57 487 765
58 975 406
59 607 487
60 57 898
61 0 517
62 16 909
63 846 379
64 948 682
65 324 44
66 339 188
67 589 805
68 934 907
69 848 633
70 890 973
71 98 787
72 964 391
73 171 837
74 946 388
75 818 503
76 887 643
77 981 839
78 288 219
79 56 193
80 304 158
81 66 150
82 39 224
83 277 43
84 620 623
85 367 300
86 435 235
87 242 543
88 673 531
89 348 126
90 75 271
91 859 379
92 747 578
93 257 92
94 78 288
95 343 279
96 686 499
97 347 264
98 321 280
99 59 174
100 312 489
101 382 227
102 84 311
103 378 58
104 689 522
105 327 293
106 292 538
107 696 506
108 430 247
109 803 537
110 765 571
111 327 164
112 218 562
113 769 443
114 821 500
115 310 87
116 770 527
117 410 281
118 352 172
119 294 460
120 857 655
121 607 505
122 331 128
123 364 278
124 79 208
DEMAND_SECTION
2 5
3 5
4 5
5 5
6 6
7 10
8 10
9 10
10 9
11 9
12 5
13 9
14 5
15 6
16 7
17 6
18 10
19 6
20 5
21 10
22 6
23 10
24 7
25 6
26 9
27 5
COVERAGE_SECTION
2 7 49 32 73 12 18 10 34 
3 7 42 68 40 41 77 70 52 
4 6 7 46 27 67 41 15 
5 7 39 120 76 31 69 42 44 
6 7 72 58 74 91 63 51 8 
7 6 4 46 27 67 41 29 
8 7 51 33 54 76 58 20 64 
9 7 62 60 18 53 32 2 73 
10 7 32 12 49 2 28 18 29 
11 7 82 79 99 124 21 81 90 
12 7 49 28 2 10 32 29 50 
13 4 100 106 119 87 
14 7 66 111 118 80 122 89 78 
15 4 37 67 84 57 
16 6 96 107 104 88 59 121 
17 4 61 38 36 112 
18 7 60 73 2 62 9 53 71 
19 7 43 25 55 20 113 114 75 
20 7 55 43 25 114 75 19 54 
21 7 82 11 90 94 79 124 102 
22 7 123 97 95 85 105 98 101 
23 7 109 54 75 114 24 116 110 
24 6 116 109 23 75 110 114 
25 7 55 43 20 114 19 75 113 
26 7 115 122 65 89 83 93 103 
27 7 41 70 4 7 3 68 45 
28 5 29 12 50 49 10 
29 4 28 50 12 49 
30 4 73 34 71 2 
31 7 64 5 39 33 76 42 120 
32 7 10 49 2 12 18 73 28 
33 7 76 64 120 69 31 5 39 
34 5 30 73 49 2 50 
35 5 48 6 74 72 91 
36 4 38 17 61 112 
37 2 84 15 
38 4 36 17 61 112 
39 7 5 120 42 76 31 44 69 
40 7 77 68 3 52 42 56 31 
41 7 3 27 42 70 68 39 40 
42 7 3 39 5 40 41 31 77 
43 7 55 20 25 19 114 75 113 
44 7 69 120 5 39 92 76 110 
45 7 56 70 52 68 3 40 77 
46 6 7 4 67 27 29 28 
47 5 83 93 65 115 26 
48 4 35 6 74 72 
49 7 2 12 32 10 73 34 30 
50 4 29 28 34 12 
51 7 8 20 55 43 54 25 58 
52 7 56 68 45 77 40 70 3 
53 7 71 60 62 18 73 30 9 
54 7 23 109 75 114 20 24 25 
55 7 43 20 25 19 114 75 54 
56 7 52 68 45 77 40 70 3 
57 2 15 67 
58 7 72 74 6 51 91 63 8 
59 2 121 16 
60 7 62 18 9 53 71 73 2 
61 3 17 36 38 
62 7 60 9 53 18 71 73 2 
63 7 91 19 43 55 25 20 74 
64 7 31 33 76 5 39 120 69 
65 7 26 115 83 103 47 93 122 
66 7 14 118 111 80 101 78 122 
67 4 15 57 37 46 
68 7 52 56 3 70 40 77 45 
69 7 120 76 33 44 5 39 54 
70 7 45 68 56 52 3 27 41 
71 5 53 73 30 18 60 
72 7 74 58 6 91 51 63 43 
73 6 30 34 2 18 71 49 
74 7 72 58 6 91 63 51 43 
75 7 114 25 23 109 20 54 55 
76 7 33 120 69 64 5 39 31 
77 7 40 68 3 52 56 42 31 
78 4 66 14 80 111 
79 5 99 11 124 82 81 
80 6 111 14 122 66 118 89 
81 4 99 79 124 11 
82 6 11 79 21 124 99 90 
83 5 47 65 93 115 26 
84 3 37 88 15 
85 4 123 22 95 97 
86 5 108 117 101 123 22 
87 5 112 106 13 100 119 
88 4 104 107 96 16 
89 7 122 111 118 26 80 115 14 
90 4 94 102 21 82 
91 7 63 19 43 74 55 20 25 
92 3 110 116 24 
93 4 83 115 47 26 
94 3 90 102 21 
95 6 97 22 105 123 98 85 
96 4 107 104 16 88 
97 7 22 95 123 98 105 85 101 
98 6 105 95 97 22 123 85 
99 5 79 81 124 11 82 
100 3 13 119 106 
101 7 22 97 108 86 123 66 117 
102 3 94 90 21 
103 4 65 26 89 115 
104 4 107 88 96 16 
105 6 98 95 97 22 123 85 
106 3 13 87 100 
107 4 96 104 88 16 
108 6 86 117 101 123 22 85 
109 7 23 24 54 116 75 114 110 
110 5 92 116 24 109 23 
111 7 14 80 118 66 122 89 78 
112 4 87 106 13 100 
113 7 19 25 43 55 75 114 20 
114 7 75 25 20 55 23 54 109 
115 7 26 65 122 93 89 83 80 
116 5 24 109 110 23 75 
117 4 108 123 85 22 
118 7 14 66 111 89 122 80 101 
119 3 100 13 106 
120 7 69 76 33 5 39 44 64 
121 2 59 16 
122 7 89 111 80 26 115 118 14 
123 7 22 95 85 97 105 98 117 
124 5 79 99 82 11 81 
DEPOT_SECTION
   1
   -1
EOF
