NAME :  X-n251-kX-w25-c9.cctp
COMMENT : 	Adapted by Maziero, Usberti and Cavellucci from the Uchoa, Pecin, Pessoa, Poggi, Subramanian, and Vidal (2013)
TYPE :  CCTP
DIMENSION :    136
EDGE_WEIGHT_TYPE : 	EUC_2D	
CAPACITY : 	69
VERTICES_WITHIN_COVERAGE :  9
VERTICES_WITH_DEMAND : 	25
NODE_COORD_SECTION
1 112 700
2 363 779
3 245 896
4 238 19
5 184 351
6 305 763
7 366 814
8 137 857
9 564 31
10 303 157
11 523 830
12 134 231
13 851 445
14 740 311
15 163 95
16 275 499
17 470 814
18 453 217
19 818 525
20 311 911
21 177 374
22 230 4
23 590 302
24 196 103
25 553 879
26 316 446
27 665 375
28 907 455
29 342 345
30 785 309
31 649 584
32 26 126
33 447 817
34 145 527
35 218 825
36 389 436
37 948 514
38 578 334
39 325 696
40 774 336
41 81 238
42 295 406
43 853 358
44 742 581
45 32 964
46 747 352
47 610 799
48 485 734
49 419 256
50 941 589
51 68 42
52 817 595
53 397 274
54 727 302
55 216 237
56 821 320
57 561 920
58 128 834
59 162 534
60 279 644
61 188 329
62 336 782
63 728 230
64 139 848
65 350 154
66 242 162
67 907 497
68 52 593
69 786 457
70 629 745
71 935 439
72 78 835
73 232 226
74 123 479
75 205 840
76 932 357
77 325 559
78 362 477
79 11 938
80 88 535
81 436 200
82 325 59
83 34 264
84 47 470
85 322 89
86 825 289
87 287 304
88 288 406
89 287 623
90 616 828
91 60 445
92 978 511
93 599 895
94 304 854
95 343 127
96 422 270
97 453 844
98 230 995
99 675 278
100 654 332
101 618 85
102 409 207
103 534 887
104 546 47
105 597 299
106 630 398
107 538 29
108 326 841
109 557 307
110 350 13
111 338 918
112 427 792
113 764 238
114 596 931
115 578 922
116 361 962
117 539 869
118 468 807
119 537 7
120 400 190
121 469 264
122 572 82
123 440 203
124 628 934
125 635 25
126 528 2
127 457 847
128 183 354
129 814 278
130 359 893
131 598 325
132 552 367
133 665 287
134 549 277
135 559 398
136 605 773
DEMAND_SECTION
2 5
3 7
4 5
5 8
6 7
7 8
8 7
9 9
10 7
11 6
12 7
13 8
14 6
15 9
16 8
17 8
18 9
19 6
20 8
21 5
22 6
23 7
24 7
25 6
26 9
COVERAGE_SECTION
2 9 62 7 6 112 108 39 33 94 118 
3 9 20 75 94 35 111 108 98 130 8 
4 8 22 24 82 15 85 110 66 95 
5 9 128 61 21 87 55 88 42 12 73 
6 9 62 2 39 7 108 94 35 60 112 
7 9 2 62 108 112 94 130 6 33 97 
8 9 64 58 72 75 35 3 45 79 98 
9 5 104 107 119 126 122 
10 7 65 95 66 85 73 82 120 
11 8 117 17 25 103 118 127 97 33 
12 9 41 55 73 83 61 66 5 128 15 
13 9 28 69 67 71 19 43 37 76 56 
14 9 54 40 46 30 99 113 133 56 129 
15 9 24 66 4 51 22 12 32 73 55 
16 9 26 77 78 88 42 59 89 36 34 
17 8 118 33 97 127 112 11 48 117 
18 7 123 81 102 121 49 120 96 
19 9 52 69 13 67 44 28 37 50 71 
20 8 111 130 94 3 116 108 7 98 
21 9 128 5 61 88 74 42 87 91 55 
22 8 4 24 82 15 110 85 66 51 
23 7 105 131 109 38 134 100 132 
24 9 15 66 4 22 10 85 73 55 82 
25 7 117 103 57 93 115 11 114 
26 7 42 88 78 16 36 29 77 
27 9 106 100 131 46 133 38 54 99 14 
28 9 71 67 13 37 92 76 43 19 69 
29 6 87 42 88 53 36 26 
30 8 40 56 129 14 86 46 54 113 
31 4 44 70 52 19 
32 9 51 41 83 15 12 24 66 55 73 
33 7 17 118 97 112 127 11 7 
34 9 59 74 80 84 68 91 16 21 89 
35 9 75 3 64 8 58 94 6 108 62 
36 5 78 26 42 29 88 
37 9 92 67 28 50 71 13 19 52 76 
38 7 131 23 109 105 132 134 135 
39 9 60 6 89 62 2 7 77 112 108 
40 9 30 46 14 56 54 86 129 43 113 
41 9 12 83 32 55 61 73 5 128 15 
42 8 88 26 29 16 78 36 87 21 
43 7 56 86 76 40 30 13 129 
44 6 52 31 19 69 13 67 
45 9 79 72 8 64 58 98 75 3 35 
46 9 40 14 54 30 56 27 100 86 129 
47 9 136 90 70 11 93 25 117 103 115 
48 8 118 17 112 33 11 97 127 136 
49 7 96 53 102 121 18 123 81 
50 9 37 92 67 52 28 19 71 13 44 
51 9 32 15 24 22 4 41 12 66 83 
52 9 19 44 50 67 69 13 37 28 31 
53 7 96 49 102 121 18 123 81 
54 9 14 46 99 30 40 133 63 113 100 
55 9 73 66 12 61 87 5 10 128 24 
56 8 86 30 129 40 43 14 46 54 
57 6 115 114 25 103 93 117 
58 9 64 8 72 75 35 3 79 45 94 
59 9 34 74 80 16 68 84 91 89 21 
60 8 89 39 77 6 16 62 2 59 
61 9 5 128 21 55 87 12 73 88 42 
62 9 2 6 7 108 94 39 112 130 33 
63 7 113 54 99 14 133 30 129 
64 9 8 58 72 75 35 3 79 45 94 
65 5 95 10 120 85 102 
66 9 10 73 24 55 15 95 65 85 12 
67 9 28 37 71 92 13 19 50 69 52 
68 9 80 34 84 59 74 91 60 89 16 
69 9 13 19 46 43 28 40 67 44 52 
70 8 136 47 90 11 48 93 117 25 
71 8 28 67 37 76 13 92 43 19 
72 9 58 64 8 79 75 45 35 3 98 
73 9 55 66 87 12 10 61 24 5 128 
74 9 34 80 59 91 84 21 68 128 5 
75 9 35 64 3 8 58 94 108 6 72 
76 7 43 71 28 56 13 86 67 
77 8 89 16 78 60 26 39 36 42 
78 6 36 26 16 77 42 88 
79 9 45 72 8 64 58 75 98 35 3 
80 9 34 74 68 59 84 91 21 16 128 
81 5 123 18 102 120 49 
82 7 85 110 95 4 65 10 22 
83 9 41 12 32 61 5 128 21 91 55 
84 9 91 74 80 34 68 59 21 128 5 
85 6 82 95 10 65 110 66 
86 8 129 56 30 40 43 113 14 54 
87 9 29 73 55 42 61 88 5 53 128 
88 9 42 26 29 16 87 78 36 21 128 
89 8 60 77 39 16 6 59 78 62 
90 9 47 136 93 25 70 117 11 103 115 
91 9 84 74 80 34 59 21 68 128 5 
92 9 37 67 71 50 28 13 19 76 52 
93 8 115 114 57 25 124 103 117 90 
94 9 108 20 130 3 111 7 62 6 35 
95 5 65 85 10 82 120 
96 7 49 53 121 18 102 123 81 
97 6 127 33 17 118 112 11 
98 9 3 20 111 116 75 94 130 8 35 
99 9 133 54 100 63 14 105 23 131 27 
100 9 27 133 131 99 105 106 23 38 54 
101 3 122 125 9 
102 7 120 81 123 18 49 96 53 
103 5 117 25 57 115 11 
104 3 107 9 119 
105 7 23 131 38 109 134 100 133 
106 8 27 100 135 131 38 132 23 105 
107 4 104 119 9 126 
108 9 94 7 62 130 2 20 111 6 3 
109 6 134 23 38 105 131 132 
110 4 82 85 4 95 
111 6 20 130 116 94 108 3 
112 9 33 118 17 97 127 2 7 48 62 
113 7 63 129 30 54 14 86 99 
114 7 115 124 93 57 25 103 117 
115 7 57 114 93 25 124 103 117 
116 3 111 130 20 
117 6 25 103 11 57 93 115 
118 8 17 33 97 127 112 11 48 117 
119 4 126 107 9 104 
120 6 102 81 123 18 65 49 
121 3 96 18 49 
122 3 104 101 9 
123 6 81 18 102 120 49 121 
124 7 114 93 115 57 25 103 90 
125 3 101 9 122 
126 4 119 107 9 104 
127 6 97 33 17 118 112 11 
128 9 5 21 61 87 88 55 42 12 73 
129 8 86 30 56 113 40 14 43 54 
130 6 111 20 108 94 116 7 
131 8 38 23 105 109 100 132 134 133 
132 6 135 38 109 131 23 105 
133 9 99 100 54 105 23 131 14 63 27 
134 3 109 23 105 
135 6 132 38 106 131 109 23 
136 9 47 70 90 11 117 25 93 48 103 
DEPOT_SECTION
   1
   -1
EOF
