NAME :  X-n284-kX-w113-c7.cctp
COMMENT : 	Adapted by Maziero, Usberti and Cavellucci from the Uchoa, Pecin, Pessoa, Poggi, Subramanian, and Vidal (2013)
TYPE :  CCTP
DIMENSION :    284
EDGE_WEIGHT_TYPE : 	EUC_2D	
CAPACITY : 	109
VERTICES_WITHIN_COVERAGE :  7
VERTICES_WITH_DEMAND : 	113
NODE_COORD_SECTION
1 674 825
2 549 534
3 43 315
4 542 420
5 45 580
6 180 450
7 369 618
8 287 721
9 36 426
10 411 408
11 170 446
12 21 333
13 37 428
14 617 456
15 52 527
16 114 227
17 32 303
18 233 638
19 314 568
20 290 736
21 549 449
22 317 699
23 676 992
24 45 851
25 455 508
26 128 446
27 34 302
28 152 660
29 550 576
30 559 585
31 306 655
32 183 449
33 380 586
34 726 399
35 21 277
36 306 679
37 128 317
38 547 726
39 242 389
40 347 595
41 324 384
42 531 492
43 103 480
44 197 495
45 20 321
46 66 402
47 100 638
48 453 582
49 120 514
50 691 499
51 311 449
52 350 574
53 198 437
54 370 722
55 513 438
56 273 645
57 6 508
58 44 581
59 309 763
60 18 616
61 128 603
62 543 466
63 687 466
64 625 525
65 54 449
66 504 517
67 592 375
68 49 401
69 638 459
70 329 614
71 657 416
72 1 296
73 217 443
74 42 721
75 1 416
76 157 731
77 244 727
78 128 320
79 548 588
80 559 438
81 425 920
82 17 481
83 130 376
84 459 433
85 9 408
86 364 507
87 55 295
88 357 711
89 168 292
90 31 407
91 544 414
92 285 801
93 439 387
94 751 638
95 66 345
96 347 636
97 413 579
98 353 713
99 686 492
100 192 450
101 535 479
102 658 301
103 428 346
104 18 359
105 364 653
106 293 515
107 326 459
108 60 370
109 252 426
110 532 411
111 225 722
112 259 227
113 19 558
114 368 573
115 382 645
116 84 434
117 596 630
118 27 367
119 186 460
120 116 629
121 177 576
122 89 544
123 574 623
124 841 288
125 166 458
126 541 481
127 255 545
128 38 273
129 672 313
130 264 757
131 59 278
132 351 298
133 26 447
134 334 620
135 21 527
136 268 402
137 547 547
138 54 551
139 530 414
140 53 441
141 103 273
142 181 327
143 163 342
144 141 256
145 619 383
146 502 494
147 324 558
148 121 518
149 116 307
150 262 511
151 592 418
152 85 355
153 442 622
154 307 581
155 344 619
156 509 653
157 140 436
158 603 511
159 155 633
160 83 545
161 389 638
162 231 732
163 141 362
164 36 435
165 499 331
166 605 327
167 217 375
168 50 491
169 487 555
170 625 355
171 415 599
172 314 840
173 589 589
174 199 463
175 683 488
176 55 501
177 30 368
178 308 729
179 609 370
180 97 678
181 69 439
182 208 380
183 85 478
184 96 618
185 39 321
186 47 409
187 541 489
188 76 376
189 469 638
190 501 458
191 51 527
192 428 484
193 197 390
194 279 744
195 181 319
196 39 640
197 70 417
198 320 800
199 88 326
200 448 624
201 5 405
202 9 520
203 26 200
204 432 556
205 405 541
206 242 429
207 501 579
208 479 427
209 27 571
210 602 440
211 398 657
212 176 482
213 517 509
214 184 464
215 350 606
216 45 407
217 52 465
218 612 434
219 318 979
220 226 642
221 544 431
222 607 574
223 130 767
224 204 742
225 518 464
226 439 619
227 104 463
228 584 495
229 183 642
230 747 478
231 528 588
232 37 256
233 113 395
234 189 421
235 537 541
236 554 484
237 395 514
238 31 647
239 63 473
240 636 432
241 337 505
242 678 518
243 396 435
244 603 501
245 173 629
246 575 395
247 309 604
248 371 795
249 262 452
250 29 521
251 375 623
252 525 449
253 482 542
254 589 420
255 86 340
256 22 705
257 343 673
258 45 558
259 530 483
260 528 389
261 299 678
262 486 326
263 414 536
264 673 15
265 56 354
266 13 456
267 615 505
268 155 392
269 17 342
270 505 333
271 264 387
272 289 541
273 140 498
274 445 606
275 534 468
276 112 456
277 604 604
278 304 614
279 228 659
280 339 622
281 513 411
282 290 422
283 728 457
284 379 594
DEMAND_SECTION
2 7
3 3
4 3
5 5
6 4
7 8
8 1
9 2
10 9
11 5
12 2
13 2
14 4
15 1
16 3
17 4
18 10
19 2
20 2
21 3
22 9
23 2
24 1
25 6
26 8
27 9
28 7
29 8
30 8
31 4
32 6
33 2
34 7
35 5
36 10
37 4
38 9
39 6
40 8
41 1
42 5
43 5
44 8
45 5
46 5
47 4
48 8
49 3
50 6
51 7
52 7
53 9
54 9
55 5
56 4
57 3
58 9
59 3
60 7
61 9
62 1
63 6
64 2
65 8
66 9
67 2
68 6
69 7
70 7
71 7
72 10
73 10
74 5
75 5
76 8
77 7
78 3
79 2
80 3
81 3
82 1
83 9
84 4
85 2
86 1
87 5
88 5
89 5
90 6
91 4
92 8
93 9
94 2
95 2
96 8
97 5
98 6
99 8
100 7
101 10
102 5
103 1
104 6
105 1
106 1
107 9
108 7
109 6
110 3
111 4
112 7
113 7
114 6
COVERAGE_SECTION
2 7 137 235 213 29 42 187 66 
3 7 185 17 27 87 45 12 269 
4 7 91 221 110 139 80 21 281 
5 7 58 209 258 138 113 60 160 
6 7 32 11 100 119 214 125 53 
7 7 251 215 155 284 96 161 115 
8 7 20 178 194 22 77 130 261 
9 7 13 164 90 186 216 133 140 
10 7 243 93 84 103 208 192 41 
11 7 6 32 125 119 100 214 53 
12 7 269 45 185 104 3 17 27 
13 7 9 164 140 186 90 133 216 
14 7 69 210 218 240 151 254 244 
15 7 191 138 250 176 135 258 160 
16 7 144 141 131 149 232 89 128 
17 7 27 3 185 45 87 35 128 
18 7 220 279 56 229 245 31 278 
19 7 147 154 52 247 272 40 278 
20 7 194 8 178 59 130 22 77 
21 7 80 62 221 252 275 4 101 
22 7 36 261 178 8 257 98 88 
23 7 81 38 219 94 248 117 156 
24 7 223 74 256 76 180 224 238 
25 7 192 253 146 66 263 204 169 
26 7 157 276 227 125 11 43 116 
27 7 17 3 185 87 45 35 128 
28 7 159 229 245 120 47 180 61 
29 7 79 30 231 137 235 173 2 
30 7 79 29 173 231 137 123 222 
31 7 36 261 56 257 278 22 96 
32 7 6 100 119 11 214 53 125 
33 7 284 114 52 7 40 97 215 
34 7 283 71 63 230 240 175 99 
35 7 128 232 17 27 72 87 131 
36 7 261 22 31 257 8 56 178 
37 7 78 149 199 143 89 163 255 
38 7 156 123 117 189 277 79 231 
39 7 271 136 167 182 109 206 193 
40 7 215 52 155 70 134 280 114 
41 7 282 136 271 51 107 39 109 
42 7 259 187 101 126 213 236 275 
43 7 227 183 276 49 239 273 26 
44 7 212 174 214 119 100 6 32 
45 7 12 185 269 17 3 27 72 
46 7 197 68 186 216 188 108 90 
47 7 120 184 180 61 159 28 196 
48 7 274 204 97 226 153 171 200 
49 7 148 273 43 122 160 183 227 
50 7 99 175 242 63 283 230 69 
51 7 107 282 249 241 109 136 41 
52 7 114 40 147 33 215 284 19 
53 7 100 234 32 73 6 119 174 
54 7 88 98 257 22 178 105 211 
55 7 252 190 225 281 139 221 110 
56 7 31 18 261 278 36 220 279 
57 7 202 135 250 82 168 176 191 
58 7 5 209 258 138 113 60 160 
59 7 20 178 194 198 92 130 8 
60 7 196 238 58 5 209 113 258 
61 7 120 184 159 47 245 121 28 
62 7 275 101 126 21 236 259 187 
63 7 175 99 50 283 69 242 71 
64 7 267 158 244 228 222 242 69 
65 7 140 217 181 164 239 13 133 
66 7 213 146 253 42 235 169 259 
67 7 179 246 145 170 151 254 166 
68 7 216 186 46 90 197 9 13 
69 7 14 240 218 210 71 63 267 
70 7 134 280 155 215 247 278 40 
71 7 240 69 218 145 14 63 210 
72 7 35 45 17 27 12 128 185 
73 7 53 100 174 206 32 119 234 
74 7 256 180 238 196 223 47 60 
75 7 85 201 90 9 13 133 164 
76 7 223 224 111 28 162 180 77 
77 7 162 111 130 194 8 224 20 
78 7 37 149 199 143 163 255 89 
79 7 30 29 231 137 173 123 207 
80 7 21 221 4 91 62 254 252 
81 7 219 248 172 198 92 59 54 
82 7 266 57 168 133 217 202 250 
83 7 163 233 268 143 152 188 78 
84 7 208 190 93 10 55 281 192 
85 7 201 75 90 9 13 216 164 
86 7 241 237 205 263 107 147 114 
87 7 131 27 3 17 128 185 35 
88 7 98 54 257 22 178 105 36 
89 7 195 142 144 37 78 143 149 
90 7 216 186 68 9 13 85 201 
91 7 4 110 139 221 80 260 281 
92 7 198 59 130 172 194 20 178 
93 7 10 103 84 208 243 262 281 
94 7 242 50 277 117 222 99 230 
95 7 265 152 255 108 199 188 185 
96 7 280 155 134 105 7 70 215 
97 7 171 204 33 284 205 48 274 
98 7 88 54 22 257 178 36 105 
99 7 175 50 63 242 283 69 230 
100 7 32 6 119 53 174 214 11 
101 7 126 259 275 187 42 62 236 
102 7 129 166 170 179 145 67 71 
103 7 93 262 10 165 270 132 84 
104 7 118 177 269 12 45 265 108 
105 7 115 96 161 257 251 211 7 
106 7 272 150 241 127 147 19 107 
107 7 51 241 282 86 249 106 243 
108 7 265 188 95 152 177 46 68 
109 7 206 249 136 39 282 73 271 
110 7 139 91 4 281 260 221 55 
111 7 162 77 224 130 194 8 279 
112 7 89 132 195 144 142 16 143 
113 7 209 258 135 5 58 138 250 
114 7 33 52 284 40 215 7 97 
115 7 161 105 211 251 7 96 155 
116 7 181 197 140 65 227 276 46 
117 7 123 277 173 222 30 79 29 
118 7 177 104 269 265 108 12 68 
119 7 214 32 6 100 174 125 11 
120 7 47 184 61 159 28 180 245 
121 7 245 61 159 229 120 148 220 
122 7 160 138 15 148 191 49 258 
123 7 117 277 173 30 79 29 231 
124 7 34 129 102 283 230 71 170 
125 7 11 6 32 214 119 212 100 
126 7 101 187 259 236 42 62 275 
127 7 272 150 106 19 154 147 44 
128 7 35 232 131 87 27 17 3 
129 7 102 170 166 179 145 67 34 
130 7 194 20 77 162 8 59 92 
131 7 87 128 232 27 17 35 3 
132 7 41 103 112 271 10 93 136 
133 7 164 266 13 9 65 140 217 
134 7 280 70 155 96 215 40 247 
135 7 250 202 57 191 15 113 258 
136 7 271 39 109 282 206 249 167 
137 7 235 2 29 30 79 231 213 
138 7 258 15 191 5 160 58 209 
139 7 110 4 91 281 221 260 55 
140 7 65 181 164 13 9 217 133 
141 7 149 144 131 16 37 78 87 
142 7 195 143 89 78 163 37 182 
143 7 142 195 163 78 37 83 89 
144 7 16 141 89 149 37 78 195 
145 7 179 67 170 151 246 254 71 
146 7 213 66 42 259 225 101 190 
147 7 19 154 52 272 40 114 247 
148 7 49 273 122 43 160 183 227 
149 7 37 78 199 141 255 89 144 
150 7 106 127 272 249 44 241 19 
151 7 254 210 218 246 80 67 145 
152 7 255 95 188 108 199 265 233 
153 7 226 200 274 189 171 48 97 
154 7 19 247 147 278 70 40 52 
155 7 280 134 215 70 96 40 7 
156 7 189 200 231 123 153 207 79 
157 7 26 11 125 276 6 32 227 
158 7 244 267 228 64 236 14 2 
159 7 245 28 229 120 61 47 121 
160 7 122 138 15 191 258 148 49 
161 7 115 211 251 7 105 96 284 
162 7 111 77 224 130 194 8 20 
163 7 83 143 268 233 78 37 142 
164 7 13 9 133 140 65 90 186 
165 7 270 262 260 103 281 93 110 
166 7 170 179 67 145 102 129 246 
167 7 182 193 39 271 234 136 142 
168 7 176 239 217 82 15 191 183 
169 7 253 207 66 48 235 231 204 
170 7 179 145 166 67 102 129 246 
171 7 97 226 274 153 284 33 200 
172 7 198 92 248 59 130 194 20 
173 7 277 222 30 123 29 79 117 
174 7 119 100 214 32 6 53 73 
175 7 99 50 63 242 69 283 230 
176 7 168 15 191 239 250 217 183 
177 7 118 104 269 108 265 12 68 
178 7 20 8 22 194 59 98 36 
179 7 145 67 170 246 166 151 254 
180 7 47 120 28 184 196 74 159 
181 7 116 140 65 197 217 164 13 
182 7 167 193 39 234 268 271 53 
183 7 43 239 227 217 276 168 176 
184 7 47 120 61 180 159 196 5 
185 7 3 17 45 27 12 269 87 
186 7 216 68 90 9 46 13 197 
187 7 126 42 101 259 236 275 62 
188 7 108 152 46 265 95 68 255 
189 7 200 153 226 274 156 48 171 
190 7 225 55 252 275 146 208 259 
191 7 15 250 138 176 135 258 168 
192 7 25 237 263 243 84 205 86 
193 7 182 167 234 268 39 53 73 
194 7 20 130 8 178 59 77 162 
195 7 142 143 89 37 78 163 149 
196 7 238 60 58 5 47 184 256 
197 7 46 116 181 186 68 216 140 
198 7 92 59 172 248 194 20 130 
199 7 255 95 152 149 78 37 265 
200 7 153 226 274 189 171 48 97 
201 7 85 75 90 9 13 216 186 
202 7 57 135 250 113 82 191 15 
203 7 232 128 35 131 16 72 87 
204 7 263 97 205 48 171 253 274 
205 7 263 237 204 97 114 33 86 
206 7 109 73 249 136 39 53 271 
207 7 169 231 253 48 79 29 235 
208 7 84 55 190 281 252 139 225 
209 7 113 5 58 258 138 135 60 
210 7 218 14 151 254 240 69 80 
211 7 115 161 105 251 7 96 153 
212 7 214 119 44 125 174 6 32 
213 7 66 146 42 259 187 101 126 
214 7 119 6 32 174 100 125 212 
215 7 40 155 280 134 7 70 96 
216 7 186 68 90 9 13 46 197 
217 7 239 65 140 168 181 133 164 
218 7 210 14 240 151 254 69 71 
219 7 81 172 198 92 248 59 130 
220 7 18 279 229 56 245 159 28 
221 7 4 80 91 21 139 110 252 
222 7 173 277 30 64 29 117 123 
223 7 76 224 180 74 111 162 28 
224 7 111 162 77 76 130 194 223 
225 7 275 252 190 259 101 62 55 
226 7 153 200 274 171 189 48 97 
227 7 276 43 183 26 116 181 239 
228 7 244 158 236 267 187 126 62 
229 7 245 159 28 220 279 18 121 
230 7 283 50 63 99 175 242 34 
231 7 79 29 207 30 137 235 169 
232 7 128 35 131 87 27 17 72 
233 7 83 188 268 163 46 197 116 
234 7 53 32 100 6 11 193 73 
235 7 137 2 29 213 66 79 231 
236 7 126 187 101 62 42 259 275 
237 7 205 263 86 192 204 241 25 
238 7 196 60 256 58 5 47 184 
239 7 217 168 183 65 176 140 181 
240 7 218 71 69 14 210 151 254 
241 7 86 106 107 147 237 272 51 
242 7 50 99 175 63 64 267 69 
243 7 10 192 84 93 107 86 237 
244 7 158 267 228 64 14 236 69 
245 7 229 159 28 61 121 220 120 
246 7 67 151 254 91 4 179 80 
247 7 278 70 154 134 280 19 155 
248 7 198 59 54 172 98 88 92 
249 7 109 206 282 73 51 136 150 
250 7 135 202 191 15 57 176 168 
251 7 7 161 115 284 215 96 155 
252 7 55 225 275 21 62 190 221 
253 7 169 66 207 25 213 48 146 
254 7 151 210 218 246 80 67 91 
255 7 199 152 95 265 188 108 149 
256 7 74 238 196 180 60 47 184 
257 7 105 22 36 96 88 31 98 
258 7 138 5 209 58 113 15 191 
259 7 101 42 126 187 275 62 225 
260 7 110 139 281 91 4 221 246 
261 7 36 31 22 56 257 8 178 
262 7 165 270 103 260 93 281 110 
263 7 205 204 237 97 25 192 86 
264 7 102 129 166 124 170 270 165 
265 7 95 108 152 177 188 118 255 
266 7 133 82 164 13 9 217 65 
267 7 158 244 64 228 14 69 242 
268 7 83 163 193 233 234 157 143 
269 7 12 104 45 118 177 185 3 
270 7 165 262 260 103 281 110 93 
271 7 136 39 109 282 206 167 182 
272 7 106 127 19 147 150 154 241 
273 7 49 148 212 43 125 227 276 
274 7 226 153 200 48 171 189 97 
275 7 62 101 126 225 259 252 187 
276 7 227 26 43 157 183 116 181 
277 7 173 117 222 123 30 79 29 
278 7 247 70 134 154 280 155 31 
279 7 220 18 56 229 111 245 77 
280 7 134 155 70 96 215 40 7 
281 7 139 110 55 260 4 91 221 
282 7 136 51 109 249 271 206 41 
283 7 230 63 99 175 50 34 242 
284 7 33 114 7 251 215 40 52 
DEPOT_SECTION
   1
   -1
EOF
