NAME :  X-n219-kX-w43-c9.cctp
COMMENT : 	Adapted by Maziero, Usberti and Cavellucci from the Uchoa, Pecin, Pessoa, Poggi, Subramanian, and Vidal (2013)
TYPE :  CCTP
DIMENSION :    190
EDGE_WEIGHT_TYPE : 	EUC_2D	
CAPACITY : 	3
VERTICES_WITHIN_COVERAGE :  9
VERTICES_WITH_DEMAND : 	43
NODE_COORD_SECTION
1 0 0
2 18 761
3 835 397
4 299 16
5 31 168
6 142 257
7 242 984
8 612 357
9 663 812
10 105 188
11 487 636
12 993 703
13 672 148
14 506 259
15 953 706
16 888 203
17 107 534
18 772 692
19 475 182
20 828 775
21 719 220
22 655 722
23 844 197
24 918 600
25 460 844
26 739 102
27 301 523
28 341 627
29 989 936
30 935 602
31 44 72
32 861 67
33 163 416
34 981 503
35 722 397
36 317 903
37 547 95
38 944 106
39 935 192
40 128 376
41 908 176
42 720 226
43 738 793
44 791 498
45 712 751
46 530 693
47 380 544
48 634 301
49 427 853
50 47 557
51 48 202
52 791 67
53 546 876
54 526 842
55 535 216
56 828 214
57 829 352
58 623 473
59 374 1000
60 74 187
61 726 789
62 51 597
63 894 395
64 301 893
65 978 261
66 709 153
67 391 153
68 876 370
69 846 725
70 604 107
71 507 89
72 348 744
73 476 204
74 181 957
75 948 710
76 414 685
77 358 66
78 456 931
79 5 468
80 459 43
81 555 414
82 94 964
83 558 360
84 641 424
85 132 16
86 25 205
87 852 45
88 5 686
89 400 682
90 501 234
91 905 968
92 492 971
93 817 114
94 817 643
95 333 829
96 223 584
97 206 549
98 542 691
99 296 10
100 9 553
101 411 59
102 382 800
103 824 612
104 608 727
105 481 574
106 169 950
107 350 608
108 396 536
109 36 459
110 10 569
111 813 10
112 569 627
113 692 467
114 166 178
115 247 413
116 738 487
117 508 327
118 158 986
119 983 244
120 637 109
121 177 207
122 361 972
123 365 701
124 932 452
125 60 66
126 252 267
127 944 435
128 338 688
129 900 168
130 583 871
131 852 59
132 921 72
133 845 534
134 387 253
135 812 354
136 5 404
137 590 575
138 930 128
139 832 466
140 32 531
141 966 58
142 31 40
143 162 539
144 621 425
145 802 495
146 385 493
147 769 329
148 921 15
149 64 106
150 854 678
151 943 122
152 103 285
153 398 212
154 335 459
155 43 108
156 400 255
157 935 851
158 179 147
159 822 749
160 60 32
161 783 760
162 218 360
163 321 463
164 403 172
165 32 134
166 218 490
167 44 456
168 430 570
169 896 875
170 509 572
171 424 936
172 639 505
173 914 852
174 984 435
175 479 341
176 207 937
177 709 700
178 557 130
179 270 964
180 482 320
181 60 761
182 836 272
183 413 327
184 509 379
185 819 754
186 176 910
187 648 809
188 640 892
189 838 79
190 552 232
DEMAND_SECTION
2 1
3 1
4 1
5 1
6 1
7 1
8 1
9 1
10 1
11 1
12 1
13 1
14 1
15 1
16 1
17 1
18 1
19 1
20 1
21 1
22 1
23 1
24 1
25 1
26 1
27 1
28 1
29 1
30 1
31 1
32 1
33 1
34 1
35 1
36 1
37 1
38 1
39 1
40 1
41 1
42 1
43 1
44 1
COVERAGE_SECTION
2 3 181 88 62 
3 9 57 68 135 63 139 147 145 44 124 
4 9 99 77 101 80 67 85 158 164 114 
5 9 165 86 51 60 155 149 10 31 125 
6 9 152 121 10 114 60 51 126 158 40 
7 9 179 176 74 106 118 186 64 36 122 
8 9 83 48 144 84 81 184 117 35 58 
9 9 187 61 43 45 188 22 130 104 177 
10 9 60 51 114 121 5 6 86 158 165 
11 9 105 170 46 98 112 168 76 89 137 
12 9 15 75 30 24 150 69 157 173 159 
13 9 66 120 70 26 21 42 178 37 52 
14 9 90 55 190 73 180 117 19 175 156 
15 9 75 12 150 30 69 24 159 185 20 
16 9 41 129 23 39 56 138 182 151 119 
17 9 143 50 140 62 97 100 167 109 110 
18 9 177 94 161 159 185 69 150 45 103 
19 9 73 90 55 164 14 153 67 190 178 
20 9 185 159 161 69 43 18 150 61 173 
21 9 42 66 13 56 48 26 147 23 182 
22 9 104 177 45 187 9 61 43 98 18 
23 9 56 16 129 41 182 93 39 138 189 
24 9 30 103 133 150 94 15 75 34 12 
25 9 49 54 78 102 53 171 130 95 92 
26 9 66 52 93 13 120 189 111 21 131 
27 9 163 154 47 146 166 108 97 107 96 
28 9 107 128 123 89 47 76 108 168 27 
29 5 91 157 169 173 20 
30 9 24 15 34 75 103 150 133 12 94 
31 9 125 142 155 149 160 165 5 85 60 
32 9 131 87 189 132 93 52 111 148 38 
33 8 40 162 115 166 143 167 17 109 
34 9 174 124 127 30 24 63 133 139 68 
35 9 113 147 84 116 135 144 3 57 8 
36 9 64 95 179 122 7 171 59 176 49 
37 9 178 71 70 120 80 19 55 73 13 
38 9 151 138 132 141 129 41 39 32 148 
39 9 41 129 16 138 151 119 65 38 23 
40 9 33 162 152 167 6 109 115 136 166 
41 9 129 39 16 138 151 23 38 56 119 
42 9 21 66 13 56 48 147 26 182 23 
43 9 61 45 161 9 185 187 20 159 177 
44 9 145 139 116 133 113 3 103 35 63 
45 9 61 43 177 22 161 9 18 187 104 
46 9 98 11 112 104 76 170 22 105 89 
47 9 108 146 168 107 27 28 154 163 105 
48 9 8 83 190 42 21 84 144 117 35 
49 9 25 102 78 171 95 54 36 53 64 
50 9 140 100 110 62 17 79 109 167 143 
51 9 86 60 5 10 165 155 149 152 6 
52 9 189 93 111 131 26 87 32 66 132 
53 6 130 54 25 188 78 92 
54 8 53 130 25 49 78 188 187 92 
55 9 190 90 14 73 19 178 117 180 37 
56 9 23 182 16 129 41 93 21 39 42 
57 8 135 3 68 147 63 182 139 35 
58 9 172 144 84 113 81 137 116 8 35 
59 9 122 171 78 179 36 92 64 7 49 
60 9 51 10 5 86 165 149 155 114 6 
61 9 43 45 161 9 187 177 22 185 20 
62 7 50 110 100 140 17 88 143 
63 8 68 3 127 124 57 135 139 174 
64 8 36 95 179 122 176 7 102 186 
65 8 119 39 16 41 129 138 182 151 
66 9 13 26 21 42 120 70 93 52 56 
67 9 164 153 19 77 101 73 134 156 80 
68 8 63 3 57 135 127 124 139 182 
69 9 159 185 150 20 161 18 94 75 15 
70 9 120 178 37 13 71 66 55 26 190 
71 9 37 178 80 19 70 101 73 55 67 
72 7 123 128 102 89 95 76 28 
73 9 19 90 55 14 153 164 190 156 67 
74 9 106 176 118 186 7 82 179 64 36 
75 9 15 12 150 69 30 24 159 20 185 
76 9 89 123 128 11 72 28 107 46 168 
77 9 101 4 99 67 80 164 71 153 19 
78 8 171 92 49 25 122 53 59 54 
79 9 109 167 136 140 100 50 110 17 62 
80 9 101 71 37 77 67 178 19 164 70 
81 9 83 184 144 8 84 58 117 175 180 
82 8 118 106 74 186 176 7 179 181 
83 9 184 8 81 117 175 180 144 48 84 
84 9 144 58 113 8 172 35 81 83 116 
85 9 160 125 31 142 149 155 158 165 99 
86 9 51 5 60 165 10 155 149 152 6 
87 9 131 32 189 111 52 132 148 93 38 
88 6 2 181 62 110 100 50 
89 8 76 123 128 28 72 107 11 168 
90 9 14 55 73 190 19 180 117 156 153 
91 4 29 169 173 157 
92 6 78 171 53 59 25 122 
93 9 189 52 32 131 87 26 23 129 56 
94 9 103 150 18 69 159 24 185 133 161 
95 7 102 64 36 72 49 25 123 
96 6 97 143 166 27 17 28 
97 6 96 143 166 27 17 33 
98 9 46 112 104 11 22 170 137 76 105 
99 9 4 77 101 85 80 67 158 164 114 
100 9 110 140 50 62 79 109 17 167 88 
101 9 80 77 67 71 164 4 99 19 37 
102 8 95 72 49 25 123 76 89 128 
103 9 94 150 133 18 24 30 69 44 145 
104 9 22 98 46 187 9 177 45 112 61 
105 9 170 168 11 108 112 47 137 146 46 
106 9 74 118 176 186 82 7 179 64 36 
107 9 28 47 128 108 89 168 123 27 76 
108 9 47 146 168 107 105 27 154 163 28 
109 9 167 79 136 140 100 50 17 110 40 
110 9 100 50 140 62 79 17 109 88 167 
111 9 87 52 131 189 32 93 148 26 132 
112 9 137 98 46 170 11 105 104 22 172 
113 9 116 172 84 58 35 144 44 145 8 
114 9 121 158 10 6 60 51 126 152 149 
115 5 162 166 33 163 154 
116 9 113 44 145 35 139 172 58 84 133 
117 9 180 175 184 83 14 90 183 81 190 
118 9 74 106 82 176 186 7 179 64 36 
119 8 65 39 41 16 129 138 151 38 
120 9 70 13 178 66 37 26 71 21 42 
121 9 114 158 6 10 126 60 152 51 5 
122 9 59 171 36 179 64 78 7 92 49 
123 8 128 89 72 76 28 107 102 95 
124 8 127 174 63 34 68 139 3 133 
125 9 31 160 142 149 155 165 85 5 60 
126 6 121 162 6 114 134 158 
127 8 124 174 63 34 68 3 139 133 
128 7 123 72 28 89 76 107 102 
129 9 41 16 39 138 23 151 38 56 132 
130 5 53 188 54 187 9 
131 9 32 87 189 52 111 93 132 148 38 
132 9 38 141 151 138 148 32 131 87 189 
133 9 145 44 139 103 24 30 94 116 124 
134 8 156 153 183 164 67 73 19 90 
135 9 57 3 147 68 182 63 35 139 56 
136 9 109 79 167 40 140 100 152 33 50 
137 9 112 170 172 58 105 11 98 46 113 
138 9 151 38 129 41 132 39 141 16 32 
139 9 145 44 3 133 63 116 124 68 57 
140 9 50 100 110 62 79 109 17 167 136 
141 9 132 38 148 151 138 32 131 87 129 
142 9 160 31 125 155 149 165 85 5 60 
143 8 97 17 166 96 50 33 62 140 
144 9 84 58 81 8 113 172 83 35 184 
145 9 44 139 133 116 3 113 103 35 63 
146 7 108 47 154 163 27 168 107 
147 9 135 57 35 182 3 42 68 21 56 
148 9 132 141 87 32 131 38 189 111 151 
149 9 155 31 125 165 5 142 160 60 10 
150 9 69 94 103 159 18 185 75 20 24 
151 9 138 38 132 129 41 141 39 16 32 
152 9 6 40 10 51 60 121 86 114 5 
153 9 164 134 156 67 73 19 90 183 14 
154 6 163 146 27 47 108 115 
155 9 149 165 31 125 5 142 160 60 51 
156 8 134 153 183 164 73 67 90 19 
157 8 173 169 29 91 20 75 15 185 
158 9 114 121 10 60 6 149 85 126 155 
159 9 185 20 69 161 18 150 43 61 94 
160 9 142 125 31 85 149 155 165 5 60 
161 9 185 159 20 43 61 18 45 69 177 
162 5 115 33 40 126 6 
163 6 154 27 146 115 47 108 
164 9 67 153 19 73 134 156 101 77 90 
165 9 155 5 149 31 60 51 86 125 10 
166 7 97 143 115 27 33 96 163 
167 9 109 79 136 140 17 50 100 40 110 
168 9 108 105 47 170 11 107 146 28 76 
169 5 173 157 91 29 20 
170 9 105 11 168 112 137 108 46 98 47 
171 8 78 122 92 59 49 25 36 64 
172 9 58 113 84 144 137 116 81 35 112 
173 8 157 169 29 20 91 185 159 69 
174 8 127 124 34 63 68 3 139 133 
175 9 180 117 184 183 83 14 81 90 156 
176 9 74 106 186 7 118 179 64 36 82 
177 9 45 22 18 61 161 43 104 9 94 
178 9 37 70 71 120 55 19 190 73 13 
179 9 7 176 36 64 74 122 106 186 59 
180 9 175 117 184 14 183 83 90 156 190 
181 2 2 88 
182 9 56 23 57 135 16 147 68 41 129 
183 7 175 180 156 134 117 184 14 
184 9 175 117 83 81 180 8 183 14 144 
185 9 159 20 161 69 18 150 43 61 45 
186 8 106 176 74 118 82 7 179 64 
187 9 9 61 188 45 22 130 43 104 53 
188 5 130 9 187 53 54 
189 9 131 32 87 93 52 111 132 26 138 
190 9 55 90 14 73 19 178 117 48 180 
DEPOT_SECTION
   1
   -1
EOF
