NAME :  X-n298-kX-w29-c9.cctp
COMMENT : 	Adapted by Maziero, Usberti and Cavellucci from the Uchoa, Pecin, Pessoa, Poggi, Subramanian, and Vidal (2013)
TYPE :  CCTP
DIMENSION :    174
EDGE_WEIGHT_TYPE : 	EUC_2D	
CAPACITY : 	55
VERTICES_WITHIN_COVERAGE :  9
VERTICES_WITH_DEMAND : 	29
NODE_COORD_SECTION
1 440 732
2 221 348
3 117 545
4 493 645
5 135 12
6 775 997
7 745 444
8 950 311
9 530 150
10 900 508
11 48 519
12 269 217
13 722 349
14 480 733
15 977 422
16 999 220
17 636 332
18 851 162
19 559 567
20 389 69
21 529 835
22 303 427
23 400 638
24 894 904
25 482 109
26 579 800
27 184 82
28 669 753
29 906 424
30 374 692
31 174 613
32 75 37
33 38 563
34 838 157
35 710 709
36 176 67
37 530 27
38 171 342
39 226 65
40 318 608
41 429 82
42 212 237
43 853 126
44 387 47
45 511 647
46 457 561
47 290 456
48 473 563
49 257 340
50 588 545
51 994 946
52 822 580
53 668 981
54 424 638
55 251 282
56 237 413
57 202 573
58 181 385
59 126 528
60 978 846
61 70 99
62 333 357
63 627 268
64 818 433
65 738 555
66 42 595
67 870 933
68 319 417
69 187 376
70 251 482
71 209 397
72 800 377
73 228 116
74 566 559
75 490 156
76 600 893
77 938 222
78 543 747
79 569 59
80 971 515
81 616 306
82 695 837
83 537 957
84 778 101
85 462 74
86 608 430
87 710 300
88 626 650
89 531 719
90 598 824
91 279 169
92 286 268
93 782 132
94 862 518
95 457 603
96 44 44
97 527 818
98 164 156
99 23 86
100 333 488
101 517 137
102 541 888
103 200 158
104 588 270
105 158 374
106 852 328
107 437 138
108 333 192
109 922 499
110 8 561
111 989 908
112 842 190
113 595 716
114 199 373
115 159 67
116 742 853
117 528 160
118 223 342
119 503 159
120 711 681
121 342 509
122 931 593
123 766 953
124 172 159
125 685 836
126 639 155
127 269 241
128 330 177
129 901 124
130 713 860
131 949 178
132 833 852
133 336 444
134 566 735
135 940 377
136 939 827
137 908 120
138 670 569
139 753 744
140 577 351
141 141 616
142 496 160
143 515 598
144 274 510
145 291 170
146 800 300
147 74 609
148 791 396
149 453 848
150 525 743
151 260 385
152 837 572
153 606 473
154 123 80
155 477 169
156 383 59
157 890 101
158 68 598
159 172 367
160 569 289
161 84 19
162 261 233
163 693 375
164 588 854
165 599 569
166 142 158
167 324 194
168 739 325
169 858 93
170 37 599
171 568 674
172 439 570
173 587 278
174 597 608
DEMAND_SECTION
2 2
3 9
4 1
5 4
6 9
7 5
8 7
9 2
10 4
11 7
12 2
13 9
14 5
15 10
16 5
17 8
18 5
19 8
20 8
21 6
22 7
23 2
24 1
25 3
26 9
27 1
28 1
29 10
30 3
COVERAGE_SECTION
2 9 118 114 49 69 38 71 159 58 151 
3 8 59 158 11 141 147 33 31 57 
4 9 45 143 95 54 171 89 48 14 46 
5 9 161 115 32 36 154 27 96 39 61 
6 7 123 53 67 116 130 24 132 
7 8 148 64 163 72 13 65 168 86 
8 9 135 77 106 16 15 29 131 146 112 
9 9 117 101 119 142 75 155 25 107 79 
10 9 109 94 80 29 122 152 52 64 15 
11 8 33 110 3 66 59 158 170 147 
12 9 162 127 91 145 92 42 167 55 108 
13 9 168 163 87 72 148 17 146 7 81 
14 8 150 89 78 134 4 45 97 171 
15 9 135 29 80 109 8 10 94 106 64 
16 7 77 131 8 137 129 18 112 
17 9 81 140 63 163 173 104 160 87 13 
18 9 34 112 43 129 169 137 157 93 84 
19 9 74 50 165 143 174 48 45 4 46 
20 8 156 44 41 85 107 25 128 75 
21 9 97 102 26 164 90 149 78 76 150 
22 9 68 47 133 151 56 100 62 70 144 
23 8 54 30 95 172 40 4 46 48 
24 8 67 132 136 111 60 51 123 6 
25 9 85 101 75 142 107 119 41 155 9 
26 9 90 97 164 21 78 134 150 113 89 
27 9 36 115 39 73 154 98 103 124 5 
28 9 35 113 120 139 125 82 90 26 134 
29 9 135 15 109 10 64 94 106 80 72 
30 4 23 54 40 14 
31 3 141 57 3 
32 8 161 96 61 154 5 99 115 36 
33 7 110 66 170 11 158 147 3 
34 9 18 112 43 93 169 129 157 137 84 
35 5 120 139 28 88 113 
36 9 27 115 39 154 5 73 98 124 103 
37 7 79 85 25 101 41 9 117 
38 8 159 105 69 114 58 2 118 71 
39 9 27 36 73 115 103 154 5 124 98 
40 3 23 30 121 
41 9 85 20 156 44 107 25 75 155 142 
42 9 162 127 12 55 92 103 124 98 91 
43 9 169 34 18 157 129 137 112 93 84 
44 8 156 20 41 85 107 25 128 37 
45 9 4 143 171 95 89 54 14 48 19 
46 6 48 172 95 143 54 4 
47 8 22 70 133 68 100 144 56 121 
48 6 46 172 95 143 4 19 
49 8 118 2 151 55 114 71 56 62 
50 8 74 165 19 174 153 138 143 88 
51 8 111 60 24 67 136 132 6 123 
52 5 152 94 65 10 122 
53 4 123 6 76 130 
54 8 23 95 4 172 30 46 45 48 
55 8 92 127 162 49 42 118 12 2 
56 8 71 151 114 69 58 2 22 47 
57 4 31 141 59 3 
58 8 69 159 114 105 71 38 2 118 
59 8 3 11 57 141 158 33 147 31 
60 6 136 111 51 24 67 132 
61 8 99 154 96 32 161 166 115 5 
62 5 68 22 49 151 133 
63 6 104 81 173 160 17 87 
64 9 148 72 7 29 94 106 10 109 13 
65 6 138 52 152 7 94 120 
66 7 170 158 33 147 110 11 3 
67 8 24 132 123 6 111 51 136 60 
68 7 22 133 47 62 151 100 56 
69 9 58 114 159 105 71 38 2 118 56 
70 4 144 47 56 22 
71 8 114 58 69 56 159 2 151 105 
72 9 148 64 106 146 168 13 7 163 29 
73 9 103 39 27 36 124 91 98 145 115 
74 9 19 50 165 174 143 48 153 45 138 
75 9 142 119 155 101 117 9 25 107 85 
76 6 164 102 90 83 21 26 
77 9 131 16 8 112 129 18 137 34 43 
78 9 150 134 89 113 26 14 97 171 21 
79 7 37 101 9 25 85 117 126 
80 6 109 10 122 15 94 29 
81 7 17 63 173 104 160 140 87 
82 7 125 130 116 28 90 164 76 
83 4 102 76 164 21 
84 5 93 43 169 34 18 
85 9 41 25 107 20 44 156 37 101 75 
86 6 153 140 163 17 50 81 
87 7 168 13 163 17 63 146 81 
88 9 174 171 113 165 120 138 35 134 19 
89 9 150 78 134 14 171 113 45 4 26 
90 9 26 164 76 21 97 102 125 78 134 
91 9 145 12 167 128 108 162 127 73 103 
92 6 127 55 162 12 49 42 
93 6 84 34 43 18 112 169 
94 8 10 152 109 52 64 122 29 80 
95 7 172 46 48 54 4 143 23 
96 8 32 99 161 61 154 5 115 36 
97 9 21 26 90 102 164 78 150 149 134 
98 9 124 166 103 73 27 154 115 36 42 
99 8 96 61 32 161 154 5 115 166 
100 7 121 133 47 144 22 68 70 
101 9 9 117 119 142 75 25 155 107 85 
102 7 21 164 76 83 97 90 26 
103 9 124 98 73 166 27 42 91 12 145 
104 6 173 160 63 81 17 140 
105 8 159 58 69 38 114 71 2 118 
106 9 146 72 148 8 135 29 64 168 13 
107 8 155 25 75 41 142 85 119 101 
108 6 167 128 145 91 12 127 
109 9 10 80 94 29 122 15 152 64 135 
110 7 33 66 170 11 158 147 3 
111 6 51 60 24 136 67 132 
112 9 18 34 43 93 129 137 169 77 157 
113 9 134 171 78 89 88 150 28 26 90 
114 9 69 58 71 159 2 118 105 38 56 
115 9 36 27 154 5 39 73 32 98 161 
116 7 130 82 125 132 123 139 28 
117 9 9 101 119 142 75 155 25 107 85 
118 9 2 49 114 69 38 71 151 159 58 
119 8 142 75 117 101 9 155 25 107 
120 5 35 139 28 88 138 
121 7 100 133 144 47 22 68 70 
122 3 80 10 109 
123 7 6 53 116 67 130 132 82 
124 9 98 103 166 73 27 42 36 115 154 
125 7 82 130 116 28 90 164 76 
126 1 9 
127 9 162 12 92 55 42 167 91 145 108 
128 7 108 167 145 91 12 127 162 
129 7 137 157 43 169 18 34 131 
130 6 82 116 125 123 28 76 
131 7 77 16 137 129 157 18 112 
132 6 24 67 116 136 130 123 
133 9 68 22 100 47 121 62 144 70 151 
134 9 78 113 89 150 171 26 14 97 90 
135 9 15 29 8 106 109 64 10 72 80 
136 6 60 24 111 132 67 51 
137 7 129 157 43 169 18 131 34 
138 8 65 165 174 50 88 74 19 153 
139 4 35 120 28 82 
140 6 81 17 160 173 104 86 
141 5 31 147 3 57 158 
142 8 75 119 155 101 117 9 25 107 
143 9 45 4 19 48 95 74 46 172 174 
144 5 70 47 100 121 22 
145 8 91 128 167 108 12 162 127 73 
146 8 106 168 72 87 13 148 112 163 
147 6 158 66 170 33 141 3 
148 9 72 64 7 13 168 106 146 163 29 
149 3 21 97 102 
150 9 78 89 134 14 97 113 26 171 21 
151 8 56 49 71 2 118 22 114 68 
152 6 52 94 10 122 65 109 
153 6 86 50 74 165 19 138 
154 9 115 36 61 27 32 5 161 166 98 
155 8 75 142 119 101 107 117 9 25 
156 8 20 44 41 85 107 25 128 108 
157 6 129 137 169 43 18 34 
158 7 147 66 170 33 110 3 141 
159 9 105 69 58 38 114 71 2 118 56 
160 6 173 104 81 63 140 17 
161 9 32 96 5 154 61 115 99 36 27 
162 9 127 12 92 42 55 91 145 167 108 
163 9 13 168 17 87 7 148 86 81 72 
164 8 90 76 26 102 21 97 125 82 
165 9 50 74 174 19 138 88 143 153 171 
166 9 98 124 103 154 27 61 115 73 36 
167 7 108 128 145 91 12 127 162 
168 8 13 87 146 163 72 148 17 106 
169 8 43 157 129 137 34 18 84 93 
170 7 66 158 33 147 110 11 3 
171 9 113 89 134 45 88 174 78 4 150 
172 7 46 48 95 54 23 143 4 
173 6 104 160 81 63 17 140 
174 9 165 88 19 74 50 171 138 143 45 
DEPOT_SECTION
   1
   -1
EOF
