NAME :  X-n280-kX-w27-c11.cctp
COMMENT : 	Adapted by Maziero, Usberti and Cavellucci from the Uchoa, Pecin, Pessoa, Poggi, Subramanian, and Vidal (2013)
TYPE :  CCTP
DIMENSION :    178
EDGE_WEIGHT_TYPE : 	EUC_2D	
CAPACITY : 	192
VERTICES_WITHIN_COVERAGE :  11
VERTICES_WITH_DEMAND : 	27
NODE_COORD_SECTION
1 0 0
2 909 919
3 878 721
4 969 85
5 591 195
6 955 148
7 587 903
8 994 792
9 625 129
10 544 703
11 461 167
12 37 644
13 615 22
14 773 788
15 384 364
16 51 291
17 109 732
18 570 124
19 692 985
20 62 150
21 358 5
22 188 450
23 674 658
24 676 904
25 815 984
26 710 16
27 74 658
28 576 1000
29 636 695
30 547 92
31 26 150
32 516 892
33 513 799
34 560 782
35 797 871
36 922 643
37 598 257
38 516 221
39 99 169
40 616 680
41 791 822
42 645 609
43 917 154
44 729 688
45 134 510
46 172 2
47 499 737
48 770 2
49 497 623
50 853 27
51 519 196
52 90 822
53 827 901
54 350 168
55 656 56
56 732 55
57 772 748
58 884 973
59 158 430
60 563 13
61 609 223
62 628 860
63 264 436
64 699 764
65 95 246
66 830 30
67 44 339
68 885 644
69 122 603
70 850 732
71 155 865
72 153 641
73 713 82
74 659 564
75 881 18
76 165 614
77 17 749
78 164 778
79 258 488
80 725 988
81 125 619
82 316 80
83 743 575
84 84 140
85 919 768
86 945 924
87 905 944
88 892 37
89 74 227
90 911 617
91 668 697
92 1 96
93 637 118
94 622 958
95 356 127
96 8 497
97 138 78
98 100 192
99 23 228
100 110 163
101 53 628
102 112 361
103 489 621
104 563 916
105 597 310
106 960 837
107 37 513
108 648 247
109 375 402
110 531 205
111 935 676
112 964 651
113 891 112
114 852 861
115 113 701
116 662 198
117 667 718
118 809 908
119 968 908
120 163 857
121 333 418
122 59 136
123 839 123
124 529 215
125 385 380
126 319 417
127 156 119
128 138 787
129 473 713
130 537 114
131 168 838
132 774 825
133 32 510
134 216 372
135 60 733
136 500 37
137 343 363
138 429 41
139 205 398
140 411 109
141 112 603
142 865 775
143 605 162
144 359 199
145 16 739
146 482 214
147 528 103
148 572 770
149 118 571
150 952 781
151 823 795
152 522 595
153 52 336
154 456 367
155 255 413
156 410 194
157 956 21
158 717 142
159 766 880
160 524 825
161 657 640
162 471 339
163 920 809
164 688 98
165 660 781
166 441 81
167 236 735
168 784 692
169 201 32
170 69 94
171 123 416
172 341 341
173 251 533
174 724 967
175 684 924
176 617 989
177 789 678
178 897 272
DEMAND_SECTION
2 92
3 88
4 93
5 90
6 73
7 100
8 53
9 66
10 82
11 59
12 100
13 76
14 84
15 56
16 91
17 58
18 65
19 56
20 68
21 88
22 54
23 76
24 80
25 53
26 1
27 2
28 2
COVERAGE_SECTION
2 11 87 86 58 119 114 53 106 118 163 25 35 
3 11 70 142 85 111 68 36 151 150 163 168 177 
4 10 6 157 113 43 88 75 50 123 66 178 
5 11 61 143 110 37 124 116 51 9 18 108 38 
6 10 43 4 113 123 157 88 178 75 50 66 
7 10 104 62 94 32 24 176 28 175 160 34 
8 11 150 106 163 85 119 111 142 3 86 112 2 
9 11 93 143 18 164 5 116 55 30 130 158 61 
10 10 47 129 148 40 34 29 49 103 33 152 
11 11 146 156 51 38 140 110 124 166 130 147 144 
12 11 101 27 141 81 135 69 115 145 77 149 17 
13 11 55 60 26 30 93 164 9 18 73 136 147 
14 11 132 41 57 151 64 35 159 142 70 168 114 
15 8 125 109 137 172 154 121 126 162 
16 8 153 67 65 89 99 102 98 39 
17 11 115 135 128 78 27 52 145 77 72 12 81 
18 11 130 30 147 143 9 93 5 51 110 124 61 
19 11 80 174 175 94 176 24 28 25 159 7 62 
20 11 122 84 31 39 100 170 98 89 92 99 127 
21 10 138 82 166 140 95 136 169 54 46 11 
22 9 59 139 171 63 155 79 45 134 173 
23 10 161 91 29 42 117 40 44 74 83 64 
24 11 175 62 94 174 19 7 159 80 176 104 165 
25 11 58 118 53 80 174 87 2 35 159 19 114 
26 11 56 48 73 55 164 13 66 93 158 9 50 
27 11 101 12 115 81 141 69 135 72 17 149 145 
28 9 176 94 104 7 19 32 175 24 62 
29 11 40 91 117 23 161 42 165 10 44 64 148 
30 11 147 130 18 136 60 9 143 93 13 166 51 
31 11 20 122 84 92 170 39 99 98 100 89 65 
32 4 104 160 7 33 
33 7 160 34 47 148 32 129 10 
34 9 148 33 160 47 10 165 62 129 29 
35 11 159 118 53 41 132 114 151 14 25 142 174 
36 7 90 111 68 112 3 70 85 
37 10 61 108 105 5 124 110 116 38 143 51 
38 10 124 110 51 146 11 5 37 61 143 130 
39 10 100 98 84 20 122 89 31 127 65 170 
40 11 29 91 161 23 117 10 42 148 165 44 34 
41 11 132 14 151 35 159 114 57 53 118 142 70 
42 9 161 74 23 40 29 91 83 117 44 
43 9 6 113 123 4 88 178 157 75 50 
44 9 168 177 91 23 117 57 64 161 29 
45 8 149 22 59 69 171 141 107 133 
46 10 169 97 127 170 82 84 100 122 39 20 
47 8 129 10 33 34 148 160 49 103 
48 11 26 56 66 50 73 75 55 164 88 123 158 
49 5 103 152 10 129 47 
50 10 66 75 88 48 113 123 157 56 4 43 
51 11 110 124 38 146 11 5 130 18 143 147 61 
52 10 128 71 131 120 78 17 135 77 145 115 
53 11 118 35 114 159 2 25 41 87 58 132 151 
54 8 144 95 156 140 82 11 166 146 
55 11 13 164 73 93 26 56 9 60 158 18 30 
56 11 73 26 164 48 55 158 66 93 13 50 123 
57 10 14 168 151 177 44 64 41 132 70 142 
58 11 87 2 25 86 53 118 119 114 35 159 106 
59 8 22 171 139 134 102 45 155 63 
60 11 13 136 30 147 55 130 18 93 9 138 166 
61 11 5 37 108 116 143 110 124 105 38 51 9 
62 11 7 24 165 175 104 94 34 148 160 32 64 
63 8 155 79 126 139 121 22 134 173 
64 11 165 117 91 57 14 44 29 132 23 41 168 
65 6 89 98 16 99 39 100 
66 10 50 75 88 48 123 56 113 26 157 73 
67 7 153 16 102 65 171 99 89 
68 7 36 90 111 3 112 70 177 
69 8 141 81 149 76 72 27 101 12 
70 10 3 142 151 168 85 57 177 14 68 111 
71 6 120 131 52 128 78 17 
72 9 76 81 69 141 115 149 27 17 101 
73 11 164 56 158 55 26 93 48 9 13 116 66 
74 7 42 161 83 23 40 29 91 
75 11 88 50 66 157 113 4 48 123 43 6 56 
76 7 72 81 69 141 149 27 115 
77 10 145 135 17 52 12 27 115 101 128 78 
78 10 128 131 17 120 167 52 71 115 135 72 
79 7 173 63 155 22 126 121 139 
80 11 174 19 175 25 24 94 176 118 159 53 35 
81 9 69 141 72 76 149 27 101 115 12 
82 8 95 21 54 140 138 166 169 144 
83 3 74 42 23 
84 10 20 122 39 100 170 98 31 127 97 89 
85 11 150 163 142 3 70 8 106 111 151 114 36 
86 11 119 2 87 58 106 114 163 53 118 8 25 
87 11 2 58 86 119 53 25 114 118 106 35 163 
88 10 75 50 66 157 113 4 123 43 48 6 
89 10 65 98 99 39 16 100 20 84 31 122 
90 5 36 68 112 111 3 
91 11 117 29 23 40 161 44 64 165 42 57 168 
92 11 31 170 122 20 84 39 100 99 97 98 89 
93 11 9 143 164 55 18 73 116 158 5 30 13 
94 11 176 28 7 175 104 19 24 62 174 80 32 
95 9 54 140 82 144 156 166 11 138 21 
96 9 133 107 45 149 101 171 141 12 69 
97 9 127 170 169 84 46 100 122 39 20 
98 10 39 100 89 65 84 20 122 31 99 127 
99 11 89 16 65 31 98 20 39 122 84 100 153 
100 10 39 98 84 20 122 127 89 170 65 31 
101 9 12 27 141 69 81 149 115 72 135 
102 7 171 153 67 59 16 139 134 
103 4 49 152 129 10 
104 8 7 32 94 28 62 176 160 24 
105 5 37 108 61 5 124 
106 11 163 8 150 119 85 86 2 114 142 87 3 
107 9 133 96 45 149 101 141 69 171 12 
108 8 61 37 116 5 105 143 9 124 
109 7 125 15 121 137 126 172 154 
110 11 124 51 38 146 5 11 61 37 143 18 130 
111 11 36 112 68 90 3 85 70 150 142 8 163 
112 9 111 36 90 68 3 85 150 70 8 
113 10 43 123 6 88 4 50 75 66 157 178 
114 11 53 35 118 41 151 2 132 163 142 159 87 
115 11 17 27 135 72 81 128 78 101 12 69 141 
116 9 108 61 143 5 9 158 93 37 164 
117 11 91 29 64 23 165 40 44 161 148 57 42 
118 11 53 35 159 114 25 41 132 58 2 87 174 
119 11 86 2 106 87 58 163 8 114 150 53 85 
120 6 71 131 128 78 52 17 
121 8 126 109 137 125 63 15 172 155 
122 11 20 84 31 170 39 100 98 92 89 97 127 
123 9 113 43 66 50 88 75 6 158 56 
124 11 110 38 51 146 5 61 37 11 143 18 130 
125 8 15 109 137 172 121 154 126 162 
126 8 121 63 109 137 155 125 172 15 
127 9 97 100 84 39 170 98 122 169 20 
128 11 78 52 131 17 120 71 115 135 167 77 145 
129 7 47 10 49 103 33 34 148 
130 11 147 30 18 143 51 136 9 110 11 5 93 
131 7 120 71 128 78 52 17 167 
132 11 41 14 35 159 151 57 114 118 53 64 142 
133 9 107 96 45 149 101 141 69 171 12 
134 5 139 155 63 59 22 
135 11 145 77 17 115 27 12 52 128 101 78 72 
136 11 60 138 30 147 166 130 18 140 13 11 21 
137 9 172 15 125 109 121 126 155 63 154 
138 11 166 140 136 21 95 147 82 30 11 130 60 
139 6 134 155 22 59 63 171 
140 11 166 95 138 11 54 156 82 144 136 21 147 
141 8 69 81 149 76 72 101 27 12 
142 11 70 151 85 3 163 114 150 41 14 57 132 
143 11 5 9 18 93 61 116 130 110 30 51 124 
144 8 54 156 95 140 11 146 82 172 
145 11 77 135 17 12 27 115 52 101 128 78 81 
146 10 38 51 124 110 11 156 5 130 147 37 
147 11 130 30 18 136 166 11 51 60 143 9 110 
148 9 34 33 10 160 47 165 29 40 62 
149 8 69 141 81 45 76 72 101 27 
150 11 85 8 163 106 142 3 111 70 114 119 151 
151 11 41 142 14 132 57 70 114 35 3 163 85 
152 5 49 103 10 42 40 
153 7 67 16 102 65 171 89 99 
154 6 162 15 125 109 137 172 
155 9 63 139 134 126 79 22 121 59 137 
156 10 144 11 54 146 140 95 38 51 166 110 
157 10 4 88 75 50 113 66 6 43 123 48 
158 8 164 73 116 93 56 9 55 143 
159 11 35 118 132 41 53 114 14 24 175 174 151 
160 7 33 34 32 148 47 104 7 
161 10 23 42 40 91 29 74 117 44 83 10 
162 7 154 15 125 109 146 38 105 
163 11 85 150 106 142 8 114 3 151 70 119 2 
164 11 73 55 158 93 56 9 26 116 13 143 18 
165 11 64 117 91 62 29 148 34 40 14 44 57 
166 11 140 138 136 11 147 95 130 30 21 156 82 
167 5 78 128 131 72 17 
168 7 177 44 57 70 14 3 151 
169 9 46 97 127 82 170 21 84 100 39 
170 10 122 84 20 92 31 97 100 39 127 98 
171 8 59 102 22 139 45 134 153 67 
172 9 137 15 125 109 121 126 155 154 63 
173 5 79 63 22 76 45 
174 11 80 19 175 24 25 159 94 118 176 35 53 
175 11 24 174 19 94 80 62 159 176 7 104 35 
176 11 94 28 19 7 104 175 24 80 174 62 32 
177 7 168 44 57 70 3 68 14 
178 2 43 6 
DEPOT_SECTION
   1
   -1
EOF
