NAME :  X-n242-kX-w24-c9.cctp
COMMENT : 	Adapted by Maziero, Usberti and Cavellucci from the Uchoa, Pecin, Pessoa, Poggi, Subramanian, and Vidal (2013)
TYPE :  CCTP
DIMENSION :    171
EDGE_WEIGHT_TYPE : 	EUC_2D	
CAPACITY : 	28
VERTICES_WITHIN_COVERAGE :  9
VERTICES_WITH_DEMAND : 	24
NODE_COORD_SECTION
1 0 0
2 346 793
3 692 966
4 171 666
5 287 795
6 93 919
7 712 216
8 991 988
9 475 266
10 71 307
11 83 987
12 518 392
13 807 134
14 377 164
15 692 127
16 701 530
17 831 255
18 938 210
19 873 127
20 569 817
21 796 379
22 6 182
23 917 620
24 728 936
25 157 644
26 668 333
27 564 876
28 861 333
29 70 79
30 330 931
31 513 308
32 230 725
33 896 107
34 234 758
35 911 970
36 177 587
37 697 37
38 947 615
39 861 54
40 739 572
41 555 473
42 992 303
43 556 781
44 627 213
45 19 93
46 837 398
47 277 133
48 521 177
49 694 875
50 575 428
51 752 458
52 432 417
53 881 966
54 101 210
55 270 113
56 951 30
57 72 873
58 681 319
59 149 612
60 799 203
61 92 644
62 997 104
63 364 966
64 119 969
65 931 207
66 630 384
67 721 103
68 209 814
69 176 751
70 76 178
71 737 499
72 42 123
73 194 726
74 835 589
75 521 825
76 11 702
77 659 941
78 122 683
79 111 386
80 253 262
81 338 989
82 657 234
83 688 921
84 676 942
85 463 128
86 875 97
87 982 861
88 445 748
89 828 305
90 43 98
91 387 303
92 768 421
93 859 222
94 130 599
95 52 803
96 888 289
97 600 549
98 877 51
99 992 969
100 80 304
101 893 539
102 805 76
103 990 256
104 306 119
105 836 204
106 74 223
107 150 894
108 979 964
109 733 939
110 716 390
111 787 27
112 599 860
113 893 538
114 801 106
115 627 625
116 553 193
117 860 100
118 472 765
119 605 123
120 887 327
121 752 426
122 996 198
123 803 935
124 361 801
125 170 958
126 786 418
127 646 977
128 892 113
129 486 445
130 174 964
131 599 871
132 957 677
133 518 177
134 93 349
135 506 454
136 792 919
137 55 284
138 116 755
139 368 125
140 523 837
141 907 303
142 719 842
143 280 162
144 913 538
145 499 296
146 296 811
147 664 100
148 232 621
149 252 659
150 474 107
151 804 296
152 180 632
153 405 387
154 475 300
155 992 105
156 454 340
157 821 145
158 307 108
159 453 269
160 120 954
161 512 344
162 672 964
163 247 606
164 834 425
165 115 328
166 565 915
167 621 421
168 701 511
169 937 537
170 664 187
171 840 406
DEMAND_SECTION
2 6
3 2
4 2
5 1
6 8
7 3
8 1
9 4
10 7
11 10
12 4
13 6
14 9
15 7
16 2
17 6
18 2
19 2
20 5
21 4
22 6
23 4
24 10
25 1
COVERAGE_SECTION
2 9 124 146 5 88 34 118 32 30 68 
3 8 162 84 77 83 24 127 109 49 
4 9 25 152 78 59 73 148 36 94 149 
5 8 146 2 34 124 68 32 73 69 
6 8 160 57 64 107 11 125 130 95 
7 8 170 82 44 60 15 58 67 151 
8 6 99 108 35 53 87 123 
9 9 159 154 145 31 156 161 91 133 48 
10 9 100 137 134 165 106 79 54 70 22 
11 8 64 160 6 125 130 57 107 95 
12 9 161 129 135 50 156 31 41 52 145 
13 9 157 114 102 117 19 60 105 86 128 
14 9 139 104 158 85 143 47 150 55 159 
15 8 67 147 170 119 37 7 44 114 
16 7 168 71 40 51 97 121 115 
17 9 93 151 89 105 60 96 28 141 120 
18 9 65 122 103 93 96 141 105 19 128 
19 9 128 33 86 117 157 13 39 114 98 
20 9 43 75 140 112 27 131 166 118 49 
21 9 126 46 92 171 164 121 28 89 110 
22 8 72 70 106 45 90 54 137 29 
23 7 38 132 144 101 113 169 74 
24 9 109 83 3 84 162 136 77 49 123 
25 9 4 152 59 78 94 36 61 148 73 
26 8 58 66 110 82 167 7 121 44 
27 7 131 112 166 140 20 75 43 
28 9 120 89 96 141 151 46 171 21 17 
29 5 90 72 45 70 22 
30 7 63 81 146 124 2 5 130 
31 9 145 161 154 9 156 159 12 116 91 
32 8 34 73 69 149 4 5 68 148 
33 9 128 86 19 117 98 39 157 13 56 
34 8 32 73 69 68 5 146 149 4 
35 7 53 108 99 8 123 136 87 
36 7 59 152 94 25 148 163 4 
37 9 67 147 15 111 102 114 119 13 170 
38 7 23 132 169 144 101 113 74 
39 9 98 86 117 102 33 128 19 111 114 
40 4 16 168 71 74 
41 7 50 135 129 167 97 12 66 
42 7 103 141 96 122 18 120 65 
43 8 20 75 140 118 112 27 131 88 
44 7 82 170 116 7 119 15 48 
45 5 90 72 29 22 70 
46 7 171 164 21 126 28 92 120 
47 6 55 143 104 158 139 14 
48 6 133 116 85 150 9 119 
49 8 142 83 84 24 77 109 3 162 
50 8 167 41 12 66 135 129 161 97 
51 9 121 92 71 126 168 110 16 164 21 
52 8 153 129 156 135 12 161 91 154 
53 6 35 123 108 136 99 8 
54 7 106 70 137 100 22 10 72 
55 6 47 104 158 143 139 14 
56 9 98 155 62 39 33 86 128 117 19 
57 8 6 95 107 160 64 11 138 125 
58 8 26 110 66 82 7 167 44 151 
59 7 94 25 152 36 4 61 78 
60 9 105 17 157 93 13 7 151 114 19 
61 5 78 94 25 59 4 
62 9 155 56 122 33 128 18 65 86 19 
63 7 81 30 124 146 2 5 130 
64 9 160 11 125 130 6 107 57 68 95 
65 9 18 122 93 103 96 105 19 141 128 
66 8 167 26 50 58 110 12 41 161 
67 9 15 147 37 114 102 13 111 170 157 
68 8 34 69 5 146 73 32 107 138 
69 8 73 34 32 138 68 4 78 25 
70 6 54 106 72 22 90 29 
71 8 168 51 16 40 121 92 126 110 
72 5 90 45 29 70 22 
73 8 69 32 34 4 138 78 68 149 
74 4 101 113 23 144 
75 9 140 20 43 27 118 112 131 166 88 
76 5 61 95 78 138 25 
77 8 84 162 83 127 3 24 109 49 
78 9 61 4 25 138 59 152 73 94 69 
79 5 134 165 100 10 137 
80 7 143 47 91 55 104 165 14 
81 7 63 30 130 125 146 124 2 
82 8 44 170 7 58 26 116 15 119 
83 9 84 77 24 3 49 162 109 127 142 
84 8 77 162 83 3 127 24 109 49 
85 7 150 133 48 14 139 116 9 
86 9 117 33 128 19 39 98 157 102 114 
87 5 108 99 8 35 53 
88 6 118 124 75 2 43 140 
89 9 151 28 17 96 120 141 21 93 46 
90 5 45 72 29 70 22 
91 9 159 156 153 154 9 145 52 31 161 
92 9 121 126 51 21 110 164 46 171 71 
93 9 105 17 60 96 65 18 157 89 151 
94 5 59 36 25 61 152 
95 8 57 138 76 6 69 107 78 68 
96 8 141 120 28 89 17 93 151 18 
97 5 115 41 16 168 50 
98 9 39 86 117 33 128 19 102 56 111 
99 6 108 8 35 87 53 123 
100 9 10 137 165 134 106 79 54 70 22 
101 6 113 144 169 74 23 38 
102 9 114 111 13 39 117 157 86 98 19 
103 8 42 122 18 65 141 96 120 93 
104 6 158 47 55 143 139 14 
105 9 93 60 17 157 13 19 65 151 96 
106 8 54 70 137 22 100 10 72 165 
107 8 6 125 160 130 57 64 68 11 
108 6 99 8 35 53 87 123 
109 9 24 83 3 84 136 162 123 77 49 
110 8 121 92 26 126 51 58 21 66 
111 9 102 39 114 37 98 67 117 13 86 
112 9 131 27 20 166 140 75 43 49 77 
113 6 101 144 169 74 23 38 
114 9 13 102 157 117 19 86 39 67 111 
115 3 97 16 40 
116 6 48 133 44 119 9 85 
117 9 86 19 128 33 39 98 114 102 157 
118 7 88 75 43 140 20 124 2 
119 7 147 15 116 170 44 48 133 
120 7 28 141 96 89 46 151 17 
121 9 92 51 126 110 21 71 164 46 171 
122 9 103 18 65 155 62 42 128 33 141 
123 6 136 109 24 53 35 3 
124 8 2 146 5 88 118 30 34 32 
125 9 130 160 64 107 6 11 57 68 30 
126 9 92 121 21 164 51 46 171 110 71 
127 6 162 77 84 3 83 24 
128 9 33 86 19 117 98 39 157 13 114 
129 8 135 52 12 41 50 153 161 156 
130 9 125 64 160 107 6 11 57 68 30 
131 9 112 27 166 20 140 75 77 49 43 
132 7 38 23 169 144 74 101 113 
133 6 48 116 85 150 9 119 
134 6 165 79 10 100 137 106 
135 8 129 41 12 50 52 161 167 153 
136 6 123 109 24 53 83 142 
137 9 10 100 106 165 134 54 70 22 79 
138 8 69 78 95 73 4 68 61 25 
139 8 14 104 158 47 85 143 55 150 
140 8 75 20 27 43 112 131 118 166 
141 8 96 120 28 89 42 17 93 103 
142 5 49 83 24 109 136 
143 7 47 55 104 158 139 14 80 
144 6 101 113 169 23 38 74 
145 9 31 154 9 161 159 156 12 91 116 
146 9 5 2 124 34 68 32 30 73 69 
147 7 15 67 119 37 170 44 7 
148 7 163 149 152 36 4 25 59 
149 8 148 163 32 152 4 73 25 34 
150 7 85 133 48 139 14 116 119 
151 9 89 17 28 21 96 120 93 60 105 
152 9 25 4 59 36 148 94 163 78 149 
153 8 52 156 91 129 154 12 161 135 
154 9 145 9 159 31 156 161 91 12 153 
155 9 62 56 122 33 128 86 18 65 19 
156 9 154 161 145 31 153 159 9 91 52 
157 9 13 114 19 117 105 60 102 86 128 
158 6 104 55 47 143 139 14 
159 9 9 154 145 156 31 91 161 133 48 
160 9 64 6 11 125 130 107 57 68 95 
161 9 31 12 145 154 156 9 159 129 50 
162 8 3 84 77 127 83 24 109 49 
163 7 148 149 152 36 4 25 59 
164 7 171 46 126 21 92 121 51 
165 7 134 100 10 79 137 106 54 
166 5 27 131 112 140 20 
167 8 66 50 41 26 110 12 58 135 
168 8 16 71 40 51 121 97 92 167 
169 5 144 101 113 38 23 
170 8 44 82 7 15 119 147 67 116 
171 7 46 164 21 126 92 28 121 
DEPOT_SECTION
   1
   -1
EOF
