NAME :  X-n270-kX-w26-c9.cctp
COMMENT : 	Adapted by Maziero, Usberti and Cavellucci from the Uchoa, Pecin, Pessoa, Poggi, Subramanian, and Vidal (2013)
TYPE :  CCTP
DIMENSION :    145
EDGE_WEIGHT_TYPE : 	EUC_2D	
CAPACITY : 	585
VERTICES_WITHIN_COVERAGE :  9
VERTICES_WITH_DEMAND : 	26
NODE_COORD_SECTION
1 500 500
2 643 512
3 707 407
4 394 355
5 140 470
6 364 215
7 493 857
8 117 466
9 462 38
10 551 479
11 742 498
12 533 706
13 788 425
14 799 6
15 836 680
16 88 225
17 164 988
18 537 20
19 612 395
20 314 942
21 342 974
22 518 758
23 860 774
24 313 36
25 275 23
26 324 971
27 822 588
28 272 458
29 868 427
30 236 823
31 887 411
32 193 899
33 687 303
34 447 220
35 716 472
36 415 141
37 738 309
38 524 60
39 112 157
40 104 596
41 556 54
42 362 223
43 474 338
44 274 568
45 315 380
46 381 302
47 880 823
48 335 961
49 288 169
50 455 499
51 599 796
52 155 910
53 80 459
54 93 565
55 762 531
56 737 409
57 854 328
58 921 781
59 221 23
60 422 992
61 66 976
62 487 429
63 535 319
64 336 35
65 51 503
66 334 968
67 488 437
68 474 906
69 106 988
70 558 398
71 500 17
72 181 909
73 107 556
74 516 409
75 345 879
76 447 182
77 825 545
78 840 689
79 129 532
80 89 305
81 434 407
82 348 132
83 390 473
84 598 286
85 464 891
86 671 336
87 445 889
88 318 2
89 387 142
90 480 339
91 884 826
92 207 24
93 557 694
94 768 584
95 818 715
96 933 659
97 500 706
98 73 147
99 862 849
100 539 728
101 931 588
102 850 28
103 891 612
104 628 448
105 277 45
106 588 720
107 803 710
108 712 63
109 804 68
110 536 318
111 548 667
112 838 835
113 890 749
114 551 695
115 535 665
116 734 66
117 717 545
118 224 25
119 550 683
120 264 122
121 234 56
122 790 705
123 412 701
124 883 597
125 233 64
126 813 611
127 868 603
128 555 673
129 600 452
130 850 547
131 63 175
132 789 598
133 803 64
134 835 42
135 591 543
136 576 872
137 530 707
138 787 650
139 194 350
140 857 704
141 487 672
142 511 732
143 872 794
144 143 149
145 302 59
DEMAND_SECTION
2 77
3 91
4 67
5 69
6 68
7 64
8 65
9 83
10 64
11 77
12 87
13 99
14 84
15 74
16 89
17 76
18 68
19 87
20 69
21 97
22 87
23 59
24 82
25 75
26 55
27 95
COVERAGE_SECTION
2 7 135 104 129 117 35 10 11 
3 9 56 35 86 13 104 19 11 37 33 
4 9 46 81 43 45 90 83 62 67 74 
5 9 8 53 79 73 65 54 40 139 28 
6 9 42 89 34 82 46 49 76 36 120 
7 9 85 68 87 136 22 51 142 100 75 
8 9 5 53 79 65 73 54 40 139 28 
9 9 71 38 18 41 36 64 89 76 82 
10 9 129 135 67 74 62 70 104 2 50 
11 8 35 55 117 13 56 94 77 3 
12 9 137 114 100 93 119 97 142 128 115 
13 9 56 29 3 11 35 31 55 57 37 
14 6 134 102 133 109 116 108 
15 6 78 140 95 107 122 138 
16 5 131 39 98 80 144 
17 8 69 52 72 32 61 20 26 66 
18 7 71 41 38 9 36 108 76 
19 9 70 104 129 86 3 74 10 63 110 
20 9 48 26 66 21 75 60 32 72 87 
21 9 66 48 26 20 60 75 87 68 85 
22 9 142 100 137 12 97 114 93 106 119 
23 8 143 113 47 91 58 112 140 95 
24 9 64 145 88 105 25 121 125 118 59 
25 9 105 24 145 88 118 121 59 125 64 
26 9 66 48 21 20 75 60 87 32 72 
27 9 126 132 77 127 130 94 124 138 103 
28 8 45 44 83 5 139 8 4 79 
29 6 31 13 57 130 77 56 
30 6 32 72 52 75 20 48 
31 4 29 57 13 130 
32 6 72 52 30 17 69 20 
33 6 86 37 84 3 56 19 
34 9 76 6 36 42 89 46 43 90 63 
35 8 11 3 56 117 55 2 13 104 
36 9 89 76 82 34 6 42 9 49 64 
37 6 33 86 56 3 57 13 
38 7 41 18 71 9 36 76 89 
39 4 144 98 131 16 
40 5 54 73 79 65 5 
41 7 38 18 71 9 108 36 76 
42 9 6 46 34 89 49 82 76 36 4 
43 9 90 63 110 81 4 74 62 46 67 
44 7 28 79 83 5 73 40 54 
45 9 4 28 46 83 81 139 42 43 90 
46 9 4 42 6 43 45 34 90 81 76 
47 7 91 143 99 112 23 58 113 
48 9 66 21 26 20 75 60 87 85 68 
49 8 120 82 6 42 89 145 125 105 
50 6 67 83 62 81 10 74 
51 3 106 136 22 
52 6 72 32 17 69 61 30 
53 9 8 65 5 79 73 54 40 80 139 
54 7 73 40 79 65 8 5 53 
55 7 11 117 94 77 132 35 27 
56 9 3 13 35 11 86 37 104 33 55 
57 4 31 29 13 37 
58 9 113 143 91 47 23 99 112 140 95 
59 7 118 92 121 125 25 105 145 
60 9 21 66 48 26 68 87 85 20 75 
61 5 69 17 52 72 32 
62 9 67 74 81 50 70 10 90 43 83 
63 9 110 90 43 84 70 74 19 62 67 
64 9 24 88 145 105 25 82 121 125 118 
65 7 53 54 8 73 79 5 40 
66 9 48 21 26 20 75 60 87 85 68 
67 9 62 74 81 50 10 70 90 43 83 
68 9 85 87 7 60 136 75 21 48 66 
69 5 61 17 52 72 32 
70 9 74 19 129 62 67 10 63 110 104 
71 9 18 9 38 41 36 64 89 76 88 
72 6 32 52 17 30 69 61 
73 7 54 79 40 65 8 5 53 
74 9 62 67 70 10 90 43 81 63 110 
75 9 20 48 66 26 21 87 85 30 68 
76 9 34 36 89 6 42 82 46 38 9 
77 9 130 27 132 55 126 94 127 124 103 
78 6 15 140 95 107 122 138 
79 7 73 54 5 8 40 65 53 
80 9 16 139 131 39 53 98 8 144 5 
81 9 62 67 4 83 43 74 90 50 46 
82 9 89 36 49 6 120 145 42 64 24 
83 7 50 81 67 62 4 28 45 
84 7 110 63 86 33 19 70 90 
85 9 68 87 7 60 136 75 22 48 21 
86 8 33 37 3 19 84 56 104 70 
87 9 85 68 7 75 60 48 136 21 66 
88 9 24 64 25 105 145 118 59 121 125 
89 9 36 82 76 6 42 34 49 64 145 
90 9 43 63 110 74 81 4 62 67 70 
91 7 47 99 143 112 23 58 113 
92 6 59 118 121 125 25 105 
93 8 114 119 128 12 111 137 115 100 
94 6 132 126 55 27 117 77 
95 5 107 122 78 15 140 
96 8 103 101 124 127 140 78 15 113 
97 9 142 137 12 141 100 114 115 22 119 
98 4 131 39 144 16 
99 6 112 47 91 143 23 58 
100 9 12 137 142 114 22 93 97 119 106 
101 6 103 124 127 96 130 27 
102 4 134 14 133 109 
103 8 124 127 101 96 27 130 126 15 
104 9 129 19 2 10 70 3 35 135 56 
105 9 25 145 24 121 125 118 88 59 64 
106 5 93 114 100 119 12 
107 4 122 95 78 15 
108 4 116 133 109 14 
109 5 133 134 102 14 116 
110 9 63 90 43 84 70 74 19 62 67 
111 7 128 115 119 93 114 12 137 
112 5 99 47 91 143 23 
113 9 23 58 143 140 47 91 78 95 15 
114 8 93 119 12 128 137 111 115 100 
115 6 111 128 119 114 93 12 
116 6 108 133 109 14 134 102 
117 6 55 11 94 35 2 132 
118 7 59 92 121 125 25 105 145 
119 8 128 114 93 111 115 12 137 100 
120 8 49 125 121 145 105 82 24 25 
121 8 125 118 59 92 105 25 145 120 
122 3 107 95 15 
123 6 141 97 142 137 22 12 
124 8 127 103 101 130 27 126 77 96 
125 8 121 118 59 92 105 25 120 145 
126 8 27 132 138 94 127 77 124 15 
127 9 124 103 27 126 130 101 77 132 15 
128 7 111 119 93 114 115 12 137 
129 9 104 10 19 70 2 135 74 67 62 
130 8 77 27 127 124 126 103 132 55 
131 4 98 39 16 144 
132 7 94 126 27 138 77 55 127 
133 5 109 134 14 102 116 
134 4 102 133 109 14 
135 4 2 10 129 104 
136 4 51 7 68 85 
137 9 12 100 114 93 97 119 142 115 128 
138 5 126 132 122 15 107 
139 9 80 45 5 28 8 53 16 46 79 
140 7 78 15 95 107 113 122 23 
141 5 97 115 137 12 111 
142 9 22 97 100 137 12 114 93 119 141 
143 8 23 47 91 113 58 112 99 140 
144 4 39 98 131 16 
145 9 24 105 64 25 88 121 125 120 118 
DEPOT_SECTION
   1
   -1
EOF
