NAME :  X-n233-kX-w46-c7.cctp
COMMENT : 	Adapted by Maziero, Usberti and Cavellucci from the Uchoa, Pecin, Pessoa, Poggi, Subramanian, and Vidal (2013)
TYPE :  CCTP
DIMENSION :    176
EDGE_WEIGHT_TYPE : 	EUC_2D	
CAPACITY : 	631
VERTICES_WITHIN_COVERAGE :  7
VERTICES_WITH_DEMAND : 	46
NODE_COORD_SECTION
1 500 500
2 816 981
3 349 338
4 22 205
5 385 344
6 913 54
7 524 123
8 239 335
9 150 84
10 84 860
11 645 647
12 507 516
13 153 940
14 429 602
15 596 759
16 776 399
17 942 767
18 871 2
19 714 950
20 72 400
21 765 315
22 666 798
23 287 851
24 3 201
25 78 724
26 896 240
27 59 735
28 253 251
29 37 22
30 973 599
31 726 13
32 82 262
33 2 631
34 133 656
35 435 741
36 834 714
37 37 861
38 946 211
39 290 110
40 423 350
41 406 414
42 804 581
43 846 956
44 849 683
45 79 883
46 433 93
47 610 253
48 229 248
49 382 597
50 544 618
51 732 387
52 563 807
53 780 940
54 665 561
55 591 536
56 35 216
57 811 927
58 592 744
59 280 384
60 866 228
61 153 27
62 401 481
63 72 488
64 610 324
65 381 300
66 209 675
67 139 848
68 354 124
69 386 572
70 36 764
71 660 422
72 719 264
73 761 560
74 231 203
75 769 312
76 905 645
77 304 372
78 970 966
79 51 257
80 189 934
81 516 6
82 756 36
83 47 139
84 428 61
85 100 853
86 923 919
87 751 480
88 555 726
89 463 190
90 130 131
91 105 943
92 83 892
93 215 690
94 869 706
95 603 287
96 668 913
97 954 694
98 282 907
99 339 810
100 30 659
101 339 296
102 367 511
103 72 181
104 323 183
105 684 125
106 415 387
107 882 359
108 485 115
109 368 424
110 991 97
111 634 849
112 142 639
113 112 691
114 665 246
115 37 450
116 899 115
117 983 90
118 429 752
119 696 466
120 629 807
121 11 521
122 171 930
123 919 111
124 425 775
125 129 852
126 504 181
127 919 181
128 390 729
129 83 649
130 469 662
131 161 759
132 656 281
133 90 681
134 563 555
135 155 612
136 213 837
137 473 689
138 191 650
139 645 830
140 384 375
141 65 890
142 561 523
143 725 818
144 998 76
145 866 252
146 439 687
147 470 303
148 636 804
149 461 690
150 912 114
151 378 754
152 953 185
153 652 948
154 117 832
155 648 144
156 371 627
157 235 979
158 271 865
159 115 761
160 553 750
161 723 813
162 570 761
163 114 660
164 159 883
165 460 699
166 294 874
167 265 793
168 999 75
169 662 727
170 724 174
171 603 260
172 814 812
173 605 284
174 134 625
175 568 454
176 220 931
DEMAND_SECTION
2 53
3 64
4 54
5 63
6 45
7 6
8 100
9 63
10 5
11 74
12 87
13 11
14 33
15 63
16 36
17 93
18 28
19 89
20 64
21 8
22 69
23 40
24 65
25 29
26 30
27 19
28 78
29 78
30 55
31 6
32 94
33 25
34 38
35 2
36 69
37 42
38 43
39 94
40 74
41 54
42 93
43 76
44 92
45 49
46 85
47 4
COVERAGE_SECTION
2 7 43 57 53 19 86 78 96 
3 7 5 101 65 140 77 40 106 
4 7 56 24 103 79 83 32 90 
5 7 140 3 40 65 106 101 41 
6 7 123 150 116 18 117 144 110 
7 6 108 126 89 46 84 81 
8 7 59 77 28 48 101 3 74 
9 7 90 61 83 103 29 39 74 
10 7 85 45 92 141 154 125 37 
11 7 169 54 50 58 88 15 55 
12 7 142 134 55 175 50 62 14 
13 7 122 80 91 164 176 92 125 
14 7 49 69 156 130 146 149 137 
15 7 58 162 160 88 52 120 148 
16 7 51 21 87 75 119 107 71 
17 7 97 94 36 44 76 172 86 
18 7 6 116 123 150 82 117 31 
19 5 96 153 53 57 2 
20 5 115 63 121 32 79 
21 7 75 72 51 16 132 145 114 
22 7 148 120 139 161 111 143 169 
23 6 158 166 98 167 99 136 
24 7 4 56 103 79 83 32 90 
25 7 27 133 113 159 70 163 129 
26 7 60 145 38 127 152 107 116 
27 7 25 70 133 159 113 100 129 
28 7 48 74 8 101 104 3 77 
29 7 61 83 9 90 103 24 4 
30 7 76 97 94 44 42 17 36 
31 7 82 105 18 155 170 6 116 
32 7 79 56 103 4 24 83 20 
33 7 100 129 133 121 163 27 25 
34 7 112 163 174 113 135 129 133 
35 2 118 124 
36 7 44 94 76 172 17 97 42 
37 7 141 10 45 92 85 154 125 
38 6 152 127 26 60 145 150 
39 7 68 104 74 9 46 28 84 
40 7 5 106 140 65 41 147 3 
41 7 106 109 140 40 62 5 3 
42 7 73 44 87 76 36 54 94 
43 7 2 57 53 86 78 19 172 
44 7 94 36 76 97 42 17 172 
45 7 92 141 10 85 37 125 154 
46 7 84 108 68 7 89 126 81 
47 5 171 173 95 132 114 
48 7 28 74 8 104 101 59 77 
49 3 69 156 14 
50 7 134 130 55 142 137 11 12 
51 6 16 21 71 75 119 87 
52 6 162 15 160 120 58 148 
53 6 57 2 19 43 96 153 
54 6 55 11 73 119 134 142 
55 6 142 134 54 175 12 50 
56 7 4 24 79 103 32 83 90 
57 7 53 43 2 19 86 172 143 
58 7 15 162 160 88 52 169 120 
59 7 77 8 3 109 140 101 5 
60 7 145 26 127 38 152 116 150 
61 7 9 90 29 83 39 103 74 
62 7 102 109 41 69 106 140 12 
63 3 115 121 20 
64 5 95 173 132 171 47 
65 7 101 5 3 40 140 147 106 
66 4 93 138 112 34 
67 5 125 154 85 164 10 
68 6 39 104 46 84 89 108 
69 5 49 14 156 102 62 
70 7 27 25 159 37 133 100 113 
71 6 119 51 175 87 64 16 
72 7 114 132 21 75 170 47 171 
73 6 42 87 54 119 11 44 
74 7 48 28 104 39 90 8 101 
75 7 21 72 51 16 145 132 107 
76 7 44 97 94 30 36 42 17 
77 7 59 3 8 140 109 101 5 
78 7 86 43 2 57 53 17 172 
79 7 32 56 4 24 103 83 20 
80 7 122 176 13 164 157 91 98 
81 7 84 108 7 46 126 89 155 
82 7 31 105 18 170 155 6 116 
83 7 103 4 24 56 90 9 29 
84 7 46 108 68 81 7 89 126 
85 7 10 154 125 45 67 92 141 
86 7 78 43 57 2 53 17 172 
87 6 119 73 16 51 71 42 
88 6 160 162 58 15 52 137 
89 4 126 108 7 46 
90 7 9 103 83 61 74 56 4 
91 7 13 92 45 141 122 164 80 
92 7 45 141 10 85 37 91 125 
93 4 66 138 131 34 
94 7 44 36 76 97 17 172 42 
95 5 173 171 47 64 132 
96 4 153 19 111 139 
97 7 76 17 94 30 44 36 172 
98 7 166 158 23 176 157 80 136 
99 4 23 151 167 166 
100 7 33 129 133 25 27 163 113 
101 7 65 3 5 77 140 28 40 
102 6 62 69 49 109 41 14 
103 7 83 56 4 24 90 79 32 
104 7 68 39 74 28 48 101 65 
105 7 155 170 82 31 114 72 47 
106 7 41 140 40 5 109 3 65 
107 7 145 16 26 75 21 60 51 
108 6 7 46 126 89 84 81 
109 7 41 140 106 62 5 77 102 
110 6 117 144 168 123 150 6 
111 4 139 120 148 22 
112 6 174 34 135 163 138 113 
113 7 133 163 34 25 129 112 27 
114 7 132 47 72 171 173 95 170 
115 3 63 20 121 
116 7 150 123 6 127 117 152 110 
117 6 110 144 168 123 150 6 
118 2 35 124 
119 6 71 87 51 54 16 73 
120 5 148 139 22 111 15 
121 3 63 115 33 
122 7 80 13 164 176 91 157 67 
123 7 150 116 6 117 127 110 152 
124 2 118 35 
125 7 67 154 85 164 10 45 92 
126 3 89 7 108 
127 7 152 38 26 150 116 123 60 
128 4 151 118 35 124 
129 7 133 163 34 113 100 174 112 
130 7 137 149 165 146 14 35 50 
131 5 159 113 154 93 25 
132 7 114 173 95 47 171 64 72 
133 7 113 163 129 25 34 27 100 
134 7 142 55 50 12 175 54 11 
135 4 174 112 34 138 
136 5 158 167 164 23 67 
137 6 149 165 130 146 35 118 
138 6 66 93 112 135 34 174 
139 4 111 120 148 22 
140 7 5 106 41 40 3 109 65 
141 7 45 92 10 37 85 91 125 
142 6 134 55 12 175 50 54 
143 6 161 22 139 172 148 111 
144 6 168 117 110 123 6 150 
145 7 60 26 127 38 107 152 75 
146 7 149 165 137 130 35 128 118 
147 1 40 
148 5 120 139 22 111 15 
149 6 165 137 146 130 35 118 
150 7 123 116 6 127 117 110 152 
151 4 128 118 124 35 
152 6 38 127 26 123 150 116 
153 3 96 19 111 
154 6 125 67 85 10 45 164 
155 7 105 170 114 47 171 7 132 
156 3 49 69 14 
157 7 176 80 122 98 13 158 166 
158 7 23 166 98 136 167 176 99 
159 6 131 25 27 113 154 70 
160 5 162 88 58 15 52 
161 6 143 22 139 148 172 120 
162 6 160 15 58 88 52 120 
163 7 34 113 133 129 112 174 135 
164 7 67 125 122 13 80 85 154 
165 6 149 137 146 130 35 118 
166 7 23 158 98 99 167 136 176 
167 5 23 136 158 99 166 
168 6 144 117 110 123 6 150 
169 7 22 58 15 148 11 120 162 
170 7 105 155 72 114 132 47 82 
171 4 47 173 95 132 
172 7 143 161 36 57 94 53 44 
173 5 95 171 47 64 132 
174 5 112 135 34 163 129 
175 6 142 55 12 71 134 119 
176 7 80 122 157 98 13 164 158 
DEPOT_SECTION
   1
   -1
EOF
