NAME :  X-n233-kX-w92-c11.cctp
COMMENT : 	Adapted by Maziero, Usberti and Cavellucci from the Uchoa, Pecin, Pessoa, Poggi, Subramanian, and Vidal (2013)
TYPE :  CCTP
DIMENSION :    220
EDGE_WEIGHT_TYPE : 	EUC_2D	
CAPACITY : 	631
VERTICES_WITHIN_COVERAGE :  11
VERTICES_WITH_DEMAND : 	92
NODE_COORD_SECTION
1 500 500
2 816 981
3 349 338
4 22 205
5 385 344
6 913 54
7 524 123
8 239 335
9 150 84
10 84 860
11 645 647
12 507 516
13 153 940
14 429 602
15 596 759
16 776 399
17 942 767
18 871 2
19 714 950
20 72 400
21 765 315
22 666 798
23 287 851
24 3 201
25 78 724
26 896 240
27 59 735
28 253 251
29 37 22
30 973 599
31 726 13
32 82 262
33 2 631
34 133 656
35 435 741
36 834 714
37 37 861
38 946 211
39 290 110
40 423 350
41 406 414
42 804 581
43 846 956
44 849 683
45 79 883
46 433 93
47 610 253
48 686 486
49 229 248
50 382 597
51 544 618
52 585 303
53 732 387
54 533 952
55 563 807
56 780 940
57 665 561
58 591 536
59 35 216
60 577 969
61 811 927
62 592 744
63 280 384
64 866 228
65 153 27
66 401 481
67 72 488
68 610 324
69 381 300
70 209 675
71 139 848
72 354 124
73 386 572
74 36 764
75 660 422
76 719 264
77 761 560
78 231 203
79 769 312
80 905 645
81 304 372
82 970 966
83 51 257
84 189 934
85 516 6
86 756 36
87 47 139
88 428 61
89 100 853
90 923 919
91 751 480
92 555 726
93 463 190
94 130 131
95 105 943
96 83 892
97 215 690
98 869 706
99 512 831
100 603 287
101 668 913
102 954 694
103 321 587
104 282 907
105 339 810
106 30 659
107 339 296
108 367 511
109 448 223
110 72 181
111 323 183
112 684 125
113 415 387
114 882 359
115 485 115
116 133 541
117 368 424
118 585 302
119 991 97
120 198 817
121 634 849
122 142 639
123 455 777
124 436 774
125 245 581
126 112 691
127 665 246
128 37 450
129 899 115
130 983 90
131 429 752
132 696 466
133 629 807
134 506 293
135 11 521
136 50 515
137 109 570
138 677 876
139 171 930
140 919 111
141 425 775
142 129 852
143 504 181
144 919 181
145 390 729
146 83 649
147 469 662
148 161 759
149 656 281
150 90 681
151 563 555
152 155 612
153 213 837
154 280 680
155 473 689
156 153 586
157 273 698
158 191 650
159 645 830
160 384 375
161 65 890
162 137 561
163 432 780
164 561 523
165 390 934
166 481 236
167 725 818
168 272 710
169 998 76
170 544 282
171 866 252
172 358 678
173 439 687
174 470 303
175 636 804
176 461 690
177 912 114
178 372 683
179 378 754
180 412 780
181 637 870
182 953 185
183 541 254
184 498 856
185 535 304
186 652 948
187 318 654
188 117 832
189 648 144
190 371 627
191 634 872
192 308 649
193 235 979
194 271 865
195 115 761
196 553 750
197 723 813
198 570 761
199 114 660
200 159 883
201 460 699
202 185 559
203 320 641
204 508 754
205 294 874
206 265 793
207 999 125
208 999 75
209 662 727
210 464 770
211 724 174
212 603 260
213 530 286
214 814 812
215 96 554
216 605 284
217 134 625
218 568 454
219 220 931
220 162 792
DEMAND_SECTION
2 53
3 64
4 54
5 63
6 45
7 6
8 100
9 63
10 5
11 74
12 87
13 11
14 33
15 63
16 36
17 93
18 28
19 89
20 64
21 8
22 69
23 40
24 65
25 29
26 30
27 19
28 78
29 78
30 55
31 6
32 94
33 25
34 38
35 2
36 69
37 42
38 43
39 94
40 74
41 54
42 93
43 76
44 92
45 49
46 85
47 4
48 12
49 70
50 17
51 82
52 16
53 1
54 51
55 94
56 74
57 56
58 66
59 79
60 88
61 65
62 87
63 62
64 5
65 67
66 78
67 57
68 45
69 82
70 18
71 35
72 88
73 8
74 13
75 37
76 45
77 75
78 70
79 13
80 69
81 59
82 88
83 88
84 23
85 4
86 49
87 67
88 75
89 9
90 94
91 45
92 59
93 100
COVERAGE_SECTION
2 11 43 61 56 19 90 82 101 186 214 138 167 
3 11 5 107 69 160 81 40 113 63 117 41 8 
4 11 59 24 110 83 87 32 94 9 29 20 78 
5 11 160 3 40 69 113 107 41 117 81 174 63 
6 11 140 177 129 18 130 169 119 208 207 144 182 
7 11 115 143 93 46 88 85 166 109 189 183 47 
8 11 63 81 28 49 107 3 78 5 69 160 117 
9 11 94 65 87 110 29 39 78 59 4 49 24 
10 11 89 45 96 161 188 142 37 71 200 95 220 
11 11 209 57 51 62 92 15 58 151 198 196 77 
12 11 164 151 58 218 51 66 14 73 108 41 50 
13 11 139 84 95 200 219 96 142 193 45 71 161 
14 11 50 73 190 147 173 176 155 178 201 172 103 
15 11 62 198 196 92 55 133 175 209 22 159 204 
16 11 53 21 91 79 132 114 75 48 76 77 149 
17 11 102 98 36 44 80 214 90 30 82 61 43 
18 11 6 129 140 177 86 130 31 169 208 119 207 
19 11 101 186 56 138 61 2 181 191 121 43 167 
20 11 128 67 136 135 32 83 116 215 137 162 8 
21 11 79 76 53 16 149 171 127 114 64 211 75 
22 11 175 133 159 197 121 167 209 181 138 15 191 
23 8 194 205 104 206 105 153 120 219 
24 11 4 59 110 83 87 32 94 29 9 20 78 
25 11 27 150 126 195 74 199 146 106 34 148 122 
26 11 64 171 38 144 182 114 129 177 140 79 21 
27 11 25 74 150 195 126 106 146 199 148 34 188 
28 11 49 78 8 107 111 3 81 63 69 39 5 
29 11 65 87 9 94 110 24 4 59 83 32 78 
30 11 80 102 98 44 42 17 36 77 91 114 214 
31 11 86 112 18 189 211 6 129 85 177 140 7 
32 11 83 59 110 4 24 87 20 94 49 78 28 
33 11 106 146 150 135 199 27 25 215 137 126 136 
34 11 122 199 217 126 152 146 150 158 156 70 25 
35 10 131 124 141 163 123 210 180 145 201 173 
36 11 44 98 80 214 17 102 42 197 167 77 209 
37 11 161 10 45 96 89 188 142 74 71 95 200 
38 11 182 144 26 64 171 207 177 140 129 119 130 
39 11 72 111 78 9 46 28 88 49 65 94 93 
40 11 5 113 160 69 41 174 3 117 107 134 81 
41 11 113 117 160 40 66 5 3 108 81 69 174 
42 11 77 44 91 80 36 57 98 48 132 30 11 
43 11 2 61 56 90 82 19 214 101 167 138 197 
44 11 98 36 80 102 42 17 214 30 77 197 167 
45 11 96 161 10 89 37 142 188 95 71 200 13 
46 11 88 115 72 7 93 143 85 109 111 39 166 
47 11 212 216 100 149 118 127 52 183 68 170 213 
48 11 132 91 75 57 77 58 53 218 16 164 151 
49 11 28 78 8 111 107 63 81 32 3 39 94 
50 11 73 190 14 103 203 172 187 108 178 192 173 
51 11 151 147 58 164 155 11 12 92 176 14 201 
52 11 118 100 216 68 170 212 185 47 213 183 149 
53 11 16 21 75 79 132 91 48 76 149 68 114 
54 7 60 184 186 99 191 181 101 
55 10 198 99 15 196 133 62 175 204 92 184 
56 11 61 2 19 43 101 138 186 214 167 197 90 
57 11 48 58 11 77 132 151 164 91 51 75 42 
58 11 164 151 57 218 12 51 48 11 132 75 91 
59 11 4 24 83 110 32 87 94 9 20 29 78 
60 10 54 186 101 191 181 121 138 19 184 99 
61 11 56 43 2 19 90 214 167 138 101 197 186 
62 11 15 198 196 92 55 209 133 175 204 22 159 
63 11 81 8 3 117 160 107 5 41 69 113 28 
64 11 171 26 144 38 182 129 177 79 140 114 21 
65 11 9 94 29 87 39 110 78 4 59 72 24 
66 11 108 117 41 73 113 160 12 50 14 40 103 
67 11 136 128 135 215 116 20 137 162 156 202 152 
68 11 52 118 100 216 149 212 47 170 185 213 127 
69 11 107 5 3 40 160 174 113 109 81 41 166 
70 11 97 158 157 154 168 122 34 152 217 199 148 
71 11 142 188 89 200 10 220 120 45 96 153 161 
72 11 39 111 46 88 93 115 109 78 143 28 166 
73 11 50 14 190 108 103 66 203 187 172 192 178 
74 11 27 25 195 37 150 106 126 188 10 89 146 
75 11 132 48 53 218 91 68 16 58 57 52 149 
76 11 127 149 21 79 211 47 212 216 100 53 68 
77 11 42 91 57 48 132 11 44 16 80 36 75 
78 11 49 28 111 39 94 8 107 9 72 32 110 
79 11 21 76 53 16 171 149 114 127 64 211 26 
80 11 44 102 98 30 36 42 17 77 214 91 197 
81 11 63 3 8 160 117 107 5 69 41 113 40 
82 11 90 43 2 61 56 17 214 19 102 98 36 
83 11 32 59 4 24 110 87 20 94 49 78 128 
84 11 139 219 13 200 193 95 104 71 153 142 194 
85 11 88 115 7 46 143 93 189 72 112 31 109 
86 11 31 112 18 211 189 6 129 177 140 144 64 
87 11 110 4 24 59 94 9 29 83 32 65 78 
88 11 46 115 72 85 7 93 143 39 111 109 166 
89 11 10 188 142 45 71 96 161 37 200 220 95 
90 11 82 43 61 2 56 17 214 19 98 167 36 
91 11 132 48 77 16 53 75 42 57 21 79 58 
92 10 196 198 62 15 204 55 155 201 176 210 
93 11 109 143 166 115 7 183 46 134 174 213 170 
94 11 9 110 87 65 78 59 4 32 29 24 83 
95 11 13 96 45 161 139 200 84 10 89 142 71 
96 11 45 161 10 89 37 95 142 188 71 200 13 
97 11 70 158 157 168 154 148 34 122 152 192 126 
98 11 44 36 80 102 17 214 42 30 197 77 167 
99 4 184 55 204 210 
100 11 216 118 52 212 47 68 149 170 183 185 213 
101 11 138 186 181 191 19 121 159 60 167 133 175 
102 11 80 17 98 30 44 36 214 42 90 77 167 
103 11 203 50 192 190 73 187 125 108 172 154 14 
104 11 205 194 23 219 193 84 153 165 105 139 206 
105 7 23 179 206 205 180 194 141 
106 11 33 146 150 25 27 199 126 34 74 217 122 
107 11 69 3 5 81 160 28 40 63 8 111 113 
108 11 66 73 50 117 103 41 14 190 113 160 203 
109 11 166 93 143 174 134 183 69 213 170 115 185 
110 11 87 59 4 24 94 83 32 9 78 29 49 
111 11 72 39 78 28 49 107 69 109 93 46 3 
112 11 189 211 86 31 127 76 47 212 149 7 216 
113 11 41 160 40 5 117 3 69 66 174 81 107 
114 11 171 16 26 79 21 64 53 38 91 144 182 
115 11 7 46 143 93 88 85 109 166 72 183 189 
116 11 162 137 215 156 202 152 67 217 136 122 34 
117 11 41 160 113 66 5 81 108 3 40 63 69 
118 11 52 100 216 68 170 212 185 47 213 183 149 
119 11 130 169 208 207 140 177 6 129 182 144 38 
120 11 153 220 71 148 206 142 200 188 194 23 195 
121 11 181 159 191 133 175 138 22 101 55 167 197 
122 11 217 34 152 199 158 156 126 146 150 70 137 
123 7 210 124 163 141 131 35 180 
124 7 163 141 123 131 180 210 35 
125 11 202 103 158 156 192 152 203 70 187 154 162 
126 11 150 199 34 25 146 122 27 195 217 148 106 
127 11 149 47 76 212 216 100 211 68 52 118 189 
128 11 67 20 136 135 215 116 137 162 156 33 202 
129 11 177 140 6 144 130 182 119 207 169 38 208 
130 11 119 169 208 207 140 177 6 129 182 144 38 
131 9 35 124 141 163 180 123 210 145 179 
132 11 48 75 91 53 57 16 77 58 218 164 42 
133 11 175 159 22 121 15 181 191 55 62 198 138 
134 11 213 185 174 170 183 166 52 118 109 100 216 
135 11 136 67 128 215 33 137 116 162 20 106 146 
136 11 67 135 215 128 137 116 162 20 156 33 146 
137 11 215 162 116 156 217 152 122 202 136 146 34 
138 11 101 181 191 121 159 167 186 197 22 19 175 
139 11 84 13 200 219 95 193 71 142 96 153 45 
140 11 177 129 6 130 144 119 182 207 169 208 38 
141 8 163 124 180 131 123 35 210 179 
142 11 71 188 89 200 10 45 96 220 161 120 153 
143 11 93 166 7 115 109 183 213 170 134 46 174 
144 11 182 38 26 177 129 140 64 171 207 119 130 
145 11 179 131 35 178 180 141 172 124 173 163 201 
146 11 150 199 34 126 106 217 122 25 152 33 137 
147 11 155 176 201 173 14 35 51 131 178 204 145 
148 11 220 195 120 126 188 97 25 71 153 70 142 
149 11 127 216 100 47 212 68 76 52 118 170 21 
150 11 126 199 146 25 34 27 106 122 217 195 152 
151 11 164 58 51 12 218 57 11 48 14 147 132 
152 11 217 156 122 34 158 162 202 137 199 116 146 
153 11 120 194 206 220 200 23 71 142 205 148 219 
154 11 157 168 192 187 203 97 70 172 178 158 103 
155 11 176 201 147 173 35 204 131 210 92 123 145 
156 11 152 162 202 217 137 116 122 215 34 158 199 
157 11 168 154 97 192 187 70 203 172 158 206 178 
158 11 70 97 122 152 34 217 156 199 125 126 202 
159 11 121 133 175 22 181 191 138 197 167 55 15 
160 11 5 113 41 40 3 117 69 81 107 63 66 
161 11 45 96 10 37 89 95 142 188 71 200 13 
162 11 116 137 156 215 202 152 217 122 34 67 136 
163 7 124 141 180 123 131 210 35 
164 11 151 58 12 218 51 57 48 75 132 11 14 
165 4 104 205 23 184 
166 11 109 93 143 134 183 174 213 170 185 69 7 
167 11 197 22 138 159 214 175 121 133 181 191 101 
168 11 157 154 97 192 70 187 206 203 172 158 178 
169 11 208 130 119 207 140 6 177 129 182 144 38 
170 11 213 185 183 134 52 118 100 216 212 47 174 
171 11 64 26 144 38 114 182 79 21 129 177 76 
172 11 178 187 190 203 192 145 154 179 173 50 157 
173 11 176 201 155 147 35 145 131 178 172 14 124 
174 11 134 213 185 40 166 170 109 183 69 5 113 
175 11 133 159 22 121 15 181 191 55 62 198 209 
176 11 201 155 173 147 35 131 204 210 145 123 124 
177 11 140 129 6 144 130 119 182 207 169 208 38 
178 11 172 145 190 187 173 203 179 192 35 50 131 
179 9 145 180 131 141 35 163 124 105 178 
180 7 141 163 124 131 123 179 35 
181 11 191 121 138 159 101 133 175 22 186 55 167 
182 11 38 144 207 26 140 177 129 119 64 130 171 
183 11 170 213 185 134 212 166 118 52 47 100 216 
184 2 99 55 
185 11 213 170 134 52 118 183 174 100 216 68 212 
186 11 101 19 138 60 191 181 121 159 54 56 133 
187 11 192 203 154 172 190 178 157 103 168 50 125 
188 11 142 71 89 10 220 45 200 96 195 161 120 
189 11 112 211 127 47 212 7 149 76 216 143 100 
190 11 50 172 203 178 73 187 14 103 192 173 145 
191 11 181 121 138 159 101 133 175 186 22 55 167 
192 11 187 203 154 172 157 103 190 168 178 50 125 
193 11 219 84 139 104 13 194 205 200 95 23 153 
194 10 23 205 104 153 206 219 105 120 84 200 
195 11 148 25 220 27 126 188 74 150 71 142 89 
196 9 198 92 62 15 204 55 99 210 133 
197 11 167 22 138 159 175 214 133 121 181 209 191 
198 10 196 15 62 92 55 204 133 175 99 209 
199 11 34 126 150 146 122 217 152 25 158 106 156 
200 11 71 142 139 13 84 89 188 153 96 120 10 
201 11 176 155 173 147 35 131 210 204 145 123 124 
202 11 156 162 116 152 125 137 217 215 122 158 34 
203 11 187 192 172 190 103 154 178 157 50 168 73 
204 8 196 210 92 123 198 201 35 155 
205 9 23 194 104 105 206 153 219 120 165 
206 11 23 153 120 194 105 168 205 157 220 148 97 
207 11 119 130 169 208 182 140 177 144 129 38 6 
208 11 169 130 119 207 140 6 177 129 182 144 38 
209 11 22 62 15 175 11 133 198 159 197 92 167 
210 7 123 124 163 131 141 35 204 
211 11 112 189 76 127 149 47 86 79 21 212 64 
212 11 47 216 100 118 52 149 183 170 68 127 213 
213 11 170 185 134 183 118 52 174 166 100 216 212 
214 11 167 197 36 61 98 56 44 17 43 22 138 
215 11 137 116 162 136 156 67 217 152 202 135 146 
216 11 100 212 118 52 47 68 149 170 127 183 185 
217 11 122 152 34 199 156 146 137 158 162 126 150 
218 11 164 58 12 75 151 48 132 68 57 52 118 
219 11 84 139 193 104 13 200 194 205 153 23 71 
220 11 148 120 195 188 71 142 153 89 200 10 206 
DEPOT_SECTION
   1
   -1
EOF
