NAME :  X-n256-kX-w102-c11.cctp
COMMENT : 	Adapted by Maziero, Usberti and Cavellucci from the Uchoa, Pecin, Pessoa, Poggi, Subramanian, and Vidal (2013)
TYPE :  CCTP
DIMENSION :    254
EDGE_WEIGHT_TYPE : 	EUC_2D	
CAPACITY : 	1225
VERTICES_WITHIN_COVERAGE :  11
VERTICES_WITH_DEMAND : 	102
NODE_COORD_SECTION
1 500 500
2 878 606
3 35 593
4 320 125
5 189 244
6 274 784
7 900 310
8 742 640
9 800 448
10 66 599
11 829 588
12 660 698
13 290 673
14 669 619
15 252 742
16 425 160
17 291 114
18 289 90
19 813 663
20 847 528
21 589 738
22 756 687
23 777 547
24 810 554
25 823 501
26 5 179
27 357 774
28 39 419
29 277 59
30 76 127
31 229 65
32 868 256
33 388 914
34 303 352
35 713 640
36 692 668
37 332 773
38 404 833
39 782 719
40 230 680
41 711 559
42 383 851
43 366 42
44 80 322
45 22 338
46 447 107
47 357 24
48 120 255
49 155 252
50 793 605
51 248 236
52 273 163
53 741 596
54 324 753
55 195 632
56 848 380
57 728 460
58 296 66
59 885 203
60 330 780
61 204 177
62 659 553
63 426 102
64 309 755
65 215 242
66 938 514
67 24 547
68 373 110
69 1000 475
70 862 596
71 974 551
72 83 155
73 816 433
74 917 345
75 62 661
76 981 720
77 874 602
78 247 231
79 248 946
80 908 590
81 812 701
82 959 401
83 270 347
84 714 567
85 796 520
86 367 947
87 88 235
88 30 230
89 189 199
90 774 664
91 732 579
92 146 730
93 188 748
94 958 533
95 954 296
96 279 160
97 956 608
98 882 389
99 853 195
100 730 640
101 56 562
102 136 499
103 819 427
104 873 663
105 308 101
106 256 669
107 272 320
108 280 122
109 800 663
110 193 65
111 951 676
112 334 987
113 583 843
114 940 363
115 523 797
116 753 415
117 786 576
118 60 623
119 512 166
120 945 499
121 928 312
122 823 802
123 249 288
124 266 776
125 166 204
126 793 691
127 906 599
128 217 20
129 124 271
130 880 572
131 708 428
132 53 561
133 386 713
134 764 423
135 98 577
136 77 608
137 875 607
138 266 847
139 861 673
140 79 525
141 657 665
142 784 424
143 116 834
144 882 574
145 349 113
146 519 674
147 568 693
148 412 715
149 681 739
150 710 603
151 132 317
152 243 887
153 328 130
154 682 184
155 907 505
156 25 513
157 952 672
158 364 107
159 746 331
160 47 524
161 809 640
162 950 586
163 873 414
164 97 278
165 775 601
166 194 309
167 266 276
168 825 357
169 246 850
170 268 168
171 181 782
172 700 492
173 695 698
174 708 454
175 213 701
176 147 72
177 940 661
178 213 214
179 931 586
180 175 243
181 466 38
182 39 521
183 697 594
184 307 170
185 76 554
186 991 434
187 797 286
188 84 346
189 794 695
190 24 575
191 184 367
192 231 285
193 775 559
194 989 420
195 897 309
196 415 180
197 201 293
198 42 891
199 39 267
200 366 205
201 265 765
202 17 290
203 729 846
204 707 632
205 825 342
206 274 809
207 961 401
208 901 604
209 685 725
210 860 244
211 37 367
212 209 189
213 319 167
214 234 177
215 221 697
216 379 190
217 629 657
218 740 486
219 94 552
220 272 173
221 884 628
222 967 297
223 913 279
224 196 313
225 276 84
226 692 632
227 824 348
228 284 743
229 253 739
230 874 303
231 695 657
232 124 313
233 705 456
234 248 819
235 781 843
236 866 544
237 364 870
238 884 375
239 686 590
240 482 177
241 912 176
242 287 794
243 764 592
244 944 112
245 351 260
246 254 616
247 790 281
248 352 320
249 653 224
250 827 593
251 98 906
252 920 321
253 98 555
254 18 534
DEMAND_SECTION
2 83
3 68
4 78
5 76
6 79
7 76
8 78
9 61
10 78
11 79
12 86
13 53
14 66
15 81
16 87
17 88
18 66
19 84
20 86
21 89
22 84
23 84
24 88
25 83
26 66
27 53
28 88
29 74
30 81
31 61
32 76
33 83
34 92
35 76
36 54
37 99
38 64
39 67
40 62
41 87
42 72
43 80
44 72
45 74
46 72
47 62
48 92
49 77
50 87
51 62
52 81
53 60
54 51
55 84
56 77
57 96
58 79
59 58
60 94
61 91
62 79
63 74
64 66
65 73
66 91
67 73
68 76
69 95
70 89
71 54
72 72
73 95
74 83
75 100
76 68
77 75
78 99
79 99
80 95
81 86
82 58
83 100
84 63
85 82
86 81
87 61
88 98
89 80
90 92
91 76
92 76
93 89
94 94
95 100
96 83
97 96
98 52
99 98
100 77
101 67
102 98
103 50
COVERAGE_SECTION
2 11 137 77 70 208 221 127 144 80 130 11 250 
3 11 190 10 101 132 118 136 67 185 254 135 160 
4 11 153 105 17 145 108 213 18 184 158 96 68 
5 11 180 65 49 178 89 125 197 78 192 212 51 
6 11 124 242 201 206 228 234 64 15 229 60 37 
7 11 195 252 230 121 223 74 95 32 114 238 222 
8 11 100 35 204 90 53 22 150 231 165 226 243 
9 11 73 103 142 134 116 25 218 85 57 163 56 
10 11 136 118 3 101 135 132 185 190 253 219 75 
11 11 250 70 24 50 117 77 137 2 130 144 161 
12 11 141 173 209 36 149 217 231 226 35 14 21 
13 11 106 40 246 228 215 229 15 175 64 54 201 
14 11 226 239 183 204 150 231 141 35 36 217 100 
15 11 229 201 228 124 6 215 175 64 242 93 40 
16 11 196 216 46 63 240 68 200 158 119 145 153 
17 11 108 105 18 4 225 153 58 96 52 29 145 
18 11 225 105 17 58 29 108 4 153 145 31 96 
19 11 109 161 126 189 81 90 139 104 50 22 39 
20 11 236 25 24 85 130 144 11 155 250 70 23 
21 11 147 12 115 217 149 146 209 141 113 173 36 
22 11 90 126 189 39 8 109 100 81 19 173 35 
23 11 193 117 85 24 243 165 91 50 53 25 11 
24 11 117 23 193 85 11 250 20 50 25 236 165 
25 11 85 20 24 9 236 23 73 103 193 117 155 
26 11 88 72 30 199 87 202 164 48 129 45 44 
27 11 37 60 54 64 133 242 38 228 42 148 6 
28 11 211 45 188 156 182 44 160 140 254 102 67 
29 11 58 225 18 31 105 17 108 128 4 110 47 
30 11 72 26 176 87 88 125 110 89 48 61 199 
31 11 110 128 29 225 18 58 108 17 176 105 52 
32 11 210 230 223 59 195 7 99 187 121 247 252 
33 11 86 237 42 38 112 138 27 79 60 152 37 
34 11 83 107 248 123 167 192 245 224 166 197 191 
35 11 204 100 226 231 8 36 150 14 183 53 239 
36 11 231 173 35 141 226 204 12 100 14 8 209 
37 11 60 54 27 64 242 228 6 124 201 206 133 
38 11 42 237 27 33 60 37 54 148 86 133 64 
39 11 189 126 81 22 90 109 19 161 8 173 139 
40 11 215 175 106 55 13 229 15 246 93 228 201 
41 11 84 91 183 239 150 53 62 243 193 23 172 
42 11 237 38 33 27 60 37 86 242 54 138 206 
43 11 47 158 68 145 58 105 63 18 29 4 153 
44 11 188 232 164 151 45 211 129 199 202 48 87 
45 11 211 202 44 188 199 28 164 232 88 151 87 
46 11 63 16 181 68 240 196 158 119 145 43 216 
47 11 43 58 158 29 68 145 105 18 225 63 4 
48 11 129 164 49 87 180 232 151 125 5 44 199 
49 11 180 5 48 129 125 65 197 89 164 232 87 
50 11 165 117 243 250 161 11 193 53 24 109 23 
51 11 78 65 178 167 123 192 5 212 214 220 89 
52 11 96 170 220 184 214 108 213 17 4 153 212 
53 11 91 243 150 165 84 8 183 100 41 117 193 
54 11 64 37 60 27 228 242 6 201 124 229 15 
55 11 40 246 215 106 175 13 92 135 93 136 229 
56 11 168 98 238 227 163 205 103 73 74 142 230 
57 11 174 233 218 131 172 116 134 142 9 85 73 
58 11 29 18 225 105 17 108 4 31 145 153 43 
59 11 99 241 210 32 223 230 195 7 244 95 121 
60 11 37 27 54 64 242 6 228 206 124 201 15 
61 11 212 89 214 178 125 170 65 220 5 78 52 
62 11 239 41 183 84 14 150 172 91 226 204 53 
63 11 46 68 16 158 181 145 196 43 240 216 153 
64 11 54 228 37 60 6 201 242 124 27 15 229 
65 11 5 178 51 78 180 192 89 197 212 123 49 
66 11 120 94 155 71 179 69 162 236 80 130 144 
67 11 254 190 182 132 160 156 101 3 185 140 10 
68 11 158 145 153 63 4 105 43 16 46 213 216 
69 11 186 194 120 94 66 71 207 82 155 162 114 
70 11 77 137 2 130 144 11 250 221 208 127 80 
71 11 94 162 66 179 97 120 80 69 155 127 208 
72 11 30 87 26 88 125 176 48 89 199 49 61 
73 11 103 9 142 134 163 56 116 25 168 98 227 
74 11 252 114 121 7 195 238 98 230 95 223 222 
75 11 118 136 10 3 135 190 101 132 185 92 253 
76 11 111 157 177 97 104 139 221 162 208 127 179 
77 11 137 2 70 208 221 144 130 127 80 11 250 
78 11 51 65 178 167 192 214 123 212 5 220 89 
79 11 152 112 169 138 86 234 206 237 33 251 242 
80 11 127 208 179 144 130 2 77 137 162 221 70 
81 11 189 126 39 19 109 90 139 22 161 104 8 
82 11 207 194 114 186 74 98 238 69 163 252 121 
83 11 107 34 123 167 192 224 166 248 191 197 51 
84 11 41 91 183 150 239 53 243 62 193 204 23 
85 11 23 25 24 193 20 117 218 9 236 11 243 
86 11 33 112 237 42 79 38 152 138 169 206 60 
87 11 48 164 129 88 199 49 72 125 232 44 180 
88 11 199 26 87 202 164 72 48 129 44 45 30 
89 11 212 125 61 178 5 180 65 214 49 78 51 
90 11 109 22 126 189 19 8 161 100 81 39 50 
91 11 53 84 41 150 243 183 193 239 165 117 23 
92 11 93 171 175 215 40 15 229 143 75 55 201 
93 11 171 92 175 215 15 229 201 40 124 6 234 
94 11 71 66 120 162 155 179 69 97 80 127 144 
95 11 222 121 252 223 7 195 74 114 230 32 82 
96 11 52 170 220 184 108 213 17 214 4 153 105 
97 11 162 179 80 127 177 208 71 157 111 94 221 
98 11 238 163 56 74 114 168 227 103 205 82 252 
99 11 59 210 241 32 223 187 247 230 195 244 7 
100 11 8 35 204 226 231 150 53 36 90 22 183 
101 11 132 185 67 190 3 10 160 219 253 140 182 
102 11 140 219 253 185 135 160 182 101 132 156 10 
103 11 73 9 142 56 134 163 116 168 25 98 227 
104 11 139 221 137 2 19 77 208 177 70 161 81 
105 11 17 18 4 108 153 225 58 145 29 158 68 
106 11 40 13 215 246 175 229 55 15 228 201 64 
107 11 83 123 167 34 192 197 224 166 248 51 78 
108 11 17 18 105 96 225 4 52 170 153 220 184 
109 11 19 161 90 126 189 81 22 50 39 8 139 
110 11 31 176 128 29 225 18 58 108 17 61 214 
111 11 157 177 76 97 104 221 208 127 139 162 179 
112 11 86 33 79 237 152 42 138 169 38 206 234 
113 11 115 21 149 203 147 209 12 38 146 173 217 
114 11 74 82 207 252 121 238 98 7 95 195 222 
115 11 113 21 147 146 38 148 42 133 27 149 12 
116 10 134 142 131 57 9 174 233 73 103 218 
117 11 193 165 243 23 50 24 250 11 53 91 85 
118 11 136 10 75 3 135 190 101 132 185 253 219 
119 11 240 16 46 196 63 216 181 68 200 249 158 
120 11 66 94 155 69 71 186 162 179 194 236 80 
121 11 252 7 95 195 74 223 222 114 230 238 32 
122 11 235 39 81 203 189 126 22 139 19 109 90 
123 11 192 167 107 197 51 65 78 166 224 83 5 
124 11 6 201 242 206 15 228 229 234 64 54 60 
125 11 89 180 5 212 61 178 49 65 48 214 129 
126 11 189 81 109 39 90 19 22 161 139 8 100 
127 11 208 80 179 2 77 137 144 221 130 70 162 
128 11 31 110 29 176 225 58 18 17 108 105 47 
129 11 48 164 49 232 151 87 180 44 5 125 166 
130 11 144 70 77 236 80 2 137 127 208 11 179 
131 10 174 233 57 116 134 172 218 142 9 159 
132 11 101 185 67 190 3 160 10 182 219 140 254 
133 11 148 27 54 37 60 64 13 228 38 242 201 
134 10 116 142 9 57 73 103 131 174 218 233 
135 11 253 219 185 136 10 101 132 140 118 3 160 
136 11 10 118 135 3 101 132 185 75 253 219 190 
137 11 2 77 70 221 208 127 144 130 80 11 250 
138 11 169 234 206 152 242 6 124 201 60 37 79 
139 11 104 19 221 81 109 161 137 2 126 189 77 
140 11 185 219 160 253 182 101 132 135 156 67 254 
141 11 217 12 36 231 14 226 173 204 35 209 100 
142 10 134 9 116 73 103 57 131 218 56 168 
143 11 251 171 198 92 93 169 234 152 138 206 124 
144 11 130 77 70 80 2 137 236 127 208 179 221 
145 11 158 68 153 4 105 17 213 18 108 58 184 
146 11 147 21 217 148 115 141 133 12 14 36 209 
147 11 21 146 217 12 141 115 209 149 14 36 173 
148 11 133 27 54 37 60 64 146 38 13 228 115 
149 11 209 173 12 36 141 231 22 21 217 39 35 
150 11 183 239 204 53 91 226 84 35 100 14 41 
151 11 232 129 44 164 188 48 166 224 49 191 197 
152 11 169 138 79 234 206 242 6 124 171 237 201 
153 11 4 145 105 213 17 158 184 68 108 18 96 
154 9 249 247 187 159 99 119 210 32 240 
155 11 66 120 236 94 20 130 144 71 25 179 80 
156 11 182 254 160 67 140 132 101 190 185 219 3 
157 11 111 177 76 97 104 221 208 127 162 179 139 
158 11 68 145 153 4 105 63 43 17 213 18 58 
159 10 247 187 205 227 168 116 134 142 131 56 
160 11 182 156 254 140 67 132 101 185 219 190 253 
161 11 19 109 50 90 250 165 126 11 189 81 139 
162 11 179 97 71 80 127 208 94 144 130 66 2 
163 11 98 238 56 103 73 168 9 74 227 114 82 
164 11 129 48 87 232 44 151 199 49 188 202 88 
165 11 243 50 117 53 193 91 8 161 250 23 11 
166 11 224 197 192 123 191 151 5 49 180 65 232 
167 11 123 192 51 107 78 65 197 83 166 224 178 
168 11 227 205 56 238 98 103 230 163 187 73 142 
169 11 138 234 152 206 242 6 124 201 171 79 15 
170 11 220 52 96 214 184 108 213 17 212 61 78 
171 11 93 92 234 15 143 229 124 201 175 6 169 
172 11 233 174 218 57 131 41 62 84 91 116 134 
173 11 209 36 12 231 149 141 35 22 226 204 100 
174 10 233 57 131 172 218 116 134 142 9 41 
175 11 215 40 93 106 229 15 55 92 13 201 228 
176 11 110 31 128 30 72 61 225 29 212 125 89 
177 11 157 111 97 221 104 208 127 76 162 179 80 
178 11 212 65 89 5 61 78 51 214 125 180 49 
179 11 162 80 127 97 208 144 130 71 2 77 94 
180 11 5 49 65 125 89 178 48 197 129 212 166 
181 11 46 63 43 47 68 158 16 119 145 240 196 
182 11 160 156 254 67 140 132 101 185 190 219 253 
183 11 239 150 84 14 41 91 226 204 53 35 62 
184 11 213 96 52 220 170 153 4 108 17 105 200 
185 11 219 101 253 132 140 135 160 10 182 67 136 
186 11 194 69 207 82 120 114 66 94 155 74 71 
187 10 247 205 159 227 168 210 32 230 195 7 
188 11 44 211 232 151 45 164 129 28 202 199 48 
189 11 126 81 39 109 19 90 22 161 139 8 100 
190 11 3 67 132 101 254 10 160 182 185 118 136 
191 11 224 166 151 197 232 83 192 107 123 188 44 
192 11 123 197 167 166 224 65 51 107 78 5 180 
193 11 23 117 24 243 165 85 91 50 53 11 84 
194 11 186 207 82 69 114 120 74 66 98 238 163 
195 11 7 230 252 121 223 74 95 32 238 114 222 
196 11 16 216 200 240 63 46 68 158 145 213 119 
197 11 166 224 192 123 5 65 180 49 167 151 51 
198 11 251 143 171 92 152 93 169 79 234 138 75 
199 11 202 88 87 164 44 45 48 129 188 26 232 
200 11 216 196 245 213 184 16 153 4 145 68 96 
201 11 124 6 15 228 229 242 64 206 234 54 37 
202 11 199 45 88 44 211 164 188 87 48 129 232 
203 11 235 122 149 209 39 113 173 22 12 189 81 
204 11 35 226 100 231 150 8 36 183 14 239 53 
205 11 227 168 56 187 230 238 247 98 195 159 7 
206 11 242 6 234 124 138 201 169 60 64 228 37 
207 11 82 194 114 186 74 98 238 69 163 252 121 
208 11 127 80 2 137 77 221 179 144 130 70 162 
209 11 149 173 12 36 141 231 22 217 35 226 100 
210 11 32 59 99 230 223 195 187 7 247 241 121 
211 11 45 188 28 44 202 199 232 151 164 129 88 
212 11 61 89 178 214 125 65 78 5 51 170 180 
213 11 184 153 96 4 52 220 170 17 108 200 145 
214 11 212 61 170 220 52 178 96 89 78 51 65 
215 11 175 40 106 229 15 93 55 13 228 201 92 
216 11 200 196 16 213 184 245 153 68 145 158 4 
217 11 141 12 14 36 231 226 147 173 204 35 209 
218 11 57 172 174 233 85 131 134 9 23 116 142 
219 11 253 185 135 140 101 132 10 160 136 182 102 
220 11 170 52 96 184 214 213 108 17 78 212 51 
221 11 2 137 77 208 127 104 70 80 139 144 130 
222 11 95 121 252 223 7 74 114 195 230 82 207 
223 11 7 195 121 252 95 230 32 222 210 74 59 
224 11 166 197 192 191 123 151 5 232 49 65 180 
225 11 18 29 58 17 105 108 31 4 153 96 52 
226 11 204 35 231 14 150 36 183 100 239 141 8 
227 11 205 168 56 238 230 187 98 247 103 159 163 
228 11 64 201 229 15 124 54 6 242 37 60 206 
229 11 15 201 228 124 6 215 175 64 40 242 93 
230 11 195 7 223 32 252 121 74 210 205 227 168 
231 11 36 35 226 204 100 141 173 14 8 12 150 
232 11 151 129 164 44 188 48 49 166 224 197 191 
233 10 174 57 131 172 218 116 134 142 9 41 
234 11 206 169 138 6 242 124 201 152 15 171 229 
235 11 203 122 39 149 81 189 126 209 22 173 90 
236 11 20 130 144 70 11 24 155 77 25 80 2 
237 11 42 33 38 86 27 60 138 37 242 206 169 
238 11 98 56 163 74 114 168 252 227 7 195 205 
239 11 183 150 14 84 41 226 62 91 204 53 35 
240 11 119 16 196 46 63 216 200 68 158 181 145 
241 11 59 99 244 210 32 223 95 222 230 195 7 
242 11 6 206 124 201 60 64 234 37 228 54 138 
243 11 165 53 117 50 91 193 23 8 150 84 100 
244 11 241 59 99 210 32 223 95 222 121 7 195 
245 11 200 248 216 167 213 107 184 196 34 51 123 
246 11 106 55 13 40 215 175 229 15 228 93 64 
247 10 187 159 205 227 210 32 168 230 99 195 
248 11 34 245 107 83 167 123 200 192 216 51 78 
249 9 154 159 247 119 187 240 99 210 205 
250 11 11 70 50 24 117 77 137 161 2 165 130 
251 11 198 143 152 171 79 169 234 138 92 93 206 
252 11 121 7 74 195 95 223 114 230 222 238 98 
253 11 219 135 185 140 101 132 10 136 160 102 182 
254 11 67 156 182 160 190 132 101 3 185 140 219 
DEPOT_SECTION
   1
   -1
EOF
