NAME :  X-n228-kX-w45-c7.cctp
COMMENT : 	Adapted by Maziero, Usberti and Cavellucci from the Uchoa, Pecin, Pessoa, Poggi, Subramanian, and Vidal (2013)
TYPE :  CCTP
DIMENSION :    185
EDGE_WEIGHT_TYPE : 	EUC_2D	
CAPACITY : 	154
VERTICES_WITHIN_COVERAGE :  7
VERTICES_WITH_DEMAND : 	45
NODE_COORD_SECTION
1 550 574
2 177 24
3 448 476
4 934 619
5 323 122
6 430 76
7 364 9
8 988 994
9 91 636
10 938 641
11 979 764
12 4 748
13 420 164
14 294 15
15 304 89
16 362 207
17 770 344
18 67 634
19 90 44
20 712 418
21 299 6
22 997 871
23 38 695
24 830 1000
25 916 622
26 445 107
27 314 222
28 292 519
29 183 344
30 520 434
31 262 283
32 996 902
33 115 158
34 371 61
35 971 352
36 448 484
37 299 89
38 402 147
39 537 431
40 389 48
41 186 22
42 658 505
43 459 528
44 956 900
45 486 383
46 36 651
47 994 713
48 270 100
49 944 606
50 813 917
51 318 42
52 17 369
53 398 280
54 74 760
55 910 623
56 96 604
57 432 96
58 188 17
59 441 480
60 458 124
61 557 620
62 196 51
63 953 658
64 389 0
65 386 127
66 293 75
67 475 386
68 224 487
69 299 157
70 556 346
71 681 864
72 382 140
73 266 88
74 440 423
75 168 19
76 126 666
77 332 85
78 834 571
79 49 602
80 81 696
81 308 43
82 915 675
83 500 518
84 510 353
85 329 86
86 993 634
87 959 600
88 991 973
89 411 25
90 382 303
91 477 58
92 225 31
93 439 456
94 462 471
95 107 134
96 970 995
97 427 501
98 938 650
99 370 16
100 460 140
101 411 89
102 953 944
103 79 357
104 757 867
105 343 121
106 361 316
107 407 508
108 414 117
109 576 591
110 418 27
111 174 487
112 168 601
113 854 575
114 193 51
115 458 659
116 957 641
117 51 647
118 386 146
119 976 649
120 281 121
121 453 69
122 393 25
123 341 532
124 466 153
125 507 472
126 327 78
127 301 135
128 997 980
129 343 173
130 860 622
131 317 211
132 83 641
133 229 449
134 283 204
135 513 697
136 247 22
137 651 664
138 337 72
139 439 65
140 409 24
141 931 476
142 368 92
143 97 676
144 880 606
145 281 199
146 410 110
147 252 22
148 181 147
149 945 948
150 135 618
151 348 443
152 296 39
153 953 368
154 81 826
155 997 734
156 372 134
157 317 479
158 143 603
159 122 38
160 946 690
161 95 37
162 137 64
163 361 258
164 153 65
165 509 404
166 423 59
167 525 342
168 943 678
169 505 381
170 125 62
171 304 44
172 958 610
173 975 966
174 277 631
175 486 111
176 940 621
177 993 964
178 771 548
179 440 455
180 104 561
181 200 61
182 628 312
183 430 429
184 945 994
185 461 608
DEMAND_SECTION
2 79
3 57
4 88
5 54
6 92
7 84
8 61
9 100
10 61
11 69
12 78
13 54
14 59
15 60
16 61
17 85
18 67
19 96
20 57
21 57
22 52
23 80
24 60
25 71
26 93
27 59
28 88
29 77
30 50
31 98
32 53
33 54
34 99
35 10
36 9
37 8
38 9
39 7
40 10
41 9
42 2
43 3
44 3
45 7
46 8
COVERAGE_SECTION
2 7 41 75 58 114 62 181 164 
3 7 36 59 94 93 179 97 183 
4 7 176 49 25 10 55 172 87 
5 6 105 127 85 15 77 37 
6 7 139 166 57 101 121 26 146 
7 7 99 64 122 40 140 89 34 
8 6 128 96 88 177 173 184 
9 7 132 18 56 143 117 76 150 
10 7 98 116 176 4 63 25 55 
11 7 155 47 160 168 22 63 82 
12 7 23 54 80 46 154 117 143 
13 7 38 118 72 100 108 124 65 
14 7 21 152 81 171 51 147 136 
15 7 37 66 85 126 77 48 138 
16 7 129 131 27 163 118 72 13 
17 6 20 182 153 42 35 178 
18 7 132 117 9 46 79 56 143 
19 7 161 159 170 162 164 75 2 
20 7 17 42 182 178 70 39 30 
21 7 14 152 81 171 51 147 136 
22 7 32 44 102 149 177 173 88 
23 7 80 46 117 143 12 18 132 
24 6 50 184 149 102 96 173 
25 7 55 4 176 10 49 98 144 
26 7 57 60 108 6 146 100 101 
27 6 131 134 145 16 129 163 
28 6 157 123 68 133 151 174 
29 7 31 103 133 111 68 52 134 
30 7 39 165 125 169 45 67 94 
31 7 27 134 145 131 29 163 106 
32 7 22 44 102 177 173 149 88 
33 6 95 148 162 170 164 19 
34 7 40 142 138 122 99 77 126 
35 7 153 141 17 87 113 49 78 
36 7 3 59 94 97 93 179 43 
37 7 15 66 85 126 48 73 77 
38 7 118 72 13 65 108 156 146 
39 7 30 165 125 169 45 67 84 
40 7 34 122 140 89 110 166 99 
41 7 58 2 75 114 62 92 181 
42 7 20 109 178 39 61 30 125 
43 7 83 97 36 59 3 107 94 
44 6 32 102 149 22 173 177 
45 7 67 169 165 84 167 30 74 
46 7 117 18 23 132 79 9 80 
47 7 155 11 160 168 119 63 86 
48 5 73 120 37 66 15 
49 7 172 4 87 176 25 10 116 
50 6 104 24 149 71 102 44 
51 7 81 171 152 14 138 126 21 
52 7 103 29 111 180 133 33 79 
53 5 90 163 106 16 27 
54 4 80 154 12 23 
55 7 25 4 176 10 144 49 98 
56 7 9 132 150 18 180 79 158 
57 7 26 6 101 146 108 139 121 
58 7 41 2 75 114 62 92 181 
59 7 3 36 94 93 97 179 107 
60 7 100 26 124 175 57 108 146 
61 7 109 135 185 137 115 83 43 
62 7 114 181 41 2 58 92 75 
63 7 98 116 168 10 119 160 176 
64 6 99 122 7 140 89 110 
65 5 72 156 118 38 146 
66 6 37 15 73 171 48 126 
67 7 45 169 165 84 74 183 30 
68 6 133 111 28 157 123 112 
69 3 127 120 5 
70 6 167 84 169 165 45 182 
71 5 104 50 24 137 135 
72 5 118 156 65 38 108 
73 3 48 66 37 
74 7 183 179 93 67 94 3 59 
75 7 2 41 58 114 62 164 159 
76 4 143 9 150 132 
77 7 85 126 138 15 37 142 5 
78 6 113 130 144 178 55 25 
79 7 18 117 56 46 132 9 180 
80 5 143 23 76 132 117 
81 7 171 51 152 14 66 21 126 
82 7 168 98 160 10 63 55 25 
83 7 43 125 94 36 3 59 97 
84 6 167 169 45 70 67 165 
85 7 77 126 138 15 37 5 66 
86 7 119 116 172 63 87 10 176 
87 7 172 49 176 4 116 10 25 
88 6 128 177 173 8 96 102 
89 5 140 110 122 40 64 
90 5 106 53 163 16 27 
91 5 121 139 6 166 175 
92 6 136 147 62 114 181 41 
93 7 179 3 59 94 183 36 74 
94 7 3 36 59 93 179 125 97 
95 6 33 170 148 162 164 19 
96 6 8 184 173 88 128 177 
97 7 107 59 36 3 43 94 93 
98 7 10 63 116 168 176 4 82 
99 7 7 64 122 40 140 89 34 
100 7 124 60 26 175 13 108 57 
101 6 146 57 6 108 166 139 
102 6 149 173 44 177 88 184 
103 7 52 29 111 133 68 31 33 
104 4 50 71 24 44 
105 6 5 156 77 85 142 65 
106 6 90 53 163 31 27 16 
107 7 97 59 36 3 43 93 179 
108 6 146 57 101 65 38 26 
109 7 61 83 137 185 42 135 43 
110 5 89 140 122 166 40 
111 6 68 133 180 112 158 28 
112 6 158 150 56 180 76 9 
113 6 78 144 130 55 25 178 
114 7 62 181 41 2 58 92 75 
115 7 185 135 61 43 109 83 107 
116 7 63 10 98 119 176 172 4 
117 7 46 18 132 9 79 23 143 
118 6 72 38 156 65 13 108 
119 7 116 86 63 98 10 172 168 
120 4 48 127 73 37 
121 6 139 6 91 166 57 26 
122 6 140 89 40 64 99 110 
123 7 28 157 107 151 97 59 36 
124 7 100 60 13 175 26 108 38 
125 7 30 94 83 39 3 36 59 
126 7 85 77 138 15 37 66 51 
127 4 69 120 5 105 
128 6 88 177 8 173 96 184 
129 7 16 131 69 156 72 118 105 
130 6 144 113 55 25 78 4 
131 6 27 134 145 16 129 69 
132 7 9 18 117 143 56 46 76 
133 6 68 111 157 28 29 151 
134 4 145 131 27 69 
135 7 115 61 185 109 137 43 83 
136 3 147 92 14 
137 5 61 109 135 42 178 
138 7 126 77 85 34 51 15 142 
139 7 6 121 166 57 101 91 26 
140 5 89 110 122 40 64 
141 7 153 113 87 35 49 78 172 
142 5 34 77 138 105 65 
143 5 80 76 132 9 18 
144 7 130 55 25 113 4 78 176 
145 4 134 131 27 69 
146 6 108 101 57 65 26 38 
147 4 136 92 14 152 
148 2 33 95 
149 6 102 173 184 44 177 88 
150 6 158 112 56 9 76 132 
151 7 157 183 107 123 93 179 28 
152 6 171 81 51 14 21 66 
153 7 35 141 17 113 87 78 49 
154 3 54 12 80 
155 7 47 11 160 168 63 119 86 
156 5 72 65 118 105 38 
157 7 28 151 123 68 133 107 97 
158 6 150 112 56 180 9 76 
159 7 170 161 162 19 164 75 2 
160 7 168 63 82 98 10 116 119 
161 7 19 159 170 162 164 75 2 
162 7 170 164 159 161 19 75 2 
163 6 53 90 16 106 27 131 
164 7 162 170 159 114 62 181 2 
165 7 169 45 30 67 39 84 167 
166 7 139 6 101 110 121 40 89 
167 6 84 70 169 45 165 67 
168 7 160 63 82 98 10 116 119 
169 7 45 165 84 67 167 30 39 
170 7 162 159 164 19 161 75 2 
171 7 81 152 51 14 66 21 126 
172 7 87 49 176 4 116 10 86 
173 6 88 177 128 96 8 102 
174 4 28 112 123 158 
175 5 60 100 26 124 121 
176 7 4 49 10 172 25 116 87 
177 6 88 128 173 8 96 102 
178 6 78 113 130 42 144 20 
179 7 93 3 59 94 183 36 74 
180 7 56 158 150 79 112 9 18 
181 6 62 114 92 41 2 58 
182 5 70 167 84 20 169 
183 7 74 93 179 3 59 94 36 
184 6 96 173 8 149 88 102 
185 7 115 43 61 83 135 97 107 
DEPOT_SECTION
   1
   -1
EOF
