NAME :  X-n223-kX-w88-c7.cctp
COMMENT : 	Adapted by Maziero, Usberti and Cavellucci from the Uchoa, Pecin, Pessoa, Poggi, Subramanian, and Vidal (2013)
TYPE :  CCTP
DIMENSION :    183
EDGE_WEIGHT_TYPE : 	EUC_2D	
CAPACITY : 	37
VERTICES_WITHIN_COVERAGE :  7
VERTICES_WITH_DEMAND : 	88
NODE_COORD_SECTION
1 284 167
2 6 711
3 874 746
4 483 894
5 733 189
6 336 29
7 488 684
8 825 903
9 98 412
10 206 306
11 497 641
12 499 745
13 481 40
14 500 390
15 851 268
16 51 278
17 805 796
18 554 771
19 576 984
20 734 251
21 325 414
22 658 81
23 279 467
24 1000 804
25 124 148
26 554 594
27 645 168
28 4 965
29 614 267
30 939 719
31 935 800
32 109 154
33 31 554
34 960 512
35 489 840
36 377 684
37 945 808
38 720 165
39 226 34
40 73 255
41 748 344
42 774 514
43 143 893
44 168 461
45 164 493
46 631 533
47 815 191
48 833 284
49 746 100
50 252 839
51 894 472
52 944 597
53 371 28
54 552 186
55 610 541
56 578 665
57 749 655
58 898 974
59 274 972
60 520 642
61 914 373
62 610 738
63 773 602
64 752 74
65 729 90
66 464 658
67 70 36
68 964 397
69 388 732
70 185 51
71 712 144
72 45 437
73 910 738
74 956 879
75 318 560
76 592 913
77 642 564
78 907 240
79 88 186
80 399 931
81 763 180
82 626 876
83 302 689
84 970 490
85 775 574
86 653 667
87 813 999
88 5 980
89 10 249
90 557 816
91 915 680
92 131 722
93 553 946
94 45 101
95 306 260
96 627 26
97 771 398
98 869 585
99 493 282
100 312 212
101 985 939
102 194 262
103 992 698
104 834 844
105 1 651
106 271 893
107 163 503
108 579 761
109 923 502
110 2 469
111 103 284
112 63 181
113 784 300
114 826 222
115 36 51
116 231 82
117 57 79
118 62 272
119 22 273
120 106 897
121 805 267
122 150 793
123 106 129
124 212 590
125 327 114
126 7 372
127 646 219
128 1 80
129 259 282
130 961 241
131 692 298
132 47 944
133 801 272
134 72 185
135 646 242
136 189 387
137 31 339
138 730 188
139 57 143
140 824 259
141 924 237
142 57 338
143 83 189
144 51 217
145 780 316
146 305 615
147 914 190
148 111 271
149 345 763
150 127 979
151 53 950
152 751 295
153 889 183
154 739 331
155 160 970
156 176 57
157 814 179
158 27 359
159 135 211
160 154 988
161 776 143
162 117 953
163 33 181
164 710 173
165 111 270
166 105 225
167 53 438
168 82 228
169 933 313
170 53 199
171 837 214
172 752 302
173 42 300
174 804 64
175 489 208
176 683 398
177 608 548
178 788 301
179 54 335
180 221 117
181 160 835
182 769 226
183 139 843
DEMAND_SECTION
2 6
3 6
4 9
5 2
6 4
7 10
8 2
9 3
10 3
11 1
12 4
13 3
14 8
15 6
16 4
17 4
18 6
19 3
20 5
21 10
22 7
23 3
24 8
25 9
26 2
27 2
28 9
29 2
30 2
31 1
32 2
33 9
34 9
35 1
36 9
37 5
38 9
39 8
40 6
41 2
42 10
43 3
44 10
45 10
46 1
47 8
48 1
49 7
50 1
51 9
52 3
53 5
54 5
55 5
56 9
57 2
58 2
59 2
60 2
61 5
62 7
63 10
64 9
65 10
66 4
67 4
68 9
69 1
70 5
71 1
72 5
73 8
74 3
75 9
76 6
77 10
78 6
79 3
80 9
81 8
82 9
83 9
84 3
85 6
86 10
87 1
88 2
89 4
COVERAGE_SECTION
2 2 105 92 
3 7 73 30 91 31 17 37 104 
4 7 35 93 80 90 76 19 18 
5 7 138 38 164 81 71 182 20 
6 7 53 125 39 116 13 180 70 
7 7 66 11 60 12 56 18 36 
8 7 104 87 58 17 74 31 37 
9 6 167 72 44 142 158 179 
10 3 102 129 136 
11 7 60 66 7 26 56 12 36 
12 7 18 7 108 90 66 35 11 
13 7 53 6 96 54 175 125 22 
14 7 99 29 21 175 176 55 177 
15 7 48 140 121 133 114 171 78 
16 6 118 173 119 40 89 111 
17 7 104 3 8 73 31 37 57 
18 7 108 90 12 62 35 7 56 
19 7 93 76 82 4 35 90 80 
20 7 182 152 172 5 131 138 113 
21 7 23 136 75 129 95 10 44 
22 7 96 65 71 27 49 64 38 
23 7 21 75 44 45 136 107 124 
24 7 37 31 74 30 103 73 101 
25 7 32 123 79 143 134 159 139 
26 7 60 177 11 56 55 77 46 
27 7 127 164 71 135 38 138 22 
28 3 88 132 151 
29 7 135 127 131 54 27 20 99 
30 7 73 91 103 3 31 37 24 
31 7 37 24 73 3 30 74 104 
32 7 25 123 79 143 134 112 139 
33 7 110 105 72 167 107 45 9 
34 7 84 109 51 52 68 98 61 
35 7 4 90 18 12 108 93 76 
36 7 69 83 149 66 146 7 11 
37 7 31 24 74 73 30 3 104 
38 7 164 71 138 5 81 161 49 
39 7 70 116 156 180 6 125 53 
40 7 118 168 16 148 165 111 144 
41 7 154 172 145 152 113 97 178 
42 7 85 63 97 98 51 77 57 
43 5 120 183 181 162 155 
44 7 45 107 136 9 23 167 72 
45 7 107 44 9 124 136 23 167 
46 7 55 177 77 26 86 56 42 
47 6 157 171 114 81 182 161 
48 7 15 140 121 133 178 113 114 
49 7 65 64 161 71 174 38 164 
50 7 106 181 122 183 149 43 59 
51 7 109 34 84 61 68 98 42 
52 7 98 34 91 109 84 103 30 
53 7 6 125 13 39 116 180 70 
54 7 175 27 127 29 135 99 22 
55 7 177 46 77 26 56 86 60 
56 7 60 26 86 62 11 7 108 
57 7 63 85 86 98 77 42 17 
58 7 87 101 8 74 104 37 31 
59 7 106 155 160 80 50 150 43 
60 7 11 7 66 26 56 12 177 
61 7 68 169 51 48 15 109 84 
62 7 108 18 56 86 90 12 60 
63 7 85 57 42 98 77 86 46 
64 7 49 65 174 161 71 22 38 
65 7 49 64 71 161 22 38 174 
66 7 7 11 60 36 12 69 26 
67 6 115 117 94 128 123 139 
68 7 61 169 84 51 109 34 130 
69 7 36 149 83 66 7 12 11 
70 7 156 39 116 180 123 25 67 
71 7 38 164 138 5 49 65 81 
72 6 167 110 9 126 158 137 
73 7 30 3 91 31 37 103 24 
74 7 101 37 31 24 58 104 8 
75 7 146 23 124 83 36 21 107 
76 7 82 93 19 90 4 35 18 
77 7 46 177 55 26 86 56 85 
78 6 141 147 130 153 15 171 
79 7 143 134 112 170 32 168 166 
80 7 4 35 59 106 93 50 149 
81 7 5 138 161 38 182 157 47 
82 7 76 90 93 19 108 18 62 
83 7 146 36 149 69 75 124 50 
84 7 34 109 51 68 52 61 98 
85 7 63 42 57 98 77 46 86 
86 7 56 62 57 77 108 26 177 
87 7 58 8 104 101 74 17 82 
88 4 28 132 151 162 
89 7 119 16 144 118 173 40 170 
90 7 18 108 35 82 12 62 76 
91 7 30 73 3 103 52 98 31 
92 4 122 181 183 2 
93 7 19 76 4 82 35 90 80 
94 6 117 139 128 115 123 67 
95 6 100 129 10 102 125 21 
96 7 22 65 64 49 27 71 13 
97 7 41 154 145 176 172 178 113 
98 7 52 85 63 109 91 51 34 
99 7 175 14 54 29 135 127 95 
100 6 95 129 125 102 180 10 
101 7 74 58 24 37 31 8 104 
102 3 10 129 159 
103 7 30 91 73 24 52 31 37 
104 7 17 8 3 31 37 74 73 
105 3 2 33 92 
106 7 50 59 181 43 80 155 183 
107 7 45 44 124 9 136 23 167 
108 7 18 62 90 12 56 7 35 
109 7 34 51 84 52 98 68 61 
110 6 72 167 33 126 9 158 
111 4 148 165 40 118 
112 7 134 170 143 79 163 139 144 
113 7 178 145 172 133 152 121 48 
114 7 171 47 140 157 121 15 133 
115 6 117 67 128 94 139 123 
116 7 180 39 70 156 125 6 25 
117 6 94 115 67 128 139 123 
118 6 16 40 173 119 111 168 
119 7 89 16 173 118 40 144 137 
120 2 43 162 
121 7 133 140 48 178 113 15 114 
122 4 181 183 92 43 
123 7 32 25 139 79 143 134 94 
124 7 146 107 45 75 83 44 23 
125 7 6 53 100 116 180 39 95 
126 6 158 137 142 179 72 167 
127 7 135 27 29 164 138 131 5 
128 6 115 94 117 67 139 163 
129 5 95 10 102 100 136 
130 4 141 78 147 169 
131 7 154 152 172 20 41 135 29 
132 4 151 28 88 162 
133 7 121 140 178 113 48 145 15 
134 7 112 143 79 170 144 163 168 
135 7 127 29 131 27 20 164 138 
136 4 44 10 9 45 
137 6 158 179 142 126 173 16 
138 7 5 38 164 81 71 182 20 
139 6 112 94 134 163 123 32 
140 7 121 133 48 15 114 171 178 
141 6 78 130 147 153 169 15 
142 6 179 137 158 173 16 126 
143 7 79 134 112 170 168 166 144 
144 7 170 168 112 134 163 143 40 
145 7 113 178 172 152 41 154 133 
146 7 75 83 124 36 69 23 149 
147 3 153 141 78 
148 3 165 111 40 
149 7 69 36 83 50 106 146 12 
150 7 160 162 155 151 120 43 132 
151 4 132 28 88 162 
152 7 172 113 145 178 154 20 41 
153 4 147 78 171 141 
154 7 41 172 152 145 113 131 178 
155 7 160 150 162 43 120 151 59 
156 7 70 39 116 180 123 25 67 
157 5 47 171 114 81 161 
158 6 137 126 179 142 173 72 
159 5 166 79 143 168 32 
160 7 155 150 162 43 120 151 132 
161 7 81 49 157 38 47 5 71 
162 7 150 155 160 120 151 43 132 
163 7 170 112 134 144 139 143 79 
164 7 38 138 5 71 81 27 161 
165 3 148 111 40 
166 7 168 159 143 79 40 165 148 
167 6 72 9 110 126 158 142 
168 7 166 40 144 143 170 79 134 
169 7 61 78 130 141 68 15 48 
170 7 144 112 134 163 143 79 168 
171 7 114 47 157 140 15 153 121 
172 7 152 145 113 154 178 41 20 
173 6 16 118 119 179 137 142 
174 4 64 49 65 161 
175 7 54 99 29 127 27 135 13 
176 7 41 154 97 131 172 152 145 
177 7 55 46 77 26 56 86 60 
178 7 113 145 133 172 152 121 48 
179 6 142 137 158 173 16 126 
180 6 116 70 156 39 25 125 
181 5 183 122 43 120 50 
182 7 20 81 5 138 121 133 114 
183 4 181 43 122 120 
DEPOT_SECTION
   1
   -1
EOF
