NAME :  X-n204-kX-w20-c11.cctp
COMMENT : 	Adapted by Maziero, Usberti and Cavellucci from the Uchoa, Pecin, Pessoa, Poggi, Subramanian, and Vidal (2013)
TYPE :  CCTP
DIMENSION :    138
EDGE_WEIGHT_TYPE : 	EUC_2D	
CAPACITY : 	836
VERTICES_WITHIN_COVERAGE :  11
VERTICES_WITH_DEMAND : 	20
NODE_COORD_SECTION
1 500 500
2 221 542
3 320 456
4 576 827
5 679 994
6 371 461
7 961 844
8 986 379
9 175 540
10 126 517
11 329 626
12 477 890
13 191 356
14 584 917
15 308 653
16 0 7
17 273 302
18 672 381
19 235 415
20 583 149
21 672 124
22 644 646
23 400 544
24 832 999
25 842 964
26 582 965
27 939 849
28 898 605
29 639 874
30 829 350
31 7 53
32 801 92
33 57 330
34 943 0
35 833 402
36 408 940
37 635 871
38 631 630
39 733 313
40 344 619
41 628 291
42 674 92
43 668 279
44 510 811
45 49 182
46 528 946
47 271 745
48 405 872
49 622 488
50 668 978
51 939 73
52 270 446
53 586 348
54 951 167
55 992 460
56 128 590
57 746 847
58 279 459
59 656 687
60 547 792
61 517 152
62 252 618
63 184 96
64 590 47
65 348 609
66 777 112
67 528 198
68 877 457
69 812 650
70 864 723
71 584 875
72 817 233
73 439 447
74 560 994
75 818 658
76 447 951
77 969 519
78 488 401
79 287 534
80 141 22
81 29 248
82 313 643
83 294 475
84 327 361
85 332 440
86 96 492
87 62 541
88 119 370
89 342 587
90 316 552
91 90 370
92 111 575
93 321 337
94 287 454
95 364 560
96 215 488
97 344 337
98 216 497
99 133 584
100 188 327
101 175 352
102 281 702
103 247 645
104 424 677
105 438 666
106 454 547
107 96 387
108 462 532
109 343 658
110 127 368
111 245 363
112 356 488
113 259 410
114 196 492
115 303 336
116 287 528
117 285 277
118 167 560
119 368 360
120 328 277
121 355 399
122 236 522
123 345 467
124 408 363
125 250 337
126 232 388
127 362 702
128 105 507
129 245 521
130 257 647
131 423 470
132 206 467
133 241 305
134 137 433
135 210 392
136 371 627
137 219 344
138 96 427
DEMAND_SECTION
2 61
3 96
4 52
5 58
6 81
7 76
8 51
9 98
10 65
11 84
12 63
13 79
14 89
15 70
16 93
17 84
18 100
19 70
20 52
21 86
COVERAGE_SECTION
2 9 122 129 98 9 96 114 118 79 116 
3 9 85 123 83 94 58 112 6 52 121 
4 11 60 71 44 37 29 14 12 46 26 59 74 
5 11 50 26 74 14 29 37 71 24 46 57 25 
6 11 123 112 85 3 131 121 73 83 94 23 58 
7 11 27 70 25 24 57 75 69 28 5 50 29 
8 11 55 68 77 35 30 54 72 28 39 51 18 
9 11 118 2 114 10 98 99 122 96 56 92 129 
10 10 128 86 9 118 92 99 87 56 114 134 
11 11 40 82 65 15 109 89 136 90 95 130 62 
12 11 76 48 46 36 44 71 14 4 60 26 74 
13 11 101 100 137 135 126 111 125 110 133 88 19 
14 11 71 26 46 37 29 74 4 50 12 5 44 
15 11 82 11 109 40 130 102 65 103 62 136 127 
16 8 31 80 45 63 81 33 100 91 
17 11 117 133 125 115 93 120 111 137 97 84 100 
18 8 39 53 41 43 49 30 35 78 
19 10 113 126 135 52 111 132 58 94 137 13 
20 5 61 67 21 64 42 
21 10 42 20 66 64 32 43 61 67 41 72 
22 10 38 59 49 69 75 60 4 105 44 106 
23 11 95 106 108 112 89 131 65 90 6 136 40 
24 11 25 5 50 57 27 7 29 37 26 14 74 
25 11 24 27 57 5 7 50 29 37 70 26 14 
26 11 74 14 46 50 71 5 29 37 12 76 4 
27 11 7 70 25 24 57 75 69 28 5 50 29 
28 11 75 69 77 70 68 55 35 8 7 27 59 
29 11 37 71 14 4 26 50 57 60 5 46 44 
30 11 35 39 68 72 8 18 43 55 41 77 54 
31 9 16 45 80 63 81 33 91 100 88 
32 11 66 42 21 51 72 54 34 64 20 43 39 
33 10 91 107 88 110 81 138 101 134 100 13 
34 11 51 54 32 66 72 42 21 64 30 39 8 
35 11 30 68 39 8 18 55 72 77 43 28 49 
36 8 76 48 12 46 74 44 26 14 
37 11 29 71 14 4 26 50 57 60 5 46 44 
38 10 22 59 49 60 69 75 106 108 105 4 
39 8 43 18 30 41 72 35 53 21 
40 11 65 11 136 89 82 109 15 95 90 127 130 
41 6 43 53 18 39 67 20 
42 10 21 64 66 20 32 61 67 43 72 41 
43 8 41 39 18 53 20 21 72 67 
44 11 60 4 12 71 48 14 46 37 29 76 104 
45 10 81 31 33 63 16 80 91 88 100 110 
46 11 26 74 14 12 76 71 36 4 37 29 44 
47 7 102 15 130 127 103 82 109 
48 9 36 12 76 44 46 60 127 4 71 
49 9 18 38 53 22 78 108 106 73 41 
50 11 5 26 14 29 74 37 71 46 57 24 25 
51 11 34 54 32 66 72 42 21 30 8 39 43 
52 7 58 94 83 113 19 3 85 
53 5 41 18 43 78 49 
54 11 51 72 34 32 66 8 30 39 35 21 42 
55 11 77 8 68 35 28 30 69 75 72 70 54 
56 5 99 92 118 9 10 
57 11 29 37 25 50 5 71 4 70 24 14 59 
58 7 94 52 83 3 113 85 19 
59 10 22 38 60 69 4 75 57 37 29 44 
60 10 44 4 71 37 12 29 14 59 46 48 
61 2 67 20 
62 11 103 130 15 82 11 2 102 79 40 90 89 
63 5 80 45 31 16 117 
64 6 42 20 21 61 67 66 
65 11 40 89 11 136 82 109 95 15 90 23 127 
66 11 32 42 21 72 51 54 20 64 43 34 39 
67 2 61 20 
68 11 35 77 55 30 8 28 39 69 75 18 72 
69 11 75 70 28 59 22 38 68 77 57 27 7 
70 11 75 69 28 27 7 57 59 77 22 25 38 
71 11 14 4 37 29 26 46 60 44 12 74 50 
72 11 39 30 66 32 54 43 35 21 41 42 51 
73 10 131 78 6 108 124 112 123 121 106 23 
74 11 26 46 14 50 5 71 76 12 29 37 36 
75 11 69 70 28 59 22 38 57 77 68 27 7 
76 11 36 12 46 48 74 26 14 44 71 4 60 
77 11 55 68 28 8 35 69 75 30 70 39 72 
78 6 73 124 131 53 119 6 
79 8 116 90 129 122 83 2 58 89 
80 5 63 31 16 45 81 
81 10 45 33 91 88 107 110 100 101 138 13 
82 11 15 11 109 40 65 130 136 89 62 103 102 
83 8 58 94 3 52 85 123 116 79 
84 10 93 97 115 119 121 85 17 124 125 111 
85 10 3 123 6 94 121 83 112 58 52 84 
86 10 128 10 87 138 134 92 9 118 99 114 
87 6 128 86 92 10 56 99 
88 10 110 91 107 101 138 134 13 33 100 135 
89 11 65 40 95 11 90 136 82 109 23 15 79 
90 10 79 116 89 95 65 40 11 112 129 83 
91 10 107 88 110 33 138 134 101 13 100 86 
92 6 56 99 118 10 87 128 
93 10 115 97 84 119 17 120 117 121 125 111 
94 7 58 52 83 3 85 113 123 
95 11 89 23 90 65 40 136 112 11 79 116 106 
96 7 98 114 132 122 129 2 9 
97 9 93 84 119 115 120 121 124 17 117 
98 7 96 114 122 132 129 2 9 
99 5 56 92 118 9 10 
100 11 101 13 137 133 125 111 135 110 126 88 17 
101 11 13 100 137 110 135 88 126 111 125 133 107 
102 10 47 15 130 103 82 109 127 62 11 40 
103 10 130 62 15 82 102 11 109 40 47 2 
104 11 105 127 136 109 40 65 11 82 15 89 95 
105 10 104 136 127 109 40 65 11 106 89 82 
106 11 108 23 131 95 73 112 136 89 6 105 65 
107 10 91 88 110 138 134 33 101 13 86 100 
108 11 106 23 131 73 95 6 112 89 136 78 123 
109 11 82 11 15 40 136 127 65 89 102 104 130 
110 10 88 107 91 101 13 134 138 100 33 135 
111 11 125 126 137 135 113 19 13 133 115 17 100 
112 11 123 6 3 85 83 131 23 95 90 94 116 
113 10 19 126 52 111 94 135 58 83 125 3 
114 8 96 98 132 122 9 2 129 10 
115 11 93 84 97 17 125 117 111 120 119 133 121 
116 8 79 90 129 122 83 2 58 94 
117 8 17 120 133 115 125 93 97 84 
118 10 9 99 56 2 92 10 114 122 98 128 
119 9 97 124 84 121 93 115 85 120 6 
120 7 117 17 93 97 115 84 133 
121 10 119 84 85 97 6 124 3 123 93 115 
122 7 129 2 98 96 114 116 79 
123 10 112 3 6 85 83 94 58 121 52 131 
124 8 119 121 97 84 78 73 93 6 
125 11 111 137 133 17 115 126 13 100 135 117 93 
126 11 135 19 111 113 137 13 125 101 52 100 132 
127 11 109 104 15 136 82 102 11 105 40 65 47 
128 10 86 10 87 92 9 134 138 99 118 56 
129 7 122 2 98 116 79 96 114 
130 10 103 62 15 82 102 11 109 40 47 65 
131 11 73 6 112 108 23 123 106 78 85 121 3 
132 8 96 114 98 19 122 52 129 58 
133 11 17 125 137 117 100 111 115 13 101 126 93 
134 11 138 107 88 110 86 132 91 128 114 135 10 
135 11 126 19 13 111 137 113 101 125 100 132 52 
136 11 40 65 11 109 89 82 95 15 104 127 105 
137 11 13 111 125 100 101 133 126 135 17 19 113 
138 10 107 134 91 88 86 110 128 10 33 101 
DEPOT_SECTION
   1
   -1
EOF
