NAME :  X-n233-kX-w92-c7.cctp
COMMENT : 	Adapted by Maziero, Usberti and Cavellucci from the Uchoa, Pecin, Pessoa, Poggi, Subramanian, and Vidal (2013)
TYPE :  CCTP
DIMENSION :    198
EDGE_WEIGHT_TYPE : 	EUC_2D	
CAPACITY : 	631
VERTICES_WITHIN_COVERAGE :  7
VERTICES_WITH_DEMAND : 	92
NODE_COORD_SECTION
1 500 500
2 816 981
3 349 338
4 22 205
5 385 344
6 913 54
7 524 123
8 239 335
9 150 84
10 84 860
11 645 647
12 507 516
13 153 940
14 429 602
15 596 759
16 776 399
17 942 767
18 871 2
19 714 950
20 72 400
21 765 315
22 666 798
23 287 851
24 3 201
25 78 724
26 896 240
27 59 735
28 253 251
29 37 22
30 973 599
31 726 13
32 82 262
33 2 631
34 133 656
35 435 741
36 834 714
37 37 861
38 946 211
39 290 110
40 423 350
41 406 414
42 804 581
43 846 956
44 849 683
45 79 883
46 433 93
47 610 253
48 686 486
49 229 248
50 382 597
51 544 618
52 585 303
53 732 387
54 533 952
55 563 807
56 780 940
57 665 561
58 591 536
59 35 216
60 577 969
61 811 927
62 592 744
63 280 384
64 866 228
65 153 27
66 401 481
67 72 488
68 610 324
69 381 300
70 209 675
71 139 848
72 354 124
73 386 572
74 36 764
75 660 422
76 719 264
77 761 560
78 231 203
79 769 312
80 905 645
81 304 372
82 970 966
83 51 257
84 189 934
85 516 6
86 756 36
87 47 139
88 428 61
89 100 853
90 923 919
91 751 480
92 555 726
93 463 190
94 130 131
95 105 943
96 83 892
97 215 690
98 869 706
99 512 831
100 603 287
101 668 913
102 954 694
103 321 587
104 282 907
105 339 810
106 30 659
107 339 296
108 367 511
109 448 223
110 72 181
111 323 183
112 684 125
113 415 387
114 882 359
115 485 115
116 133 541
117 368 424
118 585 302
119 991 97
120 198 817
121 634 849
122 142 639
123 112 691
124 665 246
125 37 450
126 899 115
127 983 90
128 429 752
129 696 466
130 629 807
131 506 293
132 11 521
133 50 515
134 171 930
135 919 111
136 425 775
137 129 852
138 504 181
139 919 181
140 390 729
141 83 649
142 469 662
143 161 759
144 656 281
145 90 681
146 563 555
147 155 612
148 213 837
149 280 680
150 473 689
151 273 698
152 191 650
153 645 830
154 384 375
155 65 890
156 561 523
157 481 236
158 725 818
159 272 710
160 998 76
161 544 282
162 866 252
163 439 687
164 470 303
165 636 804
166 461 690
167 912 114
168 378 754
169 953 185
170 535 304
171 652 948
172 117 832
173 648 144
174 371 627
175 235 979
176 271 865
177 115 761
178 553 750
179 723 813
180 570 761
181 114 660
182 159 883
183 460 699
184 508 754
185 294 874
186 265 793
187 999 75
188 662 727
189 724 174
190 603 260
191 530 286
192 814 812
193 96 554
194 605 284
195 134 625
196 568 454
197 220 931
198 162 792
DEMAND_SECTION
2 53
3 64
4 54
5 63
6 45
7 6
8 100
9 63
10 5
11 74
12 87
13 11
14 33
15 63
16 36
17 93
18 28
19 89
20 64
21 8
22 69
23 40
24 65
25 29
26 30
27 19
28 78
29 78
30 55
31 6
32 94
33 25
34 38
35 2
36 69
37 42
38 43
39 94
40 74
41 54
42 93
43 76
44 92
45 49
46 85
47 4
48 12
49 70
50 17
51 82
52 16
53 1
54 51
55 94
56 74
57 56
58 66
59 79
60 88
61 65
62 87
63 62
64 5
65 67
66 78
67 57
68 45
69 82
70 18
71 35
72 88
73 8
74 13
75 37
76 45
77 75
78 70
79 13
80 69
81 59
82 88
83 88
84 23
85 4
86 49
87 67
88 75
89 9
90 94
91 45
92 59
93 100
COVERAGE_SECTION
2 7 43 61 56 19 90 82 101 
3 7 5 107 69 154 81 40 113 
4 7 59 24 110 83 87 32 94 
5 7 154 3 40 69 113 107 41 
6 7 135 167 126 18 127 160 119 
7 7 115 138 93 46 88 85 157 
8 7 63 81 28 49 107 3 78 
9 7 94 65 87 110 29 39 78 
10 7 89 45 96 155 172 137 37 
11 7 188 57 51 62 92 15 58 
12 7 156 146 58 196 51 66 14 
13 7 134 84 95 182 197 96 137 
14 7 50 73 174 142 163 166 150 
15 7 62 180 178 92 55 130 165 
16 7 53 21 91 79 129 114 75 
17 7 102 98 36 44 80 192 90 
18 7 6 126 135 167 86 127 31 
19 5 101 171 56 61 2 
20 7 125 67 133 132 32 83 116 
21 7 79 76 53 16 144 162 124 
22 7 165 130 153 179 121 158 188 
23 7 176 185 104 186 105 148 120 
24 7 4 59 110 83 87 32 94 
25 7 27 145 123 177 74 181 141 
26 7 64 162 38 139 169 114 126 
27 7 25 74 145 177 123 106 141 
28 7 49 78 8 107 111 3 81 
29 7 65 87 9 94 110 24 4 
30 7 80 102 98 44 42 17 36 
31 7 86 112 18 173 189 6 126 
32 7 83 59 110 4 24 87 20 
33 7 106 141 145 132 181 27 25 
34 7 122 181 195 123 147 141 145 
35 2 128 136 
36 7 44 98 80 192 17 102 42 
37 7 155 10 45 96 89 172 137 
38 6 169 139 26 64 162 167 
39 7 72 111 78 9 46 28 88 
40 7 5 113 154 69 41 164 3 
41 7 113 117 154 40 66 5 3 
42 7 77 44 91 80 36 57 98 
43 7 2 61 56 90 82 19 192 
44 7 98 36 80 102 42 17 192 
45 7 96 155 10 89 37 137 172 
46 7 88 115 72 7 93 138 85 
47 7 190 194 100 144 118 124 52 
48 7 129 91 75 57 77 58 53 
49 7 28 78 8 111 107 63 81 
50 4 73 174 14 103 
51 7 146 142 58 156 150 11 12 
52 7 118 100 194 68 161 190 170 
53 7 16 21 75 79 129 91 48 
54 3 60 171 99 
55 7 180 99 15 178 130 62 165 
56 6 61 2 19 43 101 171 
57 7 48 58 11 77 129 146 156 
58 7 156 146 57 196 12 51 48 
59 7 4 24 83 110 32 87 94 
60 4 54 171 101 121 
61 7 56 43 2 19 90 192 158 
62 7 15 180 178 92 55 188 130 
63 7 81 8 3 117 154 107 5 
64 7 162 26 139 38 169 126 167 
65 7 9 94 29 87 39 110 78 
66 7 108 117 41 73 113 154 12 
67 6 133 125 132 193 116 20 
68 7 52 118 100 194 144 190 47 
69 7 107 5 3 40 154 164 113 
70 7 97 152 151 149 159 122 34 
71 7 137 172 89 182 10 198 120 
72 7 39 111 46 88 93 115 109 
73 6 50 14 174 108 103 66 
74 7 27 25 177 37 145 106 123 
75 7 129 48 53 196 91 68 16 
76 7 124 144 21 79 189 47 190 
77 7 42 91 57 48 129 11 44 
78 7 49 28 111 39 94 8 107 
79 7 21 76 53 16 162 144 114 
80 7 44 102 98 30 36 42 17 
81 7 63 3 8 154 117 107 5 
82 7 90 43 2 61 56 17 192 
83 7 32 59 4 24 110 87 20 
84 7 134 197 13 182 175 95 104 
85 7 88 115 7 46 138 93 173 
86 7 31 112 18 189 173 6 126 
87 7 110 4 24 59 94 9 29 
88 7 46 115 72 85 7 93 138 
89 7 10 172 137 45 71 96 155 
90 7 82 43 61 2 56 17 192 
91 7 129 48 77 16 53 75 42 
92 7 178 180 62 15 184 55 150 
93 6 109 138 157 115 7 46 
94 7 9 110 87 65 78 59 4 
95 7 13 96 45 155 134 182 84 
96 7 45 155 10 89 37 95 137 
97 7 70 152 151 159 149 143 34 
98 7 44 36 80 102 17 192 42 
99 1 55 
100 7 194 118 52 190 47 68 144 
101 4 171 19 121 153 
102 7 80 17 98 30 44 36 192 
103 3 50 174 73 
104 7 185 176 23 197 175 84 148 
105 4 23 168 186 185 
106 7 33 141 145 25 27 181 123 
107 7 69 3 5 81 154 28 40 
108 7 66 73 50 117 103 41 14 
109 6 157 93 138 164 131 69 
110 7 87 59 4 24 94 83 32 
111 7 72 39 78 28 49 107 69 
112 7 173 189 86 31 124 76 47 
113 7 41 154 40 5 117 3 69 
114 7 162 16 26 79 21 64 53 
115 7 7 46 138 93 88 85 109 
116 3 193 147 67 
117 7 41 154 113 66 5 81 108 
118 7 52 100 194 68 161 190 170 
119 6 127 160 187 135 167 6 
120 7 148 198 71 143 186 137 182 
121 4 153 130 165 22 
122 6 195 34 147 181 152 123 
123 7 145 181 34 25 141 122 27 
124 7 144 47 76 190 194 100 189 
125 6 67 20 133 132 193 116 
126 7 167 135 6 139 127 169 119 
127 6 119 160 187 135 167 6 
128 2 35 136 
129 7 48 75 91 53 57 16 77 
130 5 165 153 22 121 15 
131 6 191 170 164 161 157 52 
132 6 133 67 125 193 33 116 
133 5 67 132 193 125 116 
134 7 84 13 182 197 95 175 71 
135 7 167 126 6 127 139 119 169 
136 2 128 35 
137 7 71 172 89 182 10 45 96 
138 6 93 157 7 115 109 191 
139 7 169 38 26 167 126 135 64 
140 4 168 128 35 136 
141 7 145 181 34 123 106 195 122 
142 7 150 166 183 163 14 35 51 
143 7 198 177 120 123 172 97 25 
144 7 124 194 100 47 190 68 76 
145 7 123 181 141 25 34 27 106 
146 7 156 58 51 12 196 57 11 
147 4 195 122 34 152 
148 7 120 176 186 198 182 23 71 
149 4 151 159 97 70 
150 7 166 183 142 163 35 184 128 
151 4 159 149 97 70 
152 6 70 97 122 147 34 195 
153 4 121 130 165 22 
154 7 5 113 41 40 3 117 69 
155 7 45 96 10 37 89 95 137 
156 7 146 58 12 196 51 57 48 
157 6 109 93 138 131 164 191 
158 6 179 22 153 192 165 121 
159 5 151 149 97 70 186 
160 6 187 127 119 135 6 167 
161 6 191 170 131 52 118 100 
162 7 64 26 139 38 114 169 79 
163 7 166 183 150 142 35 140 128 
164 7 131 191 170 40 157 161 109 
165 5 130 153 22 121 15 
166 7 183 150 163 142 35 128 184 
167 7 135 126 6 139 127 119 169 
168 4 140 128 136 35 
169 6 38 139 26 135 167 126 
170 6 191 161 131 52 118 164 
171 4 101 19 60 121 
172 7 137 71 89 10 198 45 182 
173 7 112 189 124 47 190 7 144 
174 3 50 73 14 
175 7 197 84 134 104 13 176 185 
176 7 23 185 104 148 186 197 105 
177 7 143 25 198 27 123 172 74 
178 6 180 92 62 15 184 55 
179 6 158 22 153 165 192 130 
180 7 178 15 62 92 55 184 130 
181 7 34 123 145 141 122 195 147 
182 7 71 137 134 13 84 89 172 
183 6 166 150 163 142 35 128 
184 3 178 92 180 
185 7 23 176 104 105 186 148 197 
186 7 23 148 120 176 105 159 185 
187 6 160 127 119 135 6 167 
188 7 22 62 15 165 11 130 180 
189 7 112 173 76 124 144 47 86 
190 6 47 194 100 118 52 144 
191 6 161 170 131 118 52 164 
192 7 158 179 36 61 98 56 44 
193 4 116 133 67 195 
194 7 100 190 118 52 47 68 144 
195 5 122 147 34 181 141 
196 7 156 58 12 75 146 48 129 
197 7 84 134 175 104 13 182 176 
198 7 143 120 177 172 71 137 148 
DEPOT_SECTION
   1
   -1
EOF
