NAME :  X-n204-kX-w81-c9.cctp
COMMENT : 	Adapted by Maziero, Usberti and Cavellucci from the Uchoa, Pecin, Pessoa, Poggi, Subramanian, and Vidal (2013)
TYPE :  CCTP
DIMENSION :    198
EDGE_WEIGHT_TYPE : 	EUC_2D	
CAPACITY : 	836
VERTICES_WITHIN_COVERAGE :  9
VERTICES_WITH_DEMAND : 	81
NODE_COORD_SECTION
1 500 500
2 221 542
3 320 456
4 576 827
5 679 994
6 371 461
7 961 844
8 986 379
9 175 540
10 126 517
11 329 626
12 477 890
13 191 356
14 584 917
15 308 653
16 0 7
17 273 302
18 672 381
19 235 415
20 583 149
21 672 124
22 644 646
23 400 544
24 832 999
25 842 964
26 582 965
27 544 311
28 429 2
29 939 849
30 898 605
31 363 130
32 639 874
33 323 201
34 829 350
35 7 53
36 801 92
37 57 330
38 943 0
39 579 275
40 833 402
41 408 940
42 635 871
43 631 630
44 733 313
45 344 619
46 628 291
47 674 92
48 74 602
49 38 354
50 473 107
51 668 279
52 510 811
53 366 16
54 49 182
55 528 946
56 271 745
57 405 872
58 65 893
59 622 488
60 668 978
61 939 73
62 556 632
63 270 446
64 586 348
65 951 167
66 385 308
67 247 997
68 992 460
69 128 590
70 746 847
71 279 459
72 428 183
73 364 167
74 656 687
75 547 792
76 517 152
77 252 618
78 464 284
79 184 96
80 457 269
81 590 47
82 348 609
83 777 112
84 528 198
85 877 457
86 812 650
87 864 723
88 584 875
89 817 233
90 186 909
91 439 447
92 560 994
93 818 658
94 134 903
95 447 951
96 969 519
97 488 401
98 287 534
99 399 181
100 141 22
101 29 248
102 313 643
103 20 974
104 294 475
105 439 214
106 327 361
107 79 657
108 110 653
109 332 440
110 242 943
111 96 492
112 62 541
113 478 199
114 267 486
115 184 686
116 119 370
117 342 587
118 316 552
119 90 370
120 417 225
121 111 575
122 458 221
123 321 337
124 287 454
125 364 560
126 121 609
127 215 488
128 351 232
129 84 585
130 14 718
131 344 337
132 233 472
133 216 497
134 133 584
135 188 327
136 175 352
137 281 702
138 247 645
139 215 837
140 424 677
141 438 666
142 454 547
143 354 242
144 96 387
145 462 532
146 25 980
147 343 658
148 127 368
149 100 613
150 245 363
151 356 488
152 259 410
153 480 270
154 196 492
155 303 336
156 243 888
157 453 226
158 32 993
159 287 528
160 492 238
161 442 195
162 17 930
163 285 277
164 75 932
165 167 560
166 368 360
167 328 277
168 355 399
169 53 641
170 236 522
171 421 346
172 308 118
173 345 467
174 408 363
175 101 658
176 419 188
177 36 952
178 250 337
179 232 388
180 498 308
181 18 945
182 362 702
183 429 256
184 105 507
185 245 521
186 576 280
187 269 485
188 257 647
189 106 618
190 269 505
191 423 470
192 206 467
193 228 795
194 241 305
195 210 392
196 371 627
197 219 344
198 96 427
DEMAND_SECTION
2 61
3 96
4 52
5 58
6 81
7 76
8 51
9 98
10 65
11 84
12 63
13 79
14 89
15 70
16 93
17 84
18 100
19 70
20 52
21 86
22 69
23 50
24 59
25 79
26 53
27 66
28 65
29 70
30 74
31 86
32 77
33 83
34 50
35 76
36 62
37 73
38 54
39 100
40 99
41 59
42 73
43 74
44 97
45 63
46 83
47 97
48 81
49 61
50 91
51 78
52 87
53 56
54 81
55 91
56 62
57 53
58 82
59 77
60 94
61 99
62 92
63 76
64 83
65 89
66 61
67 53
68 94
69 84
70 55
71 54
72 61
73 86
74 53
75 60
76 55
77 82
78 86
79 60
80 71
81 98
82 67
COVERAGE_SECTION
2 9 170 185 133 9 127 154 165 190 98 
3 9 109 173 104 124 71 151 6 63 187 
4 9 75 88 52 42 32 14 12 55 26 
5 9 60 26 92 14 32 42 88 24 55 
6 9 173 151 109 3 191 168 91 104 124 
7 9 29 87 25 24 70 93 86 30 5 
8 9 68 85 96 40 34 65 89 30 44 
9 9 165 2 154 10 133 134 170 127 69 
10 9 184 111 9 165 121 134 112 69 154 
11 9 45 102 82 15 147 117 196 118 125 
12 9 95 57 55 41 52 88 14 4 75 
13 9 136 135 197 195 179 150 178 148 194 
14 9 88 26 55 42 32 92 4 60 12 
15 9 102 11 147 45 188 137 82 138 77 
16 9 35 100 54 79 101 172 37 49 53 
17 9 163 194 178 155 123 167 150 197 131 
18 9 44 64 46 51 59 186 39 27 34 
19 9 152 179 195 63 150 132 192 71 124 
20 9 76 84 21 81 47 113 50 39 160 
21 9 47 20 83 81 36 51 76 84 46 
22 9 43 74 62 59 86 93 75 4 141 
23 9 125 142 145 151 117 191 82 118 6 
24 9 25 5 60 70 29 7 32 42 26 
25 9 24 29 70 5 7 60 32 42 87 
26 9 92 14 55 60 88 5 32 42 12 
27 9 186 180 39 64 153 78 46 160 80 
28 9 53 50 31 81 172 76 73 72 99 
29 9 7 87 25 24 70 93 86 30 5 
30 9 93 86 96 87 85 68 40 8 7 
31 9 73 172 99 33 176 72 161 128 120 
32 9 42 88 14 4 26 60 70 75 5 
33 9 128 143 73 167 99 31 172 163 120 
34 9 40 44 85 89 8 18 51 68 46 
35 9 16 54 100 79 101 37 49 172 119 
36 9 83 47 21 61 89 65 38 81 20 
37 8 49 119 144 116 148 101 198 136 
38 9 61 65 36 83 89 47 21 81 34 
39 9 186 27 46 64 180 51 84 160 153 
40 9 34 85 44 8 18 68 89 96 51 
41 9 95 57 12 55 92 52 110 67 156 
42 9 32 88 14 4 26 60 70 75 5 
43 9 22 74 62 59 75 86 93 142 145 
44 9 51 18 34 46 89 40 64 39 186 
45 9 82 11 196 117 102 147 15 125 118 
46 9 51 39 186 64 27 18 44 180 84 
47 9 21 81 83 20 36 76 84 51 89 
48 9 129 149 189 169 121 126 69 107 108 
49 8 37 119 144 116 148 198 101 136 
50 9 76 72 113 161 176 99 84 31 105 
51 9 46 44 39 186 18 64 27 20 21 
52 9 75 4 12 88 57 14 55 42 32 
53 9 28 31 172 50 73 99 72 176 33 
54 9 101 35 37 79 49 16 100 119 116 
55 9 26 92 14 12 95 88 41 4 42 
56 9 137 193 15 188 182 138 115 139 102 
57 9 41 12 95 52 55 75 156 182 4 
58 9 164 162 177 94 181 103 146 158 90 
59 9 18 43 64 62 22 97 145 142 91 
60 9 5 26 14 32 92 42 88 55 70 
61 9 38 65 36 83 89 47 21 34 8 
62 9 43 22 74 141 142 145 140 59 75 
63 9 71 124 104 152 187 114 132 19 3 
64 9 27 186 46 39 18 180 51 97 153 
65 9 61 89 38 36 83 8 34 44 40 
66 9 131 171 166 174 167 183 123 143 106 
67 9 110 90 156 94 139 41 164 57 193 
68 9 96 8 85 40 30 34 86 93 89 
69 9 134 126 121 149 189 129 165 48 108 
70 9 32 42 25 60 5 88 4 87 24 
71 9 124 63 104 187 114 3 190 132 152 
72 9 176 161 99 105 120 122 157 113 73 
73 9 31 99 33 176 72 128 172 143 120 
74 9 22 43 62 75 86 4 93 70 42 
75 9 52 4 88 42 12 32 14 74 55 
76 9 84 113 50 20 161 160 122 72 157 
77 9 138 188 15 102 11 2 137 98 45 
78 9 80 153 180 183 160 157 122 105 120 
79 9 100 172 54 33 31 35 73 53 16 
80 9 78 153 183 157 160 122 180 105 120 
81 9 47 20 21 76 50 84 28 113 83 
82 9 45 117 11 196 102 147 125 15 118 
83 9 36 47 21 89 61 65 20 81 51 
84 9 76 113 160 20 122 157 161 153 105 
85 9 40 96 68 34 8 30 44 86 93 
86 9 93 87 30 74 22 43 85 96 70 
87 9 93 86 30 29 7 70 74 96 22 
88 9 14 4 42 32 26 55 75 52 12 
89 9 44 34 83 36 65 51 40 21 46 
90 9 94 156 110 139 67 164 193 58 177 
91 9 191 97 6 145 174 151 173 168 142 
92 9 26 55 14 60 5 88 95 12 32 
93 9 86 87 30 74 22 43 70 96 85 
94 9 90 164 58 139 156 177 110 162 181 
95 9 41 12 55 57 92 26 14 52 88 
96 9 68 85 30 8 40 86 93 34 87 
97 9 91 171 174 180 191 27 64 78 166 
98 9 159 118 190 185 114 170 187 104 2 
99 9 176 72 73 161 120 105 31 128 157 
100 9 79 35 16 54 172 53 31 101 33 
101 9 54 37 49 119 116 144 148 135 136 
102 9 15 11 147 45 82 188 196 117 77 
103 9 146 158 177 181 162 164 58 94 90 
104 9 71 124 187 114 3 63 190 109 173 
105 9 157 161 122 120 72 176 113 183 99 
106 9 123 131 155 166 168 66 109 17 174 
107 6 175 108 169 189 149 48 
108 7 175 107 189 149 126 169 48 
109 9 3 173 6 124 168 104 151 71 63 
110 9 67 156 90 139 94 193 41 164 57 
111 8 184 10 112 198 121 9 129 165 
112 9 129 184 111 121 48 10 149 69 134 
113 9 122 161 157 160 105 84 72 176 76 
114 9 187 190 104 71 132 124 63 185 159 
115 6 138 108 188 175 77 137 
116 8 148 119 144 136 198 13 37 135 
117 9 82 45 125 11 118 196 102 147 23 
118 9 98 159 117 125 82 190 45 11 151 
119 8 144 116 148 37 49 198 136 13 
120 9 105 183 157 176 161 122 72 99 80 
121 9 69 134 129 126 149 189 48 165 10 
122 9 157 105 113 161 160 120 183 72 80 
123 9 155 131 106 166 17 167 66 163 168 
124 9 71 63 104 3 187 114 109 152 190 
125 9 117 23 118 82 45 196 151 11 98 
126 9 189 69 149 134 121 129 108 48 175 
127 9 133 154 192 132 170 185 114 2 187 
128 9 143 33 167 73 120 99 163 176 183 
129 9 48 121 149 189 69 126 112 134 169 
130 6 169 107 175 108 48 149 
131 9 123 106 166 155 66 167 168 174 171 
132 9 127 192 133 114 187 154 63 71 190 
133 9 127 154 132 170 192 185 2 114 187 
134 9 69 121 126 165 189 149 129 9 48 
135 9 136 13 197 194 178 150 195 148 179 
136 9 13 135 197 148 195 116 179 150 178 
137 9 56 15 188 138 102 147 182 77 11 
138 9 188 77 15 102 137 115 11 147 45 
139 8 193 156 90 94 56 110 137 115 
140 9 141 182 196 147 45 82 11 102 15 
141 9 140 196 182 147 45 82 11 142 62 
142 9 145 23 191 125 91 151 196 117 6 
143 9 128 167 33 120 66 73 99 183 163 
144 8 119 116 148 198 49 37 136 13 
145 9 142 23 191 91 125 6 151 117 196 
146 9 103 158 177 181 162 164 58 94 90 
147 9 102 11 15 45 196 182 82 117 137 
148 8 116 144 119 136 13 198 135 37 
149 9 189 126 48 129 69 121 108 134 175 
150 9 178 179 197 195 152 19 13 194 155 
151 9 173 6 3 109 104 191 23 125 118 
152 9 19 179 63 150 124 195 71 132 104 
153 9 78 80 160 180 157 183 122 105 113 
154 9 127 133 192 132 170 9 2 185 114 
155 9 123 106 131 17 178 163 150 167 166 
156 9 110 139 90 193 67 94 56 57 41 
157 9 122 105 161 120 113 183 160 80 72 
158 9 146 103 177 181 162 164 58 94 90 
159 9 98 190 118 185 114 187 170 104 2 
160 9 153 122 113 157 80 78 84 105 161 
161 9 72 105 176 122 157 113 120 99 183 
162 9 181 177 103 146 164 58 158 94 90 
163 9 17 167 194 155 178 123 143 128 131 
164 9 58 177 162 181 94 103 146 158 90 
165 9 9 134 69 2 121 10 126 154 170 
166 9 131 174 106 168 123 66 171 155 109 
167 9 163 143 128 17 123 131 155 66 33 
168 9 166 106 109 131 6 174 3 173 123 
169 8 107 48 175 149 108 189 129 126 
170 9 185 2 133 190 127 114 132 154 187 
171 9 174 66 166 78 131 80 168 180 97 
172 9 31 73 33 99 53 128 79 176 143 
173 9 151 3 6 109 104 124 71 168 63 
174 9 171 166 66 168 131 106 97 91 123 
175 7 108 107 189 149 169 126 48 
176 9 72 99 161 105 120 122 157 73 113 
177 9 181 103 162 146 158 164 58 94 90 
178 9 150 197 194 17 155 179 13 135 195 
179 9 195 19 150 152 197 13 178 136 63 
180 9 78 153 27 80 160 186 171 183 39 
181 9 162 177 103 146 158 164 58 94 90 
182 9 147 140 15 196 102 137 11 141 45 
183 9 80 120 157 105 78 122 153 161 160 
184 8 111 10 112 121 9 129 198 134 
185 9 170 190 2 133 114 159 187 98 127 
186 9 39 27 46 64 180 51 160 84 153 
187 9 114 190 104 71 124 132 63 185 159 
188 9 138 77 15 102 137 11 115 147 45 
189 9 149 126 108 48 69 129 175 121 134 
190 9 114 187 159 185 98 170 104 71 132 
191 9 91 6 151 145 23 173 142 97 109 
192 9 127 132 154 133 19 170 114 187 63 
193 8 139 56 156 137 115 90 94 110 
194 9 17 178 197 163 135 150 155 13 136 
195 9 179 19 13 150 197 152 136 178 135 
196 9 45 82 11 147 117 102 125 15 140 
197 9 13 150 178 135 136 194 179 195 17 
198 8 144 119 116 111 148 184 49 10 
DEPOT_SECTION
   1
   -1
EOF
