NAME :  X-n275-kX-w27-c11.cctp
COMMENT : 	Adapted by Maziero, Usberti and Cavellucci from the Uchoa, Pecin, Pessoa, Poggi, Subramanian, and Vidal (2013)
TYPE :  CCTP
DIMENSION :    185
EDGE_WEIGHT_TYPE : 	EUC_2D	
CAPACITY : 	10
VERTICES_WITHIN_COVERAGE :  11
VERTICES_WITH_DEMAND : 	27
NODE_COORD_SECTION
1 409 418
2 378 220
3 469 585
4 91 695
5 351 130
6 424 101
7 70 693
8 324 133
9 367 215
10 218 906
11 90 688
12 417 223
13 42 693
14 134 482
15 594 488
16 431 269
17 383 606
18 100 597
19 85 697
20 378 218
21 196 640
22 213 635
23 520 537
24 509 542
25 388 549
26 476 583
27 409 565
28 155 828
29 60 690
30 415 269
31 127 578
32 372 120
33 578 421
34 116 716
35 107 719
36 117 677
37 363 223
38 376 197
39 397 52
40 107 727
41 64 671
42 96 659
43 129 627
44 45 581
45 403 585
46 70 731
47 424 608
48 436 607
49 54 687
50 342 544
51 595 525
52 508 336
53 338 90
54 575 485
55 335 179
56 1 727
57 571 436
58 15 696
59 324 538
60 523 519
61 620 500
62 217 427
63 206 622
64 602 506
65 486 347
66 161 660
67 528 559
68 386 460
69 334 243
70 219 610
71 70 560
72 334 161
73 589 420
74 478 509
75 464 167
76 18 327
77 451 63
78 406 145
79 213 707
80 95 635
81 550 573
82 172 811
83 119 788
84 348 210
85 591 428
86 436 611
87 416 528
88 100 830
89 82 693
90 522 281
91 426 244
92 529 618
93 153 648
94 124 719
95 419 70
96 12 653
97 433 169
98 370 686
99 811 620
100 204 673
101 57 666
102 627 541
103 332 114
104 497 575
105 469 605
106 49 648
107 547 588
108 192 805
109 370 621
110 380 129
111 402 577
112 255 442
113 322 693
114 502 313
115 431 473
116 106 701
117 443 175
118 390 225
119 194 867
120 170 621
121 427 911
122 374 566
123 388 263
124 82 671
125 451 565
126 91 833
127 292 609
128 466 592
129 561 488
130 131 779
131 186 699
132 567 525
133 635 481
134 404 512
135 91 725
136 483 196
137 128 824
138 97 705
139 381 215
140 386 164
141 497 137
142 100 611
143 414 525
144 79 643
145 297 164
146 454 197
147 480 310
148 390 236
149 605 460
150 709 391
151 426 192
152 399 684
153 107 853
154 376 510
155 105 676
156 682 508
157 236 173
158 59 713
159 430 559
160 85 479
161 171 400
162 430 237
163 201 588
164 478 593
165 291 132
166 464 582
167 669 494
168 298 173
169 438 567
170 402 206
171 364 561
172 415 580
173 87 693
174 132 831
175 574 481
176 19 707
177 486 590
178 399 205
179 514 246
180 400 617
181 497 582
182 58 721
183 332 614
184 190 878
185 346 218
DEMAND_SECTION
2 1
3 1
4 1
5 1
6 1
7 1
8 1
9 1
10 1
11 1
12 1
13 1
14 1
15 1
16 1
17 1
18 1
19 1
20 1
21 1
22 1
23 1
24 1
25 1
26 1
27 1
28 1
COVERAGE_SECTION
2 11 20 139 9 118 37 148 38 178 170 84 185 
3 11 166 26 128 164 177 105 125 181 104 169 48 
4 11 173 19 11 89 138 116 7 155 124 35 135 
5 11 32 103 8 110 72 53 140 55 78 165 145 
6 10 95 77 78 110 32 39 97 140 117 75 
7 11 29 89 19 49 173 4 11 41 158 124 13 
8 11 103 5 72 165 145 53 55 168 32 110 140 
9 11 37 20 2 139 38 84 185 118 148 178 170 
10 7 184 119 28 108 82 174 137 
11 11 173 4 89 19 138 124 155 7 116 36 29 
12 11 162 91 170 178 118 148 151 139 2 20 146 
13 11 49 29 158 58 176 7 41 101 182 89 19 
14 11 160 161 31 62 71 18 163 112 44 142 120 
15 11 54 64 175 61 149 129 51 133 132 57 85 
16 9 30 91 162 123 12 148 118 147 170 
17 9 109 180 45 111 47 122 172 27 171 
18 11 142 31 80 43 71 144 44 42 106 93 120 
19 11 173 89 4 11 138 7 116 29 124 135 155 
20 11 2 139 9 118 37 38 148 178 170 84 185 
21 9 22 63 120 100 70 66 93 163 131 
22 10 63 21 70 100 120 163 66 93 131 79 
23 11 24 60 67 104 81 132 74 181 107 177 26 
24 11 23 67 60 104 181 74 81 26 177 3 107 
25 11 122 27 171 111 87 143 45 134 154 172 159 
26 11 3 164 166 177 128 181 104 105 125 169 48 
27 10 111 172 45 159 25 169 122 87 143 125 
28 10 174 82 137 108 83 153 88 119 130 184 
29 11 49 7 13 41 89 158 101 19 173 124 11 
30 8 16 91 123 162 148 12 118 2 
31 11 18 142 43 71 120 80 93 163 144 44 42 
32 10 110 5 103 78 53 140 8 6 72 95 
33 9 73 85 57 149 175 54 15 129 133 
34 10 35 94 40 116 138 135 4 19 173 11 
35 10 40 34 94 135 138 116 4 19 173 11 
36 8 155 116 42 11 4 138 173 124 
37 11 9 2 20 185 84 139 118 38 148 69 178 
38 11 139 9 20 2 178 170 37 84 118 140 185 
39 11 95 77 6 53 32 110 103 5 78 8 140 
40 9 35 34 135 94 138 116 4 19 46 
41 11 101 124 29 49 7 106 89 11 13 144 173 
42 11 124 155 144 80 36 11 41 173 4 89 19 
43 10 93 142 80 120 18 42 66 31 36 144 
44 11 71 18 142 106 144 80 96 31 101 41 42 
45 9 111 172 27 17 47 180 122 159 25 
46 6 182 158 135 19 40 138 
47 8 48 86 180 172 45 111 17 169 
48 8 86 47 105 128 172 180 166 3 
49 11 29 13 7 41 101 158 89 124 19 173 182 
50 11 59 171 122 25 154 111 27 134 183 45 17 
51 11 64 132 61 102 15 54 175 129 133 81 149 
52 7 114 65 147 90 179 16 33 
53 11 103 5 8 32 110 165 39 72 95 145 6 
54 11 175 129 15 64 149 132 51 61 57 85 133 
55 11 72 84 168 145 185 38 8 9 5 37 140 
56 5 176 58 13 182 158 
57 10 33 85 73 149 175 54 129 15 64 133 
58 8 176 13 56 49 96 29 158 182 
59 10 50 171 122 154 25 183 127 134 111 27 
60 11 23 24 67 132 74 129 81 54 104 175 181 
61 11 64 133 15 51 102 149 54 167 175 132 129 
62 3 112 161 14 
63 10 22 70 21 163 120 100 66 93 43 131 
64 11 61 15 51 54 175 132 133 102 129 149 167 
65 7 52 147 114 90 16 30 179 
66 6 93 21 120 100 43 131 
67 11 23 24 81 104 107 181 60 132 177 26 92 
68 6 115 154 134 143 87 25 
69 5 185 37 84 9 2 
70 11 63 22 163 21 120 100 127 93 66 43 131 
71 11 44 18 142 31 80 160 144 43 106 14 42 
72 11 55 8 5 145 168 103 84 140 165 38 32 
73 10 85 33 57 149 175 54 15 129 133 61 
74 11 24 60 23 115 125 87 143 104 159 169 67 
75 8 117 97 146 136 141 151 78 12 
76 5 160 161 14 62 71 
77 10 95 6 39 141 78 32 110 75 97 117 
78 10 140 110 97 32 6 117 151 5 38 178 
79 4 131 100 21 66 
80 11 144 42 142 43 18 124 155 36 41 106 101 
81 11 107 67 23 92 24 132 104 181 60 51 177 
82 9 108 28 174 137 130 83 119 184 88 
83 6 130 137 174 88 126 28 
84 10 185 9 37 20 38 2 139 55 69 118 
85 10 73 33 57 149 175 54 15 129 133 61 
86 8 48 47 105 128 180 172 166 3 
87 11 143 134 159 25 27 154 169 111 125 172 115 
88 7 126 153 137 174 83 28 130 
89 11 19 173 4 11 7 138 29 124 116 41 49 
90 9 179 114 147 52 65 16 136 162 91 
91 11 162 12 16 30 148 118 123 170 178 151 2 
92 11 107 181 81 177 104 164 67 105 26 3 128 
93 7 66 43 120 21 36 155 100 
94 7 34 35 40 116 138 135 4 
95 10 39 6 77 32 110 78 53 5 103 97 
96 11 106 58 101 13 49 176 41 29 144 7 124 
97 9 117 151 75 146 78 140 170 178 12 
98 5 152 113 109 180 17 
99 9 156 167 102 133 61 51 64 150 15 
100 8 131 21 79 22 66 63 93 120 
101 11 41 106 49 29 124 7 13 144 89 11 42 
102 11 51 61 64 133 15 132 167 156 54 175 81 
103 11 8 5 53 32 165 72 110 145 55 168 140 
104 11 181 177 26 164 3 166 24 67 128 105 23 
105 9 128 164 3 26 177 166 48 86 181 
106 11 101 41 144 96 49 124 29 13 42 80 7 
107 11 81 67 92 181 104 23 24 177 132 164 26 
108 6 82 28 119 174 130 137 
109 9 17 180 183 45 111 122 47 171 172 
110 10 32 5 78 140 103 6 8 72 53 97 
111 10 45 172 27 122 25 159 17 169 47 180 
112 4 62 161 59 14 
113 6 98 152 183 109 127 17 
114 8 147 52 65 90 179 16 30 91 
115 8 68 134 143 87 74 154 159 25 
116 11 138 4 34 35 11 19 173 89 94 155 36 
117 9 97 75 151 146 136 78 170 178 12 
118 11 148 2 139 20 170 178 9 12 37 38 123 
119 8 184 10 28 82 108 174 137 153 
120 10 21 93 63 66 43 22 163 70 31 100 
121 1 10 
122 11 171 25 111 27 45 50 17 172 109 154 159 
123 8 148 30 118 91 16 2 20 37 
124 11 41 42 11 89 173 155 7 101 4 19 144 
125 11 169 166 159 3 26 128 164 172 27 177 105 
126 6 88 153 137 174 83 28 
127 11 183 70 59 109 50 22 63 171 113 17 122 
128 11 3 166 164 26 105 177 125 181 48 104 86 
129 11 54 175 15 132 64 60 51 149 57 61 23 
130 6 83 137 82 174 28 40 
131 5 79 100 66 21 93 
132 11 51 129 64 54 60 175 15 23 81 67 61 
133 11 61 167 149 64 15 156 51 54 102 175 85 
134 11 143 87 154 25 115 27 159 68 122 171 111 
135 8 40 35 138 46 34 116 19 4 
136 9 146 75 117 97 151 179 141 162 12 
137 8 174 28 88 153 83 126 130 82 
138 11 116 4 19 173 35 11 89 135 34 40 7 
139 11 20 2 118 9 38 37 178 148 170 84 185 
140 10 78 38 110 178 170 32 97 5 151 139 
141 8 75 136 117 97 146 6 77 151 
142 11 18 80 43 144 31 42 71 44 106 124 93 
143 11 87 134 25 159 27 154 169 111 125 115 172 
144 11 80 42 124 106 41 101 142 155 11 89 7 
145 9 168 165 72 8 55 103 157 5 84 
146 9 117 151 136 75 97 12 162 170 91 
147 9 114 65 52 90 16 179 30 91 162 
148 11 118 2 20 139 123 12 37 9 170 178 91 
149 11 15 85 133 175 54 57 61 73 64 33 129 
150 10 167 133 156 73 85 149 33 61 57 15 
151 10 97 117 146 170 178 12 75 162 118 140 
152 5 98 180 109 113 17 
153 7 88 126 174 137 28 83 82 
154 11 134 25 143 87 50 68 171 122 59 27 115 
155 10 36 11 42 4 124 116 173 19 89 138 
156 10 167 133 61 102 64 51 15 149 54 175 
157 6 145 168 165 8 55 72 
158 9 182 46 7 29 13 49 89 19 135 
159 10 169 27 125 172 111 87 45 143 166 25 
160 11 14 71 31 44 161 18 142 62 43 80 163 
161 4 62 14 112 160 
162 11 91 12 16 30 148 118 170 151 178 146 123 
163 11 70 63 120 22 21 31 93 43 66 100 127 
164 11 177 26 3 128 105 166 181 104 125 48 86 
165 10 8 145 168 103 72 5 53 55 157 32 
166 11 3 128 26 164 125 177 105 169 181 104 48 
167 10 156 133 61 102 64 149 15 51 54 175 
168 9 145 55 72 165 8 84 157 185 5 
169 10 159 125 172 27 166 3 111 128 45 48 
170 11 178 118 12 139 20 2 38 151 148 9 162 
171 11 122 25 50 111 27 45 59 17 154 172 109 
172 9 45 111 27 159 169 47 48 86 125 
173 11 4 19 89 11 138 7 116 124 155 29 41 
174 8 137 28 88 153 126 82 83 130 
175 11 54 129 15 149 64 57 132 51 61 85 33 
176 7 58 13 56 49 158 182 29 
177 11 164 26 181 3 104 128 105 166 125 92 67 
178 11 170 139 118 38 12 20 2 151 148 9 37 
179 7 90 136 114 147 146 162 16 
180 8 17 47 109 45 86 48 111 172 
181 11 104 177 26 164 3 128 166 105 67 24 92 
182 8 158 46 7 29 13 135 49 19 
183 11 109 127 17 171 122 180 50 59 45 111 113 
184 9 119 10 28 82 108 174 137 153 88 
185 10 84 37 9 69 2 20 139 38 55 118 
DEPOT_SECTION
   1
   -1
EOF
