NAME :  X-n233-kX-w23-c9.cctp
COMMENT : 	Adapted by Maziero, Usberti and Cavellucci from the Uchoa, Pecin, Pessoa, Poggi, Subramanian, and Vidal (2013)
TYPE :  CCTP
DIMENSION :    139
EDGE_WEIGHT_TYPE : 	EUC_2D	
CAPACITY : 	631
VERTICES_WITHIN_COVERAGE :  9
VERTICES_WITH_DEMAND : 	23
NODE_COORD_SECTION
1 500 500
2 816 981
3 349 338
4 22 205
5 385 344
6 913 54
7 524 123
8 239 335
9 150 84
10 84 860
11 645 647
12 507 516
13 153 940
14 429 602
15 596 759
16 776 399
17 942 767
18 871 2
19 714 950
20 72 400
21 765 315
22 666 798
23 287 851
24 3 201
25 253 251
26 37 22
27 973 599
28 726 13
29 82 262
30 834 714
31 37 861
32 290 110
33 423 350
34 406 414
35 846 956
36 849 683
37 79 883
38 433 93
39 686 486
40 229 248
41 382 597
42 544 618
43 732 387
44 563 807
45 780 940
46 665 561
47 591 536
48 35 216
49 577 969
50 811 927
51 592 744
52 280 384
53 153 27
54 401 481
55 72 488
56 381 300
57 139 848
58 386 572
59 36 764
60 660 422
61 719 264
62 761 560
63 231 203
64 769 312
65 905 645
66 304 372
67 970 966
68 51 257
69 189 934
70 516 6
71 756 36
72 47 139
73 428 61
74 100 853
75 923 919
76 751 480
77 555 726
78 463 190
79 130 131
80 105 943
81 83 892
82 869 706
83 668 913
84 954 694
85 282 907
86 339 810
87 339 296
88 367 511
89 72 181
90 415 387
91 882 359
92 485 115
93 368 424
94 991 97
95 634 849
96 37 450
97 899 115
98 983 90
99 696 466
100 629 807
101 11 521
102 50 515
103 677 876
104 171 930
105 919 111
106 129 852
107 504 181
108 469 662
109 563 555
110 213 837
111 645 830
112 384 375
113 65 890
114 561 523
115 725 818
116 998 76
117 866 252
118 636 804
119 912 114
120 637 870
121 652 948
122 117 832
123 648 144
124 371 627
125 634 872
126 235 979
127 271 865
128 553 750
129 723 813
130 570 761
131 159 883
132 294 874
133 265 793
134 999 75
135 662 727
136 724 174
137 814 812
138 568 454
139 220 931
DEMAND_SECTION
2 53
3 64
4 54
5 63
6 45
7 6
8 100
9 63
10 5
11 74
12 87
13 11
14 33
15 63
16 36
17 93
18 28
19 89
20 64
21 8
22 69
23 40
24 65
COVERAGE_SECTION
2 9 35 50 45 19 75 67 83 121 137 
3 9 5 87 56 112 66 33 90 52 93 
4 9 48 24 89 68 72 29 79 9 26 
5 9 112 3 33 56 90 87 34 93 66 
6 8 105 119 97 18 98 116 94 134 
7 7 92 107 78 38 73 70 123 
8 9 52 66 25 40 87 3 63 5 56 
9 9 79 53 72 89 26 32 63 48 4 
10 9 74 37 81 113 122 106 31 57 131 
11 9 135 46 42 51 77 15 47 109 130 
12 9 114 109 47 138 42 54 14 58 88 
13 9 104 69 80 131 139 81 106 126 37 
14 4 41 58 124 108 
15 9 51 130 128 77 44 100 118 135 22 
16 9 43 21 76 64 99 91 60 39 61 
17 9 84 82 30 36 65 137 75 27 67 
18 9 6 97 105 119 71 98 28 116 134 
19 9 83 121 45 103 50 2 120 125 95 
20 6 96 55 102 101 29 68 
21 6 64 61 43 16 117 91 
22 9 118 100 111 129 95 115 135 120 103 
23 7 127 132 85 133 86 110 139 
24 9 4 48 89 68 72 29 79 26 9 
25 8 40 63 8 87 3 66 52 56 
26 9 53 72 9 79 89 24 4 48 68 
27 8 65 84 82 36 17 30 62 76 
28 8 71 18 123 136 6 97 70 119 
29 9 68 48 89 4 24 72 20 79 40 
30 8 36 82 65 137 17 84 129 115 
31 9 113 10 37 81 74 122 106 59 57 
32 7 63 9 38 25 73 40 53 
33 8 5 90 112 56 34 3 93 87 
34 9 90 93 112 33 54 5 3 88 66 
35 9 2 50 45 75 67 19 137 83 115 
36 8 82 30 65 84 17 137 27 62 
37 9 81 113 10 74 31 106 122 80 57 
38 6 73 92 7 78 107 70 
39 9 99 76 60 46 62 47 43 138 16 
40 8 25 63 8 87 52 66 29 3 
41 4 58 124 14 88 
42 7 109 108 47 114 11 12 77 
43 8 16 21 60 64 99 76 39 61 
44 6 130 15 128 100 51 118 
45 9 50 2 19 35 83 103 121 137 115 
46 9 39 47 11 62 99 109 114 76 42 
47 9 114 109 46 138 12 42 39 11 99 
48 9 4 24 68 89 29 72 79 9 20 
49 7 121 83 125 120 95 103 19 
50 9 45 35 2 19 75 137 115 103 83 
51 8 15 130 128 77 44 135 100 118 
52 9 66 8 3 93 112 87 5 34 56 
53 9 9 79 26 72 32 89 63 4 48 
54 9 88 93 34 58 90 112 12 41 14 
55 4 102 96 101 20 
56 7 87 5 3 33 112 90 66 
57 7 106 122 74 131 10 37 81 
58 5 41 14 124 88 54 
59 3 31 122 10 
60 8 99 39 43 138 76 16 47 46 
61 3 21 64 136 
62 8 76 46 39 99 11 36 16 65 
63 7 40 25 32 79 8 87 9 
64 6 21 61 43 16 117 91 
65 8 36 84 82 27 30 17 62 137 
66 9 52 3 8 112 93 87 5 56 34 
67 9 75 35 2 50 45 17 137 19 84 
68 9 29 48 4 24 89 72 20 79 40 
69 9 104 139 13 131 126 80 85 57 110 
70 7 73 92 7 38 107 78 123 
71 8 28 18 136 123 6 97 119 105 
72 9 89 4 24 48 79 9 26 68 29 
73 7 38 92 70 7 78 107 32 
74 9 10 122 106 37 57 81 113 31 131 
75 9 67 35 50 2 45 17 137 19 82 
76 8 99 39 62 16 43 60 46 21 
77 5 128 130 51 15 44 
78 4 107 92 7 38 
79 9 9 89 72 53 63 48 4 29 26 
80 9 13 81 37 113 104 131 69 10 74 
81 9 37 113 10 74 31 80 106 122 57 
82 8 36 30 65 84 17 137 27 129 
83 9 103 121 120 125 19 95 111 49 115 
84 8 65 17 82 27 36 30 137 75 
85 8 132 127 23 139 126 69 110 86 
86 4 23 133 132 127 
87 9 56 3 5 66 112 25 33 52 8 
88 8 54 58 41 93 34 14 124 90 
89 9 72 48 4 24 79 68 29 9 63 
90 8 34 112 33 5 93 3 56 54 
91 6 117 16 64 21 43 76 
92 6 7 38 107 78 73 70 
93 9 34 112 90 54 5 66 88 3 33 
94 7 98 116 134 105 119 6 97 
95 9 120 111 125 100 118 103 22 83 44 
96 4 55 20 102 101 
97 6 119 105 6 98 94 116 
98 7 94 116 134 105 119 6 97 
99 9 39 60 76 43 46 16 62 47 138 
100 9 118 111 22 95 15 120 125 44 51 
101 4 102 55 96 20 
102 4 55 101 96 20 
103 9 83 120 125 95 111 115 121 129 22 
104 9 69 13 131 139 80 126 57 106 81 
105 6 119 97 6 98 94 116 
106 8 57 122 74 131 10 37 81 113 
107 3 78 7 92 
108 2 14 42 
109 9 114 47 42 12 138 46 11 39 14 
110 7 127 133 131 23 57 106 132 
111 9 95 100 118 22 120 125 103 129 115 
112 9 5 90 34 33 3 93 56 66 87 
113 9 37 81 10 31 74 80 106 122 57 
114 9 109 47 12 138 42 46 39 60 99 
115 9 129 22 103 111 137 118 95 100 120 
116 7 134 98 94 105 6 119 97 
117 4 91 64 21 97 
118 9 100 111 22 95 15 120 125 44 51 
119 6 105 97 6 98 94 116 
120 9 125 95 103 111 83 100 118 22 121 
121 8 83 19 103 49 125 120 95 111 
122 7 106 57 74 10 37 131 81 
123 3 136 7 61 
124 3 41 58 14 
125 9 120 95 103 111 83 100 118 121 22 
126 9 139 69 104 85 13 127 132 131 80 
127 8 23 132 85 110 133 139 86 69 
128 5 130 77 51 15 44 
129 9 115 22 103 111 118 137 100 95 120 
130 7 128 15 51 77 44 100 118 
131 9 57 106 104 13 69 74 122 110 81 
132 7 23 127 85 86 133 110 139 
133 5 23 110 127 86 132 
134 7 116 98 94 105 6 119 97 
135 9 22 51 15 118 11 100 130 111 129 
136 5 123 61 71 64 21 
137 9 115 129 30 50 82 45 36 17 35 
138 8 114 47 12 60 109 39 99 46 
139 9 69 104 126 85 13 131 127 132 110 
DEPOT_SECTION
   1
   -1
EOF
