NAME :  X-n294-kX-w117-c11.cctp
COMMENT : 	Adapted by Maziero, Usberti and Cavellucci from the Uchoa, Pecin, Pessoa, Poggi, Subramanian, and Vidal (2013)
TYPE :  CCTP
DIMENSION :    294
EDGE_WEIGHT_TYPE : 	EUC_2D	
CAPACITY : 	285
VERTICES_WITHIN_COVERAGE :  11
VERTICES_WITH_DEMAND : 	117
NODE_COORD_SECTION
1 500 500
2 940 231
3 721 848
4 618 44
5 993 145
6 636 512
7 274 496
8 245 945
9 449 812
10 29 650
11 399 8
12 548 19
13 769 717
14 221 850
15 980 233
16 477 922
17 498 720
18 136 832
19 351 663
20 58 67
21 889 569
22 28 334
23 804 928
24 900 138
25 393 403
26 982 609
27 79 299
28 684 582
29 169 252
30 405 925
31 875 191
32 674 112
33 576 537
34 539 63
35 338 657
36 210 209
37 676 568
38 949 826
39 572 890
40 210 615
41 737 46
42 30 527
43 131 724
44 671 842
45 727 566
46 507 497
47 524 134
48 167 665
49 819 108
50 929 582
51 713 738
52 352 626
53 887 547
54 176 645
55 611 289
56 457 532
57 11 147
58 958 60
59 587 187
60 790 956
61 974 63
62 306 225
63 961 969
64 238 736
65 758 840
66 88 44
67 507 811
68 768 476
69 51 914
70 494 445
71 953 33
72 922 45
73 748 111
74 544 867
75 477 596
76 322 79
77 439 150
78 586 764
79 214 599
80 168 480
81 925 138
82 797 107
83 751 783
84 738 913
85 703 73
86 681 886
87 627 27
88 887 310
89 478 345
90 571 600
91 834 858
92 549 370
93 657 233
94 126 769
95 317 934
96 237 55
97 851 409
98 838 426
99 477 559
100 542 94
101 370 432
102 520 621
103 666 178
104 631 484
105 733 255
106 820 918
107 687 877
108 752 983
109 157 720
110 709 898
111 300 878
112 728 617
113 66 59
114 991 657
115 717 47
116 463 177
117 586 397
118 792 307
119 100 392
120 438 722
121 43 247
122 71 476
123 69 560
124 211 73
125 471 14
126 115 806
127 194 337
128 921 320
129 104 495
130 36 456
131 500 152
132 782 316
133 881 374
134 277 601
135 962 575
136 588 181
137 941 728
138 108 931
139 11 814
140 209 800
141 129 525
142 126 149
143 31 219
144 97 324
145 495 122
146 759 480
147 859 782
148 780 669
149 786 769
150 759 159
151 282 633
152 361 17
153 957 103
154 711 939
155 544 544
156 27 318
157 665 656
158 523 586
159 842 429
160 539 783
161 769 347
162 937 386
163 824 841
164 738 391
165 833 988
166 16 637
167 91 472
168 41 388
169 623 780
170 660 155
171 700 658
172 946 783
173 607 815
174 87 771
175 658 874
176 527 853
177 459 577
178 352 829
179 427 235
180 937 639
181 554 438
182 833 692
183 421 999
184 908 447
185 469 163
186 737 238
187 509 61
188 246 352
189 488 408
190 600 359
191 510 460
192 342 691
193 95 216
194 787 465
195 700 873
196 659 568
197 478 525
198 988 980
199 303 119
200 241 353
201 28 661
202 724 842
203 2 660
204 210 180
205 840 841
206 843 9
207 430 92
208 265 453
209 209 673
210 20 952
211 673 659
212 185 335
213 138 655
214 263 155
215 769 741
216 325 260
217 831 678
218 401 625
219 212 360
220 118 426
221 192 520
222 596 376
223 449 679
224 579 295
225 333 352
226 837 944
227 377 500
228 797 97
229 65 235
230 440 877
231 849 769
232 439 326
233 407 621
234 550 241
235 169 68
236 253 243
237 76 852
238 642 116
239 598 124
240 564 374
241 997 660
242 14 98
243 845 303
244 774 9
245 791 671
246 299 800
247 575 109
248 865 708
249 290 897
250 953 348
251 906 692
252 895 790
253 25 242
254 761 886
255 909 336
256 501 846
257 731 4
258 337 71
259 106 973
260 400 229
261 846 368
262 623 580
263 978 669
264 884 559
265 10 910
266 390 602
267 451 134
268 324 221
269 569 98
270 735 341
271 411 220
272 672 867
273 69 790
274 584 520
275 193 416
276 954 912
277 761 734
278 192 875
279 88 353
280 777 38
281 98 68
282 642 658
283 838 305
284 824 694
285 238 825
286 344 138
287 137 683
288 357 593
289 541 423
290 537 99
291 137 539
292 719 213
293 68 173
294 788 339
DEMAND_SECTION
2 94
3 7
4 83
5 31
6 9
7 78
8 50
9 18
10 10
11 11
12 68
13 37
14 57
15 83
16 38
17 94
18 12
19 63
20 84
21 19
22 68
23 32
24 98
25 47
26 97
27 25
28 98
29 30
30 30
31 10
32 20
33 64
34 56
35 73
36 32
37 51
38 51
39 45
40 72
41 81
42 26
43 46
44 16
45 39
46 9
47 52
48 60
49 39
50 39
51 97
52 40
53 79
54 2
55 86
56 69
57 28
58 73
59 46
60 1
61 31
62 99
63 91
64 19
65 41
66 99
67 23
68 52
69 81
70 89
71 48
72 11
73 21
74 36
75 24
76 56
77 93
78 32
79 30
80 81
81 15
82 98
83 61
84 32
85 57
86 8
87 48
88 45
89 19
90 43
91 6
92 9
93 40
94 66
95 1
96 55
97 32
98 24
99 47
100 72
101 36
102 77
103 28
104 44
105 4
106 42
107 38
108 15
109 13
110 81
111 58
112 77
113 88
114 91
115 44
116 88
117 68
118 40
COVERAGE_SECTION
2 11 15 31 128 81 88 5 24 255 250 243 283 
3 11 202 195 65 107 44 110 272 86 254 84 175 
4 11 87 269 12 238 247 34 239 32 85 100 290 
5 11 153 81 61 15 58 24 2 71 72 31 49 
6 11 104 274 196 33 37 262 28 155 45 90 181 
7 11 208 221 227 134 80 275 101 79 288 40 151 
8 11 249 95 111 278 14 285 138 259 140 246 18 
9 11 67 256 230 176 120 160 178 17 74 16 30 
10 11 201 166 203 123 213 287 42 43 174 48 109 
11 11 152 125 258 207 76 187 267 286 199 77 12 
12 11 34 187 4 100 125 87 290 269 247 145 239 
13 11 277 215 148 245 149 51 284 83 182 217 171 
14 11 285 278 140 249 111 18 246 8 64 126 94 
15 11 2 5 128 81 31 250 88 24 255 153 243 
16 11 230 30 256 176 74 183 39 9 67 160 178 
17 11 120 223 160 67 78 102 9 75 256 233 158 
18 11 126 237 94 278 174 273 140 14 285 138 43 
19 11 35 192 52 218 233 288 266 151 134 223 120 
20 11 113 66 281 242 57 293 142 235 124 143 193 
21 11 264 53 50 135 180 26 184 217 251 263 114 
22 11 156 168 27 279 144 121 119 253 229 143 130 
23 11 106 60 226 254 165 84 91 108 163 154 205 
24 11 81 31 153 49 5 72 58 2 61 82 228 
25 11 101 225 232 189 227 89 70 191 208 56 46 
26 11 135 114 241 180 50 263 21 264 53 251 137 
27 11 144 156 279 22 121 229 253 193 143 119 168 
28 11 37 196 45 112 262 157 171 211 6 282 104 
29 11 36 193 204 236 212 127 27 144 229 142 219 
30 11 230 16 183 95 178 111 249 9 256 176 74 
31 11 24 81 2 49 15 82 243 88 150 153 283 
32 11 238 170 85 103 73 239 115 4 41 87 150 
33 11 274 155 90 262 6 158 104 46 196 197 99 
34 11 187 100 290 12 269 247 47 145 4 125 239 
35 11 19 52 192 151 288 218 266 233 134 223 120 
36 11 204 236 29 214 62 142 193 268 216 212 127 
37 11 28 196 45 262 6 112 157 211 171 104 282 
38 11 172 252 276 137 147 205 231 91 163 251 63 
39 11 74 176 173 256 175 16 67 272 86 44 160 
40 11 79 54 209 48 134 151 213 221 287 291 109 
41 11 115 280 257 85 244 73 228 82 32 49 87 
42 11 123 122 130 129 167 141 291 166 10 201 220 
43 11 109 287 94 174 48 213 126 54 273 209 18 
44 11 272 175 107 195 86 3 202 110 173 169 65 
45 11 28 37 112 196 146 171 68 262 6 211 157 
46 11 191 197 70 155 56 99 181 33 274 289 158 
47 11 131 145 290 100 247 269 185 34 267 116 187 
48 11 54 213 287 209 109 40 43 79 64 94 151 
49 11 82 228 73 150 280 24 31 206 41 244 81 
50 11 135 21 264 53 180 26 114 263 241 251 184 
51 11 277 215 83 13 149 171 211 157 148 169 245 
52 11 288 35 19 266 218 233 192 151 134 223 177 
53 11 264 21 50 135 184 180 26 159 194 98 68 
54 11 48 213 209 40 287 79 109 43 151 64 134 
55 11 224 190 93 234 222 240 92 59 136 117 103 
56 11 197 99 177 46 75 158 227 155 191 70 266 
57 11 242 293 143 20 253 229 113 121 193 142 281 
58 11 61 71 72 153 81 5 24 206 49 31 228 
59 11 136 239 234 247 103 170 47 93 238 269 131 
60 11 23 108 106 226 165 84 254 154 110 91 65 
61 11 58 71 153 72 5 81 24 206 49 31 15 
62 11 268 216 236 214 260 286 36 271 199 204 179 
63 11 198 276 226 165 38 106 23 91 60 205 163 
64 11 209 140 109 246 285 48 43 54 151 192 287 
65 11 202 3 254 83 163 195 84 110 149 91 107 
66 11 281 113 20 235 242 142 124 57 293 96 193 
67 11 256 160 176 9 74 17 78 230 173 39 120 
68 11 146 194 98 159 164 45 97 161 37 261 28 
69 11 265 210 138 237 259 139 18 273 126 278 174 
70 11 191 189 289 46 181 197 92 56 240 89 117 
71 11 58 72 61 153 81 206 24 5 49 228 82 
72 11 71 58 61 153 206 81 24 49 5 228 82 
73 11 82 150 228 85 41 49 115 32 280 170 244 
74 11 176 39 256 67 173 160 16 230 9 78 175 
75 11 177 99 158 102 56 197 233 218 155 266 223 
76 11 258 199 286 152 96 214 11 207 124 77 267 
77 11 267 185 116 207 131 145 271 47 179 260 286 
78 11 169 160 173 67 17 176 74 44 256 282 39 
79 11 40 54 134 209 151 48 221 213 291 141 287 
80 11 221 141 129 291 275 220 167 122 208 7 119 
81 11 24 153 5 31 58 61 72 2 71 15 49 
82 11 228 49 73 150 280 41 85 115 244 24 206 
83 11 149 215 277 65 51 202 13 3 163 44 231 
84 11 110 254 154 195 107 86 3 60 23 108 202 
85 11 115 41 32 73 257 238 280 87 4 170 244 
86 11 107 272 195 175 110 44 3 154 202 84 254 
87 11 4 12 85 238 115 269 34 32 247 239 257 
88 11 255 128 243 283 133 261 250 162 2 118 294 
89 11 232 189 92 240 289 70 25 224 191 117 181 
90 11 158 102 262 155 33 274 282 75 196 99 6 
91 11 205 163 106 23 65 254 147 226 231 252 149 
92 11 240 117 222 190 289 181 189 89 224 70 191 
93 11 103 292 55 170 105 186 59 136 224 234 238 
94 11 126 174 43 109 273 18 287 140 237 48 213 
95 11 249 111 8 30 178 183 14 246 285 230 278 
96 11 124 235 76 199 258 214 204 152 286 281 142 
97 11 98 159 261 133 184 194 162 255 294 161 88 
98 11 159 97 261 194 133 184 68 146 294 161 164 
99 11 177 56 197 75 158 46 155 102 233 266 33 
100 11 290 269 34 247 47 187 145 239 131 12 4 
101 11 25 227 225 208 7 189 70 232 56 89 191 
102 11 158 75 90 99 177 155 223 17 33 197 56 
103 11 170 93 292 32 238 136 59 239 186 150 105 
104 11 6 274 33 196 181 37 262 117 155 289 28 
105 11 186 292 132 93 118 270 150 161 294 103 283 
106 11 23 226 60 91 254 165 163 205 84 108 65 
107 11 86 195 272 175 110 44 3 202 84 154 254 
108 11 60 154 84 23 165 106 226 110 254 86 195 
109 11 43 287 48 94 213 209 54 64 174 140 126 
110 11 195 86 107 84 154 272 3 254 175 202 44 
111 11 249 95 178 246 285 14 8 278 30 140 230 
112 11 171 45 28 211 37 148 157 245 196 282 13 
113 11 20 66 281 242 235 57 142 293 124 193 143 
114 11 241 263 26 180 135 137 251 50 172 21 248 
115 11 41 85 257 280 244 73 32 87 228 4 82 
116 11 185 77 131 267 145 271 179 47 260 207 234 
117 11 222 240 190 92 181 289 104 189 191 224 70 
118 11 132 294 161 283 243 270 105 261 186 88 164 
119 11 220 279 168 144 167 122 130 22 27 275 212 
120 11 223 17 9 192 218 19 233 67 160 35 52 
121 11 253 229 143 193 27 156 293 22 144 57 279 
122 11 167 129 130 42 220 141 123 119 291 168 80 
123 11 42 141 291 129 122 167 166 10 130 201 213 
124 11 96 235 214 199 204 76 281 142 66 258 36 
125 11 187 11 12 34 207 100 290 152 145 267 269 
126 11 18 94 174 273 237 43 140 109 278 139 14 
127 11 212 219 200 188 275 29 144 279 119 236 220 
128 11 255 88 250 133 162 243 283 261 2 15 97 
129 11 167 122 141 291 80 220 123 130 42 221 119 
130 11 122 167 168 42 129 220 119 123 279 141 22 
131 11 47 145 185 116 267 77 290 100 247 269 187 
132 11 118 294 161 270 283 243 105 261 164 186 88 
133 11 261 97 255 162 88 98 128 159 250 184 243 
134 11 151 79 40 52 288 35 19 209 7 54 192 
135 11 50 26 180 21 53 264 114 241 263 251 184 
136 11 59 239 234 247 170 103 47 238 269 93 131 
137 11 251 172 263 252 248 114 241 180 38 147 231 
138 11 259 69 237 210 265 278 18 126 8 14 273 
139 11 273 237 174 265 126 69 94 18 210 43 138 
140 11 285 14 64 278 18 94 246 126 109 43 111 
141 11 291 129 80 221 167 123 122 42 220 79 130 
142 11 293 193 281 204 235 36 229 20 113 29 66 
143 11 253 121 229 293 193 57 27 156 22 142 242 
144 11 279 27 119 22 156 168 212 121 229 127 29 
145 11 131 47 267 290 185 100 77 187 116 207 34 
146 11 68 194 164 45 98 159 97 37 6 28 104 
147 11 231 252 205 163 149 248 91 172 182 284 137 
148 11 245 13 284 217 182 277 215 112 171 248 51 
149 11 215 83 277 13 231 147 65 51 163 284 182 
150 11 73 82 292 228 49 186 103 32 105 170 85 
151 11 134 35 52 40 19 79 192 209 288 54 64 
152 11 11 258 76 207 125 199 286 96 267 77 187 
153 11 58 61 81 5 24 72 71 31 2 15 49 
154 11 84 110 108 86 107 195 254 60 272 175 3 
155 11 33 158 274 46 90 99 197 102 75 262 56 
156 11 22 27 144 279 168 121 253 229 143 119 193 
157 11 211 282 171 112 28 262 196 37 51 45 90 
158 11 102 75 155 90 99 177 33 197 56 46 274 
159 11 98 97 261 194 133 184 68 146 162 294 161 
160 11 67 78 176 256 17 173 74 169 9 39 120 
161 11 294 132 270 118 164 261 283 243 105 97 98 
162 11 250 133 255 128 184 97 88 261 159 98 243 
163 11 205 91 65 147 231 106 254 149 252 23 83 
164 11 270 161 294 132 194 68 146 118 98 261 159 
165 11 226 60 23 106 108 84 254 63 91 154 276 
166 11 10 201 203 123 42 213 287 43 174 48 291 
167 11 122 129 220 130 141 80 119 291 42 123 168 
168 11 22 119 279 130 156 144 220 122 27 167 129 
169 11 173 78 44 160 51 175 272 107 74 3 202 
170 11 103 238 32 239 136 93 59 292 85 247 73 
171 11 211 157 112 282 28 51 148 13 245 37 45 
172 11 38 252 137 147 231 251 248 263 205 276 241 
173 11 169 78 44 160 175 74 39 272 176 67 107 
174 11 273 94 126 43 18 237 109 139 287 140 201 
175 11 272 86 107 44 195 110 3 202 173 154 39 
176 11 74 256 67 39 160 16 9 173 230 78 169 
177 11 99 75 56 197 158 233 266 102 218 155 46 
178 11 246 111 249 9 230 30 95 285 14 120 192 
179 11 271 260 116 185 77 232 267 268 216 131 62 
180 11 263 26 114 50 251 241 135 21 137 264 248 
181 11 289 191 117 70 240 92 189 46 222 274 104 
182 11 284 217 248 245 148 13 251 231 215 277 149 
183 11 30 16 95 230 249 111 256 74 176 178 8 
184 11 159 162 97 98 133 261 53 250 255 264 194 
185 11 116 77 131 267 145 47 207 271 179 290 260 
186 11 105 292 93 150 118 132 103 270 170 294 161 
187 11 34 100 290 12 125 145 269 47 247 207 131 
188 11 200 219 127 212 275 225 208 236 216 29 62 
189 11 70 289 191 89 92 181 240 46 25 232 117 
190 11 222 240 117 92 224 55 289 181 189 89 234 
191 11 70 46 289 181 189 197 56 155 274 92 117 
192 11 19 35 52 151 218 233 288 120 266 223 134 
193 11 229 293 121 143 142 253 29 27 144 57 36 
194 11 68 146 98 159 97 164 261 45 161 184 294 
195 11 107 86 110 272 3 202 44 175 84 254 65 
196 11 37 28 262 6 45 112 157 33 104 274 211 
197 11 56 99 46 177 155 75 191 158 70 33 227 
198 11 63 276 165 226 38 106 23 91 60 172 205 
199 11 76 286 214 258 96 124 268 62 204 152 36 
200 11 188 219 127 212 275 225 208 236 29 216 220 
201 11 10 203 166 123 213 287 43 174 42 273 48 
202 11 3 65 195 107 44 254 110 272 86 83 84 
203 11 201 166 10 123 42 213 287 174 43 273 139 
204 11 36 214 236 29 142 62 124 199 235 193 268 
205 11 163 91 147 231 252 106 65 149 254 23 226 
206 11 244 280 72 228 49 82 41 257 71 58 115 
207 11 267 77 145 185 187 125 11 116 131 258 286 
208 11 7 275 221 80 188 200 101 219 227 225 127 
209 11 48 54 40 64 109 213 287 79 151 43 134 
210 11 265 69 259 138 237 139 18 273 126 278 174 
211 11 157 171 282 112 28 51 37 196 262 148 45 
212 11 127 219 200 188 275 29 144 279 119 27 220 
213 11 287 48 54 109 43 209 40 79 10 201 94 
214 11 199 204 36 62 286 236 268 76 124 96 258 
215 11 277 13 149 83 51 284 148 245 182 231 217 
216 11 268 62 236 260 225 271 179 188 214 286 200 
217 11 182 284 245 248 148 13 251 215 277 231 149 
218 11 233 266 52 288 19 35 223 177 75 192 99 
219 11 127 200 188 212 275 208 220 29 119 144 225 
220 11 119 167 122 129 80 275 279 168 130 141 144 
221 11 80 291 141 79 7 129 40 208 275 167 134 
222 11 190 117 240 92 289 181 224 55 189 104 191 
223 11 120 17 218 233 75 102 266 19 177 192 52 
224 11 55 234 190 240 92 222 93 117 59 89 136 
225 11 25 188 101 200 216 232 219 208 62 268 236 
226 11 106 23 165 60 91 108 254 205 84 163 276 
227 11 101 56 288 25 7 266 197 177 99 208 233 
228 11 82 49 73 280 150 41 244 115 85 206 24 
229 11 121 193 143 253 293 27 156 144 57 29 142 
230 11 16 30 9 256 176 67 178 74 183 39 95 
231 11 147 252 149 248 205 163 182 284 215 91 217 
232 11 89 25 179 189 260 225 271 92 101 70 216 
233 11 218 266 52 288 177 19 223 75 35 99 192 
234 11 224 59 136 55 131 93 116 47 185 179 89 
235 11 124 96 281 66 142 113 20 204 214 199 293 
236 11 36 62 216 268 204 29 214 188 127 200 212 
237 11 126 273 18 69 139 174 138 265 94 210 278 
238 11 32 170 239 103 247 85 269 4 136 59 87 
239 11 247 269 238 136 59 100 290 170 47 32 4 
240 11 92 117 222 190 289 181 224 189 89 55 70 
241 11 114 263 26 180 137 135 251 50 172 248 21 
242 11 57 20 113 281 66 293 143 142 193 253 229 
243 11 283 88 118 132 261 294 255 128 133 161 97 
244 11 280 257 41 115 206 228 85 82 73 49 32 
245 11 148 284 217 182 13 277 215 112 248 171 149 
246 11 178 285 111 64 140 14 249 192 278 95 19 
247 11 269 239 100 290 47 34 238 136 4 59 145 
248 11 182 284 251 217 231 147 137 245 252 148 13 
249 11 111 95 8 14 285 178 246 278 30 140 230 
250 11 162 128 255 88 133 184 261 243 2 15 97 
251 11 248 137 180 182 217 263 284 114 231 241 172 
252 11 147 172 231 38 205 137 163 248 91 251 149 
253 11 121 143 229 193 156 27 293 22 57 144 279 
254 11 84 65 110 3 202 23 195 106 154 107 60 
255 11 128 88 250 133 162 261 243 283 97 2 184 
256 11 176 67 74 9 230 160 16 39 173 78 30 
257 11 41 244 115 280 85 87 73 206 228 4 32 
258 11 76 152 199 286 11 207 96 214 124 77 267 
259 11 138 69 210 265 237 278 8 18 126 14 139 
260 11 271 179 268 216 116 77 62 185 232 286 267 
261 11 133 97 98 159 283 243 294 88 255 161 118 
262 11 196 37 90 28 33 6 274 282 155 157 211 
263 11 114 241 180 26 137 251 135 50 172 248 21 
264 11 21 53 50 135 180 26 184 217 194 251 159 
265 11 69 210 237 139 138 259 273 18 126 174 94 
266 11 218 233 288 52 19 177 35 75 56 99 223 
267 11 77 185 116 145 207 131 47 187 290 271 100 
268 11 62 216 236 260 286 271 214 179 199 36 204 
269 11 247 100 290 239 34 47 187 4 238 145 12 
270 11 161 164 132 294 118 105 186 283 261 243 292 
271 11 260 179 116 77 185 268 216 267 62 286 232 
272 11 175 107 86 44 195 110 3 202 84 154 173 
273 11 174 126 94 237 139 18 43 109 69 287 265 
274 11 33 155 6 104 262 46 90 181 196 158 191 
275 11 219 80 220 127 200 208 212 188 119 221 7 
276 11 63 198 38 226 172 91 106 205 252 165 163 
277 11 215 13 149 51 83 148 245 284 182 217 231 
278 11 14 285 18 140 8 249 138 126 111 237 94 
279 11 144 119 27 168 22 156 220 212 127 121 130 
280 11 244 41 257 115 228 82 206 73 49 85 150 
281 11 66 113 20 235 142 242 293 124 57 96 193 
282 11 157 211 171 262 28 90 196 112 37 51 78 
283 11 243 118 88 132 294 261 255 133 161 128 97 
284 11 182 217 245 248 148 13 215 277 231 251 149 
285 11 14 140 246 278 111 64 249 18 178 8 126 
286 11 199 76 258 214 268 62 77 207 271 260 267 
287 11 213 48 43 109 54 209 94 40 174 201 10 
288 11 52 266 218 233 35 19 134 151 227 192 177 
289 11 181 191 70 117 92 240 189 222 46 190 89 
290 11 100 269 34 47 247 187 145 131 239 12 185 
291 11 141 129 221 80 123 167 122 79 40 42 54 
292 11 186 105 103 93 150 170 73 32 118 132 238 
293 11 193 143 229 57 142 121 253 242 20 281 113 
294 11 161 132 118 270 283 261 243 164 97 133 98 
DEPOT_SECTION
   1
   -1
EOF
