NAME :  X-n270-kX-w53-c11.cctp
COMMENT : 	Adapted by Maziero, Usberti and Cavellucci from the Uchoa, Pecin, Pessoa, Poggi, Subramanian, and Vidal (2013)
TYPE :  CCTP
DIMENSION :    218
EDGE_WEIGHT_TYPE : 	EUC_2D	
CAPACITY : 	585
VERTICES_WITHIN_COVERAGE :  11
VERTICES_WITH_DEMAND : 	53
NODE_COORD_SECTION
1 500 500
2 643 512
3 707 407
4 394 355
5 140 470
6 364 215
7 493 857
8 117 466
9 462 38
10 551 479
11 742 498
12 533 706
13 788 425
14 799 6
15 836 680
16 88 225
17 164 988
18 537 20
19 612 395
20 314 942
21 342 974
22 518 758
23 860 774
24 313 36
25 275 23
26 324 971
27 822 588
28 272 458
29 620 666
30 868 427
31 694 750
32 953 419
33 236 823
34 887 411
35 124 814
36 193 899
37 687 303
38 447 220
39 716 472
40 415 141
41 738 309
42 445 672
43 524 60
44 112 157
45 859 935
46 104 596
47 556 54
48 362 223
49 723 661
50 474 338
51 274 568
52 315 380
53 704 863
54 936 260
55 93 859
56 703 935
57 381 302
58 695 239
59 880 823
60 335 961
61 37 637
62 288 169
63 455 499
64 599 796
65 155 910
66 80 459
67 93 565
68 959 544
69 762 531
70 22 839
71 459 575
72 737 409
73 854 328
74 921 781
75 221 23
76 685 179
77 202 804
78 422 992
79 945 292
80 66 976
81 487 429
82 614 711
83 407 546
84 883 298
85 709 692
86 535 319
87 965 217
88 336 35
89 703 595
90 677 841
91 51 503
92 334 968
93 628 154
94 488 437
95 680 869
96 987 264
97 474 906
98 866 911
99 940 542
100 106 988
101 558 398
102 661 206
103 500 17
104 710 588
105 23 696
106 181 909
107 107 556
108 516 409
109 345 879
110 684 742
111 86 682
112 447 182
113 825 545
114 840 689
115 129 532
116 89 305
117 434 407
118 348 132
119 390 473
120 598 286
121 464 891
122 671 336
123 762 909
124 136 633
125 40 814
126 445 889
127 318 2
128 688 101
129 387 142
130 480 339
131 884 826
132 207 24
133 557 694
134 740 695
135 699 899
136 768 584
137 671 669
138 818 715
139 933 659
140 500 706
141 73 147
142 862 849
143 504 643
144 539 728
145 139 118
146 931 588
147 850 28
148 891 612
149 709 636
150 628 448
151 277 45
152 588 720
153 803 710
154 712 63
155 804 68
156 536 318
157 189 17
158 548 667
159 838 835
160 890 749
161 862 272
162 551 695
163 692 757
164 735 752
165 468 626
166 535 665
167 734 66
168 717 545
169 719 743
170 224 25
171 709 712
172 467 579
173 550 683
174 264 122
175 749 182
176 234 56
177 868 936
178 790 705
179 576 674
180 494 607
181 412 701
182 614 627
183 883 597
184 233 64
185 598 659
186 813 611
187 868 603
188 555 673
189 93 100
190 743 870
191 600 452
192 619 753
193 850 547
194 600 727
195 63 175
196 789 598
197 753 615
198 803 64
199 835 42
200 591 543
201 576 872
202 530 707
203 187 153
204 627 789
205 787 650
206 194 350
207 857 704
208 487 672
209 511 732
210 872 794
211 143 149
212 910 236
213 747 666
214 712 736
215 302 59
216 766 680
217 680 683
218 648 800
DEMAND_SECTION
2 77
3 91
4 67
5 69
6 68
7 64
8 65
9 83
10 64
11 77
12 87
13 99
14 84
15 74
16 89
17 76
18 68
19 87
20 69
21 97
22 87
23 59
24 82
25 75
26 55
27 95
28 63
29 87
30 72
31 53
32 66
33 95
34 58
35 76
36 66
37 53
38 67
39 56
40 71
41 67
42 52
43 85
44 99
45 62
46 51
47 53
48 63
49 71
50 78
51 71
52 77
53 85
54 82
COVERAGE_SECTION
2 10 200 150 191 168 39 10 11 104 89 182 
3 11 72 39 122 13 150 19 11 41 37 191 2 
4 11 57 117 50 52 130 119 81 94 108 48 6 
5 11 8 66 115 107 91 67 46 206 28 124 51 
6 11 48 129 38 118 57 62 112 40 174 4 50 
7 11 121 97 126 201 22 64 209 144 109 204 140 
8 11 5 66 115 91 107 67 46 206 28 116 124 
9 11 103 43 18 47 40 88 129 112 118 127 24 
10 10 191 200 94 108 81 101 150 2 63 19 
11 11 39 69 168 13 72 136 113 104 3 2 89 
12 11 202 162 144 133 173 140 209 188 166 158 22 
13 11 72 30 3 11 39 34 69 73 41 113 193 
14 6 199 147 198 155 167 154 
15 8 114 207 138 153 178 205 216 186 
16 8 195 44 141 116 211 145 203 189 
17 11 100 65 106 36 80 55 20 26 92 60 21 
18 11 103 47 43 9 93 128 40 154 112 129 88 
19 11 101 150 191 122 3 108 10 86 156 120 37 
20 11 60 26 92 21 109 78 36 106 126 33 17 
21 11 92 60 26 20 78 109 126 97 121 36 106 
22 11 209 144 202 12 140 162 133 152 173 194 64 
23 9 210 160 59 131 74 159 207 138 142 
24 11 88 215 127 151 25 176 184 170 75 174 118 
25 11 151 24 215 127 170 176 75 184 88 132 157 
26 11 92 60 21 20 109 78 126 36 106 17 121 
27 11 186 196 113 187 193 136 183 205 148 197 69 
28 11 52 51 119 5 206 8 4 83 115 117 63 
29 11 185 182 82 179 137 217 152 194 188 133 158 
30 11 34 13 32 73 193 113 84 72 99 11 68 
31 8 163 110 214 169 164 171 85 217 
32 11 34 30 99 68 79 73 84 96 54 193 13 
33 11 77 36 106 35 65 109 20 55 60 26 92 
34 11 30 32 73 13 84 79 99 161 193 113 72 
35 11 55 77 125 65 70 36 106 33 111 105 80 
36 11 106 65 33 17 77 55 35 100 20 26 80 
37 11 122 41 58 120 102 3 72 19 76 175 156 
38 11 112 6 40 48 129 57 50 130 86 118 156 
39 11 11 3 72 168 69 2 13 150 104 191 136 
40 11 129 112 118 38 6 48 9 62 88 43 215 
41 11 37 122 58 72 3 73 13 175 102 161 76 
42 10 208 181 165 140 143 180 209 166 202 12 
43 11 47 18 103 9 40 93 112 129 128 38 154 
44 7 211 141 145 195 189 16 203 
45 11 177 98 142 123 159 131 59 190 210 56 23 
46 11 67 107 124 115 61 111 91 105 5 8 66 
47 11 43 18 103 9 93 128 154 40 112 167 76 
48 11 6 57 38 129 62 118 112 40 4 174 50 
49 10 213 149 85 134 216 217 137 171 197 205 
50 11 130 86 156 117 4 108 81 57 94 101 38 
51 11 28 83 115 119 124 5 107 46 67 71 8 
52 11 4 28 57 119 117 206 48 50 130 6 81 
53 10 95 90 135 190 56 123 218 163 204 31 
54 7 79 212 96 87 84 161 73 
55 11 35 125 70 65 106 36 80 77 100 17 33 
56 11 135 123 95 53 190 90 201 218 45 98 177 
57 11 4 48 6 50 52 38 130 117 112 86 156 
58 10 102 76 37 175 41 122 93 120 128 3 
59 10 131 210 142 159 23 74 160 98 45 177 
60 11 92 21 26 20 109 78 126 121 97 36 106 
61 11 105 111 46 67 124 107 91 115 125 66 8 
62 11 174 118 6 48 203 129 215 184 151 176 40 
63 11 83 94 119 71 81 172 117 10 108 180 165 
64 11 204 192 218 194 152 201 82 22 90 144 110 
65 11 106 36 17 55 100 35 80 77 33 125 70 
66 11 8 91 5 115 107 67 46 116 206 61 124 
67 11 107 46 115 91 124 61 8 5 66 111 105 
68 10 99 146 183 148 187 193 139 32 113 27 
69 11 11 168 136 113 196 39 104 27 197 89 193 
70 11 125 55 35 105 80 65 111 100 106 36 77 
71 9 172 180 165 83 63 143 42 208 166 
72 11 3 13 39 11 122 41 150 37 69 19 30 
73 10 84 161 34 79 30 54 212 13 41 32 
74 11 160 210 131 59 23 142 159 207 138 114 139 
75 9 170 132 157 176 184 25 151 215 24 
76 11 102 58 93 175 128 154 167 37 120 41 122 
77 11 33 35 36 106 65 55 109 125 111 20 70 
78 11 21 92 60 26 97 126 121 20 109 7 201 
79 9 54 96 84 212 87 161 73 32 34 
80 11 100 17 65 55 106 70 36 125 35 77 33 
81 11 94 108 117 63 101 10 130 50 119 191 4 
82 11 194 152 192 29 179 185 133 162 173 188 137 
83 11 71 63 172 119 165 180 42 51 94 143 81 
84 9 161 73 79 54 212 96 34 87 30 
85 10 171 217 134 49 137 214 213 169 110 149 
86 11 156 130 50 120 101 108 19 81 94 38 117 
87 5 54 96 212 79 84 
88 11 24 127 215 151 25 118 176 184 170 174 75 
89 11 104 149 168 197 136 49 137 213 196 69 217 
90 11 95 53 218 135 190 204 163 64 31 56 110 
91 11 66 67 8 107 115 5 46 61 124 111 105 
92 11 60 21 26 20 109 78 126 121 97 36 106 
93 11 76 102 128 58 47 154 175 120 167 43 37 
94 11 81 108 117 63 10 101 130 50 119 191 4 
95 11 53 90 135 190 56 218 123 204 201 64 163 
96 6 79 54 87 212 84 161 
97 11 121 126 7 78 201 109 21 60 92 22 26 
98 11 45 177 142 159 131 59 123 210 190 23 74 
99 11 68 146 183 148 193 187 113 139 32 27 30 
100 11 80 17 65 106 36 55 70 35 125 77 33 
101 11 108 19 191 81 94 10 86 156 150 130 50 
102 11 76 58 93 175 37 120 128 41 122 154 167 
103 11 18 9 43 47 40 88 129 112 127 93 24 
104 11 89 168 149 197 136 49 69 196 213 137 11 
105 11 61 111 125 46 124 70 67 35 107 55 91 
106 11 36 65 17 55 33 77 100 35 80 20 26 
107 11 67 115 46 91 124 8 5 66 61 111 105 
108 11 81 94 101 10 130 50 117 86 156 191 19 
109 11 20 60 92 26 21 126 121 33 97 78 7 
110 10 31 163 214 169 171 164 85 217 192 218 
111 11 105 61 124 46 67 107 35 125 115 77 70 
112 11 38 40 129 6 48 118 57 43 9 50 62 
113 11 193 27 196 69 186 136 187 183 148 11 197 
114 8 15 207 138 153 178 205 216 160 
115 11 107 67 5 8 46 91 66 124 61 51 111 
116 11 16 206 195 44 66 141 8 211 5 203 145 
117 11 81 94 4 119 50 108 130 63 57 52 101 
118 11 129 40 62 6 174 215 48 88 24 112 151 
119 11 63 83 117 94 81 4 28 52 71 172 108 
120 11 156 86 122 37 102 58 19 101 130 50 93 
121 11 97 126 7 78 201 109 22 60 21 92 20 
122 11 37 41 3 19 120 72 58 150 101 102 156 
123 11 190 56 135 53 95 45 98 159 90 177 142 
124 11 46 111 67 107 61 115 105 51 91 5 8 
125 11 70 55 35 105 111 65 77 80 106 36 61 
126 11 121 97 7 109 78 60 201 21 92 20 26 
127 11 24 88 25 151 215 170 75 176 184 132 157 
128 10 154 167 76 93 175 102 155 198 58 47 
129 11 40 118 112 6 48 38 62 88 215 174 9 
130 11 50 86 156 108 117 4 81 94 101 57 38 
131 10 59 142 210 159 23 74 160 98 177 45 
132 7 75 170 157 176 184 25 151 
133 11 162 173 188 12 158 179 202 166 144 152 185 
134 7 213 216 85 171 49 214 178 
135 10 53 56 95 190 90 123 218 201 204 163 
136 11 196 197 186 69 27 104 168 89 113 205 149 
137 10 217 85 149 29 49 171 82 182 110 134 
138 5 153 178 114 15 207 
139 10 148 146 183 187 207 114 15 160 99 68 
140 11 209 202 12 208 144 162 166 22 173 133 158 
141 6 195 44 189 211 145 16 
142 10 159 59 131 210 98 23 45 177 74 160 
143 10 208 180 166 165 158 188 173 140 42 12 
144 11 12 202 209 162 22 133 140 173 152 188 194 
145 5 211 44 189 203 141 
146 10 99 148 183 68 187 139 193 27 113 186 
147 4 199 14 198 155 
148 11 183 187 146 139 27 193 186 99 15 114 113 
149 10 49 89 104 213 197 137 217 85 134 216 
150 11 191 19 2 10 101 3 39 200 72 108 122 
151 11 25 215 24 176 184 170 127 75 88 132 174 
152 11 194 82 133 162 192 179 144 173 12 188 202 
153 6 178 138 114 15 216 207 
154 10 167 128 198 155 14 76 93 175 199 147 
155 6 198 199 147 14 167 154 
156 11 86 130 50 120 101 108 19 81 94 38 117 
157 7 132 75 170 176 184 25 151 
158 10 188 166 173 133 162 179 12 202 143 185 
159 8 142 59 131 210 23 98 74 160 
160 10 23 74 210 207 59 131 114 138 15 153 
161 6 84 73 212 54 79 87 
162 11 133 173 12 188 202 158 179 166 144 152 140 
163 8 31 110 214 169 164 171 218 85 
164 5 169 214 31 163 171 
165 9 180 143 172 208 42 71 166 140 158 
166 10 158 188 173 162 133 143 12 179 202 208 
167 9 154 128 198 155 14 199 175 147 76 
168 11 104 69 89 11 136 39 197 2 196 149 113 
169 8 214 164 31 163 171 110 85 134 
170 9 75 132 176 157 184 25 151 215 24 
171 10 85 214 169 134 110 31 217 163 164 49 
172 9 71 180 165 83 143 63 208 42 166 
173 10 188 162 133 158 166 179 12 202 144 152 
174 11 62 184 176 215 151 203 118 24 25 170 75 
175 8 76 58 102 128 167 93 154 41 
176 10 184 170 75 132 151 25 157 215 174 24 
177 11 45 98 142 159 123 131 59 190 210 23 74 
178 6 153 138 216 134 15 114 
179 11 188 185 133 173 158 162 166 29 152 82 12 
180 9 165 143 172 71 208 166 42 158 188 
181 10 42 208 140 165 209 143 202 22 12 180 
182 10 185 29 179 137 188 158 82 173 200 217 
183 11 187 148 146 193 27 186 113 99 139 68 196 
184 10 176 170 75 132 151 25 157 174 215 24 
185 11 29 179 182 188 158 82 133 173 162 152 166 
186 11 27 196 205 136 187 197 113 183 15 193 148 
187 11 183 148 27 186 193 146 113 196 15 139 114 
188 10 158 173 133 179 162 166 12 202 185 144 
189 3 145 141 44 
190 7 53 123 135 95 90 56 159 
191 11 150 10 19 101 2 200 108 94 81 3 39 
192 11 194 204 82 152 64 218 110 163 31 144 133 
193 11 113 27 187 183 186 148 196 69 99 136 146 
194 11 152 82 192 133 179 162 144 29 173 185 204 
195 6 141 44 16 189 211 145 
196 11 136 186 27 197 205 113 69 187 104 193 213 
197 11 136 196 149 205 104 213 89 49 186 216 27 
198 6 155 199 14 147 167 154 
199 4 147 198 155 14 
200 9 2 10 182 191 150 180 185 89 29 
201 11 64 7 204 218 95 90 97 121 135 192 22 
202 11 12 144 162 133 140 173 209 166 188 158 22 
203 8 211 145 44 174 184 62 176 189 
204 11 218 64 192 194 90 163 110 31 82 152 95 
205 11 216 213 186 197 196 178 15 153 49 134 114 
206 11 116 52 5 28 8 66 16 57 115 203 4 
207 8 114 15 138 153 160 178 23 139 
208 10 143 140 42 166 165 202 12 158 173 180 
209 11 22 140 144 202 12 162 133 173 208 166 188 
210 9 23 59 131 160 74 159 142 207 138 
211 7 145 44 203 141 189 195 16 
212 6 54 87 161 79 84 96 
213 9 216 49 134 205 85 149 197 178 171 
214 8 169 31 171 164 110 163 85 134 
215 11 24 151 88 25 127 176 184 174 170 118 75 
216 6 213 134 178 205 49 153 
217 10 137 85 171 49 149 110 134 29 214 31 
218 11 204 64 90 192 163 31 110 95 53 194 169 
DEPOT_SECTION
   1
   -1
EOF
