NAME :  X-n261-kX-w26-c11.cctp
COMMENT : 	Adapted by Maziero, Usberti and Cavellucci from the Uchoa, Pecin, Pessoa, Poggi, Subramanian, and Vidal (2013)
TYPE :  CCTP
DIMENSION :    190
EDGE_WEIGHT_TYPE : 	EUC_2D	
CAPACITY : 	1081
VERTICES_WITHIN_COVERAGE :  11
VERTICES_WITH_DEMAND : 	26
NODE_COORD_SECTION
1 0 0
2 377 105
3 535 93
4 820 625
5 689 745
6 774 283
7 399 810
8 242 139
9 300 948
10 557 255
11 22 828
12 27 768
13 961 829
14 825 225
15 288 996
16 126 160
17 219 243
18 504 918
19 532 806
20 566 734
21 327 943
22 848 66
23 45 889
24 952 169
25 736 63
26 939 925
27 569 517
28 969 917
29 603 637
30 800 102
31 879 687
32 289 83
33 836 360
34 887 699
35 21 962
36 857 715
37 572 230
38 488 340
39 760 763
40 470 796
41 67 194
42 927 576
43 524 679
44 155 89
45 629 678
46 354 298
47 618 236
48 338 855
49 774 799
50 811 201
51 684 462
52 892 995
53 449 985
54 120 176
55 552 983
56 790 650
57 189 400
58 717 607
59 351 60
60 546 941
61 567 342
62 790 315
63 568 9
64 20 172
65 600 355
66 909 984
67 992 956
68 36 62
69 614 755
70 883 36
71 463 924
72 789 99
73 792 669
74 60 712
75 629 450
76 533 49
77 853 566
78 495 195
79 573 191
80 519 673
81 737 157
82 957 695
83 536 532
84 926 788
85 513 86
86 391 39
87 706 871
88 741 723
89 936 7
90 799 359
91 689 805
92 818 770
93 339 47
94 607 57
95 763 168
96 324 924
97 358 40
98 823 138
99 453 911
100 771 182
101 912 18
102 514 160
103 854 59
104 729 52
105 73 223
106 572 821
107 126 236
108 167 213
109 277 169
110 184 250
111 153 833
112 563 253
113 978 112
114 724 23
115 161 329
116 461 782
117 237 951
118 105 942
119 972 950
120 749 340
121 36 228
122 744 110
123 181 44
124 420 81
125 309 69
126 987 831
127 951 322
128 953 17
129 585 943
130 395 150
131 484 870
132 488 756
133 138 121
134 280 363
135 491 164
136 448 33
137 506 839
138 734 57
139 991 663
140 671 263
141 578 546
142 608 856
143 380 871
144 920 900
145 518 179
146 282 281
147 835 214
148 895 580
149 785 78
150 407 979
151 346 961
152 938 233
153 603 917
154 572 723
155 545 568
156 348 33
157 483 309
158 514 471
159 59 792
160 532 185
161 536 745
162 781 371
163 440 901
164 953 180
165 290 771
166 332 323
167 264 881
168 94 101
169 614 160
170 202 225
171 148 85
172 93 799
173 999 195
174 660 791
175 547 966
176 980 316
177 608 512
178 398 136
179 166 24
180 547 880
181 620 872
182 523 885
183 926 617
184 536 487
185 59 176
186 474 325
187 471 123
188 335 879
189 650 321
190 796 593
DEMAND_SECTION
2 64
3 73
4 98
5 36
6 76
7 13
8 74
9 43
10 80
11 59
12 95
13 33
14 68
15 35
16 64
17 59
18 22
19 10
20 60
21 36
22 20
23 49
24 67
25 69
26 83
27 99
COVERAGE_SECTION
2 10 178 130 124 59 86 97 93 125 156 32 
3 10 85 76 102 187 94 135 145 63 160 169 
4 10 56 190 73 77 31 148 36 34 58 183 
5 11 174 88 91 39 69 45 49 154 20 87 73 
6 11 62 120 14 90 162 50 147 33 100 140 95 
7 11 143 116 40 48 188 163 131 132 137 99 165 
8 11 109 32 170 125 44 108 133 17 171 123 16 
9 10 21 96 151 15 117 167 188 48 143 150 
10 10 112 37 47 79 160 145 78 61 157 102 
11 8 159 12 23 172 74 111 35 118 
12 6 159 11 74 172 23 111 
13 10 126 84 144 28 26 119 67 82 34 36 
14 11 147 50 100 6 95 98 62 81 152 30 72 
15 11 9 21 117 151 96 167 150 188 48 143 53 
16 11 54 133 108 168 41 185 107 44 171 105 170 
17 11 170 110 108 146 107 109 115 8 54 16 134 
18 11 182 71 60 99 131 180 175 163 137 55 129 
19 11 137 106 161 40 132 116 180 20 131 182 142 
20 11 154 161 69 43 80 19 132 45 106 29 174 
21 11 96 151 9 188 15 150 167 48 143 117 163 
22 11 103 70 30 149 72 98 101 89 25 122 138 
23 9 11 35 118 159 172 12 111 74 117 
24 11 164 173 113 152 147 98 14 50 22 103 70 
25 11 138 104 114 122 149 72 30 81 95 22 98 
26 10 28 144 119 67 66 52 13 126 84 92 
27 9 141 83 177 184 155 158 75 29 51 
28 10 26 119 67 144 13 126 66 52 84 92 
29 11 45 43 155 80 154 141 20 58 69 27 83 
30 11 72 149 98 122 22 103 25 95 138 81 100 
31 10 34 36 82 183 4 73 56 92 148 84 
32 11 125 93 59 8 156 97 109 2 86 123 178 
33 6 90 162 62 120 6 127 
34 10 31 36 82 183 84 92 4 73 56 139 
35 10 23 118 11 159 172 111 12 117 74 167 
36 10 34 31 92 73 56 4 84 82 39 88 
37 11 112 10 79 47 160 145 169 78 102 135 140 
38 5 186 157 61 10 65 
39 10 49 88 92 5 91 73 174 36 56 87 
40 11 116 132 137 19 7 131 161 182 106 163 20 
41 8 185 105 121 64 54 16 107 168 
42 9 148 183 77 139 4 31 82 34 190 
43 11 80 154 161 20 132 29 45 155 69 116 19 
44 10 171 133 123 168 179 16 54 8 68 108 
45 11 29 154 69 20 5 43 80 58 161 174 88 
46 7 166 146 134 186 157 38 17 
47 11 37 112 140 10 79 169 189 160 145 61 65 
48 10 188 143 96 7 167 21 165 9 151 163 
49 9 39 92 88 91 87 5 174 36 73 
50 11 147 14 100 95 98 81 6 30 72 122 62 
51 4 75 177 27 162 
52 9 66 26 119 144 67 28 13 126 84 
53 11 150 71 99 163 18 175 55 151 60 131 182 
54 10 16 41 133 107 108 185 105 168 44 171 
55 9 175 60 129 18 153 182 53 180 71 
56 10 73 4 190 58 88 36 31 77 34 39 
57 5 115 134 110 146 17 
58 10 190 56 73 4 45 29 88 5 77 177 
59 11 93 97 156 125 86 2 32 124 178 130 136 
60 10 175 129 55 18 180 182 153 71 131 99 
61 8 65 38 189 10 112 157 186 37 
62 10 6 90 120 162 33 14 147 50 140 100 
63 11 76 94 3 85 136 187 114 169 102 124 104 
64 7 185 41 121 105 54 168 16 
65 8 61 189 75 10 112 38 140 47 
66 9 52 26 119 144 67 28 13 126 84 
67 10 119 28 26 66 144 52 126 13 84 92 
68 7 168 64 171 185 133 44 16 
69 11 20 154 174 5 45 106 161 91 19 142 181 
70 11 101 103 22 89 128 30 149 72 98 113 25 
71 11 99 163 18 131 53 182 150 60 175 137 180 
72 11 30 149 122 98 25 22 138 95 103 104 81 
73 10 56 4 88 190 36 31 58 39 34 92 
74 4 12 159 172 11 
75 6 51 177 27 65 184 141 
76 10 85 3 63 94 136 187 102 124 135 145 
77 6 148 190 4 42 183 56 
78 9 145 135 160 102 187 79 37 10 112 
79 10 37 160 169 145 112 47 10 102 78 135 
80 10 43 154 161 20 132 29 155 45 116 69 
81 11 95 100 122 72 30 50 98 149 25 138 104 
82 10 139 34 31 183 84 36 42 148 13 126 
83 7 27 155 141 184 158 177 75 
84 10 13 126 34 82 36 92 31 144 28 26 
85 10 3 76 187 102 135 136 124 145 63 94 
86 11 97 156 59 124 93 136 2 125 178 32 130 
87 8 91 181 174 49 142 153 39 5 
88 10 39 5 73 49 56 92 91 174 36 58 
89 11 128 101 70 103 22 113 24 30 149 72 98 
90 5 162 33 62 120 6 
91 11 174 5 87 39 49 69 142 181 88 106 92 
92 10 49 39 36 88 34 31 73 84 56 5 
93 11 156 59 97 125 86 32 2 124 178 136 130 
94 11 63 76 3 85 169 104 114 138 25 79 102 
95 11 100 81 50 122 98 72 30 14 147 149 25 
96 11 21 9 151 188 48 167 143 15 117 150 163 
97 11 156 93 59 86 125 2 124 32 136 178 130 
98 11 30 72 50 95 100 149 22 147 122 103 14 
99 11 71 163 18 131 53 182 150 143 137 60 180 
100 11 95 81 50 98 14 147 122 30 72 6 149 
101 11 89 70 128 103 22 113 30 149 72 98 24 
102 9 145 135 160 78 187 79 3 85 37 
103 11 22 70 30 101 149 72 98 89 128 25 138 
104 11 138 25 114 122 149 72 30 81 22 95 94 
105 8 41 121 185 107 54 64 16 108 
106 11 19 142 180 137 181 69 182 161 20 174 154 
107 9 108 105 54 110 41 16 170 121 185 
108 10 170 110 107 17 54 16 105 133 41 8 
109 11 8 32 17 170 125 146 108 2 130 110 178 
110 10 170 17 108 107 115 54 146 16 105 109 
111 6 172 159 118 167 23 11 
112 11 10 37 47 79 160 145 61 78 157 102 169 
113 11 24 164 173 128 89 101 70 152 103 22 98 
114 11 104 138 25 149 122 72 30 94 22 81 103 
115 7 57 110 107 17 170 108 134 
116 11 40 132 7 137 19 161 131 20 106 143 182 
117 10 9 15 167 21 96 151 188 118 48 111 
118 10 23 35 111 117 11 172 159 167 12 15 
119 10 67 28 26 66 144 52 126 13 84 92 
120 7 162 62 90 6 33 189 140 
121 7 105 41 185 64 107 54 16 
122 11 72 25 81 149 138 30 104 95 100 98 114 
123 10 179 44 171 133 168 8 32 16 125 54 
124 10 2 86 136 178 187 59 130 97 156 93 
125 11 32 93 59 156 97 2 86 8 109 178 124 
126 10 13 84 28 144 26 119 67 82 34 139 
127 8 176 152 33 173 164 24 90 147 
128 11 89 101 70 113 103 22 24 164 30 98 149 
129 9 153 60 175 55 180 181 18 182 142 
130 8 178 2 124 187 135 59 78 86 
131 11 137 182 99 18 163 71 180 40 19 116 60 
132 11 116 40 161 19 20 43 137 80 154 7 106 
133 11 44 171 16 168 54 123 108 185 179 41 8 
134 6 166 146 46 57 115 17 
135 9 102 78 145 160 187 85 3 79 130 
136 11 124 86 85 76 97 187 156 2 59 3 93 
137 11 131 19 182 40 180 106 116 18 132 99 163 
138 11 25 104 114 122 149 72 30 81 22 95 98 
139 10 82 183 42 34 31 148 84 36 126 13 
140 10 47 189 37 6 112 120 10 65 169 79 
141 9 27 155 83 177 184 29 158 75 51 
142 11 181 106 153 180 174 129 182 19 91 87 69 
143 11 48 188 7 163 96 99 21 151 71 131 9 
144 10 26 28 119 13 66 67 126 52 84 92 
145 9 160 102 78 135 79 187 37 10 112 
146 9 166 17 46 134 170 110 109 115 108 
147 11 14 50 100 98 95 6 152 62 81 30 164 
148 8 42 77 183 4 190 31 34 56 
149 11 72 30 25 122 138 104 22 98 103 114 81 
150 11 53 151 71 99 163 21 96 9 143 18 15 
151 11 21 96 9 150 15 188 143 48 53 117 163 
152 11 164 24 173 127 176 147 14 113 50 98 33 
153 9 129 181 142 60 180 175 55 182 18 
154 11 20 161 69 43 45 80 132 29 19 106 174 
155 9 83 141 27 184 177 29 158 80 43 
156 11 97 93 59 86 125 32 2 124 136 178 130 
157 5 186 38 61 10 112 
158 4 184 83 27 141 
159 7 172 12 11 74 23 111 118 
160 9 145 102 78 79 135 37 10 112 169 
161 11 20 154 132 19 43 80 69 40 106 116 137 
162 5 90 120 33 62 6 
163 11 99 71 131 18 143 53 150 182 137 7 188 
164 11 24 173 152 113 147 14 98 176 127 50 22 
165 5 48 167 7 188 143 
166 6 46 146 134 17 186 157 
167 9 188 96 117 9 48 21 165 151 143 
168 8 133 171 44 16 68 54 185 41 
169 11 79 47 37 160 145 102 94 3 112 10 140 
170 11 17 110 108 107 109 8 54 146 16 115 133 
171 9 44 133 123 168 179 16 54 8 68 
172 7 159 111 12 11 74 23 118 
173 11 164 24 152 113 176 127 147 14 128 98 50 
174 11 91 5 69 142 181 87 106 39 88 20 154 
175 10 55 60 129 18 153 182 180 71 53 99 
176 8 127 152 173 164 24 33 147 14 
177 9 27 141 75 83 184 155 51 158 29 
178 8 130 2 124 187 59 86 135 97 
179 9 123 171 44 133 168 68 32 8 16 
180 11 182 18 137 60 106 131 142 153 181 129 19 
181 11 142 153 106 180 129 87 174 91 182 60 19 
182 11 180 18 131 137 60 71 99 19 106 175 129 
183 10 42 148 139 31 82 77 34 4 36 190 
184 7 158 27 83 141 177 155 75 
185 8 41 64 105 121 54 16 168 107 
186 4 157 38 61 10 
187 9 135 85 102 124 3 145 178 78 130 
188 10 48 96 143 21 167 9 151 7 163 165 
189 9 65 140 61 47 120 112 10 37 6 
190 7 4 56 77 73 58 148 31 
DEPOT_SECTION
   1
   -1
EOF
