NAME :  X-n294-kX-w58-c11.cctp
COMMENT : 	Adapted by Maziero, Usberti and Cavellucci from the Uchoa, Pecin, Pessoa, Poggi, Subramanian, and Vidal (2013)
TYPE :  CCTP
DIMENSION :    266
EDGE_WEIGHT_TYPE : 	EUC_2D	
CAPACITY : 	285
VERTICES_WITHIN_COVERAGE :  11
VERTICES_WITH_DEMAND : 	58
NODE_COORD_SECTION
1 500 500
2 940 231
3 721 848
4 618 44
5 993 145
6 636 512
7 274 496
8 245 945
9 449 812
10 29 650
11 399 8
12 548 19
13 769 717
14 221 850
15 980 233
16 477 922
17 498 720
18 136 832
19 351 663
20 58 67
21 889 569
22 28 334
23 804 928
24 900 138
25 393 403
26 982 609
27 79 299
28 684 582
29 169 252
30 405 925
31 875 191
32 674 112
33 576 537
34 539 63
35 338 657
36 210 209
37 676 568
38 949 826
39 572 890
40 210 615
41 737 46
42 30 527
43 131 724
44 671 842
45 727 566
46 507 497
47 524 134
48 167 665
49 819 108
50 929 582
51 713 738
52 352 626
53 887 547
54 176 645
55 611 289
56 457 532
57 11 147
58 958 60
59 587 187
60 790 956
61 974 63
62 306 225
63 961 969
64 238 736
65 758 840
66 88 44
67 507 811
68 768 476
69 51 914
70 494 445
71 953 33
72 922 45
73 748 111
74 544 867
75 477 596
76 322 79
77 439 150
78 586 764
79 214 599
80 168 480
81 925 138
82 797 107
83 751 783
84 738 913
85 703 73
86 681 886
87 627 27
88 887 310
89 478 345
90 571 600
91 834 858
92 657 233
93 126 769
94 317 934
95 477 559
96 542 94
97 370 432
98 520 621
99 666 178
100 631 484
101 820 918
102 687 877
103 752 983
104 157 720
105 709 898
106 300 878
107 728 617
108 66 59
109 991 657
110 717 47
111 463 177
112 100 392
113 438 722
114 43 247
115 71 476
116 69 560
117 211 73
118 471 14
119 115 806
120 194 337
121 921 320
122 104 495
123 36 456
124 500 152
125 277 601
126 962 575
127 588 181
128 941 728
129 108 931
130 11 814
131 209 800
132 129 525
133 126 149
134 31 219
135 97 324
136 495 122
137 759 480
138 780 669
139 786 769
140 759 159
141 282 633
142 361 17
143 957 103
144 711 939
145 544 544
146 27 318
147 665 656
148 523 586
149 539 783
150 824 841
151 833 988
152 16 637
153 91 472
154 41 388
155 623 780
156 660 155
157 700 658
158 946 783
159 607 815
160 87 771
161 658 874
162 527 853
163 459 577
164 352 829
165 937 639
166 554 438
167 833 692
168 421 999
169 908 447
170 469 163
171 509 61
172 246 352
173 488 408
174 600 359
175 510 460
176 342 691
177 95 216
178 787 465
179 700 873
180 659 568
181 478 525
182 988 980
183 303 119
184 241 353
185 28 661
186 724 842
187 2 660
188 210 180
189 840 841
190 843 9
191 430 92
192 265 453
193 209 673
194 20 952
195 673 659
196 185 335
197 138 655
198 263 155
199 769 741
200 831 678
201 401 625
202 212 360
203 192 520
204 596 376
205 449 679
206 579 295
207 333 352
208 837 944
209 377 500
210 797 97
211 65 235
212 440 877
213 439 326
214 407 621
215 550 241
216 169 68
217 253 243
218 76 852
219 642 116
220 598 124
221 564 374
222 997 660
223 14 98
224 774 9
225 791 671
226 299 800
227 575 109
228 865 708
229 290 897
230 953 348
231 895 790
232 25 242
233 761 886
234 909 336
235 501 846
236 731 4
237 337 71
238 106 973
239 623 580
240 978 669
241 884 559
242 10 910
243 390 602
244 451 134
245 324 221
246 569 98
247 672 867
248 69 790
249 584 520
250 193 416
251 954 912
252 761 734
253 192 875
254 88 353
255 777 38
256 98 68
257 642 658
258 824 694
259 238 825
260 137 683
261 357 593
262 541 423
263 537 99
264 137 539
265 719 213
266 68 173
DEMAND_SECTION
2 94
3 7
4 83
5 31
6 9
7 78
8 50
9 18
10 10
11 11
12 68
13 37
14 57
15 83
16 38
17 94
18 12
19 63
20 84
21 19
22 68
23 32
24 98
25 47
26 97
27 25
28 98
29 30
30 30
31 10
32 20
33 64
34 56
35 73
36 32
37 51
38 51
39 45
40 72
41 81
42 26
43 46
44 16
45 39
46 9
47 52
48 60
49 39
50 39
51 97
52 40
53 79
54 2
55 86
56 69
57 28
58 73
59 46
COVERAGE_SECTION
2 9 15 31 121 81 88 5 24 234 230 
3 11 186 179 65 102 44 105 247 86 233 84 161 
4 11 87 246 12 219 227 34 220 32 85 96 263 
5 11 143 81 61 15 58 24 2 71 72 31 49 
6 11 100 249 180 33 37 239 28 145 45 90 166 
7 11 192 203 209 125 80 250 97 79 261 40 141 
8 11 229 94 106 253 14 259 129 238 131 226 18 
9 11 67 235 212 162 113 149 164 17 74 16 30 
10 11 185 152 187 116 197 260 42 43 160 48 104 
11 10 142 118 237 191 76 171 244 183 77 12 
12 11 34 171 4 96 118 87 263 246 227 136 220 
13 11 252 199 138 225 139 51 258 83 167 200 157 
14 11 259 253 131 229 106 18 226 8 64 119 93 
15 10 2 5 121 81 31 230 88 24 234 143 
16 11 212 30 235 162 74 168 39 9 67 149 164 
17 11 113 205 149 67 78 98 9 75 235 214 148 
18 11 119 218 93 253 160 248 131 14 259 129 43 
19 11 35 176 52 201 214 261 243 141 125 205 113 
20 11 108 66 256 223 57 266 133 216 117 134 177 
21 10 241 53 50 126 165 26 169 200 240 109 
22 11 146 154 27 254 135 114 112 232 211 134 123 
23 11 101 60 208 233 151 84 91 103 150 144 189 
24 11 81 31 143 49 5 72 58 2 61 82 210 
25 11 97 207 213 173 209 89 70 175 192 56 46 
26 10 126 109 222 165 50 240 21 241 53 128 
27 11 135 146 254 22 114 211 232 177 134 112 154 
28 11 37 180 45 107 239 147 157 195 6 257 100 
29 11 36 177 188 217 196 120 27 135 211 133 202 
30 11 212 16 168 94 164 106 229 9 235 162 74 
31 9 24 81 2 49 15 82 88 140 143 
32 11 219 156 85 99 73 220 110 4 41 87 140 
33 11 249 145 90 239 6 148 100 46 180 181 95 
34 11 171 96 263 12 246 227 47 136 4 118 220 
35 11 19 52 176 141 261 201 243 214 125 205 113 
36 10 188 217 29 198 62 133 177 245 196 120 
37 11 28 180 45 239 6 107 147 195 157 100 257 
38 8 158 231 251 128 189 91 150 63 
39 11 74 162 159 235 161 16 67 247 86 44 149 
40 11 79 54 193 48 125 141 197 203 260 264 104 
41 11 110 255 236 85 224 73 210 82 32 49 87 
42 10 116 115 123 122 153 132 264 152 10 185 
43 11 104 260 93 160 48 197 119 54 248 193 18 
44 11 247 161 102 179 86 3 186 105 159 155 65 
45 11 28 37 107 180 137 157 68 239 6 195 147 
46 11 175 181 70 145 56 95 166 33 249 262 148 
47 11 124 136 263 96 227 246 170 34 244 111 171 
48 11 54 197 260 193 104 40 43 79 64 93 141 
49 11 82 210 73 140 255 24 31 190 41 224 81 
50 10 126 21 241 53 165 26 109 240 222 169 
51 11 252 199 83 13 139 157 195 147 138 155 225 
52 11 261 35 19 243 201 214 176 141 125 205 163 
53 9 241 21 50 126 169 165 26 178 68 
54 11 48 197 193 40 260 79 104 43 141 64 125 
55 9 206 174 92 215 204 221 59 127 99 
56 11 181 95 163 46 75 148 209 145 175 70 243 
57 11 223 266 134 20 232 211 108 114 177 133 256 
58 11 61 71 72 143 81 5 24 190 49 31 210 
59 11 127 220 215 227 99 156 47 92 219 246 124 
60 11 23 103 101 208 151 84 233 144 105 91 65 
61 11 58 71 143 72 5 81 24 190 49 31 15 
62 6 245 217 198 36 183 188 
63 11 182 251 208 151 38 101 23 91 60 189 150 
64 11 193 131 104 226 259 48 43 54 141 176 260 
65 11 186 3 233 83 150 179 84 105 139 91 102 
66 10 256 108 20 216 223 133 117 57 266 177 
67 11 235 149 162 9 74 17 78 212 159 39 113 
68 5 137 178 45 37 28 
69 11 242 194 129 218 238 130 18 248 119 253 160 
70 9 175 173 262 46 166 181 56 221 89 
71 11 58 72 61 143 81 190 24 5 49 210 82 
72 11 71 58 61 143 190 81 24 49 5 210 82 
73 11 82 140 210 85 41 49 110 32 255 156 224 
74 11 162 39 235 67 159 149 16 212 9 78 161 
75 11 163 95 148 98 56 181 214 201 145 243 205 
76 9 237 183 142 198 11 191 117 77 244 
77 7 244 170 111 191 124 136 47 
78 11 155 149 159 67 17 162 74 44 235 257 39 
79 11 40 54 125 193 141 48 203 197 264 132 260 
80 10 203 132 122 264 250 153 115 192 7 112 
81 11 24 143 5 31 58 61 72 2 71 15 49 
82 11 210 49 73 140 255 41 85 110 224 24 190 
83 10 139 199 252 65 51 186 13 3 150 44 
84 11 105 233 144 179 102 86 3 60 23 103 186 
85 11 110 41 32 73 236 219 255 87 4 156 224 
86 11 102 247 179 161 105 44 3 144 186 84 233 
87 11 4 12 85 219 110 246 34 32 227 220 236 
88 4 234 121 230 2 
89 9 213 173 221 262 70 25 206 175 166 
90 11 148 98 239 145 33 249 257 75 180 95 6 
91 9 189 150 101 23 65 233 208 231 139 
92 9 99 265 55 156 59 127 206 215 219 
93 11 119 160 43 104 248 18 260 131 218 48 197 
94 11 229 106 8 30 164 168 14 226 259 212 253 
95 11 163 56 181 75 148 46 145 98 214 243 33 
96 11 263 246 34 227 47 171 136 220 124 12 4 
97 11 25 209 207 192 7 173 70 213 56 89 175 
98 11 148 75 90 95 163 145 205 17 33 181 56 
99 9 156 92 265 32 219 127 59 220 140 
100 10 6 249 33 180 166 37 239 145 262 28 
101 11 23 208 60 91 233 151 150 189 84 103 65 
102 11 86 179 247 161 105 44 3 186 84 144 233 
103 11 60 144 84 23 151 101 208 105 233 86 179 
104 11 43 260 48 93 197 193 54 64 160 131 119 
105 11 179 86 102 84 144 247 3 233 161 186 44 
106 11 229 94 164 226 259 14 8 253 30 131 212 
107 11 157 45 28 195 37 138 147 225 180 257 13 
108 11 20 66 256 223 216 57 133 266 117 177 134 
109 10 222 240 26 165 126 128 50 158 21 228 
110 11 41 85 236 255 224 73 32 87 210 4 82 
111 8 170 77 124 244 136 47 191 215 
112 10 254 154 135 153 115 123 22 27 250 196 
113 11 205 17 9 176 201 19 214 67 149 35 52 
114 11 232 211 134 177 27 146 266 22 135 57 254 
115 10 153 122 123 42 132 116 112 264 154 80 
116 11 42 132 264 122 115 153 152 10 123 185 197 
117 10 216 198 183 188 76 256 133 66 237 36 
118 11 171 11 12 34 191 96 263 142 136 244 246 
119 11 18 93 160 248 218 43 131 104 253 130 14 
120 10 196 202 184 172 250 29 135 254 112 217 
121 5 234 88 230 2 15 
122 10 153 115 132 264 80 116 123 42 203 112 
123 10 115 153 154 42 122 112 116 254 132 22 
124 11 47 136 170 111 244 77 263 96 227 246 171 
125 11 141 79 40 52 261 35 19 193 7 54 176 
126 10 50 26 165 21 53 241 109 222 240 169 
127 11 59 220 215 227 156 99 47 219 246 92 124 
128 8 158 240 231 228 109 222 165 38 
129 11 238 69 218 194 242 253 18 119 8 14 248 
130 11 248 218 160 242 119 69 93 18 194 43 129 
131 11 259 14 64 253 18 93 226 119 104 43 106 
132 10 264 122 80 203 153 116 115 42 79 123 
133 11 266 177 256 188 216 36 211 20 108 29 66 
134 11 232 114 211 266 177 57 27 146 22 133 223 
135 11 254 27 112 22 146 154 196 114 211 120 29 
136 11 124 47 244 263 170 96 77 171 111 191 34 
137 7 68 178 45 37 6 28 100 
138 11 225 13 258 200 167 252 199 107 157 228 51 
139 9 199 83 252 13 65 51 150 258 167 
140 9 73 82 265 210 49 99 32 156 85 
141 11 125 35 52 40 19 79 176 193 261 54 64 
142 9 11 237 76 191 118 183 244 77 171 
143 11 58 61 81 5 24 72 71 31 2 15 49 
144 11 84 105 103 86 102 179 233 60 247 161 3 
145 11 33 148 249 46 90 95 181 98 75 239 56 
146 11 22 27 135 254 154 114 232 211 134 112 177 
147 11 195 257 157 107 28 239 180 37 51 45 90 
148 11 98 75 145 90 95 163 33 181 56 46 249 
149 11 67 78 162 235 17 159 74 155 9 39 113 
150 9 189 91 65 101 233 139 231 23 83 
151 11 208 60 23 101 103 84 233 63 91 144 251 
152 11 10 185 187 116 42 197 260 43 160 48 264 
153 10 115 122 123 132 80 112 264 42 116 154 
154 10 22 112 254 123 146 135 115 27 153 122 
155 11 159 78 44 149 51 161 247 102 74 3 186 
156 11 99 219 32 220 127 92 59 265 85 227 73 
157 11 195 147 107 257 28 51 138 13 225 37 45 
158 8 38 231 128 228 240 189 251 222 
159 11 155 78 44 149 161 74 39 247 162 67 102 
160 11 248 93 119 43 18 218 104 130 260 131 185 
161 11 247 86 102 44 179 105 3 186 159 144 39 
162 11 74 235 67 39 149 16 9 159 212 78 155 
163 11 95 75 56 181 148 214 243 98 201 145 46 
164 11 226 106 229 9 212 30 94 259 14 113 176 
165 10 240 26 109 50 222 126 21 128 241 228 
166 9 262 175 70 221 173 46 204 249 100 
167 9 258 200 228 225 138 13 199 252 139 
168 11 30 16 94 212 229 106 235 74 162 164 8 
169 5 53 230 234 241 178 
170 8 111 77 124 244 136 47 191 263 
171 11 34 96 263 12 118 136 246 47 227 191 124 
172 10 184 202 120 196 250 207 192 217 29 62 
173 9 70 262 175 89 166 221 46 25 213 
174 9 204 221 206 55 262 166 173 89 215 
175 9 70 46 262 166 173 181 56 145 249 
176 11 19 35 52 141 201 214 261 113 243 205 125 
177 11 211 266 114 134 133 232 29 27 135 57 36 
178 4 68 137 45 169 
179 11 102 86 105 247 3 186 44 161 84 233 65 
180 11 37 28 239 6 45 107 147 33 100 249 195 
181 11 56 95 46 163 145 75 175 148 70 33 209 
182 11 63 251 151 208 38 101 23 91 60 158 189 
183 9 76 198 237 117 245 62 188 142 36 
184 9 172 202 120 196 250 207 192 217 29 
185 11 10 187 152 116 197 260 43 160 42 248 48 
186 11 3 65 179 102 44 233 105 247 86 83 84 
187 11 185 152 10 116 42 197 260 160 43 248 130 
188 11 36 198 217 29 133 62 117 183 216 177 245 
189 9 150 91 231 101 65 139 233 23 208 
190 11 224 255 72 210 49 82 41 236 71 58 110 
191 10 244 77 136 170 171 118 11 111 124 237 
192 11 7 250 203 80 172 184 97 202 209 207 120 
193 11 48 54 40 64 104 197 260 79 141 43 125 
194 11 242 69 238 129 218 130 18 248 119 253 160 
195 11 147 157 257 107 28 51 37 180 239 138 45 
196 10 120 202 184 172 250 29 135 254 112 27 
197 11 260 48 54 104 43 193 40 79 10 185 93 
198 9 183 188 36 62 217 245 76 117 237 
199 10 252 13 139 83 51 258 138 225 167 200 
200 9 167 258 225 228 138 13 199 252 139 
201 11 214 243 52 261 19 35 205 163 75 176 95 
202 10 120 184 172 196 250 192 29 112 135 207 
203 11 80 264 132 79 7 122 40 192 250 153 125 
204 9 174 221 262 166 206 55 173 100 175 
205 11 113 17 201 214 75 98 243 19 163 176 52 
206 9 55 215 174 221 204 92 59 89 127 
207 10 25 172 97 184 213 202 192 62 245 217 
208 11 101 23 151 60 91 103 233 189 84 150 251 
209 11 97 56 261 25 7 243 181 163 95 192 214 
210 11 82 49 73 255 140 41 224 110 85 190 24 
211 11 114 177 134 232 266 27 146 135 57 29 133 
212 11 16 30 9 235 162 67 164 74 168 39 94 
213 6 89 25 173 207 97 70 
214 11 201 243 52 261 163 19 205 75 35 95 176 
215 10 206 59 127 55 124 92 111 47 170 89 
216 10 117 256 66 133 108 20 188 198 183 266 
217 10 36 62 245 188 29 198 172 120 184 196 
218 11 119 248 18 69 130 160 129 242 93 194 253 
219 11 32 156 220 99 227 85 246 4 127 59 87 
220 11 227 246 219 127 59 96 263 156 47 32 4 
221 9 204 174 262 166 206 173 89 55 70 
222 10 109 240 26 165 128 126 50 158 228 21 
223 11 57 20 108 256 66 266 134 133 177 232 211 
224 11 255 236 41 110 190 210 85 82 73 49 32 
225 11 138 258 200 167 13 252 199 107 228 157 139 
226 11 164 259 106 64 131 14 229 176 253 94 19 
227 11 246 220 96 263 47 34 219 127 4 59 136 
228 8 167 258 200 128 225 231 138 13 
229 11 106 94 8 14 259 164 226 253 30 131 212 
230 6 121 234 88 169 2 15 
231 8 158 38 189 128 150 228 91 139 
232 11 114 134 211 177 146 27 266 22 57 135 254 
233 11 84 65 105 3 186 23 179 101 144 102 60 
234 5 121 88 230 2 169 
235 11 162 67 74 9 212 149 16 39 159 78 30 
236 11 41 224 110 255 85 87 73 190 210 4 32 
237 9 76 142 183 11 191 198 117 77 244 
238 11 129 69 194 242 218 253 8 18 119 14 130 
239 11 180 37 90 28 33 6 249 257 145 147 195 
240 10 109 222 165 26 128 126 50 158 228 21 
241 9 21 53 50 126 165 26 169 200 178 
242 11 69 194 218 130 129 238 248 18 119 160 93 
243 11 201 214 261 52 19 163 35 75 56 95 205 
244 10 77 170 111 136 191 124 47 171 263 96 
245 6 62 217 198 183 36 188 
246 11 227 96 263 220 34 47 171 4 219 136 12 
247 11 161 102 86 44 179 105 3 186 84 144 159 
248 11 160 119 93 218 130 18 43 104 69 260 242 
249 11 33 145 6 100 239 46 90 166 180 148 175 
250 10 202 80 120 184 192 196 172 112 203 7 
251 11 63 182 38 208 158 91 101 189 231 151 150 
252 10 199 13 139 51 83 138 225 258 167 200 
253 11 14 259 18 131 8 229 129 119 106 218 93 
254 10 135 112 27 154 22 146 196 120 114 123 
255 11 224 41 236 110 210 82 190 73 49 85 140 
256 10 66 108 20 216 133 223 266 117 57 177 
257 11 147 195 157 239 28 90 180 107 37 51 78 
258 9 167 200 225 228 138 13 199 252 139 
259 11 14 131 226 253 106 64 229 18 164 8 119 
260 11 197 48 43 104 54 193 93 40 160 185 10 
261 11 52 243 201 214 35 19 125 141 209 176 163 
262 9 166 175 70 221 173 204 46 174 89 
263 11 96 246 34 47 227 171 136 124 220 12 170 
264 11 132 122 203 80 116 153 115 79 40 42 54 
265 7 99 92 140 156 73 32 219 
266 11 177 134 211 57 133 114 232 223 20 256 108 
DEPOT_SECTION
   1
   -1
EOF
