NAME :  X-n200-kX-w79-c7.cctp
COMMENT : 	Adapted by Maziero, Usberti and Cavellucci from the Uchoa, Pecin, Pessoa, Poggi, Subramanian, and Vidal (2013)
TYPE :  CCTP
DIMENSION :    196
EDGE_WEIGHT_TYPE : 	EUC_2D	
CAPACITY : 	402
VERTICES_WITHIN_COVERAGE :  7
VERTICES_WITH_DEMAND : 	79
NODE_COORD_SECTION
1 957 135
2 149 141
3 1 96
4 228 268
5 781 529
6 867 797
7 109 53
8 13 449
9 133 293
10 259 172
11 908 678
12 930 867
13 903 766
14 143 263
15 735 501
16 259 253
17 59 62
18 737 464
19 925 587
20 16 404
21 893 720
22 131 188
23 226 228
24 285 68
25 113 323
26 67 307
27 797 381
28 804 573
29 892 838
30 307 141
31 40 347
32 933 708
33 906 725
34 242 231
35 310 255
36 183 308
37 57 153
38 122 254
39 1 437
40 83 548
41 872 427
42 118 317
43 100 402
44 54 335
45 180 118
46 875 774
47 792 774
48 92 166
49 890 821
50 184 6
51 189 299
52 230 234
53 61 728
54 147 501
55 180 371
56 756 455
57 121 248
58 747 756
59 890 825
60 275 63
61 67 131
62 96 15
63 709 611
64 893 822
65 121 170
66 770 580
67 122 320
68 695 626
69 712 670
70 101 98
71 824 813
72 256 265
73 726 553
74 248 359
75 864 742
76 149 74
77 872 329
78 847 817
79 864 575
80 976 818
81 193 126
82 79 88
83 97 403
84 284 424
85 907 842
86 808 590
87 146 120
88 66 480
89 824 634
90 9 421
91 152 157
92 318 223
93 853 307
94 184 277
95 268 379
96 183 236
97 93 217
98 207 439
99 280 417
100 80 110
101 20 67
102 142 384
103 165 63
104 62 410
105 176 261
106 223 301
107 830 608
108 7 164
109 188 108
110 770 537
111 168 99
112 641 321
113 174 165
114 886 816
115 53 303
116 216 377
117 214 261
118 104 44
119 393 114
120 222 51
121 261 355
122 894 577
123 35 285
124 93 509
125 127 150
126 873 468
127 60 105
128 133 232
129 147 252
130 778 547
131 46 419
132 82 381
133 83 80
134 43 466
135 246 330
136 337 216
137 83 205
138 9 55
139 127 123
140 121 449
141 72 189
142 771 491
143 73 201
144 181 188
145 727 549
146 26 332
147 59 359
148 798 525
149 714 613
150 91 419
151 229 353
152 875 568
153 241 285
154 236 368
155 45 86
156 446 310
157 128 366
158 163 168
159 322 272
160 958 864
161 754 814
162 136 184
163 111 119
164 120 300
165 686 372
166 32 68
167 224 70
168 113 76
169 228 73
170 216 34
171 218 360
172 157 167
173 84 263
174 330 253
175 903 822
176 900 858
177 270 381
178 15 37
179 79 523
180 207 329
181 130 274
182 870 860
183 791 305
184 13 535
185 800 823
186 224 244
187 580 504
188 88 389
189 3 172
190 62 499
191 791 692
192 186 373
193 300 26
194 52 204
195 163 305
196 135 270
DEMAND_SECTION
2 83
3 52
4 73
5 70
6 86
7 51
8 74
9 84
10 52
11 93
12 91
13 89
14 64
15 75
16 64
17 61
18 2
19 86
20 95
21 100
22 73
23 61
24 83
25 60
26 85
27 48
28 66
29 70
30 91
31 54
32 55
33 64
34 56
35 62
36 89
37 100
38 96
39 67
40 21
41 15
42 55
43 58
44 84
45 85
46 91
47 55
48 79
49 79
50 82
51 91
52 89
53 22
54 31
55 85
56 22
57 72
58 59
59 95
60 99
61 98
62 54
63 96
64 69
65 97
66 67
67 80
68 65
69 86
70 90
71 72
72 69
73 80
74 72
75 62
76 78
77 24
78 88
79 70
80 71
COVERAGE_SECTION
2 7 91 87 125 172 139 158 113 
3 7 101 138 166 155 127 178 17 
4 7 117 153 186 72 106 16 52 
5 7 110 148 130 142 28 66 15 
6 7 46 114 78 49 59 64 175 
7 7 118 168 133 62 76 70 82 
8 7 39 90 134 20 131 88 104 
9 7 164 181 196 42 67 14 195 
10 7 30 34 23 52 92 81 144 
11 7 32 21 33 75 13 19 89 
12 7 160 176 85 29 175 59 64 
13 7 46 33 75 21 6 114 175 
14 7 196 129 181 38 57 9 105 
15 7 18 142 145 110 56 73 5 
16 7 72 34 4 52 186 153 23 
17 7 155 166 133 82 101 127 118 
18 7 56 15 142 5 110 145 148 
19 7 122 152 79 11 107 89 86 
20 7 90 131 39 8 104 31 147 
21 7 33 75 32 11 13 46 6 
22 7 162 65 172 91 125 158 128 
23 7 52 34 186 117 4 16 96 
24 7 60 193 169 167 120 30 170 
25 7 42 67 164 9 157 26 181 
26 7 115 44 123 173 31 146 25 
27 7 183 56 41 77 93 18 165 
28 7 86 66 130 107 148 5 110 
29 7 59 64 85 49 175 176 114 
30 7 10 24 136 92 60 119 169 
31 7 44 146 147 115 26 132 20 
32 7 33 11 21 13 75 46 6 
33 7 21 32 13 75 11 46 6 
34 7 52 23 186 16 72 4 117 
35 7 174 159 92 136 16 72 34 
36 7 51 195 94 180 106 105 9 
37 7 61 48 141 127 100 108 143 
38 7 57 196 181 14 128 129 173 
39 7 8 90 20 131 134 104 88 
40 7 179 124 190 88 184 54 134 
41 7 126 27 77 56 142 93 148 
42 7 67 25 164 9 181 195 157 
43 7 83 188 150 132 104 102 157 
44 7 31 147 146 26 115 123 132 
45 7 109 81 111 87 2 113 91 
46 7 6 13 75 114 49 64 78 
47 7 58 71 185 161 78 6 75 
48 7 65 141 37 125 137 143 61 
49 7 64 59 114 175 29 85 6 
50 7 170 120 103 167 76 169 62 
51 7 36 94 195 106 180 105 117 
52 7 23 34 186 117 4 16 72 
53 7 40 184 179 124 190 54 88 
54 7 124 140 179 40 88 190 98 
55 7 192 116 102 171 180 151 157 
56 7 18 142 15 5 148 110 27 
57 7 38 128 129 196 14 181 173 
58 7 47 161 191 185 69 71 78 
59 7 49 64 114 29 175 85 176 
60 7 24 193 169 167 120 170 30 
61 7 37 100 127 48 82 163 70 
62 7 118 7 17 168 133 82 76 
63 7 149 68 69 73 145 66 130 
64 7 49 59 114 175 29 85 6 
65 7 22 125 162 48 91 172 2 
66 7 130 28 86 110 5 73 145 
67 7 42 25 164 9 195 157 181 
68 7 63 149 69 73 145 66 130 
69 7 68 149 63 191 58 66 73 
70 7 163 82 100 133 168 139 127 
71 7 78 185 6 47 114 46 49 
72 7 16 153 4 34 186 52 117 
73 7 145 110 66 130 15 5 63 
74 7 121 154 151 95 135 171 177 
75 7 46 21 33 13 6 32 78 
76 7 103 111 168 7 87 109 45 
77 7 93 183 27 41 126 56 18 
78 7 71 6 114 49 59 64 185 
79 7 152 122 107 86 28 19 89 
80 7 160 12 85 175 64 29 49 
81 7 45 109 111 113 2 87 91 
82 7 133 100 70 127 17 155 168 
83 7 43 150 188 132 104 157 102 
84 5 99 177 95 121 74 
85 7 29 176 175 59 64 49 114 
86 7 28 107 66 89 130 79 110 
87 7 139 2 111 45 163 125 91 
88 7 190 134 124 179 8 140 131 
89 7 107 86 28 191 79 66 152 
90 7 20 39 8 131 104 134 31 
91 7 172 2 158 113 125 162 65 
92 7 136 174 35 159 16 72 34 
93 7 77 183 27 41 126 56 165 
94 7 105 51 36 117 195 96 14 
95 7 177 121 74 154 99 151 84 
96 7 105 129 117 94 186 23 52 
97 6 137 143 141 57 128 194 
98 5 116 192 55 99 154 
99 5 84 177 95 121 74 
100 7 127 82 70 61 133 163 155 
101 7 166 138 178 155 3 17 127 
102 7 157 55 192 43 83 188 132 
103 7 76 111 109 168 7 45 120 
104 7 131 150 188 132 83 43 20 
105 7 94 96 129 14 117 51 196 
106 7 153 180 4 51 135 36 117 
107 7 89 86 28 79 152 66 122 
108 6 189 37 194 3 61 141 
109 7 45 81 111 87 2 103 76 
110 7 130 5 148 66 145 142 73 
111 7 45 109 87 76 103 81 2 
112 7 165 183 27 18 56 187 156 
113 7 158 172 91 144 2 162 81 
114 7 49 64 59 175 29 6 85 
115 7 26 123 44 146 31 173 147 
116 6 171 154 151 192 55 74 
117 7 4 186 52 94 23 153 105 
118 7 7 62 168 133 17 82 70 
119 7 30 136 24 193 60 92 10 
120 7 170 167 169 60 103 50 24 
121 7 74 95 154 177 135 151 171 
122 7 152 79 19 107 86 28 89 
123 6 115 26 146 44 173 31 
124 7 179 190 40 88 54 134 140 
125 7 65 2 91 139 172 162 163 
126 7 41 148 152 142 79 5 122 
127 7 100 155 82 61 133 70 17 
128 7 57 129 38 14 196 181 97 
129 7 14 196 128 38 57 181 105 
130 7 110 5 148 66 28 145 73 
131 7 104 20 90 8 150 134 39 
132 7 188 83 43 147 104 150 157 
133 7 82 70 17 100 168 127 7 
134 7 88 8 190 131 39 90 104 
135 7 74 121 151 106 154 180 171 
136 7 92 174 35 159 30 16 10 
137 6 143 97 141 194 48 22 
138 7 101 178 166 3 155 17 127 
139 7 163 87 125 2 70 91 65 
140 7 150 43 83 54 88 124 102 
141 7 143 137 194 48 97 37 65 
142 7 15 5 56 18 148 110 130 
143 6 137 141 194 97 48 37 
144 7 113 158 172 91 162 96 22 
145 7 73 110 15 130 66 5 63 
146 7 31 44 115 147 26 123 20 
147 7 31 44 132 188 146 104 26 
148 7 5 110 130 142 28 66 86 
149 7 63 68 69 73 66 145 130 
150 7 83 43 104 188 132 140 131 
151 7 171 154 74 116 135 121 180 
152 7 79 122 19 107 28 86 89 
153 7 4 106 72 117 16 186 135 
154 6 74 151 171 116 121 95 
155 7 166 127 17 101 82 133 100 
156 7 174 159 136 35 92 121 177 
157 7 102 25 43 67 188 83 132 
158 7 172 113 91 144 2 162 22 
159 7 35 174 92 136 16 72 153 
160 7 12 80 85 176 175 29 64 
161 7 185 47 58 71 78 6 182 
162 7 22 65 172 91 158 125 113 
163 7 139 70 100 87 125 168 2 
164 7 9 42 67 25 181 196 195 
165 7 112 18 56 27 183 15 142 
166 7 101 155 138 17 178 3 127 
167 7 169 120 170 60 109 103 24 
168 7 7 70 133 118 76 82 163 
169 7 167 120 170 60 109 24 81 
170 7 120 167 169 50 103 60 24 
171 7 151 116 154 74 180 192 55 
172 7 158 91 113 2 162 144 22 
173 6 38 57 26 97 181 115 
174 7 35 159 92 136 16 72 34 
175 7 64 49 59 114 29 85 176 
176 7 85 29 182 12 59 175 64 
177 6 95 121 74 154 99 84 
178 7 138 101 166 17 155 3 133 
179 7 124 40 190 88 134 184 54 
180 7 36 106 151 171 51 135 116 
181 7 196 14 9 38 57 129 164 
182 7 176 29 59 85 49 64 114 
183 7 93 27 77 165 41 112 56 
184 7 190 179 40 134 88 124 8 
185 7 71 78 161 47 6 182 58 
186 7 52 23 117 34 4 16 72 
187 7 73 145 15 18 63 68 165 
188 7 132 83 43 150 104 147 157 
189 6 108 37 194 141 3 61 
190 7 88 179 124 134 40 184 8 
191 7 89 58 47 69 75 107 86 
192 7 55 116 171 102 151 180 154 
193 7 24 60 120 170 169 167 30 
194 5 143 141 137 97 37 
195 7 36 51 9 94 164 67 181 
196 7 181 14 38 129 9 57 164 
DEPOT_SECTION
   1
   -1
EOF
