NAME :  X-n237-kX-w94-c9.cctp
COMMENT : 	Adapted by Maziero, Usberti and Cavellucci from the Uchoa, Pecin, Pessoa, Poggi, Subramanian, and Vidal (2013)
TYPE :  CCTP
DIMENSION :    233
EDGE_WEIGHT_TYPE : 	EUC_2D	
CAPACITY : 	18
VERTICES_WITHIN_COVERAGE :  9
VERTICES_WITH_DEMAND : 	94
NODE_COORD_SECTION
1 0 0
2 80 386
3 521 652
4 597 936
5 836 69
6 503 987
7 618 169
8 115 662
9 312 175
10 78 83
11 364 317
12 12 454
13 980 537
14 403 383
15 144 443
16 739 464
17 886 511
18 904 106
19 794 539
20 821 608
21 781 347
22 336 490
23 101 736
24 365 68
25 618 684
26 282 286
27 311 806
28 557 793
29 54 50
30 651 264
31 619 661
32 156 994
33 950 369
34 183 707
35 673 856
36 5 651
37 867 449
38 946 914
39 75 82
40 522 8
41 573 493
42 833 699
43 881 677
44 201 77
45 536 593
46 67 895
47 99 113
48 120 133
49 428 231
50 701 845
51 190 508
52 431 218
53 626 782
54 113 914
55 569 117
56 865 639
57 708 9
58 511 977
59 104 838
60 229 467
61 956 568
62 431 929
63 615 707
64 913 42
65 854 504
66 236 176
67 377 404
68 380 468
69 590 752
70 620 146
71 616 746
72 675 114
73 556 640
74 99 777
75 12 194
76 920 116
77 846 384
78 525 23
79 199 348
80 813 875
81 757 593
82 573 358
83 264 448
84 132 556
85 289 765
86 246 267
87 245 876
88 235 592
89 648 790
90 378 754
91 636 653
92 555 181
93 738 446
94 130 836
95 882 942
96 102 787
97 669 905
98 490 45
99 883 547
100 971 638
101 256 227
102 775 935
103 489 411
104 514 866
105 129 566
106 7 118
107 415 820
108 161 160
109 27 21
110 695 395
111 64 937
112 121 847
113 770 896
114 264 607
115 174 871
116 20 546
117 986 803
118 379 259
119 728 180
120 686 273
121 133 869
122 157 499
123 649 934
124 999 236
125 670 615
126 978 479
127 646 823
128 193 565
129 440 534
130 26 411
131 114 126
132 661 528
133 946 326
134 223 602
135 695 420
136 172 317
137 116 701
138 940 438
139 732 172
140 824 136
141 837 507
142 125 570
143 542 708
144 441 235
145 808 413
146 68 374
147 582 768
148 220 519
149 593 651
150 71 712
151 26 569
152 918 629
153 165 731
154 941 282
155 285 379
156 227 977
157 788 366
158 33 507
159 597 983
160 299 617
161 799 35
162 414 697
163 529 178
164 235 743
165 118 484
166 349 554
167 477 280
168 591 189
169 807 670
170 163 621
171 874 932
172 245 24
173 960 27
174 139 44
175 45 584
176 281 434
177 684 501
178 284 414
179 20 905
180 80 256
181 57 354
182 306 107
183 167 289
184 952 66
185 862 741
186 240 516
187 806 277
188 782 700
189 82 208
190 951 550
191 710 44
192 537 764
193 407 191
194 629 133
195 608 911
196 760 125
197 727 517
198 295 706
199 679 836
200 73 420
201 637 903
202 297 723
203 55 920
204 676 550
205 933 456
206 812 155
207 326 903
208 846 181
209 116 175
210 344 992
211 28 667
212 439 245
213 891 450
214 224 732
215 156 734
216 390 441
217 663 560
218 115 896
219 655 766
220 210 731
221 42 176
222 505 517
223 923 66
224 490 844
225 342 859
226 210 644
227 313 79
228 399 775
229 79 559
230 876 843
231 631 889
232 182 284
233 471 120
DEMAND_SECTION
2 1
3 1
4 1
5 1
6 1
7 1
8 1
9 1
10 1
11 1
12 1
13 1
14 1
15 1
16 1
17 1
18 1
19 1
20 1
21 1
22 1
23 1
24 1
25 1
26 1
27 1
28 1
29 1
30 1
31 1
32 1
33 1
34 1
35 1
36 1
37 1
38 1
39 1
40 1
41 1
42 1
43 1
44 1
45 1
46 1
47 1
48 1
49 1
50 1
51 1
52 1
53 1
54 1
55 1
56 1
57 1
58 1
59 1
60 1
61 1
62 1
63 1
64 1
65 1
66 1
67 1
68 1
69 1
70 1
71 1
72 1
73 1
74 1
75 1
76 1
77 1
78 1
79 1
80 1
81 1
82 1
83 1
84 1
85 1
86 1
87 1
88 1
89 1
90 1
91 1
92 1
93 1
94 1
95 1
COVERAGE_SECTION
2 9 146 200 181 130 15 12 165 136 79 
3 9 73 143 45 149 31 25 63 192 91 
4 9 195 159 123 201 231 97 58 6 104 
5 9 161 140 18 64 223 206 196 76 208 
6 9 58 62 159 4 104 195 224 123 201 
7 9 70 168 194 92 55 72 163 30 119 
8 9 137 170 150 23 34 215 153 211 142 
9 9 182 66 101 193 227 118 86 26 24 
10 9 39 47 29 131 48 174 106 109 209 
11 9 118 14 26 67 155 212 49 144 167 
12 9 130 158 200 116 2 146 165 181 151 
13 9 190 61 126 205 17 99 100 138 152 
14 9 67 216 11 68 103 155 178 22 118 
15 9 165 122 200 51 2 60 146 148 79 
16 9 93 197 135 177 110 145 19 132 141 
17 9 65 99 141 213 37 205 190 61 138 
18 9 76 223 184 64 5 140 208 173 206 
19 9 141 81 65 197 20 99 16 17 93 
20 9 56 169 81 19 99 43 42 152 188 
21 8 157 145 187 77 110 93 135 120 
22 9 68 166 216 176 83 178 67 186 60 
23 9 137 150 74 96 215 153 8 34 211 
24 9 227 182 233 9 98 172 193 44 52 
25 9 31 63 91 149 71 69 73 143 125 
26 9 86 101 11 155 232 118 79 136 9 
27 9 85 225 202 90 228 87 207 164 198 
28 9 147 192 69 53 71 224 104 143 89 
29 9 39 109 10 47 106 174 131 48 221 
30 7 120 168 7 119 70 82 139 
31 9 91 25 149 63 73 125 71 143 69 
32 9 156 54 218 111 115 203 121 46 87 
33 9 133 138 154 205 213 77 126 37 124 
34 9 153 220 215 214 164 137 226 8 23 
35 9 199 50 127 97 231 201 89 123 195 
36 9 211 175 151 150 116 8 229 137 23 
37 9 213 65 17 141 205 77 145 138 99 
38 9 95 171 230 117 80 102 113 185 42 
39 9 10 29 47 131 48 174 106 109 221 
40 9 78 98 55 233 194 24 70 163 92 
41 9 222 132 45 177 217 103 204 82 129 
42 9 169 185 188 43 56 20 152 81 230 
43 9 56 42 152 185 169 20 100 188 99 
44 9 172 174 108 48 131 66 47 182 227 
45 9 73 3 149 222 31 41 129 143 91 
46 9 203 111 179 218 54 59 121 112 94 
47 9 131 48 10 39 209 29 108 174 221 
48 9 131 47 209 108 10 39 189 221 174 
49 9 52 144 212 193 118 167 11 163 233 
50 9 199 35 127 97 89 231 113 201 219 
51 9 148 122 186 60 128 84 165 15 105 
52 9 49 144 212 193 118 167 163 233 11 
53 9 89 219 71 127 147 69 28 63 199 
54 9 218 121 46 111 203 112 115 59 94 
55 9 70 194 92 7 163 168 233 78 72 
56 9 43 20 152 169 42 99 185 188 100 
57 9 191 161 72 196 5 194 70 139 119 
58 9 6 159 62 4 104 195 224 123 201 
59 9 112 94 121 96 218 74 46 54 115 
60 9 83 186 148 51 176 178 122 15 128 
61 9 190 13 100 152 99 17 126 205 56 
62 9 6 58 224 104 210 207 107 225 228 
63 9 25 71 31 69 91 149 147 219 143 
64 9 223 184 173 18 76 5 161 140 206 
65 9 141 17 99 37 213 19 205 145 190 
66 9 101 9 108 86 182 44 26 209 232 
67 9 14 216 68 11 178 22 155 176 103 
68 9 216 22 67 14 129 166 176 178 83 
69 9 147 71 53 63 28 192 143 219 89 
70 9 194 7 168 55 72 92 163 119 139 
71 9 69 53 63 147 219 89 25 28 192 
72 9 194 70 191 7 139 119 196 55 57 
73 9 3 149 45 31 143 25 91 63 69 
74 9 96 23 59 94 150 215 112 137 153 
75 9 221 189 106 180 209 47 131 48 10 
76 9 18 223 184 64 5 140 173 208 206 
77 9 145 157 37 21 213 33 138 205 187 
78 9 40 98 55 233 194 70 163 92 24 
79 9 136 232 183 155 86 26 178 15 83 
80 9 113 102 230 171 95 50 38 199 35 
81 9 19 20 197 125 169 204 217 188 132 
82 9 103 30 167 110 41 135 120 168 14 
83 9 176 178 60 155 186 22 148 51 68 
84 9 105 142 229 122 128 170 165 51 175 
85 9 202 27 164 198 214 220 90 225 228 
86 9 26 101 232 183 136 66 79 9 155 
87 9 115 207 27 225 156 121 85 94 112 
88 9 134 114 128 226 160 148 186 170 51 
89 9 53 219 127 71 199 69 147 35 50 
90 9 228 162 107 27 202 85 198 225 164 
91 9 31 25 149 125 63 73 71 217 69 
92 9 163 168 7 55 70 194 233 144 167 
93 9 16 135 110 197 145 177 157 21 19 
94 9 112 59 121 96 115 218 74 54 46 
95 9 171 38 80 230 102 113 117 185 50 
96 9 74 23 59 94 112 215 150 153 137 
97 9 201 123 231 35 195 50 199 4 127 
98 9 78 40 233 55 24 163 92 70 194 
99 9 17 65 141 190 61 20 19 152 56 
100 9 152 61 190 43 13 56 99 185 42 
101 9 86 66 26 9 232 183 108 136 118 
102 9 113 80 171 95 97 50 123 35 230 
103 9 14 82 216 222 67 41 68 129 167 
104 9 224 28 62 195 192 4 107 58 147 
105 9 142 84 229 128 170 122 165 51 175 
106 9 221 75 39 10 29 47 109 131 48 
107 9 228 90 224 225 27 104 62 207 162 
108 9 209 48 131 66 47 44 189 10 39 
109 9 29 39 10 106 174 47 131 48 221 
110 9 135 93 16 157 21 177 145 120 197 
111 9 203 46 54 179 218 121 59 112 32 
112 9 94 59 121 218 115 96 54 46 74 
113 9 102 80 50 97 35 199 171 230 95 
114 9 88 160 134 226 128 186 148 166 170 
115 9 121 94 112 218 87 54 59 46 96 
116 9 151 158 175 229 12 36 142 105 84 
117 9 230 38 185 43 100 171 95 42 80 
118 9 49 11 212 52 144 193 167 26 9 
119 6 139 196 72 206 120 140 
120 7 30 119 139 21 187 110 7 
121 9 112 218 94 115 59 54 46 96 203 
122 9 51 165 15 84 148 105 128 142 60 
123 9 201 97 195 231 4 159 35 199 50 
124 8 154 133 33 76 18 208 184 223 
125 9 91 217 204 31 149 25 132 81 63 
126 9 205 138 13 190 61 213 17 33 37 
127 9 89 199 35 53 219 50 231 201 71 
128 9 134 88 148 51 84 105 170 142 186 
129 9 222 68 166 216 22 45 103 41 3 
130 9 12 200 146 2 181 158 165 15 116 
131 9 48 47 209 10 108 39 174 189 221 
132 9 204 217 177 197 125 41 16 93 135 
133 9 33 154 124 138 77 205 213 37 187 
134 9 88 114 226 128 170 160 148 186 51 
135 9 110 93 16 177 197 157 21 132 145 
136 9 183 232 79 86 180 26 2 146 181 
137 9 23 8 150 215 153 34 74 96 170 
138 9 205 213 126 33 37 17 13 65 77 
139 5 119 196 72 206 140 
140 7 206 208 196 5 18 76 139 
141 9 65 17 19 99 37 213 145 20 16 
142 9 105 84 229 170 128 122 175 165 51 
143 9 192 3 69 73 147 63 149 25 71 
144 9 212 49 52 193 167 118 163 11 233 
145 9 77 157 37 21 93 16 213 141 65 
146 9 2 181 200 130 12 15 136 180 165 
147 9 69 28 71 192 53 63 89 143 219 
148 9 186 51 60 128 122 88 134 83 84 
149 9 31 73 25 91 63 3 143 45 125 
150 9 23 137 211 8 74 96 215 36 153 
151 9 116 175 229 158 36 211 142 105 84 
152 9 56 100 43 61 190 99 20 42 13 
153 9 215 34 220 137 214 23 164 74 96 
154 8 133 124 33 187 77 208 138 76 
155 9 178 176 83 79 26 67 11 60 14 
156 9 32 87 210 115 207 54 218 121 225 
157 9 21 145 77 187 93 110 135 16 37 
158 9 116 12 151 229 175 165 130 200 84 
159 9 4 123 195 58 201 6 231 97 104 
160 9 114 88 134 166 198 226 202 186 128 
161 9 5 191 57 196 140 64 206 18 223 
162 9 90 228 3 198 202 107 143 160 192 
163 9 92 168 55 233 7 70 144 52 194 
164 9 214 220 85 34 202 198 153 215 27 
165 9 122 15 84 51 200 105 229 142 158 
166 9 22 160 68 129 114 186 88 216 148 
167 9 212 144 49 52 118 193 163 11 82 
168 9 7 92 70 163 194 55 30 72 120 
169 9 42 188 20 56 43 185 81 152 19 
170 9 226 8 134 128 142 105 84 88 34 
171 9 95 38 80 230 102 113 117 185 50 
172 9 44 227 182 174 24 66 108 9 48 
173 9 184 64 223 18 76 5 161 140 208 
174 9 44 10 39 47 29 131 48 172 109 
175 9 151 229 116 36 158 142 211 105 84 
176 9 178 83 155 60 22 186 67 68 148 
177 9 132 197 204 217 16 93 135 110 41 
178 9 176 155 83 60 22 67 79 216 68 
179 9 203 46 111 54 218 59 112 121 94 
180 9 189 209 221 75 183 181 232 136 146 
181 9 146 2 130 200 180 12 136 15 183 
182 9 227 9 24 66 172 44 101 193 108 
183 9 232 136 79 86 180 101 26 189 209 
184 9 223 173 64 76 18 5 140 161 208 
185 9 42 43 169 188 56 230 152 20 117 
186 9 148 60 51 128 83 88 122 134 176 
187 5 21 157 208 77 120 
188 9 169 42 185 20 43 56 81 125 219 
189 9 209 180 221 75 48 131 108 47 106 
190 9 61 13 99 17 126 152 100 205 65 
191 9 57 72 161 196 194 5 139 70 119 
192 9 28 147 69 143 71 53 224 63 104 
193 9 52 49 144 212 118 9 233 167 163 
194 9 70 7 72 55 168 92 119 139 163 
195 9 4 201 231 123 97 159 35 127 199 
196 7 139 206 119 140 72 5 191 
197 9 177 16 204 132 19 93 217 81 135 
198 9 202 85 164 214 160 220 90 27 114 
199 9 35 50 127 89 97 231 219 53 201 
200 9 2 146 130 181 12 15 165 158 122 
201 9 231 195 97 123 4 35 199 127 50 
202 9 198 85 164 214 27 90 220 160 228 
203 9 111 46 179 54 218 121 59 112 94 
204 9 217 132 177 197 125 81 16 91 41 
205 9 138 213 126 37 17 33 65 13 190 
206 6 140 208 196 139 119 5 
207 9 225 87 210 27 62 107 156 85 228 
208 6 206 140 18 76 196 187 
209 9 48 108 189 131 47 221 180 10 39 
210 9 207 62 156 225 87 6 58 107 32 
211 9 36 150 175 8 137 151 23 229 116 
212 9 144 49 52 167 118 193 11 163 233 
213 9 37 205 138 17 65 141 77 145 126 
214 9 220 164 34 153 215 85 202 198 226 
215 9 153 34 137 220 23 214 74 96 164 
216 9 68 67 14 22 103 129 176 178 166 
217 9 204 132 125 177 197 91 81 31 41 
218 9 54 121 46 112 59 94 115 111 203 
219 9 89 53 71 127 69 63 147 199 25 
220 9 214 164 34 153 215 85 202 226 198 
221 9 75 189 106 209 47 131 48 180 10 
222 9 129 41 45 103 73 68 3 216 132 
223 9 64 184 18 76 173 5 140 161 208 
224 9 104 107 28 192 62 228 147 58 69 
225 9 207 27 107 87 228 85 90 62 210 
226 9 134 170 88 114 34 128 220 214 160 
227 9 182 24 172 9 44 66 193 101 233 
228 9 90 107 162 27 225 85 202 224 198 
229 9 175 142 105 84 151 116 158 165 122 
230 9 80 171 95 38 185 117 113 102 42 
231 9 201 195 97 123 35 4 127 199 50 
232 9 183 136 79 86 101 26 180 66 108 
233 9 98 163 193 55 92 52 78 24 49 
DEPOT_SECTION
   1
   -1
EOF
