NAME :  X-n251-kX-w25-c7.cctp
COMMENT : 	Adapted by Maziero, Usberti and Cavellucci from the Uchoa, Pecin, Pessoa, Poggi, Subramanian, and Vidal (2013)
TYPE :  CCTP
DIMENSION :    126
EDGE_WEIGHT_TYPE : 	EUC_2D	
CAPACITY : 	69
VERTICES_WITHIN_COVERAGE :  7
VERTICES_WITH_DEMAND : 	25
NODE_COORD_SECTION
1 112 700
2 363 779
3 245 896
4 238 19
5 184 351
6 305 763
7 366 814
8 137 857
9 564 31
10 303 157
11 523 830
12 134 231
13 851 445
14 740 311
15 163 95
16 275 499
17 470 814
18 453 217
19 818 525
20 311 911
21 177 374
22 230 4
23 590 302
24 196 103
25 553 879
26 316 446
27 907 455
28 785 309
29 26 126
30 447 817
31 145 527
32 218 825
33 389 436
34 948 514
35 578 334
36 325 696
37 774 336
38 81 238
39 295 406
40 853 358
41 742 581
42 32 964
43 747 352
44 610 799
45 485 734
46 419 256
47 941 589
48 68 42
49 817 595
50 397 274
51 727 302
52 216 237
53 821 320
54 561 920
55 128 834
56 162 534
57 279 644
58 188 329
59 336 782
60 728 230
61 139 848
62 350 154
63 242 162
64 907 497
65 786 457
66 629 745
67 935 439
68 78 835
69 232 226
70 123 479
71 205 840
72 932 357
73 325 559
74 362 477
75 11 938
76 88 535
77 436 200
78 325 59
79 34 264
80 47 470
81 322 89
82 287 304
83 288 406
84 287 623
85 616 828
86 60 445
87 978 511
88 599 895
89 304 854
90 343 127
91 422 270
92 453 844
93 230 995
94 675 278
95 654 332
96 409 207
97 534 887
98 546 47
99 597 299
100 538 29
101 326 841
102 557 307
103 338 918
104 427 792
105 764 238
106 596 931
107 578 922
108 361 962
109 539 869
110 468 807
111 537 7
112 400 190
113 469 264
114 440 203
115 628 934
116 635 25
117 528 2
118 457 847
119 183 354
120 814 278
121 359 893
122 598 325
123 552 367
124 665 287
125 549 277
126 605 773
DEMAND_SECTION
2 5
3 7
4 5
5 8
6 7
7 8
8 7
9 9
10 7
11 6
12 7
13 8
14 6
15 9
16 8
17 8
18 9
19 6
20 8
21 5
22 6
23 7
24 7
25 6
26 9
COVERAGE_SECTION
2 7 59 7 6 104 101 36 30 
3 7 20 71 89 32 103 101 93 
4 6 22 24 78 15 81 63 
5 7 119 58 21 82 52 83 39 
6 7 59 2 36 7 101 89 32 
7 7 2 59 101 104 89 121 6 
8 7 61 55 68 71 32 3 42 
9 4 98 100 111 117 
10 6 62 90 63 81 69 78 
11 7 109 17 25 97 110 118 92 
12 7 38 52 69 79 58 63 5 
13 7 27 65 64 67 19 40 34 
14 7 51 37 43 28 94 105 124 
15 7 24 63 4 48 22 12 29 
16 7 26 73 74 83 39 56 84 
17 7 110 30 92 118 104 11 45 
18 5 114 77 96 113 46 
19 7 49 65 13 64 41 27 34 
20 7 103 121 89 3 108 101 7 
21 7 119 5 58 83 70 39 82 
22 6 4 24 78 15 81 63 
23 6 99 122 102 35 125 95 
24 7 15 63 4 22 10 81 69 
25 6 109 97 54 88 107 11 
26 6 39 83 74 16 33 73 
27 7 67 64 13 34 87 72 40 
28 6 37 53 120 14 43 51 
29 7 48 38 79 15 12 24 63 
30 7 17 110 92 104 118 11 7 
31 6 56 70 76 80 86 16 
32 7 71 3 61 8 55 89 6 
33 3 74 26 39 
34 7 87 64 27 47 67 13 19 
35 6 122 23 102 99 123 125 
36 7 57 6 84 59 2 7 73 
37 6 28 43 14 53 51 120 
38 7 12 79 29 52 58 69 5 
39 6 83 26 16 74 33 82 
40 6 53 72 37 28 13 120 
41 4 49 19 65 13 
42 7 75 68 8 61 55 93 71 
43 6 37 14 51 28 53 95 
44 7 126 85 66 11 88 25 109 
45 7 110 17 104 30 11 92 118 
46 6 91 50 96 113 18 114 
47 7 34 87 64 49 27 19 67 
48 7 29 15 24 22 4 38 12 
49 7 19 41 47 64 65 13 34 
50 5 91 46 96 113 18 
51 7 14 43 94 28 37 124 60 
52 7 69 63 12 58 82 5 10 
53 5 28 120 37 40 14 
54 5 107 106 25 97 88 
55 7 61 8 68 71 32 3 75 
56 6 31 70 76 16 80 86 
57 7 84 36 73 6 16 59 2 
58 7 5 119 21 52 82 12 69 
59 7 2 6 7 101 89 36 104 
60 6 105 51 94 14 124 28 
61 7 8 55 68 71 32 3 75 
62 5 90 10 112 81 96 
63 7 10 69 24 52 15 90 62 
64 7 27 34 67 87 13 19 47 
65 7 13 19 43 40 27 37 64 
66 6 126 44 85 11 45 88 
67 7 27 64 34 72 13 87 40 
68 7 55 61 8 75 71 42 32 
69 7 52 63 82 12 10 58 24 
70 6 31 76 56 86 80 21 
71 7 32 61 3 8 55 89 101 
72 5 40 67 27 53 13 
73 7 84 16 74 57 26 36 33 
74 6 33 26 16 73 39 83 
75 7 42 68 8 61 55 71 93 
76 6 31 70 56 80 86 21 
77 5 114 18 96 112 46 
78 4 81 90 4 62 
79 7 38 12 29 58 5 119 21 
80 6 86 70 76 31 56 21 
81 4 78 90 10 62 
82 6 69 52 39 58 83 5 
83 6 39 26 16 82 74 33 
84 7 57 73 36 16 6 56 74 
85 7 44 126 88 25 66 109 11 
86 6 80 70 76 31 56 21 
87 7 34 64 67 47 27 13 19 
88 7 107 106 54 25 115 97 109 
89 7 101 20 121 3 103 7 59 
90 5 62 81 10 78 112 
91 5 46 50 113 18 96 
92 5 118 30 17 110 104 
93 7 3 20 103 108 71 89 121 
94 7 124 51 95 60 14 99 23 
95 5 124 122 94 99 23 
96 6 112 77 114 18 46 91 
97 4 109 25 54 107 
98 2 100 9 
99 7 23 122 35 102 125 95 124 
100 4 98 111 9 117 
101 7 89 7 59 121 2 20 103 
102 5 125 23 35 99 122 
103 5 20 121 108 89 101 
104 7 30 110 17 92 118 2 7 
105 5 60 120 28 51 14 
106 6 107 115 88 54 25 97 
107 6 54 106 88 25 115 97 
108 3 103 121 20 
109 6 25 97 11 54 88 107 
110 7 17 30 92 118 104 11 45 
111 4 117 100 9 98 
112 6 96 77 114 18 62 46 
113 3 91 18 46 
114 5 77 18 96 112 46 
115 5 106 88 107 54 25 
116 1 9 
117 3 111 100 9 
118 5 92 30 17 110 104 
119 7 5 21 58 82 83 52 39 
120 5 28 53 105 37 14 
121 6 103 20 101 89 108 7 
122 7 35 23 99 102 95 123 125 
123 4 35 102 122 23 
124 7 94 95 51 99 23 122 14 
125 2 102 23 
126 7 44 66 85 11 109 25 88 
DEPOT_SECTION
   1
   -1
EOF
