NAME :  X-n223-kX-w22-c7.cctp
COMMENT : 	Adapted by Maziero, Usberti and Cavellucci from the Uchoa, Pecin, Pessoa, Poggi, Subramanian, and Vidal (2013)
TYPE :  CCTP
DIMENSION :    108
EDGE_WEIGHT_TYPE : 	EUC_2D	
CAPACITY : 	37
VERTICES_WITHIN_COVERAGE :  7
VERTICES_WITH_DEMAND : 	22
NODE_COORD_SECTION
1 284 167
2 6 711
3 874 746
4 483 894
5 733 189
6 336 29
7 488 684
8 825 903
9 98 412
10 206 306
11 497 641
12 499 745
13 481 40
14 500 390
15 851 268
16 51 278
17 805 796
18 554 771
19 576 984
20 734 251
21 325 414
22 658 81
23 279 467
24 554 594
25 645 168
26 614 267
27 939 719
28 935 800
29 31 554
30 489 840
31 377 684
32 945 808
33 720 165
34 226 34
35 73 255
36 168 461
37 164 493
38 833 284
39 371 28
40 552 186
41 578 665
42 749 655
43 898 974
44 520 642
45 914 373
46 610 738
47 752 74
48 729 90
49 464 658
50 388 732
51 712 144
52 45 437
53 910 738
54 956 879
55 318 560
56 592 913
57 907 240
58 399 931
59 763 180
60 626 876
61 813 999
62 10 249
63 557 816
64 915 680
65 131 722
66 553 946
67 306 260
68 627 26
69 493 282
70 312 212
71 985 939
72 194 262
73 834 844
74 1 651
75 163 503
76 579 761
77 2 469
78 826 222
79 231 82
80 62 272
81 22 273
82 805 267
83 212 590
84 327 114
85 646 219
86 259 282
87 692 298
88 801 272
89 646 242
90 189 387
91 31 339
92 730 188
93 824 259
94 924 237
95 57 338
96 305 615
97 345 763
98 751 295
99 776 143
100 710 173
101 53 438
102 933 313
103 837 214
104 752 302
105 42 300
106 489 208
107 54 335
108 769 226
DEMAND_SECTION
2 6
3 6
4 9
5 2
6 4
7 10
8 2
9 3
10 3
11 1
12 4
13 3
14 8
15 6
16 4
17 4
18 6
19 3
20 5
21 10
22 7
23 3
COVERAGE_SECTION
2 2 74 65 
3 7 53 27 64 28 17 32 73 
4 7 30 66 58 63 56 19 18 
5 7 92 33 100 59 51 108 20 
6 5 39 84 34 79 13 
7 7 49 11 44 12 41 18 31 
8 7 73 61 43 17 54 28 32 
9 5 101 52 36 95 107 
10 3 72 86 90 
11 7 44 49 7 24 41 12 31 
12 7 18 7 76 63 49 30 11 
13 7 39 6 68 40 106 84 22 
14 4 69 26 21 106 
15 7 38 93 82 88 78 103 57 
16 5 80 105 81 35 62 
17 7 73 3 8 53 28 32 42 
18 7 76 63 12 46 30 7 41 
19 7 66 56 60 4 30 63 58 
20 6 108 98 104 5 87 92 
21 7 23 90 55 86 67 10 36 
22 6 68 48 51 25 47 33 
23 7 21 55 36 37 90 75 83 
24 3 44 11 41 
25 7 85 100 51 89 33 92 22 
26 7 89 85 87 40 25 20 69 
27 5 53 64 3 28 32 
28 6 32 53 3 27 54 73 
29 7 77 74 52 101 75 37 9 
30 7 4 63 18 12 76 66 56 
31 6 50 97 49 96 7 11 
32 6 28 54 53 27 3 73 
33 6 100 51 92 5 59 99 
34 4 79 6 84 39 
35 2 80 16 
36 7 37 75 90 9 23 101 52 
37 7 75 36 9 83 90 23 101 
38 5 15 93 82 88 78 
39 5 6 84 13 34 79 
40 7 106 25 85 26 89 69 22 
41 6 44 24 46 11 7 76 
42 1 17 
43 7 61 71 8 54 73 32 28 
44 6 11 7 49 24 41 12 
45 3 102 38 15 
46 6 76 18 41 63 12 44 
47 5 48 99 51 22 33 
48 5 47 51 99 22 33 
49 7 7 11 44 31 12 50 24 
50 6 31 97 49 7 12 11 
51 6 33 100 92 5 48 59 
52 4 101 77 9 91 
53 5 27 3 64 28 32 
54 6 71 32 28 43 73 8 
55 6 96 23 83 31 21 75 
56 7 60 66 19 63 4 30 18 
57 3 94 15 103 
58 4 4 30 66 97 
59 5 5 92 99 33 108 
60 7 56 63 66 19 76 18 46 
61 7 43 8 73 71 54 17 60 
62 5 81 16 80 105 35 
63 7 18 76 30 60 12 46 56 
64 4 27 53 3 28 
65 1 2 
66 7 19 56 4 60 30 63 58 
67 6 70 86 10 72 84 21 
68 6 22 48 47 25 51 13 
69 7 106 14 40 26 89 85 67 
70 5 67 86 84 72 10 
71 6 54 43 32 28 8 73 
72 2 10 86 
73 7 17 8 3 28 32 54 53 
74 3 2 29 65 
75 7 37 36 83 9 90 23 101 
76 7 18 46 63 12 41 7 30 
77 4 52 101 29 9 
78 5 103 93 82 15 88 
79 3 34 84 6 
80 4 16 35 105 81 
81 6 62 16 105 80 35 91 
82 5 88 93 38 15 78 
83 6 96 75 37 55 36 23 
84 6 6 39 70 79 34 67 
85 7 89 25 26 100 92 87 5 
86 5 67 10 72 70 90 
87 5 98 104 20 89 26 
88 4 82 93 38 15 
89 7 85 26 87 25 20 100 92 
90 4 36 10 9 37 
91 4 107 95 105 16 
92 7 5 33 100 59 51 108 20 
93 6 82 88 38 15 78 103 
94 3 57 102 15 
95 4 107 91 105 16 
96 6 55 83 31 50 23 97 
97 4 50 31 96 12 
98 2 104 20 
99 4 59 33 5 51 
100 7 33 92 5 51 59 25 99 
101 4 52 9 77 95 
102 5 45 57 94 15 38 
103 4 78 93 15 82 
104 2 98 20 
105 6 16 80 81 107 91 95 
106 7 40 69 26 85 25 89 13 
107 4 95 91 105 16 
108 7 20 59 5 92 82 88 78 
DEPOT_SECTION
   1
   -1
EOF
