NAME :  X-n280-kX-w111-c11.cctp
COMMENT : 	Adapted by Maziero, Usberti and Cavellucci from the Uchoa, Pecin, Pessoa, Poggi, Subramanian, and Vidal (2013)
TYPE :  CCTP
DIMENSION :    280
EDGE_WEIGHT_TYPE : 	EUC_2D	
CAPACITY : 	192
VERTICES_WITHIN_COVERAGE :  11
VERTICES_WITH_DEMAND : 	111
NODE_COORD_SECTION
1 0 0
2 909 919
3 878 721
4 969 85
5 591 195
6 955 148
7 587 903
8 994 792
9 625 129
10 544 703
11 461 167
12 37 644
13 615 22
14 773 788
15 384 364
16 51 291
17 109 732
18 570 124
19 692 985
20 62 150
21 358 5
22 188 450
23 674 658
24 676 904
25 815 984
26 710 16
27 74 658
28 576 1000
29 636 695
30 547 92
31 587 397
32 26 150
33 182 561
34 938 462
35 362 928
36 366 835
37 516 892
38 448 923
39 501 445
40 513 799
41 905 388
42 474 791
43 560 782
44 465 552
45 315 645
46 738 396
47 45 915
48 797 871
49 922 643
50 793 586
51 921 458
52 160 295
53 598 257
54 516 221
55 99 169
56 788 634
57 425 751
58 616 680
59 949 444
60 987 459
61 182 279
62 127 354
63 791 822
64 645 609
65 857 386
66 917 154
67 398 480
68 729 688
69 134 510
70 172 2
71 499 737
72 780 565
73 908 477
74 917 341
75 272 553
76 421 876
77 770 2
78 497 623
79 853 27
80 853 521
81 519 196
82 90 822
83 827 901
84 350 168
85 656 56
86 199 924
87 732 55
88 772 748
89 884 973
90 158 430
91 563 13
92 50 959
93 609 223
94 628 860
95 264 436
96 699 764
97 441 479
98 95 246
99 236 627
100 307 893
101 695 302
102 378 639
103 830 30
104 44 339
105 885 644
106 122 603
107 850 732
108 155 865
109 230 346
110 300 719
111 55 954
112 467 494
113 153 641
114 713 82
115 659 564
116 881 18
117 781 654
118 490 806
119 823 569
120 878 496
121 441 898
122 589 516
123 165 614
124 17 749
125 164 778
126 296 858
127 258 488
128 437 866
129 187 88
130 725 988
131 125 619
132 352 701
133 447 517
134 316 80
135 743 575
136 555 373
137 84 140
138 341 827
139 541 567
140 919 768
141 945 924
142 397 932
143 905 944
144 892 37
145 74 227
146 911 617
147 668 697
148 1 96
149 223 299
150 637 118
151 622 958
152 356 127
153 347 777
154 157 190
155 8 497
156 138 78
157 100 192
158 384 598
159 23 228
160 110 163
161 345 464
162 53 628
163 316 705
164 112 361
165 642 405
166 235 578
167 489 621
168 563 916
169 759 215
170 822 262
171 597 310
172 960 837
173 164 988
174 37 513
175 648 247
176 375 402
177 531 205
178 935 676
179 103 549
180 964 651
181 233 241
182 891 112
183 378 472
184 457 893
185 852 861
186 113 701
187 340 913
188 662 198
189 667 718
190 140 332
191 809 908
192 968 908
193 163 857
194 333 418
195 59 136
196 839 123
197 529 215
198 385 380
199 319 417
200 318 216
201 156 119
202 816 160
203 267 210
204 528 320
205 138 787
206 473 713
207 537 114
208 168 838
209 774 825
210 32 510
211 216 372
212 16 935
213 60 733
214 500 37
215 343 363
216 429 41
217 205 398
218 708 298
219 411 109
220 840 359
221 112 603
222 816 310
223 865 775
224 259 348
225 893 516
226 814 607
227 605 162
228 781 239
229 359 199
230 16 739
231 482 214
232 70 526
233 528 103
234 572 770
235 802 517
236 876 469
237 118 571
238 952 781
239 823 795
240 522 595
241 52 336
242 456 367
243 255 413
244 410 194
245 956 21
246 717 142
247 766 880
248 524 825
249 657 640
250 189 232
251 471 339
252 920 809
253 688 98
254 660 781
255 441 81
256 236 735
257 784 692
258 743 446
259 201 32
260 188 957
261 381 605
262 380 904
263 227 263
264 69 94
265 123 416
266 341 341
267 450 482
268 251 533
269 352 591
270 724 967
271 753 539
272 684 924
273 617 989
274 455 500
275 472 926
276 395 683
277 167 357
278 789 678
279 897 272
280 991 492
DEMAND_SECTION
2 92
3 88
4 93
5 90
6 73
7 100
8 53
9 66
10 82
11 59
12 100
13 76
14 84
15 56
16 91
17 58
18 65
19 56
20 68
21 88
22 54
23 76
24 80
25 53
26 1
27 2
28 2
29 7
30 10
31 9
32 8
33 3
34 3
35 2
36 9
37 6
38 10
39 3
40 1
41 4
42 6
43 1
44 4
45 3
46 7
47 7
48 2
49 1
50 1
51 4
52 4
53 5
54 4
55 7
56 3
57 3
58 8
59 6
60 4
61 4
62 2
63 1
64 7
65 5
66 1
67 6
68 8
69 4
70 8
71 7
72 2
73 1
74 9
75 4
76 3
77 3
78 9
79 8
80 5
81 9
82 9
83 4
84 9
85 8
86 6
87 8
88 7
89 9
90 3
91 1
92 8
93 1
94 2
95 4
96 3
97 3
98 7
99 4
100 6
101 6
102 2
103 6
104 7
105 8
106 6
107 3
108 10
109 9
110 5
111 7
112 10
COVERAGE_SECTION
2 11 143 141 89 192 185 83 172 191 252 25 48 
3 11 107 223 140 178 105 49 239 238 252 257 278 
4 11 6 245 182 66 144 116 79 196 103 202 279 
5 11 93 227 177 53 197 188 81 9 18 175 54 
6 11 66 4 182 196 245 144 279 202 116 79 103 
7 11 168 94 151 37 24 273 28 272 248 275 43 
8 11 238 172 252 140 192 178 223 3 141 180 2 
9 11 150 227 18 253 5 188 85 30 207 246 93 
10 11 71 206 234 58 43 29 78 167 40 240 42 
11 11 231 244 81 54 219 177 197 255 207 233 229 
12 11 162 27 221 131 213 106 186 230 124 237 17 
13 11 85 91 26 30 150 253 9 18 114 214 233 
14 11 209 63 88 239 96 48 247 223 107 257 185 
15 11 198 176 215 266 242 194 199 251 161 183 67 
16 11 241 104 98 145 159 164 190 62 52 157 55 
17 11 186 213 205 125 27 82 230 124 113 12 131 
18 11 207 30 233 227 9 150 5 81 177 197 93 
19 11 130 270 272 151 273 24 28 25 247 7 94 
20 11 195 137 32 55 160 264 157 145 148 159 201 
21 11 216 134 255 219 152 214 259 84 70 129 11 
22 11 90 217 265 95 243 127 69 211 277 268 33 
23 11 249 147 29 64 189 58 68 115 117 135 96 
24 11 272 94 151 270 19 7 247 130 273 168 254 
25 11 89 191 83 130 270 143 2 48 247 19 185 
26 11 87 77 114 85 253 13 103 150 246 9 79 
27 11 162 12 186 131 221 106 213 113 17 237 230 
28 11 273 151 168 7 19 37 275 272 24 38 94 
29 11 58 147 189 23 249 64 254 10 68 96 234 
30 11 233 207 18 214 91 9 227 150 13 255 81 
31 11 136 165 171 204 39 122 251 242 53 101 46 
32 11 20 195 137 148 264 55 159 157 160 145 98 
33 11 123 166 237 69 106 268 179 131 221 99 113 
34 11 51 59 73 60 280 236 120 225 41 80 65 
35 11 187 262 142 100 76 121 38 36 126 128 184 
36 11 138 153 76 262 126 128 187 100 35 121 142 
37 11 168 275 184 248 7 38 121 128 118 40 76 
38 11 275 121 184 142 76 128 262 37 35 187 168 
39 11 112 267 97 274 133 136 242 31 67 251 44 
40 11 118 248 42 43 71 234 37 206 57 10 128 
41 11 65 74 59 220 51 34 236 73 60 120 279 
42 11 118 40 71 248 57 206 128 43 76 234 184 
43 11 234 40 248 118 71 10 42 254 94 206 29 
44 11 133 274 112 240 267 167 97 139 78 158 67 
45 11 163 102 269 132 110 261 99 158 276 75 166 
46 11 258 165 218 101 220 222 65 235 271 31 236 
47 11 212 111 92 82 108 193 173 208 260 86 205 
48 11 247 191 83 63 209 185 239 14 25 223 270 
49 11 146 178 105 180 3 107 226 119 140 225 56 
50 11 72 226 119 56 135 271 117 235 80 278 257 
51 11 34 73 59 236 120 225 60 41 280 80 65 
52 11 61 190 277 149 62 250 263 98 164 109 181 
53 11 93 175 171 5 197 177 188 54 204 227 81 
54 11 197 177 81 231 11 5 53 93 204 227 207 
55 11 160 157 137 20 195 154 145 32 201 98 264 
56 11 117 226 278 50 257 72 119 135 68 105 271 
57 11 206 42 276 71 153 118 132 40 36 138 128 
58 11 29 147 249 23 189 10 64 234 254 68 43 
59 11 34 51 60 73 280 41 236 120 225 74 65 
60 11 280 59 34 51 73 41 225 236 120 74 80 
61 11 52 149 250 263 181 190 277 109 154 62 98 
62 11 164 190 277 265 52 241 90 104 217 211 61 
63 11 209 14 239 48 247 185 88 83 191 223 107 
64 11 249 115 23 58 29 147 135 122 189 139 68 
65 11 220 41 74 236 222 51 73 59 34 120 46 
66 11 6 182 196 4 202 144 279 245 116 79 170 
67 11 183 97 267 161 274 133 112 176 194 44 198 
68 11 257 278 117 147 23 189 88 56 96 249 29 
69 11 179 237 232 33 22 90 106 265 221 174 210 
70 11 259 156 129 201 264 134 137 160 195 55 20 
71 11 206 10 42 40 118 57 43 234 248 78 167 
72 11 50 271 135 119 235 226 56 80 117 278 120 
73 11 51 236 34 120 225 59 80 60 280 41 65 
74 11 41 279 65 220 222 59 51 34 170 236 73 
75 11 268 166 127 99 269 33 45 161 95 158 261 
76 11 128 121 184 262 38 142 36 275 35 187 138 
77 11 26 87 103 79 114 116 85 253 144 196 246 
78 11 167 240 139 44 10 206 71 158 133 261 276 
79 11 103 116 144 77 182 196 245 87 4 202 66 
80 11 120 225 235 119 236 73 72 50 51 226 271 
81 11 177 197 54 231 11 5 207 18 227 233 93 
82 11 205 108 208 193 125 17 213 47 124 230 186 
83 11 191 48 185 247 2 25 63 143 89 209 239 
84 11 229 152 200 244 219 203 134 11 255 181 231 
85 11 13 253 114 150 26 87 9 91 246 18 30 
86 11 260 173 108 193 208 100 126 187 111 82 125 
87 11 114 26 253 77 85 246 103 150 13 79 196 
88 11 14 257 239 278 68 96 63 209 107 117 223 
89 11 143 2 25 141 83 191 192 185 48 247 172 
90 11 22 265 217 277 62 211 164 69 243 190 95 
91 11 13 214 30 233 85 207 18 150 9 216 255 
92 11 111 212 47 173 260 108 82 193 86 208 205 
93 11 5 53 175 188 227 177 197 171 54 81 9 
94 11 7 24 254 272 168 151 43 234 248 37 96 
95 11 243 127 199 217 194 22 211 161 224 109 268 
96 11 254 189 147 88 14 68 29 209 23 63 257 
97 11 267 274 112 133 67 183 39 44 161 176 242 
98 11 145 157 16 159 55 52 154 160 61 250 190 
99 11 166 123 45 75 113 33 268 256 131 110 163 
100 11 126 187 35 138 262 36 142 86 76 153 128 
101 11 218 175 171 46 53 228 169 188 165 93 222 
102 11 261 158 276 269 45 132 163 110 167 78 206 
103 11 79 116 144 77 196 87 182 26 245 114 202 
104 11 241 16 164 62 190 98 265 159 145 52 277 
105 11 49 146 178 3 180 226 107 119 56 278 117 
106 11 221 131 237 123 113 179 27 33 162 232 12 
107 11 3 223 239 257 140 88 278 14 105 178 117 
108 11 193 208 86 82 205 125 260 47 173 111 17 
109 11 224 211 149 217 277 243 61 263 52 190 95 
110 11 163 132 256 153 45 276 99 102 138 57 36 
111 11 92 47 212 173 260 108 82 193 86 208 205 
112 11 274 267 97 133 44 39 67 183 139 240 122 
113 11 123 131 106 221 186 237 27 99 33 17 162 
114 11 253 87 246 85 26 150 77 9 13 188 103 
115 11 64 249 122 135 23 271 139 72 58 29 147 
116 11 144 79 103 245 182 4 77 196 66 6 87 
117 11 56 278 257 226 68 50 135 72 88 119 105 
118 11 42 40 248 71 43 128 57 37 234 184 206 
119 11 50 226 72 235 80 56 271 135 225 120 117 
120 11 225 236 80 73 51 34 235 59 119 41 65 
121 11 184 38 76 128 275 142 262 37 35 36 187 
122 11 139 115 240 64 39 31 165 112 44 274 78 
123 11 113 131 106 221 33 237 99 166 179 27 186 
124 11 230 213 17 82 12 27 186 162 205 125 47 
125 11 205 208 17 193 256 82 108 186 213 113 110 
126 11 100 138 187 36 35 153 262 86 142 76 208 
127 11 268 95 75 243 22 161 166 199 194 217 33 
128 11 76 121 184 38 262 275 36 142 118 37 42 
129 11 201 156 259 70 154 160 137 264 55 134 157 
130 11 270 19 272 25 24 151 273 191 247 83 48 
131 11 106 221 113 123 237 27 162 179 33 186 12 
132 11 163 276 110 45 102 153 57 261 158 269 256 
133 11 274 112 267 97 44 67 183 39 158 139 240 
134 11 152 21 84 219 216 255 259 229 129 200 203 
135 11 271 72 50 56 226 119 235 115 117 64 23 
136 11 31 204 171 39 251 165 242 53 122 112 267 
137 11 20 195 55 160 264 157 32 201 156 145 154 
138 11 36 153 126 100 187 262 76 35 128 57 110 
139 11 240 122 78 167 44 112 133 274 64 115 267 
140 11 238 252 223 3 107 8 172 178 239 185 49 
141 11 192 2 143 89 172 185 252 83 191 8 25 
142 11 262 35 38 121 187 76 184 275 128 100 36 
143 11 2 89 141 192 83 25 185 191 172 48 252 
144 11 116 79 103 245 182 4 196 66 77 6 202 
145 11 98 157 159 55 16 160 20 137 32 154 195 
146 11 49 105 180 178 226 119 225 3 80 50 56 
147 11 189 29 23 58 249 68 96 254 64 88 257 
148 11 32 264 195 20 137 55 160 159 156 157 145 
149 11 263 61 109 181 224 52 211 250 277 190 203 
150 11 9 227 253 85 18 114 188 246 5 30 13 
151 11 273 28 7 272 168 19 24 94 270 130 37 
152 11 84 219 134 229 244 200 255 11 216 21 203 
153 11 138 36 110 132 163 57 126 276 256 100 76 
154 11 250 160 157 55 201 98 137 145 61 181 263 
155 11 210 174 232 179 69 237 162 265 221 12 106 
156 11 201 129 264 259 137 70 160 195 55 20 154 
157 11 55 160 145 98 137 20 154 195 32 159 201 
158 11 261 269 102 45 276 44 133 167 132 78 67 
159 11 145 16 98 32 157 20 55 195 137 160 241 
160 11 55 157 137 20 154 195 201 145 264 98 32 
161 11 183 194 199 67 176 95 127 198 97 215 243 
162 11 12 27 221 106 131 237 179 186 113 232 213 
163 11 110 132 45 153 276 256 102 99 57 261 269 
164 11 62 190 277 265 241 104 52 90 16 217 211 
165 11 31 136 46 171 258 101 122 218 204 39 53 
166 11 75 268 99 33 123 127 113 45 106 131 237 
167 11 78 240 44 139 206 10 158 261 102 133 276 
168 11 7 37 151 28 94 273 275 248 184 24 38 
169 11 228 170 202 246 218 188 101 222 175 196 253 
170 11 228 222 279 169 220 202 218 74 65 101 196 
171 11 53 204 136 175 31 93 101 165 218 5 197 
172 11 252 8 238 192 140 141 2 185 223 143 3 
173 11 260 86 111 92 108 193 47 208 212 100 82 
174 11 210 155 232 179 69 237 162 221 106 265 12 
175 11 93 53 188 101 5 218 171 227 169 9 197 
176 11 198 15 194 215 199 161 183 266 67 242 97 
177 11 197 81 54 231 5 11 93 53 227 18 207 
178 11 49 180 105 146 3 140 107 238 223 8 252 
179 11 237 232 69 221 106 131 174 33 210 123 162 
180 11 178 49 146 105 3 140 238 107 8 225 226 
181 11 263 250 203 149 61 200 52 154 109 224 190 
182 11 66 196 6 144 4 202 79 116 103 245 279 
183 11 67 161 97 176 194 267 199 133 274 112 198 
184 11 121 38 128 275 76 37 142 262 118 248 35 
185 11 83 48 191 63 239 2 209 252 223 247 143 
186 11 17 27 213 113 131 205 125 162 12 106 221 
187 11 35 100 262 142 126 36 138 76 121 38 128 
188 11 175 93 227 5 9 246 150 53 169 253 101 
189 11 147 29 96 23 254 58 68 249 234 88 64 
190 11 62 277 164 52 61 211 265 241 149 109 217 
191 11 83 48 247 185 25 63 209 89 2 143 270 
192 11 141 2 172 143 89 252 8 185 238 83 140 
193 11 108 208 205 86 125 82 260 47 173 126 17 
194 11 199 176 161 215 198 183 95 15 266 243 67 
195 11 20 137 32 264 55 160 157 148 145 156 201 
196 11 202 182 66 103 79 144 116 6 169 246 87 
197 11 177 54 81 231 5 93 53 11 227 18 207 
198 11 15 176 215 266 194 242 199 183 161 251 67 
199 11 194 161 95 176 215 243 198 266 183 15 224 
200 11 229 203 84 181 244 152 263 149 266 250 134 
201 11 129 156 160 154 137 55 264 157 195 259 20 
202 11 196 169 228 182 66 246 170 114 103 87 79 
203 11 181 200 263 250 84 229 149 61 154 152 52 
204 11 136 251 171 242 53 31 54 197 177 231 81 
205 11 125 82 208 17 193 108 186 213 256 124 230 
206 11 71 57 10 42 276 78 167 40 118 43 234 
207 11 233 30 18 227 81 214 9 177 11 5 150 
208 11 193 108 205 125 82 86 17 260 256 126 47 
209 11 63 14 48 247 239 88 185 191 83 96 223 
210 11 174 155 232 179 69 237 162 221 106 265 12 
211 11 217 109 224 277 243 149 95 90 22 190 62 
212 11 47 92 111 82 108 173 193 260 208 86 124 
213 11 230 124 17 186 27 12 82 205 162 125 113 
214 11 91 216 30 233 255 207 18 219 13 11 21 
215 11 266 15 198 176 194 199 224 161 243 95 242 
216 11 255 219 214 21 152 233 134 30 11 207 91 
217 11 211 243 22 277 90 109 95 224 265 62 190 
218 11 101 175 228 169 46 222 188 171 53 170 93 
219 11 255 152 216 11 84 244 134 229 214 21 233 
220 11 65 222 41 74 170 279 46 236 51 258 228 
221 11 106 131 237 123 179 113 162 27 33 12 232 
222 11 170 220 228 65 279 74 218 169 46 41 101 
223 11 107 239 140 3 252 185 238 63 14 88 209 
224 11 109 211 149 243 217 266 215 95 199 263 277 
225 11 120 80 73 236 51 34 119 59 235 280 146 
226 11 50 56 119 72 117 278 135 105 257 235 271 
227 11 5 9 18 150 93 188 207 177 30 81 197 
228 11 169 170 222 202 218 101 246 279 188 196 175 
229 11 84 200 244 152 203 219 11 231 134 181 266 
230 11 124 213 17 12 27 186 82 162 205 125 131 
231 11 54 81 197 177 11 244 5 207 204 233 53 
232 11 174 179 210 69 237 155 221 106 162 131 33 
233 11 207 30 18 214 255 11 81 91 227 9 177 
234 11 43 40 10 248 71 254 118 29 42 58 94 
235 11 80 72 271 119 50 120 135 236 225 226 258 
236 11 120 73 51 225 80 34 59 65 41 235 60 
237 11 179 106 221 131 69 123 33 232 113 162 27 
238 11 140 8 252 172 223 3 178 107 185 192 239 
239 11 63 223 14 209 88 107 185 48 3 252 140 
240 11 139 78 167 44 122 133 10 112 274 64 58 
241 11 104 16 164 62 190 98 265 145 159 52 277 
242 11 251 15 198 204 176 39 136 97 215 267 266 
243 11 95 217 211 199 224 109 127 22 194 90 215 
244 11 229 11 84 231 219 152 200 54 81 255 177 
245 11 4 144 116 79 182 103 6 66 196 77 202 
246 11 253 114 188 150 169 87 9 202 85 227 228 
247 11 48 191 209 63 83 185 14 24 272 270 239 
248 11 40 118 43 42 37 234 71 184 128 168 7 
249 11 23 64 58 147 29 115 189 68 135 117 10 
250 11 181 61 263 154 52 149 203 98 157 160 55 
251 11 242 204 15 136 198 39 176 231 54 171 31 
252 11 140 238 172 223 8 185 3 239 107 192 2 
253 11 114 85 246 150 87 9 26 188 13 227 18 
254 11 96 189 147 94 29 234 43 58 14 68 88 
255 11 219 216 214 11 233 152 207 30 21 244 134 
256 11 110 125 163 99 205 153 45 132 208 113 17 
257 11 278 117 68 88 56 107 226 14 3 50 239 
258 11 46 235 271 165 72 65 135 220 80 236 120 
259 11 70 129 156 201 134 264 21 137 160 154 55 
260 11 86 173 108 193 208 111 100 92 126 47 187 
261 11 158 269 102 45 276 44 132 167 133 78 163 
262 11 35 142 187 76 121 128 36 38 100 184 138 
263 11 181 149 61 250 203 52 109 224 154 200 211 
264 11 195 137 20 148 32 156 160 55 201 157 129 
265 11 90 164 62 22 277 217 190 69 211 241 104 
266 11 215 15 198 176 194 199 224 109 243 242 95 
267 11 97 274 112 133 67 39 44 183 161 176 242 
268 11 75 127 166 33 99 95 22 269 161 123 69 
269 11 261 158 102 45 75 276 132 268 166 44 67 
270 11 130 19 272 24 25 247 151 191 273 48 83 
271 11 72 135 235 50 119 226 258 115 56 80 117 
272 11 24 270 19 151 130 94 247 273 7 168 48 
273 11 151 28 19 7 168 272 24 130 270 94 37 
274 11 112 133 267 97 44 67 39 183 139 161 240 
275 11 38 184 121 37 128 76 142 168 262 35 248 
276 11 102 132 57 261 163 206 158 45 110 269 153 
277 11 190 62 211 164 217 52 109 90 265 61 149 
278 11 257 117 56 68 88 226 107 50 3 105 14 
279 11 74 170 222 220 41 66 65 228 6 202 169 
280 11 60 34 59 51 73 225 120 236 41 80 146 
DEPOT_SECTION
   1
   -1
EOF
