NAME :  X-n294-kX-w29-c9.cctp
COMMENT : 	Adapted by Maziero, Usberti and Cavellucci from the Uchoa, Pecin, Pessoa, Poggi, Subramanian, and Vidal (2013)
TYPE :  CCTP
DIMENSION :    183
EDGE_WEIGHT_TYPE : 	EUC_2D	
CAPACITY : 	285
VERTICES_WITHIN_COVERAGE :  9
VERTICES_WITH_DEMAND : 	29
NODE_COORD_SECTION
1 500 500
2 940 231
3 721 848
4 618 44
5 993 145
6 636 512
7 274 496
8 245 945
9 449 812
10 29 650
11 399 8
12 548 19
13 769 717
14 221 850
15 980 233
16 477 922
17 498 720
18 136 832
19 351 663
20 58 67
21 889 569
22 28 334
23 804 928
24 900 138
25 393 403
26 982 609
27 79 299
28 684 582
29 169 252
30 405 925
31 875 191
32 674 112
33 576 537
34 539 63
35 338 657
36 210 209
37 676 568
38 572 890
39 30 527
40 671 842
41 727 566
42 819 108
43 929 582
44 713 738
45 352 626
46 887 547
47 11 147
48 958 60
49 790 956
50 974 63
51 961 969
52 758 840
53 88 44
54 507 811
55 51 914
56 953 33
57 922 45
58 544 867
59 322 79
60 586 764
61 925 138
62 751 783
63 738 913
64 703 73
65 681 886
66 627 27
67 887 310
68 478 345
69 834 858
70 126 769
71 317 934
72 370 432
73 520 621
74 631 484
75 820 918
76 687 877
77 752 983
78 709 898
79 300 878
80 728 617
81 66 59
82 991 657
83 100 392
84 438 722
85 43 247
86 69 560
87 471 14
88 115 806
89 194 337
90 921 320
91 277 601
92 962 575
93 108 931
94 11 814
95 209 800
96 126 149
97 31 219
98 97 324
99 759 480
100 780 669
101 786 769
102 282 633
103 361 17
104 957 103
105 27 318
106 665 656
107 539 783
108 833 988
109 16 637
110 41 388
111 700 658
112 87 771
113 658 874
114 527 853
115 352 829
116 937 639
117 833 692
118 421 999
119 509 61
120 488 408
121 342 691
122 95 216
123 700 873
124 659 568
125 988 980
126 241 353
127 28 661
128 724 842
129 2 660
130 210 180
131 430 92
132 265 453
133 20 952
134 673 659
135 185 335
136 138 655
137 769 741
138 831 678
139 401 625
140 212 360
141 192 520
142 449 679
143 333 352
144 837 944
145 377 500
146 65 235
147 440 877
148 439 326
149 407 621
150 169 68
151 253 243
152 76 852
153 642 116
154 997 660
155 14 98
156 791 671
157 299 800
158 575 109
159 290 897
160 953 348
161 25 242
162 761 886
163 501 846
164 337 71
165 106 973
166 623 580
167 978 669
168 884 559
169 10 910
170 390 602
171 569 98
172 672 867
173 69 790
174 584 520
175 761 734
176 192 875
177 88 353
178 98 68
179 642 658
180 824 694
181 238 825
182 357 593
183 68 173
DEMAND_SECTION
2 94
3 7
4 83
5 31
6 9
7 78
8 50
9 18
10 10
11 11
12 68
13 37
14 57
15 83
16 38
17 94
18 12
19 63
20 84
21 19
22 68
23 32
24 98
25 47
26 97
27 25
28 98
29 30
30 30
COVERAGE_SECTION
2 8 15 31 90 61 67 5 24 160 
3 9 128 123 52 76 40 78 172 65 162 
4 8 66 171 12 153 158 34 32 64 
5 9 104 61 50 15 48 24 2 56 57 
6 8 74 174 124 33 37 166 28 41 
7 6 132 141 145 91 72 182 
8 9 159 71 79 176 14 181 93 165 95 
9 9 54 163 147 114 84 107 115 17 58 
10 7 127 109 129 86 136 39 112 
11 6 103 87 164 131 59 119 
12 7 34 119 4 87 66 171 158 
13 9 175 137 100 156 101 44 180 62 117 
14 8 181 176 95 159 79 18 157 8 
15 8 2 5 90 61 31 160 67 24 
16 9 147 30 163 114 58 118 38 9 54 
17 8 84 142 107 54 60 73 9 163 
18 9 88 152 70 176 112 173 95 14 181 
19 9 35 121 45 139 149 182 170 102 91 
20 8 81 53 178 155 47 183 96 150 
21 7 168 46 43 92 116 26 138 
22 9 105 110 27 177 98 85 83 161 146 
23 8 75 49 144 162 108 63 69 77 
24 9 61 31 104 42 5 57 48 2 50 
25 7 72 143 148 120 145 68 132 
26 9 92 82 154 116 43 167 21 168 46 
27 9 98 105 177 22 85 146 161 122 97 
28 9 37 124 41 80 166 106 111 134 6 
29 9 36 122 130 151 135 89 27 98 146 
30 9 147 16 118 71 115 79 159 9 163 
31 6 24 61 2 42 15 67 
32 3 153 64 4 
33 5 174 166 6 74 124 
34 5 119 12 171 158 4 
35 9 19 45 121 102 182 139 170 149 91 
36 5 130 151 29 96 122 
37 9 28 124 41 166 6 80 106 134 111 
38 8 58 114 163 113 16 54 172 65 
39 3 86 109 10 
40 8 172 113 76 123 65 3 128 78 
41 8 28 37 80 124 99 111 166 6 
42 2 24 31 
43 9 92 21 168 46 116 26 82 167 154 
44 9 175 137 62 13 101 111 134 106 100 
45 9 182 35 19 170 139 149 121 102 91 
46 6 168 21 43 92 116 26 
47 9 155 183 97 20 161 146 81 85 122 
48 8 50 56 57 104 61 5 24 42 
49 8 23 77 75 144 108 63 162 78 
50 8 48 56 104 57 5 61 24 42 
51 7 125 144 108 75 23 69 49 
52 8 128 3 162 62 123 63 78 101 
53 8 178 81 20 150 155 96 47 183 
54 8 163 107 114 9 58 17 60 147 
55 9 169 133 93 152 165 94 18 173 88 
56 8 48 57 50 104 61 24 5 42 
57 8 56 48 50 104 61 24 42 5 
58 8 114 38 163 54 107 16 147 9 
59 4 164 103 11 131 
60 7 107 54 17 114 58 40 163 
61 9 24 104 5 31 48 50 57 2 56 
62 8 101 137 175 52 44 128 13 3 
63 8 78 162 123 76 65 3 49 23 
64 4 32 153 66 4 
65 8 76 172 123 113 78 40 3 128 
66 8 4 12 64 153 171 34 32 158 
67 3 90 160 2 
68 3 148 120 25 
69 5 75 23 52 162 144 
70 6 88 112 173 18 95 152 
71 9 159 79 8 30 115 118 14 157 181 
72 7 25 145 143 132 7 120 148 
73 3 142 17 33 
74 6 6 174 33 124 37 166 
75 7 23 144 49 69 162 108 63 
76 9 65 123 172 113 78 40 3 128 63 
77 8 49 63 23 108 75 144 78 162 
78 8 123 65 76 63 172 3 162 113 
79 9 159 71 115 157 181 14 8 176 30 
80 9 111 41 28 134 37 100 106 156 124 
81 8 20 53 178 155 150 47 96 183 
82 6 154 167 26 116 92 43 
83 5 177 110 98 22 27 
84 9 142 17 9 121 139 19 149 54 107 
85 9 161 146 97 122 27 105 183 22 98 
86 3 39 109 10 
87 6 119 11 12 34 131 103 
88 7 18 70 112 173 152 95 176 
89 7 135 140 126 29 98 177 83 
90 3 67 160 2 
91 6 102 45 182 35 19 7 
92 9 43 26 116 21 46 168 82 154 167 
93 9 165 55 152 133 169 176 18 88 8 
94 9 173 152 112 169 88 55 70 18 133 
95 7 181 14 176 18 70 157 88 
96 9 183 122 178 130 150 36 146 20 81 
97 9 161 85 146 183 122 47 27 105 22 
98 9 177 27 83 22 105 110 135 85 146 
99 3 41 37 6 
100 9 156 13 180 138 117 175 137 80 111 
101 6 137 62 175 13 52 44 
102 6 91 35 45 19 121 182 
103 5 11 164 59 131 87 
104 9 48 50 61 5 24 57 56 31 2 
105 9 22 27 98 177 110 85 161 146 97 
106 9 134 179 111 80 28 166 124 37 44 
107 7 54 60 114 163 17 58 9 
108 9 144 49 23 75 77 63 162 51 69 
109 7 10 127 129 86 39 136 112 
110 6 22 83 177 105 98 27 
111 9 134 106 80 179 28 44 100 13 156 
112 6 173 70 88 18 152 94 
113 8 172 65 76 40 123 78 3 128 
114 8 58 163 54 38 107 16 9 147 
115 9 157 79 159 9 147 30 71 181 14 
116 7 167 26 82 43 154 92 21 
117 6 180 138 156 100 13 137 
118 9 30 16 71 147 159 79 163 58 114 
119 5 34 12 87 171 158 
120 2 68 25 
121 9 19 35 45 102 139 149 182 84 170 
122 9 146 183 85 97 96 161 29 27 98 
123 9 76 65 78 172 3 128 40 113 63 
124 9 37 28 166 6 41 80 106 33 74 
125 7 51 108 144 75 23 69 49 
126 7 140 89 135 143 132 151 29 
127 7 10 129 109 86 136 112 39 
128 9 3 52 123 76 40 162 78 172 65 
129 7 127 109 10 86 39 136 112 
130 5 36 151 29 96 150 
131 3 119 87 11 
132 6 7 141 126 72 140 145 
133 9 169 55 165 93 152 94 18 173 88 
134 9 106 111 179 80 28 44 37 124 166 
135 7 89 140 126 29 98 177 83 
136 1 10 
137 9 175 13 101 62 44 180 100 156 117 
138 7 117 180 156 100 13 137 175 
139 7 149 170 45 182 19 35 142 
140 6 89 126 135 132 29 83 
141 2 7 132 
142 7 84 17 139 149 73 170 19 
143 6 25 72 126 148 140 132 
144 8 75 23 108 49 69 77 162 63 
145 5 72 182 25 7 170 
146 9 85 122 97 161 183 27 105 98 47 
147 9 16 30 9 163 114 54 115 58 118 
148 5 68 25 120 143 72 
149 7 139 170 45 182 19 142 35 
150 6 178 53 96 81 20 130 
151 4 36 130 29 89 
152 9 88 173 18 55 94 112 93 169 70 
153 5 32 158 64 171 4 
154 6 82 167 26 116 92 43 
155 9 47 20 81 178 53 183 97 96 122 
156 8 100 180 138 117 13 175 137 80 
157 8 115 181 79 95 14 159 121 176 
158 4 171 34 153 4 
159 9 79 71 8 14 181 115 157 176 30 
160 3 90 67 2 
161 9 85 97 146 122 105 27 183 22 47 
162 8 63 52 78 3 128 23 123 75 
163 8 114 54 58 9 147 107 16 38 
164 4 59 103 11 131 
165 9 93 55 133 169 152 176 8 18 88 
166 7 124 37 28 33 6 174 179 
167 6 82 154 116 26 92 43 
168 7 21 46 43 92 116 26 138 
169 9 55 133 152 94 93 165 173 18 88 
170 6 139 149 182 45 19 35 
171 5 158 34 119 4 153 
172 9 113 76 65 40 123 78 3 128 63 
173 7 112 88 70 152 94 18 55 
174 5 33 6 74 166 124 
175 9 137 13 101 44 62 100 156 180 117 
176 9 14 181 18 95 8 159 93 88 79 
177 8 98 83 27 110 22 105 135 89 
178 8 53 81 20 150 96 155 183 47 
179 8 106 134 111 166 28 124 80 37 
180 7 117 138 156 100 13 137 175 
181 8 14 95 157 176 79 159 18 115 
182 9 45 170 139 149 35 19 91 102 145 
183 9 122 97 146 47 96 85 161 155 20 
DEPOT_SECTION
   1
   -1
EOF
