NAME :  X-n200-kX-w19-c7.cctp
COMMENT : 	Adapted by Maziero, Usberti and Cavellucci from the Uchoa, Pecin, Pessoa, Poggi, Subramanian, and Vidal (2013)
TYPE :  CCTP
DIMENSION :    121
EDGE_WEIGHT_TYPE : 	EUC_2D	
CAPACITY : 	402
VERTICES_WITHIN_COVERAGE :  7
VERTICES_WITH_DEMAND : 	19
NODE_COORD_SECTION
1 957 135
2 149 141
3 1 96
4 228 268
5 781 529
6 867 797
7 109 53
8 13 449
9 133 293
10 259 172
11 908 678
12 930 867
13 903 766
14 143 263
15 735 501
16 259 253
17 59 62
18 737 464
19 925 587
20 16 404
21 893 720
22 226 228
23 113 323
24 797 381
25 804 573
26 307 141
27 40 347
28 933 708
29 906 725
30 242 231
31 310 255
32 183 308
33 122 254
34 1 437
35 118 317
36 180 118
37 875 774
38 792 774
39 890 821
40 230 234
41 756 455
42 121 248
43 96 15
44 893 822
45 121 170
46 770 580
47 122 320
48 824 813
49 256 265
50 726 553
51 864 742
52 149 74
53 872 329
54 847 817
55 864 575
56 976 818
57 193 126
58 79 88
59 146 120
60 66 480
61 9 421
62 152 157
63 318 223
64 184 277
65 20 67
66 165 63
67 62 410
68 176 261
69 223 301
70 7 164
71 188 108
72 770 537
73 168 99
74 641 321
75 174 165
76 886 816
77 214 261
78 104 44
79 393 114
80 894 577
81 127 150
82 873 468
83 60 105
84 133 232
85 147 252
86 778 547
87 46 419
88 83 80
89 43 466
90 337 216
91 9 55
92 127 123
93 771 491
94 727 549
95 26 332
96 798 525
97 875 568
98 241 285
99 45 86
100 163 168
101 322 272
102 958 864
103 754 814
104 111 119
105 120 300
106 686 372
107 32 68
108 113 76
109 157 167
110 330 253
111 900 858
112 15 37
113 130 274
114 13 535
115 800 823
116 224 244
117 580 504
118 3 172
119 62 499
120 163 305
121 135 270
DEMAND_SECTION
2 83
3 52
4 73
5 70
6 86
7 51
8 74
9 84
10 52
11 93
12 91
13 89
14 64
15 75
16 64
17 61
18 2
19 86
20 95
COVERAGE_SECTION
2 7 62 59 81 109 92 100 75 
3 7 65 91 107 99 83 112 17 
4 7 77 98 116 49 69 16 40 
5 7 72 96 86 93 25 46 15 
6 5 37 76 54 39 44 
7 6 78 108 88 43 52 58 
8 7 34 61 89 20 87 60 67 
9 7 105 113 121 35 47 14 120 
10 6 26 30 22 40 63 57 
11 6 28 21 29 51 13 19 
12 3 102 111 44 
13 6 37 29 51 21 6 76 
14 7 121 85 113 33 42 9 68 
15 7 18 93 94 72 41 50 5 
16 7 49 30 4 40 116 98 22 
17 7 99 107 88 58 65 83 78 
18 7 41 15 93 5 72 94 96 
19 4 80 97 55 11 
20 6 61 87 34 8 67 27 
21 7 29 51 28 11 13 37 6 
22 6 40 30 116 77 4 16 
23 5 35 47 105 9 113 
24 4 41 53 18 106 
25 5 46 86 96 5 72 
26 4 10 90 63 79 
27 2 95 20 
28 7 29 11 21 13 51 37 6 
29 7 21 28 13 51 11 37 6 
30 7 40 22 116 16 49 4 77 
31 7 110 101 63 90 16 49 30 
32 5 120 64 69 68 9 
33 6 42 121 113 14 84 85 
34 7 8 61 20 87 89 67 60 
35 6 47 23 105 9 113 120 
36 7 71 57 73 59 2 75 62 
37 7 6 13 51 76 39 44 54 
38 6 48 115 103 54 6 51 
39 3 44 76 6 
40 7 22 30 116 77 4 16 49 
41 7 18 93 15 5 96 72 24 
42 6 33 84 85 121 14 113 
43 7 78 7 17 108 88 58 52 
44 3 39 76 6 
45 4 81 62 109 2 
46 6 86 25 72 5 50 94 
47 6 35 23 105 9 120 113 
48 7 54 115 6 38 76 37 39 
49 7 16 98 4 30 116 40 77 
50 6 94 72 46 86 15 5 
51 7 37 21 29 13 6 28 54 
52 7 66 73 108 7 59 71 36 
53 4 24 82 41 18 
54 6 48 6 76 39 44 115 
55 4 97 80 25 19 
56 4 102 12 44 39 
57 7 36 71 73 75 2 59 62 
58 5 88 83 17 99 108 
59 7 92 2 73 36 104 81 62 
60 4 119 89 8 87 
61 7 20 34 8 87 67 89 27 
62 6 109 2 100 75 81 45 
63 7 90 110 31 101 16 49 30 
64 5 68 32 77 120 14 
65 7 107 91 112 99 3 17 83 
66 6 52 73 71 108 7 36 
67 2 87 20 
68 5 64 85 14 77 121 
69 4 98 4 32 77 
70 2 118 3 
71 7 36 57 73 59 2 66 52 
72 7 86 5 96 46 94 93 50 
73 7 36 71 59 52 66 57 2 
74 5 106 24 18 41 117 
75 5 100 109 62 2 57 
76 3 39 44 6 
77 7 4 116 40 64 22 98 68 
78 6 7 43 108 88 17 58 
79 4 26 90 63 10 
80 4 97 55 19 25 
81 6 45 2 62 92 109 104 
82 6 96 97 93 55 5 80 
83 4 99 58 88 17 
84 6 42 85 33 14 121 113 
85 7 14 121 84 33 42 113 68 
86 7 72 5 96 46 25 94 50 
87 6 67 20 61 8 89 34 
88 5 58 17 108 83 7 
89 7 60 8 119 87 34 61 67 
90 7 63 110 31 101 26 16 10 
91 7 65 112 107 3 99 17 83 
92 6 104 59 81 2 62 45 
93 7 15 5 41 18 96 72 86 
94 6 50 72 15 86 46 5 
95 2 27 20 
96 6 5 72 86 93 25 46 
97 4 55 80 19 25 
98 6 4 69 49 77 16 116 
99 6 107 83 17 65 58 88 
100 4 109 75 62 2 
101 7 31 110 63 90 16 49 98 
102 4 12 56 111 44 
103 5 115 38 48 54 6 
104 5 92 59 81 108 2 
105 7 9 35 47 23 113 121 120 
106 6 74 18 41 24 15 93 
107 7 65 99 91 17 112 3 83 
108 6 7 88 78 52 58 104 
109 4 100 62 75 2 
110 7 31 101 63 90 16 49 30 
111 2 12 44 
112 7 91 65 107 17 99 3 88 
113 7 121 14 9 33 42 85 105 
114 4 119 89 60 8 
115 5 48 54 103 38 6 
116 7 40 22 77 30 4 16 49 
117 5 50 94 15 18 106 
118 2 70 3 
119 4 60 89 114 8 
120 6 32 9 64 105 47 113 
121 7 113 14 33 85 9 42 105 
DEPOT_SECTION
   1
   -1
EOF
