NAME :  X-n233-kX-w92-c9.cctp
COMMENT : 	Adapted by Maziero, Usberti and Cavellucci from the Uchoa, Pecin, Pessoa, Poggi, Subramanian, and Vidal (2013)
TYPE :  CCTP
DIMENSION :    211
EDGE_WEIGHT_TYPE : 	EUC_2D	
CAPACITY : 	631
VERTICES_WITHIN_COVERAGE :  9
VERTICES_WITH_DEMAND : 	92
NODE_COORD_SECTION
1 500 500
2 816 981
3 349 338
4 22 205
5 385 344
6 913 54
7 524 123
8 239 335
9 150 84
10 84 860
11 645 647
12 507 516
13 153 940
14 429 602
15 596 759
16 776 399
17 942 767
18 871 2
19 714 950
20 72 400
21 765 315
22 666 798
23 287 851
24 3 201
25 78 724
26 896 240
27 59 735
28 253 251
29 37 22
30 973 599
31 726 13
32 82 262
33 2 631
34 133 656
35 435 741
36 834 714
37 37 861
38 946 211
39 290 110
40 423 350
41 406 414
42 804 581
43 846 956
44 849 683
45 79 883
46 433 93
47 610 253
48 686 486
49 229 248
50 382 597
51 544 618
52 585 303
53 732 387
54 533 952
55 563 807
56 780 940
57 665 561
58 591 536
59 35 216
60 577 969
61 811 927
62 592 744
63 280 384
64 866 228
65 153 27
66 401 481
67 72 488
68 610 324
69 381 300
70 209 675
71 139 848
72 354 124
73 386 572
74 36 764
75 660 422
76 719 264
77 761 560
78 231 203
79 769 312
80 905 645
81 304 372
82 970 966
83 51 257
84 189 934
85 516 6
86 756 36
87 47 139
88 428 61
89 100 853
90 923 919
91 751 480
92 555 726
93 463 190
94 130 131
95 105 943
96 83 892
97 215 690
98 869 706
99 512 831
100 603 287
101 668 913
102 954 694
103 321 587
104 282 907
105 339 810
106 30 659
107 339 296
108 367 511
109 448 223
110 72 181
111 323 183
112 684 125
113 415 387
114 882 359
115 485 115
116 133 541
117 368 424
118 585 302
119 991 97
120 198 817
121 634 849
122 142 639
123 436 774
124 245 581
125 112 691
126 665 246
127 37 450
128 899 115
129 983 90
130 429 752
131 696 466
132 629 807
133 506 293
134 11 521
135 50 515
136 677 876
137 171 930
138 919 111
139 425 775
140 129 852
141 504 181
142 919 181
143 390 729
144 83 649
145 469 662
146 161 759
147 656 281
148 90 681
149 563 555
150 155 612
151 213 837
152 280 680
153 473 689
154 153 586
155 273 698
156 191 650
157 645 830
158 384 375
159 65 890
160 137 561
161 561 523
162 481 236
163 725 818
164 272 710
165 998 76
166 544 282
167 866 252
168 439 687
169 470 303
170 636 804
171 461 690
172 912 114
173 372 683
174 378 754
175 412 780
176 637 870
177 953 185
178 541 254
179 498 856
180 535 304
181 652 948
182 117 832
183 648 144
184 371 627
185 634 872
186 235 979
187 271 865
188 115 761
189 553 750
190 723 813
191 570 761
192 114 660
193 159 883
194 460 699
195 320 641
196 508 754
197 294 874
198 265 793
199 999 75
200 662 727
201 464 770
202 724 174
203 603 260
204 530 286
205 814 812
206 96 554
207 605 284
208 134 625
209 568 454
210 220 931
211 162 792
DEMAND_SECTION
2 53
3 64
4 54
5 63
6 45
7 6
8 100
9 63
10 5
11 74
12 87
13 11
14 33
15 63
16 36
17 93
18 28
19 89
20 64
21 8
22 69
23 40
24 65
25 29
26 30
27 19
28 78
29 78
30 55
31 6
32 94
33 25
34 38
35 2
36 69
37 42
38 43
39 94
40 74
41 54
42 93
43 76
44 92
45 49
46 85
47 4
48 12
49 70
50 17
51 82
52 16
53 1
54 51
55 94
56 74
57 56
58 66
59 79
60 88
61 65
62 87
63 62
64 5
65 67
66 78
67 57
68 45
69 82
70 18
71 35
72 88
73 8
74 13
75 37
76 45
77 75
78 70
79 13
80 69
81 59
82 88
83 88
84 23
85 4
86 49
87 67
88 75
89 9
90 94
91 45
92 59
93 100
COVERAGE_SECTION
2 9 43 61 56 19 90 82 101 181 205 
3 9 5 107 69 158 81 40 113 63 117 
4 9 59 24 110 83 87 32 94 9 29 
5 9 158 3 40 69 113 107 41 117 81 
6 8 138 172 128 18 129 165 119 199 
7 9 115 141 93 46 88 85 162 109 183 
8 9 63 81 28 49 107 3 78 5 69 
9 9 94 65 87 110 29 39 78 59 4 
10 9 89 45 96 159 182 140 37 71 193 
11 9 200 57 51 62 92 15 58 149 191 
12 9 161 149 58 209 51 66 14 73 108 
13 9 137 84 95 193 210 96 140 186 45 
14 9 50 73 184 145 168 171 153 173 194 
15 9 62 191 189 92 55 132 170 200 22 
16 9 53 21 91 79 131 114 75 48 76 
17 9 102 98 36 44 80 205 90 30 82 
18 9 6 128 138 172 86 129 31 165 199 
19 9 101 181 56 136 61 2 176 185 121 
20 8 127 67 135 134 32 83 116 206 
21 9 79 76 53 16 147 167 126 114 64 
22 9 170 132 157 190 121 163 200 176 136 
23 8 187 197 104 198 105 151 120 210 
24 9 4 59 110 83 87 32 94 29 9 
25 9 27 148 125 188 74 192 144 106 34 
26 9 64 167 38 142 177 114 128 172 138 
27 9 25 74 148 188 125 106 144 192 146 
28 9 49 78 8 107 111 3 81 63 69 
29 9 65 87 9 94 110 24 4 59 83 
30 9 80 102 98 44 42 17 36 77 91 
31 9 86 112 18 183 202 6 128 85 172 
32 9 83 59 110 4 24 87 20 94 49 
33 8 106 144 148 134 192 27 25 206 
34 9 122 192 208 125 150 144 148 156 154 
35 7 130 123 139 201 175 143 194 
36 9 44 98 80 205 17 102 42 190 163 
37 9 159 10 45 96 89 182 140 74 71 
38 8 177 142 26 64 167 172 138 128 
39 9 72 111 78 9 46 28 88 49 65 
40 9 5 113 158 69 41 169 3 117 107 
41 9 113 117 158 40 66 5 3 108 81 
42 9 77 44 91 80 36 57 98 48 131 
43 9 2 61 56 90 82 19 205 101 163 
44 9 98 36 80 102 42 17 205 30 77 
45 9 96 159 10 89 37 140 182 95 71 
46 9 88 115 72 7 93 141 85 109 111 
47 9 203 207 100 147 118 126 52 178 68 
48 9 131 91 75 57 77 58 53 209 16 
49 9 28 78 8 111 107 63 81 32 3 
50 7 73 184 14 103 195 108 173 
51 9 149 145 58 161 153 11 12 92 171 
52 9 118 100 207 68 166 203 180 47 204 
53 9 16 21 75 79 131 91 48 76 147 
54 7 60 179 181 99 185 176 101 
55 8 191 99 15 189 132 62 170 196 
56 9 61 2 19 43 101 136 181 205 163 
57 9 48 58 11 77 131 149 161 91 51 
58 9 161 149 57 209 12 51 48 11 131 
59 9 4 24 83 110 32 87 94 9 20 
60 9 54 181 101 185 176 121 136 19 179 
61 9 56 43 2 19 90 205 163 136 101 
62 9 15 191 189 92 55 200 132 170 196 
63 9 81 8 3 117 158 107 5 41 69 
64 9 167 26 142 38 177 128 172 79 138 
65 9 9 94 29 87 39 110 78 4 59 
66 9 108 117 41 73 113 158 12 50 14 
67 8 135 127 134 206 116 20 160 154 
68 9 52 118 100 207 147 203 47 166 180 
69 9 107 5 3 40 158 169 113 109 81 
70 9 97 156 155 152 164 122 34 150 208 
71 9 140 182 89 193 10 211 120 45 96 
72 9 39 111 46 88 93 115 109 78 141 
73 7 50 14 184 108 103 66 195 
74 9 27 25 188 37 148 106 125 182 10 
75 9 131 48 53 209 91 68 16 58 57 
76 9 126 147 21 79 202 47 203 207 100 
77 9 42 91 57 48 131 11 44 16 80 
78 9 49 28 111 39 94 8 107 9 72 
79 9 21 76 53 16 167 147 114 126 64 
80 9 44 102 98 30 36 42 17 77 205 
81 9 63 3 8 158 117 107 5 69 41 
82 9 90 43 2 61 56 17 205 19 102 
83 9 32 59 4 24 110 87 20 94 49 
84 9 137 210 13 193 186 95 104 71 151 
85 9 88 115 7 46 141 93 183 72 112 
86 9 31 112 18 202 183 6 128 172 138 
87 9 110 4 24 59 94 9 29 83 32 
88 9 46 115 72 85 7 93 141 39 111 
89 9 10 182 140 45 71 96 159 37 193 
90 9 82 43 61 2 56 17 205 19 98 
91 9 131 48 77 16 53 75 42 57 21 
92 9 189 191 62 15 196 55 153 194 171 
93 9 109 141 162 115 7 178 46 133 169 
94 9 9 110 87 65 78 59 4 32 29 
95 9 13 96 45 159 137 193 84 10 89 
96 9 45 159 10 89 37 95 140 182 71 
97 9 70 156 155 164 152 146 34 122 150 
98 9 44 36 80 102 17 205 42 30 190 
99 2 179 55 
100 9 207 118 52 203 47 68 147 166 178 
101 9 136 181 176 185 19 121 157 60 163 
102 9 80 17 98 30 44 36 205 42 90 
103 6 195 50 184 73 124 108 
104 8 197 187 23 210 186 84 151 105 
105 6 23 174 198 197 175 187 
106 9 33 144 148 25 27 192 125 34 74 
107 9 69 3 5 81 158 28 40 63 8 
108 9 66 73 50 117 103 41 14 184 113 
109 9 162 93 141 169 133 178 69 204 166 
110 9 87 59 4 24 94 83 32 9 78 
111 9 72 39 78 28 49 107 69 109 93 
112 9 183 202 86 31 126 76 47 203 147 
113 9 41 158 40 5 117 3 69 66 169 
114 9 167 16 26 79 21 64 53 38 91 
115 9 7 46 141 93 88 85 109 162 72 
116 7 160 206 154 150 67 208 135 
117 9 41 158 113 66 5 81 108 3 40 
118 9 52 100 207 68 166 203 180 47 204 
119 8 129 165 199 138 172 6 128 177 
120 9 151 211 71 146 198 140 193 182 187 
121 9 176 157 185 132 170 136 22 101 55 
122 9 208 34 150 192 156 154 125 144 148 
123 5 139 130 175 201 35 
124 6 103 156 154 150 195 70 
125 9 148 192 34 25 144 122 27 188 208 
126 9 147 47 76 203 207 100 202 68 52 
127 8 67 20 135 134 206 116 160 154 
128 8 172 138 6 142 129 177 119 165 
129 8 119 165 199 138 172 6 128 177 
130 6 35 123 139 175 201 143 
131 9 48 75 91 53 57 16 77 58 209 
132 9 170 157 22 121 15 176 185 55 62 
133 9 204 180 169 166 178 162 52 118 109 
134 8 135 67 127 206 33 116 160 20 
135 8 67 134 206 127 116 160 20 154 
136 9 101 176 185 121 157 163 181 190 22 
137 9 84 13 193 210 95 186 71 140 96 
138 8 172 128 6 129 142 119 177 165 
139 5 123 175 130 35 201 
140 9 71 182 89 193 10 45 96 211 159 
141 9 93 162 7 115 109 178 204 166 133 
142 8 177 38 26 172 128 138 64 167 
143 8 174 130 35 173 175 139 123 168 
144 9 148 192 34 125 106 208 122 25 150 
145 9 153 171 194 168 14 35 51 130 173 
146 9 211 188 120 125 182 97 25 71 151 
147 9 126 207 100 47 203 68 76 52 118 
148 9 125 192 144 25 34 27 106 122 208 
149 9 161 58 51 12 209 57 11 48 14 
150 7 208 154 122 34 156 160 192 
151 9 120 187 198 211 193 23 71 140 197 
152 6 155 164 195 97 70 173 
153 9 171 194 145 168 35 196 130 201 92 
154 7 150 160 208 116 122 206 34 
155 6 164 152 97 70 195 156 
156 9 70 97 122 150 34 208 154 192 124 
157 9 121 132 170 22 176 185 136 190 163 
158 9 5 113 41 40 3 117 69 81 107 
159 9 45 96 10 37 89 95 140 182 71 
160 7 116 154 206 150 208 122 34 
161 9 149 58 12 209 51 57 48 75 131 
162 9 109 93 141 133 178 169 204 166 180 
163 9 190 22 136 157 205 170 121 132 176 
164 6 155 152 97 70 198 195 
165 8 199 129 119 138 6 172 128 177 
166 9 204 180 178 133 52 118 100 207 203 
167 9 64 26 142 38 114 177 79 21 128 
168 8 171 194 153 145 35 143 130 173 
169 9 133 204 180 40 162 166 109 178 69 
170 9 132 157 22 121 15 176 185 55 62 
171 9 194 153 168 145 35 130 196 201 143 
172 8 138 128 6 142 129 119 177 165 
173 6 143 184 168 195 174 35 
174 8 143 175 130 139 35 123 105 173 
175 5 139 123 130 174 35 
176 9 185 121 136 157 101 132 170 22 181 
177 8 38 142 26 138 172 128 119 64 
178 9 166 204 180 133 203 162 118 52 47 
179 2 99 55 
180 9 204 166 133 52 118 178 169 100 207 
181 9 101 19 136 60 185 176 121 157 54 
182 9 140 71 89 10 211 45 193 96 188 
183 9 112 202 126 47 203 7 147 76 207 
184 6 50 195 173 73 14 103 
185 9 176 121 136 157 101 132 170 181 22 
186 9 210 84 137 104 13 187 197 193 95 
187 9 23 197 104 151 198 210 105 120 84 
188 9 146 25 211 27 125 182 74 148 71 
189 8 191 92 62 15 196 55 99 201 
190 9 163 22 136 157 170 205 132 121 176 
191 9 189 15 62 92 55 196 132 170 99 
192 9 34 125 148 144 122 208 150 25 156 
193 9 71 140 137 13 84 89 182 151 96 
194 9 171 153 168 145 35 130 201 196 143 
195 6 184 103 152 173 155 50 
196 5 189 201 92 191 194 
197 8 23 187 104 105 198 151 210 120 
198 9 23 151 120 187 105 164 197 155 211 
199 8 165 129 119 138 6 172 128 177 
200 9 22 62 15 170 11 132 191 157 190 
201 4 123 130 139 35 
202 9 112 183 76 126 147 47 86 79 21 
203 9 47 207 100 118 52 147 178 166 68 
204 9 166 180 133 178 118 52 169 162 100 
205 9 163 190 36 61 98 56 44 17 43 
206 7 116 160 135 154 67 208 150 
207 9 100 203 118 52 47 68 147 166 126 
208 8 122 150 34 192 154 144 156 160 
209 9 161 58 12 75 149 48 131 68 57 
210 9 84 137 186 104 13 193 187 197 151 
211 9 146 120 188 182 71 140 151 89 193 
DEPOT_SECTION
   1
   -1
EOF
