NAME :  X-n228-kX-w90-c7.cctp
COMMENT : 	Adapted by Maziero, Usberti and Cavellucci from the Uchoa, Pecin, Pessoa, Poggi, Subramanian, and Vidal (2013)
TYPE :  CCTP
DIMENSION :    221
EDGE_WEIGHT_TYPE : 	EUC_2D	
CAPACITY : 	154
VERTICES_WITHIN_COVERAGE :  7
VERTICES_WITH_DEMAND : 	90
NODE_COORD_SECTION
1 550 574
2 177 24
3 448 476
4 934 619
5 323 122
6 430 76
7 364 9
8 988 994
9 91 636
10 938 641
11 979 764
12 4 748
13 420 164
14 294 15
15 304 89
16 362 207
17 770 344
18 67 634
19 90 44
20 712 418
21 299 6
22 997 871
23 38 695
24 830 1000
25 916 622
26 445 107
27 314 222
28 292 519
29 183 344
30 520 434
31 262 283
32 996 902
33 115 158
34 371 61
35 971 352
36 448 484
37 299 89
38 402 147
39 537 431
40 389 48
41 186 22
42 658 505
43 459 528
44 956 900
45 486 383
46 36 651
47 994 713
48 270 100
49 944 606
50 813 917
51 318 42
52 17 369
53 398 280
54 74 760
55 910 623
56 96 604
57 432 96
58 188 17
59 441 480
60 458 124
61 557 620
62 196 51
63 253 137
64 953 658
65 389 0
66 386 127
67 140 683
68 293 75
69 475 386
70 224 487
71 299 157
72 556 346
73 366 110
74 681 864
75 220 97
76 382 140
77 266 88
78 440 423
79 168 19
80 616 244
81 270 177
82 126 666
83 332 85
84 234 26
85 834 571
86 49 602
87 248 74
88 81 696
89 308 43
90 915 675
91 500 518
92 510 353
93 329 86
94 830 724
95 993 634
96 959 600
97 991 973
98 411 25
99 382 303
100 477 58
101 225 31
102 439 456
103 120 710
104 462 471
105 107 134
106 970 995
107 427 501
108 938 650
109 370 16
110 460 140
111 263 59
112 411 89
113 953 944
114 79 357
115 757 867
116 343 121
117 361 316
118 407 508
119 414 117
120 576 591
121 418 27
122 837 660
123 174 487
124 168 601
125 854 575
126 193 51
127 458 659
128 957 641
129 51 647
130 137 714
131 203 140
132 386 146
133 976 649
134 281 121
135 453 69
136 393 25
137 341 532
138 466 153
139 507 472
140 327 78
141 301 135
142 256 139
143 997 980
144 343 173
145 860 622
146 151 798
147 317 211
148 418 6
149 833 694
150 83 641
151 229 449
152 283 204
153 513 697
154 232 96
155 247 22
156 651 664
157 857 701
158 337 72
159 439 65
160 398 106
161 409 24
162 931 476
163 368 92
164 97 676
165 880 606
166 281 199
167 410 110
168 252 22
169 181 147
170 945 948
171 135 618
172 348 443
173 296 39
174 953 368
175 81 826
176 997 734
177 533 134
178 372 134
179 231 681
180 317 479
181 143 603
182 122 38
183 220 898
184 946 690
185 95 37
186 429 9
187 137 64
188 361 258
189 153 65
190 536 296
191 509 404
192 423 59
193 162 759
194 525 342
195 943 678
196 522 195
197 371 335
198 289 136
199 191 568
200 505 381
201 265 55
202 125 62
203 304 44
204 958 610
205 975 966
206 277 631
207 285 169
208 486 111
209 940 621
210 993 964
211 771 548
212 484 276
213 440 455
214 104 561
215 200 61
216 277 169
217 177 695
218 628 312
219 430 429
220 945 994
221 461 608
DEMAND_SECTION
2 79
3 57
4 88
5 54
6 92
7 84
8 61
9 100
10 61
11 69
12 78
13 54
14 59
15 60
16 61
17 85
18 67
19 96
20 57
21 57
22 52
23 80
24 60
25 71
26 93
27 59
28 88
29 77
30 50
31 98
32 53
33 54
34 99
35 10
36 9
37 8
38 9
39 7
40 10
41 9
42 2
43 3
44 3
45 7
46 8
47 3
48 2
49 2
50 10
51 2
52 10
53 3
54 9
55 7
56 4
57 6
58 6
59 3
60 3
61 9
62 9
63 9
64 5
65 2
66 10
67 2
68 5
69 9
70 6
71 3
72 7
73 10
74 7
75 10
76 6
77 3
78 10
79 6
80 2
81 4
82 4
83 9
84 5
85 9
86 5
87 5
88 7
89 1
90 10
91 4
COVERAGE_SECTION
2 7 41 79 58 126 62 215 189 
3 7 36 59 104 102 213 107 219 
4 7 209 49 25 10 55 204 96 
5 7 116 141 93 198 15 83 37 
6 7 159 192 57 112 135 26 167 
7 7 109 65 136 40 161 98 34 
8 6 143 106 97 210 205 220 
9 7 150 18 56 164 129 82 171 
10 7 108 128 209 4 64 25 55 
11 7 176 47 184 195 22 64 90 
12 7 23 54 88 46 175 129 164 
13 7 38 132 76 110 119 138 66 
14 7 21 173 89 203 51 168 155 
15 7 37 68 93 140 83 48 158 
16 7 144 147 27 188 132 76 13 
17 7 20 218 80 174 42 35 211 
18 7 150 129 9 46 86 56 164 
19 7 185 182 202 187 189 79 2 
20 7 17 42 218 211 72 39 30 
21 7 14 173 89 203 51 168 155 
22 7 32 44 113 170 210 205 97 
23 7 88 46 129 164 12 18 150 
24 6 50 220 170 113 106 205 
25 7 55 4 209 10 49 108 165 
26 7 57 60 119 6 167 110 112 
27 7 147 152 166 16 144 188 207 
28 7 180 137 70 151 172 199 206 
29 7 31 114 151 123 70 52 152 
30 7 39 191 139 200 45 69 104 
31 7 27 152 166 147 29 188 117 
32 7 22 44 113 210 205 170 97 
33 7 105 169 131 187 202 189 19 
34 7 40 163 158 136 109 83 140 
35 7 174 162 17 96 125 49 85 
36 7 3 59 104 107 102 213 43 
37 7 15 68 93 140 48 77 83 
38 7 132 76 13 66 119 178 167 
39 7 30 191 139 200 45 69 92 
40 7 34 136 161 98 121 192 109 
41 7 58 2 79 126 62 101 215 
42 7 20 120 211 39 61 30 139 
43 7 91 107 36 59 3 118 104 
44 6 32 113 170 22 205 210 
45 7 69 200 191 92 194 30 78 
46 7 129 18 23 150 86 9 88 
47 7 176 11 184 195 133 64 95 
48 7 77 134 37 68 87 15 154 
49 7 204 4 96 209 25 10 128 
50 6 115 24 170 74 113 44 
51 7 89 203 173 14 158 140 21 
52 7 114 29 123 214 151 33 86 
53 7 99 188 117 197 16 212 27 
54 7 88 175 103 12 23 130 146 
55 7 25 4 209 10 165 49 108 
56 7 9 150 171 18 214 86 181 
57 7 26 6 112 167 119 159 135 
58 7 41 2 79 126 62 101 215 
59 7 3 36 104 102 107 213 118 
60 7 110 26 138 208 57 119 167 
61 7 120 153 221 156 127 91 43 
62 7 126 215 41 2 58 101 79 
63 7 142 134 198 216 48 81 207 
64 7 108 128 195 10 133 184 209 
65 7 109 136 7 148 161 98 121 
66 7 76 178 132 160 38 73 167 
67 7 82 130 103 217 164 88 171 
68 7 37 15 77 203 48 111 140 
69 7 45 200 191 92 78 219 30 
70 7 151 123 28 199 180 137 124 
71 7 207 141 198 216 81 134 5 
72 7 194 92 190 200 191 45 218 
73 7 163 116 178 66 160 76 132 
74 7 115 50 24 156 94 149 153 
75 7 154 87 215 131 77 48 62 
76 7 132 178 66 38 73 160 119 
77 7 48 87 111 68 37 201 154 
78 7 219 213 102 69 104 3 59 
79 7 2 41 58 126 62 189 182 
80 7 218 190 196 72 194 212 177 
81 7 216 207 166 152 71 142 63 
82 7 67 164 103 9 130 171 150 
83 7 93 140 158 15 37 163 5 
84 7 101 155 168 201 111 62 58 
85 7 125 145 165 211 122 55 25 
86 7 18 129 56 46 150 9 214 
87 7 111 77 201 154 48 75 68 
88 7 164 103 23 82 150 129 130 
89 7 203 51 173 14 68 21 140 
90 7 195 108 184 10 64 55 25 
91 7 43 139 104 36 3 59 107 
92 7 194 200 45 72 69 191 190 
93 7 83 140 158 15 37 5 68 
94 7 149 157 122 90 145 184 195 
95 7 133 128 204 64 96 10 209 
96 7 204 49 209 4 128 10 25 
97 6 143 210 205 8 106 113 
98 7 161 121 136 148 186 40 65 
99 7 117 53 197 188 16 27 212 
100 5 135 159 6 192 208 
101 7 84 155 168 62 126 215 41 
102 7 213 3 59 104 219 36 78 
103 7 130 67 88 164 82 217 193 
104 7 3 36 59 102 213 139 107 
105 7 33 202 169 187 189 19 131 
106 6 8 220 205 97 143 210 
107 7 118 59 36 3 43 104 102 
108 7 10 64 128 195 209 4 90 
109 7 7 65 136 40 161 98 34 
110 7 138 60 26 208 13 119 57 
111 7 201 87 77 68 168 173 155 
112 7 160 167 57 6 119 192 159 
113 6 170 205 44 210 97 220 
114 7 52 29 123 151 70 31 33 
115 7 50 74 24 94 149 157 44 
116 7 5 73 178 83 93 163 66 
117 7 197 99 53 188 31 27 16 
118 7 107 59 36 3 43 102 213 
119 7 167 160 57 112 66 38 26 
120 7 61 91 156 221 42 153 43 
121 7 98 161 148 186 136 192 40 
122 7 149 145 157 94 165 90 55 
123 7 70 151 199 214 124 181 28 
124 7 181 171 199 56 214 82 9 
125 7 85 165 145 55 25 122 211 
126 7 62 215 41 2 58 101 79 
127 7 221 153 61 43 120 91 118 
128 7 64 10 108 133 209 204 4 
129 7 46 18 150 9 86 23 164 
130 7 103 67 217 82 193 164 88 
131 7 169 75 63 142 154 81 48 
132 7 76 38 178 66 13 119 73 
133 7 128 95 64 108 10 204 195 
134 7 198 48 141 142 63 77 37 
135 6 159 6 100 192 57 26 
136 7 161 98 40 65 109 121 148 
137 7 28 180 118 172 107 59 36 
138 7 110 60 13 208 26 119 38 
139 7 30 104 91 39 3 36 59 
140 7 93 83 158 15 37 68 51 
141 7 198 71 134 5 207 216 116 
142 7 63 134 198 216 81 48 207 
143 6 97 210 8 205 106 220 
144 7 16 147 71 178 76 132 116 
145 7 165 122 125 55 25 85 4 
146 7 193 175 130 54 103 217 67 
147 7 27 152 166 16 144 207 71 
148 7 186 98 161 121 65 136 109 
149 7 157 94 122 145 90 165 55 
150 7 9 18 129 164 56 46 82 
151 7 70 123 180 28 29 172 199 
152 7 166 81 147 207 27 216 71 
153 7 127 61 221 120 156 43 91 
154 7 75 87 77 48 63 215 111 
155 7 168 84 101 201 111 14 87 
156 7 61 120 153 42 211 149 122 
157 7 149 94 122 90 145 195 184 
158 7 140 83 93 34 51 15 163 
159 7 6 135 192 57 112 100 26 
160 7 167 119 112 66 73 163 57 
161 7 98 121 136 148 186 40 65 
162 7 174 125 96 35 49 85 204 
163 7 73 34 160 83 158 116 66 
164 7 88 82 150 9 103 67 18 
165 7 145 55 25 125 4 85 209 
166 7 152 81 207 216 147 27 71 
167 7 119 160 112 57 66 26 38 
168 7 155 84 101 201 111 14 173 
169 7 131 75 33 154 63 105 142 
170 6 113 205 220 44 210 97 
171 7 181 124 56 9 82 150 67 
172 7 180 219 118 137 102 213 28 
173 7 203 89 51 14 21 201 68 
174 7 35 162 17 125 96 85 49 
175 7 54 146 193 12 103 130 88 
176 7 47 11 184 195 64 133 95 
177 5 208 196 138 110 60 
178 7 76 66 132 73 116 38 160 
179 7 217 206 67 130 124 193 82 
180 7 28 172 137 70 151 118 107 
181 7 171 124 56 214 199 9 82 
182 7 202 185 187 19 189 79 2 
183 7 146 193 175 54 130 217 103 
184 7 195 64 90 108 10 128 133 
185 7 19 182 202 187 189 79 2 
186 6 148 121 98 161 136 65 
187 7 202 189 182 185 19 79 2 
188 7 53 99 16 117 27 147 197 
189 7 187 202 182 126 62 215 2 
190 7 194 72 212 92 200 218 80 
191 7 200 45 30 69 39 92 194 
192 7 159 6 112 121 135 40 98 
193 7 146 130 103 217 67 54 82 
194 7 92 72 200 190 45 191 69 
195 7 184 64 90 108 10 128 133 
196 7 177 138 110 212 208 60 190 
197 7 117 99 53 188 172 219 78 
198 7 141 134 71 142 207 216 63 
199 7 124 181 171 123 70 214 56 
200 7 45 191 92 69 194 30 39 
201 7 111 87 77 68 168 173 155 
202 7 187 182 189 19 185 79 2 
203 7 89 173 51 14 68 21 140 
204 7 96 49 209 4 128 10 95 
205 6 97 210 143 106 8 113 
206 7 179 199 28 124 137 217 181 
207 7 216 81 71 166 198 152 141 
208 6 60 110 26 138 177 135 
209 7 4 49 10 204 25 128 96 
210 6 97 143 205 8 106 113 
211 7 85 125 145 42 165 122 20 
212 7 190 194 92 53 196 72 99 
213 7 102 3 59 104 219 36 78 
214 7 56 181 171 86 124 9 18 
215 7 62 126 101 41 75 2 58 
216 7 207 81 71 166 198 152 142 
217 7 67 130 179 82 103 193 164 
218 7 80 72 190 194 92 20 200 
219 7 78 102 213 3 59 104 36 
220 6 106 205 8 170 97 113 
221 7 127 43 61 91 153 107 118 
DEPOT_SECTION
   1
   -1
EOF
