NAME :  X-n294-kX-w58-c9.cctp
COMMENT : 	Adapted by Maziero, Usberti and Cavellucci from the Uchoa, Pecin, Pessoa, Poggi, Subramanian, and Vidal (2013)
TYPE :  CCTP
DIMENSION :    254
EDGE_WEIGHT_TYPE : 	EUC_2D	
CAPACITY : 	285
VERTICES_WITHIN_COVERAGE :  9
VERTICES_WITH_DEMAND : 	58
NODE_COORD_SECTION
1 500 500
2 940 231
3 721 848
4 618 44
5 993 145
6 636 512
7 274 496
8 245 945
9 449 812
10 29 650
11 399 8
12 548 19
13 769 717
14 221 850
15 980 233
16 477 922
17 498 720
18 136 832
19 351 663
20 58 67
21 889 569
22 28 334
23 804 928
24 900 138
25 393 403
26 982 609
27 79 299
28 684 582
29 169 252
30 405 925
31 875 191
32 674 112
33 576 537
34 539 63
35 338 657
36 210 209
37 676 568
38 949 826
39 572 890
40 210 615
41 737 46
42 30 527
43 131 724
44 671 842
45 727 566
46 507 497
47 524 134
48 167 665
49 819 108
50 929 582
51 713 738
52 352 626
53 887 547
54 176 645
55 611 289
56 457 532
57 11 147
58 958 60
59 587 187
60 790 956
61 974 63
62 306 225
63 961 969
64 238 736
65 758 840
66 88 44
67 507 811
68 768 476
69 51 914
70 494 445
71 953 33
72 922 45
73 748 111
74 544 867
75 477 596
76 322 79
77 439 150
78 586 764
79 214 599
80 925 138
81 797 107
82 751 783
83 738 913
84 703 73
85 681 886
86 627 27
87 887 310
88 478 345
89 571 600
90 834 858
91 657 233
92 126 769
93 317 934
94 477 559
95 542 94
96 370 432
97 520 621
98 666 178
99 631 484
100 820 918
101 687 877
102 752 983
103 157 720
104 709 898
105 300 878
106 728 617
107 66 59
108 991 657
109 717 47
110 463 177
111 100 392
112 438 722
113 43 247
114 71 476
115 69 560
116 471 14
117 115 806
118 194 337
119 921 320
120 104 495
121 36 456
122 500 152
123 277 601
124 962 575
125 588 181
126 941 728
127 108 931
128 11 814
129 209 800
130 129 525
131 126 149
132 31 219
133 97 324
134 495 122
135 759 480
136 780 669
137 786 769
138 759 159
139 282 633
140 361 17
141 957 103
142 544 544
143 27 318
144 665 656
145 523 586
146 539 783
147 833 988
148 16 637
149 91 472
150 41 388
151 623 780
152 660 155
153 700 658
154 946 783
155 607 815
156 87 771
157 658 874
158 527 853
159 459 577
160 352 829
161 937 639
162 554 438
163 833 692
164 421 999
165 908 447
166 469 163
167 509 61
168 488 408
169 600 359
170 510 460
171 342 691
172 95 216
173 787 465
174 700 873
175 659 568
176 478 525
177 988 980
178 241 353
179 28 661
180 724 842
181 2 660
182 210 180
183 843 9
184 430 92
185 265 453
186 209 673
187 20 952
188 673 659
189 185 335
190 138 655
191 263 155
192 769 741
193 831 678
194 401 625
195 212 360
196 192 520
197 596 376
198 449 679
199 579 295
200 333 352
201 837 944
202 377 500
203 797 97
204 65 235
205 440 877
206 439 326
207 407 621
208 550 241
209 169 68
210 253 243
211 76 852
212 642 116
213 598 124
214 997 660
215 14 98
216 774 9
217 791 671
218 299 800
219 575 109
220 290 897
221 953 348
222 895 790
223 25 242
224 761 886
225 501 846
226 731 4
227 337 71
228 106 973
229 623 580
230 978 669
231 884 559
232 10 910
233 390 602
234 451 134
235 569 98
236 672 867
237 69 790
238 584 520
239 954 912
240 761 734
241 192 875
242 88 353
243 777 38
244 98 68
245 642 658
246 824 694
247 238 825
248 137 683
249 357 593
250 541 423
251 537 99
252 137 539
253 719 213
254 68 173
DEMAND_SECTION
2 94
3 7
4 83
5 31
6 9
7 78
8 50
9 18
10 10
11 11
12 68
13 37
14 57
15 83
16 38
17 94
18 12
19 63
20 84
21 19
22 68
23 32
24 98
25 47
26 97
27 25
28 98
29 30
30 30
31 10
32 20
33 64
34 56
35 73
36 32
37 51
38 51
39 45
40 72
41 81
42 26
43 46
44 16
45 39
46 9
47 52
48 60
49 39
50 39
51 97
52 40
53 79
54 2
55 86
56 69
57 28
58 73
59 46
COVERAGE_SECTION
2 8 15 31 119 80 87 5 24 221 
3 9 180 174 65 101 44 104 236 85 224 
4 9 86 235 12 212 219 34 213 32 84 
5 9 141 80 61 15 58 24 2 71 72 
6 9 99 238 175 33 37 229 28 142 45 
7 7 185 196 202 123 96 79 249 
8 9 220 93 105 241 14 247 127 228 129 
9 9 67 225 205 158 112 146 160 17 74 
10 9 179 148 181 115 190 248 42 43 156 
11 7 140 116 227 184 76 167 234 
12 9 34 167 4 95 116 86 251 235 219 
13 9 240 192 136 217 137 51 246 82 163 
14 9 247 241 129 220 105 18 218 8 64 
15 8 2 5 119 80 31 221 87 24 
16 9 205 30 225 158 74 164 39 9 67 
17 9 112 198 146 67 78 97 9 75 225 
18 9 117 211 92 241 156 237 129 14 247 
19 9 35 171 52 194 207 249 233 139 123 
20 8 107 66 244 215 57 254 131 209 
21 8 231 53 50 124 161 26 165 193 
22 9 143 150 27 242 133 113 111 223 204 
23 8 100 60 201 224 147 83 90 102 
24 9 80 31 141 49 5 72 58 2 61 
25 9 96 200 206 168 202 88 70 170 185 
26 9 124 108 214 161 50 230 21 231 53 
27 9 133 143 242 22 113 204 223 172 132 
28 9 37 175 45 106 229 144 153 188 6 
29 9 36 172 182 210 189 118 27 133 204 
30 9 205 16 164 93 160 105 220 9 225 
31 8 24 80 2 49 15 81 87 138 
32 9 212 152 84 98 73 213 109 4 41 
33 9 238 142 89 229 6 145 99 46 175 
34 9 167 95 251 12 235 219 47 134 4 
35 9 19 52 171 139 249 194 233 207 123 
36 7 182 210 29 191 62 131 172 
37 9 28 175 45 229 6 106 144 188 153 
38 5 154 222 239 126 90 
39 9 74 158 155 225 157 16 67 236 85 
40 9 79 54 186 48 123 139 190 196 248 
41 9 109 243 226 84 216 73 203 81 32 
42 9 115 114 121 120 149 130 252 148 10 
43 9 103 248 92 156 48 190 117 54 237 
44 9 236 157 101 174 85 3 180 104 155 
45 9 28 37 106 175 135 153 68 229 6 
46 9 170 176 70 142 56 94 162 33 238 
47 9 122 134 251 95 219 235 166 34 234 
48 9 54 190 248 186 103 40 43 79 64 
49 9 81 203 73 138 243 24 31 183 41 
50 9 124 21 231 53 161 26 108 230 214 
51 9 240 192 82 13 137 153 188 144 136 
52 9 249 35 19 233 194 207 171 139 123 
53 8 231 21 50 124 165 161 26 173 
54 9 48 190 186 40 248 79 103 43 139 
55 7 199 169 91 208 197 59 125 
56 9 176 94 159 46 75 145 202 142 170 
57 9 215 254 132 20 223 204 107 113 172 
58 9 61 71 72 141 80 5 24 183 49 
59 9 125 213 208 219 98 152 47 91 212 
60 8 23 102 100 201 147 83 224 104 
61 9 58 71 141 72 5 80 24 183 49 
62 3 210 191 36 
63 9 177 239 201 147 38 100 23 90 60 
64 9 186 129 103 218 247 48 43 54 139 
65 8 180 3 224 82 174 83 104 137 
66 8 244 107 20 209 215 131 57 254 
67 9 225 146 158 9 74 17 78 205 155 
68 4 135 173 45 37 
69 9 232 187 127 211 228 128 18 237 117 
70 7 170 168 250 46 162 176 56 
71 9 58 72 61 141 80 183 24 5 49 
72 9 71 58 61 141 183 80 24 49 5 
73 9 81 138 203 84 41 49 109 32 243 
74 9 158 39 225 67 155 146 16 205 9 
75 9 159 94 145 97 56 176 207 194 142 
76 5 227 140 191 11 184 
77 7 234 166 110 184 122 134 47 
78 9 151 146 155 67 17 158 74 44 225 
79 9 40 54 123 186 139 48 196 190 252 
80 9 24 141 5 31 58 61 72 2 71 
81 9 203 49 73 138 243 41 84 109 216 
82 8 137 192 240 65 51 180 13 3 
83 8 104 224 174 101 85 3 60 23 
84 9 109 41 32 73 226 212 243 86 4 
85 8 101 236 174 157 104 44 3 180 
86 9 4 12 84 212 109 235 34 32 219 
87 3 119 221 2 
88 7 206 168 250 70 25 199 170 
89 9 145 97 229 142 33 238 245 75 175 
90 5 100 23 65 224 201 
91 7 98 253 55 152 59 125 199 
92 9 117 156 43 103 237 18 248 129 211 
93 9 220 105 8 30 160 164 14 218 247 
94 9 159 56 176 75 145 46 142 97 207 
95 9 251 235 34 219 47 167 134 213 122 
96 9 25 202 200 185 7 168 70 206 56 
97 9 145 75 89 94 159 142 198 17 33 
98 8 152 91 253 32 212 125 59 213 
99 8 6 238 33 175 162 37 229 142 
100 7 23 201 60 90 224 147 83 
101 9 85 174 236 157 104 44 3 180 83 
102 8 60 83 23 147 100 201 104 224 
103 9 43 248 48 92 190 186 54 64 156 
104 8 174 85 101 83 236 3 224 157 
105 9 220 93 160 218 247 14 8 241 30 
106 9 153 45 28 188 37 136 144 217 175 
107 8 20 66 244 215 209 57 131 254 
108 8 214 230 26 161 124 126 50 154 
109 9 41 84 226 243 216 73 32 86 203 
110 6 166 77 122 234 134 47 
111 8 242 150 133 149 114 121 22 27 
112 9 198 17 9 171 194 19 207 67 146 
113 9 223 204 132 172 27 143 254 22 133 
114 8 149 120 121 42 130 115 111 252 
115 9 42 130 252 120 114 149 148 10 121 
116 9 167 11 12 34 184 95 251 140 134 
117 9 18 92 156 237 211 43 129 103 241 
118 7 189 195 178 29 133 242 111 
119 3 87 221 2 
120 7 149 114 130 252 115 121 42 
121 8 114 149 150 42 120 111 115 242 
122 9 47 134 166 110 234 77 251 95 219 
123 9 139 79 40 52 249 35 19 186 7 
124 9 50 26 161 21 53 231 108 214 230 
125 9 59 213 208 219 152 98 47 212 235 
126 7 154 230 222 108 214 161 38 
127 9 228 69 211 187 232 241 18 117 8 
128 9 237 211 156 232 117 69 92 18 187 
129 9 247 14 64 241 18 92 218 117 103 
130 7 252 120 196 149 115 114 42 
131 9 254 172 244 182 209 36 204 20 107 
132 9 223 113 204 254 172 57 27 143 22 
133 9 242 27 111 22 143 150 189 113 204 
134 9 122 47 234 251 166 95 77 167 110 
135 5 68 173 45 37 6 
136 9 217 13 246 193 163 240 192 106 153 
137 6 192 82 240 13 65 51 
138 7 73 81 253 203 49 98 32 
139 9 123 35 52 40 19 79 171 186 249 
140 6 11 227 76 184 116 234 
141 9 58 61 80 5 24 72 71 31 2 
142 9 33 145 238 46 89 94 176 97 75 
143 9 22 27 133 242 150 113 223 204 132 
144 9 188 245 153 106 28 229 175 37 51 
145 9 97 75 142 89 94 159 33 176 56 
146 9 67 78 158 225 17 155 74 151 9 
147 9 201 60 23 100 102 83 224 63 90 
148 9 10 179 181 115 42 190 248 43 156 
149 7 114 120 121 130 111 252 42 
150 8 22 111 242 121 143 133 114 27 
151 9 155 78 44 146 51 157 236 101 74 
152 9 98 212 32 213 125 91 59 253 84 
153 9 188 144 106 245 28 51 136 13 217 
154 4 38 222 126 230 
155 9 151 78 44 146 157 74 39 236 158 
156 9 237 92 117 43 18 211 103 128 248 
157 9 236 85 101 44 174 104 3 180 155 
158 9 74 225 67 39 146 16 9 155 205 
159 9 94 75 56 176 145 207 233 97 194 
160 9 218 105 220 9 205 30 93 247 14 
161 8 230 26 108 50 214 124 21 126 
162 6 250 170 70 168 46 197 
163 6 246 193 217 136 13 192 
164 9 30 16 93 205 220 105 225 74 158 
165 2 53 221 
166 7 110 77 122 234 134 47 184 
167 9 34 95 251 12 116 134 235 47 219 
168 7 70 250 170 88 162 46 25 
169 6 197 199 55 250 162 168 
170 9 70 46 250 162 168 176 56 142 238 
171 9 19 35 52 139 194 207 249 112 233 
172 9 204 254 113 132 131 223 29 27 133 
173 3 68 135 45 
174 9 101 85 104 236 3 180 44 157 83 
175 9 37 28 229 6 45 106 144 33 99 
176 9 56 94 46 159 142 75 170 145 70 
177 9 63 239 147 201 38 100 23 90 60 
178 7 195 118 189 200 185 210 29 
179 9 10 181 148 115 190 248 43 156 42 
180 9 3 65 174 101 44 224 104 236 85 
181 9 179 148 10 115 42 190 248 156 43 
182 7 36 191 210 29 131 62 209 
183 9 216 243 72 203 49 81 41 226 71 
184 9 234 77 134 166 167 116 11 110 122 
185 6 7 196 178 96 195 202 
186 9 48 54 40 64 103 190 248 79 139 
187 9 232 69 228 127 211 128 18 237 117 
188 9 144 153 245 106 28 51 37 175 229 
189 7 118 195 178 29 133 242 111 
190 9 248 48 54 103 43 186 40 79 10 
191 5 182 36 62 210 76 
192 9 240 13 137 82 51 246 136 217 163 
193 7 163 246 217 136 13 192 240 
194 9 207 233 52 249 19 35 198 159 75 
195 6 118 178 189 185 29 111 
196 7 252 130 79 7 120 40 185 
197 6 169 250 162 199 55 168 
198 9 112 17 194 207 75 97 233 19 159 
199 6 55 208 169 197 91 59 
200 7 25 96 178 206 195 185 62 
201 8 100 23 147 60 90 102 224 83 
202 9 96 56 249 25 7 233 176 159 94 
203 9 81 49 73 243 138 41 216 109 84 
204 9 113 172 132 223 254 27 143 133 57 
205 9 16 30 9 225 158 67 160 74 164 
206 5 88 25 168 200 96 
207 9 194 233 52 249 159 19 198 75 35 
208 9 199 59 125 55 122 91 110 47 166 
209 7 244 66 131 107 20 182 191 
210 6 36 62 182 29 191 118 
211 9 117 237 18 69 128 156 127 232 92 
212 9 32 152 213 98 219 84 235 4 125 
213 9 219 235 212 125 59 95 251 152 47 
214 8 108 230 26 161 126 124 50 154 
215 9 57 20 107 244 66 254 132 131 172 
216 9 243 226 41 109 183 203 84 81 73 
217 8 136 246 193 163 13 240 192 106 
218 9 160 247 105 64 129 14 220 171 241 
219 9 235 213 95 251 47 34 212 125 4 
220 9 105 93 8 14 247 160 218 241 30 
221 4 119 87 165 2 
222 4 154 38 126 90 
223 9 113 132 204 172 143 27 254 22 57 
224 8 83 65 104 3 180 23 174 100 
225 9 158 67 74 9 205 146 16 39 155 
226 9 41 216 109 243 84 86 73 183 203 
227 5 76 140 11 184 191 
228 9 127 69 187 232 211 241 8 18 117 
229 9 175 37 89 28 33 6 238 245 142 
230 8 108 214 161 26 126 124 50 154 
231 9 21 53 50 124 161 26 165 193 173 
232 9 69 187 211 128 127 228 237 18 117 
233 9 194 207 249 52 19 159 35 75 56 
234 9 77 166 110 134 184 122 47 167 251 
235 9 219 95 251 213 34 47 167 4 212 
236 9 157 101 85 44 174 104 3 180 83 
237 9 156 117 92 211 128 18 43 103 69 
238 9 33 142 6 99 229 46 89 162 175 
239 8 63 177 38 201 154 90 100 222 
240 9 192 13 137 51 82 136 217 246 163 
241 9 14 247 18 129 8 220 127 117 105 
242 8 133 111 27 150 22 143 189 118 
243 9 216 41 226 109 203 81 183 73 49 
244 8 66 107 20 209 131 215 254 57 
245 9 144 188 153 229 28 89 175 106 37 
246 7 163 193 217 136 13 192 240 
247 9 14 129 218 241 105 64 220 18 160 
248 9 190 48 43 103 54 186 92 40 156 
249 9 52 233 194 207 35 19 123 139 202 
250 6 162 170 70 168 197 46 
251 9 95 235 34 47 219 167 134 122 213 
252 8 130 120 196 115 149 114 79 40 
253 6 98 91 138 152 73 32 
254 9 172 132 204 57 131 113 223 215 20 
DEPOT_SECTION
   1
   -1
EOF
