NAME :  X-n219-kX-w21-c7.cctp
COMMENT : 	Adapted by Maziero, Usberti and Cavellucci from the Uchoa, Pecin, Pessoa, Poggi, Subramanian, and Vidal (2013)
TYPE :  CCTP
DIMENSION :    133
EDGE_WEIGHT_TYPE : 	EUC_2D	
CAPACITY : 	3
VERTICES_WITHIN_COVERAGE :  7
VERTICES_WITH_DEMAND : 	21
NODE_COORD_SECTION
1 0 0
2 18 761
3 835 397
4 299 16
5 31 168
6 142 257
7 242 984
8 612 357
9 663 812
10 105 188
11 487 636
12 993 703
13 672 148
14 506 259
15 953 706
16 888 203
17 107 534
18 772 692
19 475 182
20 828 775
21 719 220
22 655 722
23 844 197
24 918 600
25 739 102
26 935 602
27 44 72
28 722 397
29 317 903
30 547 95
31 935 192
32 128 376
33 908 176
34 720 226
35 738 793
36 791 498
37 712 751
38 530 693
39 634 301
40 47 557
41 48 202
42 535 216
43 828 214
44 829 352
45 74 187
46 726 789
47 51 597
48 894 395
49 301 893
50 978 261
51 709 153
52 391 153
53 876 370
54 846 725
55 604 107
56 507 89
57 476 204
58 181 957
59 948 710
60 414 685
61 358 66
62 459 43
63 555 414
64 94 964
65 558 360
66 641 424
67 25 205
68 5 686
69 400 682
70 501 234
71 817 643
72 206 549
73 542 691
74 296 10
75 9 553
76 411 59
77 824 612
78 608 727
79 481 574
80 169 950
81 36 459
82 10 569
83 569 627
84 166 178
85 508 327
86 158 986
87 983 244
88 637 109
89 177 207
90 361 972
91 932 452
92 252 267
93 944 435
94 900 168
95 812 354
96 590 575
97 832 466
98 32 531
99 162 539
100 621 425
101 802 495
102 769 329
103 64 106
104 854 678
105 103 285
106 398 212
107 43 108
108 935 851
109 179 147
110 822 749
111 783 760
112 403 172
113 32 134
114 44 456
115 430 570
116 896 875
117 509 572
118 914 852
119 984 435
120 479 341
121 207 937
122 709 700
123 557 130
124 270 964
125 482 320
126 60 761
127 836 272
128 509 379
129 819 754
130 176 910
131 648 809
132 640 892
133 552 232
DEMAND_SECTION
2 1
3 1
4 1
5 1
6 1
7 1
8 1
9 1
10 1
11 1
12 1
13 1
14 1
15 1
16 1
17 1
18 1
19 1
20 1
21 1
22 1
COVERAGE_SECTION
2 3 126 68 47 
3 7 44 53 95 48 97 102 101 
4 6 74 61 76 62 52 109 
5 7 113 67 41 45 107 103 10 
6 7 105 89 10 84 45 41 92 
7 7 124 121 58 80 86 130 49 
8 7 65 39 100 66 63 128 85 
9 6 131 46 35 37 132 22 
10 7 45 41 84 89 5 6 67 
11 7 79 117 38 73 83 115 60 
12 7 15 59 26 24 104 54 108 
13 7 51 88 55 25 21 34 123 
14 7 70 42 133 57 125 85 19 
15 7 59 12 104 26 54 24 110 
16 6 33 94 23 31 43 127 
17 7 99 40 98 47 72 75 114 
18 7 122 71 111 110 129 54 104 
19 7 57 70 42 112 14 106 52 
20 7 129 110 111 54 35 18 104 
21 7 34 51 13 43 39 25 102 
22 7 78 122 37 131 9 46 35 
23 6 43 16 94 33 127 31 
24 6 26 77 104 71 15 59 
25 3 51 13 88 
26 5 24 15 59 77 104 
27 4 107 103 113 5 
28 5 102 66 95 100 3 
29 4 49 124 90 7 
30 7 123 56 55 88 62 19 42 
31 5 33 94 16 87 50 
32 4 105 114 6 81 
33 4 94 31 16 23 
34 7 21 51 13 43 39 102 25 
35 7 46 37 111 9 129 131 20 
36 4 101 97 3 77 
37 7 46 35 122 22 111 9 18 
38 7 73 11 83 78 60 117 22 
39 7 8 65 133 34 21 66 100 
40 6 98 75 82 47 17 81 
41 7 67 45 5 10 113 107 103 
42 7 133 70 14 57 19 123 85 
43 6 23 127 16 94 33 21 
44 7 95 3 53 102 48 127 97 
45 7 41 10 5 67 113 103 107 
46 7 35 37 111 9 131 122 22 
47 6 40 82 75 98 17 68 
48 7 53 3 93 91 44 95 97 
49 5 29 124 90 121 7 
50 5 87 31 16 33 94 
51 6 13 25 21 34 88 55 
52 6 112 106 19 61 76 57 
53 6 48 3 44 95 93 91 
54 7 110 129 104 20 111 18 71 
55 7 88 123 30 13 56 51 42 
56 7 30 123 62 19 55 76 57 
57 7 19 70 42 14 106 112 133 
58 7 80 121 86 130 7 64 124 
59 7 15 12 104 54 26 24 110 
60 2 69 11 
61 7 76 4 74 52 62 112 56 
62 7 76 56 30 61 52 123 19 
63 6 65 128 100 8 66 85 
64 7 86 80 58 130 121 7 124 
65 7 128 8 63 85 120 125 100 
66 4 100 8 28 63 
67 7 41 5 45 113 10 107 103 
68 6 2 126 47 82 75 40 
69 2 60 11 
70 7 14 42 57 133 19 125 85 
71 7 77 104 18 54 110 24 129 
72 2 99 17 
73 7 38 83 78 11 22 117 96 
74 6 4 61 76 62 52 109 
75 6 82 98 40 47 81 17 
76 7 62 61 52 56 112 4 74 
77 6 71 104 18 24 26 54 
78 7 22 73 38 131 9 122 37 
79 5 117 115 11 83 96 
80 7 58 86 121 130 64 7 124 
81 5 114 98 75 40 17 
82 6 75 40 98 47 17 81 
83 7 96 73 38 117 11 79 78 
84 7 89 109 10 6 45 41 92 
85 6 125 120 128 65 14 70 
86 7 58 80 64 121 130 7 124 
87 5 50 31 33 16 94 
88 7 55 13 123 51 30 25 56 
89 7 84 109 6 10 92 45 105 
90 4 29 124 49 7 
91 6 93 119 48 53 97 3 
92 3 89 6 84 
93 5 91 119 48 53 3 
94 4 33 16 31 23 
95 7 44 3 102 53 127 48 28 
96 5 83 117 79 11 73 
97 5 101 36 3 48 91 
98 6 40 75 82 47 81 17 
99 3 72 17 40 
100 4 66 63 8 65 
101 4 36 97 3 77 
102 7 95 44 28 127 3 34 53 
103 4 107 27 113 5 
104 7 54 71 77 110 18 129 59 
105 7 6 32 10 41 45 89 67 
106 5 112 52 57 19 70 
107 4 103 113 27 5 
108 5 118 116 20 59 15 
109 6 84 89 10 45 6 103 
110 7 129 20 54 111 18 104 35 
111 7 129 110 20 35 46 18 37 
112 5 52 106 19 57 76 
113 7 107 5 103 27 45 41 67 
114 5 81 98 17 40 75 
115 3 79 117 11 
116 3 118 108 20 
117 6 79 11 115 83 96 38 
118 4 108 116 20 129 
119 5 93 91 48 53 3 
120 6 125 85 128 65 14 63 
121 7 58 80 130 7 86 124 49 
122 7 37 22 18 46 111 35 78 
123 7 30 55 56 88 42 19 133 
124 7 7 121 29 49 58 90 80 
125 6 120 85 128 14 65 70 
126 2 2 68 
127 7 43 23 44 95 16 102 53 
128 6 120 85 65 63 125 8 
129 7 110 20 111 54 18 104 35 
130 7 80 121 58 86 64 7 124 
131 6 9 46 132 37 22 35 
132 2 9 131 
133 7 42 70 14 57 19 123 85 
DEPOT_SECTION
   1
   -1
EOF
