NAME :  X-n261-kX-w52-c9.cctp
COMMENT : 	Adapted by Maziero, Usberti and Cavellucci from the Uchoa, Pecin, Pessoa, Poggi, Subramanian, and Vidal (2013)
TYPE :  CCTP
DIMENSION :    235
EDGE_WEIGHT_TYPE : 	EUC_2D	
CAPACITY : 	1081
VERTICES_WITHIN_COVERAGE :  9
VERTICES_WITH_DEMAND : 	52
NODE_COORD_SECTION
1 0 0
2 377 105
3 535 93
4 820 625
5 689 745
6 774 283
7 399 810
8 242 139
9 300 948
10 557 255
11 22 828
12 27 768
13 961 829
14 825 225
15 288 996
16 126 160
17 219 243
18 504 918
19 532 806
20 566 734
21 327 943
22 848 66
23 45 889
24 952 169
25 736 63
26 939 925
27 569 517
28 969 917
29 603 637
30 188 762
31 800 102
32 879 687
33 289 83
34 836 360
35 887 699
36 21 962
37 857 715
38 447 519
39 931 500
40 316 483
41 572 230
42 417 554
43 488 340
44 760 763
45 403 224
46 470 796
47 67 194
48 927 576
49 524 679
50 155 89
51 629 678
52 469 465
53 810 467
54 354 298
55 618 236
56 338 855
57 774 799
58 811 201
59 684 462
60 892 995
61 449 985
62 120 176
63 552 983
64 455 433
65 244 763
66 790 650
67 717 607
68 351 60
69 546 941
70 567 342
71 790 315
72 568 9
73 20 172
74 600 355
75 909 984
76 992 956
77 614 755
78 883 36
79 401 520
80 463 924
81 218 461
82 337 584
83 157 686
84 789 99
85 246 760
86 792 669
87 52 48
88 60 712
89 629 450
90 712 438
91 533 49
92 853 566
93 495 195
94 573 191
95 519 673
96 737 157
97 493 383
98 957 695
99 536 532
100 926 788
101 513 86
102 59 246
103 803 472
104 391 39
105 311 531
106 706 871
107 741 723
108 936 7
109 799 359
110 477 410
111 689 805
112 45 244
113 818 770
114 339 47
115 607 57
116 763 168
117 324 924
118 358 40
119 977 409
120 823 138
121 453 911
122 771 182
123 912 18
124 251 585
125 422 585
126 514 160
127 854 59
128 729 52
129 73 223
130 572 821
131 126 236
132 259 824
133 167 213
134 277 169
135 184 250
136 153 833
137 563 253
138 978 112
139 724 23
140 161 329
141 461 782
142 851 737
143 237 951
144 105 942
145 972 950
146 749 340
147 36 228
148 744 110
149 181 44
150 420 81
151 309 69
152 987 831
153 951 322
154 953 17
155 388 269
156 585 943
157 395 150
158 484 870
159 995 462
160 472 391
161 221 661
162 488 756
163 138 121
164 724 451
165 16 23
166 280 363
167 491 164
168 414 545
169 448 33
170 835 445
171 506 839
172 734 57
173 991 663
174 671 263
175 578 546
176 344 527
177 180 806
178 608 856
179 380 871
180 920 900
181 518 179
182 282 281
183 835 214
184 895 580
185 785 78
186 407 979
187 31 260
188 346 961
189 938 233
190 572 723
191 838 477
192 545 568
193 260 584
194 348 33
195 483 309
196 237 419
197 417 484
198 514 471
199 59 792
200 532 185
201 536 745
202 781 371
203 440 901
204 953 180
205 290 771
206 332 323
207 264 881
208 152 663
209 94 101
210 614 160
211 202 225
212 148 85
213 93 799
214 934 466
215 999 195
216 660 791
217 547 966
218 980 316
219 608 512
220 398 136
221 166 24
222 547 880
223 523 885
224 926 617
225 536 487
226 445 327
227 851 455
228 59 176
229 474 325
230 471 123
231 335 879
232 650 321
233 796 593
234 477 184
235 417 342
DEMAND_SECTION
2 64
3 73
4 98
5 36
6 76
7 13
8 74
9 43
10 80
11 59
12 95
13 33
14 68
15 35
16 64
17 59
18 22
19 10
20 60
21 36
22 20
23 49
24 67
25 69
26 83
27 99
28 25
29 94
30 34
31 96
32 8
33 49
34 89
35 99
36 21
37 70
38 71
39 45
40 32
41 11
42 48
43 35
44 21
45 90
46 99
47 41
48 55
49 59
50 1
51 36
52 94
53 97
COVERAGE_SECTION
2 9 220 157 150 68 104 118 114 151 194 
3 9 101 91 126 230 115 167 181 72 200 
4 9 66 233 86 92 32 184 37 35 67 
5 9 216 107 111 44 77 51 57 190 20 
6 9 71 146 14 109 202 58 183 34 122 
7 9 179 141 46 56 231 203 158 162 171 
8 9 134 33 211 151 50 133 163 17 212 
9 9 21 117 188 15 143 207 231 56 179 
10 9 137 41 55 94 200 181 93 70 195 
11 9 199 12 23 213 88 136 36 144 177 
12 8 199 11 88 213 23 136 83 177 
13 9 152 100 180 28 26 145 76 98 142 
14 9 183 58 122 6 116 120 71 96 189 
15 9 9 21 143 188 117 207 186 231 56 
16 9 62 163 133 209 47 228 131 50 212 
17 9 211 135 133 182 131 134 140 8 62 
18 9 223 80 69 121 158 222 217 203 171 
19 9 171 130 201 46 162 141 222 20 158 
20 9 190 201 77 49 95 19 162 51 130 
21 9 117 188 9 231 15 186 207 56 179 
22 9 127 78 31 185 84 120 123 108 25 
23 9 11 36 144 199 213 12 136 177 88 
24 9 204 215 138 189 183 120 14 58 22 
25 9 172 128 139 148 185 84 31 96 116 
26 9 28 180 145 76 75 60 13 152 100 
27 9 175 99 219 225 192 198 89 52 38 
28 9 26 145 76 180 13 152 75 60 100 
29 9 51 49 192 95 190 175 20 67 77 
30 9 177 65 85 136 83 132 205 213 208 
31 9 84 185 120 148 22 127 25 116 172 
32 9 35 37 142 98 224 4 86 66 113 
33 9 151 114 68 8 194 118 134 2 104 
34 9 109 202 71 170 146 227 6 53 103 
35 9 32 37 142 98 224 100 113 4 86 
36 9 23 144 11 199 213 136 12 143 177 
37 9 142 35 32 113 86 66 4 100 98 
38 9 168 42 79 197 52 125 198 64 99 
39 9 214 159 48 184 227 191 92 119 170 
40 9 105 176 79 81 197 196 82 193 168 
41 9 137 10 94 55 200 181 210 93 126 
42 9 168 125 79 38 197 176 82 52 105 
43 9 229 195 97 226 160 110 235 70 64 
44 9 57 107 113 5 111 142 86 216 37 
45 8 155 157 234 220 54 93 167 226 
46 9 141 162 171 19 7 158 201 223 130 
47 9 228 129 147 73 102 112 62 16 131 
48 9 184 224 92 39 173 214 4 32 98 
49 9 95 190 201 20 162 29 51 192 77 
50 9 212 163 149 209 221 16 62 8 87 
51 9 29 190 77 20 5 49 95 67 201 
52 9 64 198 197 110 38 225 160 97 79 
53 9 103 191 170 227 164 202 90 92 109 
54 9 206 155 182 235 45 226 166 229 195 
55 9 41 137 174 10 94 210 232 200 181 
56 9 231 179 117 7 207 132 21 205 9 
57 9 44 113 107 111 106 142 5 216 37 
58 9 183 14 122 116 120 96 6 31 84 
59 6 90 164 89 219 103 53 
60 7 75 26 145 180 76 28 13 
61 9 186 80 121 203 18 217 63 188 69 
62 9 16 47 163 131 133 228 129 209 102 
63 7 217 69 156 18 223 61 222 
64 9 110 52 160 97 197 198 38 225 43 
65 9 85 205 30 132 177 161 136 83 207 
66 9 86 4 233 67 107 37 32 92 142 
67 8 233 66 86 4 51 29 107 5 
68 9 114 118 194 151 104 2 33 150 220 
69 8 217 156 63 18 222 223 80 158 
70 9 74 43 97 232 10 137 195 229 160 
71 9 6 109 146 202 34 14 183 58 174 
72 9 91 115 3 101 169 230 139 210 126 
73 8 228 47 147 129 112 102 187 62 
74 8 70 232 89 10 137 97 43 174 
75 8 60 26 145 180 76 28 13 152 
76 9 145 28 26 75 180 60 152 13 100 
77 9 20 190 216 5 51 130 201 111 19 
78 9 123 127 22 108 154 31 185 84 120 
79 9 168 42 197 38 176 125 52 82 105 
80 9 121 203 18 158 61 223 186 69 217 
81 7 196 40 105 166 124 193 176 
82 9 176 105 193 42 125 124 168 79 40 
83 5 208 161 30 88 65 
84 9 31 185 148 120 25 22 172 116 127 
85 9 65 205 30 132 177 161 83 136 207 
86 9 66 4 107 233 37 32 142 67 44 
87 6 165 209 212 50 163 221 
88 6 12 199 213 83 208 11 
89 7 59 219 90 27 164 74 225 
90 6 164 59 89 202 103 53 
91 9 101 3 72 115 169 230 126 150 167 
92 9 184 233 4 48 224 191 39 66 103 
93 8 234 181 167 200 126 230 94 41 
94 9 41 200 210 181 137 55 10 126 93 
95 9 49 190 201 20 162 29 192 51 141 
96 9 116 122 148 84 31 58 120 185 25 
97 9 160 110 43 229 64 226 195 52 70 
98 9 173 35 32 224 100 37 142 48 184 
99 9 27 192 175 225 198 219 38 52 42 
100 9 13 152 142 35 98 37 113 32 180 
101 8 3 91 230 126 167 169 150 181 
102 8 112 129 147 187 47 131 228 73 
103 9 53 191 170 227 164 90 202 92 109 
104 9 118 194 68 150 114 169 2 151 220 
105 9 176 40 82 193 124 79 168 42 81 
106 5 111 216 57 178 44 
107 9 44 5 86 57 66 113 111 216 142 
108 9 154 123 78 127 22 138 24 31 185 
109 9 202 34 71 146 6 170 53 227 103 
110 9 160 97 64 52 43 198 229 226 235 
111 8 216 5 106 44 57 77 178 107 
112 8 102 147 187 129 47 228 73 131 
113 9 142 57 44 37 107 35 32 86 100 
114 9 194 68 118 151 104 33 2 150 220 
115 9 72 91 3 101 210 128 139 172 25 
116 9 122 96 58 148 120 84 31 14 183 
117 9 21 9 188 231 56 207 179 15 143 
118 9 194 114 68 104 151 2 150 33 169 
119 9 159 214 153 218 39 227 170 34 191 
120 9 31 84 58 116 122 185 22 183 148 
121 9 80 203 18 158 61 223 186 179 171 
122 9 116 96 58 120 14 183 148 31 84 
123 9 108 78 154 127 22 138 31 185 84 
124 7 193 105 161 82 176 40 208 
125 9 42 168 79 38 82 176 197 105 192 
126 8 181 167 200 93 234 230 94 3 
127 9 22 78 31 123 185 84 120 108 154 
128 9 172 25 139 148 185 84 31 96 22 
129 9 102 47 112 147 228 131 187 62 73 
130 8 19 178 222 171 77 223 201 20 
131 9 133 129 62 135 102 47 16 211 112 
132 9 207 205 65 85 177 56 30 231 136 
133 9 211 135 131 17 62 16 129 163 47 
134 9 8 33 17 211 151 182 133 2 157 
135 9 211 17 133 131 140 62 182 16 129 
136 9 177 213 30 199 132 65 85 144 207 
137 9 10 41 55 94 200 181 70 93 195 
138 9 24 204 215 154 108 123 78 189 127 
139 9 128 172 25 185 148 84 31 115 22 
140 5 135 131 17 211 133 
141 9 46 162 7 171 19 201 158 20 130 
142 9 37 113 35 32 86 100 44 57 66 
143 9 9 15 207 21 117 188 231 132 144 
144 9 23 36 136 143 11 213 177 199 207 
145 9 76 28 26 75 180 60 152 13 100 
146 8 202 71 109 6 34 232 90 174 
147 8 112 102 187 129 47 228 73 131 
148 9 84 25 96 185 172 31 128 116 122 
149 9 221 50 212 163 209 8 33 16 87 
150 8 2 104 169 220 230 68 157 118 
151 9 33 114 68 194 118 2 104 8 134 
152 9 13 100 28 180 26 145 76 98 142 
153 9 218 189 119 34 215 204 214 159 24 
154 9 108 123 78 138 127 22 24 204 31 
155 9 54 45 206 235 226 195 229 182 157 
156 5 69 217 63 222 18 
157 8 220 2 150 45 230 234 167 68 
158 9 171 223 121 18 203 80 222 46 19 
159 9 119 214 39 48 227 153 218 184 191 
160 9 110 97 64 43 229 226 52 235 195 
161 7 83 208 124 193 85 65 30 
162 9 141 46 201 19 20 49 171 95 190 
163 9 50 212 16 209 62 149 133 228 221 
164 6 90 59 103 53 89 202 
165 6 87 209 212 73 221 50 
166 8 206 196 182 54 81 140 40 17 
167 8 126 234 93 181 200 230 101 3 
168 9 42 79 125 38 197 176 82 52 105 
169 9 150 104 101 91 118 230 194 2 68 
170 9 227 191 53 103 34 202 109 214 39 
171 9 158 19 223 46 222 130 141 18 162 
172 9 25 128 139 148 185 84 31 96 22 
173 9 98 224 48 35 32 184 100 37 142 
174 8 55 232 41 6 137 146 10 74 
175 8 27 192 99 219 225 29 198 89 
176 9 105 40 79 82 168 42 197 125 193 
177 9 136 30 65 85 132 213 207 205 83 
178 7 130 222 216 156 223 19 111 
179 9 56 231 7 203 117 121 21 188 80 
180 9 26 28 145 13 75 76 152 60 100 
181 8 200 126 93 167 234 94 230 41 
182 9 206 17 54 166 211 135 155 134 140 
183 9 14 58 122 120 116 6 189 71 96 
184 9 48 92 224 4 39 233 32 191 35 
185 9 84 31 25 148 172 128 22 120 127 
186 9 61 188 80 121 203 21 117 9 179 
187 8 112 102 147 129 47 73 228 131 
188 9 21 117 9 186 15 231 179 56 61 
189 9 204 24 215 153 218 183 14 138 58 
190 9 20 201 77 49 51 95 162 29 19 
191 9 227 53 170 103 92 39 214 34 164 
192 9 99 175 27 225 219 29 198 95 38 
193 7 124 105 82 161 176 40 81 
194 9 118 114 68 104 151 33 2 150 169 
195 9 229 43 226 235 97 160 70 10 137 
196 7 81 166 40 140 105 206 182 
197 9 79 38 52 168 64 42 176 110 198 
198 9 225 52 99 64 110 27 38 97 160 
199 9 213 12 11 88 23 136 177 30 83 
200 9 181 126 93 94 167 234 41 10 137 
201 9 20 190 162 19 49 95 77 46 130 
202 9 109 146 34 71 6 170 90 164 53 
203 9 121 80 158 18 179 61 186 223 171 
204 9 24 215 189 138 183 14 120 218 153 
205 9 85 65 132 56 30 207 177 7 231 
206 9 54 182 166 155 235 226 45 196 17 
207 9 132 231 117 143 9 56 21 177 205 
208 4 83 161 88 30 
209 6 163 212 50 16 87 62 
210 9 94 55 41 200 181 126 115 3 137 
211 9 17 135 133 131 134 8 62 182 16 
212 9 50 163 149 209 221 16 62 87 8 
213 9 199 136 12 11 177 88 23 30 83 
214 9 39 159 119 227 191 170 48 184 53 
215 9 204 24 189 138 218 153 183 14 154 
216 8 111 5 77 178 106 130 44 107 
217 7 63 69 156 18 223 222 80 
218 9 153 119 189 215 204 159 24 34 214 
219 7 27 175 89 99 225 192 59 
220 8 157 2 150 230 45 68 234 104 
221 8 149 212 50 163 209 87 33 8 
222 7 223 18 171 69 130 158 178 
223 9 222 18 158 171 69 80 121 19 130 
224 9 48 184 173 32 98 92 35 4 39 
225 9 198 27 99 52 175 219 192 38 64 
226 9 229 235 195 43 160 97 155 110 54 
227 9 170 191 53 103 214 39 34 109 202 
228 9 47 73 129 147 62 16 112 102 209 
229 9 195 43 226 235 97 160 110 70 155 
230 8 167 101 126 234 150 3 181 220 
231 9 56 117 179 21 207 9 188 7 132 
232 8 74 174 70 55 146 137 10 41 
233 8 4 66 92 86 67 184 103 191 
234 8 93 167 181 126 200 230 45 157 
235 9 226 229 43 160 195 54 155 97 206 
DEPOT_SECTION
   1
   -1
EOF
