NAME :  X-n256-kX-w25-c11.cctp
COMMENT : 	Adapted by Maziero, Usberti and Cavellucci from the Uchoa, Pecin, Pessoa, Poggi, Subramanian, and Vidal (2013)
TYPE :  CCTP
DIMENSION :    199
EDGE_WEIGHT_TYPE : 	EUC_2D	
CAPACITY : 	1225
VERTICES_WITHIN_COVERAGE :  11
VERTICES_WITH_DEMAND : 	25
NODE_COORD_SECTION
1 500 500
2 878 606
3 35 593
4 320 125
5 189 244
6 274 784
7 900 310
8 742 640
9 800 448
10 66 599
11 829 588
12 660 698
13 290 673
14 669 619
15 252 742
16 425 160
17 291 114
18 289 90
19 813 663
20 847 528
21 589 738
22 756 687
23 777 547
24 810 554
25 823 501
26 5 179
27 357 774
28 277 59
29 76 127
30 229 65
31 868 256
32 713 640
33 692 668
34 332 773
35 782 719
36 230 680
37 711 559
38 366 42
39 447 107
40 357 24
41 120 255
42 155 252
43 793 605
44 248 236
45 273 163
46 741 596
47 324 753
48 195 632
49 728 460
50 296 66
51 885 203
52 330 780
53 204 177
54 659 553
55 426 102
56 309 755
57 215 242
58 24 547
59 373 110
60 862 596
61 83 155
62 816 433
63 917 345
64 62 661
65 874 602
66 247 231
67 908 590
68 812 701
69 714 567
70 796 520
71 30 230
72 189 199
73 774 664
74 732 579
75 146 730
76 188 748
77 954 296
78 279 160
79 853 195
80 730 640
81 56 562
82 136 499
83 819 427
84 873 663
85 308 101
86 256 669
87 280 122
88 800 663
89 193 65
90 583 843
91 940 363
92 523 797
93 753 415
94 786 576
95 60 623
96 512 166
97 928 312
98 823 802
99 249 288
100 266 776
101 166 204
102 793 691
103 906 599
104 217 20
105 124 271
106 880 572
107 708 428
108 53 561
109 386 713
110 764 423
111 98 577
112 77 608
113 875 607
114 266 847
115 861 673
116 657 665
117 784 424
118 882 574
119 349 113
120 519 674
121 568 693
122 412 715
123 681 739
124 710 603
125 243 887
126 328 130
127 907 505
128 25 513
129 364 107
130 809 640
131 950 586
132 873 414
133 775 601
134 194 309
135 246 850
136 268 168
137 181 782
138 695 698
139 708 454
140 213 701
141 213 214
142 931 586
143 175 243
144 466 38
145 697 594
146 307 170
147 76 554
148 797 286
149 794 695
150 24 575
151 231 285
152 775 559
153 897 309
154 415 180
155 201 293
156 39 267
157 366 205
158 265 765
159 729 846
160 707 632
161 825 342
162 274 809
163 901 604
164 685 725
165 860 244
166 209 189
167 319 167
168 221 697
169 379 190
170 629 657
171 740 486
172 94 552
173 272 173
174 884 628
175 967 297
176 913 279
177 196 313
178 276 84
179 692 632
180 284 743
181 253 739
182 874 303
183 695 657
184 705 456
185 248 819
186 781 843
187 866 544
188 884 375
189 686 590
190 482 177
191 912 176
192 287 794
193 764 592
194 944 112
195 254 616
196 827 593
197 920 321
198 98 555
199 18 534
DEMAND_SECTION
2 83
3 68
4 78
5 76
6 79
7 76
8 78
9 61
10 78
11 79
12 86
13 53
14 66
15 81
16 87
17 88
18 66
19 84
20 86
21 89
22 84
23 84
24 88
25 83
26 66
COVERAGE_SECTION
2 11 113 65 60 163 174 103 118 67 106 11 196 
3 10 150 10 81 108 95 112 58 147 199 111 
4 11 126 85 17 119 87 167 18 146 129 78 59 
5 11 143 57 42 141 72 101 155 66 151 166 44 
6 11 100 192 158 162 180 185 56 15 181 52 34 
7 11 153 197 182 97 176 63 77 31 91 188 175 
8 11 80 32 160 73 46 22 124 183 133 179 193 
9 10 62 83 117 110 93 25 171 70 49 132 
10 11 112 95 3 81 111 108 147 150 198 172 64 
11 11 196 60 24 43 94 65 113 2 106 118 130 
12 11 116 138 164 33 123 170 183 179 32 14 21 
13 11 86 36 195 180 168 181 15 140 56 47 158 
14 11 179 189 145 160 124 183 116 32 33 170 80 
15 11 181 158 180 100 6 168 140 56 192 76 36 
16 11 154 169 39 55 190 59 157 129 96 119 126 
17 11 87 85 18 4 178 126 50 78 45 28 119 
18 11 178 85 17 50 28 87 4 126 119 30 78 
19 11 88 130 102 149 68 73 115 84 43 22 35 
20 11 187 25 24 70 106 118 11 127 196 60 23 
21 11 121 12 92 170 123 120 164 116 90 138 33 
22 11 73 102 149 35 8 88 80 68 19 138 32 
23 11 152 94 70 24 193 133 74 43 46 25 11 
24 11 94 23 152 70 11 196 20 43 25 187 133 
25 11 70 20 24 9 187 23 62 83 152 94 127 
26 6 71 61 29 156 41 105 
27 9 34 52 47 56 109 192 180 122 6 
28 11 50 178 18 30 85 17 87 104 4 89 40 
29 9 61 26 71 101 89 72 41 53 156 
30 10 89 104 28 178 18 50 87 17 85 45 
31 10 165 182 176 51 153 7 79 148 97 197 
32 11 160 80 179 183 8 33 124 14 145 46 189 
33 11 183 138 32 116 179 160 12 80 14 8 164 
34 11 52 47 27 56 192 180 6 100 158 162 109 
35 11 149 102 68 22 73 88 19 130 8 138 115 
36 11 168 140 86 48 13 181 15 195 76 180 158 
37 10 69 74 145 189 124 46 54 193 152 23 
38 11 40 129 59 119 50 85 55 18 28 4 126 
39 11 55 16 144 59 190 154 129 96 119 38 169 
40 11 38 50 129 28 59 119 85 18 178 55 4 
41 6 105 42 143 101 5 156 
42 8 143 5 41 105 101 57 155 72 
43 11 133 94 193 196 130 11 152 46 24 88 23 
44 9 66 57 141 99 151 5 166 173 72 
45 10 78 136 173 146 87 167 17 4 126 166 
46 11 74 193 124 133 69 8 145 80 37 94 152 
47 11 56 34 52 27 180 192 6 158 100 181 15 
48 11 36 195 168 86 140 13 75 111 76 112 181 
49 10 139 184 171 107 93 110 117 9 70 62 
50 11 28 18 178 85 17 87 4 30 119 126 38 
51 11 79 191 165 31 176 182 153 7 194 77 97 
52 11 34 27 47 56 192 6 180 162 100 158 15 
53 10 166 72 141 101 136 57 173 5 66 45 
54 10 189 37 145 69 14 124 74 179 160 46 
55 11 39 59 16 129 144 119 154 38 190 169 126 
56 11 47 180 34 52 6 158 192 100 27 15 181 
57 11 5 141 44 66 143 151 72 155 166 99 42 
58 8 199 150 108 128 81 3 147 10 
59 11 129 119 126 55 4 85 38 16 39 167 169 
60 11 65 113 2 106 118 11 196 174 163 103 67 
61 9 29 26 71 101 41 72 156 42 53 
62 7 83 9 117 110 132 93 25 
63 10 197 91 97 7 153 188 182 77 176 175 
64 11 95 112 10 3 111 150 81 108 147 75 198 
65 11 113 2 60 163 174 118 106 103 67 11 196 
66 9 44 57 141 151 99 166 5 173 72 
67 11 103 163 142 118 106 2 65 113 131 174 60 
68 11 149 102 35 19 88 73 115 22 130 84 8 
69 11 37 74 145 124 189 46 193 54 152 160 23 
70 11 23 25 24 152 20 94 171 9 187 11 193 
71 6 156 26 61 41 105 29 
72 10 166 101 53 141 5 143 57 42 66 44 
73 11 88 22 102 149 19 8 130 80 68 35 43 
74 11 46 69 37 124 193 145 152 189 133 94 23 
75 10 76 137 140 168 36 15 181 64 48 158 
76 11 137 75 140 168 15 181 158 36 100 6 185 
77 10 175 97 197 176 7 153 63 91 182 31 
78 10 45 136 173 146 87 167 17 4 126 85 
79 10 51 165 191 31 176 148 182 153 194 7 
80 11 8 32 160 179 183 124 46 33 73 22 145 
81 8 108 147 58 150 3 10 172 198 
82 8 172 198 147 111 81 108 128 10 
83 7 62 9 117 110 132 93 25 
84 10 115 174 113 2 19 65 163 60 130 68 
85 11 17 18 4 87 126 178 50 119 28 129 59 
86 11 36 13 168 195 140 181 48 15 180 158 56 
87 11 17 18 85 78 178 4 45 136 126 173 146 
88 11 19 130 73 102 149 68 22 43 35 8 115 
89 9 30 104 28 178 18 50 87 17 53 
90 10 92 21 123 159 121 164 12 120 138 170 
91 8 63 197 97 188 7 77 153 175 
92 9 90 21 121 120 122 109 27 123 12 
93 10 110 117 107 49 9 139 184 62 83 171 
94 11 152 133 193 23 43 24 196 11 46 74 70 
95 11 112 10 64 3 111 150 81 108 147 198 172 
96 10 190 16 39 154 55 169 144 59 157 129 
97 11 197 7 77 153 63 176 175 91 182 188 31 
98 11 186 35 68 159 149 102 22 115 19 88 73 
99 8 151 155 44 57 66 134 177 5 
100 11 6 158 192 162 15 180 181 185 56 47 52 
101 10 72 143 5 166 53 141 42 57 41 105 
102 11 149 68 88 35 73 19 22 130 115 8 80 
103 11 163 67 142 2 65 113 118 174 106 60 131 
104 10 30 89 28 178 50 18 17 87 85 40 
105 6 41 42 143 5 101 134 
106 11 118 60 65 187 67 2 113 103 163 11 142 
107 8 139 184 49 93 110 171 117 9 
108 8 81 147 58 150 3 10 172 199 
109 10 122 27 47 34 52 56 13 180 192 158 
110 10 93 117 9 49 62 83 107 139 171 184 
111 9 198 172 147 112 10 81 108 95 3 
112 11 10 95 111 3 81 108 147 64 198 172 150 
113 11 2 65 60 174 163 103 118 106 67 11 196 
114 10 135 185 162 125 192 6 100 158 52 34 
115 11 84 19 174 68 88 130 113 2 102 149 65 
116 11 170 12 33 183 14 179 138 160 32 164 80 
117 8 110 9 93 62 83 49 107 171 
118 11 106 65 60 67 2 113 187 103 163 142 174 
119 11 129 59 126 4 85 17 167 18 87 50 146 
120 11 121 21 170 122 92 116 109 12 14 33 164 
121 11 21 120 170 12 116 92 164 123 14 33 138 
122 10 109 27 47 34 52 56 120 13 180 92 
123 11 164 138 12 33 116 183 22 21 170 35 32 
124 11 145 189 160 46 74 179 69 32 80 14 37 
125 9 135 114 185 162 192 6 100 137 158 
126 11 4 119 85 167 17 129 146 59 87 18 78 
127 7 187 20 106 118 25 142 67 
128 8 199 58 108 81 150 147 172 3 
129 11 59 119 126 4 85 55 38 17 167 18 50 
130 11 19 88 43 73 196 133 102 11 149 68 115 
131 7 142 67 103 163 118 106 2 
132 6 188 83 62 9 63 91 
133 11 193 43 94 46 152 74 8 130 196 23 11 
134 8 177 155 151 99 5 42 143 57 
135 10 114 185 125 162 192 6 100 158 137 15 
136 10 173 45 78 146 87 167 17 166 53 66 
137 10 76 75 185 15 181 100 158 140 6 135 
138 11 164 33 12 183 123 116 32 22 179 160 80 
139 9 184 49 107 171 93 110 117 9 37 
140 11 168 36 76 86 181 15 48 75 13 158 180 
141 10 166 57 72 5 53 66 44 101 143 42 
142 8 131 67 103 163 118 106 2 65 
143 11 5 42 57 101 72 141 41 155 105 166 134 
144 11 39 55 38 40 59 129 16 96 119 190 154 
145 11 189 124 69 14 37 74 179 160 46 32 54 
146 11 167 78 45 173 136 126 4 87 17 85 157 
147 8 172 81 198 108 111 10 58 112 
148 6 161 165 31 182 153 7 
149 11 102 68 35 88 19 73 22 130 115 8 80 
150 9 3 58 108 81 199 10 147 95 112 
151 9 99 155 134 177 57 44 66 5 143 
152 11 23 94 24 193 133 70 74 43 46 11 69 
153 11 7 182 197 97 176 63 77 31 188 91 175 
154 11 16 169 157 190 55 39 59 129 119 167 96 
155 9 134 177 151 99 5 57 143 42 44 
156 4 71 41 105 26 
157 10 169 154 167 146 16 126 4 119 59 78 
158 11 100 6 15 180 181 192 56 162 185 47 34 
159 11 186 98 123 164 35 90 138 22 12 149 68 
160 11 32 179 80 183 124 8 33 145 14 189 46 
161 5 148 182 188 153 7 
162 11 192 6 185 100 114 158 135 52 56 180 34 
163 11 103 67 2 113 65 174 142 118 106 60 131 
164 11 123 138 12 33 116 183 22 170 32 179 80 
165 10 31 51 79 182 176 153 148 7 191 97 
166 10 53 72 141 101 57 66 5 44 136 143 
167 11 146 126 78 4 45 173 136 17 87 157 119 
168 11 140 36 86 181 15 76 48 13 180 158 75 
169 10 157 154 16 167 146 126 59 119 129 4 
170 11 116 12 14 33 183 179 121 138 160 32 164 
171 10 49 139 184 70 107 110 9 23 93 117 
172 8 198 147 111 81 108 10 112 82 
173 10 136 45 78 146 167 87 17 66 166 44 
174 11 2 113 65 163 103 84 60 67 115 118 106 
175 9 77 97 197 176 7 63 91 153 182 
176 11 7 153 97 197 77 182 31 175 165 63 51 
177 8 134 155 151 99 5 42 57 143 
178 11 18 28 50 17 85 87 30 4 126 78 45 
179 11 160 32 183 14 124 33 145 80 189 116 8 
180 11 56 158 181 15 100 47 6 192 34 52 162 
181 11 15 158 180 100 6 168 140 56 36 192 76 
182 9 153 7 176 31 197 97 63 165 161 
183 11 33 32 179 160 80 116 138 14 8 12 124 
184 9 139 49 107 171 93 110 117 9 37 
185 11 162 135 114 6 192 100 158 125 15 137 181 
186 11 159 98 35 123 68 149 102 164 22 138 73 
187 11 20 106 118 60 11 24 127 65 25 67 2 
188 7 132 63 91 197 7 153 161 
189 11 145 124 14 69 37 179 54 74 160 46 32 
190 11 96 16 154 39 55 169 157 59 129 144 119 
191 11 51 79 194 165 31 176 77 175 182 153 7 
192 11 6 162 100 158 52 56 185 34 180 47 114 
193 11 133 46 94 43 74 152 23 8 124 69 80 
194 11 191 51 79 165 31 176 77 175 97 7 153 
195 11 86 48 13 36 168 140 181 15 180 76 56 
196 11 11 60 43 24 94 65 113 130 2 133 106 
197 10 97 7 63 153 77 176 91 182 175 188 
198 8 172 111 147 81 108 10 112 82 
199 8 58 128 150 108 81 3 147 172 
DEPOT_SECTION
   1
   -1
EOF
