NAME :  X-n280-kX-w27-c7.cctp
COMMENT : 	Adapted by Maziero, Usberti and Cavellucci from the Uchoa, Pecin, Pessoa, Poggi, Subramanian, and Vidal (2013)
TYPE :  CCTP
DIMENSION :    146
EDGE_WEIGHT_TYPE : 	EUC_2D	
CAPACITY : 	192
VERTICES_WITHIN_COVERAGE :  7
VERTICES_WITH_DEMAND : 	27
NODE_COORD_SECTION
1 0 0
2 909 919
3 878 721
4 969 85
5 591 195
6 955 148
7 587 903
8 994 792
9 625 129
10 544 703
11 461 167
12 37 644
13 615 22
14 773 788
15 384 364
16 51 291
17 109 732
18 570 124
19 692 985
20 62 150
21 358 5
22 188 450
23 674 658
24 676 904
25 815 984
26 710 16
27 74 658
28 576 1000
29 636 695
30 547 92
31 26 150
32 516 892
33 560 782
34 922 643
35 598 257
36 516 221
37 99 169
38 616 680
39 791 822
40 645 609
41 917 154
42 729 688
43 134 510
44 499 737
45 770 2
46 497 623
47 519 196
48 90 822
49 827 901
50 656 56
51 732 55
52 772 748
53 884 973
54 158 430
55 563 13
56 609 223
57 628 860
58 264 436
59 699 764
60 95 246
61 44 339
62 885 644
63 122 603
64 850 732
65 153 641
66 713 82
67 659 564
68 881 18
69 17 749
70 164 778
71 258 488
72 725 988
73 125 619
74 316 80
75 84 140
76 919 768
77 945 924
78 905 944
79 892 37
80 74 227
81 668 697
82 1 96
83 637 118
84 622 958
85 100 192
86 23 228
87 110 163
88 53 628
89 489 621
90 563 916
91 960 837
92 648 247
93 375 402
94 531 205
95 935 676
96 964 651
97 891 112
98 852 861
99 113 701
100 662 198
101 667 718
102 809 908
103 968 908
104 59 136
105 529 215
106 385 380
107 138 787
108 473 713
109 537 114
110 168 838
111 774 825
112 60 733
113 500 37
114 343 363
115 429 41
116 205 398
117 411 109
118 865 775
119 605 162
120 359 199
121 16 739
122 482 214
123 528 103
124 572 770
125 952 781
126 823 795
127 522 595
128 52 336
129 456 367
130 410 194
131 956 21
132 717 142
133 766 880
134 657 640
135 471 339
136 920 809
137 688 98
138 441 81
139 201 32
140 69 94
141 123 416
142 341 341
143 251 533
144 724 967
145 684 924
146 617 989
DEMAND_SECTION
2 92
3 88
4 93
5 90
6 73
7 100
8 53
9 66
10 82
11 59
12 100
13 76
14 84
15 56
16 91
17 58
18 65
19 56
20 68
21 88
22 54
23 76
24 80
25 53
26 1
27 2
28 2
COVERAGE_SECTION
2 7 78 77 53 103 98 49 91 
3 7 64 118 76 95 62 34 126 
4 6 6 131 97 41 79 68 
5 7 56 119 94 35 105 100 47 
6 5 41 4 97 131 79 
7 7 90 57 84 32 24 146 28 
8 7 125 91 136 76 103 95 118 
9 7 83 119 18 137 5 100 50 
10 7 44 108 124 38 33 29 46 
11 7 122 130 47 36 117 94 105 
12 6 88 27 73 112 63 99 
13 7 50 55 26 30 83 137 9 
14 6 111 39 52 126 59 133 
15 5 106 93 114 142 129 
16 5 128 61 60 80 86 
17 7 99 112 107 70 27 48 121 
18 7 109 30 123 119 9 83 5 
19 7 72 144 145 84 146 24 28 
20 7 104 75 31 37 87 140 85 
21 6 115 74 138 117 113 139 
22 6 54 116 141 58 71 43 
23 7 134 81 29 40 101 38 42 
24 7 145 57 84 144 19 7 133 
25 7 53 102 49 72 144 78 2 
26 6 51 45 66 50 137 13 
27 6 88 12 99 73 63 112 
28 6 146 84 90 7 19 32 
29 6 38 81 101 23 134 40 
30 7 123 109 18 113 55 9 119 
31 7 20 104 75 82 140 37 86 
32 2 90 7 
33 3 124 44 10 
34 5 95 62 96 3 64 
35 6 56 92 5 105 94 100 
36 7 105 94 47 122 11 5 35 
37 6 87 85 75 20 104 80 
38 7 29 81 134 23 101 10 40 
39 6 111 14 126 133 98 52 
40 6 134 67 23 38 29 81 
41 4 6 97 4 79 
42 4 81 23 101 52 
43 3 22 54 63 
44 3 108 10 33 
45 5 26 51 66 68 50 
46 5 89 127 10 108 44 
47 7 94 105 36 122 11 5 109 
48 5 107 110 70 17 112 
49 6 102 98 133 2 25 39 
50 7 13 137 66 83 26 51 9 
51 6 66 26 137 45 50 132 
52 5 14 126 42 59 39 
53 7 78 2 25 77 49 102 103 
54 3 22 141 116 
55 7 13 113 30 123 50 109 18 
56 7 5 35 92 100 119 94 105 
57 6 7 24 145 90 84 33 
58 3 71 116 22 
59 6 101 81 52 14 42 29 
60 5 80 85 16 86 37 
61 4 128 16 60 141 
62 5 34 95 3 96 64 
63 3 73 65 27 
64 5 3 118 126 76 52 
65 4 73 63 99 27 
66 7 137 51 132 50 26 83 45 
67 3 40 134 23 
68 5 79 131 97 4 45 
69 7 121 112 17 48 12 27 99 
70 4 107 110 17 48 
71 3 143 58 22 
72 7 144 19 145 25 24 84 146 
73 4 63 65 27 88 
74 5 21 117 115 138 139 
75 7 20 104 37 87 140 85 31 
76 7 125 136 118 3 64 8 91 
77 7 103 2 78 53 91 98 136 
78 7 2 53 77 103 49 25 98 
79 4 68 131 97 4 
80 7 60 85 86 37 16 87 20 
81 7 101 29 23 38 134 42 59 
82 7 31 140 104 20 75 37 87 
83 7 9 119 137 50 18 66 100 
84 7 146 28 7 145 90 19 24 
85 6 37 87 80 60 75 20 
86 7 80 16 60 31 85 20 37 
87 5 37 85 75 20 104 
88 4 12 27 63 73 
89 4 46 127 108 10 
90 6 7 32 84 28 57 146 
91 7 136 8 125 103 76 77 2 
92 4 56 35 100 5 
93 3 106 15 114 
94 7 105 47 36 122 5 11 56 
95 6 34 96 62 3 76 64 
96 6 95 34 62 3 76 125 
97 4 41 6 79 4 
98 6 49 102 39 126 2 111 
99 7 17 27 112 65 73 107 70 
100 7 92 56 119 5 9 132 83 
101 6 81 29 59 23 38 42 
102 6 49 133 98 25 39 111 
103 7 77 2 91 78 53 136 8 
104 7 20 75 31 140 37 87 85 
105 7 94 36 47 122 5 56 35 
106 5 15 93 114 142 129 
107 5 70 48 110 17 99 
108 4 44 10 46 89 
109 7 123 30 18 119 47 113 9 
110 4 107 70 48 17 
111 6 39 14 133 126 52 98 
112 7 121 69 17 99 27 12 48 
113 7 55 115 30 123 138 109 18 
114 4 142 15 106 93 
115 6 138 117 113 21 123 74 
116 3 22 54 58 
117 5 138 115 11 130 74 
118 7 64 126 76 3 136 98 125 
119 7 5 9 18 83 56 100 109 
120 3 130 117 11 
121 7 69 112 17 12 27 99 48 
122 7 36 47 105 94 11 130 5 
123 7 109 30 18 113 138 11 47 
124 3 33 10 44 
125 7 76 8 136 91 118 3 95 
126 7 39 118 14 111 52 64 98 
127 3 46 89 10 
128 4 61 16 60 141 
129 4 135 15 106 93 
130 4 120 11 122 117 
131 5 4 79 68 97 6 
132 6 137 66 100 83 51 9 
133 6 102 111 39 49 98 14 
134 7 23 40 38 81 29 67 101 
135 4 129 15 106 93 
136 7 76 125 91 118 8 98 3 
137 7 66 50 132 83 51 9 26 
138 6 117 115 113 11 123 109 
139 3 74 140 21 
140 6 104 75 20 82 31 87 
141 3 54 22 116 
142 4 114 15 106 93 
143 3 71 58 22 
144 7 72 19 145 24 25 133 84 
145 7 24 144 19 84 72 57 133 
146 7 84 28 19 7 90 145 24 
DEPOT_SECTION
   1
   -1
EOF
