NAME :  X-n242-kX-w48-c7.cctp
COMMENT : 	Adapted by Maziero, Usberti and Cavellucci from the Uchoa, Pecin, Pessoa, Poggi, Subramanian, and Vidal (2013)
TYPE :  CCTP
DIMENSION :    205
EDGE_WEIGHT_TYPE : 	EUC_2D	
CAPACITY : 	28
VERTICES_WITHIN_COVERAGE :  7
VERTICES_WITH_DEMAND : 	48
NODE_COORD_SECTION
1 0 0
2 346 793
3 692 966
4 171 666
5 287 795
6 93 919
7 712 216
8 991 988
9 475 266
10 71 307
11 83 987
12 518 392
13 807 134
14 377 164
15 692 127
16 701 530
17 831 255
18 938 210
19 873 127
20 569 817
21 796 379
22 6 182
23 917 620
24 728 936
25 157 644
26 668 333
27 564 876
28 861 333
29 70 79
30 330 931
31 513 308
32 230 725
33 896 107
34 234 758
35 911 970
36 177 587
37 697 37
38 947 615
39 861 54
40 620 667
41 739 572
42 861 818
43 917 398
44 555 473
45 992 303
46 701 695
47 588 974
48 556 781
49 627 213
50 19 93
51 837 398
52 694 875
53 575 428
54 949 337
55 752 458
56 432 417
57 881 966
58 101 210
59 951 30
60 959 856
61 554 981
62 72 873
63 681 319
64 149 612
65 799 203
66 92 644
67 997 104
68 727 707
69 163 790
70 364 966
71 119 969
72 931 207
73 820 844
74 630 384
75 721 103
76 209 814
77 176 751
78 76 178
79 737 499
80 42 123
81 194 726
82 521 825
83 554 637
84 129 540
85 659 941
86 122 683
87 123 119
88 111 386
89 338 989
90 596 175
91 657 234
92 688 921
93 676 942
94 463 128
95 875 97
96 982 861
97 445 748
98 828 305
99 43 98
100 673 668
101 387 303
102 768 421
103 258 543
104 737 698
105 124 97
106 859 222
107 130 599
108 52 803
109 888 289
110 970 456
111 854 776
112 600 549
113 877 51
114 992 969
115 80 304
116 805 76
117 990 256
118 306 119
119 836 204
120 74 223
121 438 996
122 150 894
123 979 964
124 733 939
125 716 390
126 787 27
127 947 450
128 599 860
129 801 106
130 846 847
131 627 625
132 553 193
133 435 902
134 860 100
135 472 765
136 605 123
137 887 327
138 752 426
139 996 198
140 789 612
141 803 935
142 361 801
143 760 739
144 170 958
145 786 418
146 531 586
147 646 977
148 892 113
149 486 445
150 778 834
151 438 499
152 572 1000
153 174 964
154 599 871
155 957 677
156 93 349
157 506 454
158 792 919
159 55 284
160 116 755
161 368 125
162 994 392
163 523 837
164 907 303
165 719 842
166 799 638
167 928 824
168 697 736
169 131 96
170 680 683
171 972 443
172 913 538
173 499 296
174 296 811
175 664 100
176 232 621
177 252 659
178 474 107
179 804 296
180 180 632
181 405 387
182 475 300
183 992 105
184 137 104
185 454 340
186 821 145
187 307 108
188 780 725
189 453 269
190 756 679
191 120 954
192 512 344
193 559 986
194 672 964
195 247 606
196 834 425
197 269 568
198 115 328
199 565 915
200 621 421
201 701 511
202 771 636
203 937 537
204 664 187
205 840 406
DEMAND_SECTION
2 6
3 2
4 2
5 1
6 8
7 3
8 1
9 4
10 7
11 10
12 4
13 6
14 9
15 7
16 2
17 6
18 2
19 2
20 5
21 4
22 6
23 4
24 10
25 1
26 1
27 1
28 3
29 1
30 4
31 6
32 1
33 7
34 9
35 7
36 3
37 10
38 10
39 6
40 4
41 1
42 3
43 10
44 10
45 7
46 9
47 10
48 8
49 4
COVERAGE_SECTION
2 7 142 174 5 97 34 135 32 
3 7 194 93 85 92 24 147 124 
4 7 25 180 86 64 81 176 36 
5 7 174 2 34 142 76 32 81 
6 7 191 62 71 122 11 144 153 
7 7 204 91 49 65 15 63 75 
8 7 114 123 35 57 96 60 167 
9 7 189 182 173 31 185 192 101 
10 7 115 159 156 198 120 88 58 
11 7 71 191 6 144 153 62 122 
12 7 192 149 157 53 185 31 44 
13 7 186 129 116 134 19 65 119 
14 5 161 118 187 94 178 
15 7 75 175 204 136 37 7 90 
16 6 201 79 41 55 112 138 
17 7 106 179 98 119 65 109 28 
18 7 72 139 117 106 109 164 119 
19 7 148 33 95 134 186 13 39 
20 7 48 82 163 128 27 154 199 
21 7 145 51 102 205 196 138 28 
22 7 80 78 120 50 99 58 159 
23 4 38 155 172 203 
24 7 124 92 3 93 194 158 85 
25 7 4 180 64 86 107 36 66 
26 6 63 74 125 91 200 7 
27 7 154 128 199 163 20 82 48 
28 7 137 98 109 164 179 51 205 
29 7 99 80 50 105 169 87 184 
30 7 70 89 133 174 121 142 2 
31 7 173 192 182 9 185 189 12 
32 7 34 81 77 177 4 5 76 
33 7 148 95 19 134 113 39 186 
34 7 32 81 77 76 5 69 174 
35 7 57 123 114 8 141 60 158 
36 7 64 180 107 25 176 84 195 
37 7 75 175 15 126 116 129 136 
38 4 23 155 203 172 
39 7 113 95 134 116 33 148 19 
40 7 131 100 170 83 46 168 68 
41 6 16 140 201 202 79 166 
42 7 130 111 73 167 150 60 158 
43 7 127 54 171 137 162 205 110 
44 6 53 157 149 200 112 12 
45 7 117 54 164 162 109 139 18 
46 7 170 68 104 100 168 190 143 
47 7 152 193 61 147 199 85 194 
48 7 20 82 163 135 128 27 154 
49 7 91 204 90 132 7 136 15 
50 7 99 80 29 22 78 105 87 
51 6 205 196 21 145 28 102 
52 7 165 92 93 24 85 124 3 
53 6 200 44 12 74 157 149 
54 7 164 45 137 43 162 109 28 
55 7 138 102 79 145 201 125 16 
56 7 181 149 185 151 157 12 192 
57 7 35 141 123 158 114 8 130 
58 7 120 78 159 87 115 22 10 
59 7 113 183 67 39 33 95 148 
60 7 96 167 42 123 130 114 35 
61 7 193 152 47 199 147 27 85 
62 7 6 108 122 191 71 11 69 
63 6 26 125 74 91 7 200 
64 6 107 25 180 36 4 66 
65 7 119 17 186 106 13 7 179 
66 4 86 107 25 64 
67 7 183 59 139 33 148 18 72 
68 7 104 46 190 168 143 170 188 
69 7 77 76 160 81 34 32 122 
70 7 89 30 121 133 142 174 2 
71 7 191 11 144 153 6 122 62 
72 7 18 139 106 117 109 119 19 
73 7 130 150 42 111 158 141 165 
74 6 200 26 53 63 125 12 
75 7 15 175 37 129 116 13 126 
76 7 69 34 77 5 174 81 32 
77 7 81 69 34 32 160 76 4 
78 7 58 120 80 22 87 99 105 
79 7 201 55 16 41 138 102 145 
80 7 99 50 29 78 22 87 105 
81 7 77 32 34 4 69 160 86 
82 7 163 20 48 27 135 128 154 
83 4 146 40 131 112 
84 3 107 36 64 
85 7 93 194 92 147 3 24 124 
86 7 66 4 25 160 64 180 81 
87 7 184 105 169 29 78 80 99 
88 4 156 198 115 10 
89 7 70 30 121 133 153 144 174 
90 4 132 49 136 204 
91 7 49 204 7 90 63 26 132 
92 7 93 85 24 3 52 194 124 
93 7 85 194 92 3 147 24 124 
94 3 178 14 161 
95 7 134 33 148 19 39 113 186 
96 7 60 167 123 114 8 42 35 
97 6 135 142 82 2 48 163 
98 7 179 28 17 109 137 164 21 
99 7 50 80 29 105 87 78 169 
100 7 170 46 40 131 68 104 168 
101 7 189 185 181 182 9 173 56 
102 7 138 145 55 21 125 196 51 
103 4 197 195 176 36 
104 7 68 190 46 143 188 168 170 
105 7 169 184 87 29 99 80 78 
106 7 119 17 65 109 72 18 186 
107 6 64 36 25 66 84 180 
108 6 62 160 69 6 77 122 
109 7 164 137 28 98 17 106 54 
110 6 171 127 162 43 203 172 
111 7 42 130 73 167 188 150 143 
112 7 146 131 44 83 16 201 40 
113 7 39 95 134 33 148 19 116 
114 7 123 8 35 96 57 60 167 
115 7 10 159 198 156 120 88 58 
116 7 129 126 13 39 134 186 95 
117 7 45 139 18 72 54 164 109 
118 3 187 161 14 
119 7 106 65 17 186 13 19 72 
120 7 58 78 159 22 115 10 80 
121 7 70 133 89 61 193 30 152 
122 7 6 144 191 153 62 71 76 
123 7 114 8 35 57 96 60 167 
124 7 24 92 3 93 158 194 141 
125 6 138 102 26 145 55 63 
126 7 116 39 129 37 113 75 134 
127 6 110 171 43 162 203 172 
128 7 154 27 20 199 163 82 48 
129 7 13 116 186 134 19 95 39 
130 7 73 42 150 111 167 158 141 
131 7 40 100 83 170 112 46 146 
132 3 90 49 136 
133 7 121 70 30 163 82 142 89 
134 7 95 19 148 33 39 113 129 
135 6 97 82 48 163 20 142 
136 6 90 175 15 132 204 49 
137 7 28 164 109 54 98 43 51 
138 7 102 55 145 125 21 79 196 
139 7 117 18 72 183 67 45 148 
140 5 166 202 41 190 104 
141 7 158 124 24 57 73 130 150 
142 7 2 174 5 97 135 133 30 
143 6 188 68 104 190 168 46 
144 7 153 191 71 122 6 11 62 
145 7 102 138 21 196 55 51 205 
146 4 83 112 131 44 
147 7 194 85 93 3 47 92 152 
148 7 33 95 19 134 113 39 186 
149 7 157 56 12 151 44 53 181 
150 6 73 165 130 42 158 52 
151 5 149 56 157 181 44 
152 7 193 61 47 147 199 85 194 
153 7 144 71 191 122 6 11 62 
154 7 128 27 199 20 163 82 85 
155 6 38 23 203 111 172 167 
156 6 198 88 10 115 159 120 
157 7 149 44 12 53 151 56 192 
158 7 141 124 24 73 150 130 57 
159 7 10 115 120 198 156 58 78 
160 7 69 77 86 108 81 4 76 
161 4 14 118 187 94 
162 7 171 110 54 127 43 45 164 
163 7 82 20 27 48 128 154 135 
164 7 109 137 54 28 98 45 17 
165 6 52 150 92 24 124 73 
166 6 140 202 190 104 41 188 
167 7 60 96 42 130 111 73 35 
168 6 46 68 104 170 143 100 
169 7 105 184 87 29 99 80 78 
170 7 100 46 68 168 104 40 190 
171 6 110 127 162 43 203 54 
172 3 203 23 38 
173 7 31 182 9 192 189 185 12 
174 7 5 2 142 34 76 32 30 
175 6 15 75 136 37 204 90 
176 7 195 177 180 36 197 4 25 
177 7 176 195 32 180 4 81 197 
178 3 94 161 14 
179 7 98 17 28 21 109 137 106 
180 7 25 4 64 36 176 107 195 
181 7 56 185 101 149 182 12 192 
182 7 173 9 189 31 185 192 101 
183 7 67 59 139 33 148 95 18 
184 7 169 105 87 29 99 78 80 
185 7 182 192 173 31 181 189 9 
186 7 13 129 19 134 119 65 116 
187 3 118 161 14 
188 6 143 104 190 68 168 46 
189 7 9 182 173 185 31 101 192 
190 7 104 68 202 188 46 166 143 
191 7 71 6 11 144 153 122 62 
192 7 31 12 173 182 185 9 189 
193 7 61 152 47 199 147 27 85 
194 7 3 93 85 147 92 24 124 
195 7 176 197 177 103 180 36 4 
196 6 205 51 145 21 102 138 
197 5 103 195 176 177 36 
198 7 156 115 10 88 159 120 58 
199 7 27 154 47 128 61 193 152 
200 6 74 53 44 26 125 12 
201 6 16 79 41 55 138 112 
202 6 166 140 190 104 41 68 
203 5 172 38 23 110 127 
204 7 49 91 7 15 90 136 175 
205 6 51 196 21 145 102 28 
DEPOT_SECTION
   1
   -1
EOF
