NAME :  X-n298-kX-w29-c11.cctp
COMMENT : 	Adapted by Maziero, Usberti and Cavellucci from the Uchoa, Pecin, Pessoa, Poggi, Subramanian, and Vidal (2013)
TYPE :  CCTP
DIMENSION :    196
EDGE_WEIGHT_TYPE : 	EUC_2D	
CAPACITY : 	55
VERTICES_WITHIN_COVERAGE :  11
VERTICES_WITH_DEMAND : 	29
NODE_COORD_SECTION
1 440 732
2 221 348
3 117 545
4 493 645
5 135 12
6 775 997
7 745 444
8 950 311
9 530 150
10 900 508
11 48 519
12 269 217
13 722 349
14 480 733
15 977 422
16 999 220
17 636 332
18 851 162
19 559 567
20 389 69
21 529 835
22 303 427
23 400 638
24 894 904
25 482 109
26 579 800
27 184 82
28 669 753
29 906 424
30 374 692
31 174 613
32 75 37
33 38 563
34 838 157
35 710 709
36 176 67
37 530 27
38 171 342
39 226 65
40 24 635
41 318 608
42 429 82
43 212 237
44 853 126
45 387 47
46 511 647
47 457 561
48 290 456
49 473 563
50 257 340
51 588 545
52 552 414
53 994 946
54 452 534
55 422 545
56 977 96
57 822 580
58 668 981
59 424 638
60 297 607
61 251 282
62 237 413
63 202 573
64 181 385
65 126 528
66 978 846
67 70 99
68 333 357
69 627 268
70 818 433
71 738 555
72 42 595
73 870 933
74 19 120
75 319 417
76 187 376
77 251 482
78 209 397
79 800 377
80 228 116
81 566 559
82 490 156
83 216 547
84 600 893
85 938 222
86 543 747
87 572 976
88 569 59
89 971 515
90 616 306
91 695 837
92 421 821
93 604 995
94 537 957
95 778 101
96 462 74
97 608 430
98 710 300
99 626 650
100 531 719
101 598 824
102 279 169
103 286 268
104 782 132
105 862 518
106 457 603
107 44 44
108 527 818
109 164 156
110 23 86
111 436 886
112 323 340
113 333 488
114 517 137
115 591 972
116 541 888
117 122 280
118 200 158
119 588 270
120 158 374
121 852 328
122 437 138
123 333 192
124 922 499
125 8 561
126 747 852
127 989 908
128 842 190
129 595 716
130 199 373
131 159 67
132 742 853
133 528 160
134 223 342
135 503 159
136 711 681
137 339 340
138 342 509
139 931 593
140 766 953
141 172 159
142 685 836
143 639 155
144 269 241
145 330 177
146 901 124
147 713 860
148 949 178
149 833 852
150 336 444
151 296 597
152 566 735
153 940 377
154 939 827
155 908 120
156 670 569
157 753 744
158 577 351
159 141 616
160 97 625
161 496 160
162 515 598
163 274 510
164 291 170
165 800 300
166 74 609
167 365 207
168 791 396
169 453 848
170 525 743
171 260 385
172 231 504
173 837 572
174 606 473
175 123 80
176 477 169
177 383 59
178 890 101
179 68 598
180 172 367
181 569 289
182 84 19
183 694 916
184 261 233
185 693 375
186 588 854
187 599 569
188 142 158
189 324 194
190 739 325
191 858 93
192 37 599
193 568 674
194 439 570
195 587 278
196 597 608
DEMAND_SECTION
2 2
3 9
4 1
5 4
6 9
7 5
8 7
9 2
10 4
11 7
12 2
13 9
14 5
15 10
16 5
17 8
18 5
19 8
20 8
21 6
22 7
23 2
24 1
25 3
26 9
27 1
28 1
29 10
30 3
COVERAGE_SECTION
2 11 134 130 50 76 38 78 180 64 171 62 120 
3 11 65 179 11 159 166 33 160 31 63 72 192 
4 11 46 162 106 59 193 100 49 14 47 194 23 
5 11 182 131 32 36 175 27 107 39 67 110 80 
6 10 140 58 73 183 126 132 147 24 149 93 
7 10 168 70 185 79 13 71 190 97 105 174 
8 11 153 85 121 16 15 29 148 165 128 79 18 
9 11 133 114 135 161 82 176 25 122 88 96 143 
10 10 124 105 89 29 139 173 57 70 15 153 
11 10 33 125 3 72 65 179 192 166 160 40 
12 11 184 144 102 164 103 43 189 61 123 145 118 
13 10 190 185 98 79 168 17 165 7 90 69 
14 11 170 100 86 152 4 46 108 92 193 59 21 
15 11 153 29 89 124 8 10 105 121 70 139 79 
16 9 85 148 8 56 155 146 18 128 178 
17 11 90 158 69 185 195 119 181 98 13 97 190 
18 11 34 128 44 146 191 155 178 104 95 148 85 
19 11 81 51 187 162 196 49 46 4 47 174 99 
20 10 177 45 42 96 122 25 145 82 176 123 
21 11 108 116 26 186 101 169 86 84 170 111 152 
22 11 75 48 150 171 62 113 68 77 163 112 138 
23 11 59 30 106 194 41 4 47 55 49 60 46 
24 10 73 149 154 127 66 53 140 6 126 132 
25 11 96 114 82 161 122 135 42 176 9 133 37 
26 11 101 108 186 21 86 152 170 129 100 84 116 
27 11 36 131 39 80 175 109 118 141 5 188 67 
28 11 35 129 136 157 142 91 101 26 152 99 147 
29 11 153 15 124 10 70 105 121 89 79 168 8 
30 6 23 59 41 14 60 106 
31 6 159 63 83 160 3 65 
32 11 182 107 67 175 5 110 131 74 36 27 188 
33 11 125 72 192 11 179 166 40 3 160 65 159 
34 11 18 128 44 104 191 146 178 155 95 148 85 
35 6 136 157 28 99 129 91 
36 11 27 131 39 175 5 80 109 141 118 188 182 
37 9 88 96 25 114 42 9 133 82 135 
38 10 180 120 76 130 64 2 134 78 117 50 
39 11 27 36 80 131 118 175 5 141 109 102 164 
40 8 192 72 166 179 33 160 125 11 
41 7 60 151 23 30 138 163 59 
42 11 96 20 177 45 122 25 82 176 161 114 135 
43 11 184 144 12 61 103 118 141 109 102 117 164 
44 10 191 34 18 178 146 155 128 104 95 148 
45 10 177 20 42 96 122 25 145 37 82 176 
46 11 4 162 193 106 100 59 14 49 19 196 170 
47 9 49 194 54 55 106 162 59 4 23 
48 10 22 77 150 75 113 163 62 138 172 171 
49 10 47 194 54 106 55 162 4 19 59 46 
50 11 134 2 171 61 112 130 78 62 68 103 76 
51 10 81 187 19 196 174 156 162 99 49 97 
52 5 97 158 174 17 90 
53 8 127 66 24 73 154 149 6 140 
54 8 47 55 49 194 106 162 59 19 
55 9 194 54 47 49 106 138 59 23 113 
56 7 155 146 148 178 191 16 44 
57 6 173 105 71 10 139 124 
58 10 93 183 115 87 140 6 84 147 94 142 
59 11 23 106 4 194 30 47 46 49 55 162 54 
60 7 151 41 163 63 83 23 138 
61 10 103 144 184 50 43 134 12 2 112 38 
62 10 78 171 130 76 64 2 22 48 77 134 
63 7 83 31 159 172 65 3 163 
64 10 76 180 130 120 78 38 2 134 62 171 
65 11 3 11 63 159 179 83 33 166 31 160 72 
66 6 154 127 53 24 73 149 
67 11 110 74 175 107 32 182 188 131 5 109 36 
68 8 137 112 75 22 50 171 150 103 
69 7 119 90 195 181 17 98 158 
70 11 168 79 7 29 105 121 10 124 13 153 165 
71 7 156 57 173 7 105 136 187 
72 10 192 179 33 166 40 125 160 11 3 159 
73 11 24 149 140 6 127 53 154 66 126 132 147 
74 10 110 67 107 32 175 182 188 109 131 5 
75 11 22 150 48 68 171 113 112 137 62 77 138 
76 10 64 130 180 120 78 38 2 134 62 171 
77 8 172 163 48 62 83 22 113 150 
78 10 130 64 76 62 180 2 171 120 134 38 
79 11 168 70 121 165 190 13 7 185 29 98 153 
80 11 118 39 27 36 141 102 109 164 131 188 12 
81 11 19 51 187 196 162 49 174 46 156 47 99 
82 9 161 135 176 114 133 9 25 122 96 
83 8 63 172 163 77 31 65 151 3 
84 10 186 116 101 115 87 94 21 26 183 93 
85 11 148 16 8 128 146 18 155 34 44 178 56 
86 11 170 152 100 129 26 14 108 193 21 101 46 
87 10 115 93 94 84 116 58 186 183 21 101 
88 9 37 114 9 25 96 133 143 135 82 
89 7 124 10 139 15 105 29 153 
90 8 17 69 195 119 181 158 98 185 
91 10 142 147 132 126 183 28 101 186 84 157 
92 4 169 111 14 108 
93 10 115 87 58 94 84 183 116 186 140 6 
94 9 87 115 116 93 84 186 21 111 58 
95 7 104 44 191 34 18 128 178 
96 11 42 25 122 20 45 177 37 114 82 161 135 
97 8 174 52 158 185 17 51 90 81 
98 8 190 13 185 17 69 165 90 79 
99 11 196 193 129 187 136 156 35 152 19 81 28 
100 11 170 86 152 14 193 129 46 4 26 108 21 
101 11 26 186 84 21 108 116 142 86 152 91 28 
102 11 164 12 189 145 123 184 144 80 118 167 43 
103 9 144 61 184 12 50 43 112 189 123 
104 6 95 34 44 18 128 191 
105 9 10 173 124 57 70 139 29 89 71 
106 11 194 47 49 59 4 162 23 55 54 46 19 
107 11 32 110 182 67 74 175 5 131 36 27 188 
108 11 21 26 101 116 186 86 170 169 152 14 100 
109 11 141 188 118 80 27 175 131 36 43 39 67 
110 11 74 107 67 32 182 175 5 131 188 36 109 
111 4 169 92 116 21 
112 8 137 68 50 75 171 103 22 61 
113 9 138 150 48 163 22 75 77 172 55 
114 11 9 133 135 161 82 25 176 122 96 88 42 
115 10 87 93 94 58 84 116 183 186 101 21 
116 10 21 186 84 94 108 101 87 26 169 115 
117 7 38 43 180 120 76 134 2 
118 11 141 109 80 188 27 43 102 12 164 36 39 
119 7 195 181 69 90 17 158 133 
120 8 180 64 76 38 130 78 2 134 
121 11 165 79 168 8 153 29 70 190 13 85 128 
122 9 176 25 82 42 161 96 135 114 20 
123 9 189 145 167 164 102 12 144 184 103 
124 10 10 89 105 29 139 15 173 70 153 57 
125 11 33 72 192 11 179 40 166 3 160 65 159 
126 9 132 147 91 142 183 149 140 157 28 
127 7 53 66 24 154 73 149 140 
128 11 18 34 44 104 146 155 191 85 178 148 95 
129 11 152 193 86 100 99 170 28 26 101 196 46 
130 10 76 64 78 180 2 134 120 38 62 171 
131 11 36 27 175 5 39 80 32 109 182 141 188 
132 9 126 147 91 142 183 149 140 157 28 
133 10 9 114 135 161 82 176 25 122 96 88 
134 11 2 50 130 76 38 78 171 180 64 61 62 
135 9 161 82 133 114 9 176 25 122 96 
136 6 35 157 28 99 156 129 
137 8 112 68 75 50 103 171 22 150 
138 10 113 150 163 48 55 22 75 77 151 41 
139 4 89 10 124 173 
140 11 6 183 58 126 132 73 147 149 91 24 142 
141 11 109 118 188 80 27 43 36 131 175 102 39 
142 10 91 147 132 126 183 28 101 186 84 26 
143 3 9 133 69 
144 10 184 12 103 61 43 189 102 164 123 145 
145 9 123 189 164 167 102 12 144 184 103 
146 9 155 178 44 191 18 34 148 56 128 
147 10 91 132 126 142 183 140 28 84 149 101 
148 10 85 16 155 146 56 178 18 128 44 34 
149 8 24 126 73 132 154 147 140 157 
150 11 75 22 113 48 138 68 163 77 171 62 137 
151 7 60 41 163 83 63 138 23 
152 11 86 129 100 170 193 26 14 108 101 46 99 
153 11 15 29 8 121 124 70 10 79 89 168 85 
154 6 66 24 127 149 73 53 
155 9 146 178 44 191 18 148 56 34 128 
156 9 71 187 196 51 99 81 19 174 136 
157 7 35 136 28 126 91 132 142 
158 8 90 17 181 52 195 119 97 69 
159 7 31 160 166 3 63 179 65 
160 8 166 179 159 72 192 40 31 3 
161 9 82 135 176 114 133 9 25 122 96 
162 11 46 4 19 49 106 81 47 194 196 187 51 
163 9 77 172 48 113 138 83 22 151 150 
164 11 102 145 189 123 12 184 144 80 167 118 103 
165 10 121 190 79 98 13 168 128 185 70 18 
166 9 179 160 72 192 40 33 159 3 125 
167 6 123 189 145 164 102 12 
168 11 79 70 7 13 190 121 165 185 29 98 105 
169 6 92 111 21 108 116 14 
170 11 86 100 152 14 108 129 26 193 21 46 4 
171 10 62 50 78 2 134 22 130 75 76 48 
172 8 77 163 83 63 48 62 113 22 
173 6 57 105 10 139 71 124 
174 8 97 51 52 81 187 19 156 158 
175 11 131 36 67 27 32 5 182 188 109 107 141 
176 9 82 161 135 114 122 133 9 25 96 
177 10 20 45 42 96 122 25 145 123 82 164 
178 8 146 155 191 44 18 34 56 148 
179 10 166 72 192 160 33 40 125 3 159 11 
180 9 120 76 64 38 130 78 2 134 62 
181 6 195 119 90 69 158 17 
182 11 32 107 5 175 67 131 110 36 27 74 39 
183 10 147 58 91 132 140 142 126 84 6 115 
184 10 144 12 103 43 61 102 164 189 123 145 
185 11 13 190 17 98 7 168 97 90 79 158 69 
186 10 101 84 26 116 21 108 142 91 94 86 
187 10 51 81 196 19 156 99 162 174 193 46 
188 10 109 141 118 175 27 67 131 80 36 43 
189 9 123 145 164 167 102 12 144 184 103 
190 10 13 98 165 185 79 168 17 121 7 90 
191 9 44 178 146 155 34 18 95 104 128 
192 9 72 179 33 40 166 125 160 11 3 
193 11 129 100 152 46 99 196 86 4 170 162 14 
194 9 47 55 49 54 106 59 23 162 4 
195 7 119 181 90 69 17 158 98 
196 11 187 99 19 81 51 193 156 162 46 129 4 
DEPOT_SECTION
   1
   -1
EOF
