NAME :  X-n214-kX-w42-c9.cctp
COMMENT : 	Adapted by Maziero, Usberti and Cavellucci from the Uchoa, Pecin, Pessoa, Poggi, Subramanian, and Vidal (2013)
TYPE :  CCTP
DIMENSION :    195
EDGE_WEIGHT_TYPE : 	EUC_2D	
CAPACITY : 	944
VERTICES_WITHIN_COVERAGE :  9
VERTICES_WITH_DEMAND : 	42
NODE_COORD_SECTION
1 500 500
2 753 355
3 663 83
4 725 286
5 581 444
6 700 205
7 630 475
8 560 407
9 848 374
10 752 315
11 454 310
12 685 227
13 747 468
14 540 348
15 882 346
16 762 228
17 884 307
18 681 274
19 761 254
20 791 205
21 699 559
22 694 352
23 679 11
24 656 446
25 428 487
26 838 395
27 554 590
28 567 250
29 769 381
30 753 20
31 710 296
32 653 489
33 711 447
34 516 322
35 704 265
36 742 358
37 578 423
38 923 378
39 451 120
40 449 254
41 626 264
42 701 203
43 751 293
44 835 0
45 640 218
46 493 226
47 483 445
48 671 134
49 465 361
50 521 69
51 894 399
52 824 388
53 605 238
54 561 443
55 663 9
56 768 339
57 634 426
58 590 60
59 735 280
60 842 365
61 671 124
62 680 251
63 558 451
64 884 356
65 746 384
66 687 227
67 855 350
68 656 450
69 560 459
70 591 433
71 451 36
72 747 26
73 753 384
74 530 259
75 739 215
76 537 267
77 742 304
78 509 418
79 667 17
80 534 297
81 605 382
82 470 482
83 817 366
84 728 264
85 778 44
86 856 360
87 666 107
88 538 317
89 715 34
90 875 290
91 725 237
92 563 394
93 775 378
94 587 443
95 535 665
96 696 387
97 704 153
98 667 448
99 557 440
100 682 461
101 762 279
102 824 522
103 764 259
104 759 334
105 750 391
106 893 283
107 900 308
108 595 73
109 641 474
110 597 236
111 294 448
112 852 182
113 526 330
114 735 460
115 901 303
116 545 395
117 494 2
118 741 339
119 795 456
120 783 343
121 694 224
122 698 323
123 683 222
124 704 269
125 769 321
126 596 321
127 605 103
128 567 464
129 743 205
130 622 449
131 745 269
132 603 447
133 634 194
134 832 312
135 796 292
136 662 86
137 608 618
138 489 267
139 837 289
140 478 510
141 569 497
142 611 550
143 749 387
144 683 355
145 682 81
146 701 170
147 653 414
148 683 308
149 659 582
150 668 329
151 662 288
152 897 399
153 770 366
154 540 212
155 606 309
156 581 254
157 582 485
158 848 381
159 828 150
160 536 445
161 707 424
162 587 191
163 770 259
164 702 94
165 823 162
166 570 186
167 552 317
168 626 88
169 999 631
170 860 274
171 354 662
172 654 285
173 785 82
174 650 335
175 637 568
176 449 359
177 885 77
178 552 440
179 810 205
180 628 24
181 728 294
182 733 311
183 750 327
184 727 278
185 537 137
186 718 413
187 725 355
188 723 556
189 449 346
190 731 373
191 349 465
192 572 542
193 711 417
194 678 44
195 604 593
DEMAND_SECTION
2 83
3 84
4 34
5 17
6 88
7 59
8 56
9 33
10 21
11 37
12 15
13 97
14 23
15 76
16 94
17 99
18 30
19 44
20 45
21 8
22 37
23 43
24 15
25 18
26 73
27 65
28 89
29 5
30 13
31 64
32 60
33 20
34 12
35 59
36 25
37 2
38 60
39 61
40 6
41 17
42 65
43 26
COVERAGE_SECTION
2 9 36 118 153 56 104 183 187 190 73 
3 9 136 145 87 168 164 61 194 48 127 
4 9 184 181 59 31 84 77 131 182 43 
5 9 94 70 54 37 132 63 99 128 69 
6 9 42 121 123 66 12 146 75 91 129 
7 9 109 32 130 68 24 132 98 57 157 
8 9 92 116 37 99 178 54 70 5 63 
9 9 158 60 86 26 67 52 83 64 15 
10 9 183 77 125 182 104 43 118 56 181 
11 9 189 176 49 138 40 34 113 80 88 
12 9 66 123 121 62 6 42 91 35 45 
13 9 114 33 119 161 186 193 100 105 143 
14 9 113 88 167 34 116 80 92 8 126 
15 9 64 67 86 17 107 9 60 115 158 
16 9 19 75 129 103 163 20 91 131 84 
17 9 107 115 90 106 15 170 64 139 67 
18 9 62 124 151 35 172 148 31 4 184 
19 9 103 163 131 101 16 84 59 43 91 
20 9 179 16 129 75 165 19 163 103 112 
21 9 188 149 175 32 142 100 195 13 109 
22 9 144 122 187 96 150 190 148 174 36 
23 9 79 55 194 89 180 72 145 3 30 
24 9 68 98 57 100 109 147 130 7 32 
25 7 82 140 47 191 78 160 176 
26 9 52 158 9 60 83 86 67 51 152 
27 9 195 192 137 142 95 175 141 149 157 
28 9 156 110 76 74 53 154 80 41 162 
29 9 93 153 73 105 143 65 2 36 190 
30 8 72 85 89 173 23 194 44 79 
31 9 4 181 184 182 124 59 122 148 35 
32 9 109 7 68 100 24 98 130 132 57 
33 9 161 114 193 100 186 13 98 24 68 
34 9 113 88 80 14 167 76 138 11 49 
35 9 124 84 18 184 62 4 31 59 91 
36 9 2 187 118 190 65 73 104 153 143 
37 9 70 5 94 8 54 99 178 92 63 
38 9 152 51 64 15 86 67 107 9 158 
39 7 71 50 185 46 117 154 40 
40 9 138 46 11 74 76 189 34 80 154 
41 9 53 172 110 151 156 45 155 18 62 
42 9 6 121 123 66 12 146 75 91 129 
43 9 77 101 59 10 181 131 182 4 184 
44 7 85 30 72 177 173 89 159 
45 9 133 53 123 12 110 41 66 62 121 
46 9 138 154 74 40 76 28 80 166 156 
47 7 78 82 160 140 25 178 99 
48 8 61 87 97 146 136 164 3 145 
49 9 176 189 11 34 113 78 14 88 47 
50 7 58 185 117 108 71 39 127 
51 9 152 38 64 158 9 15 86 26 60 
52 9 26 83 158 9 60 86 67 93 29 
53 9 110 156 41 28 45 162 133 166 172 
54 9 99 63 178 69 5 128 160 37 94 
55 8 79 23 180 194 89 3 145 136 
56 9 104 120 125 2 183 118 153 10 36 
57 7 147 130 24 68 132 98 70 
58 7 108 127 168 180 50 3 136 
59 9 184 4 131 181 84 43 77 101 31 
60 9 9 86 158 67 83 52 26 64 15 
61 8 48 87 136 3 164 97 145 146 
62 9 18 12 66 35 123 121 124 151 172 
63 9 69 54 99 178 128 160 5 94 37 
64 9 15 86 67 9 60 51 158 38 152 
65 9 143 73 105 190 29 36 2 93 153 
66 9 12 123 121 62 6 42 91 35 124 
67 9 86 60 9 15 64 158 83 134 26 
68 9 24 98 100 109 57 130 7 147 32 
69 9 63 128 54 99 178 5 160 94 157 
70 9 94 5 37 132 54 99 130 63 128 
71 7 117 50 39 185 58 108 127 
72 8 30 89 85 173 23 194 79 164 
73 9 143 65 105 29 93 153 190 36 2 
74 9 76 28 80 138 154 46 156 88 167 
75 9 129 16 91 6 42 19 121 84 103 
76 9 74 80 28 156 138 88 167 154 34 
77 9 182 43 10 181 183 4 59 184 101 
78 7 47 160 116 178 8 99 54 
79 9 55 23 194 180 89 3 145 136 72 
80 9 88 167 76 34 113 74 14 138 28 
81 3 92 37 8 
82 7 140 47 25 78 160 178 63 
83 9 52 60 9 158 26 86 67 120 93 
84 9 184 59 131 4 35 124 91 181 19 
85 7 30 72 173 89 44 164 194 
86 9 67 60 9 158 64 15 26 83 52 
87 8 61 136 3 48 145 164 168 97 
88 9 167 113 80 34 14 76 126 74 155 
89 9 72 194 30 23 79 145 55 164 85 
90 8 17 106 170 115 107 139 134 15 
91 9 75 84 121 35 129 16 124 131 66 
92 9 8 116 37 81 99 178 70 54 14 
93 9 29 153 73 105 143 65 2 120 36 
94 9 5 70 132 37 54 128 63 99 69 
95 9 27 137 195 192 142 175 149 140 141 
96 9 186 193 22 144 190 161 187 65 147 
97 8 146 48 61 42 6 164 87 129 
98 9 24 68 100 109 147 57 32 33 130 
99 9 54 178 63 69 160 5 128 37 94 
100 9 98 68 24 33 32 109 161 114 193 
101 9 43 103 131 163 19 59 77 184 135 
102 9 119 13 188 114 26 21 52 33 51 
103 9 19 163 101 131 16 43 59 84 184 
104 9 56 183 125 118 10 2 120 36 77 
105 9 143 65 73 29 190 93 153 36 2 
106 8 90 115 17 107 170 139 15 134 
107 9 115 17 106 90 15 64 170 67 139 
108 6 58 127 168 180 136 3 
109 9 7 32 68 130 24 98 100 132 57 
110 9 53 156 28 41 162 45 133 166 154 
111 8 191 25 82 176 189 47 49 140 
112 6 165 159 179 20 170 16 
113 9 34 88 14 167 80 76 49 116 74 
114 9 13 33 161 193 186 100 119 98 105 
115 9 107 17 106 90 15 170 64 67 139 
116 9 92 8 37 78 178 14 99 54 160 
117 7 71 50 58 108 39 180 185 
118 9 183 36 104 2 187 10 56 182 125 
119 9 13 114 102 52 26 29 105 93 73 
120 8 56 104 125 153 2 93 183 29 
121 9 66 12 123 6 42 62 91 35 75 
122 9 148 22 31 150 144 182 181 187 4 
123 9 12 66 121 6 42 62 45 91 35 
124 9 35 18 84 184 4 31 62 59 181 
125 9 104 10 56 183 120 77 43 118 182 
126 5 155 167 174 88 14 
127 8 168 108 58 136 3 87 61 48 
128 9 69 63 54 5 99 157 178 94 141 
129 9 75 16 91 42 6 20 19 121 146 
130 9 132 57 7 109 24 68 70 94 5 
131 9 59 84 101 184 103 19 43 4 163 
132 9 94 70 130 5 37 57 7 128 54 
133 9 45 162 53 110 123 12 66 166 6 
134 6 139 135 67 170 90 17 
135 6 101 125 134 139 163 43 
136 9 3 87 145 168 61 164 194 48 127 
137 9 195 175 27 149 142 192 95 21 141 
138 9 46 40 74 76 80 11 34 88 113 
139 5 134 170 90 135 17 
140 7 82 25 47 160 141 69 78 
141 9 157 128 69 192 63 5 54 94 99 
142 9 175 192 195 149 137 141 27 157 32 
143 9 65 105 73 29 190 93 36 153 2 
144 8 22 150 96 122 174 187 148 190 
145 9 3 136 164 87 194 61 48 168 89 
146 8 97 42 6 48 121 61 123 129 
147 6 57 24 68 98 130 96 
148 9 122 150 151 31 18 172 174 124 22 
149 9 175 21 195 142 137 188 32 192 27 
150 7 174 148 144 122 22 151 172 
151 9 172 18 148 62 150 41 124 35 31 
152 9 51 38 64 158 9 15 86 26 60 
153 9 93 29 2 73 120 56 36 65 143 
154 9 166 28 74 46 162 76 156 110 53 
155 6 126 41 174 172 167 151 
156 9 28 110 53 41 76 74 154 155 162 
157 9 141 128 69 5 63 94 132 54 7 
158 9 9 26 60 86 52 67 83 64 15 
159 7 165 112 179 20 173 177 129 
160 8 178 99 63 54 69 128 78 5 
161 9 193 186 33 96 100 114 98 105 147 
162 8 166 110 133 53 154 45 28 156 
163 9 103 19 101 131 16 43 59 84 135 
164 7 145 87 3 136 61 48 194 
165 7 159 112 179 20 173 16 129 
166 8 162 154 110 185 53 28 133 156 
167 9 88 80 113 14 34 126 76 155 74 
168 9 127 108 136 3 87 58 145 61 48 
169 9 102 152 51 38 119 26 188 158 9 
170 6 90 139 106 17 134 115 
171 8 95 25 140 191 27 82 111 192 
172 8 151 18 41 148 62 150 174 124 
173 7 85 72 30 159 164 89 165 
174 4 150 144 148 22 
175 9 149 142 195 137 21 192 32 27 188 
176 9 189 49 11 34 113 78 14 47 88 
177 7 44 159 173 165 112 85 30 
178 9 99 54 63 160 69 128 5 37 8 
179 7 20 165 112 16 159 129 163 
180 8 55 79 58 23 194 108 168 3 
181 9 4 59 184 77 31 182 43 84 131 
182 9 77 181 10 183 43 4 31 118 59 
183 9 104 10 118 125 56 182 77 2 36 
184 9 4 59 84 181 131 31 124 35 43 
185 7 166 50 162 154 127 108 39 
186 9 193 161 96 33 105 65 143 190 73 
187 9 36 190 118 2 22 65 183 73 104 
188 9 21 149 175 13 32 114 100 102 33 
189 9 176 49 11 34 113 138 14 40 78 
190 9 36 65 187 143 73 105 2 118 96 
191 8 111 25 82 47 140 176 189 49 
192 9 142 141 27 157 195 175 128 69 137 
193 9 161 186 33 96 105 65 143 190 114 
194 9 79 23 145 55 89 3 136 180 164 
195 9 137 175 142 27 149 192 95 21 141 
DEPOT_SECTION
   1
   -1
EOF
