NAME :  X-n266-kX-w106-c9.cctp
COMMENT : 	Adapted by Maziero, Usberti and Cavellucci from the Uchoa, Pecin, Pessoa, Poggi, Subramanian, and Vidal (2013)
TYPE :  CCTP
DIMENSION :    256
EDGE_WEIGHT_TYPE : 	EUC_2D	
CAPACITY : 	35
VERTICES_WITHIN_COVERAGE :  9
VERTICES_WITH_DEMAND : 	106
NODE_COORD_SECTION
1 143 12
2 206 907
3 895 855
4 640 970
5 865 716
6 993 356
7 618 966
8 963 539
9 50 979
10 241 998
11 32 206
12 288 926
13 299 507
14 336 180
15 589 726
16 665 488
17 36 521
18 112 895
19 814 442
20 843 474
21 17 258
22 360 273
23 814 537
24 775 524
25 825 471
26 321 87
27 773 958
28 119 166
29 368 928
30 193 250
31 452 919
32 736 322
33 386 911
34 624 313
35 694 398
36 186 803
37 948 721
38 216 973
39 915 641
40 238 810
41 946 172
42 23 561
43 613 657
44 359 434
45 604 96
46 56 554
47 862 723
48 222 161
49 974 838
50 775 67
51 815 880
52 204 362
53 435 760
54 593 358
55 203 435
56 882 803
57 194 739
58 380 323
59 836 461
60 537 136
61 789 669
62 956 1000
63 98 295
64 656 410
65 580 959
66 594 64
67 459 43
68 425 559
69 262 31
70 522 339
71 960 74
72 237 910
73 353 828
74 420 281
75 721 524
76 185 679
77 703 303
78 923 491
79 444 792
80 567 476
81 987 930
82 113 210
83 907 45
84 383 799
85 209 192
86 34 820
87 464 717
88 837 536
89 202 94
90 177 341
91 551 3
92 835 467
93 128 655
94 988 937
95 179 369
96 487 765
97 975 406
98 365 411
99 440 41
100 607 487
101 57 898
102 161 707
103 0 517
104 210 88
105 524 195
106 682 409
107 608 55
108 16 909
109 846 379
110 183 242
111 586 182
112 948 682
113 324 44
114 380 573
115 339 188
116 629 32
117 589 805
118 934 907
119 848 633
120 890 973
121 98 787
122 964 391
123 171 837
124 261 409
125 637 133
126 541 313
127 946 388
128 818 503
129 188 602
130 887 643
131 981 839
132 585 570
133 383 325
134 288 219
135 407 596
136 707 525
137 56 193
138 523 502
139 120 163
140 304 158
141 441 587
142 104 295
143 66 150
144 424 609
145 184 395
146 464 153
147 39 224
148 277 43
149 380 496
150 620 623
151 367 300
152 347 401
153 435 235
154 242 543
155 321 572
156 625 361
157 651 354
158 426 359
159 673 531
160 458 375
161 379 329
162 309 329
163 348 126
164 166 46
165 75 271
166 859 379
167 531 461
168 747 578
169 257 92
170 78 288
171 257 383
172 437 360
173 343 279
174 668 383
175 482 603
176 458 522
177 686 499
178 298 392
179 347 264
180 407 379
181 321 280
182 691 402
183 59 174
184 111 266
185 592 424
186 667 384
187 108 339
188 312 489
189 382 227
190 84 311
191 378 58
192 88 62
193 198 132
194 76 112
195 591 502
196 689 522
197 526 495
198 138 63
199 511 638
200 327 293
201 292 538
202 171 142
203 696 506
204 234 718
205 430 247
206 727 571
207 614 295
208 566 543
209 803 537
210 511 469
211 765 571
212 270 251
213 368 533
214 327 164
215 696 575
216 218 562
217 127 121
218 769 443
219 821 500
220 310 87
221 770 527
222 431 539
223 232 256
224 410 281
225 449 507
226 147 223
227 352 172
228 410 339
229 151 36
230 208 116
231 440 59
232 256 195
233 356 343
234 421 333
235 294 460
236 752 289
237 728 554
238 660 422
239 482 173
240 857 655
241 415 551
242 228 318
243 486 491
244 607 505
245 634 426
246 331 128
247 443 613
248 459 681
249 364 278
250 395 494
251 455 610
252 134 149
253 79 208
254 193 203
255 539 493
256 381 435
DEMAND_SECTION
2 5
3 5
4 5
5 5
6 6
7 10
8 10
9 10
10 9
11 9
12 5
13 9
14 5
15 6
16 7
17 6
18 10
19 6
20 5
21 10
22 6
23 10
24 7
25 6
26 9
27 5
28 5
29 8
30 7
31 9
32 6
33 10
34 8
35 9
36 7
37 9
38 5
39 9
40 8
41 10
42 8
43 10
44 10
45 8
46 6
47 7
48 9
49 8
50 8
51 9
52 10
53 5
54 10
55 5
56 6
57 5
58 7
59 10
60 8
61 9
62 9
63 7
64 10
65 10
66 9
67 7
68 9
69 10
70 7
71 6
72 7
73 9
74 10
75 9
76 7
77 10
78 9
79 9
80 6
81 7
82 8
83 6
84 10
85 6
86 5
87 5
88 8
89 8
90 8
91 5
92 9
93 8
94 10
95 5
96 10
97 9
98 5
99 6
100 6
101 7
102 10
103 10
104 6
105 10
106 10
107 5
COVERAGE_SECTION
2 9 72 38 123 12 18 10 40 36 101 
3 9 56 118 49 51 131 120 81 94 47 
4 9 7 65 27 117 31 51 15 120 96 
5 9 47 240 130 37 119 56 61 39 112 
6 9 122 97 127 166 109 78 8 59 41 
7 9 4 65 27 117 31 51 33 96 15 
8 9 78 39 88 130 97 20 112 92 219 
9 9 108 101 18 86 38 2 123 10 121 
10 9 38 12 72 2 29 18 33 123 40 
11 9 147 137 183 253 21 143 165 82 170 
12 9 72 29 2 10 38 33 73 40 123 
13 8 188 201 235 154 155 213 149 44 
14 9 115 214 227 140 246 163 134 189 232 
15 7 43 117 150 96 199 87 248 
16 9 177 203 196 159 136 100 244 238 75 
17 9 103 46 42 93 129 216 55 145 187 
18 9 101 123 2 108 9 86 121 36 72 
19 9 59 25 92 20 218 219 128 109 166 
20 9 92 59 25 219 128 19 88 23 209 
21 9 147 11 165 170 137 253 190 63 183 
22 9 249 179 173 151 200 181 189 224 58 
23 9 209 88 128 219 24 221 211 25 20 
24 9 221 209 23 128 211 219 75 237 168 
25 9 92 59 20 219 19 128 218 88 23 
26 9 220 246 113 163 148 169 191 140 214 
27 9 51 120 4 7 3 118 62 56 65 
28 9 139 252 82 217 143 202 253 183 226 
29 9 33 12 31 73 84 72 10 79 38 
30 9 110 223 254 226 85 242 212 184 232 
31 9 33 29 79 65 73 84 96 53 12 
32 9 236 77 35 157 174 182 186 106 34 
33 9 29 31 73 12 84 79 72 53 10 
34 9 207 156 157 54 77 126 174 186 64 
35 9 182 106 174 186 64 238 157 245 156 
36 9 123 40 57 121 204 102 2 18 72 
37 9 112 5 47 39 130 56 240 49 131 
38 9 10 72 2 12 18 123 29 40 9 
39 9 130 112 240 119 37 5 47 8 61 
40 9 36 123 57 204 72 2 73 12 102 
41 9 71 83 6 50 127 122 166 236 109 
42 9 46 17 103 93 129 216 76 102 55 
43 7 150 15 132 199 215 208 159 
44 9 256 98 152 149 235 250 188 180 178 
45 9 66 107 125 116 60 111 91 105 239 
46 9 42 17 103 93 129 216 76 102 154 
47 9 5 240 56 130 37 61 119 112 39 
48 9 85 193 230 232 254 202 89 104 169 
49 9 131 118 3 81 56 94 37 112 120 
50 9 83 116 125 107 45 66 71 41 111 
51 9 3 27 56 120 118 47 49 5 131 
52 9 95 90 145 242 171 55 124 178 187 
53 6 79 87 96 84 248 73 
54 9 156 34 157 185 207 126 70 186 174 
55 9 145 124 95 52 171 235 90 178 154 
56 9 3 47 5 49 51 37 131 118 112 
57 9 204 102 76 36 40 123 93 121 129 
58 9 133 161 151 233 228 234 249 224 22 
59 9 92 20 25 19 219 128 218 88 23 
60 9 105 239 111 146 45 66 125 107 67 
61 9 119 240 5 47 168 130 211 206 39 
62 9 94 120 81 118 3 49 131 51 27 
63 9 142 170 190 184 165 187 82 226 21 
64 9 238 106 245 186 174 182 35 157 156 
65 9 7 4 31 117 27 33 29 79 96 
66 9 107 45 116 91 125 60 111 67 105 
67 9 99 231 191 91 146 60 239 113 66 
68 9 241 222 141 135 114 144 176 225 247 
69 9 148 169 113 220 104 26 89 164 230 
70 9 126 54 160 172 158 234 207 34 156 
71 9 83 41 50 6 236 127 122 166 109 
72 9 2 12 38 10 123 40 36 18 29 
73 9 84 33 79 29 53 40 12 31 72 
74 9 224 205 153 234 151 249 133 58 228 
75 9 136 203 237 196 177 206 159 221 24 
76 9 102 57 93 204 129 216 36 121 40 
77 9 32 236 157 34 174 186 207 35 156 
78 9 8 20 92 59 88 25 97 219 127 
79 9 53 96 84 87 73 248 31 33 117 
80 9 255 195 167 100 197 244 138 210 185 
81 9 94 118 62 131 49 120 3 56 51 
82 9 253 226 28 139 184 137 183 252 165 
83 9 71 41 50 116 125 236 107 45 66 
84 9 73 79 53 96 33 87 29 31 248 
85 9 254 48 232 110 30 193 202 223 226 
86 9 121 101 108 18 123 36 9 102 57 
87 7 248 53 96 79 199 247 251 
88 9 23 209 128 219 20 24 25 221 92 
89 9 104 230 193 169 202 164 48 198 229 
90 9 95 52 145 242 187 142 171 63 30 
91 9 66 107 116 67 45 99 231 60 125 
92 9 59 20 25 19 219 128 88 218 23 
93 9 76 102 129 57 204 46 216 121 42 
94 9 81 118 62 131 49 120 3 56 51 
95 9 52 145 90 55 242 187 171 124 142 
96 8 79 53 87 248 15 84 117 199 
97 9 122 127 6 78 166 109 8 20 59 
98 9 152 44 256 180 233 178 158 161 228 
99 9 231 67 191 146 113 91 163 26 60 
100 9 244 195 80 16 185 245 255 208 159 
101 9 108 18 9 86 121 123 2 36 38 
102 9 76 57 93 204 36 121 129 40 123 
103 9 17 42 46 93 129 187 55 145 190 
104 9 89 230 193 169 164 202 48 198 69 
105 9 239 60 111 146 153 205 126 45 125 
106 9 182 35 64 238 186 174 245 157 156 
107 9 66 116 45 91 125 60 111 67 105 
108 9 101 9 86 18 121 123 2 36 38 
109 9 166 19 59 92 25 20 127 218 122 
110 9 30 254 226 223 85 184 82 212 232 
111 9 105 60 125 45 239 207 66 146 107 
112 9 37 39 130 5 47 240 119 56 8 
113 9 26 220 148 191 69 169 246 163 99 
114 6 135 241 213 68 144 155 
115 9 14 227 214 140 189 134 246 163 179 
116 9 107 66 45 91 125 60 50 111 67 
117 9 15 96 79 43 87 65 53 7 4 
118 9 81 94 3 120 49 131 62 56 51 
119 9 240 130 39 61 5 47 88 23 211 
120 9 62 118 94 81 3 27 51 49 131 
121 9 86 123 36 102 57 18 101 93 76 
122 9 127 97 6 166 78 109 59 20 8 
123 9 36 40 2 18 121 72 57 101 102 
124 9 171 178 235 55 52 145 152 95 162 
125 9 45 111 66 107 60 116 105 50 91 
126 9 70 54 207 34 156 160 172 157 105 
127 9 122 97 6 166 109 78 59 20 92 
128 9 219 25 23 209 20 88 92 59 24 
129 7 216 76 93 154 102 201 204 
130 9 39 240 119 112 5 47 37 61 88 
131 9 49 118 3 81 94 56 37 112 120 
132 8 208 150 195 244 100 255 43 138 
133 9 58 161 151 228 233 234 249 224 158 
134 9 212 232 115 14 140 214 223 181 179 
135 7 144 114 141 247 68 241 251 
136 9 75 196 203 177 159 237 206 215 16 
137 9 183 11 253 147 143 82 28 139 21 
138 9 197 255 210 243 167 80 208 176 195 
139 9 28 252 217 82 202 143 253 183 226 
140 9 214 14 246 115 227 163 232 134 220 
141 8 247 251 144 68 135 175 241 222 
142 9 63 190 170 184 165 187 226 82 90 
143 9 183 194 137 28 139 253 11 217 252 
144 7 247 135 141 251 68 114 175 
145 9 95 52 55 90 171 124 242 187 178 
146 9 239 105 60 153 231 205 67 189 227 
147 9 11 137 21 253 183 165 82 170 143 
148 9 69 113 169 220 26 104 89 230 246 
149 9 250 213 256 44 241 222 188 225 68 
150 8 43 132 215 208 159 15 199 206 
151 9 249 58 22 133 161 173 179 200 233 
152 9 98 44 256 178 233 180 161 235 162 
153 9 205 74 224 189 239 249 22 146 179 
154 7 216 201 13 129 155 188 235 
155 4 201 114 213 13 
156 9 157 54 34 174 186 64 245 207 238 
157 9 156 174 186 34 64 54 35 182 106 
158 9 172 228 234 180 160 133 161 58 233 
159 9 196 203 136 177 16 75 215 237 206 
160 9 172 158 180 234 228 70 133 161 58 
161 9 58 133 233 151 228 234 249 158 180 
162 9 200 233 181 173 178 151 161 58 133 
163 9 246 214 227 26 140 220 14 115 191 
164 9 229 198 89 104 192 230 217 193 202 
165 9 170 63 184 142 190 21 147 253 82 
166 9 109 19 59 127 92 20 25 122 218 
167 9 210 255 197 80 138 243 185 195 100 
168 9 211 206 237 215 221 75 24 136 209 
169 9 104 148 220 89 230 69 26 193 48 
170 9 165 63 190 142 184 187 21 147 253 
171 9 124 178 52 242 145 55 162 95 235 
172 9 158 160 234 228 180 133 161 58 74 
173 9 179 22 200 249 181 151 58 162 133 
174 9 186 35 64 106 182 157 238 156 245 
175 6 251 247 141 199 144 68 
176 9 225 222 243 68 241 141 138 250 197 
177 9 203 196 16 136 159 75 237 215 244 
178 9 124 171 152 162 235 98 44 233 256 
179 9 22 173 249 181 200 151 189 224 58 
180 9 158 172 228 234 160 98 161 133 58 
181 9 200 173 179 22 249 151 162 212 134 
182 9 35 106 174 186 64 238 157 245 156 
183 9 137 143 253 11 147 28 139 194 82 
184 9 142 63 165 170 190 82 226 253 187 
185 9 245 80 100 54 64 238 156 167 195 
186 9 174 64 106 35 182 157 238 156 245 
187 9 190 142 63 170 90 184 165 95 145 
188 9 13 235 201 149 213 44 155 250 154 
189 9 22 179 205 153 249 115 224 227 173 
190 9 63 170 142 187 165 184 21 90 147 
191 9 113 231 26 99 163 220 67 246 148 
192 9 198 194 229 217 164 143 252 139 28 
193 9 230 202 48 89 104 85 252 169 254 
194 9 143 192 217 183 139 28 252 198 137 
195 9 244 100 80 208 255 197 132 138 167 
196 9 203 136 159 177 75 16 237 215 206 
197 9 138 255 210 167 243 80 208 195 176 
198 9 229 164 192 217 89 104 194 202 252 
199 6 175 251 248 247 141 87 
200 9 181 173 179 22 162 249 151 233 58 
201 7 13 155 154 188 213 216 235 
202 9 193 252 230 217 48 139 28 89 85 
203 9 177 196 136 75 159 16 237 215 206 
204 7 57 76 102 40 36 93 129 
205 9 153 74 224 189 249 22 151 179 234 
206 9 237 168 215 211 75 136 196 221 24 
207 9 34 54 156 157 126 77 70 174 186 
208 9 132 195 244 255 138 197 80 100 167 
209 9 23 24 88 221 128 219 211 168 25 
210 9 167 197 243 138 255 80 225 176 195 
211 9 168 206 237 221 24 209 23 75 215 
212 9 134 223 232 181 200 30 173 179 242 
213 7 149 114 250 241 155 68 222 
214 9 14 140 227 115 246 163 134 26 232 
215 9 206 237 159 136 168 196 75 203 211 
216 7 154 129 201 13 155 188 76 
217 9 252 139 28 202 194 198 143 192 193 
218 9 19 25 59 92 128 219 20 24 221 
219 9 128 25 20 92 23 88 209 59 24 
220 9 26 113 246 169 163 148 140 69 191 
221 9 24 209 211 23 75 237 128 168 219 
222 9 241 68 176 225 141 250 114 135 213 
223 9 212 30 110 242 232 254 134 85 226 
224 9 74 205 249 151 22 58 133 153 234 
225 9 176 222 243 241 250 68 149 210 138 
226 9 82 110 254 30 184 28 139 85 253 
227 9 14 115 214 163 246 140 189 134 26 
228 9 234 158 133 161 58 172 180 233 151 
229 9 164 198 192 89 104 217 230 193 194 
230 9 193 89 104 202 48 169 85 217 252 
231 9 99 67 191 146 163 113 239 26 60 
232 9 134 85 48 212 140 254 223 214 14 
233 9 161 58 133 151 162 228 200 152 180 
234 9 228 158 172 133 58 161 180 74 224 
235 9 188 13 124 178 44 201 152 171 98 
236 9 32 77 157 35 174 186 182 34 109 
237 9 206 75 168 136 215 211 196 221 24 
238 9 64 106 245 182 186 174 35 16 185 
239 9 146 105 60 153 205 111 189 231 74 
240 9 119 130 39 5 47 61 112 37 88 
241 9 68 222 114 141 135 213 176 225 144 
242 9 52 90 223 95 171 30 212 162 110 
243 9 210 138 197 225 176 255 167 222 80 
244 9 195 100 80 208 16 132 255 159 177 
245 9 238 64 185 106 186 174 182 35 156 
246 9 163 214 140 26 220 227 14 115 169 
247 6 251 144 141 135 175 68 
248 7 87 199 247 251 144 175 53 
249 9 22 173 151 179 200 181 224 58 133 
250 9 149 213 225 222 241 256 176 44 68 
251 6 247 141 175 144 135 68 
252 9 139 28 217 202 82 193 143 194 226 
253 9 137 82 183 147 11 28 143 139 165 
254 9 85 110 30 226 48 232 202 223 193 
255 9 197 138 80 167 210 195 243 208 100 
256 9 44 98 152 149 250 180 158 188 235 
DEPOT_SECTION
   1
   -1
EOF
