NAME :  X-n256-kX-w51-c11.cctp
COMMENT : 	Adapted by Maziero, Usberti and Cavellucci from the Uchoa, Pecin, Pessoa, Poggi, Subramanian, and Vidal (2013)
TYPE :  CCTP
DIMENSION :    228
EDGE_WEIGHT_TYPE : 	EUC_2D	
CAPACITY : 	1225
VERTICES_WITHIN_COVERAGE :  11
VERTICES_WITH_DEMAND : 	51
NODE_COORD_SECTION
1 500 500
2 878 606
3 35 593
4 320 125
5 189 244
6 274 784
7 900 310
8 742 640
9 800 448
10 66 599
11 829 588
12 660 698
13 290 673
14 669 619
15 252 742
16 425 160
17 291 114
18 289 90
19 813 663
20 847 528
21 589 738
22 756 687
23 777 547
24 810 554
25 823 501
26 5 179
27 357 774
28 39 419
29 277 59
30 76 127
31 229 65
32 868 256
33 388 914
34 303 352
35 713 640
36 692 668
37 332 773
38 404 833
39 782 719
40 230 680
41 711 559
42 383 851
43 366 42
44 80 322
45 22 338
46 447 107
47 357 24
48 120 255
49 155 252
50 793 605
51 248 236
52 273 163
53 741 596
54 324 753
55 195 632
56 728 460
57 296 66
58 885 203
59 330 780
60 204 177
61 659 553
62 426 102
63 309 755
64 215 242
65 24 547
66 373 110
67 862 596
68 83 155
69 816 433
70 917 345
71 62 661
72 874 602
73 247 231
74 248 946
75 908 590
76 812 701
77 270 347
78 714 567
79 796 520
80 367 947
81 88 235
82 30 230
83 189 199
84 774 664
85 732 579
86 146 730
87 188 748
88 954 296
89 279 160
90 853 195
91 730 640
92 56 562
93 136 499
94 819 427
95 873 663
96 308 101
97 256 669
98 272 320
99 280 122
100 800 663
101 193 65
102 334 987
103 583 843
104 940 363
105 523 797
106 753 415
107 786 576
108 60 623
109 512 166
110 928 312
111 823 802
112 249 288
113 266 776
114 166 204
115 793 691
116 906 599
117 217 20
118 124 271
119 880 572
120 708 428
121 53 561
122 386 713
123 764 423
124 98 577
125 77 608
126 875 607
127 266 847
128 861 673
129 657 665
130 784 424
131 882 574
132 349 113
133 519 674
134 568 693
135 412 715
136 681 739
137 710 603
138 132 317
139 243 887
140 328 130
141 682 184
142 907 505
143 25 513
144 364 107
145 809 640
146 950 586
147 873 414
148 97 278
149 775 601
150 194 309
151 266 276
152 246 850
153 268 168
154 181 782
155 700 492
156 695 698
157 708 454
158 213 701
159 147 72
160 213 214
161 931 586
162 175 243
163 466 38
164 697 594
165 307 170
166 76 554
167 797 286
168 84 346
169 794 695
170 24 575
171 184 367
172 231 285
173 775 559
174 897 309
175 415 180
176 201 293
177 39 267
178 366 205
179 265 765
180 17 290
181 729 846
182 707 632
183 825 342
184 274 809
185 901 604
186 685 725
187 860 244
188 37 367
189 209 189
190 319 167
191 234 177
192 221 697
193 379 190
194 629 657
195 740 486
196 94 552
197 272 173
198 884 628
199 967 297
200 913 279
201 196 313
202 276 84
203 692 632
204 284 743
205 253 739
206 874 303
207 695 657
208 124 313
209 705 456
210 248 819
211 781 843
212 866 544
213 364 870
214 884 375
215 686 590
216 482 177
217 912 176
218 287 794
219 764 592
220 944 112
221 351 260
222 254 616
223 790 281
224 352 320
225 827 593
226 920 321
227 98 555
228 18 534
DEMAND_SECTION
2 83
3 68
4 78
5 76
6 79
7 76
8 78
9 61
10 78
11 79
12 86
13 53
14 66
15 81
16 87
17 88
18 66
19 84
20 86
21 89
22 84
23 84
24 88
25 83
26 66
27 53
28 88
29 74
30 81
31 61
32 76
33 83
34 92
35 76
36 54
37 99
38 64
39 67
40 62
41 87
42 72
43 80
44 72
45 74
46 72
47 62
48 92
49 77
50 87
51 62
52 81
COVERAGE_SECTION
2 11 126 72 67 185 198 116 131 75 119 11 225 
3 10 170 10 92 121 108 125 65 166 228 124 
4 11 140 96 17 132 99 190 18 165 144 89 66 
5 11 162 64 49 160 83 114 176 73 172 189 51 
6 11 113 218 179 184 204 210 63 15 205 59 37 
7 11 174 226 206 110 200 70 88 32 104 214 199 
8 11 91 35 182 84 53 22 137 207 149 203 219 
9 10 69 94 130 123 106 25 195 79 56 147 
10 11 125 108 3 92 124 121 166 170 227 196 71 
11 11 225 67 24 50 107 72 126 2 119 131 145 
12 11 129 156 186 36 136 194 207 203 35 14 21 
13 11 97 40 222 204 192 205 15 158 63 54 179 
14 11 203 215 164 182 137 207 129 35 36 194 91 
15 11 205 179 204 113 6 192 158 63 218 87 40 
16 11 175 193 46 62 216 66 178 144 109 132 140 
17 11 99 96 18 4 202 140 57 89 52 29 132 
18 11 202 96 17 57 29 99 4 140 132 31 89 
19 11 100 145 115 169 76 84 128 95 50 22 39 
20 11 212 25 24 79 119 131 11 142 225 67 23 
21 11 134 12 105 194 136 133 186 129 103 156 36 
22 11 84 115 169 39 8 100 91 76 19 156 35 
23 11 173 107 79 24 219 149 85 50 53 25 11 
24 11 107 23 173 79 11 225 20 50 25 212 149 
25 11 79 20 24 9 212 23 69 94 173 107 142 
26 11 82 68 30 177 81 180 148 48 118 45 44 
27 11 37 59 54 63 122 218 38 204 42 135 6 
28 8 188 45 168 143 44 228 93 65 
29 11 57 202 18 31 96 17 99 117 4 101 47 
30 11 68 26 159 81 82 114 101 83 48 60 177 
31 11 101 117 29 202 18 57 99 17 159 96 52 
32 11 187 206 200 58 174 7 90 167 110 223 226 
33 11 80 213 42 38 102 127 27 74 59 139 37 
34 11 77 98 224 112 151 172 221 201 150 176 171 
35 11 182 91 203 207 8 36 137 14 164 53 215 
36 11 207 156 35 129 203 182 12 91 14 8 186 
37 11 59 54 27 63 218 204 6 113 179 184 122 
38 11 42 213 27 33 59 37 54 135 80 122 63 
39 11 169 115 76 22 84 100 19 145 8 156 128 
40 11 192 158 97 55 13 205 15 222 87 204 179 
41 11 78 85 164 215 137 53 61 219 173 23 155 
42 11 213 38 33 27 59 37 80 218 54 127 184 
43 11 47 144 66 132 57 96 62 18 29 4 140 
44 11 168 208 148 138 45 188 118 177 180 48 81 
45 11 188 180 44 168 177 28 148 208 82 138 81 
46 11 62 16 163 66 216 175 144 109 132 43 193 
47 11 43 57 144 29 66 132 96 18 202 62 4 
48 11 118 148 49 81 162 208 138 114 5 44 177 
49 11 162 5 48 118 114 64 176 83 148 208 81 
50 11 149 107 219 225 145 11 173 53 24 100 23 
51 11 73 64 160 151 112 172 5 189 191 197 83 
52 11 89 153 197 165 191 99 190 17 4 140 189 
53 11 85 219 137 149 78 8 164 91 41 107 173 
54 11 63 37 59 27 204 218 6 179 113 205 15 
55 11 40 222 192 97 158 13 86 124 87 125 205 
56 11 157 209 195 120 155 106 123 130 9 79 69 
57 11 29 18 202 96 17 99 4 31 132 140 43 
58 11 90 217 187 32 200 206 174 7 220 88 110 
59 11 37 27 54 63 218 6 204 184 113 179 15 
60 11 189 83 191 160 114 153 64 197 5 73 52 
61 11 215 41 164 78 14 137 155 85 203 182 53 
62 11 46 66 16 144 163 132 175 43 216 193 140 
63 11 54 204 37 59 6 179 218 113 27 15 205 
64 11 5 160 51 73 162 172 83 176 189 112 49 
65 8 228 170 121 143 92 3 166 10 
66 11 144 132 140 62 4 96 43 16 46 190 193 
67 11 72 126 2 119 131 11 225 198 185 116 75 
68 11 30 81 26 82 114 159 48 83 177 49 60 
69 7 94 9 130 123 147 106 25 
70 10 226 104 110 7 174 214 206 88 200 199 
71 11 108 125 10 3 124 170 92 121 166 86 227 
72 11 126 2 67 185 198 131 119 116 75 11 225 
73 11 51 64 160 151 172 191 112 189 5 197 83 
74 10 139 102 152 127 80 210 184 213 33 218 
75 11 116 185 161 131 119 2 72 126 146 198 67 
76 11 169 115 39 19 100 84 128 22 145 95 8 
77 11 98 34 112 151 172 201 150 224 171 176 51 
78 11 41 85 164 137 215 53 219 61 173 182 23 
79 11 23 25 24 173 20 107 195 9 212 11 219 
80 11 33 102 213 42 74 38 139 127 152 184 59 
81 11 48 148 118 82 177 49 68 114 208 44 162 
82 11 177 26 81 180 148 68 48 118 44 45 30 
83 11 189 114 60 160 5 162 64 191 49 73 51 
84 11 100 22 115 169 19 8 145 91 76 39 50 
85 11 53 78 41 137 219 164 173 215 149 107 23 
86 10 87 154 158 192 40 15 205 71 55 179 
87 11 154 86 158 192 15 205 179 40 113 6 210 
88 10 199 110 226 200 7 174 70 104 206 32 
89 11 52 153 197 165 99 190 17 191 4 140 96 
90 11 58 187 217 32 200 167 223 206 174 220 7 
91 11 8 35 182 203 207 137 53 36 84 22 164 
92 8 121 166 65 170 3 10 196 227 
93 8 196 227 166 124 92 121 143 10 
94 7 69 9 130 123 147 106 25 
95 10 128 198 126 2 19 72 185 67 145 76 
96 11 17 18 4 99 140 202 57 132 29 144 66 
97 11 40 13 192 222 158 205 55 15 204 179 63 
98 11 77 112 151 34 172 176 201 150 224 51 73 
99 11 17 18 96 89 202 4 52 153 140 197 165 
100 11 19 145 84 115 169 76 22 50 39 8 128 
101 11 31 159 117 29 202 18 57 99 17 60 191 
102 11 80 33 74 213 139 42 127 152 38 184 210 
103 11 105 21 136 181 134 186 12 38 133 156 194 
104 8 70 226 110 214 7 88 174 199 
105 11 103 21 134 133 38 135 42 122 27 136 12 
106 10 123 130 120 56 9 157 209 69 94 195 
107 11 173 149 219 23 50 24 225 11 53 85 79 
108 11 125 10 71 3 124 170 92 121 166 227 196 
109 10 216 16 46 175 62 193 163 66 178 144 
110 11 226 7 88 174 70 200 199 104 206 214 32 
111 11 211 39 76 181 169 115 22 128 19 100 84 
112 11 172 151 98 176 51 64 73 150 201 77 5 
113 11 6 179 218 184 15 204 205 210 63 54 59 
114 11 83 162 5 189 60 160 49 64 48 191 118 
115 11 169 76 100 39 84 19 22 145 128 8 91 
116 11 185 75 161 2 72 126 131 198 119 67 146 
117 11 31 101 29 159 202 57 18 17 99 96 47 
118 11 48 148 49 208 138 81 162 44 5 114 150 
119 11 131 67 72 212 75 2 126 116 185 11 161 
120 9 157 209 56 106 123 155 195 130 9 
121 8 92 166 65 170 3 10 196 228 
122 11 135 27 54 37 59 63 13 204 38 218 179 
123 10 106 130 9 56 69 94 120 157 195 209 
124 9 227 196 166 125 10 92 121 108 3 
125 11 10 108 124 3 92 121 166 71 227 196 170 
126 11 2 72 67 198 185 116 131 119 75 11 225 
127 11 152 210 184 139 218 6 113 179 59 37 74 
128 11 95 19 198 76 100 145 126 2 115 169 72 
129 11 194 12 36 207 14 203 156 182 35 186 91 
130 8 123 9 106 69 94 56 120 195 
131 11 119 72 67 75 2 126 212 116 185 161 198 
132 11 144 66 140 4 96 17 190 18 99 57 165 
133 11 134 21 194 135 105 129 122 12 14 36 186 
134 11 21 133 194 12 129 105 186 136 14 36 156 
135 11 122 27 54 37 59 63 133 38 13 204 105 
136 11 186 156 12 36 129 207 22 21 194 39 35 
137 11 164 215 182 53 85 203 78 35 91 14 41 
138 11 208 118 44 148 168 48 150 201 49 171 176 
139 11 152 127 74 210 184 218 6 113 154 213 179 
140 11 4 132 96 190 17 144 165 66 99 18 89 
141 7 223 167 90 109 187 32 216 
142 7 212 20 119 131 25 161 75 
143 8 228 65 121 92 170 166 196 3 
144 11 66 132 140 4 96 62 43 17 190 18 57 
145 11 19 100 50 84 225 149 115 11 169 76 128 
146 7 161 75 116 185 131 119 2 
147 6 214 94 69 9 70 104 
148 11 118 48 81 208 44 138 177 49 168 180 82 
149 11 219 50 107 53 173 85 8 145 225 23 11 
150 11 201 176 172 112 171 138 5 49 162 64 208 
151 11 112 172 51 98 73 64 176 77 150 201 160 
152 11 127 210 139 184 218 6 113 179 154 74 15 
153 11 197 52 89 191 165 99 190 17 189 60 73 
154 10 87 86 210 15 205 113 179 158 6 152 
155 11 209 157 195 56 120 41 61 78 85 106 123 
156 11 186 36 12 207 136 129 35 22 203 182 91 
157 10 209 56 120 155 195 106 123 130 9 41 
158 11 192 40 87 97 205 15 55 86 13 179 204 
159 11 101 31 117 30 68 60 202 29 189 114 83 
160 11 189 64 83 5 60 73 51 191 114 162 49 
161 8 146 75 116 185 131 119 2 72 
162 11 5 49 64 114 83 160 48 176 118 189 150 
163 11 46 62 43 47 66 144 16 109 132 216 175 
164 11 215 137 78 14 41 85 203 182 53 35 61 
165 11 190 89 52 197 153 140 4 99 17 96 178 
166 8 196 92 227 121 124 10 65 125 
167 7 223 183 187 32 206 174 7 
168 11 44 188 208 138 45 148 118 28 180 177 48 
169 11 115 76 39 100 19 84 22 145 128 8 91 
170 9 3 65 121 92 228 10 166 108 125 
171 11 201 150 138 176 208 77 172 98 112 168 44 
172 11 112 176 151 150 201 64 51 98 73 5 162 
173 11 23 107 24 219 149 79 85 50 53 11 78 
174 11 7 206 226 110 200 70 88 32 214 104 199 
175 11 16 193 178 216 62 46 66 144 132 190 109 
176 11 150 201 172 112 5 64 162 49 151 138 51 
177 11 180 82 81 148 44 45 48 118 168 26 208 
178 11 193 175 221 190 165 16 140 4 132 66 89 
179 11 113 6 15 204 205 218 63 184 210 54 37 
180 11 177 45 82 44 188 148 168 81 48 118 208 
181 11 211 111 136 186 39 103 156 22 12 169 76 
182 11 35 203 91 207 137 8 36 164 14 215 53 
183 6 167 206 214 223 174 7 
184 11 218 6 210 113 127 179 152 59 63 204 37 
185 11 116 75 2 126 72 198 161 131 119 67 146 
186 11 136 156 12 36 129 207 22 194 35 203 91 
187 11 32 58 90 206 200 174 167 7 223 217 110 
188 11 45 168 28 44 180 177 208 138 148 118 82 
189 11 60 83 160 191 114 64 73 5 51 153 162 
190 11 165 140 89 4 52 197 153 17 99 178 132 
191 11 189 60 153 197 52 160 89 83 73 51 64 
192 11 158 40 97 205 15 87 55 13 204 179 86 
193 11 178 175 16 190 165 221 140 66 132 144 4 
194 11 129 12 14 36 207 203 134 156 182 35 186 
195 11 56 155 157 209 79 120 123 9 23 106 130 
196 8 227 166 124 92 121 10 125 93 
197 11 153 52 89 165 191 190 99 17 73 189 51 
198 11 2 126 72 185 116 95 67 75 128 131 119 
199 9 88 110 226 200 7 70 104 174 206 
200 11 7 174 110 226 88 206 32 199 187 70 58 
201 11 150 176 172 171 112 138 5 208 49 64 162 
202 11 18 29 57 17 96 99 31 4 140 89 52 
203 11 182 35 207 14 137 36 164 91 215 129 8 
204 11 63 179 205 15 113 54 6 218 37 59 184 
205 11 15 179 204 113 6 192 158 63 40 218 87 
206 9 174 7 200 32 226 110 70 187 183 
207 11 36 35 203 182 91 129 156 14 8 12 137 
208 11 138 118 148 44 168 48 49 150 201 176 171 
209 10 157 56 120 155 195 106 123 130 9 41 
210 11 184 152 127 6 218 113 179 139 15 154 205 
211 11 181 111 39 136 76 169 115 186 22 156 84 
212 11 20 119 131 67 11 24 142 72 25 75 2 
213 11 42 33 38 80 27 59 127 37 218 184 152 
214 7 147 70 104 226 7 174 183 
215 11 164 137 14 78 41 203 61 85 182 53 35 
216 11 109 16 175 46 62 193 178 66 144 163 132 
217 11 58 90 220 187 32 200 88 199 206 174 7 
218 11 6 184 113 179 59 63 210 37 204 54 127 
219 11 149 53 107 50 85 173 23 8 137 78 91 
220 11 217 58 90 187 32 200 88 199 110 7 174 
221 11 178 224 193 151 190 98 165 175 34 51 112 
222 11 97 55 13 40 192 158 205 15 204 87 63 
223 7 167 183 187 32 206 90 174 
224 11 34 221 98 77 151 112 178 172 193 51 73 
225 11 11 67 50 24 107 72 126 145 2 149 119 
226 10 110 7 70 174 88 200 104 206 199 214 
227 8 196 124 166 92 121 10 125 93 
228 8 65 143 170 121 92 3 166 196 
DEPOT_SECTION
   1
   -1
EOF
