NAME :  X-n200-kX-w19-c11.cctp
COMMENT : 	Adapted by Maziero, Usberti and Cavellucci from the Uchoa, Pecin, Pessoa, Poggi, Subramanian, and Vidal (2013)
TYPE :  CCTP
DIMENSION :    151
EDGE_WEIGHT_TYPE : 	EUC_2D	
CAPACITY : 	402
VERTICES_WITHIN_COVERAGE :  11
VERTICES_WITH_DEMAND : 	19
NODE_COORD_SECTION
1 957 135
2 149 141
3 1 96
4 228 268
5 781 529
6 867 797
7 109 53
8 13 449
9 133 293
10 259 172
11 908 678
12 930 867
13 903 766
14 143 263
15 735 501
16 259 253
17 59 62
18 737 464
19 925 587
20 16 404
21 893 720
22 131 188
23 226 228
24 285 68
25 113 323
26 797 381
27 804 573
28 892 838
29 307 141
30 40 347
31 933 708
32 906 725
33 242 231
34 310 255
35 183 308
36 122 254
37 1 437
38 83 548
39 872 427
40 118 317
41 180 118
42 875 774
43 792 774
44 890 821
45 184 6
46 189 299
47 230 234
48 61 728
49 756 455
50 121 248
51 747 756
52 890 825
53 275 63
54 96 15
55 709 611
56 893 822
57 121 170
58 770 580
59 122 320
60 101 98
61 824 813
62 256 265
63 726 553
64 864 742
65 149 74
66 872 329
67 847 817
68 864 575
69 976 818
70 193 126
71 79 88
72 907 842
73 808 590
74 146 120
75 66 480
76 824 634
77 9 421
78 152 157
79 318 223
80 853 307
81 184 277
82 183 236
83 80 110
84 20 67
85 165 63
86 62 410
87 176 261
88 223 301
89 830 608
90 7 164
91 188 108
92 770 537
93 168 99
94 641 321
95 174 165
96 886 816
97 214 261
98 104 44
99 393 114
100 894 577
101 93 509
102 127 150
103 873 468
104 60 105
105 133 232
106 147 252
107 778 547
108 46 419
109 83 80
110 43 466
111 337 216
112 9 55
113 127 123
114 771 491
115 181 188
116 727 549
117 26 332
118 798 525
119 714 613
120 875 568
121 241 285
122 45 86
123 446 310
124 163 168
125 322 272
126 958 864
127 754 814
128 136 184
129 111 119
130 120 300
131 686 372
132 32 68
133 113 76
134 157 167
135 84 263
136 330 253
137 903 822
138 900 858
139 15 37
140 79 523
141 130 274
142 870 860
143 791 305
144 13 535
145 800 823
146 224 244
147 580 504
148 3 172
149 62 499
150 163 305
151 135 270
DEMAND_SECTION
2 83
3 52
4 73
5 70
6 86
7 51
8 74
9 84
10 52
11 93
12 91
13 89
14 64
15 75
16 64
17 61
18 2
19 86
20 95
COVERAGE_SECTION
2 11 78 74 102 134 113 124 95 41 57 129 128 
3 10 84 112 132 122 104 139 17 90 148 71 
4 11 97 121 146 62 88 16 47 23 33 81 46 
5 11 92 118 107 114 27 58 15 116 63 73 18 
6 11 42 96 67 44 52 56 137 61 13 28 64 
7 11 98 133 109 54 65 60 71 17 85 83 129 
8 9 37 77 110 20 108 75 86 149 144 
9 11 130 141 151 40 59 14 150 25 36 106 50 
10 11 29 33 23 47 79 70 115 146 16 95 111 
11 11 31 21 32 64 13 19 76 42 100 89 68 
12 11 126 138 72 28 137 52 56 142 44 69 96 
13 11 42 32 64 21 6 96 137 44 56 52 31 
14 11 151 106 141 36 50 9 87 105 81 130 150 
15 11 18 114 116 92 49 63 5 107 118 58 27 
16 11 62 33 4 47 146 121 23 97 34 88 79 
17 11 122 132 109 71 84 104 98 112 7 139 83 
18 11 49 15 114 5 92 116 118 63 107 26 131 
19 11 100 120 68 11 89 76 73 31 27 103 21 
20 8 77 108 37 8 86 30 110 117 
21 11 32 64 31 11 13 42 6 96 44 56 137 
22 9 128 57 134 78 102 124 105 95 2 
23 11 47 33 146 97 4 16 82 62 121 87 115 
24 6 53 29 91 10 70 41 
25 7 40 59 130 9 141 150 151 
26 11 143 49 39 66 80 18 131 114 103 15 118 
27 11 73 58 107 89 118 5 92 68 76 120 63 
28 11 52 56 72 44 137 138 96 142 6 12 67 
29 9 10 24 111 79 53 99 33 34 136 
30 4 117 20 86 108 
31 11 32 11 21 13 64 42 6 69 96 137 19 
32 11 21 31 13 64 11 42 6 96 44 137 56 
33 11 47 23 146 16 62 4 97 121 82 10 34 
34 11 136 125 79 111 16 62 33 121 4 47 146 
35 10 46 150 81 88 87 9 97 4 14 151 
36 10 50 151 141 14 105 106 135 9 130 87 
37 9 8 77 20 108 110 86 75 149 30 
38 8 140 101 149 75 144 110 8 108 
39 11 103 26 66 49 114 80 118 5 18 120 143 
40 9 59 25 130 9 141 150 151 14 36 
41 11 91 70 93 74 2 95 78 113 124 65 134 
42 11 6 13 64 96 44 56 67 52 137 21 32 
43 10 51 61 145 127 67 6 64 42 96 44 
44 11 56 52 96 137 28 72 6 138 67 142 42 
45 7 85 65 54 7 98 93 133 
46 10 35 81 150 88 87 97 4 121 9 14 
47 11 23 33 146 97 4 16 62 82 121 87 81 
48 9 38 144 140 101 149 75 110 8 37 
49 11 18 114 15 5 118 92 26 107 116 63 131 
50 10 36 105 106 151 14 141 135 9 130 87 
51 8 43 127 145 61 67 64 6 42 
52 11 44 56 96 28 137 72 138 6 142 67 42 
53 6 24 29 91 70 45 10 
54 11 98 7 17 133 109 71 65 60 132 85 139 
55 9 119 63 116 58 107 92 73 27 5 
56 11 44 52 96 137 28 72 6 138 142 67 42 
57 9 22 102 128 78 134 2 124 113 129 
58 11 107 27 73 92 5 63 116 118 119 89 55 
59 9 40 25 130 9 150 141 151 14 35 
60 10 129 71 83 109 133 113 104 7 74 65 
61 11 67 145 6 43 96 42 44 142 52 56 127 
62 10 16 121 4 33 146 47 97 23 88 34 
63 10 116 92 58 107 15 5 55 119 114 118 
64 11 42 21 32 13 6 31 67 96 11 43 61 
65 11 85 93 133 7 74 91 41 60 98 113 129 
66 11 80 143 26 39 103 49 18 114 131 118 5 
67 11 61 6 96 44 52 56 145 142 28 42 137 
68 11 120 100 89 73 27 19 76 118 107 58 5 
69 11 126 12 72 137 56 28 44 52 138 13 96 
70 10 41 91 93 95 2 74 78 124 134 115 
71 10 109 83 60 104 17 122 133 129 7 98 
72 11 28 138 137 52 56 44 96 12 142 126 6 
73 11 27 89 58 76 107 68 92 118 5 120 100 
74 11 113 2 93 41 129 102 78 91 65 70 134 
75 9 149 110 101 140 8 108 38 86 144 
76 10 89 73 27 68 58 120 100 11 107 21 
77 8 20 37 8 108 86 110 30 75 
78 11 134 2 124 95 102 128 57 22 74 113 115 
79 11 111 136 34 125 16 62 33 10 29 47 23 
80 11 66 143 26 39 103 49 131 18 114 94 118 
81 11 87 46 35 97 150 82 14 4 106 88 151 
82 11 87 106 97 81 146 23 47 14 115 105 4 
83 9 104 71 60 109 129 122 133 113 17 
84 10 132 112 139 122 3 17 104 71 109 83 
85 8 65 93 91 133 7 41 45 74 
86 5 108 20 77 110 8 
87 11 81 82 106 14 97 46 151 150 35 141 146 
88 8 121 4 46 35 97 81 62 146 
89 11 76 73 27 68 120 58 100 107 118 5 92 
90 3 148 3 104 
91 9 41 70 93 74 2 85 65 95 78 
92 11 107 5 118 58 116 114 63 15 27 73 18 
93 11 41 91 74 65 85 70 2 113 78 129 133 
94 11 131 143 26 18 49 147 123 15 80 114 66 
95 11 124 134 78 115 2 128 70 41 22 102 57 
96 11 44 56 52 137 28 6 72 67 42 138 142 
97 11 4 146 47 81 23 121 87 82 33 88 62 
98 11 7 54 133 109 17 71 60 65 85 83 122 
99 9 29 111 24 53 79 10 136 34 125 
100 11 120 68 19 89 73 27 76 11 118 103 107 
101 8 140 149 38 75 110 144 8 108 
102 10 57 2 78 113 134 128 129 74 22 124 
103 11 39 118 120 114 68 5 100 26 49 92 107 
104 9 83 122 71 109 60 17 132 129 84 
105 10 50 106 36 14 151 141 22 128 82 87 
106 11 14 151 105 36 50 141 87 82 9 81 130 
107 11 92 5 118 58 27 116 63 73 114 15 89 
108 6 86 20 77 8 110 37 
109 11 71 60 17 83 133 104 7 122 98 129 132 
110 10 75 8 149 108 37 77 86 101 140 20 
111 11 79 136 34 125 29 16 10 62 33 47 23 
112 10 84 139 132 3 122 17 104 71 109 83 
113 11 129 74 102 2 60 78 57 93 83 133 41 
114 11 15 5 49 18 118 92 107 116 63 27 58 
115 11 95 124 134 78 128 82 22 2 23 57 70 
116 11 63 92 15 107 58 5 55 119 114 118 27 
117 4 30 20 86 25 
118 11 5 92 107 114 27 58 73 15 116 63 49 
119 9 55 63 58 116 107 92 73 27 5 
120 11 68 100 19 89 27 73 76 118 107 103 5 
121 9 4 88 62 97 16 146 47 33 46 
122 10 132 104 17 84 71 109 83 3 112 60 
123 8 136 125 111 34 79 16 62 94 
124 11 134 95 78 115 2 128 22 102 57 74 70 
125 10 34 136 79 111 16 62 121 33 4 47 
126 11 12 69 72 138 137 28 56 52 44 96 142 
127 10 145 43 51 61 67 6 142 42 64 96 
128 10 22 57 134 78 124 102 95 2 115 105 
129 9 113 60 83 74 102 133 2 71 109 
130 11 9 40 59 25 141 151 150 14 36 50 135 
131 11 94 18 49 26 143 15 114 147 80 116 5 
132 10 84 122 112 17 139 3 104 71 109 83 
133 11 7 60 109 98 65 71 129 83 113 85 74 
134 11 124 78 95 2 128 115 22 102 57 74 113 
135 6 36 50 141 151 130 9 
136 11 34 125 79 111 16 62 33 121 47 4 146 
137 11 56 44 52 96 28 72 138 6 142 12 13 
138 11 72 28 142 12 52 137 56 44 96 126 67 
139 11 112 84 132 17 122 3 109 71 104 54 98 
140 8 101 38 149 75 110 144 8 108 
141 11 151 14 9 36 50 106 130 105 40 150 59 
142 11 138 28 52 72 44 56 96 67 137 12 6 
143 11 80 26 66 131 39 94 49 18 103 114 15 
144 11 149 140 38 110 75 101 8 37 77 108 20 
145 11 61 67 127 43 6 142 51 96 42 44 52 
146 11 47 23 97 33 4 16 62 82 121 87 81 
147 10 63 116 15 18 55 131 119 49 114 92 
148 3 90 3 104 
149 8 75 140 101 110 38 144 8 108 
150 11 35 46 9 81 130 59 141 151 87 14 40 
151 11 141 14 36 106 9 50 130 105 87 150 81 
DEPOT_SECTION
   1
   -1
EOF
