NAME :  X-n284-kX-w56-c9.cctp
COMMENT : 	Adapted by Maziero, Usberti and Cavellucci from the Uchoa, Pecin, Pessoa, Poggi, Subramanian, and Vidal (2013)
TYPE :  CCTP
DIMENSION :    272
EDGE_WEIGHT_TYPE : 	EUC_2D	
CAPACITY : 	109
VERTICES_WITHIN_COVERAGE :  9
VERTICES_WITH_DEMAND : 	56
NODE_COORD_SECTION
1 674 825
2 549 534
3 43 315
4 542 420
5 45 580
6 180 450
7 369 618
8 287 721
9 36 426
10 411 408
11 170 446
12 21 333
13 37 428
14 617 456
15 52 527
16 114 227
17 32 303
18 233 638
19 314 568
20 290 736
21 549 449
22 317 699
23 676 992
24 45 851
25 455 508
26 128 446
27 34 302
28 152 660
29 550 576
30 559 585
31 306 655
32 183 449
33 380 586
34 726 399
35 21 277
36 306 679
37 128 317
38 547 726
39 242 389
40 347 595
41 324 384
42 531 492
43 103 480
44 197 495
45 20 321
46 66 402
47 100 638
48 453 582
49 120 514
50 691 499
51 311 449
52 350 574
53 198 437
54 370 722
55 513 438
56 273 645
57 6 508
58 44 581
59 309 763
60 18 616
61 128 603
62 543 466
63 687 466
64 625 525
65 54 449
66 504 517
67 49 401
68 638 459
69 329 614
70 657 416
71 1 296
72 217 443
73 42 721
74 1 416
75 157 731
76 244 727
77 128 320
78 548 588
79 559 438
80 425 920
81 17 481
82 130 376
83 459 433
84 9 408
85 364 507
86 55 295
87 357 711
88 168 292
89 31 407
90 544 414
91 285 801
92 439 387
93 751 638
94 66 345
95 347 636
96 413 579
97 353 713
98 686 492
99 192 450
100 535 479
101 658 301
102 428 346
103 18 359
104 364 653
105 293 515
106 326 459
107 60 370
108 252 426
109 532 411
110 225 722
111 259 227
112 19 558
113 368 573
114 382 645
115 84 434
116 596 630
117 27 367
118 186 460
119 116 629
120 177 576
121 89 544
122 574 623
123 841 288
124 166 458
125 541 481
126 255 545
127 38 273
128 672 313
129 264 757
130 59 278
131 351 298
132 26 447
133 334 620
134 21 527
135 268 402
136 547 547
137 54 551
138 530 414
139 53 441
140 103 273
141 181 327
142 163 342
143 141 256
144 502 494
145 324 558
146 121 518
147 116 307
148 262 511
149 592 418
150 85 355
151 442 622
152 307 581
153 344 619
154 140 436
155 603 511
156 155 633
157 83 545
158 389 638
159 231 732
160 141 362
161 36 435
162 217 375
163 50 491
164 487 555
165 415 599
166 314 840
167 589 589
168 199 463
169 683 488
170 55 501
171 30 368
172 308 729
173 97 678
174 69 439
175 208 380
176 85 478
177 96 618
178 39 321
179 47 409
180 541 489
181 76 376
182 469 638
183 501 458
184 51 527
185 428 484
186 197 390
187 279 744
188 181 319
189 39 640
190 70 417
191 320 800
192 88 326
193 448 624
194 5 405
195 9 520
196 26 200
197 432 556
198 405 541
199 242 429
200 501 579
201 479 427
202 27 571
203 602 440
204 398 657
205 176 482
206 517 509
207 184 464
208 350 606
209 45 407
210 612 434
211 318 979
212 226 642
213 544 431
214 607 574
215 130 767
216 204 742
217 518 464
218 439 619
219 104 463
220 584 495
221 183 642
222 747 478
223 528 588
224 37 256
225 113 395
226 189 421
227 537 541
228 554 484
229 395 514
230 31 647
231 63 473
232 636 432
233 337 505
234 678 518
235 396 435
236 603 501
237 173 629
238 575 395
239 309 604
240 371 795
241 262 452
242 29 521
243 375 623
244 525 449
245 482 542
246 589 420
247 86 340
248 22 705
249 343 673
250 45 558
251 530 483
252 528 389
253 299 678
254 414 536
255 13 456
256 615 505
257 155 392
258 17 342
259 264 387
260 289 541
261 140 498
262 445 606
263 534 468
264 112 456
265 604 604
266 304 614
267 228 659
268 339 622
269 513 411
270 290 422
271 728 457
272 379 594
DEMAND_SECTION
2 7
3 3
4 3
5 5
6 4
7 8
8 1
9 2
10 9
11 5
12 2
13 2
14 4
15 1
16 3
17 4
18 10
19 2
20 2
21 3
22 9
23 2
24 1
25 6
26 8
27 9
28 7
29 8
30 8
31 4
32 6
33 2
34 7
35 5
36 10
37 4
38 9
39 6
40 8
41 1
42 5
43 5
44 8
45 5
46 5
47 4
48 8
49 3
50 6
51 7
52 7
53 9
54 9
55 5
56 4
57 3
COVERAGE_SECTION
2 9 136 227 206 29 42 180 66 228 30 
3 9 178 17 27 86 45 12 258 94 130 
4 9 90 213 109 138 79 21 269 55 244 
5 9 58 202 250 137 112 60 157 15 184 
6 9 32 11 99 118 207 124 53 168 226 
7 9 243 208 153 272 95 158 114 268 40 
8 9 20 172 187 22 76 129 253 36 59 
9 9 13 161 89 179 209 132 139 67 65 
10 9 235 92 83 102 201 185 41 106 269 
11 9 6 32 124 118 99 207 53 226 154 
12 9 258 45 178 103 3 17 27 117 171 
13 9 9 161 139 179 89 132 209 65 67 
14 9 68 203 210 232 149 246 236 256 220 
15 9 184 137 242 170 134 250 157 163 121 
16 9 143 140 130 147 224 88 127 86 37 
17 9 27 3 178 45 86 35 127 12 71 
18 9 212 267 56 221 237 31 266 253 156 
19 9 145 152 52 239 260 40 266 69 208 
20 9 187 8 172 59 129 22 76 36 159 
21 9 79 62 213 244 263 4 100 125 217 
22 9 36 253 172 8 249 97 87 31 20 
23 8 80 38 211 93 240 116 122 166 
24 9 215 73 248 75 173 216 230 189 28 
25 9 185 245 144 66 254 197 164 198 229 
26 9 154 264 219 124 11 43 115 6 225 
27 9 17 3 178 86 45 35 127 12 71 
28 9 156 221 237 119 47 173 61 177 75 
29 9 78 30 223 136 227 167 2 200 122 
30 9 78 29 167 223 136 122 214 227 265 
31 9 36 253 56 249 266 22 95 133 69 
32 9 6 99 118 11 207 53 124 168 226 
33 9 272 113 52 7 40 96 208 165 243 
34 9 271 70 63 222 232 169 98 128 50 
35 9 127 224 17 27 71 86 130 3 45 
36 9 253 22 31 249 8 56 172 97 20 
37 9 77 147 192 142 88 160 247 140 188 
38 8 122 116 182 265 78 223 30 193 
39 9 259 135 162 175 108 199 186 270 72 
40 9 208 52 153 69 133 268 113 7 272 
41 9 270 135 259 51 106 39 108 235 10 
42 9 251 180 100 125 206 228 263 62 144 
43 9 219 176 264 49 231 261 26 146 115 
44 9 205 168 207 118 99 6 32 124 11 
45 9 12 178 258 17 3 27 71 103 35 
46 9 190 67 179 209 181 107 89 115 174 
47 9 119 177 173 61 156 28 189 230 237 
48 9 262 197 96 218 151 165 193 164 200 
49 9 146 261 43 121 157 176 219 264 205 
50 9 98 169 234 63 271 222 68 64 256 
51 9 106 270 241 233 108 135 41 105 199 
52 9 113 40 145 33 208 272 19 152 69 
53 9 99 226 32 72 6 118 168 11 207 
54 9 87 97 249 22 172 104 204 59 240 
55 9 244 183 217 269 138 213 109 4 201 
56 9 31 18 253 266 36 212 267 239 69 
57 9 195 134 242 81 163 170 184 15 112 
58 9 5 202 250 137 112 60 157 184 15 
59 9 20 172 187 191 91 129 8 22 97 
60 9 189 230 58 5 202 112 250 137 177 
61 9 119 177 156 47 237 120 28 221 121 
62 9 263 100 125 21 228 251 180 217 244 
63 9 169 98 50 271 68 234 70 222 232 
64 9 256 155 236 220 214 234 68 14 98 
65 8 139 174 161 231 13 132 9 115 
66 9 206 144 245 42 227 164 251 180 2 
67 9 209 179 46 89 190 9 13 107 161 
68 9 14 232 210 203 70 63 256 169 236 
69 9 133 268 153 208 239 266 40 95 7 
70 7 232 68 210 14 63 203 149 
71 9 35 45 17 27 12 127 178 3 258 
72 9 53 99 168 199 32 118 226 6 108 
73 9 248 173 230 189 215 47 60 75 177 
74 9 84 194 89 9 13 132 161 255 209 
75 9 215 216 110 28 159 173 76 221 156 
76 9 159 110 129 187 8 216 20 172 267 
77 9 37 147 192 142 160 247 88 140 141 
78 9 30 29 223 136 167 122 200 227 2 
79 9 21 213 4 90 62 246 244 109 138 
80 9 211 240 166 191 91 59 54 97 87 
81 8 255 57 163 132 195 242 170 134 
82 9 160 225 257 142 150 181 77 247 37 
83 9 201 183 92 10 55 269 185 235 217 
84 9 194 74 89 9 13 209 161 179 67 
85 9 233 229 198 254 106 145 113 52 185 
86 9 130 27 3 17 127 178 35 224 45 
87 9 97 54 249 22 172 104 36 253 204 
88 9 188 141 143 37 77 142 147 140 160 
89 9 209 179 67 9 13 84 194 161 74 
90 9 4 109 138 213 79 252 269 21 238 
91 9 191 59 129 166 187 20 172 8 76 
92 6 10 102 83 201 235 269 
93 9 234 50 265 116 214 98 222 169 64 
94 8 150 247 107 192 181 178 3 171 
95 9 268 153 133 104 7 69 208 243 114 
96 9 165 197 33 272 198 48 262 254 113 
97 9 87 54 22 249 172 36 104 253 8 
98 9 169 50 63 234 271 68 222 64 256 
99 9 32 6 118 53 168 207 11 72 124 
100 9 125 251 263 180 42 62 228 217 244 
101 4 128 70 34 238 
102 6 92 10 131 83 235 201 
103 8 117 171 258 12 45 107 178 194 
104 9 114 95 158 249 243 204 7 153 268 
105 9 260 148 233 126 145 19 106 152 51 
106 9 51 233 270 85 241 105 235 41 108 
107 8 181 94 150 171 46 67 117 209 
108 9 199 241 135 39 270 72 259 53 162 
109 9 138 90 4 269 252 213 55 79 244 
110 9 159 76 216 129 187 8 267 20 75 
111 9 88 131 188 143 141 16 142 162 37 
112 9 202 250 134 5 58 137 242 195 15 
113 9 33 52 272 40 208 7 96 145 198 
114 9 158 104 204 243 7 95 153 249 268 
115 9 174 190 139 65 219 264 46 176 231 
116 8 122 265 167 214 30 78 29 223 
117 8 171 103 258 107 12 67 89 194 
118 9 207 32 6 99 168 124 11 205 53 
119 9 47 177 61 156 28 173 237 221 189 
120 9 237 61 156 221 119 146 212 44 18 
121 9 157 137 15 146 184 49 250 170 5 
122 8 116 265 167 30 78 29 223 214 
123 7 34 128 101 271 222 70 63 
124 9 11 6 32 207 118 205 99 168 154 
125 9 100 180 251 228 42 62 263 217 21 
126 9 260 148 105 19 152 145 44 239 120 
127 9 35 224 130 86 27 17 3 71 178 
128 4 101 34 70 232 
129 9 187 20 76 159 8 59 91 110 172 
130 9 86 127 224 27 17 35 3 140 178 
131 8 41 102 111 259 10 92 135 270 
132 8 161 255 13 9 65 139 81 74 
133 9 268 69 153 95 208 40 239 266 7 
134 9 242 195 57 184 15 112 250 137 170 
135 9 259 39 108 270 199 241 162 41 51 
136 9 227 2 29 30 78 223 206 66 200 
137 9 250 15 184 5 157 58 202 112 121 
138 9 109 4 90 269 213 252 55 244 79 
139 8 65 174 161 13 9 132 190 115 
140 9 147 143 130 16 37 77 86 192 127 
141 9 188 142 88 77 160 37 175 162 186 
142 9 141 188 160 77 37 82 88 257 147 
143 9 16 140 88 147 37 77 188 141 130 
144 9 206 66 42 251 217 100 183 180 125 
145 9 19 152 52 260 40 113 239 105 208 
146 9 49 261 121 43 157 176 219 264 205 
147 9 37 77 192 140 247 88 143 150 142 
148 9 105 126 260 241 44 233 19 145 51 
149 7 246 203 210 238 79 14 232 
150 8 247 94 181 107 192 225 82 46 
151 9 218 193 262 182 165 48 96 158 204 
152 9 19 239 145 266 69 40 52 260 133 
153 9 268 133 208 69 95 40 7 243 239 
154 9 26 11 124 264 6 32 219 257 225 
155 9 236 256 220 64 228 14 2 68 214 
156 9 237 28 221 119 61 47 120 177 212 
157 9 121 137 15 184 250 146 49 5 170 
158 9 114 204 243 7 104 95 272 165 153 
159 9 110 76 216 129 187 8 20 267 75 
160 9 82 142 257 225 77 37 141 150 188 
161 9 13 9 132 139 65 89 179 209 255 
162 9 175 186 39 259 226 135 141 199 108 
163 8 170 231 81 15 184 176 242 65 
164 9 245 200 66 48 227 223 197 206 25 
165 9 96 218 262 151 272 33 193 48 197 
166 9 191 91 240 59 129 187 20 172 8 
167 9 265 214 30 122 29 78 116 136 223 
168 9 118 99 207 32 6 53 72 205 44 
169 9 98 50 63 234 68 271 222 64 256 
170 8 163 15 184 231 242 176 81 134 
171 8 117 103 258 107 12 67 89 209 
172 9 20 8 22 187 59 97 36 87 129 
173 9 47 119 28 177 189 73 156 230 75 
174 8 115 139 65 190 161 13 9 231 
175 9 162 186 39 226 257 259 53 141 142 
176 8 43 231 219 264 163 170 65 174 
177 9 47 119 61 173 156 189 5 58 28 
178 8 3 17 45 27 12 258 86 94 
179 9 209 67 89 9 46 13 190 161 139 
180 9 125 42 100 251 228 263 62 206 217 
181 8 107 150 46 94 67 247 190 225 
182 8 193 151 218 262 48 165 200 204 
183 9 217 55 244 263 144 201 251 100 62 
184 9 15 242 137 170 134 250 163 157 121 
185 9 25 229 254 235 83 198 85 197 144 
186 9 175 162 226 257 39 53 72 142 99 
187 9 20 129 8 172 59 76 159 91 110 
188 9 141 142 88 37 77 160 147 162 175 
189 9 230 60 58 5 47 177 248 173 202 
190 9 46 115 174 179 67 209 139 9 13 
191 9 91 59 166 240 187 20 129 172 8 
192 8 247 94 150 147 77 37 86 3 
193 9 151 218 262 182 165 48 96 204 158 
194 9 84 74 89 9 13 209 179 161 67 
195 9 57 134 242 112 81 184 15 163 170 
196 9 224 127 35 130 16 71 86 27 17 
197 9 254 96 198 48 165 245 262 25 164 
198 9 254 229 197 96 113 33 85 165 272 
199 9 108 72 241 135 39 53 259 270 99 
200 9 164 223 245 48 78 29 227 136 30 
201 9 83 55 183 269 244 138 217 109 92 
202 9 112 5 58 250 137 134 60 184 242 
203 9 210 14 149 246 232 68 79 238 21 
204 9 114 158 104 243 7 95 151 218 249 
205 9 207 118 44 124 168 6 32 11 99 
206 9 66 144 42 251 180 100 125 227 2 
207 9 118 6 32 168 99 124 205 11 53 
208 9 40 153 268 133 7 69 95 243 272 
209 9 179 67 89 9 13 46 190 161 139 
210 8 203 14 232 149 246 68 70 79 
211 9 80 166 191 91 240 59 129 187 20 
212 9 18 267 221 56 237 156 28 110 31 
213 9 4 79 90 21 138 109 244 55 62 
214 9 167 265 30 64 29 116 122 78 155 
215 9 75 216 173 73 110 159 28 24 76 
216 9 110 159 76 75 129 187 215 8 20 
217 9 263 244 183 251 100 62 55 125 42 
218 9 151 193 262 165 182 48 96 158 204 
219 9 264 43 176 26 115 174 231 154 261 
220 9 236 155 228 256 180 125 62 14 64 
221 9 237 156 28 212 267 18 120 61 119 
222 9 271 50 63 98 169 234 34 70 68 
223 9 78 29 200 30 136 227 164 2 122 
224 9 127 35 130 86 27 17 71 196 3 
225 9 82 181 257 160 46 190 115 150 154 
226 9 53 32 99 6 11 186 72 118 168 
227 9 136 2 29 206 66 78 223 30 42 
228 9 125 180 100 62 42 251 263 220 21 
229 9 198 254 85 185 197 233 25 113 96 
230 9 189 60 248 58 5 47 177 173 73 
231 8 163 176 65 170 139 174 43 219 
232 8 210 70 68 14 203 149 246 63 
233 9 85 105 106 145 229 260 51 19 52 
234 9 50 98 169 63 64 256 68 155 236 
235 9 10 185 83 92 106 85 229 201 51 
236 9 155 256 220 64 14 228 68 203 2 
237 9 221 156 28 61 120 212 119 18 267 
238 6 149 246 90 4 79 109 
239 9 266 69 152 133 268 19 153 40 208 
240 9 191 59 54 166 97 87 91 172 20 
241 9 108 199 270 72 51 135 148 106 168 
242 9 134 195 184 15 57 170 163 112 137 
243 9 7 158 114 272 208 95 153 104 268 
244 9 55 217 263 21 62 183 213 100 4 
245 9 164 66 200 25 206 48 144 197 227 
246 8 149 203 210 238 79 90 14 213 
247 8 192 150 94 181 107 147 77 37 
248 9 73 230 189 173 60 47 177 119 215 
249 9 104 22 36 95 87 31 97 253 114 
250 9 137 5 202 58 112 15 184 134 157 
251 9 100 42 125 180 263 62 217 228 206 
252 9 109 138 269 90 4 213 238 55 79 
253 9 36 31 22 56 249 8 172 20 95 
254 9 198 197 229 96 25 185 85 113 33 
255 8 132 81 161 13 9 65 74 139 
256 9 155 236 64 220 14 68 234 228 203 
257 9 82 160 186 225 226 154 142 175 11 
258 8 12 103 45 117 171 178 3 17 
259 9 135 39 108 270 199 162 175 41 241 
260 9 105 126 19 145 148 152 233 239 52 
261 9 49 146 205 43 124 219 264 26 207 
262 9 218 151 193 48 165 182 96 197 200 
263 9 62 100 125 217 251 244 180 21 42 
264 9 219 26 43 154 176 115 174 261 231 
265 9 167 116 214 122 30 78 29 223 136 
266 9 239 69 133 152 268 153 31 56 19 
267 9 212 18 56 221 110 237 76 159 253 
268 9 133 153 69 95 208 40 7 239 243 
269 9 138 109 55 252 4 90 213 201 244 
270 9 135 51 108 241 259 199 41 106 39 
271 9 222 63 98 169 50 34 234 70 68 
272 9 33 113 7 243 208 40 52 165 96 
DEPOT_SECTION
   1
   -1
EOF
