NAME :  X-n214-kX-w85-c9.cctp
COMMENT : 	Adapted by Maziero, Usberti and Cavellucci from the Uchoa, Pecin, Pessoa, Poggi, Subramanian, and Vidal (2013)
TYPE :  CCTP
DIMENSION :    213
EDGE_WEIGHT_TYPE : 	EUC_2D	
CAPACITY : 	944
VERTICES_WITHIN_COVERAGE :  9
VERTICES_WITH_DEMAND : 	85
NODE_COORD_SECTION
1 500 500
2 753 355
3 663 83
4 725 286
5 581 444
6 700 205
7 630 475
8 560 407
9 848 374
10 752 315
11 454 310
12 685 227
13 747 468
14 540 348
15 882 346
16 762 228
17 884 307
18 681 274
19 761 254
20 791 205
21 699 559
22 694 352
23 679 11
24 656 446
25 428 487
26 838 395
27 554 590
28 567 250
29 769 381
30 753 20
31 710 296
32 653 489
33 711 447
34 516 322
35 704 265
36 742 358
37 578 423
38 923 378
39 451 120
40 449 254
41 626 264
42 701 203
43 751 293
44 835 0
45 810 318
46 640 218
47 493 226
48 483 445
49 671 134
50 465 361
51 521 69
52 894 399
53 824 388
54 605 238
55 848 251
56 561 443
57 663 9
58 768 339
59 634 426
60 590 60
61 735 280
62 842 365
63 671 124
64 680 251
65 615 361
66 558 451
67 884 356
68 746 384
69 687 227
70 855 350
71 656 450
72 560 459
73 591 433
74 451 36
75 747 26
76 753 384
77 530 259
78 739 215
79 537 267
80 742 304
81 509 418
82 667 17
83 534 297
84 605 382
85 470 482
86 817 366
87 815 268
88 728 264
89 778 44
90 856 360
91 818 284
92 666 107
93 628 378
94 538 317
95 715 34
96 875 290
97 495 468
98 584 145
99 725 237
100 563 394
101 775 378
102 587 443
103 535 665
104 696 387
105 704 153
106 667 448
107 557 440
108 682 461
109 762 279
110 824 522
111 764 259
112 759 334
113 750 391
114 893 283
115 900 308
116 595 73
117 641 474
118 597 236
119 294 448
120 852 182
121 526 330
122 735 460
123 901 303
124 639 390
125 545 395
126 494 2
127 741 339
128 795 456
129 783 343
130 694 224
131 756 99
132 698 323
133 683 222
134 704 269
135 769 321
136 596 321
137 605 103
138 507 448
139 567 464
140 743 205
141 622 449
142 745 269
143 603 447
144 634 194
145 832 312
146 796 292
147 662 86
148 608 618
149 489 267
150 837 289
151 478 510
152 569 497
153 611 550
154 749 387
155 683 355
156 682 81
157 701 170
158 653 414
159 584 21
160 683 308
161 659 582
162 668 329
163 662 288
164 897 399
165 770 366
166 540 212
167 606 309
168 581 254
169 582 485
170 848 381
171 828 150
172 536 445
173 531 56
174 707 424
175 587 191
176 770 259
177 702 94
178 823 162
179 644 364
180 570 186
181 552 317
182 626 88
183 999 631
184 860 274
185 354 662
186 625 323
187 654 285
188 785 82
189 650 335
190 637 568
191 449 359
192 885 77
193 552 440
194 810 205
195 628 24
196 728 294
197 733 311
198 750 327
199 727 278
200 618 336
201 537 137
202 718 413
203 725 355
204 710 139
205 723 556
206 449 346
207 731 373
208 349 465
209 572 542
210 612 377
211 711 417
212 678 44
213 604 593
DEMAND_SECTION
2 83
3 84
4 34
5 17
6 88
7 59
8 56
9 33
10 21
11 37
12 15
13 97
14 23
15 76
16 94
17 99
18 30
19 44
20 45
21 8
22 37
23 43
24 15
25 18
26 73
27 65
28 89
29 5
30 13
31 64
32 60
33 20
34 12
35 59
36 25
37 2
38 60
39 61
40 6
41 17
42 65
43 26
44 96
45 21
46 63
47 29
48 24
49 51
50 48
51 65
52 58
53 40
54 34
55 81
56 21
57 51
58 31
59 20
60 34
61 47
62 61
63 2
64 93
65 75
66 85
67 27
68 57
69 86
70 61
71 98
72 76
73 68
74 30
75 72
76 28
77 12
78 24
79 42
80 95
81 3
82 92
83 32
84 59
85 33
86 68
COVERAGE_SECTION
2 9 36 127 165 58 112 198 203 207 76 
3 9 147 156 92 182 177 63 212 49 137 
4 9 199 196 61 31 88 80 142 197 43 
5 9 102 73 56 37 143 66 107 139 72 
6 9 42 130 133 69 12 157 78 99 140 
7 9 117 32 141 71 24 143 106 59 169 
8 9 100 125 37 107 193 56 73 5 66 
9 9 170 62 90 26 70 53 86 67 15 
10 9 198 80 135 197 112 43 127 58 196 
11 9 206 191 50 149 40 34 121 83 94 
12 9 69 133 130 64 6 42 99 35 46 
13 9 122 33 128 174 202 211 108 113 154 
14 9 121 94 181 34 125 83 100 8 136 
15 9 67 70 90 17 115 9 62 123 170 
16 9 19 78 140 111 176 20 99 142 88 
17 9 115 123 96 114 15 184 67 150 70 
18 9 64 134 163 35 187 160 31 4 199 
19 9 111 176 142 109 16 88 61 43 99 
20 9 194 16 140 78 178 19 176 111 120 
21 9 205 161 190 32 153 108 213 13 117 
22 9 155 132 203 104 162 207 160 189 36 
23 9 82 57 212 95 195 75 156 3 30 
24 9 71 106 59 108 117 158 141 7 32 
25 9 85 151 48 97 208 138 81 172 191 
26 9 53 170 9 62 86 90 70 52 164 
27 9 213 209 148 153 103 190 152 161 169 
28 9 168 118 79 77 54 166 83 41 175 
29 9 101 165 76 113 154 68 2 36 207 
30 9 75 89 95 188 23 131 212 44 82 
31 9 4 196 199 197 134 61 132 160 35 
32 9 117 7 71 108 24 106 141 143 59 
33 9 174 122 211 108 202 13 106 24 71 
34 9 121 94 83 14 181 79 149 11 50 
35 9 134 88 18 199 64 4 31 61 99 
36 9 2 203 127 207 68 76 112 165 154 
37 9 73 5 102 8 56 107 193 100 66 
38 9 164 52 67 15 90 70 115 9 170 
39 9 74 51 201 173 47 126 166 40 98 
40 9 149 47 11 77 79 206 34 83 166 
41 9 54 187 118 163 168 46 167 18 64 
42 9 6 130 133 69 12 157 78 99 140 
43 9 80 109 61 10 196 142 197 4 199 
44 8 89 30 75 192 188 95 131 171 
45 9 145 146 91 129 150 135 58 86 87 
46 9 144 54 133 12 118 41 69 64 130 
47 9 149 166 77 40 79 28 83 180 168 
48 9 138 97 81 85 172 151 25 193 107 
49 9 63 92 105 204 157 147 177 3 156 
50 9 191 206 11 34 121 81 14 94 48 
51 9 173 60 201 126 116 74 159 39 137 
52 9 164 38 67 170 9 15 90 26 62 
53 9 26 86 170 9 62 90 70 101 29 
54 9 118 168 41 28 46 175 144 180 187 
55 9 184 87 150 91 96 114 194 145 146 
56 9 107 66 193 72 5 139 172 37 102 
57 9 82 23 195 212 95 3 156 147 159 
58 9 112 129 135 2 198 127 165 10 36 
59 9 158 141 24 71 124 143 106 73 93 
60 9 116 159 137 182 195 173 51 3 147 
61 9 199 4 142 196 88 43 80 109 31 
62 9 9 90 170 70 86 53 26 67 15 
63 9 49 92 147 3 204 177 105 156 157 
64 9 18 12 69 35 133 130 134 163 187 
65 9 210 93 84 200 179 124 186 136 189 
66 9 72 56 107 193 139 172 5 102 37 
67 9 15 90 70 9 62 52 170 38 164 
68 9 154 76 113 207 29 36 2 101 165 
69 9 12 133 130 64 6 42 99 35 134 
70 9 90 62 9 15 67 170 86 145 26 
71 9 24 106 108 117 59 141 7 158 32 
72 9 66 139 56 107 193 5 172 102 169 
73 9 102 5 37 143 56 107 141 66 139 
74 9 126 51 173 39 201 159 60 116 137 
75 9 30 95 89 188 23 212 131 82 177 
76 9 154 68 113 29 101 165 207 36 2 
77 9 79 28 83 149 166 47 168 94 181 
78 9 140 16 99 6 42 19 130 88 111 
79 9 77 83 28 168 149 94 181 166 34 
80 9 197 43 10 196 198 4 61 199 109 
81 9 138 48 172 125 193 8 97 107 56 
82 9 57 23 212 195 95 3 156 147 75 
83 9 94 181 79 34 121 77 14 149 28 
84 9 210 65 93 124 179 100 200 37 8 
85 9 97 151 48 25 138 81 172 193 66 
86 9 53 62 9 170 26 90 70 129 101 
87 9 91 150 146 55 184 176 145 45 111 
88 9 199 61 142 4 35 134 99 196 19 
89 8 30 75 188 131 95 44 177 212 
90 9 70 62 9 170 67 15 26 86 53 
91 9 87 150 146 145 45 184 55 176 109 
92 9 63 147 3 49 156 177 182 204 105 
93 9 124 210 65 179 84 200 158 59 189 
94 9 181 121 83 34 14 79 136 77 167 
95 9 75 212 30 23 82 156 57 177 89 
96 9 17 114 184 123 115 150 55 145 15 
97 9 138 48 85 151 172 81 193 66 72 
98 9 180 175 137 201 144 182 116 166 60 
99 9 78 88 130 35 140 16 134 142 69 
100 9 8 125 37 84 107 193 73 56 14 
101 9 29 165 76 113 154 68 2 129 36 
102 9 5 73 143 37 56 139 66 107 72 
103 9 27 148 213 209 153 190 161 151 152 
104 9 202 211 22 155 207 174 203 68 158 
105 9 204 157 49 63 42 6 177 92 140 
106 9 24 71 108 117 158 59 32 33 141 
107 9 56 193 66 72 172 5 139 37 102 
108 9 106 71 24 33 32 117 174 122 211 
109 9 43 111 142 176 19 61 80 199 146 
110 9 128 13 205 122 26 21 53 33 52 
111 9 19 176 109 142 16 43 61 88 199 
112 9 58 198 135 127 10 2 129 36 80 
113 9 154 68 76 29 207 101 165 36 2 
114 9 96 123 17 115 184 55 150 15 145 
115 9 123 17 114 96 15 67 184 70 150 
116 9 60 137 182 159 195 173 147 3 98 
117 9 7 32 71 141 24 106 108 143 59 
118 9 54 168 28 41 175 46 144 180 166 
119 9 208 25 85 191 206 48 50 151 97 
120 9 178 171 194 20 55 184 87 16 91 
121 9 34 94 14 181 83 79 50 125 77 
122 9 13 33 174 211 202 108 128 106 113 
123 9 115 17 114 96 15 184 67 70 150 
124 9 93 179 158 210 84 59 65 155 189 
125 9 100 8 37 81 193 14 107 56 172 
126 9 74 173 51 159 60 116 39 195 201 
127 9 198 36 112 2 203 10 58 197 135 
128 9 13 122 110 53 26 29 113 101 76 
129 9 58 112 135 165 2 101 45 198 29 
130 9 69 12 133 6 42 64 99 35 78 
131 8 188 177 89 204 75 105 156 95 
132 9 160 22 31 162 155 197 196 203 4 
133 9 12 69 130 6 42 64 46 99 35 
134 9 35 18 88 199 4 31 64 61 196 
135 9 112 10 58 198 129 80 43 127 197 
136 9 167 200 186 65 181 189 94 210 14 
137 9 182 116 60 98 147 3 92 63 49 
138 9 97 48 172 81 193 85 66 107 56 
139 9 72 66 56 5 107 169 193 102 152 
140 9 78 16 99 42 6 20 19 130 157 
141 9 143 59 7 117 24 71 73 102 5 
142 9 61 88 109 199 111 19 43 4 176 
143 9 102 73 141 5 37 59 7 139 56 
144 9 46 175 54 118 133 12 69 180 6 
145 9 45 150 91 146 70 87 184 96 17 
146 9 91 45 87 109 135 145 150 176 43 
147 9 3 92 156 182 63 177 212 49 137 
148 9 213 190 27 161 153 209 103 21 152 
149 9 47 40 77 79 83 11 34 94 121 
150 9 91 145 184 87 96 45 55 146 17 
151 9 85 97 25 48 138 172 152 72 81 
152 9 169 139 72 209 66 5 56 102 107 
153 9 190 209 213 161 148 152 27 169 32 
154 9 68 113 76 29 207 101 36 165 2 
155 9 22 162 104 132 189 179 203 160 207 
156 9 3 147 177 92 212 63 49 182 95 
157 9 105 204 42 6 49 130 63 133 140 
158 9 59 124 24 71 106 93 141 104 179 
159 9 60 195 116 173 51 182 57 82 137 
160 9 132 162 163 31 18 187 189 134 22 
161 9 190 21 213 153 148 205 32 209 27 
162 9 189 160 155 132 22 163 179 186 187 
163 9 187 18 160 64 162 41 134 35 31 
164 9 52 38 67 170 9 15 90 26 62 
165 9 101 29 2 76 129 58 36 68 154 
166 9 180 28 77 47 175 79 168 118 54 
167 9 136 186 200 41 189 65 187 181 163 
168 9 28 118 54 41 79 77 166 167 175 
169 9 152 139 72 5 66 102 143 56 7 
170 9 9 26 62 90 53 70 86 67 15 
171 8 178 120 194 20 188 131 192 140 
172 9 193 107 66 56 72 138 139 81 5 
173 9 51 60 159 126 116 201 74 137 182 
174 9 211 202 33 104 108 122 106 113 158 
175 9 180 98 118 144 54 166 46 28 168 
176 9 111 19 109 142 16 43 61 88 146 
177 9 156 92 3 147 63 204 49 131 212 
178 8 171 120 194 20 188 16 140 55 
179 9 93 124 65 189 210 200 155 162 84 
180 9 175 166 98 118 201 54 28 144 168 
181 9 94 83 121 14 34 136 79 167 77 
182 9 137 116 147 3 92 60 156 63 49 
183 9 110 164 52 38 128 26 205 170 9 
184 9 96 55 150 114 17 91 87 145 123 
185 9 103 25 151 208 27 85 119 97 209 
186 9 200 167 189 136 65 162 179 187 163 
187 9 163 18 41 160 64 162 186 189 134 
188 8 131 89 75 30 171 177 95 178 
189 9 162 186 179 200 155 160 65 22 93 
190 9 161 153 213 148 21 209 32 27 205 
191 9 206 50 11 34 121 81 14 48 94 
192 8 44 171 188 178 120 89 131 30 
193 9 107 56 66 172 72 139 5 37 8 
194 9 20 178 120 16 171 55 87 140 176 
195 9 57 82 159 60 23 212 116 182 3 
196 9 4 61 199 80 31 197 43 88 142 
197 9 80 196 10 198 43 4 31 127 61 
198 9 112 10 127 135 58 197 80 2 36 
199 9 4 61 88 196 142 31 134 35 43 
200 9 186 65 136 167 189 179 210 93 84 
201 9 98 180 51 175 166 137 173 116 39 
202 9 211 174 104 33 113 68 154 207 76 
203 9 36 207 127 2 22 68 198 76 112 
204 8 105 157 49 63 177 92 131 156 
205 9 21 161 190 13 32 122 108 110 33 
206 9 191 50 11 34 121 149 14 40 81 
207 9 36 68 203 154 76 113 2 127 104 
208 9 119 25 85 48 151 97 191 206 50 
209 9 153 152 27 169 213 190 139 72 148 
210 9 84 65 93 124 179 200 100 59 158 
211 9 174 202 33 104 113 68 154 207 122 
212 9 82 23 156 57 95 3 147 195 177 
213 9 148 190 153 27 161 209 103 21 152 
DEPOT_SECTION
   1
   -1
EOF
