NAME :  X-n280-kX-w55-c9.cctp
COMMENT : 	Adapted by Maziero, Usberti and Cavellucci from the Uchoa, Pecin, Pessoa, Poggi, Subramanian, and Vidal (2013)
TYPE :  CCTP
DIMENSION :    262
EDGE_WEIGHT_TYPE : 	EUC_2D	
CAPACITY : 	192
VERTICES_WITHIN_COVERAGE :  9
VERTICES_WITH_DEMAND : 	55
NODE_COORD_SECTION
1 0 0
2 909 919
3 878 721
4 969 85
5 591 195
6 955 148
7 587 903
8 994 792
9 625 129
10 544 703
11 461 167
12 37 644
13 615 22
14 773 788
15 384 364
16 51 291
17 109 732
18 570 124
19 692 985
20 62 150
21 358 5
22 188 450
23 674 658
24 676 904
25 815 984
26 710 16
27 74 658
28 576 1000
29 636 695
30 547 92
31 587 397
32 26 150
33 182 561
34 938 462
35 362 928
36 366 835
37 516 892
38 448 923
39 501 445
40 513 799
41 905 388
42 474 791
43 560 782
44 465 552
45 315 645
46 738 396
47 45 915
48 797 871
49 922 643
50 793 586
51 921 458
52 160 295
53 598 257
54 516 221
55 99 169
56 788 634
57 425 751
58 616 680
59 949 444
60 987 459
61 182 279
62 127 354
63 791 822
64 645 609
65 857 386
66 917 154
67 729 688
68 134 510
69 499 737
70 780 565
71 908 477
72 917 341
73 272 553
74 421 876
75 770 2
76 497 623
77 853 27
78 853 521
79 519 196
80 90 822
81 827 901
82 350 168
83 656 56
84 732 55
85 772 748
86 884 973
87 158 430
88 563 13
89 50 959
90 609 223
91 628 860
92 264 436
93 699 764
94 441 479
95 95 246
96 236 627
97 307 893
98 695 302
99 378 639
100 830 30
101 44 339
102 885 644
103 122 603
104 850 732
105 155 865
106 230 346
107 300 719
108 55 954
109 467 494
110 153 641
111 713 82
112 659 564
113 881 18
114 781 654
115 490 806
116 823 569
117 878 496
118 441 898
119 589 516
120 165 614
121 17 749
122 164 778
123 296 858
124 258 488
125 437 866
126 187 88
127 725 988
128 125 619
129 352 701
130 447 517
131 316 80
132 743 575
133 555 373
134 84 140
135 341 827
136 541 567
137 919 768
138 945 924
139 397 932
140 905 944
141 892 37
142 74 227
143 911 617
144 668 697
145 1 96
146 223 299
147 637 118
148 622 958
149 356 127
150 347 777
151 157 190
152 138 78
153 100 192
154 384 598
155 23 228
156 110 163
157 53 628
158 316 705
159 112 361
160 642 405
161 235 578
162 489 621
163 563 916
164 597 310
165 960 837
166 164 988
167 648 247
168 375 402
169 531 205
170 935 676
171 103 549
172 964 651
173 233 241
174 891 112
175 457 893
176 852 861
177 113 701
178 340 913
179 662 198
180 667 718
181 140 332
182 809 908
183 968 908
184 163 857
185 333 418
186 59 136
187 839 123
188 529 215
189 385 380
190 156 119
191 528 320
192 138 787
193 473 713
194 537 114
195 168 838
196 774 825
197 216 372
198 16 935
199 60 733
200 500 37
201 343 363
202 429 41
203 205 398
204 708 298
205 411 109
206 840 359
207 112 603
208 816 310
209 865 775
210 893 516
211 814 607
212 605 162
213 359 199
214 16 739
215 482 214
216 528 103
217 572 770
218 802 517
219 876 469
220 118 571
221 952 781
222 823 795
223 522 595
224 52 336
225 456 367
226 255 413
227 410 194
228 956 21
229 717 142
230 766 880
231 524 825
232 657 640
233 189 232
234 471 339
235 920 809
236 688 98
237 660 781
238 441 81
239 236 735
240 784 692
241 743 446
242 201 32
243 381 605
244 380 904
245 227 263
246 69 94
247 123 416
248 341 341
249 450 482
250 251 533
251 352 591
252 724 967
253 753 539
254 684 924
255 617 989
256 455 500
257 472 926
258 395 683
259 167 357
260 789 678
261 897 272
262 991 492
DEMAND_SECTION
2 92
3 88
4 93
5 90
6 73
7 100
8 53
9 66
10 82
11 59
12 100
13 76
14 84
15 56
16 91
17 58
18 65
19 56
20 68
21 88
22 54
23 76
24 80
25 53
26 1
27 2
28 2
29 7
30 10
31 9
32 8
33 3
34 3
35 2
36 9
37 6
38 10
39 3
40 1
41 4
42 6
43 1
44 4
45 3
46 7
47 7
48 2
49 1
50 1
51 4
52 4
53 5
54 4
55 7
56 3
COVERAGE_SECTION
2 9 140 138 86 183 176 81 165 182 235 
3 9 104 209 137 170 102 49 222 221 235 
4 9 6 228 174 66 141 113 77 187 100 
5 9 90 212 169 53 188 179 79 9 18 
6 8 66 4 174 187 228 141 261 113 
7 9 163 91 148 37 24 255 28 254 231 
8 9 221 165 235 137 183 170 209 3 138 
9 9 147 212 18 236 5 179 83 30 194 
10 9 69 193 217 58 43 29 76 162 40 
11 9 215 227 79 54 205 169 188 238 194 
12 9 157 27 207 128 199 103 177 214 121 
13 9 83 88 26 30 147 236 9 18 111 
14 9 196 63 85 222 93 48 230 209 104 
15 7 189 168 201 248 225 185 234 
16 9 224 101 95 142 155 159 181 62 52 
17 9 177 199 192 122 27 80 214 121 110 
18 9 194 30 216 212 9 147 5 79 169 
19 9 127 252 254 148 255 24 28 25 230 
20 9 186 134 32 55 156 246 153 142 145 
21 8 202 131 238 205 149 200 242 82 
22 9 87 203 247 92 226 124 68 197 259 
23 9 232 144 29 64 180 58 67 112 114 
24 9 254 91 148 252 19 7 230 127 255 
25 9 86 182 81 127 252 140 2 48 230 
26 9 84 75 111 83 236 13 100 147 229 
27 9 157 12 177 128 207 103 199 110 17 
28 9 255 148 163 7 19 37 257 254 24 
29 9 58 144 180 23 232 64 237 10 67 
30 9 216 194 18 200 88 9 212 147 13 
31 9 133 160 164 191 39 119 234 225 53 
32 9 20 186 134 145 246 55 155 153 156 
33 9 120 161 220 68 103 250 171 128 207 
34 9 51 59 71 60 262 219 117 210 41 
35 9 178 244 139 97 74 118 38 36 123 
36 9 135 150 74 244 123 125 178 97 35 
37 9 163 257 175 231 7 38 118 125 115 
38 9 257 118 175 139 74 125 244 37 35 
39 8 109 249 94 256 130 133 225 31 
40 9 115 231 42 43 69 217 37 193 57 
41 9 65 72 59 206 51 34 219 71 60 
42 9 115 40 69 231 57 193 125 43 74 
43 9 217 40 231 115 69 10 42 237 91 
44 9 130 256 109 223 249 162 94 136 76 
45 9 158 99 251 129 107 243 96 154 258 
46 9 241 160 204 98 206 208 65 218 253 
47 8 198 108 89 80 105 184 166 195 
48 9 230 182 81 63 196 176 222 14 25 
49 9 143 170 102 172 3 104 211 116 137 
50 9 70 211 116 56 132 253 114 218 78 
51 9 34 71 59 219 117 210 60 41 262 
52 9 61 181 259 146 62 233 245 95 159 
53 9 90 167 164 5 188 169 179 54 191 
54 9 188 169 79 215 11 5 53 90 191 
55 9 156 153 134 20 186 151 142 32 190 
56 9 114 211 260 50 240 70 116 132 67 
57 9 193 42 258 69 150 115 129 40 36 
58 9 29 144 232 23 180 10 64 217 237 
59 9 34 51 60 71 262 41 219 117 210 
60 9 262 59 34 51 71 41 210 219 117 
61 9 52 146 233 245 173 181 259 106 151 
62 9 159 181 259 247 52 224 87 101 203 
63 9 196 14 222 48 230 176 85 81 182 
64 9 232 112 23 58 29 144 132 119 180 
65 9 206 41 72 219 208 51 71 59 34 
66 8 6 174 187 4 141 261 228 113 
67 9 240 260 114 144 23 180 85 56 93 
68 8 171 220 33 22 87 103 247 207 
69 9 193 10 42 40 115 57 43 217 231 
70 9 50 253 132 116 218 211 56 78 114 
71 9 51 219 34 117 210 59 78 60 262 
72 8 41 261 65 206 208 59 51 34 
73 8 250 161 124 96 251 33 45 92 
74 9 125 118 175 244 38 139 36 257 35 
75 9 26 84 100 77 111 113 83 236 141 
76 9 162 223 136 44 10 193 69 154 130 
77 9 100 113 141 75 174 187 228 84 4 
78 9 117 210 218 116 219 71 70 50 51 
79 9 169 188 54 215 11 5 194 18 212 
80 9 192 105 195 184 122 17 199 47 121 
81 9 182 48 176 230 2 25 63 140 86 
82 7 213 149 227 205 131 11 238 
83 9 13 236 111 147 26 84 9 88 229 
84 9 111 26 236 75 83 229 100 147 13 
85 9 14 240 222 260 67 93 63 196 104 
86 9 140 2 25 138 81 182 183 176 48 
87 9 22 247 203 259 62 197 159 68 226 
88 9 13 200 30 216 83 194 18 147 9 
89 7 108 198 47 166 105 80 184 
90 9 5 53 167 179 212 169 188 164 54 
91 9 7 24 237 254 163 148 43 217 231 
92 6 226 124 203 185 22 197 
93 9 237 180 144 85 14 67 29 196 23 
94 6 249 256 109 130 39 44 
95 9 142 153 16 155 55 52 151 156 61 
96 9 161 120 45 73 110 33 250 239 128 
97 8 123 178 35 135 244 36 139 74 
98 7 204 167 164 46 53 179 160 
99 9 243 154 258 251 45 129 158 107 162 
100 9 77 113 141 75 187 84 174 26 228 
101 9 224 16 159 62 181 95 247 155 142 
102 9 49 143 170 3 172 211 104 116 56 
103 9 207 128 220 120 110 171 27 33 157 
104 9 3 209 222 240 137 85 260 14 102 
105 7 184 195 80 192 122 47 166 
106 8 197 146 203 259 226 61 245 52 
107 9 158 129 239 150 45 258 96 99 135 
108 7 89 47 198 166 105 80 184 
109 7 256 249 94 130 44 39 136 
110 9 120 128 103 207 177 220 27 96 33 
111 9 236 84 229 83 26 147 75 9 13 
112 9 64 232 119 132 23 253 136 70 58 
113 9 141 77 100 228 174 4 75 187 66 
114 9 56 260 240 211 67 50 132 70 85 
115 9 42 40 231 69 43 125 57 37 217 
116 9 50 211 70 218 78 56 253 132 210 
117 9 210 219 78 71 51 34 218 59 116 
118 9 175 38 74 125 257 139 244 37 35 
119 9 136 112 223 64 39 31 160 109 44 
120 9 110 128 103 207 33 220 96 161 171 
121 9 214 199 17 80 12 27 177 157 192 
122 9 192 195 17 184 239 80 105 177 199 
123 8 97 135 178 36 35 150 244 139 
124 7 250 92 73 226 22 161 185 
125 9 74 118 175 38 244 257 36 139 115 
126 8 190 152 242 151 156 134 246 55 
127 9 252 19 254 25 24 148 255 182 230 
128 9 103 207 110 120 220 27 157 171 33 
129 9 158 258 107 45 99 150 57 243 154 
130 7 256 109 249 94 44 39 154 
131 9 149 21 82 205 202 238 242 213 126 
132 9 253 70 50 56 211 116 218 112 114 
133 9 31 191 164 39 234 160 225 53 119 
134 9 20 186 55 156 246 153 32 190 152 
135 9 36 150 123 97 178 244 74 35 125 
136 9 223 119 76 162 44 109 130 256 64 
137 9 221 235 209 3 104 8 165 170 222 
138 9 183 2 140 86 165 176 235 81 182 
139 9 244 35 38 118 178 74 175 257 125 
140 9 2 86 138 183 81 25 176 182 165 
141 9 113 77 100 228 174 4 187 66 75 
142 9 95 153 155 55 16 156 20 134 32 
143 9 49 102 172 170 211 116 210 3 78 
144 9 180 29 23 58 232 67 93 237 64 
145 9 32 246 186 20 134 55 156 155 152 
146 8 245 61 106 173 52 197 233 259 
147 9 9 212 236 83 18 111 179 229 5 
148 9 255 28 7 254 163 19 24 91 252 
149 8 82 205 131 213 227 238 11 202 
150 9 135 36 107 129 158 57 123 258 239 
151 9 233 156 153 55 190 95 134 142 61 
152 8 190 126 246 242 134 156 186 55 
153 9 55 156 142 95 134 20 151 186 32 
154 9 243 251 99 45 258 44 130 162 129 
155 9 142 16 95 32 153 20 55 186 134 
156 9 55 153 134 20 151 186 190 142 246 
157 9 12 27 207 103 128 220 171 177 110 
158 9 107 129 45 150 258 239 99 96 57 
159 9 62 181 259 247 224 101 52 87 16 
160 9 31 133 46 164 241 98 119 204 191 
161 9 73 250 96 33 120 124 110 45 103 
162 9 76 223 44 136 193 10 154 243 99 
163 9 7 37 148 28 91 255 257 231 175 
164 9 53 191 133 167 31 90 98 160 204 
165 9 235 8 221 183 137 138 2 176 209 
166 7 108 89 105 184 47 195 198 
167 8 90 53 179 98 5 204 164 212 
168 5 189 15 185 201 248 
169 9 188 79 54 215 5 11 90 53 212 
170 9 49 172 102 143 3 137 104 221 209 
171 6 220 68 207 103 128 33 
172 9 170 49 143 102 3 137 221 104 8 
173 7 245 233 146 61 52 151 106 
174 8 66 187 6 141 4 77 113 100 
175 9 118 38 125 257 74 37 139 244 115 
176 9 81 48 182 63 222 2 196 235 209 
177 9 17 27 199 110 128 192 122 157 12 
178 9 35 97 244 139 123 36 135 74 118 
179 8 167 90 212 5 9 229 147 53 
180 9 144 29 93 23 237 58 67 232 217 
181 9 62 259 159 52 61 197 247 224 146 
182 9 81 48 230 176 25 63 196 86 2 
183 9 138 2 165 140 86 235 8 176 221 
184 7 105 195 192 122 80 47 166 
185 6 168 201 189 92 15 248 
186 9 20 134 32 246 55 156 153 145 142 
187 7 174 66 100 77 141 113 6 
188 9 169 54 79 215 5 90 53 11 212 
189 6 15 168 201 248 185 225 
190 9 126 152 156 151 134 55 246 153 186 
191 9 133 234 164 225 53 31 54 188 169 
192 9 122 80 195 17 184 105 177 199 239 
193 9 69 57 10 42 258 76 162 40 115 
194 9 216 30 18 212 79 200 9 169 11 
195 7 184 105 192 122 80 17 239 
196 9 63 14 48 230 222 85 176 182 81 
197 8 203 106 259 226 146 92 87 22 
198 8 47 89 108 80 105 166 184 195 
199 9 214 121 17 177 27 12 80 192 157 
200 9 88 202 30 216 238 194 18 205 13 
201 6 248 15 189 168 185 226 
202 9 238 205 200 21 149 216 131 30 11 
203 8 197 226 22 259 87 106 92 247 
204 7 98 167 46 208 179 164 53 
205 9 238 149 202 11 82 227 131 213 200 
206 8 65 208 41 72 261 46 219 51 
207 9 103 128 220 120 171 110 157 27 33 
208 6 206 65 261 72 204 46 
209 9 104 222 137 3 235 176 221 63 14 
210 9 117 78 71 219 51 34 116 59 218 
211 9 50 56 116 70 114 260 132 102 240 
212 9 5 9 18 147 90 179 194 169 30 
213 7 82 227 149 205 11 215 131 
214 9 121 199 17 12 27 177 80 157 192 
215 9 54 79 188 169 11 227 5 194 191 
216 9 194 30 18 200 238 11 79 88 212 
217 9 43 40 10 231 69 237 115 29 42 
218 9 78 70 253 116 50 117 132 219 210 
219 9 117 71 51 210 78 34 59 65 41 
220 8 171 103 207 128 68 120 33 110 
221 9 137 8 235 165 209 3 170 104 176 
222 9 63 209 14 196 85 104 176 48 3 
223 9 136 76 162 44 119 130 10 109 256 
224 9 101 16 159 62 181 95 247 142 155 
225 9 234 15 189 191 168 39 133 94 201 
226 7 92 203 197 106 124 22 185 
227 8 213 11 82 215 205 149 54 79 
228 9 4 141 113 77 174 100 6 66 187 
229 7 236 111 179 147 84 9 83 
230 9 48 182 196 63 81 176 14 24 254 
231 9 40 115 43 42 37 217 69 175 125 
232 9 23 64 58 144 29 112 180 67 132 
233 8 173 61 245 151 52 146 95 153 
234 9 225 191 15 133 189 39 168 215 54 
235 9 137 221 165 209 8 176 3 222 104 
236 9 111 83 229 147 84 9 26 179 13 
237 9 93 180 144 91 29 217 43 58 14 
238 9 205 202 200 11 216 149 194 30 21 
239 9 107 122 158 96 192 150 45 129 195 
240 9 260 114 67 85 56 104 211 14 3 
241 9 46 218 253 160 70 65 132 206 78 
242 8 126 152 190 131 246 21 134 156 
243 9 154 251 99 45 258 44 129 162 130 
244 9 35 139 178 74 118 125 36 38 97 
245 7 173 146 61 233 52 106 151 
246 9 186 134 20 145 32 152 156 55 190 
247 9 87 159 62 22 259 203 181 68 197 
248 7 201 15 189 168 185 106 226 
249 6 94 256 109 130 39 44 
250 8 73 124 161 33 96 92 22 251 
251 9 243 154 99 45 73 258 129 250 161 
252 9 127 19 254 24 25 230 148 182 255 
253 9 70 132 218 50 116 211 241 112 56 
254 9 24 252 19 148 127 91 230 255 7 
255 9 148 28 19 7 163 254 24 127 252 
256 7 109 130 249 94 44 39 136 
257 9 38 175 118 37 125 74 139 163 244 
258 9 99 129 57 243 158 193 154 45 107 
259 9 181 62 197 159 203 52 106 87 247 
260 9 240 114 56 67 85 211 104 50 3 
261 7 72 208 206 41 66 65 6 
262 9 60 34 59 51 71 210 117 219 41 
DEPOT_SECTION
   1
   -1
EOF
