NAME :  X-n289-kX-w28-c9.cctp
COMMENT : 	Adapted by Maziero, Usberti and Cavellucci from the Uchoa, Pecin, Pessoa, Poggi, Subramanian, and Vidal (2013)
TYPE :  CCTP
DIMENSION :    151
EDGE_WEIGHT_TYPE : 	EUC_2D	
CAPACITY : 	267
VERTICES_WITHIN_COVERAGE :  9
VERTICES_WITH_DEMAND : 	28
NODE_COORD_SECTION
1 0 0
2 174 325
3 49 34
4 543 815
5 42 920
6 545 80
7 681 950
8 870 118
9 787 220
10 537 927
11 180 838
12 543 582
13 442 620
14 747 569
15 932 48
16 14 356
17 53 476
18 603 228
19 772 573
20 811 359
21 373 37
22 859 142
23 489 543
24 37 771
25 354 944
26 96 62
27 326 729
28 881 541
29 653 724
30 226 759
31 481 44
32 100 882
33 129 299
34 989 512
35 600 42
36 538 772
37 448 624
38 70 468
39 502 909
40 595 503
41 771 355
42 535 775
43 110 835
44 493 652
45 105 479
46 873 333
47 536 120
48 17 65
49 638 958
50 328 921
51 968 540
52 557 864
53 498 832
54 343 962
55 583 474
56 976 636
57 77 544
58 622 728
59 792 443
60 283 63
61 694 214
62 38 91
63 294 791
64 429 815
65 691 154
66 431 909
67 615 264
68 883 478
69 627 564
70 40 434
71 718 660
72 716 586
73 675 244
74 199 880
75 588 662
76 58 700
77 518 554
78 944 282
79 848 305
80 860 100
81 602 620
82 437 55
83 922 348
84 433 776
85 891 306
86 211 731
87 408 859
88 581 746
89 868 337
90 568 646
91 456 81
92 477 162
93 429 844
94 396 41
95 130 972
96 563 135
97 414 696
98 547 90
99 321 27
100 474 629
101 526 440
102 814 534
103 287 975
104 11 791
105 217 331
106 745 430
107 34 925
108 12 489
109 880 525
110 649 744
111 643 684
112 731 709
113 225 726
114 596 265
115 634 256
116 42 480
117 122 330
118 634 888
119 174 366
120 24 40
121 419 444
122 123 355
123 875 393
124 34 517
125 660 798
126 706 738
127 9 455
128 61 343
129 80 515
130 79 416
131 257 315
132 130 120
133 316 692
134 768 627
135 141 84
136 651 231
137 593 205
138 65 479
139 465 504
140 11 435
141 328 87
142 12 139
143 0 426
144 36 551
145 736 914
146 252 343
147 653 922
148 594 876
149 169 35
150 69 12
151 149 103
DEMAND_SECTION
2 73
3 71
4 59
5 29
6 19
7 79
8 27
9 13
10 77
11 21
12 99
13 24
14 71
15 38
16 59
17 56
18 41
19 87
20 28
21 81
22 18
23 49
24 28
25 35
26 86
27 40
28 89
29 75
COVERAGE_SECTION
2 5 119 105 33 117 122 
3 9 120 150 48 26 62 135 142 132 149 
4 9 42 36 53 52 88 148 39 10 64 
5 9 107 32 95 43 104 24 11 74 76 
6 9 98 47 96 35 31 91 92 82 137 
7 5 147 49 145 118 148 
8 9 80 22 15 9 78 65 79 85 61 
9 8 61 79 22 73 65 8 85 41 
10 9 39 52 148 53 118 49 66 4 147 
11 8 74 43 30 32 86 113 63 95 
12 9 77 23 90 81 100 44 69 75 40 
13 9 37 100 44 97 23 77 12 139 90 
14 8 19 72 134 102 71 69 59 28 
15 9 80 8 22 9 78 85 65 79 61 
16 4 128 143 140 70 
17 9 116 138 38 108 70 124 129 127 45 
18 6 137 67 114 115 136 73 
19 8 14 134 72 102 71 28 109 59 
20 9 41 89 79 46 123 59 85 106 83 
21 7 94 99 82 141 60 91 31 
22 9 8 80 9 15 79 78 85 65 61 
23 9 77 139 12 100 13 37 44 101 40 
24 7 104 76 43 32 5 107 11 
25 9 54 50 103 66 87 93 64 39 63 
26 9 135 3 150 62 132 151 120 149 48 
27 7 133 63 97 113 30 86 84 
28 9 109 68 102 51 34 19 59 56 14 
29 9 110 58 111 126 125 88 112 75 71 
30 7 86 113 63 11 27 133 74 
31 9 82 91 6 98 94 47 21 92 35 
32 9 43 5 107 11 95 74 104 24 30 
33 2 117 2 
34 7 51 109 68 28 56 123 102 
35 9 6 98 96 47 31 65 91 137 82 
36 9 42 4 88 53 52 58 84 110 64 
37 9 13 100 44 97 23 77 12 139 90 
38 7 138 17 116 45 70 129 130 
39 9 10 52 66 53 93 148 4 87 64 
40 7 55 69 77 101 12 23 81 
41 6 20 106 59 79 89 46 
42 9 36 4 88 53 52 58 84 64 148 
43 9 32 11 24 74 104 5 107 95 30 
44 9 100 37 13 90 12 97 75 77 23 
45 5 38 138 129 17 116 
46 8 89 85 79 83 123 20 78 41 
47 8 96 98 6 92 91 31 35 137 
48 8 120 62 3 142 150 26 135 132 
49 7 147 7 118 148 10 145 52 
50 9 25 54 103 87 66 93 63 74 64 
51 6 34 28 109 56 68 102 
52 9 148 4 10 53 39 118 42 36 147 
53 9 4 52 42 93 64 36 39 84 87 
54 9 25 50 103 66 87 93 74 39 64 
55 6 40 101 69 77 12 23 
56 4 51 34 28 109 
57 6 129 144 124 138 45 17 
58 9 29 110 88 111 75 125 126 36 90 
59 7 106 20 41 102 68 123 109 
60 5 141 99 21 94 149 
61 7 73 136 65 115 18 9 67 
62 7 48 120 142 3 26 150 132 
63 9 27 30 113 133 86 11 74 87 50 
64 9 93 84 87 53 66 42 4 36 39 
65 8 61 136 73 137 18 9 115 96 
66 9 87 93 39 25 64 53 54 50 10 
67 4 114 115 18 136 
68 8 109 28 123 102 59 51 34 83 
69 8 81 40 12 72 55 90 75 77 
70 6 140 127 143 130 17 38 
71 7 112 134 72 111 126 29 14 
72 8 14 19 134 71 69 102 81 111 
73 6 136 61 115 67 18 114 
74 9 11 32 43 95 30 103 63 50 86 
75 9 90 81 111 58 88 29 12 44 110 
76 2 24 104 
77 9 23 12 139 100 40 37 13 44 55 
78 7 85 83 46 89 79 123 20 
79 9 46 89 85 20 83 41 123 78 9 
80 9 8 22 15 9 65 78 61 79 85 
81 9 90 75 69 12 111 77 58 44 29 
82 8 91 94 31 21 6 92 141 98 
83 7 46 85 89 123 78 79 20 
84 9 64 93 97 53 87 42 36 4 27 
85 8 46 89 79 83 78 123 20 41 
86 6 113 30 63 11 133 27 
87 9 93 64 66 84 53 25 50 39 54 
88 9 58 36 42 110 29 4 75 111 125 
89 8 46 79 85 83 123 20 78 41 
90 9 75 81 12 44 111 100 58 69 88 
91 8 82 31 94 92 6 47 98 21 
92 5 47 91 96 98 6 
93 9 87 64 66 84 53 39 4 25 42 
94 7 21 82 91 99 141 31 60 
95 9 32 5 107 74 43 11 103 50 54 
96 8 47 98 6 137 92 35 18 91 
97 9 37 13 84 44 100 27 133 64 36 
98 9 6 47 96 35 31 91 92 82 137 
99 6 60 21 141 94 82 91 
100 9 37 44 13 12 23 77 97 90 75 
101 6 55 139 40 121 23 77 
102 9 19 28 109 14 68 59 134 72 106 
103 9 54 50 25 74 95 66 87 11 63 
104 7 24 76 43 32 5 107 11 
105 7 146 2 131 119 33 117 122 
106 3 59 41 20 
107 9 5 32 95 43 104 24 11 74 76 
108 9 116 127 124 17 138 140 38 70 143 
109 9 28 68 102 51 34 19 59 123 14 
110 6 29 58 125 126 111 88 
111 9 29 58 75 110 81 71 126 90 88 
112 3 126 71 29 
113 5 86 30 63 133 27 
114 3 67 18 115 
115 5 67 136 114 18 73 
116 9 17 138 38 108 124 127 70 129 140 
117 3 122 33 2 
118 7 147 148 49 7 52 125 10 
119 6 2 122 105 117 33 146 
120 8 3 48 62 150 26 142 135 132 
121 4 139 101 23 77 
122 4 117 119 33 2 
123 8 89 46 83 20 68 85 79 59 
124 9 144 108 116 17 129 138 57 38 127 
125 4 110 29 126 58 
126 4 112 29 110 125 
127 6 140 143 108 70 116 17 
128 2 16 117 
129 6 57 138 45 124 17 38 
130 4 70 38 17 138 
131 5 146 105 2 119 33 
132 3 151 135 26 
133 6 27 113 97 63 30 86 
134 6 19 71 14 72 112 102 
135 4 151 132 26 149 
136 7 73 115 61 18 67 137 114 
137 7 18 114 67 136 115 96 73 
138 9 17 38 116 129 45 124 70 108 127 
139 8 23 77 121 101 12 13 37 55 
140 6 143 127 70 108 116 17 
141 5 60 99 21 94 82 
142 4 62 48 120 3 
143 6 140 127 70 108 116 16 
144 6 124 57 129 108 116 17 
145 3 7 147 118 
146 6 131 105 2 119 122 33 
147 7 49 118 7 148 145 52 10 
148 8 52 118 147 10 4 49 39 125 
149 5 135 151 26 132 150 
150 9 3 120 26 48 62 135 149 151 132 
151 4 135 132 26 149 
DEPOT_SECTION
   1
   -1
EOF
