NAME :  X-n266-kX-w53-c9.cctp
COMMENT : 	Adapted by Maziero, Usberti and Cavellucci from the Uchoa, Pecin, Pessoa, Poggi, Subramanian, and Vidal (2013)
TYPE :  CCTP
DIMENSION :    211
EDGE_WEIGHT_TYPE : 	EUC_2D	
CAPACITY : 	35
VERTICES_WITHIN_COVERAGE :  9
VERTICES_WITH_DEMAND : 	53
NODE_COORD_SECTION
1 143 12
2 206 907
3 895 855
4 640 970
5 865 716
6 993 356
7 618 966
8 963 539
9 50 979
10 241 998
11 32 206
12 288 926
13 299 507
14 336 180
15 589 726
16 665 488
17 36 521
18 112 895
19 814 442
20 843 474
21 17 258
22 360 273
23 814 537
24 775 524
25 825 471
26 321 87
27 773 958
28 119 166
29 368 928
30 193 250
31 452 919
32 736 322
33 386 911
34 624 313
35 694 398
36 186 803
37 948 721
38 216 973
39 915 641
40 238 810
41 946 172
42 23 561
43 613 657
44 359 434
45 604 96
46 56 554
47 862 723
48 222 161
49 974 838
50 775 67
51 815 880
52 204 362
53 435 760
54 593 358
55 203 435
56 882 803
57 194 739
58 380 323
59 836 461
60 537 136
61 789 669
62 956 1000
63 98 295
64 656 410
65 580 959
66 594 64
67 262 31
68 522 339
69 960 74
70 237 910
71 353 828
72 721 524
73 185 679
74 703 303
75 923 491
76 444 792
77 987 930
78 113 210
79 907 45
80 383 799
81 209 192
82 34 820
83 464 717
84 837 536
85 202 94
86 177 341
87 551 3
88 835 467
89 128 655
90 988 937
91 179 369
92 487 765
93 975 406
94 365 411
95 440 41
96 607 487
97 57 898
98 161 707
99 0 517
100 210 88
101 524 195
102 682 409
103 608 55
104 16 909
105 846 379
106 183 242
107 586 182
108 948 682
109 324 44
110 339 188
111 629 32
112 589 805
113 934 907
114 848 633
115 890 973
116 98 787
117 964 391
118 171 837
119 261 409
120 637 133
121 541 313
122 946 388
123 818 503
124 887 643
125 981 839
126 585 570
127 288 219
128 707 525
129 56 193
130 120 163
131 304 158
132 66 150
133 184 395
134 39 224
135 277 43
136 380 496
137 620 623
138 367 300
139 347 401
140 435 235
141 242 543
142 321 572
143 625 361
144 651 354
145 673 531
146 348 126
147 75 271
148 859 379
149 747 578
150 257 92
151 78 288
152 257 383
153 343 279
154 668 383
155 686 499
156 298 392
157 347 264
158 321 280
159 691 402
160 59 174
161 592 424
162 667 384
163 312 489
164 382 227
165 84 311
166 378 58
167 88 62
168 198 132
169 76 112
170 689 522
171 327 293
172 292 538
173 171 142
174 696 506
175 234 718
176 430 247
177 727 571
178 614 295
179 803 537
180 765 571
181 270 251
182 327 164
183 218 562
184 127 121
185 769 443
186 821 500
187 310 87
188 770 527
189 232 256
190 410 281
191 147 223
192 352 172
193 208 116
194 440 59
195 256 195
196 294 460
197 752 289
198 728 554
199 660 422
200 857 655
201 228 318
202 607 505
203 634 426
204 331 128
205 459 681
206 364 278
207 395 494
208 134 149
209 79 208
210 193 203
211 381 435
DEMAND_SECTION
2 5
3 5
4 5
5 5
6 6
7 10
8 10
9 10
10 9
11 9
12 5
13 9
14 5
15 6
16 7
17 6
18 10
19 6
20 5
21 10
22 6
23 10
24 7
25 6
26 9
27 5
28 5
29 8
30 7
31 9
32 6
33 10
34 8
35 9
36 7
37 9
38 5
39 9
40 8
41 10
42 8
43 10
44 10
45 8
46 6
47 7
48 9
49 8
50 8
51 9
52 10
53 5
54 10
COVERAGE_SECTION
2 9 70 38 118 12 18 10 40 36 97 
3 9 56 113 49 51 125 115 77 90 47 
4 9 7 65 27 112 31 51 15 115 92 
5 9 47 200 124 37 114 56 61 39 108 
6 9 117 93 122 148 105 75 8 59 41 
7 9 4 65 27 112 31 51 33 92 15 
8 9 75 39 84 124 93 20 108 88 186 
9 9 104 97 18 82 38 2 118 10 116 
10 9 38 12 70 2 29 18 33 118 40 
11 9 134 129 160 209 21 132 147 78 151 
12 9 70 29 2 10 38 33 71 40 118 
13 7 163 172 196 141 142 136 44 
14 9 110 182 192 131 204 146 127 164 195 
15 6 43 112 137 92 83 205 
16 9 155 174 170 145 128 96 202 199 72 
17 7 99 46 42 89 183 55 133 
18 9 97 118 2 104 9 82 116 36 70 
19 9 59 25 88 20 185 186 123 105 148 
20 9 88 59 25 186 123 19 84 23 179 
21 9 134 11 147 151 129 209 165 63 160 
22 9 206 157 153 138 171 158 164 190 58 
23 9 179 84 123 186 24 188 180 25 20 
24 9 188 179 23 123 180 186 72 198 149 
25 9 88 59 20 186 19 123 185 84 23 
26 9 187 204 109 146 135 150 166 131 182 
27 9 51 115 4 7 3 113 62 56 65 
28 9 130 208 78 184 132 173 209 160 191 
29 9 33 12 31 71 80 70 10 76 38 
30 8 106 189 210 191 81 201 181 195 
31 9 33 29 76 65 71 80 92 53 12 
32 9 197 74 35 144 154 159 162 102 34 
33 9 29 31 71 12 80 76 70 53 10 
34 9 178 143 144 54 74 121 154 162 64 
35 9 159 102 154 162 64 199 144 203 143 
36 9 118 40 57 116 175 98 2 18 70 
37 9 108 5 47 39 124 56 200 49 125 
38 9 10 70 2 12 18 118 29 40 9 
39 9 124 108 200 114 37 5 47 8 61 
40 9 36 118 57 175 70 2 71 12 98 
41 9 69 79 6 50 122 117 148 197 105 
42 8 46 17 99 89 183 73 98 55 
43 4 137 15 126 145 
44 8 211 94 139 136 196 207 163 156 
45 8 66 103 120 111 60 107 87 101 
46 8 42 17 99 89 183 73 98 141 
47 9 5 200 56 124 37 61 114 108 39 
48 9 81 168 193 195 210 173 85 100 150 
49 9 125 113 3 77 56 90 37 108 115 
50 9 79 111 120 103 45 66 69 41 107 
51 9 3 27 56 115 113 47 49 5 125 
52 8 91 86 133 201 152 55 119 156 
53 6 76 83 92 80 205 71 
54 9 143 34 144 161 178 121 68 162 154 
55 9 133 119 91 52 152 196 86 156 141 
56 9 3 47 5 49 51 37 125 113 108 
57 8 175 98 73 36 40 118 89 116 
58 4 138 206 190 22 
59 9 88 20 25 19 186 123 185 84 23 
60 6 101 107 45 66 120 103 
61 9 114 200 5 47 149 124 180 177 39 
62 9 90 115 77 113 3 49 125 51 27 
63 6 151 165 147 78 191 21 
64 9 199 102 203 162 154 159 35 144 143 
65 9 7 4 31 112 27 33 29 76 92 
66 8 103 45 111 87 120 60 107 101 
67 8 135 150 109 187 100 26 85 193 
68 5 121 54 178 34 143 
69 9 79 41 50 6 197 122 117 148 105 
70 9 2 12 38 10 118 40 36 18 29 
71 9 80 33 76 29 53 40 12 31 70 
72 9 128 174 198 170 155 177 145 188 24 
73 8 98 57 89 175 183 36 116 40 
74 9 32 197 144 34 154 162 178 35 143 
75 9 8 20 88 59 84 25 93 186 122 
76 9 53 92 80 83 71 205 31 33 112 
77 9 90 113 62 125 49 115 3 56 51 
78 8 209 191 28 130 129 160 208 147 
79 9 69 41 50 111 120 197 103 45 66 
80 9 71 76 53 92 33 83 29 31 205 
81 9 210 48 195 106 30 168 173 189 191 
82 9 116 97 104 18 118 36 9 98 57 
83 4 205 53 92 76 
84 9 23 179 123 186 20 24 25 188 88 
85 6 100 193 168 150 173 48 
86 7 91 52 133 201 152 63 30 
87 8 66 103 111 45 95 194 60 120 
88 9 59 20 25 19 186 123 84 185 23 
89 8 73 98 57 175 46 183 116 42 
90 9 77 113 62 125 49 115 3 56 51 
91 7 52 133 86 55 201 152 119 
92 7 76 53 83 205 15 80 112 
93 9 117 122 6 75 148 105 8 20 59 
94 4 139 44 211 156 
95 7 194 166 109 87 146 26 60 
96 5 202 16 161 203 145 
97 9 104 18 9 82 116 118 2 36 38 
98 8 73 57 89 175 36 116 40 118 
99 7 17 42 46 89 55 133 165 
100 7 85 193 168 150 173 48 67 
101 7 60 107 140 176 121 45 120 
102 9 159 35 64 199 162 154 203 144 143 
103 8 66 111 45 87 120 60 107 101 
104 9 97 9 82 18 116 118 2 36 38 
105 9 148 19 59 88 25 20 122 185 117 
106 8 30 210 191 189 81 78 181 195 
107 7 101 60 120 45 178 66 103 
108 9 37 39 124 5 47 200 114 56 8 
109 9 26 187 135 166 67 150 204 146 95 
110 9 14 192 182 131 164 127 204 146 157 
111 8 103 66 45 87 120 60 50 107 
112 9 15 92 76 43 83 65 53 7 4 
113 9 77 90 3 115 49 125 62 56 51 
114 9 200 124 39 61 5 47 84 23 180 
115 9 62 113 90 77 3 27 51 49 125 
116 9 82 118 36 98 57 18 97 89 73 
117 9 122 93 6 148 75 105 59 20 8 
118 9 36 40 2 18 116 70 57 97 98 
119 8 152 156 196 55 52 133 139 91 
120 9 45 107 66 103 60 111 101 50 87 
121 7 68 54 178 34 143 144 101 
122 9 117 93 6 148 105 75 59 20 88 
123 9 186 25 23 179 20 84 88 59 24 
124 9 39 200 114 108 5 47 37 61 84 
125 9 49 113 3 77 90 56 37 108 115 
126 4 137 202 96 43 
127 9 181 195 110 14 131 182 189 158 157 
128 8 72 170 174 155 145 198 177 16 
129 9 160 11 209 134 132 78 28 130 21 
130 9 28 208 184 78 173 132 209 160 191 
131 9 182 14 204 110 192 146 195 127 187 
132 9 160 169 129 28 130 209 11 184 208 
133 8 91 52 55 86 152 119 201 156 
134 9 11 129 21 209 160 147 78 151 132 
135 9 67 109 150 187 26 100 85 193 204 
136 4 207 211 44 163 
137 5 43 126 145 15 177 
138 6 206 58 22 153 157 171 
139 5 94 44 211 156 196 
140 6 176 190 164 206 22 157 
141 6 183 172 13 142 163 196 
142 2 172 13 
143 9 144 54 34 154 162 64 203 178 199 
144 9 143 154 162 34 64 54 35 159 102 
145 8 170 174 128 155 16 72 198 177 
146 9 204 182 192 26 131 187 14 110 166 
147 7 151 63 165 21 134 209 78 
148 9 105 19 59 122 88 20 25 117 185 
149 8 180 177 198 188 72 24 128 179 
150 9 100 135 187 85 193 67 26 168 48 
151 6 147 63 165 21 134 209 
152 8 119 156 52 201 133 55 91 196 
153 7 157 22 171 206 158 138 58 
154 9 162 35 64 102 159 144 199 143 203 
155 8 174 170 16 128 145 72 198 202 
156 7 119 152 139 196 94 44 211 
157 9 22 153 206 158 171 138 164 190 58 
158 8 171 153 157 22 206 138 181 127 
159 9 35 102 154 162 64 199 144 203 143 
160 9 129 132 209 11 134 28 130 169 78 
161 6 203 96 54 64 199 143 
162 9 154 64 102 35 159 144 199 143 203 
163 8 13 196 172 136 44 142 207 141 
164 9 22 157 176 140 206 110 190 192 153 
165 6 63 151 147 21 86 134 
166 8 109 194 26 95 146 187 204 135 
167 6 169 184 132 208 130 28 
168 9 193 173 48 85 100 81 208 150 210 
169 8 132 167 184 160 130 28 208 129 
170 8 174 128 145 155 72 16 198 177 
171 7 158 153 157 22 206 138 58 
172 6 13 142 141 163 183 196 
173 9 168 208 193 184 48 130 28 85 81 
174 8 155 170 128 72 145 16 198 177 
175 6 57 73 98 40 36 89 
176 7 140 190 164 206 22 138 157 
177 8 198 149 180 72 128 170 188 24 
178 9 34 54 143 144 121 74 68 154 162 
179 9 23 24 84 188 123 186 180 149 25 
180 8 149 177 198 188 24 179 23 72 
181 9 127 189 195 158 171 30 153 157 201 
182 9 14 131 192 110 204 146 127 26 195 
183 6 141 172 13 142 163 73 
184 8 208 130 28 173 169 132 167 168 
185 9 19 25 59 88 123 186 20 24 188 
186 9 123 25 20 88 23 84 179 59 24 
187 9 26 109 204 150 146 135 131 67 166 
188 9 24 179 180 23 72 198 123 149 186 
189 9 181 30 106 201 195 210 127 81 191 
190 6 176 206 138 22 58 140 
191 8 78 106 210 30 28 130 81 209 
192 9 14 110 182 146 204 131 164 127 26 
193 9 168 85 100 173 48 150 81 184 208 
194 6 95 166 146 109 26 60 
195 9 127 81 48 181 131 210 189 182 14 
196 9 163 13 119 156 44 172 139 152 94 
197 9 32 74 144 35 154 162 159 34 105 
198 8 177 72 149 128 180 170 188 24 
199 9 64 102 203 159 162 154 35 16 161 
200 9 114 124 39 5 47 61 108 37 84 
201 8 52 86 189 91 152 30 181 106 
202 5 96 16 126 145 155 
203 9 199 64 161 102 162 154 159 35 143 
204 9 146 182 131 26 187 192 14 110 150 
205 2 83 53 
206 8 22 153 138 157 171 158 190 58 
207 3 136 211 44 
208 9 130 28 184 173 78 168 132 169 191 
209 9 129 78 160 134 11 28 132 130 147 
210 9 81 106 30 191 48 195 173 189 168 
211 7 44 94 139 136 207 163 196 
DEPOT_SECTION
   1
   -1
EOF
