NAME :  X-n204-kX-w40-c7.cctp
COMMENT : 	Adapted by Maziero, Usberti and Cavellucci from the Uchoa, Pecin, Pessoa, Poggi, Subramanian, and Vidal (2013)
TYPE :  CCTP
DIMENSION :    141
EDGE_WEIGHT_TYPE : 	EUC_2D	
CAPACITY : 	836
VERTICES_WITHIN_COVERAGE :  7
VERTICES_WITH_DEMAND : 	40
NODE_COORD_SECTION
1 500 500
2 221 542
3 320 456
4 576 827
5 679 994
6 371 461
7 961 844
8 986 379
9 175 540
10 126 517
11 329 626
12 477 890
13 191 356
14 584 917
15 308 653
16 0 7
17 273 302
18 672 381
19 235 415
20 583 149
21 672 124
22 644 646
23 400 544
24 832 999
25 842 964
26 582 965
27 544 311
28 429 2
29 939 849
30 898 605
31 363 130
32 639 874
33 323 201
34 829 350
35 7 53
36 801 92
37 57 330
38 943 0
39 579 275
40 833 402
41 408 940
42 635 871
43 631 630
44 733 313
45 344 619
46 628 291
47 674 92
48 38 354
49 668 279
50 510 811
51 366 16
52 49 182
53 528 946
54 271 745
55 405 872
56 622 488
57 668 978
58 939 73
59 556 632
60 586 348
61 951 167
62 247 997
63 992 460
64 746 847
65 279 459
66 364 167
67 656 687
68 547 792
69 517 152
70 252 618
71 184 96
72 590 47
73 348 609
74 777 112
75 528 198
76 877 457
77 812 650
78 864 723
79 584 875
80 817 233
81 439 447
82 560 994
83 818 658
84 447 951
85 969 519
86 488 401
87 399 181
88 141 22
89 29 248
90 313 643
91 294 475
92 332 440
93 242 943
94 96 492
95 62 541
96 119 370
97 342 587
98 90 370
99 321 337
100 287 454
101 364 560
102 351 232
103 216 497
104 188 327
105 175 352
106 281 702
107 247 645
108 424 677
109 438 666
110 454 547
111 354 242
112 96 387
113 462 532
114 343 658
115 127 368
116 245 363
117 356 488
118 259 410
119 196 492
120 303 336
121 285 277
122 167 560
123 328 277
124 355 399
125 236 522
126 308 118
127 345 467
128 250 337
129 232 388
130 498 308
131 362 702
132 105 507
133 245 521
134 576 280
135 257 647
136 423 470
137 206 467
138 241 305
139 210 392
140 371 627
141 219 344
DEMAND_SECTION
2 61
3 96
4 52
5 58
6 81
7 76
8 51
9 98
10 65
11 84
12 63
13 79
14 89
15 70
16 93
17 84
18 100
19 70
20 52
21 86
22 69
23 50
24 59
25 79
26 53
27 66
28 65
29 70
30 74
31 86
32 77
33 83
34 50
35 76
36 62
37 73
38 54
39 100
40 99
41 59
COVERAGE_SECTION
2 6 125 133 103 9 119 122 
3 7 92 127 91 100 65 117 6 
4 7 68 79 50 42 32 14 12 
5 7 57 26 82 14 32 42 79 
6 7 127 117 92 3 136 124 81 
7 7 29 78 25 24 64 83 77 
8 7 63 76 85 40 34 61 80 
9 6 122 2 119 10 103 125 
10 5 132 94 9 122 95 
11 7 45 90 73 15 114 97 140 
12 7 84 55 53 41 50 79 14 
13 7 105 104 141 139 129 116 128 
14 7 79 26 53 42 32 82 4 
15 7 90 11 114 45 135 106 73 
16 7 35 88 52 71 89 126 37 
17 7 121 138 128 120 99 123 116 
18 7 44 60 46 49 56 134 39 
19 5 118 129 139 116 137 
20 5 69 75 21 72 47 
21 7 47 20 74 72 36 49 69 
22 7 43 67 59 56 77 83 68 
23 7 101 110 113 117 97 136 73 
24 7 25 5 57 64 29 7 32 
25 7 24 29 64 5 7 57 32 
26 7 82 14 53 57 79 5 32 
27 5 134 130 39 60 46 
28 6 51 31 72 126 69 66 
29 7 7 78 25 24 64 83 77 
30 7 83 77 85 78 76 63 40 
31 4 66 126 87 33 
32 7 42 79 14 4 26 57 64 
33 7 102 111 66 123 87 31 126 
34 7 40 44 76 80 8 18 49 
35 7 16 52 88 71 89 37 48 
36 7 74 47 21 58 80 61 38 
37 6 48 98 112 96 115 89 
38 7 58 61 36 74 80 47 21 
39 7 134 27 46 60 130 49 75 
40 7 34 76 44 8 18 63 80 
41 7 84 55 12 53 82 50 93 
42 7 32 79 14 4 26 57 64 
43 7 22 67 59 56 68 77 83 
44 7 49 18 34 46 80 40 60 
45 7 73 11 140 97 90 114 15 
46 7 49 39 134 60 27 18 44 
47 7 21 72 74 20 36 69 75 
48 6 37 98 112 96 115 89 
49 7 46 44 39 134 18 60 27 
50 7 68 4 12 79 55 14 53 
51 5 28 31 126 66 87 
52 7 89 35 37 71 48 16 88 
53 7 26 82 14 12 84 79 41 
54 5 106 15 135 131 107 
55 6 41 12 84 50 53 68 
56 7 18 43 60 59 22 86 113 
57 7 5 26 14 32 82 42 79 
58 7 38 61 36 74 80 47 21 
59 7 43 22 67 109 110 113 108 
60 7 27 134 46 39 18 130 49 
61 7 58 80 38 36 74 8 34 
62 2 93 41 
63 7 85 8 76 40 30 34 77 
64 7 32 42 25 57 5 79 4 
65 3 100 91 3 
66 5 31 87 33 102 126 
67 7 22 43 59 68 77 4 83 
68 7 50 4 79 42 12 32 14 
69 2 75 20 
70 7 107 135 15 90 11 2 106 
71 7 88 126 52 33 31 35 66 
72 6 47 20 21 69 75 28 
73 7 45 97 11 140 90 114 101 
74 7 36 47 21 80 58 61 20 
75 2 69 20 
76 7 40 85 63 34 8 30 44 
77 7 83 78 30 67 22 43 76 
78 7 83 77 30 29 7 64 67 
79 7 14 4 42 32 26 53 68 
80 7 44 34 74 36 61 49 40 
81 6 136 86 6 113 117 127 
82 7 26 53 14 57 5 79 84 
83 7 77 78 30 67 22 43 64 
84 7 41 12 53 55 82 26 14 
85 7 63 76 30 8 40 77 83 
86 5 81 130 136 27 60 
87 2 66 31 
88 7 71 35 16 52 126 51 31 
89 7 52 37 48 98 96 112 115 
90 7 15 11 114 45 73 135 140 
91 3 65 100 3 
92 7 3 127 6 100 124 91 117 
93 2 62 41 
94 4 132 10 95 9 
95 3 132 94 10 
96 5 115 98 112 105 13 
97 6 73 45 101 11 140 90 
98 5 112 96 115 37 48 
99 3 120 17 123 
100 4 65 91 3 92 
101 6 97 23 73 45 140 117 
102 6 111 33 123 66 87 121 
103 5 119 125 137 133 2 
104 7 105 13 141 138 128 116 139 
105 7 13 104 141 115 139 96 129 
106 7 54 15 135 107 90 114 131 
107 6 135 70 15 90 106 11 
108 7 109 131 140 114 45 73 11 
109 7 108 140 131 114 45 73 11 
110 7 113 23 136 101 81 117 140 
111 5 102 123 33 66 87 
112 5 98 96 115 48 37 
113 7 110 23 136 81 101 6 117 
114 7 90 11 15 45 140 131 73 
115 5 96 112 98 105 13 
116 7 128 129 141 139 118 19 13 
117 7 127 6 3 92 91 136 23 
118 6 19 129 116 100 139 65 
119 5 103 137 125 9 2 
120 5 99 17 128 121 116 
121 7 17 123 138 120 128 99 111 
122 3 9 2 10 
123 6 121 111 102 17 99 120 
124 3 92 6 3 
125 3 133 2 103 
126 7 31 66 33 87 51 102 71 
127 7 117 3 6 92 91 100 65 
128 7 116 141 138 17 120 129 13 
129 7 139 19 116 118 141 13 128 
130 2 27 134 
131 7 114 108 15 140 90 106 11 
132 4 94 10 95 9 
133 3 125 2 103 
134 6 39 27 46 60 130 49 
135 6 107 70 15 90 106 11 
136 7 81 6 117 113 23 127 110 
137 4 119 103 19 125 
138 7 17 128 141 121 104 116 120 
139 7 129 19 13 116 141 118 105 
140 7 45 73 11 114 97 90 101 
141 7 13 116 128 104 105 138 129 
DEPOT_SECTION
   1
   -1
EOF
