NAME :  X-n209-kX-w20-c11.cctp
COMMENT : 	Adapted by Maziero, Usberti and Cavellucci from the Uchoa, Pecin, Pessoa, Poggi, Subramanian, and Vidal (2013)
TYPE :  CCTP
DIMENSION :    162
EDGE_WEIGHT_TYPE : 	EUC_2D	
CAPACITY : 	101
VERTICES_WITHIN_COVERAGE :  11
VERTICES_WITH_DEMAND : 	20
NODE_COORD_SECTION
1 0 0
2 487 949
3 492 770
4 150 556
5 130 719
6 962 393
7 54 890
8 861 705
9 338 631
10 119 741
11 48 296
12 982 827
13 18 954
14 558 698
15 857 337
16 963 72
17 218 46
18 705 484
19 315 3
20 331 358
21 688 156
22 314 338
23 381 924
24 968 10
25 797 382
26 733 544
27 956 878
28 257 778
29 880 401
30 245 168
31 973 29
32 888 919
33 943 703
34 364 248
35 932 60
36 663 990
37 85 708
38 801 330
39 261 91
40 163 953
41 237 336
42 791 356
43 356 726
44 260 412
45 630 144
46 356 444
47 448 320
48 987 333
49 691 109
50 83 716
51 395 818
52 605 769
53 633 162
54 651 644
55 221 4
56 551 912
57 762 604
58 337 41
59 156 318
60 756 357
61 749 173
62 717 4
63 337 441
64 759 103
65 615 132
66 42 268
67 952 2
68 989 303
69 471 821
70 650 215
71 61 459
72 391 405
73 643 744
74 324 620
75 559 449
76 92 914
77 133 607
78 988 415
79 943 616
80 764 6
81 659 250
82 766 532
83 730 338
84 850 489
85 997 183
86 127 966
87 781 68
88 884 92
89 438 673
90 591 658
91 928 894
92 107 816
93 581 799
94 46 288
95 379 725
96 186 490
97 947 161
98 230 722
99 40 891
100 362 568
101 26 614
102 396 104
103 756 658
104 818 433
105 236 62
106 314 56
107 789 828
108 626 677
109 626 156
110 207 461
111 566 842
112 135 983
113 956 181
114 5 209
115 10 57
116 499 617
117 975 194
118 882 465
119 716 147
120 77 480
121 742 233
122 869 824
123 999 514
124 748 391
125 366 917
126 0 9
127 260 359
128 278 711
129 422 445
130 341 448
131 683 498
132 930 690
133 184 567
134 257 360
135 783 645
136 978 688
137 343 552
138 675 414
139 386 86
140 863 973
141 958 176
142 391 824
143 228 93
144 938 995
145 159 343
146 698 106
147 896 169
148 361 937
149 201 120
150 158 852
151 786 630
152 91 909
153 291 333
154 575 931
155 60 763
156 154 302
157 612 394
158 70 159
159 972 987
160 34 241
161 878 485
162 885 205
DEMAND_SECTION
2 7
3 6
4 7
5 8
6 10
7 7
8 7
9 10
10 8
11 5
12 6
13 5
14 6
15 5
16 8
17 5
18 8
19 6
20 6
21 7
COVERAGE_SECTION
2 11 56 154 23 125 148 69 111 142 51 93 3 
3 11 69 93 14 111 51 89 52 142 95 43 90 
4 7 133 77 96 120 110 71 101 
5 11 10 37 50 155 92 98 77 150 28 101 128 
6 11 78 48 29 68 118 15 161 123 84 104 25 
7 10 99 152 76 13 92 86 150 112 40 155 
8 10 132 33 135 151 103 136 122 79 57 107 
9 8 74 100 137 43 128 95 89 98 
10 10 5 50 37 155 92 98 150 77 28 101 
11 10 94 66 160 114 156 59 145 158 71 120 
12 11 27 91 122 33 32 136 132 159 8 144 140 
13 10 99 7 76 152 86 112 40 92 150 155 
14 10 90 108 52 73 3 116 93 54 89 111 
15 11 38 29 42 25 60 104 6 124 83 48 118 
16 11 35 31 24 67 88 97 141 113 85 147 117 
17 9 105 55 143 39 149 106 19 58 30 
18 10 131 26 138 82 124 104 157 57 25 60 
19 10 58 106 55 105 39 17 139 143 102 149 
20 11 22 153 127 134 72 63 44 46 130 41 34 
21 11 119 49 146 53 45 109 61 70 65 64 121 
22 11 153 20 127 134 41 44 72 34 63 130 46 
23 5 125 148 142 51 2 
24 11 67 31 16 35 88 97 141 113 85 147 117 
25 10 42 60 124 38 104 15 83 29 84 118 
26 10 82 18 57 131 151 135 103 54 84 104 
27 10 91 12 32 122 159 144 140 107 33 132 
28 6 98 128 43 150 95 5 
29 11 118 15 104 6 161 25 84 42 38 78 48 
30 8 149 143 39 105 17 106 34 58 
31 11 24 67 16 35 88 97 141 113 85 147 117 
32 8 91 140 27 144 122 159 12 107 
33 9 132 136 8 79 12 122 135 151 27 
34 5 22 47 153 20 30 
35 11 16 31 88 67 24 97 147 141 113 85 117 
36 7 154 56 111 2 140 107 93 
37 11 50 5 10 155 92 101 77 98 150 4 133 
38 9 42 25 60 15 83 124 104 29 121 
39 9 143 105 17 106 149 30 58 55 19 
40 7 86 112 76 152 150 7 99 
41 9 134 127 153 22 145 44 59 156 20 
42 9 25 38 60 124 83 15 104 29 138 
43 10 95 128 9 89 51 142 74 28 98 3 
44 7 134 127 110 41 63 153 20 
45 10 109 53 65 21 49 70 146 119 81 61 
46 6 130 63 72 129 20 44 
47 3 72 34 20 
48 11 68 6 78 29 15 117 85 113 141 162 118 
49 11 146 119 21 64 45 53 65 109 61 87 62 
50 11 37 10 5 155 92 101 77 98 150 4 7 
51 8 142 69 95 43 125 23 3 148 
52 8 93 73 111 14 108 90 3 54 
53 10 109 45 65 21 70 49 119 146 81 61 
54 8 108 90 73 103 14 57 26 135 
55 10 17 105 143 19 39 106 149 58 30 139 
56 9 154 111 2 93 69 36 52 3 23 
57 8 151 135 103 26 82 54 131 18 
58 9 106 19 139 102 39 105 17 143 55 
59 8 156 145 41 134 11 127 94 66 
60 9 83 42 124 25 38 104 138 15 121 
61 11 119 121 21 64 146 49 70 87 53 81 45 
62 9 80 87 146 49 64 119 21 65 45 
63 6 130 46 72 44 20 129 
64 11 87 146 119 49 61 21 80 62 88 121 45 
65 8 45 109 53 21 49 146 70 119 
66 10 94 160 11 114 158 156 59 145 71 41 
67 11 24 31 35 16 88 97 141 147 113 87 85 
68 11 48 6 117 78 85 113 141 15 162 29 97 
69 11 3 51 142 111 93 56 2 95 23 125 52 
70 10 81 53 109 21 45 65 121 119 61 49 
71 9 120 96 4 110 145 101 11 133 77 
72 7 129 46 63 130 20 22 47 
73 8 52 108 93 14 54 90 111 103 
74 8 9 100 137 128 43 95 89 98 
75 5 157 138 131 129 18 
76 9 152 7 99 86 40 112 13 150 92 
77 11 4 133 101 5 37 50 96 10 120 98 110 
78 10 6 48 123 29 68 118 161 15 84 104 
79 9 132 136 33 123 8 161 84 151 118 
80 11 62 87 64 146 49 88 119 21 61 35 67 
81 7 70 121 53 21 109 45 83 
82 9 26 57 18 131 84 151 104 135 161 
83 9 60 124 42 38 25 138 121 81 15 
84 9 161 118 104 29 82 25 26 124 18 
85 11 117 141 113 97 147 162 16 68 35 88 48 
86 8 112 40 76 152 7 13 99 150 
87 11 64 80 62 146 49 119 88 61 21 35 147 
88 11 35 147 16 97 87 31 141 67 162 113 24 
89 10 95 116 43 9 3 14 74 100 51 69 
90 8 108 14 54 73 116 52 93 3 
91 10 27 32 12 122 144 140 159 107 33 8 
92 10 150 155 10 7 152 76 5 99 50 37 
93 10 52 111 73 3 14 69 56 108 154 90 
94 10 11 66 160 114 156 59 145 158 71 120 
95 10 43 89 51 142 128 9 74 3 28 69 
96 7 110 4 133 44 120 77 71 
97 11 141 113 117 147 85 162 16 88 35 31 68 
98 9 128 28 5 10 43 74 9 37 50 
99 10 7 152 76 13 92 86 150 155 112 40 
100 6 137 74 9 130 46 63 
101 11 77 37 50 4 120 5 155 10 71 133 96 
102 5 139 58 106 19 39 
103 8 135 151 57 54 8 26 82 108 
104 11 25 84 29 118 161 42 124 60 15 38 82 
105 9 17 143 39 55 149 106 19 58 30 
106 9 58 19 39 105 139 143 102 17 55 
107 6 122 32 8 91 140 73 
108 8 90 54 73 14 52 93 103 116 
109 9 53 45 65 21 70 49 146 119 81 
110 6 96 44 133 4 134 127 
111 10 93 56 52 154 69 3 73 2 14 51 
112 8 86 40 76 152 13 7 99 150 
113 11 141 97 117 85 147 162 16 88 35 68 31 
114 11 160 66 158 94 11 115 156 59 126 145 149 
115 11 126 158 114 160 149 17 66 55 143 105 94 
116 9 89 14 90 108 100 3 54 95 9 
117 11 113 85 141 97 147 162 68 16 88 48 35 
118 9 161 84 29 104 6 78 25 123 15 
119 11 21 61 49 146 64 53 45 109 121 70 65 
120 8 71 4 96 110 133 77 101 145 
121 10 61 81 119 21 70 83 38 60 53 64 
122 10 107 91 32 27 12 8 33 132 140 136 
123 9 78 79 161 6 118 84 29 136 48 
124 9 60 25 42 83 138 38 104 18 15 
125 5 23 148 142 51 2 
126 11 115 158 114 17 55 149 160 105 143 66 39 
127 8 134 41 153 44 22 20 145 59 
128 10 98 28 43 9 74 95 5 51 142 10 
129 5 72 46 130 63 20 
130 6 63 46 72 129 44 20 
131 9 18 26 138 82 124 157 57 75 54 
132 9 33 136 8 79 12 122 135 151 103 
133 8 4 77 96 110 120 74 137 5 
134 8 127 41 153 44 22 20 145 59 
135 7 151 103 57 8 26 82 54 
136 9 33 132 79 8 12 122 123 27 135 
137 6 100 74 9 130 46 63 
138 9 157 18 124 131 83 60 75 25 42 
139 5 102 58 106 19 39 
140 8 32 144 91 159 27 122 107 12 
141 11 113 97 117 85 147 162 16 88 35 68 31 
142 8 51 69 125 23 95 43 3 148 
143 9 105 39 149 17 30 55 106 58 19 
144 8 159 140 32 91 27 12 122 107 
145 8 59 156 41 134 127 11 44 94 
146 11 49 119 21 64 45 61 53 65 109 87 62 
147 11 162 97 113 141 88 117 85 35 16 61 64 
148 5 125 23 142 51 2 
149 9 143 30 39 105 17 55 106 158 58 
150 8 92 152 76 40 7 10 86 28 
151 6 135 57 103 82 26 8 
152 9 76 7 99 86 40 13 112 150 92 
153 9 22 127 134 20 41 44 34 63 72 
154 8 56 111 2 36 93 69 52 3 
155 11 50 37 10 92 5 7 99 150 152 101 76 
156 9 59 145 41 11 94 66 134 127 160 
157 5 138 75 131 18 83 
158 11 114 160 66 115 94 149 11 126 156 143 30 
159 8 144 91 32 27 140 12 122 107 
160 10 66 114 94 11 158 156 59 145 115 149 
161 9 118 84 104 29 82 123 6 78 25 
162 11 147 113 97 141 117 88 85 15 61 68 121 
DEPOT_SECTION
   1
   -1
EOF
