NAME :  X-n223-kX-w44-c11.cctp
COMMENT : 	Adapted by Maziero, Usberti and Cavellucci from the Uchoa, Pecin, Pessoa, Poggi, Subramanian, and Vidal (2013)
TYPE :  CCTP
DIMENSION :    190
EDGE_WEIGHT_TYPE : 	EUC_2D	
CAPACITY : 	37
VERTICES_WITHIN_COVERAGE :  11
VERTICES_WITH_DEMAND : 	44
NODE_COORD_SECTION
1 284 167
2 6 711
3 874 746
4 483 894
5 733 189
6 336 29
7 488 684
8 825 903
9 98 412
10 206 306
11 497 641
12 499 745
13 481 40
14 500 390
15 851 268
16 51 278
17 805 796
18 554 771
19 576 984
20 734 251
21 325 414
22 658 81
23 279 467
24 1000 804
25 124 148
26 554 594
27 645 168
28 4 965
29 614 267
30 939 719
31 935 800
32 109 154
33 31 554
34 960 512
35 489 840
36 377 684
37 945 808
38 720 165
39 226 34
40 73 255
41 748 344
42 774 514
43 143 893
44 168 461
45 164 493
46 631 533
47 833 284
48 746 100
49 252 839
50 894 472
51 944 597
52 371 28
53 552 186
54 610 541
55 578 665
56 749 655
57 898 974
58 274 972
59 520 642
60 914 373
61 610 738
62 773 602
63 752 74
64 729 90
65 464 658
66 70 36
67 964 397
68 388 732
69 185 51
70 712 144
71 45 437
72 910 738
73 956 879
74 318 560
75 592 913
76 642 564
77 907 240
78 88 186
79 399 931
80 763 180
81 626 876
82 302 689
83 970 490
84 775 574
85 653 667
86 813 999
87 5 980
88 10 249
89 557 816
90 915 680
91 131 722
92 553 946
93 45 101
94 306 260
95 627 26
96 771 398
97 869 585
98 493 282
99 312 212
100 985 939
101 194 262
102 992 698
103 834 844
104 1 651
105 271 893
106 20 349
107 163 503
108 579 761
109 923 502
110 2 469
111 103 284
112 63 181
113 784 300
114 71 869
115 826 222
116 36 51
117 231 82
118 57 79
119 62 272
120 22 273
121 106 897
122 805 267
123 150 793
124 106 129
125 212 590
126 327 114
127 7 372
128 646 219
129 259 282
130 961 241
131 692 298
132 47 944
133 801 272
134 72 185
135 646 242
136 189 387
137 119 294
138 31 339
139 730 188
140 57 143
141 93 759
142 824 259
143 924 237
144 57 338
145 83 189
146 51 217
147 780 316
148 305 615
149 111 271
150 345 763
151 127 979
152 53 950
153 751 295
154 134 317
155 128 324
156 98 293
157 172 219
158 739 331
159 160 970
160 176 57
161 814 179
162 27 359
163 135 211
164 154 988
165 776 143
166 117 953
167 33 181
168 710 173
169 111 270
170 105 225
171 53 438
172 82 228
173 933 313
174 53 199
175 147 288
176 10 811
177 37 799
178 837 214
179 752 302
180 42 300
181 123 273
182 489 208
183 683 398
184 608 548
185 788 301
186 54 335
187 221 117
188 160 835
189 769 226
190 139 843
DEMAND_SECTION
2 6
3 6
4 9
5 2
6 4
7 10
8 2
9 3
10 3
11 1
12 4
13 3
14 8
15 6
16 4
17 4
18 6
19 3
20 5
21 10
22 7
23 3
24 8
25 9
26 2
27 2
28 9
29 2
30 2
31 1
32 2
33 9
34 9
35 1
36 9
37 5
38 9
39 8
40 6
41 2
42 10
43 3
44 10
45 10
COVERAGE_SECTION
2 6 104 177 141 176 91 33 
3 11 72 30 90 31 17 37 103 102 24 56 73 
4 11 35 92 79 89 75 19 18 81 12 108 68 
5 10 139 38 168 80 70 189 20 165 161 27 
6 11 52 126 39 117 13 187 69 160 99 94 182 
7 11 65 11 59 12 55 18 36 68 26 108 61 
8 11 103 86 57 17 73 31 37 3 100 72 24 
9 11 171 71 44 144 162 186 155 136 127 138 106 
10 11 101 129 175 154 155 136 137 181 157 149 169 
11 11 59 65 7 26 55 12 36 18 68 108 184 
12 11 18 7 108 89 65 35 11 59 61 55 68 
13 11 52 6 95 53 182 126 22 27 99 98 128 
14 11 98 29 21 182 183 54 184 46 135 26 53 
15 10 47 142 122 133 115 178 77 185 113 143 
16 11 119 180 120 40 156 88 111 186 172 144 149 
17 11 103 3 8 72 31 37 56 30 90 73 24 
18 11 108 89 12 61 35 7 55 81 59 4 11 
19 11 92 75 81 4 35 89 79 18 108 86 61 
20 11 189 153 179 5 131 139 113 133 122 185 80 
21 11 23 136 74 129 94 10 44 14 45 107 101 
22 11 95 64 70 27 48 63 38 168 139 5 165 
23 11 21 74 44 45 136 107 125 148 10 129 9 
24 11 37 31 73 30 102 72 100 3 90 103 17 
25 11 32 124 78 145 134 163 140 112 170 157 174 
26 11 59 184 11 55 54 76 46 65 7 85 61 
27 11 128 168 70 135 38 139 22 5 53 29 64 
28 7 87 132 152 166 114 121 151 
29 11 135 128 131 53 27 20 98 168 182 139 153 
30 11 72 90 102 3 31 37 24 51 97 17 73 
31 11 37 24 72 3 30 73 103 102 90 17 100 
32 11 25 124 78 145 134 112 140 163 170 174 172 
33 11 110 104 71 171 107 45 9 2 44 127 125 
34 11 83 109 50 51 67 97 60 90 42 102 84 
35 11 4 89 18 12 108 92 75 79 81 68 7 
36 11 68 82 150 65 148 7 11 12 74 59 125 
37 11 31 24 73 72 30 3 103 102 90 100 17 
38 11 168 70 139 5 80 165 48 27 64 189 20 
39 11 69 117 160 187 6 126 52 25 124 66 32 
40 11 119 172 16 149 169 111 146 170 156 181 120 
41 11 158 179 147 153 113 96 185 131 183 133 20 
42 11 84 62 96 97 50 76 56 46 183 109 54 
43 8 121 190 188 166 114 159 151 164 
44 11 45 107 136 9 23 171 71 125 155 154 10 
45 11 107 44 9 125 136 23 171 71 33 110 74 
46 11 54 184 76 26 85 55 42 183 84 59 62 
47 11 15 142 122 133 185 113 115 147 178 153 179 
48 10 64 63 165 70 38 168 80 139 5 22 
49 11 105 188 123 190 150 43 58 121 82 159 91 
50 11 109 34 83 60 67 97 42 51 96 84 173 
51 11 97 34 90 109 83 102 30 50 72 3 62 
52 11 6 126 13 39 117 187 69 99 160 182 53 
53 11 182 27 128 29 135 98 22 168 13 70 38 
54 11 184 46 76 26 55 85 59 11 183 42 84 
55 11 59 26 85 61 11 7 108 18 12 65 76 
56 11 62 84 85 97 76 42 17 3 61 90 46 
57 11 86 100 8 73 103 37 31 24 17 3 72 
58 11 105 159 164 79 49 151 43 166 188 121 190 
59 11 11 7 65 26 55 12 184 61 18 108 54 
60 11 67 173 50 47 15 109 83 77 143 130 96 
61 11 108 18 55 85 89 12 59 7 81 11 26 
62 11 84 56 42 97 76 85 46 90 51 54 184 
63 8 48 64 165 70 22 38 80 168 
64 10 48 63 70 165 22 38 168 80 139 5 
65 11 7 11 59 36 12 68 26 55 18 108 150 
66 9 116 118 93 124 140 160 69 25 32 
67 11 60 173 83 50 109 34 130 143 77 15 47 
68 11 36 150 82 65 7 12 11 148 35 59 18 
69 11 160 39 117 187 124 25 66 32 118 93 116 
70 11 38 168 139 5 48 64 80 165 27 63 22 
71 11 171 110 9 127 162 106 138 144 186 33 44 
72 11 30 3 90 31 37 102 24 17 103 51 73 
73 11 100 37 31 24 57 103 8 72 3 30 17 
74 11 148 23 125 82 36 21 107 45 65 44 68 
75 11 81 92 19 89 4 35 18 108 61 12 79 
76 11 46 184 54 26 85 55 84 62 56 42 59 
77 7 143 130 15 178 173 115 142 
78 11 145 134 112 174 32 172 170 146 25 140 163 
79 11 4 35 58 105 92 49 150 19 75 89 68 
80 10 5 139 165 38 189 161 168 70 115 20 
81 11 75 89 92 19 108 18 61 35 4 12 17 
82 11 148 36 150 68 74 125 49 65 91 123 7 
83 11 34 109 50 67 51 60 97 173 42 90 102 
84 11 62 42 56 97 76 46 85 50 109 54 184 
85 11 55 61 56 76 108 26 184 54 59 46 62 
86 11 57 8 103 100 73 17 81 37 31 19 75 
87 7 28 132 152 166 151 114 121 
88 11 120 16 146 119 180 40 174 167 172 112 134 
89 11 18 108 35 81 12 61 75 4 92 7 55 
90 11 30 72 3 102 51 97 31 37 24 17 62 
91 8 141 123 188 190 177 2 104 176 
92 11 19 75 4 81 35 89 79 18 108 12 61 
93 9 118 140 116 124 66 167 112 32 134 
94 11 99 129 10 101 157 126 21 175 187 136 163 
95 10 22 64 63 48 27 70 13 38 168 53 
96 11 41 158 147 183 179 185 113 153 42 131 47 
97 11 51 84 62 109 90 50 34 42 56 83 30 
98 11 182 14 53 29 135 128 94 27 99 131 21 
99 11 94 129 126 101 187 157 10 117 163 182 175 
100 11 73 57 24 37 31 8 103 86 72 3 30 
101 11 10 157 175 129 181 163 154 137 149 169 155 
102 11 30 90 72 24 51 31 37 3 97 73 34 
103 11 17 8 3 31 37 73 72 57 86 30 24 
104 8 2 33 141 91 177 176 110 123 
105 11 49 58 188 43 79 159 190 150 164 123 121 
106 11 162 138 127 186 144 180 120 16 119 71 171 
107 11 45 44 125 9 136 23 171 71 33 74 110 
108 11 18 61 89 12 55 7 35 85 81 59 11 
109 11 34 50 83 51 97 67 60 42 84 90 62 
110 11 71 171 33 127 9 162 106 138 144 186 45 
111 11 156 149 169 137 181 40 119 175 154 155 16 
112 11 134 174 145 78 167 140 146 172 32 170 124 
113 11 185 147 179 133 153 122 47 158 41 142 20 
114 3 121 190 43 
115 9 178 142 161 122 15 133 189 47 80 
116 9 118 66 93 140 124 32 167 25 112 
117 11 187 39 69 160 126 6 25 124 32 157 52 
118 9 93 116 66 140 124 32 25 112 167 
119 11 16 40 180 120 156 111 172 149 169 146 88 
120 11 88 16 180 119 40 146 138 186 144 172 106 
121 6 43 114 166 190 132 152 
122 11 133 142 47 185 113 15 115 147 189 153 178 
123 9 188 190 141 91 43 114 49 121 177 
124 11 32 25 140 78 145 134 93 112 118 163 174 
125 11 148 107 45 74 82 44 23 91 33 36 136 
126 11 6 52 99 117 187 39 94 69 160 13 129 
127 11 162 106 138 144 186 71 171 180 110 9 120 
128 11 135 27 29 168 139 131 5 38 20 53 70 
129 11 94 10 101 99 157 175 136 154 181 155 137 
130 4 143 77 173 15 
131 11 158 153 179 20 41 135 29 147 128 113 185 
132 7 152 28 87 166 121 114 151 
133 11 122 142 185 113 47 147 15 153 115 189 179 
134 11 112 145 78 174 146 167 172 140 32 170 25 
135 11 128 29 131 27 20 168 139 5 38 53 70 
136 11 44 10 155 154 9 175 45 137 107 23 101 
137 11 111 156 181 149 169 154 175 155 40 119 16 
138 11 106 162 186 144 127 180 16 120 119 156 111 
139 10 5 38 168 80 70 189 20 165 161 27 
140 10 112 93 134 167 124 32 78 145 174 118 
141 7 91 123 177 190 176 2 188 
142 10 122 133 47 15 115 178 185 113 189 147 
143 6 77 130 173 15 178 115 
144 11 186 138 162 106 180 16 127 156 119 111 155 
145 11 78 134 112 174 172 170 146 32 167 140 163 
146 11 174 172 112 134 167 145 40 78 88 170 119 
147 11 113 185 179 153 41 158 133 122 47 142 20 
148 11 74 82 125 36 68 23 150 65 107 45 11 
149 11 169 181 111 137 156 175 40 170 119 154 172 
150 11 68 36 82 49 105 148 12 65 7 35 79 
151 9 164 166 159 152 121 43 132 87 114 
152 7 132 28 87 166 121 151 114 
153 11 179 113 147 185 158 20 41 133 131 122 189 
154 11 155 137 175 156 111 181 149 169 10 144 101 
155 11 154 137 175 156 111 181 149 169 144 186 10 
156 11 111 137 149 169 181 119 154 155 40 16 175 
157 11 163 101 170 175 181 149 169 25 78 172 32 
158 11 41 179 153 147 113 131 185 96 20 133 183 
159 10 164 151 166 43 121 152 58 132 190 105 
160 11 69 39 117 187 124 25 66 32 118 93 116 
161 7 178 115 80 165 189 142 5 
162 11 106 138 127 186 144 180 71 171 16 120 9 
163 11 170 157 78 145 172 32 181 25 169 149 134 
164 10 159 151 166 43 121 152 132 58 114 190 
165 10 80 48 161 38 5 70 139 64 168 63 
166 8 151 159 164 121 152 43 132 114 
167 10 174 112 134 146 140 145 78 172 88 32 
168 11 38 139 5 70 80 27 165 128 189 48 20 
169 11 149 181 111 137 156 175 40 170 119 172 154 
170 11 172 163 145 78 40 169 149 181 134 146 174 
171 11 71 9 110 127 162 106 144 138 186 44 33 
172 11 170 40 146 145 174 78 134 119 112 169 149 
173 9 60 77 130 143 67 15 47 142 122 
174 11 146 112 134 167 145 78 172 140 170 40 88 
175 11 181 137 154 149 169 155 111 156 101 10 157 
176 4 177 114 141 2 
177 4 176 141 114 2 
178 8 115 161 142 15 122 133 189 47 
179 11 153 147 113 158 185 41 20 133 131 122 189 
180 11 16 119 120 186 138 144 106 40 156 88 162 
181 11 149 169 137 111 175 156 154 155 170 40 119 
182 11 53 98 29 128 27 135 13 99 14 126 94 
183 11 41 158 96 131 179 153 147 113 185 46 42 
184 11 54 46 76 26 55 85 59 11 183 42 84 
185 11 113 147 133 179 153 122 47 142 158 41 15 
186 11 144 138 162 106 180 16 127 156 119 120 111 
187 11 117 69 160 39 25 126 157 124 32 163 99 
188 8 190 123 43 121 49 114 141 91 
189 10 20 80 5 139 122 133 115 142 161 178 
190 6 188 43 123 121 114 141 
DEPOT_SECTION
   1
   -1
EOF
