NAME :  X-n266-kX-w26-c9.cctp
COMMENT : 	Adapted by Maziero, Usberti and Cavellucci from the Uchoa, Pecin, Pessoa, Poggi, Subramanian, and Vidal (2013)
TYPE :  CCTP
DIMENSION :    136
EDGE_WEIGHT_TYPE : 	EUC_2D	
CAPACITY : 	35
VERTICES_WITHIN_COVERAGE :  9
VERTICES_WITH_DEMAND : 	26
NODE_COORD_SECTION
1 143 12
2 206 907
3 895 855
4 640 970
5 865 716
6 993 356
7 618 966
8 963 539
9 50 979
10 241 998
11 32 206
12 288 926
13 299 507
14 336 180
15 589 726
16 665 488
17 36 521
18 112 895
19 814 442
20 843 474
21 17 258
22 360 273
23 814 537
24 775 524
25 825 471
26 321 87
27 773 958
28 368 928
29 452 919
30 386 911
31 186 803
32 948 721
33 216 973
34 915 641
35 238 810
36 946 172
37 23 561
38 613 657
39 56 554
40 862 723
41 974 838
42 815 880
43 882 803
44 380 323
45 836 461
46 789 669
47 956 1000
48 98 295
49 580 959
50 262 31
51 960 74
52 237 910
53 353 828
54 721 524
55 923 491
56 987 930
57 34 820
58 837 536
59 835 467
60 988 937
61 487 765
62 975 406
63 440 41
64 607 487
65 57 898
66 0 517
67 16 909
68 846 379
69 948 682
70 324 44
71 339 188
72 589 805
73 934 907
74 848 633
75 890 973
76 98 787
77 964 391
78 171 837
79 946 388
80 818 503
81 887 643
82 981 839
83 288 219
84 707 525
85 56 193
86 304 158
87 66 150
88 39 224
89 277 43
90 620 623
91 367 300
92 435 235
93 242 543
94 321 572
95 673 531
96 348 126
97 75 271
98 859 379
99 747 578
100 257 92
101 78 288
102 343 279
103 686 499
104 347 264
105 321 280
106 59 174
107 312 489
108 382 227
109 84 311
110 378 58
111 689 522
112 327 293
113 292 538
114 696 506
115 430 247
116 727 571
117 803 537
118 765 571
119 327 164
120 218 562
121 769 443
122 821 500
123 310 87
124 770 527
125 410 281
126 352 172
127 440 59
128 256 195
129 294 460
130 728 554
131 660 422
132 857 655
133 607 505
134 331 128
135 364 278
136 79 208
DEMAND_SECTION
2 5
3 5
4 5
5 5
6 6
7 10
8 10
9 10
10 9
11 9
12 5
13 9
14 5
15 6
16 7
17 6
18 10
19 6
20 5
21 10
22 6
23 10
24 7
25 6
26 9
27 5
COVERAGE_SECTION
2 9 52 33 78 12 18 10 35 31 65 
3 9 43 73 41 42 82 75 56 60 40 
4 9 7 49 27 72 29 42 15 75 61 
5 9 40 132 81 32 74 43 46 34 69 
6 9 77 62 79 98 68 55 8 45 36 
7 9 4 49 27 72 29 42 30 61 15 
8 9 55 34 58 81 62 20 69 59 122 
9 9 67 65 18 57 33 2 78 10 76 
10 9 33 12 52 2 28 18 30 78 35 
11 8 88 85 106 136 21 87 97 101 
12 9 52 28 2 10 33 30 53 35 78 
13 5 107 113 129 93 94 
14 9 71 119 126 86 134 96 83 108 128 
15 4 38 72 90 61 
16 9 103 114 111 95 84 64 133 131 54 
17 4 66 39 37 120 
18 9 65 78 2 67 9 57 76 31 52 
19 9 45 25 59 20 121 122 80 68 98 
20 9 59 45 25 122 80 19 58 23 117 
21 9 88 11 97 101 85 136 109 48 106 
22 9 135 104 102 91 112 105 108 125 44 
23 9 117 58 80 122 24 124 118 25 20 
24 9 124 117 23 80 118 122 54 130 99 
25 9 59 45 20 122 19 80 121 58 23 
26 9 123 134 70 96 89 100 110 86 119 
27 9 42 75 4 7 3 73 47 43 49 
28 7 30 12 29 53 52 10 33 
29 6 30 28 49 53 61 12 
30 6 28 29 53 12 52 10 
31 6 78 35 76 2 18 52 
32 9 69 5 40 34 81 43 132 41 82 
33 9 10 52 2 12 18 78 28 35 9 
34 9 81 69 132 74 32 5 40 8 46 
35 6 31 78 52 2 53 12 
36 6 51 6 79 77 98 68 
37 4 39 17 66 120 
38 3 90 15 95 
39 5 37 17 66 120 93 
40 9 5 132 43 81 32 46 74 69 34 
41 9 82 73 3 56 43 60 32 69 75 
42 9 3 27 43 75 73 40 41 5 82 
43 9 3 40 5 41 42 32 82 73 69 
44 4 91 135 125 22 
45 9 59 20 25 19 122 80 121 58 23 
46 9 74 132 5 40 99 81 118 116 34 
47 9 60 75 56 73 3 41 82 42 27 
48 4 101 109 97 21 
49 8 7 4 29 72 27 30 28 61 
50 5 89 100 70 123 26 
51 6 36 6 79 77 98 68 
52 9 2 12 33 10 78 35 31 18 28 
53 6 30 28 35 12 29 52 
54 9 84 114 130 111 103 116 95 124 24 
55 9 8 20 59 45 58 25 62 122 79 
56 9 60 73 47 82 41 75 3 43 42 
57 7 76 65 67 18 78 31 9 
58 9 23 117 80 122 20 24 25 124 59 
59 9 45 20 25 19 122 80 58 121 23 
60 9 56 73 47 82 41 75 3 43 42 
61 2 15 72 
62 9 77 79 6 55 98 68 8 20 45 
63 5 127 110 70 96 26 
64 3 133 16 95 
65 9 67 18 9 57 76 78 2 31 33 
66 4 17 37 39 109 
67 9 65 9 57 18 76 78 2 31 33 
68 9 98 19 45 59 25 20 79 121 77 
69 9 32 34 81 5 40 132 74 43 8 
70 9 26 123 89 110 50 100 134 96 63 
71 9 14 126 119 86 108 83 134 96 104 
72 6 15 61 38 49 7 4 
73 9 56 60 3 75 41 82 47 43 42 
74 9 132 81 34 46 5 40 58 23 118 
75 9 47 73 60 56 3 27 42 41 82 
76 5 57 78 31 18 65 
77 9 79 62 6 98 55 68 45 20 8 
78 7 31 35 2 18 76 52 65 
79 9 77 62 6 98 68 55 45 20 59 
80 9 122 25 23 117 20 58 59 45 24 
81 9 34 132 74 69 5 40 32 46 58 
82 9 41 73 3 56 60 43 32 69 75 
83 7 128 71 14 86 119 105 104 
84 8 54 111 114 103 95 130 116 16 
85 6 106 11 136 88 87 21 
86 9 119 14 134 71 126 96 128 83 123 
87 4 106 85 136 11 
88 8 11 85 21 136 106 97 101 87 
89 6 50 70 100 123 26 134 
90 4 38 95 15 116 
91 6 135 44 22 102 104 112 
92 6 115 125 108 135 22 104 
93 6 120 113 13 94 107 129 
94 2 113 13 
95 8 111 114 84 103 16 54 130 116 
96 9 134 119 126 26 86 123 14 71 110 
97 6 101 48 109 21 88 136 
98 9 68 19 45 79 59 20 25 77 121 
99 8 118 116 130 124 54 24 84 117 
100 4 89 123 50 26 
101 6 97 48 109 21 88 136 
102 7 104 22 112 135 105 91 44 
103 8 114 111 16 84 95 54 130 133 
104 9 22 102 135 105 112 91 108 125 44 
105 7 112 102 104 22 135 91 83 
106 5 85 87 136 11 88 
107 5 13 129 113 94 93 
108 9 22 104 115 92 135 71 125 126 102 
109 5 48 101 97 21 88 
110 8 70 127 26 63 96 123 134 89 
111 8 114 84 95 103 54 16 130 116 
112 7 105 102 104 22 135 91 44 
113 6 13 94 93 107 120 129 
114 8 103 111 84 54 95 16 130 116 
115 7 92 125 108 135 22 91 104 
116 8 130 99 118 54 84 111 124 24 
117 9 23 24 58 124 80 122 118 99 25 
118 8 99 116 130 124 24 117 23 54 
119 9 14 86 126 71 134 96 83 26 128 
120 5 93 113 13 94 107 
121 9 19 25 45 59 80 122 20 24 124 
122 9 80 25 20 59 23 58 117 45 24 
123 9 26 70 134 100 96 89 86 50 110 
124 9 24 117 118 23 54 130 80 99 122 
125 6 115 135 91 22 44 92 
126 9 14 71 119 96 134 86 108 83 26 
127 5 63 110 96 70 26 
128 4 83 86 119 14 
129 3 107 13 113 
130 8 116 54 99 84 118 111 124 24 
131 1 16 
132 9 74 81 34 5 40 46 69 32 58 
133 4 64 16 95 103 
134 9 96 119 86 26 123 126 14 71 100 
135 8 22 102 91 104 112 105 125 44 
136 6 85 106 88 11 87 97 
DEPOT_SECTION
   1
   -1
EOF
