NAME :  X-n294-kX-w58-c7.cctp
COMMENT : 	Adapted by Maziero, Usberti and Cavellucci from the Uchoa, Pecin, Pessoa, Poggi, Subramanian, and Vidal (2013)
TYPE :  CCTP
DIMENSION :    232
EDGE_WEIGHT_TYPE : 	EUC_2D	
CAPACITY : 	285
VERTICES_WITHIN_COVERAGE :  7
VERTICES_WITH_DEMAND : 	58
NODE_COORD_SECTION
1 500 500
2 940 231
3 721 848
4 618 44
5 993 145
6 636 512
7 274 496
8 245 945
9 449 812
10 29 650
11 399 8
12 548 19
13 769 717
14 221 850
15 980 233
16 477 922
17 498 720
18 136 832
19 351 663
20 58 67
21 889 569
22 28 334
23 804 928
24 900 138
25 393 403
26 982 609
27 79 299
28 684 582
29 169 252
30 405 925
31 875 191
32 674 112
33 576 537
34 539 63
35 338 657
36 210 209
37 676 568
38 949 826
39 572 890
40 210 615
41 737 46
42 30 527
43 131 724
44 671 842
45 727 566
46 507 497
47 524 134
48 167 665
49 819 108
50 929 582
51 713 738
52 352 626
53 887 547
54 176 645
55 611 289
56 457 532
57 11 147
58 958 60
59 587 187
60 790 956
61 974 63
62 306 225
63 961 969
64 238 736
65 758 840
66 88 44
67 507 811
68 768 476
69 51 914
70 494 445
71 953 33
72 922 45
73 748 111
74 544 867
75 477 596
76 322 79
77 586 764
78 214 599
79 925 138
80 797 107
81 751 783
82 738 913
83 703 73
84 681 886
85 627 27
86 478 345
87 571 600
88 834 858
89 657 233
90 126 769
91 317 934
92 477 559
93 542 94
94 370 432
95 666 178
96 631 484
97 820 918
98 687 877
99 752 983
100 157 720
101 709 898
102 300 878
103 728 617
104 66 59
105 991 657
106 717 47
107 438 722
108 43 247
109 71 476
110 69 560
111 471 14
112 115 806
113 194 337
114 36 456
115 500 152
116 277 601
117 962 575
118 588 181
119 108 931
120 209 800
121 126 149
122 31 219
123 97 324
124 495 122
125 759 480
126 780 669
127 786 769
128 759 159
129 282 633
130 361 17
131 957 103
132 544 544
133 27 318
134 665 656
135 523 586
136 539 783
137 833 988
138 16 637
139 41 388
140 623 780
141 660 155
142 700 658
143 946 783
144 607 815
145 87 771
146 658 874
147 527 853
148 459 577
149 352 829
150 937 639
151 833 692
152 421 999
153 908 447
154 469 163
155 509 61
156 600 359
157 510 460
158 342 691
159 95 216
160 700 873
161 659 568
162 478 525
163 988 980
164 28 661
165 724 842
166 2 660
167 210 180
168 843 9
169 430 92
170 265 453
171 209 673
172 20 952
173 673 659
174 185 335
175 138 655
176 263 155
177 769 741
178 831 678
179 401 625
180 192 520
181 449 679
182 579 295
183 333 352
184 837 944
185 377 500
186 797 97
187 65 235
188 440 877
189 439 326
190 407 621
191 550 241
192 169 68
193 253 243
194 76 852
195 642 116
196 598 124
197 997 660
198 14 98
199 774 9
200 791 671
201 299 800
202 575 109
203 290 897
204 895 790
205 25 242
206 761 886
207 501 846
208 731 4
209 337 71
210 106 973
211 623 580
212 978 669
213 884 559
214 390 602
215 451 134
216 569 98
217 672 867
218 69 790
219 584 520
220 954 912
221 761 734
222 192 875
223 88 353
224 777 38
225 98 68
226 642 658
227 824 694
228 238 825
229 137 683
230 357 593
231 537 99
232 68 173
DEMAND_SECTION
2 94
3 7
4 83
5 31
6 9
7 78
8 50
9 18
10 10
11 11
12 68
13 37
14 57
15 83
16 38
17 94
18 12
19 63
20 84
21 19
22 68
23 32
24 98
25 47
26 97
27 25
28 98
29 30
30 30
31 10
32 20
33 64
34 56
35 73
36 32
37 51
38 51
39 45
40 72
41 81
42 26
43 46
44 16
45 39
46 9
47 52
48 60
49 39
50 39
51 97
52 40
53 79
54 2
55 86
56 69
57 28
58 73
59 46
COVERAGE_SECTION
2 5 15 31 79 5 24 
3 7 165 160 65 98 44 101 217 
4 7 85 216 12 195 202 34 196 
5 7 131 79 61 15 58 24 2 
6 7 96 219 161 33 37 211 28 
7 5 170 180 185 116 94 
8 7 203 91 102 222 14 228 119 
9 7 67 207 188 147 107 136 149 
10 7 164 138 166 110 175 229 42 
11 7 130 111 209 169 76 155 215 
12 7 34 155 4 93 111 85 231 
13 7 221 177 126 200 127 51 227 
14 7 228 222 120 203 102 18 201 
15 4 2 5 79 31 
16 7 188 30 207 147 74 152 39 
17 6 107 181 136 67 77 9 
18 7 112 194 90 222 145 218 120 
19 7 35 158 52 179 190 230 214 
20 7 104 66 225 198 57 232 121 
21 7 213 53 50 117 150 26 153 
22 6 133 139 27 223 123 108 
23 7 97 60 184 206 137 82 88 
24 7 79 31 131 49 5 72 58 
25 6 94 183 189 185 86 70 
26 7 117 105 197 150 50 212 21 
27 7 123 133 223 22 108 187 205 
28 7 37 161 45 103 211 134 142 
29 7 36 159 167 193 174 113 27 
30 7 188 16 152 91 149 102 203 
31 6 24 79 2 49 15 80 
32 7 195 141 83 95 73 196 106 
33 7 219 132 87 211 6 135 96 
34 7 155 93 231 12 216 202 47 
35 7 19 52 158 129 230 179 214 
36 7 167 193 29 176 62 121 159 
37 7 28 161 45 211 6 103 134 
38 3 143 204 220 
39 7 74 147 144 207 146 16 67 
40 7 78 54 171 48 116 129 175 
41 7 106 224 208 83 199 73 186 
42 3 110 109 114 
43 7 100 229 90 145 48 175 112 
44 7 217 146 98 160 84 3 165 
45 7 28 37 103 161 125 142 68 
46 6 157 162 70 132 56 92 
47 7 115 124 231 93 202 216 154 
48 7 54 175 229 171 100 40 43 
49 7 80 186 73 128 224 24 31 
50 7 117 21 213 53 150 26 105 
51 7 221 177 81 13 127 142 173 
52 7 230 35 19 214 179 190 158 
53 7 213 21 50 117 153 150 26 
54 7 48 175 171 40 229 78 100 
55 4 182 156 89 191 
56 7 162 92 148 46 75 135 185 
57 7 198 232 122 20 205 187 104 
58 7 61 71 72 131 79 5 24 
59 7 118 196 191 202 95 141 47 
60 7 23 99 97 184 137 82 206 
61 7 58 71 131 72 5 79 24 
62 3 193 176 36 
63 7 163 220 184 137 38 97 23 
64 7 171 120 100 201 228 48 43 
65 6 165 3 206 81 160 82 
66 6 225 104 20 192 198 121 
67 7 207 136 147 9 74 17 77 
68 2 125 45 
69 5 172 119 194 210 18 
70 3 157 46 162 
71 7 58 72 61 131 79 168 24 
72 7 71 58 61 131 168 79 24 
73 7 80 128 186 83 41 49 106 
74 7 147 39 207 67 144 136 16 
75 6 148 92 135 56 162 190 
76 4 209 130 176 11 
77 7 140 136 144 67 17 147 74 
78 7 40 54 116 171 129 48 180 
79 7 24 131 5 31 58 61 72 
80 7 186 49 73 128 224 41 83 
81 7 127 177 221 65 51 165 13 
82 6 101 206 160 98 84 3 
83 7 106 41 32 73 208 195 224 
84 7 98 217 160 146 101 44 3 
85 7 4 12 83 195 106 216 34 
86 3 189 70 25 
87 6 135 211 132 33 219 226 
88 4 97 23 65 206 
89 4 95 55 141 59 
90 7 112 145 43 100 218 18 229 
91 7 203 102 8 30 149 152 14 
92 7 148 56 162 75 135 46 132 
93 7 231 216 34 202 47 155 124 
94 6 25 185 183 170 7 70 
95 6 141 89 32 195 118 59 
96 6 6 219 33 161 37 211 
97 6 23 184 60 88 206 137 
98 7 84 160 217 146 101 44 3 
99 6 60 82 23 137 97 184 
100 7 43 229 48 90 175 171 54 
101 6 160 84 98 82 217 3 
102 7 203 91 149 201 228 14 8 
103 7 142 45 28 173 37 126 134 
104 7 20 66 225 198 192 57 121 
105 5 197 212 26 150 117 
106 7 41 83 208 224 199 73 32 
107 7 181 17 9 158 179 19 190 
108 7 205 187 122 159 27 133 232 
109 3 114 42 110 
110 3 42 109 138 
111 7 155 11 12 34 169 93 231 
112 7 18 90 145 218 194 43 120 
113 3 174 29 123 
114 3 109 139 42 
115 5 47 124 154 215 231 
116 7 129 78 40 52 230 35 19 
117 7 50 26 150 21 53 213 105 
118 7 59 196 191 202 141 95 47 
119 6 210 69 194 172 222 18 
120 7 228 14 64 222 18 90 201 
121 7 232 159 225 167 192 36 187 
122 7 205 108 187 232 159 57 27 
123 6 223 27 22 133 139 174 
124 6 115 47 215 231 154 93 
125 2 68 45 
126 7 200 13 227 178 151 221 177 
127 5 177 81 221 13 65 
128 5 73 80 186 49 95 
129 7 116 35 52 40 19 78 158 
130 5 11 209 76 169 111 
131 7 58 61 79 5 24 72 71 
132 7 33 135 219 46 87 92 162 
133 7 22 27 123 223 139 108 205 
134 7 173 226 142 103 28 211 161 
135 6 75 132 87 92 148 33 
136 7 67 77 147 207 17 144 74 
137 7 184 60 23 97 99 82 206 
138 7 10 164 166 110 42 175 229 
139 5 22 223 114 133 123 
140 7 144 77 44 136 51 146 217 
141 7 95 195 32 196 118 89 59 
142 7 173 134 103 226 28 51 126 
143 2 38 204 
144 7 140 77 44 136 146 74 39 
145 7 218 90 112 43 18 194 100 
146 7 217 84 98 44 160 101 3 
147 7 74 207 67 39 136 16 9 
148 7 92 75 56 162 135 190 214 
149 7 201 102 203 9 188 30 91 
150 6 212 26 105 50 197 117 
151 5 227 178 200 126 13 
152 7 30 16 91 188 203 102 207 
153 1 53 
154 5 115 215 124 47 169 
155 7 34 93 231 12 111 124 216 
156 2 182 55 
157 4 70 46 162 56 
158 7 19 35 52 129 179 190 230 
159 7 187 232 108 122 121 205 29 
160 7 98 84 101 217 3 165 44 
161 7 37 28 211 6 45 103 134 
162 7 56 92 46 148 132 75 157 
163 7 63 220 137 184 38 97 23 
164 7 10 166 138 110 175 229 43 
165 7 3 65 160 98 44 206 101 
166 7 164 138 10 110 42 175 229 
167 6 36 176 193 29 121 62 
168 7 199 224 72 186 49 80 41 
169 6 215 124 154 155 111 11 
170 3 7 180 94 
171 7 48 54 40 64 100 175 229 
172 5 69 210 119 194 18 
173 7 134 142 226 103 28 51 37 
174 3 113 29 123 
175 7 229 48 54 100 43 171 40 
176 4 167 36 62 193 
177 7 221 13 127 81 51 227 126 
178 5 151 227 200 126 13 
179 7 190 214 52 230 19 35 181 
180 3 78 7 40 
181 6 107 17 179 190 75 214 
182 4 55 191 156 89 
183 3 25 94 189 
184 7 97 23 137 60 88 99 206 
185 7 94 56 230 25 7 214 162 
186 7 80 49 73 224 128 41 199 
187 7 108 159 122 205 232 27 133 
188 7 16 30 9 207 147 67 149 
189 3 86 25 183 
190 7 179 214 52 230 148 19 181 
191 6 182 59 118 55 115 89 
192 5 225 66 121 104 20 
193 5 36 62 167 29 176 
194 6 112 218 18 69 145 119 
195 7 32 141 196 95 202 83 216 
196 7 202 216 195 118 59 93 231 
197 5 105 212 26 150 117 
198 7 57 20 104 225 66 232 122 
199 7 224 208 41 106 168 186 83 
200 7 126 227 178 151 13 221 177 
201 7 149 228 102 64 120 14 203 
202 7 216 196 93 231 47 34 195 
203 7 102 91 8 14 228 149 201 
204 2 143 38 
205 7 108 122 187 159 133 27 232 
206 7 82 65 101 3 165 23 160 
207 7 147 67 74 9 188 136 16 
208 7 41 199 106 224 83 85 73 
209 4 76 130 11 169 
210 6 119 69 172 194 222 8 
211 7 161 37 87 28 33 6 219 
212 5 105 197 150 26 117 
213 7 21 53 50 117 150 26 153 
214 7 179 190 230 52 19 148 35 
215 5 154 124 169 115 47 
216 7 202 93 231 196 34 47 155 
217 7 146 98 84 44 160 101 3 
218 6 145 112 90 194 18 43 
219 7 33 132 6 96 211 46 87 
220 7 63 163 38 184 143 88 97 
221 7 177 13 127 51 81 126 200 
222 7 14 228 18 120 8 203 119 
223 5 123 27 139 22 133 
224 7 199 41 208 106 186 80 168 
225 7 66 104 20 192 121 198 232 
226 7 134 173 142 211 28 87 161 
227 6 151 178 200 126 13 177 
228 7 14 120 201 222 102 64 203 
229 7 175 48 43 100 54 171 90 
230 7 52 214 179 190 35 19 116 
231 7 93 216 34 47 202 155 124 
232 7 159 122 187 57 121 108 205 
DEPOT_SECTION
   1
   -1
EOF
