NAME :  X-n344-kX-w68-c9.cctp
COMMENT : 	Adapted by Maziero, Usberti and Cavellucci from the Uchoa, Pecin, Pessoa, Poggi, Subramanian, and Vidal (2013)
TYPE :  CCTP
DIMENSION :    244
EDGE_WEIGHT_TYPE : 	EUC_2D	
CAPACITY : 	61
VERTICES_WITHIN_COVERAGE :  9
VERTICES_WITH_DEMAND : 	68
NODE_COORD_SECTION
1 500 500
2 615 190
3 890 200
4 983 684
5 874 112
6 906 186
7 801 278
8 823 446
9 242 544
10 505 210
11 767 766
12 698 305
13 707 511
14 10 968
15 172 13
16 57 414
17 317 373
18 849 680
19 854 12
20 429 688
21 822 378
22 774 584
23 601 895
24 921 309
25 176 165
26 368 432
27 656 430
28 715 225
29 35 264
30 544 994
31 214 533
32 573 650
33 259 595
34 38 550
35 925 755
36 337 562
37 412 969
38 919 402
39 391 792
40 424 206
41 259 588
42 79 364
43 667 978
44 332 593
45 270 544
46 745 267
47 760 786
48 134 998
49 117 320
50 966 458
51 133 334
52 986 462
53 176 290
54 120 296
55 201 878
56 615 293
57 24 217
58 418 662
59 831 314
60 832 564
61 945 758
62 394 446
63 843 680
64 24 613
65 422 956
66 411 58
67 512 655
68 657 544
69 644 748
70 162 924
71 773 727
72 1 461
73 167 981
74 180 346
75 495 295
76 589 311
77 273 186
78 493 121
79 522 653
80 704 909
81 157 9
82 90 625
83 632 964
84 347 750
85 9 237
86 181 662
87 106 978
88 746 981
89 603 944
90 734 612
91 163 142
92 910 272
93 495 584
94 985 968
95 901 149
96 192 878
97 817 700
98 888 1
99 70 323
100 119 255
101 716 413
102 17 309
103 558 122
104 436 663
105 912 64
106 622 271
107 469 629
108 326 388
109 675 587
110 974 135
111 620 443
112 134 764
113 276 222
114 869 663
115 517 935
116 277 612
117 101 332
118 162 792
119 730 728
120 8 525
121 340 489
122 194 815
123 183 75
124 345 884
125 655 695
126 880 600
127 50 555
128 406 946
129 490 53
130 396 484
131 225 176
132 235 9
133 768 438
134 197 149
135 141 312
136 301 18
137 930 549
138 394 872
139 793 659
140 104 821
141 953 401
142 459 264
143 353 254
144 986 680
145 375 639
146 733 982
147 82 923
148 912 604
149 992 123
150 784 823
151 82 859
152 803 338
153 67 555
154 907 896
155 654 393
156 41 545
157 575 872
158 232 836
159 734 779
160 774 848
161 101 440
162 573 609
163 436 773
164 767 794
165 236 121
166 678 796
167 550 658
168 604 726
169 745 746
170 608 519
171 439 943
172 379 464
173 618 848
174 55 556
175 586 888
176 418 791
177 136 189
178 41 501
179 383 686
180 419 687
181 445 538
182 219 38
183 27 564
184 58 518
185 92 293
186 731 737
187 606 332
188 606 704
189 609 368
190 41 399
191 678 743
192 214 619
193 471 405
194 804 753
195 914 234
196 172 328
197 64 580
198 667 727
199 613 106
200 583 675
201 466 675
202 313 775
203 30 555
204 137 266
205 668 604
206 722 981
207 163 244
208 565 370
209 46 194
210 752 797
211 132 16
212 462 689
213 426 818
214 489 725
215 198 26
216 9 875
217 29 588
218 624 762
219 180 262
220 843 98
221 142 149
222 669 393
223 54 527
224 641 883
225 920 860
226 377 640
227 117 360
228 10 614
229 741 232
230 689 901
231 5 718
232 610 765
233 87 650
234 5 190
235 26 148
236 539 901
237 15 159
238 158 173
239 161 140
240 570 682
241 139 525
242 577 356
243 175 121
244 509 650
DEMAND_SECTION
2 7
3 10
4 7
5 8
6 9
7 8
8 5
9 7
10 7
11 5
12 10
13 8
14 6
15 7
16 7
17 5
18 9
19 10
20 10
21 7
22 5
23 9
24 10
25 10
26 8
27 5
28 9
29 7
30 6
31 8
32 5
33 8
34 7
35 6
36 6
37 10
38 10
39 9
40 6
41 8
42 9
43 9
44 7
45 10
46 5
47 10
48 6
49 5
50 7
51 9
52 10
53 7
54 10
55 5
56 10
57 8
58 9
59 5
60 8
61 10
62 6
63 8
64 5
65 7
66 5
67 5
68 10
69 5
COVERAGE_SECTION
2 6 106 199 103 56 28 10 
3 9 6 195 95 92 5 110 220 24 7 
4 9 144 61 35 148 114 126 18 63 137 
5 9 220 95 105 6 3 19 110 98 149 
6 9 3 95 195 5 110 92 149 220 105 
7 9 59 46 152 229 28 21 12 92 3 
8 9 133 21 38 152 101 60 59 13 141 
9 9 45 31 41 33 116 192 36 44 241 
10 9 142 40 75 78 103 2 76 106 56 
11 9 47 164 169 210 159 71 194 186 119 
12 9 46 28 106 56 229 222 187 155 7 
13 9 68 109 133 27 101 22 170 205 90 
14 9 147 216 87 48 151 70 73 140 96 
15 6 81 215 211 182 123 132 
16 8 190 161 42 72 227 178 99 117 
17 9 108 26 62 172 121 143 130 74 196 
18 9 63 114 97 139 126 194 71 148 35 
19 5 98 105 220 5 95 
20 9 180 104 58 212 201 179 214 107 226 
21 9 152 59 8 133 38 7 101 24 141 
22 7 90 60 139 13 109 126 205 
23 7 175 157 224 89 173 236 83 
24 9 92 195 59 38 141 3 21 152 6 
25 8 238 91 134 239 221 243 177 131 
26 9 62 172 130 108 121 17 193 181 36 
27 7 155 111 222 101 189 13 170 
28 8 229 46 12 7 106 2 56 152 
29 9 85 57 102 185 99 209 234 100 54 
30 8 115 89 83 236 23 175 171 43 
31 7 9 45 41 241 33 192 116 
32 8 167 200 240 162 79 67 188 244 
33 9 41 116 192 45 9 44 31 36 86 
34 9 156 203 127 174 183 223 153 184 120 
35 9 61 4 144 225 18 114 63 97 194 
36 9 44 45 121 116 41 33 145 226 9 
37 7 65 128 171 138 124 115 30 
38 9 141 50 52 24 21 8 59 92 152 
39 6 176 213 163 84 138 202 
40 9 142 10 143 78 75 66 113 77 103 
41 9 33 116 45 9 192 31 44 36 86 
42 9 227 117 99 190 16 49 51 185 54 
43 8 83 206 146 89 80 88 230 224 
44 9 36 116 145 226 33 41 45 9 121 
45 9 9 41 33 31 116 36 44 121 192 
46 9 229 28 7 12 152 59 106 56 21 
47 9 164 210 11 159 169 150 194 186 71 
48 9 87 73 70 147 14 96 55 151 216 
49 9 117 51 54 135 185 227 99 196 42 
50 9 52 141 38 137 8 24 148 21 126 
51 9 49 135 227 117 196 54 74 185 42 
52 9 50 141 38 137 148 8 24 126 21 
53 9 219 196 135 204 207 54 74 51 49 
54 9 49 135 185 204 51 100 117 53 99 
55 9 96 158 70 122 118 73 140 151 147 
56 9 106 76 187 242 189 12 208 2 155 
57 6 85 209 234 29 237 235 
58 9 104 180 20 179 226 145 201 212 107 
59 9 152 7 21 92 24 46 195 229 38 
60 9 126 22 148 137 139 114 90 18 63 
61 9 35 4 144 225 114 18 63 97 194 
62 8 172 26 130 121 193 108 181 17 
63 9 18 114 97 139 194 71 126 148 35 
64 9 228 217 183 197 203 127 34 174 82 
65 6 37 128 171 138 115 124 
66 5 129 78 136 40 103 
67 9 244 79 167 107 201 212 32 240 93 
68 4 109 170 13 205 
69 8 218 198 191 232 168 125 188 166 
70 9 96 73 55 87 48 147 151 158 122 
71 8 169 11 194 119 186 97 47 159 
72 8 178 120 16 190 184 223 156 34 
73 9 48 70 87 147 96 55 151 14 158 
74 9 196 51 135 53 227 49 54 117 219 
75 9 142 10 76 242 208 193 40 187 56 
76 9 187 56 242 106 189 208 75 155 12 
77 8 113 131 165 134 25 143 238 91 
78 6 103 129 10 66 40 199 
79 9 67 244 167 32 240 107 201 200 162 
80 5 230 224 206 43 146 
81 6 15 211 215 182 123 132 
82 8 233 197 64 217 153 174 127 228 
83 9 89 43 23 224 230 175 80 206 30 
84 9 202 39 179 176 163 180 20 213 58 
85 8 57 29 234 209 102 237 235 185 
86 8 192 233 82 33 41 116 112 118 
87 9 48 147 73 70 14 151 96 55 216 
88 5 146 206 43 80 230 
89 9 83 23 175 43 224 30 157 236 115 
90 4 22 109 205 139 
91 6 239 221 243 25 238 134 
92 9 195 24 3 6 59 7 95 152 38 
93 5 107 244 181 67 79 
94 4 154 225 61 35 
95 9 6 5 3 110 220 105 195 149 92 
96 9 55 70 158 122 118 140 73 151 147 
97 9 63 18 139 71 194 114 11 169 119 
98 7 19 105 220 5 95 110 149 
99 9 117 185 42 49 102 54 227 51 29 
100 8 204 54 207 185 135 219 49 53 
101 9 222 133 27 155 13 111 12 8 21 
102 9 29 99 85 185 42 117 57 190 49 
103 5 199 78 2 129 10 
104 9 58 20 180 201 212 107 179 226 145 
105 9 5 98 220 19 95 110 149 6 3 
106 9 56 76 187 2 12 242 189 28 208 
107 9 244 201 104 67 93 79 212 58 20 
108 9 17 26 62 172 121 130 143 193 74 
109 4 205 68 90 13 
110 9 149 95 6 105 5 3 195 220 92 
111 5 27 155 222 189 170 
112 9 118 140 122 151 86 158 233 96 55 
113 9 77 131 143 219 134 165 25 207 53 
114 9 18 63 97 126 148 139 60 35 194 
115 5 236 30 171 175 89 
116 9 33 41 44 192 45 9 36 31 145 
117 9 49 51 99 227 42 185 54 135 196 
118 9 122 112 140 158 96 55 151 86 70 
119 6 186 169 71 159 11 191 
120 9 203 34 156 178 183 223 184 127 174 
121 9 172 130 26 62 36 45 108 44 9 
122 9 118 158 55 96 112 140 70 151 202 
123 5 243 215 182 15 239 
124 9 138 128 39 213 65 37 171 202 176 
125 4 198 188 191 69 
126 9 148 60 114 137 18 63 139 22 97 
127 9 174 34 156 153 203 183 223 197 184 
128 6 65 37 171 138 124 115 
129 4 78 66 103 199 
130 8 172 62 121 26 181 36 193 108 
131 9 134 77 25 165 238 113 91 239 243 
132 7 182 215 15 136 81 123 211 
133 9 8 101 21 13 152 222 27 155 59 
134 8 25 91 243 239 131 238 165 221 
135 9 51 49 54 196 53 117 204 74 185 
136 8 132 182 215 66 165 15 123 81 
137 9 148 126 50 60 52 114 144 4 38 
138 6 124 213 128 39 171 176 
139 8 97 63 18 71 90 114 22 119 
140 9 151 112 118 122 147 96 216 55 70 
141 9 38 50 52 24 21 92 8 59 137 
142 9 75 40 10 143 76 193 78 208 242 
143 9 113 40 77 142 17 108 75 131 10 
144 9 4 61 35 148 114 126 18 137 63 
145 9 226 179 58 44 180 104 20 36 107 
146 6 206 88 43 80 230 83 
147 9 87 151 70 14 216 48 73 140 96 
148 9 126 137 114 60 18 63 144 4 139 
149 9 110 95 105 6 5 3 195 220 98 
150 7 160 164 210 47 11 159 194 
151 9 140 147 216 70 118 112 96 122 55 
152 9 59 21 7 46 133 8 12 101 24 
153 9 174 127 197 156 34 223 203 184 183 
154 4 225 94 160 35 
155 9 222 27 189 111 101 187 242 208 12 
156 9 34 127 203 174 223 183 153 184 120 
157 5 175 23 236 173 224 
158 9 122 55 96 118 202 70 112 124 140 
159 7 210 47 11 169 164 186 119 
160 4 150 164 210 47 
161 6 16 190 42 227 178 184 
162 7 32 167 79 200 240 67 244 
163 4 176 213 39 214 
164 9 47 210 11 150 159 169 160 194 71 
165 8 134 131 243 123 25 77 91 239 
166 2 191 69 
167 9 32 79 240 200 67 244 162 188 107 
168 8 188 232 218 69 200 240 125 198 
169 7 186 119 11 71 159 47 210 
170 1 68 
171 6 65 128 37 115 138 236 
172 9 62 130 26 121 108 181 36 193 17 
173 4 224 157 23 175 
174 9 127 153 34 156 203 197 183 223 184 
175 7 23 157 236 173 224 89 115 
176 3 163 39 213 
177 3 238 221 25 
178 8 184 223 120 156 34 127 203 72 
179 9 180 58 20 226 145 104 84 212 201 
180 9 20 58 104 179 212 201 226 145 107 
181 5 93 130 107 172 62 
182 7 215 132 123 15 81 136 165 
183 9 203 34 156 217 127 174 197 153 120 
184 7 223 178 156 34 127 153 174 
185 9 54 49 99 117 100 204 135 51 29 
186 6 119 169 159 71 11 191 
187 9 76 189 242 56 208 106 155 222 12 
188 7 168 200 240 125 69 218 232 
189 9 242 187 208 155 76 222 56 111 27 
190 9 16 42 161 72 99 227 117 102 178 
191 6 198 69 125 166 186 119 
192 8 33 86 41 116 9 31 45 241 
193 7 62 208 26 130 172 75 242 
194 9 11 71 47 97 164 169 210 150 159 
195 9 92 3 6 24 95 59 110 7 5 
196 9 74 135 53 51 49 54 227 219 117 
197 9 153 174 127 217 34 183 156 203 64 
198 4 191 69 125 218 
199 2 103 2 
200 7 240 32 167 188 168 79 162 
201 9 212 104 20 107 180 58 67 244 214 
202 9 84 39 158 176 179 124 213 163 122 
203 9 34 183 156 127 174 217 120 153 223 
204 9 100 54 207 219 53 135 185 49 51 
205 3 109 68 90 
206 6 146 88 43 80 230 83 
207 9 219 204 100 53 177 54 135 238 25 
208 7 242 189 187 76 111 56 155 
209 6 57 234 237 235 85 29 
210 8 47 164 159 11 150 169 160 186 
211 3 81 15 215 
212 9 201 20 104 180 214 58 67 107 244 
213 4 176 39 163 138 
214 5 212 201 20 163 67 
215 6 182 15 132 81 123 211 
216 9 151 147 14 140 87 231 70 112 118 
217 9 183 64 228 203 197 34 127 174 156 
218 7 232 69 168 198 191 188 166 
219 9 207 53 204 100 135 196 54 74 177 
220 8 5 95 105 19 98 6 3 110 
221 5 239 91 238 25 177 
222 9 155 27 101 189 111 187 12 242 208 
223 8 184 156 34 127 174 178 153 203 
224 6 23 173 230 175 157 80 
225 4 154 35 61 94 
226 9 145 179 58 104 180 44 20 36 107 
227 9 51 117 42 49 135 99 54 196 74 
228 9 64 217 183 203 197 34 127 174 156 
229 9 28 46 7 12 59 152 106 2 56 
230 3 80 224 43 
231 9 228 64 233 82 217 112 140 197 183 
232 5 218 69 168 188 198 
233 8 82 64 197 217 228 86 153 174 
234 6 57 237 209 85 235 29 
235 4 237 234 209 57 
236 4 115 157 175 23 
237 5 235 234 209 57 85 
238 6 25 177 221 91 239 134 
239 6 91 221 243 25 238 134 
240 8 200 167 32 188 79 168 67 244 
241 5 31 153 184 223 174 
242 9 208 189 187 76 56 155 106 111 222 
243 7 91 239 134 221 25 123 238 
244 9 67 79 167 107 201 212 32 93 240 
DEPOT_SECTION
   1
   -1
EOF
