NAME :  X-n351-kX-w70-c9.cctp
COMMENT : 	Adapted by Maziero, Usberti and Cavellucci from the Uchoa, Pecin, Pessoa, Poggi, Subramanian, and Vidal (2013)
TYPE :  CCTP
DIMENSION :    321
EDGE_WEIGHT_TYPE : 	EUC_2D	
CAPACITY : 	436
VERTICES_WITHIN_COVERAGE :  9
VERTICES_WITH_DEMAND : 	70
NODE_COORD_SECTION
1 500 500
2 740 442
3 261 710
4 578 522
5 562 509
6 795 425
7 636 463
8 645 617
9 595 524
10 649 599
11 745 252
12 180 757
13 590 598
14 332 775
15 544 551
16 1000 444
17 581 521
18 240 609
19 700 468
20 735 579
21 403 569
22 352 905
23 733 352
24 289 705
25 598 249
26 565 570
27 711 336
28 816 497
29 769 411
30 409 651
31 231 742
32 575 555
33 567 477
34 693 537
35 521 534
36 457 414
37 826 450
38 638 617
39 245 744
40 235 859
41 233 821
42 863 455
43 739 480
44 311 717
45 567 373
46 753 427
47 547 493
48 732 382
49 664 511
50 945 316
51 250 770
52 598 493
53 262 653
54 568 558
55 877 808
56 395 796
57 467 732
58 685 327
59 260 910
60 571 648
61 747 398
62 571 650
63 541 442
64 841 466
65 744 725
66 662 349
67 686 543
68 184 776
69 177 770
70 664 559
71 802 446
72 662 566
73 605 544
74 287 671
75 556 738
76 615 511
77 293 693
78 375 671
79 383 614
80 834 417
81 704 397
82 255 696
83 708 388
84 799 172
85 298 531
86 740 456
87 661 582
88 659 461
89 630 290
90 267 721
91 682 474
92 269 639
93 577 361
94 540 550
95 370 733
96 546 587
97 708 412
98 724 572
99 416 688
100 544 794
101 714 478
102 916 502
103 313 770
104 464 361
105 356 921
106 776 470
107 477 721
108 733 447
109 724 495
110 272 792
111 491 471
112 348 505
113 595 628
114 227 720
115 781 585
116 807 595
117 582 503
118 505 586
119 235 788
120 716 440
121 633 421
122 826 476
123 879 350
124 738 475
125 676 446
126 388 669
127 465 690
128 543 422
129 675 544
130 770 613
131 434 594
132 647 551
133 468 405
134 0 863
135 663 582
136 209 755
137 966 516
138 580 593
139 221 558
140 230 594
141 329 768
142 786 523
143 636 512
144 704 474
145 819 376
146 516 472
147 724 505
148 565 501
149 404 589
150 663 527
151 901 693
152 254 640
153 726 813
154 253 708
155 269 730
156 823 519
157 586 689
158 739 421
159 706 519
160 726 423
161 614 525
162 643 328
163 793 426
164 221 731
165 290 732
166 709 310
167 654 492
168 745 370
169 459 639
170 618 570
171 613 528
172 652 434
173 258 637
174 722 421
175 535 578
176 242 624
177 371 387
178 835 757
179 671 445
180 764 425
181 771 480
182 242 763
183 670 520
184 580 482
185 292 823
186 547 443
187 807 780
188 520 622
189 555 484
190 747 340
191 228 846
192 760 446
193 734 451
194 604 277
195 790 405
196 680 445
197 741 460
198 244 758
199 600 503
200 562 518
201 620 425
202 852 489
203 577 553
204 235 755
205 879 359
206 187 725
207 724 328
208 775 451
209 283 660
210 195 572
211 830 457
212 205 739
213 733 341
214 884 418
215 434 452
216 716 458
217 495 573
218 579 545
219 228 725
220 604 417
221 420 730
222 626 499
223 555 449
224 551 554
225 177 983
226 794 430
227 771 573
228 487 291
229 239 703
230 789 477
231 273 752
232 521 478
233 677 456
234 505 327
235 453 744
236 321 753
237 509 497
238 749 451
239 633 815
240 796 429
241 341 677
242 797 485
243 571 649
244 276 631
245 857 439
246 587 776
247 750 412
248 752 393
249 170 716
250 831 441
251 591 407
252 605 549
253 201 625
254 300 676
255 548 478
256 637 450
257 706 463
258 788 583
259 611 574
260 176 761
261 404 508
262 614 415
263 257 707
264 780 394
265 729 472
266 547 462
267 379 817
268 539 556
269 498 909
270 275 706
271 726 426
272 269 637
273 780 439
274 724 478
275 832 405
276 512 428
277 623 445
278 763 481
279 817 463
280 755 418
281 655 522
282 720 471
283 286 645
284 320 745
285 289 737
286 636 260
287 679 590
288 256 618
289 264 677
290 326 681
291 229 729
292 553 266
293 519 526
294 692 552
295 709 509
296 547 655
297 794 421
298 189 728
299 565 676
300 326 462
301 687 334
302 298 705
303 582 478
304 737 579
305 458 895
306 663 391
307 394 639
308 352 782
309 621 303
310 268 629
311 440 831
312 748 593
313 400 547
314 268 721
315 226 646
316 578 616
317 648 377
318 446 574
319 502 571
320 574 593
321 459 466
DEMAND_SECTION
2 43
3 82
4 57
5 51
6 29
7 55
8 71
9 35
10 28
11 36
12 18
13 42
14 79
15 88
16 68
17 99
18 10
19 11
20 77
21 68
22 44
23 17
24 60
25 33
26 30
27 37
28 87
29 18
30 6
31 42
32 1
33 22
34 78
35 94
36 65
37 88
38 28
39 29
40 34
41 87
42 47
43 53
44 44
45 34
46 94
47 70
48 41
49 28
50 80
51 32
52 20
53 16
54 70
55 22
56 96
57 81
58 23
59 46
60 2
61 56
62 45
63 66
64 7
65 64
66 73
67 51
68 64
69 81
70 86
71 52
COVERAGE_SECTION
2 9 108 193 238 86 197 46 192 158 271 
3 9 263 154 90 314 82 270 155 229 24 
4 9 17 200 9 117 5 218 148 199 203 
5 9 148 200 4 117 17 47 189 33 184 
6 9 163 240 297 226 195 273 71 29 180 
7 9 256 277 88 172 167 222 179 201 121 
8 9 38 10 87 135 287 113 72 170 259 
9 9 17 4 171 161 73 199 76 117 218 
10 9 8 38 87 135 287 72 170 70 259 
11 9 166 207 190 213 27 58 84 301 23 
12 9 260 69 68 136 298 212 206 249 164 
13 9 138 320 316 113 259 26 170 96 32 
14 9 141 103 308 236 284 95 285 165 44 
15 9 94 268 224 54 26 175 35 32 203 
16 9 137 102 214 42 50 245 205 123 202 
17 9 4 9 117 200 5 218 148 199 203 
18 9 176 140 288 173 152 310 272 315 92 
19 9 144 257 101 91 216 282 233 274 265 
20 9 304 98 312 227 115 130 294 258 287 
21 8 149 313 131 318 79 261 307 30 
22 9 105 59 267 185 305 311 56 308 40 
23 9 213 190 168 207 27 48 83 248 61 
24 9 302 77 270 44 314 90 165 3 254 
25 9 194 286 292 89 309 162 93 58 66 
26 9 54 32 203 224 96 320 138 15 218 
27 9 207 213 301 166 23 58 190 168 48 
28 9 242 122 156 230 279 202 64 142 211 
29 9 180 280 247 264 195 46 248 61 297 
30 9 307 126 99 78 79 169 131 149 127 
31 9 291 39 204 164 219 198 114 182 136 
32 9 203 54 218 26 224 15 252 73 4 
33 9 184 189 303 255 148 266 47 117 223 
34 9 67 294 129 159 183 150 295 70 49 
35 9 293 94 268 15 224 237 319 200 175 
36 9 133 215 321 104 276 111 146 128 63 
37 9 211 250 279 64 71 122 245 80 42 
38 9 8 10 87 135 113 287 170 259 13 
39 9 31 198 204 182 291 219 51 164 155 
40 9 191 41 59 185 119 110 51 182 68 
41 9 191 119 40 110 51 182 185 198 204 
42 9 245 64 211 250 202 37 122 214 279 
43 9 124 265 274 197 109 282 86 278 101 
44 9 302 24 165 284 77 285 236 270 290 
45 9 93 251 128 220 262 186 63 201 223 
46 9 280 180 158 247 2 192 29 238 160 
47 9 189 255 148 5 33 200 232 266 184 
48 9 168 61 248 83 23 81 247 97 158 
49 9 183 281 150 167 143 129 34 67 222 
50 6 123 205 214 16 145 275 
51 9 182 198 204 119 39 231 110 31 136 
52 9 199 117 184 303 76 222 9 17 148 
53 9 152 92 173 272 209 289 283 310 244 
54 9 32 203 26 218 224 15 94 268 96 
55 9 178 187 151 153 65 130 116 258 115 
56 9 267 308 311 14 95 221 141 235 103 
57 9 107 235 127 221 99 75 169 56 95 
58 9 301 27 166 66 207 162 213 23 317 
59 9 40 191 22 41 185 105 225 110 119 
60 9 243 62 296 299 113 316 157 13 320 
61 9 248 247 48 280 158 29 168 46 180 
62 9 243 60 296 299 113 316 157 13 320 
63 9 186 223 128 266 276 255 146 232 33 
64 9 211 122 37 279 42 202 250 245 28 
65 9 187 153 178 130 312 239 116 115 20 
66 7 162 301 317 58 306 27 83 
67 9 34 129 294 70 150 183 159 72 281 
68 9 69 260 12 136 212 298 206 119 204 
69 9 68 260 12 136 212 298 206 249 164 
70 9 72 129 132 87 135 67 294 150 287 
71 9 226 240 6 163 273 279 37 297 208 
72 9 70 87 135 132 129 287 67 294 10 
73 8 252 171 161 9 218 170 203 259 
74 9 209 254 77 289 283 53 24 302 92 
75 9 246 100 157 299 107 296 57 62 243 
76 8 161 222 171 199 143 9 52 73 
77 9 24 302 254 270 74 44 289 209 290 
78 8 126 241 307 30 99 290 79 95 
79 7 307 149 30 21 126 131 78 
80 9 275 250 245 37 6 211 240 297 163 
81 7 83 97 174 48 160 271 306 
82 7 263 154 3 229 289 270 90 
83 8 81 97 48 174 160 61 168 271 
84 6 11 166 207 190 213 286 
85 6 112 300 139 140 18 288 
86 9 197 193 238 108 2 124 265 192 43 
87 9 135 72 287 10 70 132 8 129 38 
88 9 233 179 7 125 256 91 196 172 167 
89 9 309 194 286 162 25 58 66 301 166 
90 9 314 155 3 263 270 154 165 24 285 
91 9 19 233 144 88 257 125 196 179 101 
92 9 272 310 173 244 152 53 283 209 288 
93 9 45 251 220 262 128 309 317 162 201 
94 9 15 268 224 35 175 54 26 293 32 
95 9 221 284 308 236 141 14 44 78 241 
96 9 175 26 320 268 224 138 15 54 94 
97 8 81 174 160 271 83 120 158 48 
98 9 20 304 312 294 34 227 67 287 129 
99 9 126 30 221 78 127 307 95 169 57 
100 9 246 75 239 57 107 235 311 157 299 
101 9 282 274 144 265 19 257 109 216 124 
102 9 137 202 42 64 245 214 122 156 211 
103 9 141 236 14 284 285 308 165 231 110 
104 9 133 36 234 228 276 215 177 128 45 
105 9 22 59 305 267 185 311 56 40 308 
106 9 181 230 278 208 242 192 273 238 71 
107 9 57 127 235 221 99 75 169 296 30 
108 9 193 2 86 197 238 120 216 271 160 
109 9 147 274 101 43 295 124 265 282 144 
110 9 51 119 185 231 182 198 103 41 204 
111 9 146 232 237 321 276 255 266 63 47 
112 6 300 85 261 313 21 149 
113 9 316 13 60 243 62 138 320 38 8 
114 7 219 291 164 229 31 154 212 
115 7 258 227 116 130 312 304 20 
116 7 258 115 130 227 312 304 20 
117 9 148 17 199 4 52 5 184 9 200 
118 9 319 217 175 188 96 268 94 15 35 
119 9 51 182 198 41 204 110 136 39 31 
120 9 271 108 216 160 174 193 2 257 86 
121 8 201 262 172 277 220 256 7 306 
122 9 279 64 211 28 37 202 242 250 230 
123 6 205 145 214 275 50 80 
124 9 43 265 274 197 282 86 101 109 193 
125 9 196 179 233 88 172 91 19 257 256 
126 8 78 30 307 99 241 79 290 95 
127 9 107 57 99 169 235 221 30 126 188 
128 9 63 186 223 276 266 251 45 255 146 
129 9 67 34 70 294 150 183 72 132 281 
130 7 115 312 258 227 116 304 20 
131 9 318 149 21 169 79 313 307 30 217 
132 8 70 72 129 150 281 87 135 170 
133 9 36 104 276 215 321 111 128 63 146 
134 7 69 260 68 12 225 249 191 
135 9 87 72 287 10 70 132 8 129 294 
136 9 212 31 204 164 12 68 291 182 260 
137 9 102 16 202 42 214 245 64 156 122 
138 9 320 13 316 26 96 259 54 32 113 
139 9 210 140 18 176 288 253 85 310 173 
140 9 18 176 288 139 210 253 173 152 310 
141 9 14 103 236 284 308 285 165 44 95 
142 7 156 28 242 181 230 278 227 
143 8 222 76 281 161 167 49 171 150 
144 9 19 101 257 282 216 274 91 265 109 
145 6 275 195 264 80 297 6 
146 9 232 111 237 255 266 47 63 189 186 
147 9 109 295 159 274 43 101 124 265 282 
148 9 5 117 200 47 189 33 184 4 17 
149 8 21 131 79 313 318 307 30 169 
150 9 281 183 49 129 67 132 143 34 70 
151 7 178 55 187 116 130 258 65 
152 9 173 53 92 272 310 176 288 244 315 
153 9 187 65 239 178 246 55 100 75 157 
154 7 263 3 82 229 90 314 270 
155 9 90 314 165 285 3 231 270 263 154 
156 8 28 142 202 122 242 230 64 279 
157 9 299 62 243 60 296 75 113 316 246 
158 9 160 247 271 46 280 174 2 61 180 
159 9 295 34 147 109 67 183 294 129 101 
160 9 271 174 158 120 97 2 108 247 46 
161 8 171 76 9 73 143 199 252 222 
162 9 66 309 89 58 301 317 194 306 27 
163 9 6 226 240 297 273 195 71 29 180 
164 8 291 219 114 31 212 39 136 204 
165 9 285 155 90 314 44 231 24 302 270 
166 9 207 27 58 301 213 23 190 66 11 
167 9 49 143 222 281 88 183 91 7 150 
168 9 48 23 248 61 190 213 83 247 264 
169 9 30 127 131 188 99 307 318 118 149 
170 8 259 252 73 132 13 10 171 72 
171 8 161 76 9 73 252 143 199 222 
172 9 179 256 121 125 88 196 277 7 201 
173 9 152 92 272 310 53 244 288 176 283 
174 9 160 271 97 158 120 2 108 247 81 
175 9 96 268 15 94 224 26 118 319 54 
176 9 18 288 152 173 310 315 272 92 140 
177 9 300 36 215 104 133 321 112 261 111 
178 9 187 55 151 65 153 130 116 115 258 
179 9 125 196 233 88 172 91 256 19 7 
180 9 46 280 29 247 192 273 158 208 2 
181 9 278 106 230 242 208 43 124 192 197 
182 9 198 51 204 39 31 119 231 136 291 
183 9 150 49 281 129 67 34 167 143 159 
184 9 303 33 52 117 148 189 199 5 255 
185 9 110 103 41 14 141 40 119 51 191 
186 9 63 223 266 128 255 276 33 146 189 
187 9 178 55 65 153 151 130 239 116 312 
188 9 118 296 96 175 319 217 60 62 243 
189 9 255 47 33 148 266 184 5 303 117 
190 8 213 23 207 168 27 48 166 248 
191 9 40 41 119 185 110 59 51 68 182 
192 9 238 208 2 46 180 273 86 197 193 
193 9 108 86 2 197 238 216 120 265 124 
194 9 25 89 309 286 292 162 93 66 58 
195 9 264 297 6 163 29 226 240 180 273 
196 9 125 179 233 88 91 19 172 257 120 
197 9 86 193 238 108 124 265 2 43 192 
198 9 182 204 51 39 31 231 119 291 136 
199 9 52 76 117 9 17 161 222 171 4 
200 9 5 4 148 17 117 47 218 9 189 
201 8 262 121 220 277 256 172 251 7 
202 9 64 122 42 28 211 156 279 37 245 
203 9 32 218 54 26 224 252 73 4 17 
204 9 198 182 31 39 51 136 291 164 219 
205 6 123 214 145 275 80 50 
206 8 298 249 212 12 164 136 260 114 
207 9 27 213 166 23 190 301 58 168 48 
208 9 273 192 106 238 71 180 226 181 230 
209 9 74 283 53 254 92 289 272 244 77 
210 7 139 140 253 18 176 288 315 
211 9 37 64 279 250 122 71 245 42 202 
212 9 136 164 298 206 31 291 219 114 12 
213 9 23 190 207 27 168 166 48 301 58 
214 9 245 42 80 275 250 205 64 37 211 
215 9 321 36 133 111 261 276 146 237 177 
216 9 257 282 120 19 193 265 101 108 144 
217 9 319 118 175 35 268 318 94 96 293 
218 9 203 32 54 4 17 9 73 252 26 
219 8 291 114 164 31 39 229 212 154 
220 9 262 251 201 121 277 256 172 7 45 
221 9 235 99 57 95 107 127 126 56 78 
222 8 76 143 199 52 161 167 171 7 
223 9 186 266 63 33 128 255 189 303 184 
224 9 15 94 268 54 26 32 203 175 218 
225 9 59 40 191 41 105 22 185 119 68 
226 9 240 163 6 297 273 71 195 208 180 
227 7 115 258 312 304 20 130 116 
228 9 234 292 104 93 45 133 194 25 36 
229 5 154 82 263 114 3 
230 9 242 106 181 278 208 279 28 71 122 
231 9 155 285 165 39 51 198 314 90 182 
232 9 146 237 255 47 111 266 189 63 186 
233 9 125 196 179 88 91 19 257 144 172 
234 9 228 104 45 292 93 133 36 276 128 
235 9 57 107 221 127 99 56 95 311 126 
236 9 284 141 103 14 285 44 165 308 231 
237 9 232 146 293 111 47 35 255 189 266 
238 9 86 192 197 2 193 108 46 124 208 
239 9 246 100 153 75 157 65 299 269 62 
240 9 226 6 163 297 71 273 195 208 29 
241 8 290 78 254 126 44 77 302 74 
242 9 230 28 106 181 122 279 278 71 142 
243 9 60 62 296 299 113 316 157 13 320 
244 9 310 272 92 283 173 152 288 53 209 
245 9 42 250 64 80 211 37 214 275 279 
246 9 100 75 239 157 299 107 62 296 57 
247 9 280 61 158 46 29 180 248 160 271 
248 9 61 247 48 168 29 280 264 158 46 
249 5 206 298 12 212 260 
250 9 37 211 80 245 279 64 71 42 122 
251 9 220 262 201 45 121 93 128 277 223 
252 8 73 171 170 161 218 259 9 203 
253 7 315 176 18 140 210 152 288 
254 9 74 77 209 290 302 24 283 289 270 
255 9 189 47 266 33 232 148 223 184 146 
256 9 7 277 172 88 121 201 179 125 233 
257 9 19 144 216 282 101 274 120 265 91 
258 7 115 227 116 130 312 304 20 
259 9 170 252 73 13 138 203 32 320 132 
260 9 12 69 68 136 298 212 206 249 164 
261 9 313 112 21 215 321 318 149 131 300 
262 9 220 201 121 251 277 172 256 317 7 
263 8 154 3 82 90 229 270 314 155 
264 9 195 29 248 297 61 6 163 180 247 
265 9 274 124 282 43 101 197 86 216 193 
266 9 223 255 186 63 189 33 47 232 146 
267 9 56 308 14 311 141 103 95 236 185 
268 9 94 15 224 175 35 54 26 96 32 
269 9 305 311 100 105 22 267 56 246 239 
270 9 24 3 90 314 263 77 82 154 302 
271 9 160 174 158 120 2 108 97 193 46 
272 9 92 310 244 173 152 53 283 288 209 
273 9 208 226 163 240 6 180 192 71 297 
274 9 265 282 101 124 43 109 144 216 257 
275 9 80 145 250 297 6 195 245 240 163 
276 9 63 128 186 146 111 223 266 133 232 
277 9 256 201 7 121 172 262 220 88 179 
278 9 181 106 43 124 230 197 208 238 86 
279 9 211 37 122 71 64 250 242 230 28 
280 9 247 46 180 29 158 61 248 2 192 
281 8 150 49 183 143 129 132 167 67 
282 9 274 101 265 216 144 257 124 19 43 
283 9 209 244 92 272 310 53 74 173 152 
284 9 236 141 103 44 14 285 165 302 231 
285 9 165 155 231 314 90 44 24 284 302 
286 9 89 194 25 309 162 58 292 166 301 
287 9 135 87 72 10 70 294 8 129 67 
288 9 176 310 18 173 152 272 244 92 140 
289 8 82 53 74 209 263 270 3 77 
290 8 241 254 77 302 44 74 24 209 
291 8 219 164 114 31 39 212 204 229 
292 9 25 194 228 309 234 89 286 93 45 
293 9 35 237 94 15 268 47 224 200 5 
294 9 67 34 129 70 72 159 98 150 183 
295 9 159 147 109 101 34 274 144 282 67 
296 9 60 62 243 299 188 316 157 113 96 
297 9 6 163 240 226 195 273 71 29 180 
298 9 206 212 249 12 164 136 260 114 219 
299 9 157 62 243 296 60 113 316 75 188 
300 8 112 85 177 261 215 313 21 321 
301 9 58 27 66 166 207 162 213 23 83 
302 9 24 77 44 270 165 254 285 314 90 
303 9 184 33 52 117 189 148 199 255 5 
304 9 20 98 312 227 115 130 258 294 287 
305 9 269 311 105 22 267 56 100 235 308 
306 7 317 81 66 121 172 83 97 
307 8 30 79 126 78 149 99 131 169 
308 9 14 141 103 236 267 56 284 95 185 
309 9 89 194 162 286 25 66 58 93 301 
310 9 244 272 92 173 288 152 283 53 176 
311 9 56 267 305 235 269 308 57 221 100 
312 8 304 20 130 227 98 115 258 116 
313 7 21 261 149 318 131 112 79 
314 9 90 155 3 270 263 154 165 24 285 
315 5 176 152 173 253 53 
316 9 113 13 138 320 60 243 62 96 26 
317 7 306 66 121 162 262 201 172 
318 9 131 21 149 217 313 319 118 169 79 
319 9 217 118 175 268 35 94 15 96 293 
320 9 138 13 316 26 96 54 32 203 113 
321 9 215 111 36 146 237 133 232 276 261 
DEPOT_SECTION
   1
   -1
EOF
