NAME :  X-n308-kX-w61-c11.cctp
COMMENT : 	Adapted by Maziero, Usberti and Cavellucci from the Uchoa, Pecin, Pessoa, Poggi, Subramanian, and Vidal (2013)
TYPE :  CCTP
DIMENSION :    241
EDGE_WEIGHT_TYPE : 	EUC_2D	
CAPACITY : 	246
VERTICES_WITHIN_COVERAGE :  11
VERTICES_WITH_DEMAND : 	61
NODE_COORD_SECTION
1 0 0
2 706 137
3 392 662
4 692 274
5 944 370
6 726 945
7 869 43
8 621 770
9 112 402
10 523 374
11 619 178
12 553 457
13 95 814
14 696 130
15 27 417
16 940 487
17 943 965
18 670 435
19 931 752
20 307 776
21 404 101
22 199 526
23 117 312
24 762 505
25 433 864
26 868 155
27 832 870
28 488 624
29 686 782
30 585 89
31 268 339
32 248 344
33 22 776
34 89 614
35 75 271
36 882 646
37 6 656
38 449 27
39 857 362
40 809 774
41 403 626
42 559 145
43 667 945
44 524 737
45 683 777
46 641 798
47 514 495
48 102 813
49 517 591
50 748 330
51 859 127
52 699 41
53 281 442
54 257 106
55 116 99
56 41 732
57 555 95
58 378 1
59 155 308
60 942 955
61 619 205
62 646 910
63 796 791
64 785 49
65 958 817
66 37 119
67 761 866
68 404 417
69 929 432
70 743 535
71 418 679
72 107 379
73 22 432
74 24 474
75 380 83
76 145 135
77 576 209
78 877 859
79 901 0
80 464 473
81 181 35
82 976 331
83 324 264
84 193 341
85 525 782
86 527 935
87 218 529
88 431 989
89 626 974
90 594 432
91 757 450
92 805 123
93 959 266
94 348 776
95 409 946
96 841 361
97 333 503
98 675 306
99 407 811
100 856 199
101 300 792
102 371 156
103 163 237
104 172 589
105 609 928
106 273 18
107 379 694
108 996 38
109 4 6
110 738 18
111 693 307
112 989 54
113 468 585
114 594 172
115 563 205
116 271 783
117 58 987
118 374 383
119 775 530
120 913 512
121 413 798
122 813 948
123 943 941
124 437 169
125 247 374
126 347 51
127 8 111
128 321 825
129 854 335
130 619 272
131 742 232
132 496 187
133 605 66
134 973 75
135 241 509
136 845 106
137 955 319
138 432 662
139 704 73
140 418 205
141 817 754
142 570 429
143 362 720
144 114 713
145 11 516
146 737 62
147 563 318
148 386 880
149 493 321
150 655 303
151 524 297
152 633 506
153 522 325
154 541 547
155 89 325
156 76 414
157 378 958
158 222 135
159 233 59
160 118 33
161 340 718
162 682 361
163 82 210
164 293 801
165 249 336
166 232 799
167 102 526
168 87 148
169 664 361
170 656 366
171 537 434
172 330 105
173 621 753
174 401 923
175 159 253
176 552 382
177 271 72
178 804 650
179 213 3
180 598 388
181 243 144
182 623 781
183 107 370
184 62 608
185 55 270
186 841 468
187 221 773
188 79 461
189 186 665
190 165 871
191 608 391
192 349 329
193 227 136
194 559 430
195 387 3
196 149 266
197 100 768
198 567 435
199 110 270
200 304 770
201 739 876
202 61 312
203 71 260
204 215 125
205 481 97
206 289 287
207 235 151
208 413 724
209 362 952
210 107 111
211 300 735
212 517 304
213 734 562
214 259 344
215 783 708
216 159 450
217 373 44
218 483 678
219 704 755
220 30 414
221 385 930
222 683 188
223 163 27
224 3 371
225 138 120
226 577 482
227 524 915
228 856 763
229 8 227
230 216 95
231 256 24
232 365 753
233 614 173
234 554 665
235 201 907
236 629 776
237 339 342
238 47 176
239 67 412
240 206 824
241 154 267
DEMAND_SECTION
2 80
3 94
4 87
5 77
6 77
7 50
8 79
9 86
10 75
11 84
12 88
13 94
14 74
15 95
16 89
17 83
18 55
19 77
20 1
21 7
22 3
23 7
24 5
25 2
26 2
27 2
28 5
29 2
30 7
31 1
32 5
33 5
34 8
35 4
36 2
37 8
38 9
39 1
40 10
41 3
42 10
43 3
44 2
45 3
46 2
47 1
48 5
49 4
50 3
51 4
52 3
53 5
54 3
55 5
56 6
57 9
58 6
59 4
60 2
61 7
62 10
COVERAGE_SECTION
2 11 14 222 139 146 11 52 233 92 131 61 114 
3 11 71 107 41 138 143 208 161 218 232 28 113 
4 10 111 98 150 131 130 50 222 162 169 170 
5 11 82 137 69 39 129 96 93 16 186 120 100 
6 11 43 201 67 62 122 89 105 27 29 63 46 
7 11 79 136 64 51 92 134 26 112 108 110 146 
8 11 236 182 173 46 45 29 219 85 44 234 62 
9 9 72 183 156 239 216 188 155 220 15 
10 11 176 153 149 171 194 147 212 142 198 180 151 
11 11 233 114 61 77 115 222 42 14 130 30 2 
12 11 198 171 194 142 226 90 47 176 180 191 10 
13 10 48 197 33 190 56 144 240 187 166 235 
14 11 2 139 222 146 52 11 233 61 92 114 133 
15 7 220 73 239 156 224 74 188 
16 11 120 69 186 5 39 82 96 36 137 119 129 
17 11 60 123 78 122 27 65 67 19 6 228 201 
18 11 170 169 162 90 191 152 180 91 142 198 226 
19 11 65 228 141 36 78 40 63 27 215 178 123 
20 8 200 101 164 116 94 211 128 232 
21 11 75 102 217 172 124 126 205 38 195 58 140 
22 11 87 135 104 216 167 53 97 188 189 34 9 
23 10 155 59 199 196 202 241 35 183 72 203 
24 7 119 70 91 213 186 18 152 
25 6 148 99 174 121 221 95 
26 11 51 100 136 92 7 134 64 93 131 79 112 
27 11 78 67 122 63 201 40 228 141 6 123 65 
28 11 49 113 218 138 234 41 71 154 3 44 208 
29 11 45 219 46 236 182 8 173 201 63 67 215 
30 11 133 57 42 114 233 11 205 14 115 77 139 
31 10 214 165 32 125 206 237 84 192 83 53 
32 10 165 214 31 125 84 206 237 59 192 53 
33 11 56 197 13 48 144 37 190 184 34 240 189 
34 11 184 104 167 37 144 189 145 56 22 188 74 
35 7 203 185 199 202 155 23 163 
36 7 178 19 215 228 141 120 40 
37 11 184 56 34 33 144 145 197 167 104 189 13 
38 11 195 58 205 217 21 75 126 57 172 124 30 
39 11 96 129 5 69 137 186 50 82 91 93 16 
40 11 63 141 228 215 27 67 219 78 29 19 178 
41 11 3 138 71 107 113 28 218 208 143 161 49 
42 11 114 57 115 30 233 77 11 132 61 133 205 
43 11 62 89 6 105 201 67 86 122 227 46 29 
44 10 85 218 234 173 8 182 208 236 28 138 
45 11 29 219 46 236 182 8 173 63 201 67 215 
46 11 182 236 8 45 29 173 219 62 85 201 44 
47 11 12 80 154 226 171 194 198 142 49 113 90 
48 10 13 197 190 33 56 144 240 187 166 235 
49 11 28 113 154 234 218 47 138 41 226 80 71 
50 11 111 162 98 4 169 150 96 131 170 129 39 
51 11 136 26 92 100 7 64 134 79 146 112 2 
52 11 139 146 110 64 14 2 133 30 92 222 57 
53 11 125 135 97 214 32 31 87 118 165 237 22 
54 9 177 181 193 230 158 204 207 159 172 
55 10 210 225 76 168 160 66 223 81 230 204 
56 11 33 197 144 37 13 48 184 34 189 187 190 
57 11 30 42 133 205 114 233 11 132 115 77 38 
58 11 195 217 126 38 75 21 106 172 231 177 205 
59 11 23 241 196 84 175 199 155 103 183 72 35 
60 11 17 123 78 122 27 65 67 19 228 6 201 
61 9 11 233 114 77 115 222 130 42 4 
62 11 43 105 89 6 201 46 86 227 67 182 29 
63 11 40 141 228 67 215 27 219 201 78 29 45 
64 11 146 110 92 136 7 139 52 51 2 14 79 
65 11 19 78 228 123 27 60 17 141 40 63 36 
66 11 127 168 238 210 55 225 163 76 229 109 160 
67 11 201 27 63 6 122 40 29 78 45 43 62 
68 9 118 80 237 192 97 53 10 149 171 
69 11 16 5 120 186 39 82 96 137 129 93 91 
70 4 213 119 24 91 
71 10 138 3 107 208 41 218 143 161 28 232 
72 7 183 9 156 239 155 23 202 
73 8 15 220 74 239 156 188 224 145 
74 10 73 145 15 188 220 239 156 167 224 9 
75 11 21 217 126 172 102 195 58 38 205 124 177 
76 8 225 210 55 168 204 158 230 193 
77 8 115 114 61 233 11 42 130 132 
78 11 27 65 228 123 63 40 122 60 67 19 141 
79 11 7 108 112 134 136 64 51 92 26 110 146 
80 11 47 68 171 12 194 154 198 113 226 10 142 
81 11 223 179 159 160 230 231 55 106 225 204 177 
82 11 137 5 93 69 129 39 96 16 100 120 186 
83 4 206 192 237 31 
84 11 59 32 165 125 214 31 23 241 196 183 72 
85 10 44 8 182 173 236 218 121 46 234 99 
86 11 227 105 89 88 25 95 62 174 43 221 148 
87 11 22 135 104 216 53 167 97 189 34 188 125 
88 9 95 157 174 221 209 86 148 227 25 
89 11 105 43 62 6 86 227 201 67 46 122 182 
90 11 142 198 194 191 180 12 226 171 176 18 152 
91 11 24 119 70 186 18 213 162 50 96 169 170 
92 11 136 51 26 64 146 100 2 7 14 139 110 
93 11 137 82 5 100 129 39 26 96 69 51 134 
94 4 232 20 200 101 
95 9 174 221 157 209 88 148 25 86 227 
96 11 39 129 50 5 186 69 137 91 82 93 111 
97 11 53 135 68 87 118 80 22 41 125 113 237 
98 9 111 150 4 162 169 170 130 50 131 
99 2 121 25 
100 11 26 51 92 136 131 93 129 137 7 2 39 
101 7 164 20 200 116 128 94 211 
102 6 21 172 124 140 75 126 
103 5 175 241 196 199 59 
104 11 22 87 189 34 167 135 184 144 216 188 145 
105 11 62 89 43 86 227 6 46 201 182 236 8 
106 11 231 177 159 179 126 54 81 230 217 172 58 
107 10 143 3 71 208 161 232 138 41 94 211 
108 11 112 134 79 7 51 136 26 92 64 100 93 
109 11 127 160 66 55 210 223 168 238 225 81 76 
110 11 146 52 64 139 14 2 92 7 136 133 51 
111 9 98 4 150 162 50 169 170 130 131 
112 11 108 134 79 7 51 136 26 92 100 64 93 
113 11 28 49 41 154 138 218 47 71 3 80 234 
114 10 233 11 61 77 42 115 30 57 222 132 
115 7 77 114 61 42 233 11 132 
116 10 164 101 200 20 166 187 211 128 94 240 
117 9 190 235 13 48 33 240 197 56 166 
118 9 68 237 192 53 31 214 80 97 125 
119 5 24 70 213 91 186 
120 11 16 69 186 36 119 5 24 39 96 91 70 
121 4 99 232 25 94 
122 11 27 6 67 201 78 60 123 17 43 63 62 
123 11 60 17 78 65 122 27 19 67 228 63 40 
124 7 140 132 102 21 205 75 42 
125 11 32 214 165 31 84 53 206 237 192 59 216 
126 11 217 75 172 58 195 21 177 106 231 38 54 
127 11 66 238 168 210 109 55 229 163 225 160 76 
128 3 164 101 20 
129 11 39 96 5 137 50 82 69 93 186 100 91 
130 8 150 98 61 147 4 77 111 115 
131 11 4 222 111 50 98 2 14 150 100 61 92 
132 5 124 115 42 140 77 
133 11 30 57 42 52 139 114 233 14 11 2 205 
134 11 112 108 79 7 51 26 136 100 92 64 93 
135 11 87 22 53 97 216 104 125 167 32 189 214 
136 11 51 92 26 7 64 100 146 79 134 110 2 
137 11 82 5 93 129 39 69 96 100 16 26 186 
138 10 71 3 41 218 107 208 28 113 143 161 
139 11 52 146 14 2 110 64 133 92 222 30 11 
140 5 124 102 132 21 83 
141 9 40 228 63 215 178 219 19 27 78 
142 11 198 194 90 12 171 176 180 226 191 10 47 
143 10 161 107 232 208 94 211 3 71 200 20 
144 11 197 56 189 48 34 13 33 184 37 187 104 
145 11 74 73 188 167 15 220 184 239 156 34 37 
146 11 139 52 110 64 14 2 92 136 133 7 222 
147 5 153 151 212 176 10 
148 5 174 25 221 95 99 
149 5 153 212 151 10 147 
150 9 98 111 4 130 169 170 162 147 50 
151 5 212 153 149 147 10 
152 10 226 18 90 12 198 142 154 194 70 213 
153 6 212 151 149 147 10 176 
154 11 49 47 226 113 12 28 152 80 171 198 194 
155 6 23 202 183 35 72 199 
156 8 239 9 220 72 188 15 183 73 
157 7 209 221 95 174 88 148 25 
158 6 193 204 207 181 230 54 
159 11 177 230 231 54 81 106 179 204 158 193 223 
160 11 223 81 55 210 225 179 76 230 109 66 159 
161 10 143 211 232 107 94 200 20 208 3 101 
162 10 169 170 98 111 150 50 18 191 4 180 
163 10 238 203 35 168 185 199 229 103 196 175 
164 8 101 116 20 200 128 94 166 211 
165 10 32 214 31 125 84 206 237 59 192 83 
166 9 187 240 116 164 101 20 200 128 211 
167 11 188 34 184 145 74 104 216 22 156 87 239 
168 9 210 238 55 66 225 76 163 127 229 
169 10 170 162 98 150 111 191 180 18 50 4 
170 9 169 162 191 180 98 150 18 111 90 
171 11 194 12 198 142 176 90 10 226 47 180 80 
172 11 75 126 102 177 54 21 217 181 106 207 159 
173 10 8 236 182 46 45 29 219 44 85 234 
174 7 221 95 157 148 209 25 88 
175 6 241 103 196 199 59 23 
176 11 10 180 194 142 171 198 191 153 90 147 12 
177 11 54 159 231 106 230 172 181 204 193 126 158 
178 3 215 36 141 
179 11 81 231 223 159 106 177 230 160 54 204 158 
180 10 191 90 176 142 198 194 170 169 10 171 
181 5 207 193 158 204 54 
182 11 236 8 46 173 45 29 219 85 44 62 234 
183 7 72 9 155 156 239 23 202 
184 11 34 37 167 145 104 144 56 189 74 188 22 
185 3 203 35 202 
186 11 120 91 24 119 69 16 39 96 70 129 5 
187 10 166 116 240 164 101 200 20 211 128 190 
188 11 156 239 74 73 9 15 220 167 216 72 145 
189 11 104 144 34 187 197 211 184 22 87 166 116 
190 9 235 240 48 13 166 187 197 116 164 
191 10 180 90 142 170 176 198 194 169 18 162 
192 9 237 118 83 206 31 214 165 32 68 
193 6 158 204 207 181 54 230 
194 11 198 142 171 12 90 176 226 180 191 10 47 
195 11 58 217 126 38 75 21 106 172 205 231 177 
196 10 241 175 103 199 59 23 35 203 155 84 
197 11 48 13 144 56 33 240 187 190 189 166 37 
198 11 142 194 12 90 171 226 176 180 191 10 47 
199 11 35 196 203 23 241 175 185 59 155 103 202 
200 9 20 101 164 116 211 94 128 161 232 
201 11 67 6 27 62 43 63 122 29 45 40 46 
202 3 155 185 35 
203 7 35 185 199 163 202 155 23 
204 6 158 193 230 207 181 54 
205 10 57 21 38 124 132 42 75 30 217 102 
206 7 83 31 165 214 32 192 237 
207 5 181 193 158 204 54 
208 10 71 107 143 232 3 138 161 121 94 218 
209 7 157 221 95 174 148 88 25 
210 10 55 225 168 76 66 160 238 127 223 163 
211 10 200 20 161 116 101 94 143 164 232 187 
212 5 151 153 149 147 10 
213 3 70 119 24 
214 10 31 32 165 125 206 84 237 192 53 83 
215 6 141 178 40 63 228 219 
216 11 9 188 22 72 156 167 183 87 239 135 84 
217 11 126 75 58 195 21 172 38 106 177 102 231 
218 10 138 28 71 44 234 208 3 49 113 41 
219 9 45 29 46 236 173 8 182 215 63 
220 7 15 73 239 156 224 74 188 
221 7 174 95 157 209 148 88 25 
222 11 2 14 11 61 233 131 4 114 130 77 139 
223 11 81 160 179 159 55 230 231 225 210 76 106 
224 3 220 15 73 
225 9 76 55 210 168 204 230 158 160 193 
226 11 12 198 90 142 194 152 171 47 154 180 191 
227 11 86 105 25 89 88 95 62 174 85 221 148 
228 11 141 40 63 19 215 78 27 65 36 178 67 
229 5 185 238 203 163 35 
230 10 204 158 159 54 193 181 207 177 81 76 
231 11 106 159 179 177 81 230 54 223 126 204 172 
232 8 94 143 161 208 107 20 200 121 
233 11 11 114 61 77 115 42 222 30 14 57 2 
234 10 218 28 44 49 173 113 154 85 138 8 
235 8 190 240 166 187 48 164 13 116 
236 11 182 8 173 46 45 29 219 85 44 234 62 
237 9 192 118 31 206 83 214 165 32 125 
238 10 163 168 66 229 127 203 210 185 35 55 
239 8 156 220 15 9 73 188 72 183 
240 9 166 187 190 116 235 164 101 48 13 
241 9 196 175 103 59 199 23 35 203 84 
DEPOT_SECTION
   1
   -1
EOF
