NAME :  X-n322-kX-w64-c11.cctp
COMMENT : 	Adapted by Maziero, Usberti and Cavellucci from the Uchoa, Pecin, Pessoa, Poggi, Subramanian, and Vidal (2013)
TYPE :  CCTP
DIMENSION :    311
EDGE_WEIGHT_TYPE : 	EUC_2D	
CAPACITY : 	868
VERTICES_WITHIN_COVERAGE :  11
VERTICES_WITH_DEMAND : 	64
NODE_COORD_SECTION
1 500 500
2 737 450
3 235 789
4 340 234
5 346 320
6 406 309
7 556 636
8 872 923
9 937 83
10 9 321
11 558 18
12 63 833
13 250 509
14 143 192
15 624 286
16 364 117
17 332 953
18 235 142
19 590 430
20 303 692
21 936 665
22 39 410
23 247 581
24 986 739
25 11 283
26 138 747
27 837 511
28 596 206
29 218 339
30 443 922
31 555 133
32 896 306
33 415 752
34 691 216
35 51 0
36 726 19
37 166 333
38 951 932
39 928 807
40 505 590
41 236 284
42 115 882
43 238 887
44 729 26
45 94 697
46 409 899
47 993 715
48 473 607
49 414 55
50 884 327
51 651 407
52 891 372
53 570 733
54 919 529
55 629 220
56 711 630
57 141 492
58 720 382
59 794 51
60 745 451
61 409 990
62 825 781
63 966 938
64 378 175
65 859 269
66 596 131
67 419 557
68 77 908
69 679 268
70 726 860
71 382 728
72 885 15
73 258 313
74 533 912
75 924 636
76 694 621
77 469 223
78 507 707
79 892 168
80 281 800
81 607 285
82 388 354
83 568 781
84 22 348
85 153 579
86 218 236
87 308 904
88 119 154
89 939 105
90 489 374
91 547 736
92 480 1000
93 124 883
94 295 741
95 213 53
96 701 446
97 589 708
98 644 147
99 133 377
100 983 343
101 262 450
102 255 422
103 115 640
104 693 344
105 896 910
106 298 531
107 573 416
108 416 512
109 870 50
110 185 436
111 656 268
112 53 522
113 587 165
114 542 762
115 995 809
116 266 878
117 27 812
118 196 522
119 45 164
120 174 729
121 252 311
122 681 621
123 594 478
124 848 361
125 897 253
126 729 354
127 255 410
128 811 703
129 781 909
130 971 632
131 887 144
132 475 860
133 509 336
134 967 433
135 897 98
136 157 676
137 971 727
138 972 381
139 658 504
140 375 214
141 280 526
142 895 158
143 196 779
144 379 223
145 692 470
146 22 395
147 622 843
148 289 811
149 98 365
150 111 426
151 261 101
152 483 818
153 820 480
154 433 961
155 656 421
156 511 273
157 334 794
158 426 686
159 870 112
160 941 978
161 744 498
162 7 346
163 168 877
164 166 244
165 604 430
166 176 452
167 522 306
168 912 406
169 423 564
170 505 779
171 101 383
172 729 307
173 162 515
174 784 983
175 736 39
176 833 529
177 646 367
178 922 294
179 513 535
180 373 331
181 471 694
182 39 149
183 813 538
184 153 115
185 244 505
186 716 286
187 409 228
188 140 484
189 652 239
190 141 628
191 30 924
192 877 307
193 586 723
194 336 615
195 856 584
196 984 221
197 641 671
198 648 704
199 19 309
200 661 125
201 614 194
202 253 864
203 106 841
204 187 687
205 5 289
206 657 83
207 658 58
208 419 839
209 519 347
210 191 864
211 666 486
212 288 276
213 562 646
214 516 725
215 75 785
216 309 966
217 743 856
218 121 698
219 286 258
220 70 635
221 376 539
222 824 834
223 650 350
224 742 277
225 977 647
226 268 698
227 973 145
228 569 655
229 765 22
230 427 869
231 11 869
232 377 793
233 162 897
234 102 444
235 979 386
236 69 483
237 294 395
238 424 536
239 37 705
240 126 782
241 490 30
242 348 771
243 808 469
244 107 512
245 782 207
246 161 793
247 859 469
248 148 763
249 403 723
250 978 760
251 214 132
252 467 387
253 292 262
254 238 846
255 853 27
256 855 506
257 213 742
258 203 364
259 183 3
260 501 152
261 649 492
262 904 31
263 997 741
264 527 299
265 26 402
266 543 506
267 902 548
268 47 419
269 125 226
270 206 608
271 811 668
272 643 265
273 189 736
274 79 287
275 382 630
276 225 604
277 412 843
278 924 756
279 474 356
280 533 721
281 445 101
282 579 994
283 652 658
284 889 206
285 464 243
286 680 735
287 420 998
288 798 490
289 75 518
290 27 680
291 118 804
292 181 428
293 489 91
294 367 977
295 777 679
296 501 137
297 856 6
298 75 999
299 777 984
300 171 874
301 909 569
302 730 509
303 326 596
304 59 533
305 455 853
306 612 163
307 959 409
308 987 154
309 883 195
310 207 6
311 39 831
DEMAND_SECTION
2 61
3 71
4 83
5 85
6 85
7 99
8 63
9 64
10 50
11 56
12 91
13 87
14 75
15 70
16 57
17 86
18 50
19 89
20 75
21 72
22 83
23 74
24 76
25 53
26 93
27 97
28 69
29 61
30 76
31 93
32 55
33 92
34 83
35 92
36 63
37 61
38 53
39 100
40 94
41 74
42 71
43 95
44 74
45 96
46 75
47 91
48 82
49 50
50 84
51 55
52 74
53 73
54 86
55 52
56 81
57 73
58 92
59 83
60 64
61 66
62 93
63 97
64 88
65 67
COVERAGE_SECTION
2 11 60 96 145 161 302 58 243 288 211 155 153 
3 11 143 80 257 254 148 273 246 94 202 120 210 
4 11 140 144 253 219 212 187 64 5 6 180 73 
5 11 180 82 6 212 253 4 219 73 237 121 144 
6 11 180 82 5 187 279 285 144 252 4 140 90 
7 11 213 228 40 97 78 48 280 193 197 53 214 
8 10 105 38 160 129 63 222 174 299 39 217 
9 11 89 135 262 227 159 109 131 72 142 308 79 
10 11 199 162 84 205 25 146 274 265 22 149 268 
11 11 241 293 207 31 206 66 296 281 260 49 200 
12 11 311 117 203 215 291 231 42 68 93 240 191 
13 11 185 141 106 118 101 23 102 173 166 110 276 
14 11 269 88 164 184 86 251 119 18 182 274 41 
15 11 81 272 111 189 69 55 223 177 28 104 186 
16 11 64 49 281 140 151 144 4 187 293 18 296 
17 11 216 294 87 61 46 287 116 154 30 43 202 
18 11 251 151 184 95 86 14 88 164 219 16 253 
19 11 165 107 123 51 155 177 261 266 211 139 223 
20 11 226 94 194 71 242 303 275 257 249 157 80 
21 11 75 225 130 137 47 24 278 263 301 250 195 
22 11 268 265 146 84 171 162 234 149 150 236 10 
23 10 276 270 141 106 13 185 118 303 85 194 
24 11 263 137 250 47 278 115 21 39 225 130 75 
25 11 205 199 10 162 84 274 146 149 265 119 269 
26 11 248 240 120 246 218 273 291 143 45 136 215 
27 11 176 256 153 183 288 247 243 195 267 54 301 
28 11 201 55 113 306 189 66 272 98 81 31 15 
29 11 258 121 73 37 41 127 102 99 212 237 292 
30 11 154 46 230 132 305 61 287 277 92 208 74 
31 11 66 113 296 260 306 293 28 201 98 200 55 
32 11 192 50 178 65 125 52 124 100 284 168 138 
33 11 249 71 232 158 242 181 208 157 277 170 152 
34 11 189 69 55 111 272 186 201 224 98 245 306 
35 11 259 182 184 310 119 88 95 251 14 18 151 
36 11 44 175 229 59 207 206 200 255 297 109 98 
37 11 258 29 99 149 171 41 121 164 73 292 274 
38 11 63 160 105 8 39 115 222 129 250 174 278 
39 11 278 115 250 24 137 263 62 222 105 47 38 
40 11 48 179 7 213 169 228 67 266 238 181 78 
41 11 121 73 86 212 219 29 253 164 37 258 4 
42 11 93 203 68 233 163 300 12 210 291 311 191 
43 11 202 116 254 210 300 163 87 233 148 80 3 
44 11 36 175 229 59 207 206 200 255 297 109 98 
45 10 218 239 103 136 220 26 290 190 248 120 
46 11 230 30 277 208 305 154 132 294 61 17 287 
47 11 24 137 263 250 225 21 278 130 115 75 39 
48 11 40 169 67 179 238 181 7 158 275 213 78 
49 11 281 16 241 293 296 64 260 11 151 31 140 
50 11 192 32 52 124 178 65 125 168 100 138 307 
51 11 155 177 165 223 96 19 58 145 104 107 211 
52 11 168 124 50 32 192 307 138 178 235 100 134 
53 11 193 91 97 280 114 83 214 78 228 170 198 
54 11 267 301 256 27 195 247 176 183 75 134 153 
55 11 189 201 28 272 111 306 34 15 69 81 113 
56 11 76 122 283 197 295 198 271 286 302 128 161 
57 11 188 173 244 166 234 118 110 289 150 236 292 
58 11 126 104 96 2 51 60 155 172 177 223 145 
59 11 229 175 255 44 36 109 297 159 72 262 135 
60 11 2 96 161 145 302 243 288 58 153 211 155 
61 11 287 154 294 92 30 17 46 216 230 87 305 
62 11 222 128 278 39 217 295 271 70 129 105 8 
63 11 38 160 105 8 115 39 222 250 129 174 278 
64 11 140 144 16 187 4 281 77 285 253 219 49 
65 11 125 192 32 50 178 284 309 124 245 79 52 
66 11 113 306 31 98 200 201 28 206 55 296 207 
67 11 169 238 108 221 48 275 40 179 194 303 106 
68 11 42 191 93 203 12 231 233 311 298 163 300 
69 11 111 272 189 186 34 15 172 224 55 81 104 
70 7 217 129 222 147 62 286 299 
71 11 249 33 242 158 232 157 20 94 181 275 208 
72 11 262 297 255 109 135 9 59 159 89 229 131 
73 11 121 41 29 212 253 219 258 86 5 237 37 
74 7 132 30 282 305 92 152 154 
75 11 21 130 225 301 195 267 137 47 54 271 24 
76 11 122 56 283 197 198 295 286 302 139 271 228 
77 11 285 187 156 260 144 296 140 264 167 64 6 
78 11 214 280 181 91 114 53 170 193 228 97 213 
79 11 142 131 309 284 159 135 89 227 125 9 308 
80 11 148 3 157 94 254 202 242 116 143 257 232 
81 11 15 272 111 189 55 69 223 28 264 167 177 
82 11 180 6 5 252 279 90 237 133 212 187 4 
83 9 114 53 91 193 170 280 97 214 147 
84 11 162 10 199 146 265 205 22 25 268 149 274 
85 8 190 270 173 118 103 276 244 57 
86 11 41 164 219 253 212 121 14 73 269 18 29 
87 11 116 17 216 202 43 254 294 148 46 80 157 
88 11 14 184 269 119 182 251 164 18 86 95 274 
89 11 9 135 227 131 142 159 308 79 262 109 72 
90 11 279 252 209 133 167 264 107 82 156 6 19 
91 11 280 53 114 214 193 78 83 97 170 228 181 
92 10 287 154 61 30 282 74 294 46 132 230 
93 11 42 233 163 203 300 68 210 12 291 246 311 
94 11 20 226 80 242 157 148 3 257 71 232 143 
95 11 310 259 151 251 184 18 88 14 16 35 86 
96 11 145 2 60 155 211 51 58 161 261 302 139 
97 11 193 53 91 228 280 198 197 213 114 214 83 
98 11 200 306 66 201 113 206 55 28 34 31 207 
99 11 171 149 150 37 292 258 234 110 166 29 268 
100 11 138 235 307 178 134 32 168 52 50 192 196 
101 11 102 127 185 13 237 110 141 292 166 106 118 
102 11 127 101 237 110 292 258 185 166 13 29 141 
103 8 190 220 136 218 45 85 204 270 
104 11 126 223 58 172 177 186 51 69 224 111 155 
105 11 8 38 63 160 222 39 129 174 299 115 62 
106 11 141 13 185 23 303 221 101 194 118 276 102 
107 11 19 165 123 51 155 177 209 90 266 223 133 
108 11 238 67 221 169 179 48 40 106 275 303 266 
109 11 255 72 262 297 135 159 9 59 89 131 229 
110 11 292 166 188 57 102 258 127 150 101 99 173 
111 11 272 69 189 15 81 55 34 186 223 172 104 
112 10 304 289 236 244 234 57 188 268 173 150 
113 11 306 66 201 28 31 98 55 200 260 296 189 
114 9 91 83 53 170 280 214 193 78 97 
115 11 250 39 263 24 137 278 47 38 63 105 21 
116 11 202 43 254 87 148 210 80 3 300 163 216 
117 11 311 12 215 231 203 291 240 239 68 42 191 
118 11 173 185 13 57 188 85 166 23 141 110 270 
119 11 182 88 269 14 184 25 274 205 164 199 10 
120 10 273 26 257 248 204 143 136 218 246 240 
121 11 73 41 29 212 219 253 258 86 37 5 237 
122 11 76 56 283 197 198 295 286 228 139 213 302 
123 11 19 165 261 266 107 139 211 155 51 145 179 
124 11 52 50 192 32 168 65 178 247 243 125 126 
125 11 65 178 284 32 192 309 50 79 196 142 131 
126 11 58 104 172 186 224 223 177 51 2 96 60 
127 11 102 101 237 258 110 292 29 166 185 73 13 
128 11 271 295 62 56 278 195 21 75 222 286 76 
129 8 217 70 174 299 222 8 105 62 
130 11 225 75 21 47 301 137 24 267 263 54 195 
131 11 142 79 159 135 309 284 89 9 227 109 308 
132 9 305 152 230 208 277 30 46 74 170 
133 11 209 167 279 264 90 156 252 107 285 6 81 
134 11 307 235 138 168 100 52 54 247 267 256 50 
135 11 159 9 89 131 109 142 262 79 72 255 227 
136 8 204 218 190 103 120 45 273 26 
137 11 24 47 263 250 278 21 225 115 39 130 75 
138 11 235 307 100 134 168 52 178 50 32 192 124 
139 11 261 211 145 123 96 302 155 161 165 2 51 
140 11 144 187 64 4 77 285 253 16 219 6 212 
141 11 106 13 185 23 101 118 303 276 221 194 102 
142 11 79 131 309 284 159 135 89 227 9 308 125 
143 11 246 3 257 273 248 120 26 240 254 291 210 
144 11 140 187 4 64 285 6 77 253 219 5 212 
145 11 96 211 139 261 2 302 60 161 155 51 58 
146 11 265 22 268 84 162 10 171 149 199 150 234 
147 6 83 70 74 114 53 217 
148 11 80 157 3 254 202 94 116 242 232 43 87 
149 11 171 99 150 22 268 37 84 234 274 265 146 
150 11 234 171 99 149 268 188 166 292 236 57 22 
151 11 18 251 95 16 184 310 259 64 86 14 88 
152 9 132 170 305 208 277 230 114 83 33 
153 11 243 288 27 247 256 176 183 161 60 2 302 
154 11 61 287 30 92 46 294 230 17 132 305 74 
155 11 51 96 165 177 145 211 19 223 261 58 107 
156 11 264 167 285 133 77 209 279 81 90 28 6 
157 11 242 232 148 80 94 71 33 277 208 3 249 
158 11 249 181 71 33 275 78 48 214 280 194 242 
159 11 135 131 142 79 109 89 9 309 255 262 284 
160 10 38 63 105 8 174 299 39 129 115 222 
161 11 302 60 2 288 145 96 243 153 211 183 139 
162 11 84 10 199 146 205 265 25 22 268 149 274 
163 11 300 233 210 93 42 43 203 254 246 202 291 
164 11 269 86 14 41 37 274 88 29 121 73 219 
165 11 19 107 123 51 155 177 261 211 139 223 145 
166 11 110 292 188 57 173 150 118 234 102 99 101 
167 11 264 133 156 209 279 90 285 81 77 252 15 
168 11 52 307 134 138 235 124 247 50 100 32 192 
169 11 67 238 108 221 48 275 40 179 194 303 158 
170 9 114 152 214 91 83 280 78 53 132 
171 11 149 99 150 234 268 22 265 146 37 84 292 
172 11 186 224 126 104 69 58 111 223 272 34 177 
173 11 57 118 188 244 85 166 110 185 289 13 292 
174 8 299 129 8 217 105 70 222 160 
175 11 44 36 229 59 207 206 200 255 297 109 98 
176 11 27 183 256 153 288 195 243 247 267 54 301 
177 11 223 51 104 155 58 165 15 19 126 107 81 
178 11 32 192 125 50 65 100 52 284 196 124 138 
179 11 266 40 48 238 169 67 123 108 7 213 19 
180 11 82 5 6 212 4 237 279 253 144 187 252 
181 11 78 158 214 280 249 33 48 91 170 71 114 
182 11 119 88 14 269 184 25 205 274 35 164 199 
183 11 176 27 288 256 153 195 243 161 247 302 267 
184 11 88 251 14 18 95 151 269 259 119 182 310 
185 11 13 141 118 101 106 23 173 102 166 110 127 
186 11 172 224 69 104 111 126 34 272 189 15 223 
187 11 144 140 285 77 64 4 6 180 156 5 260 
188 11 57 173 244 166 234 150 110 118 292 236 289 
189 11 272 111 55 69 34 15 201 81 28 186 306 
190 8 103 85 136 270 220 218 204 45 
191 11 68 231 298 311 42 12 93 117 203 233 163 
192 11 32 50 65 178 125 124 52 284 168 100 309 
193 11 97 53 91 280 114 83 198 214 228 197 78 
194 11 303 275 20 221 106 23 67 169 141 226 276 
195 11 301 267 176 183 27 256 54 75 271 153 288 
196 11 308 227 125 178 284 309 79 142 32 100 89 
197 11 283 198 97 122 76 228 286 193 56 213 7 
198 11 197 286 283 97 193 53 122 228 76 56 213 
199 11 10 205 25 84 162 274 146 265 149 22 171 
200 11 98 206 306 66 207 201 113 34 55 28 31 
201 11 28 55 306 113 98 189 66 272 34 200 31 
202 11 116 254 43 210 148 87 80 3 300 163 233 
203 11 291 42 12 93 240 215 311 163 68 246 300 
204 10 136 120 273 257 218 190 26 270 226 248 
205 11 25 199 10 162 84 274 146 265 149 22 119 
206 11 207 200 98 66 175 44 306 36 113 31 11 
207 11 206 200 36 44 175 98 66 11 229 306 31 
208 10 277 230 305 132 46 232 152 30 33 157 
209 11 133 90 167 279 264 252 156 107 81 19 285 
210 11 300 163 233 254 43 202 93 116 246 42 143 
211 11 261 139 145 96 155 302 123 161 2 51 165 
212 11 253 219 73 121 41 4 5 86 29 180 144 
213 11 228 7 97 40 280 193 78 197 53 91 214 
214 10 280 78 91 114 53 170 181 193 97 83 
215 11 291 12 240 117 311 203 26 248 246 239 45 
216 11 17 294 87 116 61 43 202 287 46 154 254 
217 7 70 129 222 62 147 299 174 
218 10 45 136 26 103 120 204 248 190 273 220 
219 11 253 212 41 4 73 121 86 5 140 144 29 
220 8 103 290 45 190 239 218 136 85 
221 11 67 108 238 169 303 106 194 275 141 48 13 
222 10 62 217 129 8 70 105 39 278 128 174 
223 11 177 104 51 15 155 58 81 126 111 272 69 
224 11 186 172 69 126 34 245 104 111 189 272 58 
225 11 130 21 75 47 137 24 263 301 250 278 267 
226 11 20 94 257 204 273 3 120 80 276 194 143 
227 11 308 89 9 196 142 79 131 135 309 284 159 
228 11 213 7 97 193 197 280 53 78 283 91 214 
229 11 175 44 36 59 255 297 109 207 72 206 159 
230 10 277 208 305 46 132 30 152 232 154 74 
231 11 311 191 117 12 68 203 42 215 93 291 240 
232 11 242 157 33 277 208 71 249 148 230 80 94 
233 11 163 300 93 210 42 43 203 68 254 202 291 
234 11 150 236 188 268 171 57 244 22 99 166 149 
235 11 138 307 100 134 168 52 178 50 32 192 124 
236 11 289 112 244 234 304 268 150 188 57 22 265 
237 11 127 102 101 73 5 29 121 258 180 82 110 
238 11 67 108 169 221 48 179 40 275 303 194 266 
239 11 290 45 220 218 215 103 117 26 240 136 248 
240 11 291 248 26 246 215 203 143 120 273 12 218 
241 11 293 11 49 281 296 31 260 66 16 113 207 
242 11 157 232 71 94 33 148 80 249 20 277 208 
243 11 153 288 27 247 256 176 60 183 161 2 302 
244 11 289 57 188 236 304 112 173 234 85 150 118 
245 11 224 34 65 309 186 284 172 79 69 131 142 
246 11 248 240 143 291 26 273 120 203 257 3 210 
247 11 256 153 27 243 176 288 168 183 54 267 52 
248 11 26 240 246 120 273 143 291 257 218 215 45 
249 11 71 33 158 242 181 232 275 157 20 78 94 
250 11 24 263 137 47 115 278 39 21 225 130 75 
251 11 18 151 184 95 14 88 86 164 310 269 259 
252 11 90 279 133 209 82 167 6 264 180 107 156 
253 11 219 212 4 41 73 121 86 5 144 140 180 
254 11 202 43 116 210 3 148 80 300 163 143 87 
255 11 297 109 72 262 59 135 159 229 9 89 175 
256 11 27 176 247 153 183 288 243 267 54 195 301 
257 11 273 120 143 3 204 248 226 246 26 94 136 
258 11 29 37 292 127 99 121 110 73 102 41 166 
259 11 310 95 184 151 35 251 18 88 14 182 119 
260 11 296 31 293 281 77 113 66 285 28 306 187 
261 11 139 211 145 123 96 155 165 302 51 19 161 
262 11 72 109 255 297 9 135 89 159 59 131 142 
263 11 24 47 250 137 115 278 39 225 21 130 75 
264 11 167 156 133 209 279 81 90 285 77 15 252 
265 11 146 22 268 84 162 171 149 10 234 150 236 
266 11 179 123 19 40 107 165 261 139 48 238 211 
267 11 301 54 195 256 176 27 183 247 75 153 130 
268 11 22 265 146 234 150 171 236 149 84 162 99 
269 11 14 164 88 274 86 119 184 37 182 41 25 
270 8 276 23 85 190 204 136 118 103 
271 11 128 295 195 56 62 75 21 76 183 122 301 
272 11 111 15 189 69 81 55 34 28 186 201 223 
273 11 120 257 143 204 248 26 246 136 3 218 240 
274 11 199 25 205 269 10 149 84 162 164 37 171 
275 11 194 303 158 169 67 221 48 249 71 20 238 
276 9 270 23 85 118 190 204 141 13 136 
277 10 208 230 305 46 232 132 152 30 33 157 
278 11 39 250 137 24 263 47 115 21 62 75 225 
279 11 90 252 133 209 167 264 6 82 156 180 285 
280 11 214 91 78 53 114 193 97 170 181 83 228 
281 11 293 49 296 260 16 241 64 31 77 187 140 
282 6 74 92 154 30 147 287 
283 11 197 198 122 76 56 97 286 228 213 193 7 
284 11 309 79 125 142 131 65 178 159 196 32 192 
285 11 77 156 187 264 167 144 6 140 260 133 64 
286 11 198 197 283 97 193 56 53 295 122 76 83 
287 11 61 154 294 92 30 17 46 216 230 74 87 
288 11 243 153 27 183 176 161 256 247 60 302 2 
289 10 112 304 244 236 57 188 234 173 85 150 
290 10 239 220 45 218 103 215 190 26 136 117 
291 11 240 203 246 215 248 26 12 42 93 143 311 
292 11 110 166 258 188 99 150 102 57 127 234 101 
293 11 281 296 241 260 31 49 11 66 113 16 77 
294 11 17 61 287 216 154 46 30 87 92 230 116 
295 11 271 128 56 76 122 286 62 195 283 198 197 
296 11 260 293 31 281 113 77 66 241 285 306 28 
297 11 255 72 109 262 59 229 135 159 9 175 44 
298 11 191 68 42 93 233 231 163 300 203 12 311 
299 7 174 129 8 217 70 105 222 
300 11 163 210 233 93 42 43 203 254 246 202 291 
301 11 267 54 195 75 256 176 130 27 21 183 225 
302 11 161 145 2 60 211 96 288 139 261 183 243 
303 11 194 275 106 221 23 141 20 67 276 169 238 
304 10 112 289 236 244 57 188 234 220 85 173 
305 9 132 230 208 277 152 46 30 170 74 
306 11 113 201 66 98 28 55 200 31 189 206 34 
307 11 134 235 138 168 100 52 50 247 32 124 178 
308 11 227 196 89 9 142 79 131 135 284 309 159 
309 11 284 79 142 131 125 65 159 135 245 227 196 
310 11 259 95 151 184 251 18 35 88 16 14 49 
311 11 117 12 231 215 203 291 68 42 191 93 240 
DEPOT_SECTION
   1
   -1
EOF
