NAME :  X-n367-kX-w146-c7.cctp
COMMENT : 	Adapted by Maziero, Usberti and Cavellucci from the Uchoa, Pecin, Pessoa, Poggi, Subramanian, and Vidal (2013)
TYPE :  CCTP
DIMENSION :    366
EDGE_WEIGHT_TYPE : 	EUC_2D	
CAPACITY : 	218
VERTICES_WITHIN_COVERAGE :  7
VERTICES_WITH_DEMAND : 	146
NODE_COORD_SECTION
1 927 318
2 319 475
3 471 281
4 894 615
5 712 832
6 728 813
7 360 217
8 446 264
9 952 650
10 558 224
11 460 397
12 464 342
13 733 921
14 324 316
15 333 497
16 826 821
17 257 385
18 385 244
19 523 249
20 559 370
21 665 866
22 310 583
23 744 792
24 428 638
25 759 804
26 359 515
27 392 213
28 583 380
29 786 400
30 516 833
31 823 692
32 480 330
33 870 690
34 311 76
35 157 434
36 340 558
37 499 905
38 893 667
39 665 781
40 328 499
41 712 744
42 949 498
43 463 266
44 275 564
45 456 323
46 748 727
47 860 607
48 821 554
49 245 542
50 462 420
51 859 662
52 308 399
53 427 246
54 279 414
55 543 841
56 243 333
57 406 498
58 347 509
59 460 593
60 244 536
61 650 703
62 732 115
63 234 661
64 808 720
65 423 216
66 144 390
67 772 633
68 917 645
69 509 345
70 286 449
71 380 488
72 478 333
73 465 310
74 666 858
75 334 369
76 708 815
77 767 610
78 472 326
79 481 449
80 476 215
81 559 265
82 477 79
83 786 646
84 503 255
85 406 226
86 627 709
87 980 570
88 859 611
89 931 648
90 281 315
91 954 665
92 443 295
93 497 359
94 247 542
95 311 468
96 901 603
97 801 847
98 257 131
99 346 637
100 767 855
101 604 305
102 436 206
103 277 345
104 428 257
105 405 530
106 892 802
107 341 663
108 856 527
109 539 861
110 359 298
111 775 869
112 875 642
113 610 772
114 867 658
115 677 832
116 340 456
117 322 444
118 623 825
119 316 483
120 941 597
121 886 768
122 505 255
123 554 806
124 309 502
125 953 659
126 675 828
127 946 627
128 242 560
129 498 334
130 844 511
131 811 691
132 468 522
133 454 510
134 675 733
135 186 347
136 348 474
137 605 756
138 487 362
139 835 517
140 507 409
141 378 458
142 368 319
143 810 928
144 572 844
145 445 255
146 412 244
147 815 948
148 328 509
149 665 841
150 295 534
151 859 585
152 730 846
153 380 437
154 786 719
155 437 458
156 371 276
157 876 594
158 448 298
159 510 236
160 573 230
161 492 203
162 837 903
163 909 630
164 704 257
165 643 809
166 942 583
167 944 623
168 440 448
169 411 551
170 721 584
171 523 195
172 370 474
173 730 809
174 520 525
175 498 349
176 667 782
177 244 370
178 365 509
179 758 838
180 323 519
181 378 315
182 402 522
183 986 718
184 419 216
185 340 467
186 664 691
187 887 519
188 487 341
189 798 633
190 432 178
191 538 215
192 619 734
193 897 626
194 653 723
195 999 652
196 424 473
197 842 770
198 504 345
199 830 617
200 986 609
201 742 857
202 352 461
203 602 875
204 980 770
205 524 367
206 918 764
207 654 754
208 482 274
209 861 603
210 344 184
211 832 573
212 924 690
213 794 662
214 258 663
215 575 132
216 273 535
217 871 612
218 522 291
219 650 261
220 517 137
221 443 292
222 631 960
223 950 648
224 514 140
225 212 601
226 698 735
227 510 223
228 322 521
229 806 829
230 243 269
231 527 416
232 535 411
233 917 576
234 618 292
235 504 296
236 574 897
237 368 600
238 733 712
239 314 438
240 362 479
241 874 652
242 756 693
243 519 166
244 418 381
245 841 801
246 593 974
247 410 515
248 434 478
249 501 249
250 896 647
251 819 806
252 311 561
253 363 98
254 275 491
255 849 471
256 563 297
257 961 626
258 588 700
259 705 795
260 948 634
261 283 493
262 865 664
263 856 622
264 223 459
265 307 497
266 363 509
267 655 782
268 636 386
269 703 883
270 782 900
271 186 508
272 436 192
273 398 512
274 449 668
275 253 148
276 112 573
277 250 532
278 722 761
279 375 393
280 415 416
281 234 81
282 511 473
283 940 754
284 382 449
285 267 459
286 926 677
287 946 631
288 962 364
289 886 613
290 794 839
291 137 499
292 594 954
293 497 399
294 869 621
295 857 586
296 971 559
297 521 273
298 793 806
299 461 276
300 912 910
301 457 265
302 325 456
303 312 305
304 991 645
305 360 430
306 672 935
307 227 328
308 869 620
309 316 455
310 617 725
311 395 501
312 406 223
313 692 448
314 534 348
315 641 823
316 644 822
317 323 492
318 405 715
319 331 451
320 902 505
321 900 608
322 939 553
323 681 748
324 497 320
325 289 412
326 466 263
327 662 812
328 256 499
329 748 888
330 352 624
331 474 238
332 208 455
333 922 673
334 470 473
335 595 787
336 869 610
337 80 531
338 826 819
339 691 935
340 759 863
341 331 340
342 405 263
343 640 751
344 246 487
345 949 593
346 770 429
347 876 561
348 448 274
349 786 866
350 728 801
351 453 176
352 356 248
353 531 283
354 885 599
355 994 539
356 781 595
357 688 856
358 448 393
359 302 417
360 298 550
361 663 798
362 564 286
363 762 732
364 437 272
365 301 337
366 718 866
DEMAND_SECTION
2 67
3 87
4 73
5 59
6 88
7 58
8 53
9 53
10 97
11 59
12 52
13 83
14 88
15 83
16 95
17 95
18 93
19 63
20 50
21 94
22 56
23 57
24 69
25 68
26 3
27 3
28 1
29 3
30 2
31 1
32 4
33 10
34 6
35 9
36 1
37 3
38 4
39 2
40 10
41 5
42 4
43 6
44 3
45 10
46 5
47 2
48 5
49 9
50 6
51 8
52 2
53 3
54 6
55 5
56 5
57 3
58 3
59 6
60 5
61 8
62 9
63 4
64 8
65 4
66 10
67 5
68 1
69 9
70 9
71 6
72 6
73 7
74 4
75 5
76 3
77 5
78 5
79 1
80 10
81 4
82 2
83 5
84 5
85 8
86 6
87 10
88 8
89 7
90 6
91 8
92 4
93 2
94 4
95 7
96 8
97 10
98 1
99 1
100 9
101 1
102 7
103 9
104 10
105 1
106 2
107 10
108 3
109 6
110 9
111 5
112 8
113 9
114 9
115 7
116 1
117 6
118 4
119 8
120 7
121 8
122 3
123 4
124 9
125 7
126 1
127 1
128 6
129 1
130 9
131 7
132 7
133 3
134 8
135 1
136 6
137 7
138 1
139 4
140 7
141 4
142 2
143 8
144 10
145 6
146 1
147 6
COVERAGE_SECTION
2 7 119 95 317 302 309 185 265 
3 7 299 208 43 326 301 348 158 
4 7 289 321 193 96 354 163 217 
5 7 76 152 6 173 357 115 350 
6 7 173 350 76 5 23 259 25 
7 7 352 27 18 210 312 85 146 
8 7 145 348 301 364 43 104 299 
9 7 223 125 91 260 287 89 127 
10 7 160 191 81 19 171 227 159 
11 7 358 50 293 138 244 140 280 
12 7 72 78 32 45 188 138 73 
13 7 329 339 269 270 366 306 340 
14 7 303 341 365 110 90 142 75 
15 7 40 317 148 58 119 180 124 
16 7 338 251 229 245 97 298 290 
17 7 177 54 325 103 52 56 359 
18 7 146 85 342 352 312 27 156 
19 7 159 122 84 249 297 227 353 
20 7 28 314 205 232 69 231 198 
21 7 74 149 357 115 126 269 315 
22 7 252 360 36 44 150 330 237 
23 7 350 25 173 6 278 259 76 
24 7 274 59 237 330 318 99 169 
25 7 23 173 350 6 179 298 290 
26 7 266 178 58 15 148 71 40 
27 7 312 85 184 65 7 18 146 
28 7 20 268 232 314 205 231 101 
29 7 346 255 313 130 139 108 268 
30 7 55 109 123 144 37 236 335 
31 7 131 64 213 154 33 51 262 
32 7 72 78 188 129 12 324 45 
33 7 262 51 114 38 241 31 112 
34 7 253 98 281 275 210 7 190 
35 7 66 332 291 264 271 135 344 
36 7 252 22 228 180 360 26 58 
37 7 109 30 236 55 144 203 292 
38 7 250 241 114 262 333 112 33 
39 7 176 267 361 207 327 165 323 
40 7 15 317 148 124 119 58 180 
41 7 226 278 323 238 134 46 259 
42 7 320 322 355 187 296 87 233 
43 7 326 301 299 3 8 348 145 
44 7 360 216 128 94 150 252 49 
45 7 73 78 12 72 32 158 92 
46 7 363 238 242 154 41 278 226 
47 7 88 209 336 217 263 308 294 
48 7 211 139 108 295 130 151 347 
49 7 94 60 277 128 216 44 328 
50 7 11 358 79 168 293 155 140 
51 7 262 114 241 112 33 38 250 
52 7 359 325 54 239 75 117 17 
53 7 104 146 145 8 342 364 85 
54 7 325 359 52 17 70 239 285 
55 7 109 30 144 123 236 203 335 
56 7 307 103 177 90 17 365 135 
57 7 311 273 247 182 71 196 105 
58 7 26 266 15 178 148 40 180 
59 7 24 169 132 274 133 105 174 
60 7 49 94 277 128 216 328 44 
61 7 186 194 86 134 310 192 343 
62 7 164 215 219 160 10 234 220 
63 7 214 225 128 44 107 22 99 
64 7 154 131 31 363 242 46 197 
65 7 184 102 312 85 272 53 146 
66 7 35 135 332 177 307 264 291 
67 7 83 77 189 213 356 199 242 
68 7 89 163 250 193 333 287 38 
69 7 198 175 129 93 188 314 205 
70 7 285 239 95 309 54 117 359 
71 7 172 240 311 178 266 57 141 
72 7 32 78 188 12 129 324 45 
73 7 45 78 158 32 72 92 221 
74 7 21 149 357 115 126 316 315 
75 7 341 52 365 279 14 359 142 
76 7 5 6 259 173 350 115 126 
77 7 356 67 189 83 170 213 199 
78 7 32 72 45 73 12 188 324 
79 7 334 50 282 168 155 140 293 
80 7 161 331 227 159 102 249 351 
81 7 362 256 353 160 19 297 10 
82 7 220 224 243 351 190 215 253 
83 7 189 213 67 77 131 356 199 
84 7 122 249 159 19 297 208 227 
85 7 312 184 27 146 65 18 53 
86 7 310 61 192 194 258 186 343 
87 7 296 355 200 345 166 322 120 
88 7 47 209 336 263 217 308 294 
89 7 68 223 9 260 287 125 127 
90 7 103 365 303 56 14 307 341 
91 7 125 9 223 89 286 260 333 
92 7 221 158 348 364 299 73 3 
93 7 138 175 198 69 188 129 205 
94 7 49 60 277 128 216 44 328 
95 7 2 309 119 302 117 319 317 
96 6 321 4 354 289 193 157 
97 7 290 229 349 111 100 16 338 
98 7 275 281 34 210 253 7 230 
99 7 330 107 237 22 36 24 252 
100 7 340 111 179 349 201 290 97 
101 7 234 256 362 81 219 353 28 
102 7 272 65 184 190 312 351 85 
103 7 365 90 56 177 17 303 307 
104 7 53 145 364 8 146 342 348 
105 7 182 247 273 169 311 57 178 
106 7 121 206 245 197 283 338 16 
107 7 99 330 237 318 214 22 24 
108 7 130 139 187 347 48 320 211 
109 7 55 30 144 236 123 37 203 
110 7 142 156 181 14 303 341 352 
111 7 349 100 340 270 329 97 179 
112 7 241 114 250 294 308 262 51 
113 7 137 335 343 192 267 207 310 
114 7 262 51 241 112 38 250 33 
115 7 126 149 327 357 74 316 5 
116 7 319 185 202 302 136 117 309 
117 7 239 319 302 309 116 95 185 
118 7 315 316 165 327 149 335 361 
119 7 2 317 95 265 40 124 15 
120 7 345 166 167 127 233 287 257 
121 7 206 106 197 245 283 251 338 
122 7 84 249 19 159 297 208 227 
123 7 55 144 335 30 109 113 137 
124 7 265 317 40 119 148 180 228 
125 7 91 9 223 89 260 287 286 
126 7 115 149 327 74 357 316 361 
127 7 167 287 260 257 223 9 89 
128 7 49 94 60 277 44 216 225 
129 7 188 198 324 175 69 32 72 
130 7 139 108 255 187 48 320 347 
131 7 31 64 213 154 83 242 51 
132 7 133 334 174 248 247 105 169 
133 7 132 248 334 247 196 57 105 
134 7 323 226 194 207 41 61 343 
135 7 307 56 66 177 17 103 35 
136 7 185 202 240 116 172 15 2 
137 7 113 192 310 335 343 207 86 
138 7 93 175 188 198 69 12 72 
139 7 130 108 48 255 187 211 347 
140 7 293 231 232 205 50 79 11 
141 7 284 172 153 202 240 71 305 
142 7 181 110 156 341 14 303 75 
143 7 147 162 270 349 111 329 13 
144 7 55 109 123 203 236 118 30 
145 7 8 301 104 348 364 53 43 
146 7 53 85 342 104 312 18 184 
147 7 143 162 270 13 349 111 329 
148 7 40 180 15 228 317 58 124 
149 7 115 126 74 21 357 316 327 
150 7 360 216 228 252 180 124 44 
151 6 295 209 157 47 88 336 
152 7 201 5 366 179 6 340 173 
153 7 284 141 305 202 172 280 116 
154 7 64 363 131 46 242 31 238 
155 7 168 196 248 334 50 79 280 
156 7 110 352 18 342 181 142 146 
157 6 354 209 336 151 217 47 
158 7 92 221 73 348 45 299 364 
159 7 227 249 19 84 122 191 331 
160 7 10 81 191 19 362 171 159 
161 7 80 227 171 159 331 243 249 
162 7 143 147 270 349 97 111 300 
163 7 193 68 4 250 321 89 96 
164 7 219 234 101 160 362 62 81 
165 7 316 315 327 361 118 267 39 
166 7 345 120 233 322 296 87 167 
167 7 127 287 260 257 120 223 9 
168 7 155 196 248 50 334 79 280 
169 7 105 182 247 273 311 57 133 
170 7 77 356 67 83 189 48 213 
171 7 191 243 227 161 159 10 80 
172 7 240 71 141 136 202 284 185 
173 7 6 350 23 76 5 25 259 
174 7 132 282 133 334 79 59 248 
175 7 198 93 69 188 129 138 32 
176 7 39 267 361 327 207 165 323 
177 7 17 56 103 307 54 135 325 
178 7 266 26 58 71 240 311 273 
179 7 100 201 340 152 25 111 290 
180 7 228 148 40 124 15 58 265 
181 7 142 110 156 341 14 342 303 
182 7 105 247 273 311 57 169 178 
183 7 204 283 91 195 125 212 286 
184 7 65 312 85 102 27 146 272 
185 7 116 136 202 319 302 2 240 
186 7 61 194 86 134 226 310 323 
187 7 320 108 347 130 139 255 322 
188 7 72 32 129 175 198 78 93 
189 7 83 67 213 199 77 356 131 
190 7 272 351 102 65 184 312 27 
191 7 10 171 227 159 19 160 161 
192 7 310 86 137 343 194 113 207 
193 7 4 163 289 321 250 96 112 
194 7 61 134 86 207 343 186 192 
195 7 304 200 257 9 91 125 223 
196 7 248 155 168 57 311 247 71 
197 7 245 251 121 338 16 106 64 
198 7 69 175 129 93 188 138 324 
199 7 263 88 47 209 189 294 308 
200 7 257 304 87 345 127 167 195 
201 7 152 340 100 179 366 329 111 
202 7 116 185 136 240 172 319 141 
203 7 236 144 118 21 109 315 74 
204 7 283 183 206 106 121 212 91 
205 7 314 69 93 198 175 20 138 
206 7 283 121 106 204 212 197 183 
207 7 343 267 323 39 134 176 194 
208 7 3 326 43 299 301 84 122 
209 7 47 88 336 217 157 295 151 
210 7 7 27 352 18 312 85 184 
211 7 48 295 151 209 47 199 347 
212 7 286 333 38 91 125 89 68 
213 7 83 189 131 67 31 242 154 
214 7 63 225 107 99 22 44 330 
215 7 220 224 243 171 191 10 160 
216 7 150 277 94 44 49 60 360 
217 7 336 308 294 47 88 209 289 
218 7 353 297 235 324 122 84 256 
219 7 234 164 101 160 362 81 256 
220 7 224 243 171 215 82 161 351 
221 7 92 158 348 364 299 8 73 
222 7 292 246 306 339 236 203 21 
223 7 9 125 260 91 287 89 127 
224 7 220 243 171 215 161 82 351 
225 7 128 63 49 94 60 44 214 
226 7 41 323 134 278 238 194 207 
227 7 159 161 249 19 191 171 122 
228 7 180 148 40 124 15 58 265 
229 7 290 97 16 338 251 298 349 
230 7 90 307 56 303 103 365 14 
231 7 232 140 293 205 20 79 282 
232 7 231 140 293 205 20 28 314 
233 7 166 96 120 322 321 345 354 
234 7 101 219 362 256 81 160 353 
235 7 218 324 297 353 208 3 129 
236 7 203 109 144 292 55 37 246 
237 7 330 99 36 22 169 107 252 
238 7 46 242 363 41 226 278 154 
239 7 117 309 302 319 359 70 95 
240 7 172 136 71 202 185 141 178 
241 7 114 112 262 51 250 38 294 
242 7 238 46 363 154 213 131 83 
243 7 224 171 220 161 191 227 80 
244 7 358 280 11 279 50 12 153 
245 7 251 338 16 197 229 298 106 
246 7 292 222 236 306 203 339 37 
247 7 182 273 105 57 311 169 71 
248 7 196 155 168 57 334 133 247 
249 7 84 122 159 19 227 331 208 
250 7 38 68 163 193 112 241 114 
251 7 338 16 245 229 298 290 197 
252 7 360 22 36 150 44 228 180 
253 7 34 210 190 98 82 7 27 
254 7 261 328 344 265 285 124 119 
255 7 130 139 108 187 320 48 346 
256 7 362 81 353 218 101 297 234 
257 7 127 260 287 167 223 9 200 
258 7 310 86 192 137 61 194 343 
259 7 76 350 6 173 5 278 23 
260 7 287 127 167 223 257 9 89 
261 7 254 265 124 328 119 344 95 
262 7 51 114 241 112 33 38 250 
263 7 88 294 308 47 217 336 209 
264 7 332 344 285 328 254 271 70 
265 7 124 119 317 40 148 261 2 
266 7 178 26 58 71 240 15 311 
267 7 39 176 361 207 165 327 343 
268 7 28 20 313 101 234 232 314 
269 7 366 357 21 74 329 152 201 
270 7 111 349 329 143 340 100 13 
271 7 291 332 264 60 344 49 277 
272 7 102 190 351 65 184 312 85 
273 7 182 311 247 57 105 71 178 
274 7 24 318 59 237 330 99 107 
275 7 98 281 34 210 230 253 7 
276 7 337 291 271 225 128 49 60 
277 7 60 94 49 216 128 328 44 
278 7 41 226 23 259 350 46 323 
279 7 305 153 244 280 75 284 141 
280 7 244 358 153 168 279 50 155 
281 7 98 275 34 253 210 7 230 
282 7 79 334 174 231 140 132 232 
283 7 206 204 121 183 212 106 286 
284 7 141 153 172 305 202 240 71 
285 7 70 254 344 261 328 264 95 
286 7 333 212 89 91 125 68 38 
287 7 127 260 167 257 223 9 89 
288 7 42 320 255 187 355 29 130 
289 7 4 354 217 321 193 336 96 
290 7 97 229 349 100 298 111 179 
291 7 271 337 35 276 332 264 66 
292 7 246 222 236 203 306 339 37 
293 7 140 231 11 138 93 232 50 
294 7 308 217 336 263 88 47 289 
295 6 151 209 47 157 88 336 
296 7 87 355 322 166 345 120 200 
297 7 353 218 19 122 84 235 249 
298 7 229 251 290 25 338 16 97 
299 7 43 3 301 348 326 8 208 
300 7 162 143 147 106 16 338 97 
301 7 43 326 8 299 348 145 3 
302 7 319 309 117 116 95 185 2 
303 7 14 90 365 341 110 103 142 
304 7 195 200 257 9 125 223 91 
305 7 153 284 202 116 141 319 117 
306 7 339 222 269 13 21 74 292 
307 7 56 135 177 103 90 230 17 
308 7 294 217 336 88 263 47 289 
309 7 302 117 95 319 239 2 116 
310 7 192 86 137 343 194 258 61 
311 7 57 273 71 247 182 105 178 
312 7 85 184 27 65 146 18 53 
313 7 346 268 29 28 170 20 139 
314 7 205 69 198 20 175 93 129 
315 7 316 165 118 327 149 361 126 
316 7 315 165 118 327 149 361 126 
317 7 40 15 119 2 124 265 148 
318 7 274 24 107 99 330 237 59 
319 7 302 116 117 309 185 239 202 
320 7 187 42 108 130 322 347 255 
321 6 96 4 289 354 193 163 
322 7 166 233 296 345 87 120 42 
323 7 134 226 207 41 39 176 194 
324 7 129 32 72 188 235 78 198 
325 7 54 359 52 239 70 17 117 
326 7 43 301 299 3 208 8 348 
327 7 361 165 126 316 315 115 149 
328 7 344 254 261 277 60 216 285 
329 7 340 201 111 13 270 366 100 
330 7 99 237 107 22 36 252 24 
331 7 80 326 249 43 301 84 145 
332 7 264 344 35 271 285 328 254 
333 7 286 212 89 68 38 91 125 
334 7 79 155 248 168 133 282 196 
335 7 113 137 123 118 165 192 315 
336 7 217 47 88 308 209 294 157 
337 7 276 291 271 35 225 332 66 
338 7 16 251 229 245 298 97 290 
339 7 306 13 269 222 21 329 366 
340 7 100 111 201 179 329 349 152 
341 7 14 75 365 303 142 110 181 
342 7 146 104 18 53 364 156 85 
343 7 207 192 194 267 137 310 113 
344 7 328 254 285 264 261 277 60 
345 7 120 166 167 127 257 233 287 
346 7 29 313 255 139 130 108 48 
347 6 151 295 157 108 354 187 
348 7 8 364 299 301 43 145 221 
349 7 111 100 97 340 290 270 179 
350 7 173 6 23 76 259 25 5 
351 7 190 272 102 80 161 65 184 
352 7 18 7 156 27 110 342 85 
353 7 218 297 235 81 362 19 256 
354 6 157 289 96 321 4 217 
355 7 296 87 322 42 166 200 345 
356 7 77 67 189 83 199 211 48 
357 7 74 21 115 149 126 269 366 
358 7 11 50 244 280 293 138 12 
359 7 325 52 54 239 117 70 309 
360 7 150 252 44 216 22 228 180 
361 7 327 176 39 267 165 316 126 
362 7 256 81 353 218 101 297 234 
363 7 46 154 238 242 64 278 41 
364 7 348 8 104 145 221 301 92 
365 7 103 90 341 14 303 75 56 
366 7 152 269 201 357 5 329 340 
DEPOT_SECTION
   1
   -1
EOF
