NAME :  X-n327-kX-w130-c7.cctp
COMMENT : 	Adapted by Maziero, Usberti and Cavellucci from the Uchoa, Pecin, Pessoa, Poggi, Subramanian, and Vidal (2013)
TYPE :  CCTP
DIMENSION :    295
EDGE_WEIGHT_TYPE : 	EUC_2D	
CAPACITY : 	128
VERTICES_WITHIN_COVERAGE :  7
VERTICES_WITH_DEMAND : 	130
NODE_COORD_SECTION
1 236 951
2 735 289
3 841 735
4 846 821
5 907 810
6 55 136
7 372 422
8 437 584
9 509 822
10 57 519
11 563 333
12 750 8
13 644 692
14 123 787
15 865 618
16 833 453
17 736 643
18 90 930
19 804 192
20 435 164
21 540 911
22 747 80
23 486 239
24 511 784
25 639 247
26 337 11
27 95 706
28 719 839
29 943 421
30 55 633
31 396 807
32 916 252
33 191 716
34 552 500
35 226 520
36 666 833
37 450 431
38 427 307
39 4 89
40 736 784
41 615 382
42 739 386
43 229 527
44 594 197
45 910 398
46 492 214
47 974 107
48 914 556
49 384 827
50 151 908
51 390 873
52 70 232
53 418 29
54 128 721
55 211 129
56 641 993
57 220 883
58 293 551
59 244 952
60 910 489
61 324 280
62 466 437
63 879 676
64 359 770
65 95 631
66 920 56
67 577 407
68 178 769
69 225 359
70 882 228
71 385 516
72 759 814
73 234 405
74 33 412
75 423 135
76 194 121
77 970 723
78 6 206
79 392 669
80 782 300
81 107 786
82 889 855
83 68 280
84 522 848
85 653 78
86 719 736
87 809 404
88 620 655
89 439 605
90 990 874
91 46 236
92 980 500
93 625 383
94 146 430
95 795 241
96 714 554
97 200 946
98 89 207
99 144 648
100 633 877
101 482 843
102 670 150
103 763 951
104 755 922
105 615 139
106 192 844
107 396 409
108 799 30
109 72 916
110 917 12
111 370 551
112 686 937
113 156 769
114 553 21
115 86 666
116 42 261
117 494 309
118 767 378
119 528 311
120 697 21
121 545 665
122 675 228
123 752 812
124 180 120
125 94 979
126 348 861
127 397 753
128 229 855
129 756 910
130 311 203
131 177 491
132 280 408
133 470 132
134 40 324
135 386 644
136 975 360
137 9 836
138 397 598
139 658 175
140 470 227
141 472 882
142 157 4
143 876 714
144 780 25
145 394 658
146 697 278
147 879 723
148 192 970
149 522 896
150 620 103
151 122 342
152 790 311
153 599 866
154 611 927
155 761 602
156 983 317
157 933 461
158 156 922
159 10 773
160 834 293
161 926 186
162 370 613
163 440 477
164 508 847
165 669 376
166 103 931
167 676 953
168 54 978
169 687 958
170 490 478
171 739 920
172 753 305
173 109 937
174 15 915
175 404 490
176 724 965
177 348 565
178 688 798
179 632 674
180 223 946
181 408 367
182 530 770
183 924 692
184 428 765
185 358 485
186 565 728
187 443 295
188 66 938
189 716 347
190 495 763
191 36 884
192 74 958
193 719 301
194 698 823
195 816 412
196 292 364
197 565 958
198 429 532
199 79 947
200 609 887
201 664 939
202 17 996
203 742 358
204 659 374
205 622 546
206 850 978
207 230 964
208 622 900
209 195 917
210 559 938
211 469 485
212 135 944
213 338 907
214 700 752
215 176 858
216 457 356
217 133 940
218 531 327
219 656 685
220 215 828
221 308 625
222 552 995
223 689 723
224 244 517
225 615 185
226 174 911
227 645 998
228 461 850
229 605 496
230 447 815
231 643 652
232 281 970
233 544 649
234 681 805
235 237 976
236 592 381
237 239 911
238 749 816
239 446 458
240 705 802
241 644 796
242 249 978
243 858 374
244 676 925
245 107 882
246 44 884
247 587 702
248 408 941
249 520 846
250 367 393
251 457 261
252 613 339
253 299 819
254 670 272
255 205 968
256 720 840
257 81 862
258 437 430
259 443 557
260 228 890
261 707 458
262 365 855
263 527 416
264 224 929
265 298 869
266 524 758
267 624 918
268 115 966
269 235 882
270 391 446
271 554 866
272 756 921
273 464 857
274 547 966
275 721 823
276 415 525
277 632 720
278 481 524
279 603 286
280 774 753
281 527 935
282 726 979
283 584 437
284 846 221
285 683 751
286 732 271
287 753 935
288 76 975
289 564 787
290 310 420
291 406 463
292 880 364
293 559 849
294 706 472
295 397 449
DEMAND_SECTION
2 6
3 10
4 8
5 5
6 6
7 9
8 8
9 6
10 7
11 10
12 8
13 6
14 10
15 6
16 7
17 6
18 9
19 8
20 10
21 10
22 9
23 9
24 9
25 7
26 7
27 8
28 7
29 5
30 5
31 7
32 9
33 6
34 9
35 10
36 9
37 8
38 8
39 5
40 5
41 8
42 5
43 10
44 7
45 8
46 7
47 6
48 5
49 9
50 8
51 10
52 5
53 5
54 7
55 5
56 8
57 10
58 8
59 9
60 9
61 5
62 6
63 6
64 5
65 9
66 9
67 6
68 8
69 9
70 10
71 5
72 9
73 5
74 10
75 7
76 7
77 6
78 10
79 10
80 5
81 6
82 10
83 8
84 5
85 7
86 5
87 5
88 5
89 7
90 7
91 9
92 10
93 9
94 6
95 6
96 10
97 7
98 6
99 10
100 8
101 5
102 8
103 6
104 8
105 6
106 9
107 10
108 10
109 8
110 10
111 7
112 6
113 6
114 5
115 8
116 7
117 8
118 8
119 7
120 6
121 7
122 9
123 7
124 7
125 5
126 6
127 5
128 9
129 5
130 8
131 5
COVERAGE_SECTION
2 7 286 193 172 146 80 152 189 
3 7 147 143 280 63 4 183 5 
4 7 82 5 3 72 123 238 280 
5 7 82 4 147 3 143 90 77 
6 7 39 98 78 52 91 116 124 
7 7 107 250 270 295 291 290 185 
8 7 89 259 138 198 276 162 278 
9 7 164 249 84 101 24 182 228 
10 7 74 30 65 131 94 115 99 
11 7 218 119 252 236 279 41 117 
12 7 144 108 120 22 85 150 102 
13 6 219 179 277 231 88 223 
14 7 81 113 68 54 27 257 106 
15 7 63 48 183 143 155 147 3 
16 7 195 87 243 60 45 118 157 
17 7 155 219 96 223 231 86 13 
18 7 166 173 199 109 188 192 217 
19 7 95 284 70 160 286 80 2 
20 7 75 133 140 46 23 251 130 
21 7 149 281 210 271 197 274 293 
22 7 144 12 108 120 85 102 19 
23 7 140 46 251 117 187 119 38 
24 7 182 190 266 9 289 164 249 
25 7 254 122 279 146 225 44 139 
26 7 53 75 55 76 133 142 20 
27 7 54 115 65 99 81 30 14 
28 7 256 275 194 238 240 123 72 
29 7 45 157 136 60 292 92 243 
30 7 65 115 27 99 10 54 159 
31 7 49 64 230 184 127 262 51 
32 7 70 161 284 160 156 292 95 
33 7 68 54 113 99 27 14 81 
34 7 229 170 283 278 205 211 263 
35 7 43 224 131 58 73 94 132 
36 7 234 194 178 241 240 28 256 
37 7 258 62 239 163 291 295 211 
38 7 187 251 216 181 117 23 140 
39 7 6 78 98 91 52 142 116 
40 6 123 238 240 72 275 214 
41 6 93 236 252 67 204 165 
42 4 203 118 189 165 
43 7 35 224 131 58 73 177 221 
44 7 225 105 25 139 122 102 279 
45 7 29 292 243 157 136 60 16 
46 7 23 140 251 20 133 117 187 
47 7 66 161 110 70 32 284 19 
48 7 60 15 92 157 63 16 183 
49 7 31 262 51 126 64 230 127 
50 7 158 226 217 212 209 173 245 
51 7 262 126 49 213 31 248 228 
52 7 91 98 116 83 78 6 134 
53 7 26 75 133 114 20 46 130 
54 7 27 113 33 14 81 68 115 
55 7 76 124 130 142 98 6 26 
56 7 227 167 169 201 112 154 244 
57 7 260 269 128 237 209 264 106 
58 7 177 224 43 35 221 111 185 
59 6 207 180 235 242 264 232 
60 7 157 48 92 29 16 45 195 
61 7 130 196 38 187 181 250 69 
62 7 37 239 258 163 170 211 263 
63 7 143 147 183 15 3 77 48 
64 7 127 31 49 184 253 262 126 
65 7 115 30 99 27 54 10 33 
66 7 110 47 108 161 144 22 70 
67 7 236 283 41 263 93 11 252 
68 7 113 33 14 54 220 81 106 
69 7 73 196 132 151 290 94 61 
70 7 284 32 161 160 19 95 80 
71 7 276 175 111 185 198 291 177 
72 7 123 238 40 275 28 256 240 
73 7 132 69 196 290 94 131 224 
74 7 134 10 151 94 83 116 131 
75 7 20 133 140 46 53 23 130 
76 7 124 55 142 98 6 130 52 
77 7 183 147 143 63 5 3 15 
78 7 91 116 52 98 6 83 39 
79 7 145 135 162 138 89 127 221 
80 7 152 172 2 160 286 95 193 
81 7 14 113 54 68 257 27 245 
82 7 5 4 90 3 206 147 72 
83 7 116 52 91 134 98 151 78 
84 7 249 164 9 271 293 101 149 
85 7 150 105 120 102 22 139 225 
86 5 214 223 285 40 280 
87 7 195 118 16 243 42 203 292 
88 7 179 231 13 219 247 277 121 
89 7 8 138 259 135 162 145 198 
90 7 82 5 77 4 206 147 183 
91 7 52 116 83 78 98 134 6 
92 7 157 60 29 48 45 136 16 
93 6 41 236 204 165 252 67 
94 7 131 73 151 69 74 35 10 
95 7 19 284 80 160 152 286 2 
96 6 155 294 17 205 261 231 
97 6 180 255 148 209 264 207 
98 7 52 91 116 83 6 78 124 
99 7 65 115 54 27 33 30 113 
100 7 208 200 153 267 36 154 244 
101 7 228 273 164 9 249 84 141 
102 7 139 105 225 150 85 122 44 
103 7 287 104 272 171 176 129 282 
104 7 272 129 287 171 103 176 282 
105 7 150 225 102 139 44 85 122 
106 7 215 220 128 57 269 260 226 
107 7 7 250 270 295 181 258 291 
108 7 144 12 22 120 110 66 85 
109 7 18 188 199 166 192 173 246 
110 7 66 47 108 144 12 161 22 
111 7 177 71 276 138 162 198 185 
112 7 244 167 169 201 176 171 282 
113 7 68 14 81 54 33 106 220 
114 7 150 85 105 53 133 120 75 
115 7 65 27 30 99 54 33 81 
116 7 91 83 52 134 78 98 151 
117 7 119 218 187 216 251 38 23 
118 7 42 203 87 189 195 152 172 
119 7 218 117 11 279 23 216 187 
120 7 12 85 22 144 108 150 102 
121 6 233 247 186 88 179 266 
122 7 25 254 146 139 286 225 102 
123 7 238 72 40 275 28 256 240 
124 7 76 55 142 6 98 130 52 
125 6 288 268 192 199 168 173 
126 7 262 51 213 49 265 253 31 
127 7 184 64 31 49 230 79 145 
128 7 269 57 220 260 106 215 237 
129 7 272 104 171 287 103 176 112 
130 7 61 55 20 75 76 124 38 
131 7 35 43 94 224 73 10 58 
132 7 290 73 196 69 250 7 185 
133 7 20 75 46 140 23 53 251 
134 7 83 116 151 74 91 52 78 
135 7 145 79 162 138 89 8 221 
136 7 156 29 45 292 157 243 32 
137 7 191 246 159 257 174 109 245 
138 7 162 8 89 135 111 177 145 
139 7 102 225 105 122 44 25 150 
140 7 23 46 251 20 187 117 38 
141 6 273 228 101 164 149 84 
142 7 124 76 55 6 39 26 98 
143 7 147 63 3 183 77 15 5 
144 7 108 12 22 120 85 110 66 
145 7 79 135 162 138 89 8 221 
146 7 254 193 286 2 122 172 25 
147 7 143 3 63 183 5 77 4 
148 4 255 97 207 180 
149 7 21 281 271 84 249 164 141 
150 7 105 85 102 139 225 44 114 
151 7 83 134 94 69 74 116 52 
152 7 80 172 160 2 203 95 286 
153 6 200 100 208 293 271 267 
154 7 267 208 200 210 201 100 197 
155 7 17 96 15 231 219 63 86 
156 7 136 32 45 29 292 70 243 
157 7 60 29 92 45 48 16 136 
158 7 50 226 217 212 209 173 97 
159 7 137 81 27 14 191 257 246 
160 7 152 80 95 284 70 172 243 
161 7 70 32 284 47 19 66 160 
162 7 138 135 145 177 79 111 221 
163 7 239 211 291 175 37 258 62 
164 7 249 84 9 101 273 228 141 
165 2 204 93 
166 7 173 18 199 217 109 212 268 
167 7 169 201 112 244 176 56 227 
168 5 288 192 125 199 202 
169 7 167 112 201 244 176 282 56 
170 7 211 278 62 239 163 37 34 
171 7 104 272 129 287 103 176 112 
172 7 2 80 193 152 286 203 189 
173 7 166 18 217 212 268 199 192 
174 5 191 246 188 109 199 
175 7 291 71 276 163 295 185 270 
176 7 282 169 103 287 112 171 167 
177 7 111 162 58 138 71 221 276 
178 5 234 240 194 36 275 
179 6 13 88 231 219 277 247 
180 6 264 207 59 97 255 235 
181 7 107 250 216 38 7 258 37 
182 6 266 24 190 289 186 9 
183 7 63 143 77 147 3 15 5 
184 7 127 31 230 190 64 49 24 
185 7 71 175 270 291 295 7 111 
186 5 247 266 182 289 121 
187 7 38 251 117 216 23 140 181 
188 6 199 192 109 18 166 288 
189 3 203 42 193 
190 7 24 266 182 9 184 230 289 
191 7 246 174 109 257 137 188 18 
192 6 199 288 188 168 125 18 
193 7 2 146 286 172 189 254 203 
194 7 240 275 234 28 178 256 36 
195 7 87 16 243 118 292 42 203 
196 7 132 290 69 73 250 61 7 
197 6 274 210 222 281 21 154 
198 7 276 259 71 175 8 278 163 
199 7 192 188 18 288 166 109 173 
200 6 208 153 100 267 154 271 
201 7 167 244 112 169 267 154 208 
202 5 168 288 192 188 125 
203 5 42 189 118 172 193 
204 2 165 93 
205 6 229 34 96 231 88 294 
206 7 103 287 104 272 129 282 171 
207 5 235 59 180 242 255 
208 7 200 267 100 154 153 201 244 
209 7 226 97 264 158 180 57 260 
210 7 197 274 281 21 154 149 222 
211 7 170 163 239 278 62 37 198 
212 7 217 173 158 268 166 50 18 
213 5 126 265 262 51 248 
214 4 285 86 223 40 
215 7 106 220 57 128 226 50 260 
216 7 181 38 117 187 37 258 218 
217 7 212 173 158 166 268 50 18 
218 7 119 11 117 216 236 252 279 
219 6 13 179 231 277 88 223 
220 7 106 128 215 57 269 260 68 
221 7 162 177 58 135 145 138 79 
222 6 274 197 210 281 21 56 
223 5 285 214 86 219 13 
224 7 35 43 58 131 73 132 177 
225 7 44 139 105 102 25 122 150 
226 7 158 209 50 97 217 212 215 
227 7 56 167 169 201 112 154 244 
228 7 273 101 141 230 164 9 249 
229 4 34 205 283 67 
230 7 228 101 273 31 184 9 49 
231 7 88 179 219 13 277 247 223 
232 3 242 59 235 
233 6 121 247 88 186 179 231 
234 5 178 240 194 36 241 
235 3 242 207 59 
236 7 41 67 93 252 11 283 204 
237 7 264 260 269 57 180 59 209 
238 7 123 72 275 40 28 256 240 
239 7 163 37 62 258 211 291 170 
240 6 178 194 234 275 40 28 
241 3 234 36 178 
242 3 235 207 59 
243 7 292 45 87 195 16 160 118 
244 7 112 201 167 169 267 208 176 
245 7 257 109 166 18 50 173 158 
246 7 191 174 109 257 188 137 245 
247 6 186 277 179 121 88 13 
248 2 51 213 
249 7 84 164 9 101 271 293 149 
250 7 7 107 181 270 290 295 258 
251 7 23 140 187 38 46 117 119 
252 6 41 93 236 11 279 204 
253 7 265 126 262 64 128 220 49 
254 7 146 25 122 193 286 2 279 
255 5 148 97 207 180 235 
256 7 28 275 194 238 240 123 72 
257 7 245 246 191 109 18 166 137 
258 7 37 239 62 295 291 107 163 
259 7 8 198 276 89 278 138 71 
260 7 57 269 237 128 264 209 180 
261 2 294 42 
262 7 126 51 49 31 213 265 253 
263 7 67 283 62 170 236 37 34 
264 7 180 237 97 59 209 207 260 
265 7 253 126 213 269 262 128 237 
266 6 182 24 190 289 186 9 
267 7 154 208 200 100 201 244 153 
268 7 125 173 212 217 166 288 199 
269 7 260 57 128 237 264 209 106 
270 7 295 291 7 107 175 258 185 
271 6 293 84 249 149 153 21 
272 7 104 129 287 171 103 176 282 
273 7 228 101 141 164 230 9 249 
274 6 197 222 210 281 21 149 
275 7 28 256 194 240 238 123 72 
276 7 198 71 175 259 111 163 8 
277 5 13 219 179 247 223 
278 7 211 170 259 198 163 276 8 
279 7 25 252 11 254 119 218 44 
280 7 40 86 72 123 238 3 214 
281 5 21 210 274 149 197 
282 7 176 169 103 287 167 112 171 
283 7 67 236 263 41 229 93 34 
284 7 70 19 95 160 32 161 80 
285 4 214 223 86 178 
286 7 2 193 146 172 80 254 95 
287 7 104 272 103 171 129 176 282 
288 5 192 125 168 199 188 
289 4 182 266 24 186 
290 7 132 196 7 250 73 185 270 
291 7 295 270 175 163 239 258 7 
292 7 243 45 195 87 29 160 136 
293 6 271 84 249 153 164 9 
294 2 261 96 
295 7 270 291 7 107 175 258 239 
DEPOT_SECTION
   1
   -1
EOF
