NAME :  X-n367-kX-w146-c11.cctp
COMMENT : 	Adapted by Maziero, Usberti and Cavellucci from the Uchoa, Pecin, Pessoa, Poggi, Subramanian, and Vidal (2013)
TYPE :  CCTP
DIMENSION :    367
EDGE_WEIGHT_TYPE : 	EUC_2D	
CAPACITY : 	218
VERTICES_WITHIN_COVERAGE :  11
VERTICES_WITH_DEMAND : 	146
NODE_COORD_SECTION
1 927 318
2 319 475
3 471 281
4 894 615
5 712 832
6 728 813
7 360 217
8 446 264
9 952 650
10 558 224
11 460 397
12 464 342
13 733 921
14 324 316
15 333 497
16 826 821
17 257 385
18 385 244
19 523 249
20 559 370
21 665 866
22 310 583
23 744 792
24 428 638
25 759 804
26 359 515
27 392 213
28 583 380
29 786 400
30 516 833
31 823 692
32 480 330
33 870 690
34 311 76
35 157 434
36 340 558
37 499 905
38 893 667
39 665 781
40 328 499
41 712 744
42 949 498
43 463 266
44 275 564
45 456 323
46 748 727
47 860 607
48 821 554
49 245 542
50 462 420
51 859 662
52 308 399
53 427 246
54 279 414
55 543 841
56 243 333
57 406 498
58 347 509
59 460 593
60 244 536
61 650 703
62 732 115
63 234 661
64 808 720
65 423 216
66 144 390
67 772 633
68 917 645
69 509 345
70 286 449
71 380 488
72 478 333
73 465 310
74 666 858
75 334 369
76 708 815
77 767 610
78 472 326
79 481 449
80 476 215
81 559 265
82 477 79
83 786 646
84 503 255
85 406 226
86 627 709
87 980 570
88 859 611
89 931 648
90 281 315
91 954 665
92 443 295
93 497 359
94 247 542
95 311 468
96 901 603
97 801 847
98 257 131
99 346 637
100 767 855
101 604 305
102 436 206
103 277 345
104 428 257
105 405 530
106 892 802
107 341 663
108 856 527
109 539 861
110 359 298
111 775 869
112 875 642
113 610 772
114 867 658
115 677 832
116 340 456
117 322 444
118 623 825
119 316 483
120 941 597
121 886 768
122 505 255
123 554 806
124 309 502
125 953 659
126 675 828
127 946 627
128 242 560
129 498 334
130 844 511
131 811 691
132 468 522
133 454 510
134 675 733
135 186 347
136 348 474
137 605 756
138 487 362
139 835 517
140 507 409
141 378 458
142 368 319
143 810 928
144 572 844
145 445 255
146 412 244
147 815 948
148 328 509
149 665 841
150 295 534
151 859 585
152 730 846
153 380 437
154 786 719
155 437 458
156 371 276
157 876 594
158 448 298
159 510 236
160 573 230
161 492 203
162 837 903
163 909 630
164 704 257
165 643 809
166 942 583
167 944 623
168 440 448
169 411 551
170 721 584
171 523 195
172 370 474
173 730 809
174 520 525
175 498 349
176 667 782
177 244 370
178 365 509
179 758 838
180 323 519
181 378 315
182 402 522
183 986 718
184 419 216
185 340 467
186 664 691
187 887 519
188 487 341
189 798 633
190 432 178
191 538 215
192 619 734
193 897 626
194 653 723
195 999 652
196 424 473
197 842 770
198 504 345
199 830 617
200 986 609
201 742 857
202 352 461
203 602 875
204 980 770
205 524 367
206 918 764
207 654 754
208 482 274
209 861 603
210 344 184
211 832 573
212 924 690
213 794 662
214 258 663
215 575 132
216 273 535
217 871 612
218 522 291
219 650 261
220 517 137
221 443 292
222 631 960
223 950 648
224 514 140
225 212 601
226 698 735
227 510 223
228 322 521
229 806 829
230 243 269
231 527 416
232 535 411
233 917 576
234 618 292
235 504 296
236 574 897
237 368 600
238 733 712
239 314 438
240 362 479
241 874 652
242 756 693
243 519 166
244 418 381
245 841 801
246 593 974
247 410 515
248 434 478
249 501 249
250 896 647
251 819 806
252 311 561
253 363 98
254 275 491
255 849 471
256 563 297
257 961 626
258 588 700
259 705 795
260 948 634
261 283 493
262 865 664
263 856 622
264 223 459
265 307 497
266 363 509
267 655 782
268 636 386
269 703 883
270 782 900
271 186 508
272 436 192
273 398 512
274 449 668
275 253 148
276 112 573
277 250 532
278 722 761
279 375 393
280 415 416
281 234 81
282 511 473
283 940 754
284 382 449
285 267 459
286 926 677
287 946 631
288 962 364
289 886 613
290 794 839
291 137 499
292 594 954
293 497 399
294 869 621
295 857 586
296 971 559
297 521 273
298 793 806
299 461 276
300 912 910
301 457 265
302 325 456
303 312 305
304 991 645
305 360 430
306 672 935
307 227 328
308 869 620
309 316 455
310 617 725
311 395 501
312 406 223
313 879 592
314 692 448
315 534 348
316 641 823
317 644 822
318 323 492
319 405 715
320 331 451
321 902 505
322 900 608
323 939 553
324 681 748
325 497 320
326 289 412
327 466 263
328 662 812
329 256 499
330 748 888
331 352 624
332 474 238
333 208 455
334 922 673
335 470 473
336 595 787
337 869 610
338 80 531
339 826 819
340 691 935
341 759 863
342 331 340
343 405 263
344 640 751
345 246 487
346 949 593
347 770 429
348 876 561
349 448 274
350 786 866
351 728 801
352 453 176
353 356 248
354 531 283
355 885 599
356 994 539
357 781 595
358 688 856
359 448 393
360 302 417
361 298 550
362 663 798
363 564 286
364 762 732
365 437 272
366 301 337
367 718 866
DEMAND_SECTION
2 67
3 87
4 73
5 59
6 88
7 58
8 53
9 53
10 97
11 59
12 52
13 83
14 88
15 83
16 95
17 95
18 93
19 63
20 50
21 94
22 56
23 57
24 69
25 68
26 3
27 3
28 1
29 3
30 2
31 1
32 4
33 10
34 6
35 9
36 1
37 3
38 4
39 2
40 10
41 5
42 4
43 6
44 3
45 10
46 5
47 2
48 5
49 9
50 6
51 8
52 2
53 3
54 6
55 5
56 5
57 3
58 3
59 6
60 5
61 8
62 9
63 4
64 8
65 4
66 10
67 5
68 1
69 9
70 9
71 6
72 6
73 7
74 4
75 5
76 3
77 5
78 5
79 1
80 10
81 4
82 2
83 5
84 5
85 8
86 6
87 10
88 8
89 7
90 6
91 8
92 4
93 2
94 4
95 7
96 8
97 10
98 1
99 1
100 9
101 1
102 7
103 9
104 10
105 1
106 2
107 10
108 3
109 6
110 9
111 5
112 8
113 9
114 9
115 7
116 1
117 6
118 4
119 8
120 7
121 8
122 3
123 4
124 9
125 7
126 1
127 1
128 6
129 1
130 9
131 7
132 7
133 3
134 8
135 1
136 6
137 7
138 1
139 4
140 7
141 4
142 2
143 8
144 10
145 6
146 1
147 6
COVERAGE_SECTION
2 11 119 95 318 302 309 185 265 15 40 320 116 
3 11 299 208 43 327 301 349 158 8 73 221 92 
4 11 289 322 193 96 355 163 217 308 337 294 313 
5 11 76 152 6 173 358 115 351 367 126 259 201 
6 11 173 351 76 5 23 259 25 152 179 201 278 
7 11 353 27 18 210 312 85 146 184 156 65 343 
8 11 145 349 301 365 43 104 299 327 53 221 3 
9 11 223 125 91 260 287 89 127 257 167 68 286 
10 11 160 191 81 19 171 227 159 122 297 249 363 
11 11 359 50 293 138 244 140 280 93 12 168 79 
12 11 72 78 32 45 188 138 73 129 175 93 198 
13 11 330 340 269 270 367 306 341 201 111 100 152 
14 11 303 342 366 110 90 142 75 181 103 156 353 
15 11 40 318 148 58 119 180 124 2 228 265 136 
16 11 339 251 229 245 97 298 290 197 350 100 25 
17 11 177 54 326 103 52 56 360 307 366 70 90 
18 11 146 85 343 353 312 27 156 7 53 184 104 
19 11 159 122 84 249 297 227 354 191 81 218 10 
20 11 28 315 205 232 69 231 198 93 140 175 293 
21 11 74 149 358 115 126 269 316 317 367 328 5 
22 11 252 361 36 44 150 331 237 216 228 99 180 
23 11 351 25 173 6 278 259 76 179 5 298 152 
24 11 274 59 237 331 319 99 169 107 105 36 182 
25 11 23 173 351 6 179 298 290 152 76 100 229 
26 11 266 178 58 15 148 71 40 180 240 228 273 
27 11 312 85 184 65 7 18 146 102 53 272 353 
28 11 20 268 232 315 205 231 101 140 69 256 198 
29 11 347 255 314 130 139 108 268 187 321 48 164 
30 11 55 109 123 144 37 236 336 203 118 113 137 
31 11 131 64 213 154 33 51 262 114 83 189 241 
32 11 72 78 188 129 12 325 45 73 175 198 69 
33 11 262 51 114 38 241 31 112 250 212 334 286 
34 11 253 98 281 275 210 7 190 27 82 272 352 
35 11 66 333 291 264 271 135 345 177 17 285 329 
36 11 252 22 228 180 361 26 58 148 237 150 266 
37 11 109 30 236 55 144 203 292 123 246 222 118 
38 11 250 241 114 262 334 112 33 68 51 286 212 
39 11 176 267 362 207 328 165 324 344 259 317 126 
40 11 15 318 148 124 119 58 180 265 228 2 136 
41 11 226 278 324 238 134 46 259 364 23 176 207 
42 11 321 323 356 187 296 87 233 166 346 348 108 
43 11 327 301 299 3 8 349 145 208 365 332 221 
44 11 361 216 128 94 150 252 49 22 277 60 228 
45 11 73 78 12 72 32 158 92 221 188 325 129 
46 11 364 238 242 154 41 278 226 64 23 324 131 
47 11 88 209 337 217 263 308 294 157 295 151 313 
48 11 211 139 108 295 130 151 348 357 209 199 47 
49 11 94 60 277 128 216 44 329 150 361 345 254 
50 11 11 359 79 168 293 155 140 280 335 244 138 
51 11 262 114 241 112 33 38 250 263 294 308 31 
52 11 360 326 54 239 75 117 17 70 309 320 302 
53 11 104 146 145 8 343 365 85 65 184 312 349 
54 11 326 360 52 17 70 239 285 117 309 177 302 
55 11 109 30 144 123 236 203 336 37 118 113 316 
56 11 307 103 177 90 17 366 135 230 303 14 342 
57 11 311 273 247 182 71 196 105 248 178 172 266 
58 11 26 266 15 178 148 40 180 228 318 240 136 
59 11 24 169 132 274 133 105 174 182 237 247 273 
60 11 49 94 277 128 216 329 44 345 150 254 361 
61 11 186 194 86 134 310 192 344 207 324 226 258 
62 11 164 215 219 160 10 234 220 191 224 243 171 
63 11 214 225 128 44 107 22 99 49 94 331 60 
64 11 154 131 31 364 242 46 197 213 33 238 51 
65 11 184 102 312 85 272 53 146 27 190 104 145 
66 11 35 135 333 177 307 264 291 17 56 271 54 
67 11 83 77 189 213 357 199 242 131 170 31 211 
68 11 89 163 250 193 334 287 38 223 260 286 127 
69 11 198 175 129 93 188 315 205 138 325 32 72 
70 11 285 239 95 309 54 117 360 326 302 2 254 
71 11 172 240 311 178 266 57 141 273 26 136 58 
72 11 32 78 188 12 129 325 45 73 175 198 138 
73 11 45 78 158 32 72 92 221 3 12 299 325 
74 11 21 149 358 115 126 317 316 269 328 5 367 
75 11 342 52 366 279 14 360 142 103 326 305 303 
76 11 5 6 259 173 351 115 126 152 23 328 358 
77 11 357 67 189 83 170 213 199 211 48 242 263 
78 11 32 72 45 73 12 188 325 129 175 158 198 
79 11 335 50 282 168 155 140 293 248 11 231 196 
80 11 161 332 227 159 102 249 352 272 84 122 327 
81 11 363 256 354 160 19 297 10 218 191 122 84 
82 11 220 224 243 352 190 215 253 272 161 171 102 
83 11 189 213 67 77 131 357 199 242 31 154 263 
84 11 122 249 159 19 297 208 227 332 327 354 3 
85 11 312 184 27 146 65 18 53 102 343 104 272 
86 11 310 61 192 194 258 186 344 137 207 134 113 
87 11 296 356 200 346 166 323 120 257 233 167 127 
88 11 47 209 337 263 217 308 294 157 295 151 289 
89 11 68 223 9 260 287 125 127 334 163 167 91 
90 11 103 366 303 56 14 307 342 230 177 17 75 
91 11 125 9 223 89 286 260 334 287 127 212 257 
92 11 221 158 349 365 299 73 3 8 45 301 43 
93 11 138 175 198 69 188 129 205 72 32 12 315 
94 11 49 60 277 128 216 44 329 150 361 345 254 
95 11 2 309 119 302 117 320 318 185 265 239 70 
96 11 322 4 355 289 193 313 157 163 217 233 337 
97 11 290 229 350 111 100 16 339 298 179 251 341 
98 11 275 281 34 210 253 7 230 353 27 18 312 
99 11 331 107 237 22 36 24 252 214 319 361 44 
100 11 341 111 179 350 201 290 97 152 330 229 270 
101 11 234 256 363 81 219 354 28 20 160 315 218 
102 11 272 65 184 190 312 352 85 53 80 27 146 
103 11 366 90 56 177 17 303 307 342 14 52 75 
104 11 53 145 365 8 146 343 349 301 43 85 221 
105 11 182 247 273 169 311 57 178 266 26 71 133 
106 11 121 206 245 197 283 339 16 251 229 204 298 
107 11 99 331 237 319 214 22 24 36 252 63 274 
108 11 130 139 187 348 48 321 211 255 151 295 313 
109 11 55 30 144 236 123 37 203 118 336 292 316 
110 11 142 156 181 14 303 342 353 343 18 366 75 
111 11 350 100 341 270 330 97 179 201 290 152 229 
112 11 241 114 250 294 308 262 51 193 263 217 38 
113 11 137 336 344 192 267 207 310 165 118 39 176 
114 11 262 51 241 112 38 250 33 294 263 308 193 
115 11 126 149 328 358 74 317 5 76 21 316 362 
116 11 320 185 202 302 136 117 309 2 95 239 240 
117 11 239 320 302 309 116 95 185 2 202 360 70 
118 11 316 317 165 328 149 336 362 126 74 115 144 
119 11 2 318 95 265 40 124 15 302 309 148 185 
120 11 346 166 167 127 233 287 257 260 96 322 323 
121 11 206 106 197 245 283 251 339 16 33 212 64 
122 11 84 249 19 159 297 208 227 332 354 218 327 
123 11 55 144 336 30 109 113 137 118 203 165 316 
124 11 265 318 40 119 148 180 228 15 261 2 95 
125 11 91 9 223 89 260 287 286 127 257 334 167 
126 11 115 149 328 74 358 317 362 316 76 5 165 
127 11 167 287 260 257 223 9 89 120 125 68 346 
128 11 49 94 60 277 44 216 225 361 150 329 252 
129 11 188 198 325 175 69 32 72 93 78 138 12 
130 11 139 108 255 187 48 321 348 211 151 295 313 
131 11 31 64 213 154 83 242 51 33 189 262 364 
132 11 133 335 174 248 247 105 169 282 57 182 196 
133 11 132 248 335 247 196 57 105 182 155 273 169 
134 11 324 226 194 207 41 61 344 186 39 176 267 
135 11 307 56 66 177 17 103 35 230 90 333 54 
136 11 185 202 240 116 172 15 2 302 320 318 40 
137 11 113 192 310 336 344 207 86 267 194 258 39 
138 11 93 175 188 198 69 12 72 129 32 205 293 
139 11 130 108 48 255 187 211 348 321 151 295 157 
140 11 293 231 232 205 50 79 11 93 138 175 359 
141 11 284 172 153 202 240 71 305 136 116 185 311 
142 11 181 110 156 342 14 303 75 343 366 353 279 
143 11 147 162 270 350 111 330 13 97 341 100 290 
144 11 55 109 123 203 236 118 30 336 316 317 165 
145 11 8 301 104 349 365 53 43 327 299 332 146 
146 11 53 85 343 104 312 18 184 65 145 27 365 
147 11 143 162 270 13 350 111 330 97 341 300 100 
148 11 40 180 15 228 318 58 124 265 119 26 2 
149 11 115 126 74 21 358 317 328 316 165 362 118 
150 11 361 216 228 252 180 124 44 265 148 261 277 
151 11 295 209 157 313 47 88 337 348 211 217 355 
152 11 201 5 367 179 6 341 173 76 100 358 351 
153 11 284 141 305 202 172 280 116 279 240 136 185 
154 11 64 364 131 46 242 31 238 213 83 197 278 
155 11 168 196 248 335 50 79 280 57 133 284 141 
156 11 110 353 18 343 181 142 146 7 104 85 14 
157 11 313 355 209 337 151 217 47 289 295 88 96 
158 11 92 221 73 349 45 299 365 3 8 301 43 
159 11 227 249 19 84 122 191 332 161 297 80 171 
160 11 10 81 191 19 363 171 159 227 297 256 354 
161 11 80 227 171 159 332 243 249 352 191 84 122 
162 11 143 147 270 350 97 111 300 290 229 16 100 
163 11 193 68 4 250 322 89 96 289 112 167 127 
164 11 219 234 101 160 363 62 81 268 256 10 29 
165 11 317 316 328 362 118 267 39 176 126 149 115 
166 11 346 120 233 323 296 87 167 127 96 257 287 
167 11 127 287 260 257 120 223 9 89 346 68 163 
168 11 155 196 248 50 335 79 280 11 359 284 57 
169 11 105 182 247 273 311 57 133 178 26 132 266 
170 11 77 357 67 83 189 48 213 211 199 242 186 
171 11 191 243 227 161 159 10 80 19 224 220 249 
172 11 240 71 141 136 202 284 185 116 178 266 311 
173 11 6 351 23 76 5 25 259 152 179 201 278 
174 11 132 282 133 335 79 59 248 155 196 231 247 
175 11 198 93 69 188 129 138 32 72 325 205 12 
176 11 39 267 362 328 207 165 324 259 344 317 126 
177 11 17 56 103 307 54 135 326 90 366 52 360 
178 11 266 26 58 71 240 311 273 15 172 148 40 
179 11 100 201 341 152 25 111 290 6 173 350 97 
180 11 228 148 40 124 15 58 265 318 150 26 119 
181 11 142 110 156 342 14 343 303 92 221 75 18 
182 11 105 247 273 311 57 169 178 71 266 26 133 
183 11 204 283 91 195 125 212 286 304 9 334 223 
184 11 65 312 85 102 27 146 272 53 190 104 18 
185 11 116 136 202 320 302 2 240 309 95 117 119 
186 11 61 194 86 134 226 310 324 192 207 344 41 
187 11 321 108 348 130 139 255 323 233 42 151 295 
188 11 72 32 129 175 198 78 93 138 69 12 325 
189 11 83 67 213 199 77 357 131 263 31 88 47 
190 11 272 352 102 65 184 312 27 85 80 161 53 
191 11 10 171 227 159 19 160 161 249 122 84 243 
192 11 310 86 137 344 194 113 207 61 258 134 336 
193 11 4 163 289 322 250 96 112 68 294 308 217 
194 11 61 134 86 207 344 186 192 310 324 226 137 
195 11 304 200 257 9 91 125 223 260 287 127 167 
196 11 248 155 168 57 311 247 71 335 273 133 141 
197 11 245 251 121 339 16 106 64 298 229 154 206 
198 11 69 175 129 93 188 138 325 32 72 205 315 
199 11 263 88 47 209 189 294 308 337 217 295 151 
200 11 257 304 87 346 127 167 195 260 287 120 166 
201 11 152 341 100 179 367 330 111 5 350 6 269 
202 11 116 185 136 240 172 320 141 302 284 305 117 
203 11 236 144 118 21 109 316 74 55 317 149 165 
204 11 283 183 206 106 121 212 91 286 334 125 195 
205 11 315 69 93 198 175 20 138 129 293 140 188 
206 11 283 121 106 204 212 197 183 245 286 33 334 
207 11 344 267 324 39 134 176 194 192 362 310 113 
208 11 3 327 43 299 301 84 122 235 249 349 8 
209 11 47 88 337 217 157 295 151 308 263 294 313 
210 11 7 27 353 18 312 85 184 65 190 253 146 
211 11 48 295 151 209 47 199 348 88 157 313 108 
212 11 286 334 38 91 125 89 68 9 223 250 33 
213 11 83 189 131 67 31 242 154 199 77 64 51 
214 11 63 225 107 99 22 44 331 128 252 361 94 
215 11 220 224 243 171 191 10 160 161 82 227 159 
216 11 150 277 94 44 49 60 361 128 329 261 254 
217 11 337 308 294 47 88 209 289 263 157 355 313 
218 11 354 297 235 325 122 84 256 19 363 208 81 
219 11 234 164 101 160 363 81 256 10 191 354 268 
220 11 224 243 171 215 82 161 352 191 227 80 190 
221 11 92 158 349 365 299 8 73 3 301 43 45 
222 11 292 246 306 340 236 203 21 269 74 13 358 
223 11 9 125 260 91 287 89 127 257 167 68 286 
224 11 220 243 171 215 161 82 352 191 227 80 190 
225 11 128 63 49 94 60 44 214 277 216 271 22 
226 11 41 324 134 278 238 194 207 46 176 186 39 
227 11 159 161 249 19 191 171 122 84 80 332 10 
228 11 180 148 40 124 15 58 265 318 150 26 119 
229 11 290 97 16 339 251 298 350 245 100 179 111 
230 11 90 307 56 303 103 366 14 135 177 342 353 
231 11 232 140 293 205 20 79 282 93 50 28 138 
232 11 231 140 293 205 20 28 315 93 79 282 138 
233 11 166 96 120 323 322 346 355 313 348 4 157 
234 11 101 219 363 256 81 160 354 10 164 28 218 
235 11 218 325 297 354 208 3 129 73 84 122 32 
236 11 203 109 144 292 55 37 246 222 30 118 123 
237 11 331 99 36 22 169 107 252 24 105 26 182 
238 11 46 242 364 41 226 278 154 134 324 186 64 
239 11 117 309 302 320 360 70 95 116 326 2 52 
240 11 172 136 71 202 185 141 178 266 116 15 58 
241 11 114 112 262 51 250 38 294 308 193 263 33 
242 11 238 46 364 154 213 131 83 64 67 31 41 
243 11 224 171 220 161 191 227 80 215 352 10 159 
244 11 359 280 11 279 50 12 153 45 168 138 305 
245 11 251 339 16 197 229 298 106 121 290 97 25 
246 11 292 222 236 306 203 340 37 109 21 144 74 
247 11 182 273 105 57 311 169 71 133 196 248 178 
248 11 196 155 168 57 335 133 247 311 273 182 71 
249 11 84 122 159 19 227 332 208 297 327 43 80 
250 11 38 68 163 193 112 241 114 4 89 262 289 
251 11 339 16 245 229 298 290 197 97 25 350 179 
252 11 361 22 36 150 44 228 180 216 148 124 58 
253 11 34 210 190 98 82 7 27 272 352 275 102 
254 11 261 329 345 265 285 124 119 70 95 216 2 
255 11 130 139 108 187 321 48 347 348 29 211 42 
256 11 363 81 354 218 101 297 234 235 315 19 160 
257 11 127 260 287 167 223 9 200 125 120 346 304 
258 11 310 86 192 137 61 194 344 113 186 207 336 
259 11 76 351 6 173 5 278 23 176 39 362 126 
260 11 287 127 167 223 257 9 89 125 91 68 120 
261 11 254 265 124 329 119 345 95 285 2 318 150 
262 11 51 114 241 112 33 38 250 263 294 308 31 
263 11 88 294 308 47 217 337 209 199 112 289 157 
264 11 333 345 285 329 254 271 70 261 35 54 277 
265 11 124 119 318 40 148 261 2 15 180 228 95 
266 11 178 26 58 71 240 15 311 148 273 40 172 
267 11 39 176 362 207 165 328 344 317 316 324 113 
268 11 28 20 314 101 234 232 315 231 205 256 363 
269 11 367 358 21 74 330 152 201 13 5 340 115 
270 11 111 350 330 143 341 100 13 162 97 147 201 
271 11 291 333 264 60 345 49 277 94 329 128 35 
272 11 102 190 352 65 184 312 85 80 27 53 146 
273 11 182 311 247 57 105 71 178 266 26 169 172 
274 11 24 319 59 237 331 99 107 169 258 105 132 
275 11 98 281 34 210 230 253 7 353 27 18 303 
276 11 338 291 271 225 128 49 60 94 277 35 63 
277 11 60 94 49 216 128 329 44 150 345 254 261 
278 11 41 226 23 259 351 46 324 173 364 238 6 
279 11 305 153 244 280 75 284 141 52 342 116 202 
280 11 244 359 153 168 279 50 155 284 11 141 305 
281 11 98 275 34 253 210 7 230 27 353 190 18 
282 11 79 335 174 231 140 132 232 133 50 168 293 
283 11 206 204 121 183 212 106 286 334 91 33 125 
284 11 141 153 172 305 202 240 71 136 116 185 280 
285 11 70 254 345 261 329 264 95 54 309 239 326 
286 11 334 212 89 91 125 68 38 9 223 250 260 
287 11 127 260 167 257 223 9 89 125 68 120 91 
288 11 42 321 255 187 356 29 130 323 108 296 139 
289 11 4 355 217 322 193 337 96 308 294 157 313 
290 11 97 229 350 100 298 111 179 16 339 251 341 
291 11 271 338 35 276 333 264 66 345 60 49 94 
292 11 246 222 236 203 306 340 37 109 144 21 74 
293 11 140 231 11 138 93 232 50 205 359 175 79 
294 11 308 217 337 263 88 47 289 209 112 4 355 
295 11 151 209 47 157 313 88 337 211 217 348 355 
296 11 87 356 323 166 346 120 200 233 42 257 167 
297 11 354 218 19 122 84 235 249 81 159 208 363 
298 11 229 251 290 25 339 16 97 179 245 23 100 
299 11 43 3 301 349 327 8 208 221 365 92 145 
300 11 162 143 147 106 16 339 97 245 270 229 350 
301 11 43 327 8 299 349 145 3 365 208 104 221 
302 11 320 309 117 116 95 185 2 239 202 119 136 
303 11 14 90 366 342 110 103 142 156 181 75 353 
304 11 195 200 257 9 125 223 91 260 287 127 167 
305 11 153 284 202 116 141 320 117 279 185 302 172 
306 11 340 222 269 13 21 74 292 358 367 246 330 
307 11 56 135 177 103 90 230 17 366 303 14 54 
308 11 294 217 337 88 263 47 289 209 112 4 355 
309 11 302 117 95 320 239 2 116 185 119 70 202 
310 11 192 86 137 344 194 258 61 207 113 186 134 
311 11 57 273 71 247 182 105 178 266 172 26 196 
312 11 85 184 27 65 146 18 53 102 104 343 272 
313 11 157 355 151 209 337 217 289 295 47 96 322 
314 11 347 268 29 28 170 20 139 255 232 130 48 
315 11 205 69 198 20 175 93 129 325 188 138 32 
316 11 317 165 118 328 149 362 126 115 74 267 39 
317 11 316 165 118 328 149 362 126 115 267 74 39 
318 11 40 15 119 2 124 265 148 95 180 58 228 
319 11 274 24 107 99 331 237 59 214 30 22 169 
320 11 302 116 117 309 185 239 202 95 2 136 119 
321 11 187 42 108 130 323 348 255 139 233 166 296 
322 11 96 4 289 355 193 163 313 157 217 337 308 
323 11 166 233 296 346 87 120 42 356 321 187 96 
324 11 134 226 207 41 39 176 194 344 267 278 259 
325 11 129 32 72 188 235 78 198 69 175 73 218 
326 11 54 360 52 239 70 17 117 309 285 302 320 
327 11 43 301 299 3 208 8 349 145 332 365 221 
328 11 362 165 126 317 316 115 149 176 39 267 118 
329 11 345 254 261 277 60 216 285 49 94 265 150 
330 11 341 201 111 13 270 367 100 350 269 152 179 
331 11 99 237 107 22 36 252 24 361 169 44 214 
332 11 80 327 249 43 301 84 145 122 159 208 8 
333 11 264 345 35 271 285 329 254 70 54 261 291 
334 11 286 212 89 68 38 91 125 250 9 223 163 
335 11 79 155 248 168 133 282 196 132 50 57 174 
336 11 113 137 123 118 165 192 316 344 267 317 144 
337 11 217 47 88 308 209 294 157 289 263 355 313 
338 11 276 291 271 35 225 333 66 264 60 49 128 
339 11 16 251 229 245 298 97 290 197 350 106 25 
340 11 306 13 269 222 21 330 367 358 74 201 152 
341 11 100 111 201 179 330 350 152 367 290 270 97 
342 11 14 75 366 303 142 110 181 103 90 52 279 
343 11 146 104 18 53 365 156 85 312 8 145 349 
344 11 207 192 194 267 137 310 113 39 134 176 324 
345 11 329 254 285 264 261 277 60 333 49 70 94 
346 11 120 166 167 127 257 233 287 87 200 296 260 
347 11 29 314 255 139 130 108 48 268 187 321 211 
348 11 151 295 313 157 108 355 187 233 209 211 47 
349 11 8 365 299 301 43 145 221 327 92 3 158 
350 11 111 100 97 341 290 270 179 229 330 201 152 
351 11 173 6 23 76 259 25 5 278 152 179 201 
352 11 190 272 102 80 161 65 184 332 312 243 85 
353 11 18 7 156 27 110 343 85 146 312 210 53 
354 11 218 297 235 81 363 19 256 122 84 249 208 
355 11 313 157 289 96 322 4 217 337 209 47 308 
356 11 296 87 323 42 166 200 346 120 233 257 167 
357 11 77 67 189 83 199 211 48 170 213 295 151 
358 11 74 21 115 149 126 269 367 5 152 76 328 
359 11 11 50 244 280 293 138 12 168 93 140 79 
360 11 326 52 54 239 117 70 309 302 320 95 116 
361 11 150 252 44 216 22 228 180 36 124 148 277 
362 11 328 176 39 267 165 317 126 316 115 259 149 
363 11 256 81 354 218 101 297 234 19 160 235 10 
364 11 46 154 238 242 64 278 41 23 131 226 25 
365 11 349 8 104 145 221 301 92 299 43 53 158 
366 11 103 90 342 14 303 75 56 52 17 177 142 
367 11 152 269 201 358 5 330 341 179 100 76 21 
DEPOT_SECTION
   1
   -1
EOF
