NAME :  X-n327-kX-w32-c7.cctp
COMMENT : 	Adapted by Maziero, Usberti and Cavellucci from the Uchoa, Pecin, Pessoa, Poggi, Subramanian, and Vidal (2013)
TYPE :  CCTP
DIMENSION :    182
EDGE_WEIGHT_TYPE : 	EUC_2D	
CAPACITY : 	128
VERTICES_WITHIN_COVERAGE :  7
VERTICES_WITH_DEMAND : 	32
NODE_COORD_SECTION
1 236 951
2 735 289
3 841 735
4 846 821
5 907 810
6 55 136
7 372 422
8 437 584
9 509 822
10 57 519
11 563 333
12 750 8
13 644 692
14 123 787
15 865 618
16 833 453
17 736 643
18 90 930
19 804 192
20 435 164
21 540 911
22 747 80
23 486 239
24 511 784
25 639 247
26 337 11
27 95 706
28 719 839
29 943 421
30 55 633
31 396 807
32 916 252
33 191 716
34 666 833
35 427 307
36 4 89
37 594 197
38 910 398
39 492 214
40 974 107
41 914 556
42 384 827
43 390 873
44 70 232
45 418 29
46 128 721
47 211 129
48 910 489
49 879 676
50 359 770
51 95 631
52 920 56
53 577 407
54 178 769
55 882 228
56 759 814
57 33 412
58 423 135
59 194 121
60 970 723
61 6 206
62 782 300
63 107 786
64 889 855
65 522 848
66 653 78
67 809 404
68 620 655
69 439 605
70 990 874
71 46 236
72 980 500
73 146 430
74 795 241
75 714 554
76 89 207
77 144 648
78 482 843
79 396 409
80 799 30
81 72 916
82 917 12
83 156 769
84 86 666
85 494 309
86 528 311
87 697 21
88 675 228
89 752 812
90 180 120
91 348 861
92 397 753
93 311 203
94 177 491
95 280 408
96 470 132
97 386 644
98 975 360
99 397 598
100 658 175
101 470 227
102 157 4
103 876 714
104 780 25
105 394 658
106 697 278
107 879 723
108 522 896
109 790 311
110 761 602
111 983 317
112 933 461
113 10 773
114 926 186
115 508 847
116 103 931
117 753 305
118 109 937
119 632 674
120 408 367
121 530 770
122 924 692
123 428 765
124 358 485
125 443 295
126 66 938
127 495 763
128 36 884
129 74 958
130 719 301
131 698 823
132 816 412
133 292 364
134 565 958
135 429 532
136 79 947
137 559 938
138 135 944
139 133 940
140 531 327
141 656 685
142 552 995
143 689 723
144 615 185
145 461 850
146 447 815
147 643 652
148 592 381
149 749 816
150 705 802
151 858 374
152 107 882
153 587 702
154 520 846
155 367 393
156 457 261
157 613 339
158 670 272
159 720 840
160 81 862
161 443 557
162 365 855
163 524 758
164 391 446
165 554 866
166 464 857
167 547 966
168 721 823
169 415 525
170 632 720
171 481 524
172 603 286
173 774 753
174 527 935
175 846 221
176 732 271
177 564 787
178 310 420
179 406 463
180 880 364
181 559 849
182 397 449
DEMAND_SECTION
2 6
3 10
4 8
5 5
6 6
7 9
8 8
9 6
10 7
11 10
12 8
13 6
14 10
15 6
16 7
17 6
18 9
19 8
20 10
21 10
22 9
23 9
24 9
25 7
26 7
27 8
28 7
29 5
30 5
31 7
32 9
33 6
COVERAGE_SECTION
2 6 176 130 117 106 62 109 
3 7 107 103 173 49 4 122 5 
4 7 64 5 3 56 89 149 173 
5 7 64 4 107 3 103 70 60 
6 6 36 76 61 44 71 90 
7 7 79 155 164 182 179 178 124 
8 6 69 161 99 135 169 171 
9 7 115 154 65 78 24 121 145 
10 7 57 30 51 94 73 84 77 
11 6 140 86 157 148 172 85 
12 5 104 80 87 22 66 
13 6 141 119 170 147 68 143 
14 6 63 83 54 46 27 160 
15 7 49 41 122 103 110 107 3 
16 6 132 67 151 48 38 112 
17 6 110 141 75 143 147 13 
18 7 116 118 136 81 126 129 139 
19 6 74 175 55 176 62 2 
20 7 58 96 101 39 23 156 93 
21 7 108 174 137 165 134 167 181 
22 6 104 12 80 87 66 19 
23 7 101 39 156 85 125 86 35 
24 7 121 127 163 9 177 115 154 
25 7 158 88 172 106 144 37 100 
26 7 45 58 47 59 96 102 20 
27 7 46 84 51 77 63 30 14 
28 7 159 168 131 149 150 89 56 
29 7 38 112 98 48 180 72 151 
30 7 51 84 27 77 10 46 113 
31 7 42 50 146 123 92 162 43 
32 6 55 114 175 111 180 74 
33 7 54 46 83 77 27 14 63 
34 4 131 150 28 159 
35 6 125 156 120 85 23 101 
36 6 6 61 76 71 44 102 
37 5 144 25 100 88 172 
38 7 29 180 151 112 98 48 16 
39 7 23 101 156 20 96 85 125 
40 7 52 114 82 55 32 175 19 
41 7 48 15 72 112 49 16 122 
42 7 31 162 43 91 50 146 92 
43 5 162 91 42 31 145 
44 4 71 76 61 6 
45 6 26 58 96 20 39 93 
46 7 27 83 33 14 63 54 84 
47 7 59 90 93 102 76 6 26 
48 7 112 41 72 29 16 38 132 
49 7 103 107 122 15 3 60 41 
50 6 92 31 42 123 162 91 
51 7 84 30 77 27 46 10 33 
52 7 82 40 80 114 104 22 55 
53 3 148 11 157 
54 5 83 33 14 46 63 
55 6 175 32 114 19 74 62 
56 6 89 149 168 28 159 150 
57 3 10 73 94 
58 7 20 96 101 39 45 23 93 
59 7 90 47 102 76 6 93 44 
60 7 122 107 103 49 5 3 15 
61 5 71 44 76 6 36 
62 6 109 117 2 176 74 130 
63 7 14 83 46 54 160 27 152 
64 6 5 4 70 3 107 56 
65 7 154 115 9 165 181 78 108 
66 4 87 22 100 144 
67 4 132 16 151 180 
68 6 119 147 13 141 153 170 
69 6 8 99 161 97 105 135 
70 6 64 5 60 4 107 122 
71 4 44 61 76 6 
72 7 112 48 29 41 38 98 16 
73 3 94 57 10 
74 6 19 175 62 109 176 2 
75 3 110 17 147 
76 5 44 71 6 61 90 
77 7 51 84 46 27 33 30 83 
78 6 145 166 115 9 154 65 
79 6 7 155 164 182 120 179 
80 7 104 12 22 87 82 52 66 
81 6 18 126 136 116 129 118 
82 7 52 40 80 104 12 114 22 
83 5 54 14 63 46 33 
84 7 51 27 30 77 46 33 63 
85 6 86 140 125 156 35 23 
86 6 140 85 11 172 23 125 
87 5 12 66 22 104 80 
88 6 25 158 106 100 176 144 
89 6 149 56 168 28 159 150 
90 7 59 47 102 6 76 93 44 
91 4 162 43 42 31 
92 6 123 50 31 42 146 105 
93 6 47 20 58 59 90 35 
94 2 73 10 
95 5 178 133 155 7 124 
96 7 20 58 39 101 23 45 156 
97 4 105 99 69 8 
98 7 111 29 38 180 112 151 32 
99 4 8 69 97 105 
100 4 144 88 37 25 
101 7 23 39 156 20 125 85 35 
102 7 90 59 47 6 36 26 76 
103 7 107 49 3 122 60 15 5 
104 7 80 12 22 87 66 82 52 
105 4 97 99 69 8 
106 7 158 130 176 2 88 117 25 
107 7 103 3 49 122 5 60 4 
108 6 21 174 165 65 154 115 
109 5 62 117 2 74 176 
110 6 17 75 15 147 141 49 
111 7 98 32 38 29 180 55 151 
112 7 48 29 72 38 41 16 98 
113 5 63 27 14 128 160 
114 6 55 32 175 40 19 52 
115 6 154 65 9 78 166 145 
116 6 118 18 136 139 81 138 
117 5 2 62 130 109 176 
118 6 116 18 139 138 136 129 
119 6 13 68 147 141 170 153 
120 4 79 155 35 7 
121 5 163 24 127 177 9 
122 7 49 103 60 107 3 15 5 
123 7 92 31 146 127 50 42 24 
124 4 164 179 182 7 
125 6 35 156 85 23 101 120 
126 5 136 129 81 18 116 
127 7 24 163 121 9 123 146 177 
128 4 81 160 126 18 
129 3 136 126 18 
130 5 2 106 176 117 158 
131 5 150 168 28 159 34 
132 4 67 16 151 180 
133 4 95 178 155 7 
134 5 167 137 142 174 21 
135 4 169 161 8 171 
136 6 129 126 18 116 81 118 
137 6 134 167 174 21 108 142 
138 4 139 118 116 18 
139 4 138 118 116 18 
140 6 86 11 85 148 157 172 
141 6 13 119 147 170 68 143 
142 5 167 134 137 174 21 
143 2 141 13 
144 4 37 100 25 88 
145 6 166 78 146 115 9 154 
146 7 145 78 166 31 123 9 42 
147 7 68 119 141 13 170 153 143 
148 3 53 157 11 
149 6 89 56 168 28 159 150 
150 3 131 168 28 
151 5 180 38 67 132 16 
152 5 160 81 116 18 118 
153 4 170 119 68 13 
154 7 65 115 9 78 165 181 108 
155 6 7 79 120 164 178 182 
156 7 23 101 125 35 39 85 86 
157 3 148 11 172 
158 7 106 25 88 130 176 2 172 
159 7 28 168 131 149 150 89 56 
160 5 152 128 81 18 116 
161 6 8 135 169 69 171 99 
162 4 91 43 42 31 
163 5 121 24 127 177 9 
164 5 182 179 7 79 124 
165 5 181 65 154 108 21 
166 6 145 78 115 146 9 154 
167 6 134 142 137 174 21 108 
168 7 28 159 131 150 149 89 56 
169 3 135 161 8 
170 5 13 141 119 153 143 
171 4 161 135 169 8 
172 7 25 157 11 158 86 140 37 
173 4 56 89 149 3 
174 5 21 137 167 108 134 
175 6 55 19 74 32 114 62 
176 7 2 130 106 117 62 158 74 
177 3 121 163 24 
178 6 95 133 7 155 124 164 
179 3 182 164 7 
180 6 151 38 132 67 29 98 
181 5 165 65 154 115 9 
182 4 164 179 7 79 
DEPOT_SECTION
   1
   -1
EOF
