NAME :  X-n322-kX-w32-c11.cctp
COMMENT : 	Adapted by Maziero, Usberti and Cavellucci from the Uchoa, Pecin, Pessoa, Poggi, Subramanian, and Vidal (2013)
TYPE :  CCTP
DIMENSION :    259
EDGE_WEIGHT_TYPE : 	EUC_2D	
CAPACITY : 	868
VERTICES_WITHIN_COVERAGE :  11
VERTICES_WITH_DEMAND : 	32
NODE_COORD_SECTION
1 500 500
2 737 450
3 235 789
4 340 234
5 346 320
6 406 309
7 556 636
8 872 923
9 937 83
10 9 321
11 558 18
12 63 833
13 250 509
14 143 192
15 624 286
16 364 117
17 332 953
18 235 142
19 590 430
20 303 692
21 936 665
22 39 410
23 247 581
24 986 739
25 11 283
26 138 747
27 837 511
28 596 206
29 218 339
30 443 922
31 555 133
32 896 306
33 415 752
34 51 0
35 166 333
36 951 932
37 928 807
38 505 590
39 236 284
40 115 882
41 238 887
42 94 697
43 409 899
44 993 715
45 473 607
46 414 55
47 884 327
48 651 407
49 891 372
50 919 529
51 629 220
52 720 382
53 745 451
54 409 990
55 825 781
56 966 938
57 378 175
58 859 269
59 596 131
60 77 908
61 679 268
62 382 728
63 885 15
64 258 313
65 533 912
66 924 636
67 469 223
68 892 168
69 281 800
70 607 285
71 388 354
72 22 348
73 218 236
74 308 904
75 119 154
76 939 105
77 489 374
78 480 1000
79 124 883
80 295 741
81 213 53
82 701 446
83 644 147
84 133 377
85 983 343
86 262 450
87 255 422
88 896 910
89 298 531
90 573 416
91 870 50
92 656 268
93 587 165
94 995 809
95 266 878
96 27 812
97 196 522
98 45 164
99 174 729
100 252 311
101 594 478
102 848 361
103 897 253
104 729 354
105 255 410
106 811 703
107 781 909
108 971 632
109 887 144
110 475 860
111 509 336
112 897 98
113 157 676
114 971 727
115 972 381
116 658 504
117 375 214
118 280 526
119 895 158
120 196 779
121 379 223
122 692 470
123 22 395
124 289 811
125 98 365
126 111 426
127 261 101
128 483 818
129 820 480
130 433 961
131 656 421
132 511 273
133 334 794
134 426 686
135 870 112
136 941 978
137 744 498
138 7 346
139 166 244
140 604 430
141 522 306
142 912 406
143 101 383
144 162 515
145 784 983
146 833 529
147 646 367
148 922 294
149 513 535
150 373 331
151 471 694
152 39 149
153 813 538
154 153 115
155 244 505
156 716 286
157 409 228
158 652 239
159 30 924
160 877 307
161 336 615
162 856 584
163 984 221
164 641 671
165 19 309
166 661 125
167 614 194
168 253 864
169 106 841
170 187 687
171 5 289
172 657 83
173 658 58
174 419 839
175 519 347
176 666 486
177 288 276
178 562 646
179 75 785
180 309 966
181 121 698
182 286 258
183 376 539
184 824 834
185 650 350
186 977 647
187 268 698
188 973 145
189 569 655
190 427 869
191 11 869
192 377 793
193 102 444
194 979 386
195 69 483
196 294 395
197 37 705
198 126 782
199 490 30
200 348 771
201 808 469
202 161 793
203 859 469
204 148 763
205 403 723
206 978 760
207 214 132
208 467 387
209 292 262
210 238 846
211 853 27
212 855 506
213 213 742
214 203 364
215 183 3
216 501 152
217 649 492
218 904 31
219 997 741
220 527 299
221 26 402
222 543 506
223 902 548
224 47 419
225 125 226
226 206 608
227 811 668
228 643 265
229 189 736
230 79 287
231 382 630
232 225 604
233 412 843
234 924 756
235 474 356
236 445 101
237 579 994
238 652 658
239 889 206
240 464 243
241 420 998
242 798 490
243 27 680
244 118 804
245 489 91
246 367 977
247 501 137
248 856 6
249 75 999
250 777 984
251 909 569
252 730 509
253 326 596
254 455 853
255 612 163
256 959 409
257 987 154
258 207 6
259 39 831
DEMAND_SECTION
2 61
3 71
4 83
5 85
6 85
7 99
8 63
9 64
10 50
11 56
12 91
13 87
14 75
15 70
16 57
17 86
18 50
19 89
20 75
21 72
22 83
23 74
24 76
25 53
26 93
27 97
28 69
29 61
30 76
31 93
32 55
33 92
COVERAGE_SECTION
2 11 53 82 122 137 252 52 201 242 176 131 129 
3 10 120 69 213 210 124 229 202 80 168 99 
4 11 117 121 209 182 177 157 57 5 6 150 64 
5 11 150 71 6 177 209 4 182 64 196 100 121 
6 11 150 71 5 157 235 240 121 208 4 117 77 
7 5 178 189 38 45 164 
8 9 88 36 136 107 56 184 145 250 37 
9 11 76 112 218 188 135 91 109 63 119 257 68 
10 11 165 138 72 171 25 123 230 221 22 125 224 
11 11 199 245 173 31 172 59 247 236 216 46 166 
12 11 259 96 169 179 244 191 40 60 79 198 159 
13 9 155 118 89 97 86 23 87 144 232 
14 11 225 75 139 154 73 207 98 18 152 230 39 
15 10 70 228 92 158 61 51 185 147 28 156 
16 11 57 46 236 117 127 121 4 157 245 18 247 
17 11 180 246 74 54 43 241 95 130 30 41 168 
18 11 207 127 154 81 73 14 75 139 182 16 209 
19 11 140 90 101 48 131 147 217 222 176 116 185 
20 11 187 80 161 62 200 253 231 213 205 133 69 
21 11 66 186 108 114 44 24 234 219 251 206 162 
22 11 224 221 123 72 143 138 193 125 126 195 10 
23 9 232 226 118 89 13 155 97 253 161 
24 11 219 114 206 44 234 94 21 37 186 108 66 
25 11 171 165 10 138 72 230 123 125 221 98 225 
26 11 204 198 99 202 181 229 244 120 42 113 179 
27 11 146 212 129 153 242 203 201 162 223 50 251 
28 11 167 51 93 255 158 59 228 83 70 31 15 
29 10 214 100 64 35 39 105 87 84 177 196 
30 11 130 43 190 110 254 54 241 233 78 174 65 
31 11 59 93 247 216 255 245 28 167 83 166 51 
32 11 160 47 148 58 103 49 102 85 239 142 115 
33 10 205 62 192 134 200 151 174 133 233 128 
34 11 215 152 154 258 98 75 81 207 14 18 127 
35 10 214 29 84 125 143 39 100 139 64 230 
36 11 56 136 88 8 37 94 184 107 206 145 234 
37 11 234 94 206 24 114 219 55 184 88 44 36 
38 7 45 149 7 178 189 222 151 
39 11 100 64 73 177 182 29 209 139 35 214 4 
40 7 79 169 60 12 244 259 159 
41 7 168 95 210 74 124 69 3 
42 7 181 197 113 26 243 204 99 
43 11 190 30 233 174 254 130 110 246 54 17 241 
44 11 24 114 219 206 186 21 234 108 94 66 37 
45 7 38 149 151 7 134 231 178 
46 11 236 16 199 245 247 57 216 11 127 31 117 
47 11 160 32 49 102 148 58 103 142 85 115 256 
48 10 131 147 140 185 82 19 52 122 90 176 
49 10 142 102 47 32 160 256 115 148 194 85 
50 10 223 251 212 27 162 203 146 153 66 129 
51 10 158 167 28 228 92 255 15 61 70 93 
52 9 104 82 2 48 53 131 147 185 122 
53 11 2 82 137 122 252 201 242 52 129 176 131 
54 11 241 130 246 78 30 17 43 180 190 74 254 
55 8 184 106 234 37 227 107 88 8 
56 11 36 136 88 8 94 37 184 206 107 145 234 
57 11 117 121 16 157 4 236 67 240 209 182 46 
58 9 103 160 32 47 148 239 102 68 49 
59 11 93 255 31 83 166 167 28 172 51 247 173 
60 8 40 159 79 169 12 191 259 249 
61 7 92 228 158 156 15 51 70 
62 11 205 33 200 134 192 133 20 80 151 231 174 
63 9 218 248 211 91 112 9 135 76 109 
64 11 100 39 29 177 209 182 214 73 5 196 35 
65 7 110 30 237 254 78 128 130 
66 11 21 108 186 251 162 223 114 44 50 227 24 
67 11 240 157 132 216 121 247 117 220 141 57 6 
68 10 119 109 239 135 112 76 188 103 9 257 
69 11 124 3 133 80 210 168 200 95 120 213 192 
70 11 15 228 92 158 51 61 185 28 220 141 147 
71 11 150 6 5 208 235 77 196 111 177 157 4 
72 11 138 10 165 123 221 171 22 25 224 125 230 
73 11 39 139 182 209 177 100 14 64 225 18 29 
74 11 95 17 180 168 41 210 246 124 43 69 133 
75 11 14 154 225 98 152 207 139 18 73 81 230 
76 11 9 112 188 109 119 135 257 68 218 91 63 
77 11 235 208 175 111 141 220 90 71 132 6 19 
78 10 241 130 54 30 237 65 246 43 110 190 
79 7 40 169 60 12 244 202 259 
80 11 20 187 69 200 133 124 3 213 62 192 120 
81 11 258 215 127 207 154 18 75 14 16 34 73 
82 11 122 2 53 131 176 48 52 137 217 252 116 
83 10 166 255 59 167 93 172 51 28 31 173 
84 8 143 125 126 35 214 193 29 224 
85 10 115 194 256 148 32 142 49 47 160 163 
86 8 87 105 155 13 196 118 89 97 
87 8 105 86 196 214 155 13 29 118 
88 11 8 36 56 136 184 37 107 145 250 94 55 
89 11 118 13 155 23 253 183 86 161 97 232 87 
90 11 19 140 101 48 131 147 175 77 222 185 111 
91 9 211 63 218 248 112 135 9 76 109 
92 8 228 61 158 15 70 51 156 185 
93 11 255 59 167 28 31 83 51 166 216 247 158 
94 11 206 37 219 24 114 234 44 36 56 88 21 
95 8 168 41 210 74 124 69 3 180 
96 11 259 12 179 191 169 244 198 197 60 40 159 
97 6 144 155 13 23 118 226 
98 11 152 75 225 14 154 25 230 171 139 165 10 
99 10 229 26 213 204 170 120 113 181 202 198 
100 11 64 39 29 177 182 209 214 73 35 5 196 
101 11 19 140 217 222 90 116 176 131 48 122 149 
102 11 49 47 160 32 142 58 148 203 201 103 104 
103 10 58 148 239 32 160 47 68 163 119 109 
104 8 52 156 185 147 48 2 82 53 
105 8 87 86 196 214 29 155 64 13 
106 7 227 55 234 162 21 66 184 
107 6 145 250 184 8 88 55 
108 11 186 66 21 44 251 114 24 223 219 50 162 
109 10 119 68 135 112 239 76 9 188 91 257 
110 8 254 128 190 174 233 30 43 65 
111 11 175 141 235 220 77 132 208 90 240 6 70 
112 11 135 9 76 109 91 119 218 68 63 211 188 
113 6 170 181 99 42 229 26 
114 11 24 44 219 206 234 21 186 94 37 108 66 
115 10 194 256 85 142 49 148 47 32 160 102 
116 11 217 176 122 101 82 252 131 137 140 2 48 
117 11 121 157 57 4 67 240 209 16 182 6 177 
118 11 89 13 155 23 86 97 253 232 183 161 87 
119 10 68 109 239 135 112 76 188 9 257 103 
120 10 202 3 213 229 204 99 26 198 210 244 
121 11 117 157 4 57 240 6 67 209 182 5 177 
122 11 82 176 116 217 2 252 53 137 131 48 52 
123 11 221 22 224 72 138 10 143 125 165 126 193 
124 11 69 133 3 210 168 80 95 200 192 41 74 
125 11 143 84 126 22 224 35 72 193 230 221 123 
126 7 193 143 84 125 224 195 22 
127 11 18 207 81 16 154 258 215 57 73 14 75 
128 6 110 254 174 233 190 33 
129 11 201 242 27 203 212 146 153 137 53 2 252 
130 11 54 241 30 78 43 246 190 17 110 254 65 
131 11 48 82 140 147 122 176 19 185 217 52 90 
132 11 220 141 240 111 67 175 235 70 77 28 6 
133 11 200 192 124 69 80 62 33 233 174 3 205 
134 8 205 151 62 33 231 45 161 200 
135 10 112 109 119 68 91 76 9 211 218 239 
136 10 36 56 88 8 145 250 37 107 94 184 
137 11 252 53 2 242 122 82 201 129 176 153 116 
138 11 72 10 165 123 171 221 25 22 224 125 230 
139 11 225 73 14 39 35 230 75 29 100 64 182 
140 11 19 90 101 48 131 147 217 176 116 185 122 
141 11 220 111 132 175 235 77 240 70 67 208 15 
142 10 49 256 115 194 102 203 47 85 32 160 
143 10 125 84 126 193 224 22 221 123 35 72 
144 3 97 155 13 
145 6 250 107 8 88 184 136 
146 11 27 153 212 129 242 162 201 203 223 50 251 
147 10 185 48 131 52 140 15 19 104 90 70 
148 11 32 160 103 47 58 85 49 239 163 102 115 
149 7 222 38 45 101 7 178 19 
150 11 71 5 6 177 4 196 235 209 121 157 208 
151 5 134 205 33 45 62 
152 11 98 75 14 225 154 25 171 230 34 139 165 
153 11 146 27 242 212 129 162 201 137 203 252 223 
154 11 75 207 14 18 81 127 225 215 98 152 258 
155 9 13 118 97 86 89 23 144 87 105 
156 7 61 92 104 228 158 15 185 
157 11 121 117 240 67 57 4 6 150 132 5 216 
158 10 228 92 51 61 15 167 70 28 156 255 
159 9 60 191 249 259 40 12 79 96 169 
160 10 32 47 58 148 103 102 49 239 142 85 
161 9 253 231 20 183 89 23 118 187 232 
162 11 251 223 146 153 27 212 50 66 227 129 242 
163 10 257 188 103 148 239 68 119 32 85 76 
164 4 238 189 178 7 
165 11 10 171 25 72 138 230 123 221 125 22 143 
166 10 83 172 255 59 173 167 93 51 28 31 
167 10 28 51 255 93 83 158 59 228 166 31 
168 7 95 210 41 124 74 69 3 
169 9 244 40 12 79 198 179 259 60 202 
170 9 113 99 229 213 181 26 226 187 204 
171 11 25 165 10 138 72 230 123 221 125 22 98 
172 8 173 166 83 59 255 93 31 11 
173 7 172 166 83 59 11 255 31 
174 10 233 190 254 110 43 192 128 30 33 133 
175 11 111 77 141 235 220 208 132 90 70 19 240 
176 11 217 116 122 82 131 252 101 137 2 48 140 
177 11 209 182 64 100 39 4 5 73 29 150 121 
178 4 189 7 38 164 
179 11 244 12 198 96 259 169 26 204 202 197 42 
180 11 17 246 74 95 54 41 168 241 43 130 210 
181 7 42 113 26 99 170 204 229 
182 11 209 177 39 4 64 100 73 5 117 121 29 
183 7 253 89 161 231 118 45 13 
184 8 55 107 8 88 37 234 106 145 
185 10 147 48 15 131 52 70 104 92 228 61 
186 11 108 21 66 44 114 24 219 251 206 234 223 
187 11 20 80 213 170 229 3 99 69 232 161 120 
188 10 257 76 9 163 119 68 109 112 239 135 
189 4 178 7 164 238 
190 10 233 174 254 43 110 30 128 192 130 65 
191 11 259 159 96 12 60 169 40 179 79 244 198 
192 11 200 133 33 233 174 62 205 124 190 69 80 
193 7 126 195 224 143 22 84 125 
194 10 115 256 85 142 49 148 47 32 160 102 
195 5 193 224 126 22 221 
196 10 105 87 86 64 5 29 100 214 150 71 
197 9 243 42 181 179 96 26 198 113 204 
198 11 244 204 26 202 179 169 120 99 229 12 181 
199 11 245 11 46 236 247 31 216 59 16 93 173 
200 11 133 192 62 80 33 124 69 205 20 233 174 
201 11 129 242 27 203 212 146 53 153 137 2 252 
202 10 204 198 120 244 26 229 99 169 213 3 
203 11 212 129 27 201 146 242 142 153 50 223 49 
204 11 26 198 202 99 229 120 244 213 181 179 42 
205 10 62 33 134 200 151 192 231 133 20 80 
206 11 24 219 114 44 94 234 37 21 186 108 66 
207 11 18 127 154 81 14 75 73 139 258 225 215 
208 11 77 235 111 175 71 141 6 220 150 90 132 
209 11 182 177 4 39 64 100 73 5 121 117 150 
210 8 168 41 95 3 124 69 120 74 
211 8 248 91 63 218 112 135 9 76 
212 11 27 146 203 129 153 242 201 223 50 162 251 
213 11 229 99 120 3 170 204 187 202 26 80 113 
214 8 29 35 105 84 100 64 87 39 
215 11 258 81 154 127 34 207 18 75 14 152 98 
216 11 247 31 245 236 67 93 59 240 28 255 157 
217 11 116 176 122 101 82 131 140 252 48 19 137 
218 10 63 91 211 248 9 112 76 135 109 119 
219 11 24 44 206 114 94 234 37 186 21 108 66 
220 11 141 132 111 175 235 70 77 240 67 15 208 
221 11 123 22 224 72 138 143 125 10 193 126 195 
222 10 149 101 19 38 90 140 217 116 45 176 
223 11 251 50 162 212 146 27 153 203 66 129 108 
224 11 22 221 123 193 126 143 195 125 72 138 84 
225 11 14 139 75 230 73 98 154 35 152 39 25 
226 5 232 23 170 113 97 
227 7 106 162 55 66 21 153 251 
228 10 92 15 158 61 70 51 28 156 167 185 
229 11 99 213 120 170 204 26 202 113 3 181 198 
230 11 165 25 171 225 10 125 72 138 139 35 143 
231 8 161 253 134 183 45 205 62 20 
232 7 226 23 97 170 118 13 113 
233 10 174 190 254 43 192 110 128 30 33 133 
234 11 37 206 114 24 219 44 94 21 55 66 186 
235 11 77 208 111 175 141 220 6 71 132 150 240 
236 11 245 46 247 216 16 199 57 31 67 157 117 
237 5 65 78 130 30 241 
238 4 164 189 178 7 
239 10 68 103 119 109 58 148 135 163 32 160 
240 11 67 132 157 220 141 121 6 117 216 111 57 
241 11 54 130 246 78 30 17 43 180 190 65 74 
242 11 201 129 27 153 146 137 212 203 53 252 2 
243 7 197 42 181 179 26 113 96 
244 11 198 169 202 179 204 26 12 40 79 120 259 
245 11 236 247 199 216 31 46 11 59 93 16 67 
246 11 17 54 241 180 130 43 30 74 78 190 95 
247 11 216 245 31 236 93 67 59 199 240 255 28 
248 7 211 63 91 218 112 135 9 
249 8 159 60 40 79 191 169 12 259 
250 5 145 107 8 88 184 
251 11 223 50 162 66 212 146 108 27 21 153 186 
252 11 137 122 2 53 176 82 242 116 217 153 201 
253 8 161 231 89 183 23 118 20 232 
254 8 110 190 174 233 128 43 30 65 
255 10 93 167 59 83 28 51 166 31 158 172 
256 10 194 115 142 85 49 47 203 32 102 148 
257 10 188 163 76 9 119 68 109 112 239 135 
258 11 215 81 127 154 207 18 34 75 16 14 46 
259 11 96 12 191 179 169 244 60 40 159 79 198 
DEPOT_SECTION
   1
   -1
EOF
