NAME :  X-n384-kX-w38-c7.cctp
COMMENT : 	Adapted by Maziero, Usberti and Cavellucci from the Uchoa, Pecin, Pessoa, Poggi, Subramanian, and Vidal (2013)
TYPE :  CCTP
DIMENSION :    239
EDGE_WEIGHT_TYPE : 	EUC_2D	
CAPACITY : 	564
VERTICES_WITHIN_COVERAGE :  7
VERTICES_WITH_DEMAND : 	38
NODE_COORD_SECTION
1 51 570
2 691 985
3 66 119
4 502 415
5 434 289
6 427 584
7 342 576
8 790 87
9 312 475
10 908 531
11 840 566
12 863 232
13 284 833
14 515 175
15 9 243
16 768 209
17 777 582
18 84 508
19 380 523
20 255 267
21 544 961
22 408 661
23 57 588
24 278 44
25 168 722
26 726 406
27 223 385
28 495 70
29 560 632
30 235 655
31 643 127
32 765 267
33 459 976
34 585 962
35 154 796
36 650 444
37 931 52
38 377 19
39 178 633
40 667 164
41 208 651
42 503 680
43 223 251
44 671 94
45 218 351
46 375 220
47 367 567
48 75 520
49 14 737
50 224 725
51 36 300
52 817 531
53 31 283
54 209 574
55 490 395
56 659 121
57 410 207
58 761 450
59 106 150
60 516 144
61 554 127
62 944 75
63 54 5
64 563 410
65 786 533
66 581 696
67 148 875
68 483 983
69 449 343
70 219 600
71 374 487
72 279 200
73 479 705
74 273 519
75 776 395
76 341 275
77 593 973
78 782 314
79 573 478
80 42 198
81 557 630
82 161 755
83 434 60
84 990 161
85 571 611
86 262 680
87 253 246
88 563 416
89 579 962
90 215 439
91 248 65
92 811 175
93 169 359
94 641 926
95 625 52
96 629 8
97 486 394
98 83 462
99 123 534
100 634 528
101 702 299
102 86 172
103 8 583
104 495 538
105 3 14
106 201 666
107 300 323
108 551 167
109 412 90
110 813 64
111 90 595
112 180 817
113 493 953
114 735 602
115 468 639
116 776 107
117 204 781
118 165 858
119 536 950
120 47 421
121 766 64
122 54 707
123 793 257
124 517 964
125 389 503
126 923 563
127 734 599
128 749 248
129 333 17
130 84 713
131 776 428
132 371 465
133 357 613
134 507 187
135 526 595
136 17 545
137 513 146
138 70 513
139 880 478
140 755 201
141 135 799
142 352 279
143 60 465
144 288 813
145 569 157
146 634 665
147 743 336
148 870 16
149 267 623
150 445 653
151 68 548
152 912 106
153 600 71
154 245 644
155 555 400
156 549 230
157 243 724
158 657 925
159 355 48
160 951 488
161 318 318
162 917 3
163 295 453
164 73 482
165 69 29
166 178 1
167 381 457
168 266 918
169 56 123
170 146 606
171 846 275
172 903 582
173 703 553
174 297 364
175 332 591
176 283 487
177 718 490
178 449 997
179 926 605
180 604 188
181 963 544
182 762 412
183 180 267
184 276 708
185 255 875
186 699 106
187 261 853
188 450 911
189 433 336
190 411 46
191 842 35
192 654 385
193 871 67
194 457 532
195 9 162
196 464 267
197 413 493
198 322 299
199 626 556
200 304 86
201 532 473
202 60 255
203 240 267
204 174 678
205 929 577
206 369 972
207 367 634
208 585 668
209 45 722
210 207 394
211 340 665
212 142 543
213 293 833
214 54 58
215 481 595
216 44 507
217 410 444
218 690 935
219 879 195
220 239 813
221 289 397
222 206 571
223 532 174
224 610 399
225 184 52
226 719 98
227 277 497
228 85 267
229 818 67
230 54 568
231 545 251
232 484 37
233 739 237
234 17 42
235 778 328
236 33 255
237 237 37
238 335 531
239 113 544
DEMAND_SECTION
2 83
3 65
4 92
5 73
6 94
7 100
8 99
9 83
10 84
11 81
12 65
13 69
14 84
15 67
16 53
17 70
18 93
19 69
20 78
21 75
22 56
23 99
24 88
25 61
26 65
27 90
28 74
29 85
30 59
31 76
32 79
33 99
34 98
35 80
36 71
37 71
38 93
39 69
COVERAGE_SECTION
2 6 218 158 94 77 34 89 
3 6 169 59 102 214 195 80 
4 6 55 97 155 64 88 201 
5 7 196 189 69 142 57 46 76 
6 7 215 194 47 115 150 133 19 
7 6 175 47 133 238 207 19 
8 7 116 110 121 229 226 191 193 
9 7 163 176 227 74 132 238 71 
10 7 126 172 205 181 139 160 11 
11 6 52 65 17 172 10 126 
12 5 219 171 123 92 16 
13 5 213 144 187 220 185 
14 7 134 223 137 60 108 145 61 
15 7 236 53 202 80 51 228 195 
16 6 140 233 128 123 92 32 
17 6 127 114 65 11 52 173 
18 7 48 138 164 216 151 98 239 
19 7 125 71 197 47 238 132 7 
20 7 203 87 43 72 107 198 183 
21 7 119 124 89 34 77 113 68 
22 7 150 207 115 211 133 6 73 
23 7 230 111 151 103 136 48 239 
24 5 91 237 200 129 159 
25 7 82 204 50 106 117 35 157 
26 5 182 75 131 58 147 
27 6 210 45 90 93 221 174 
28 7 232 83 60 137 61 109 190 
29 7 81 85 208 135 66 42 146 
30 7 154 41 106 86 149 70 39 
31 7 56 44 40 186 153 180 95 
32 7 128 123 233 78 16 235 140 
33 7 178 68 113 124 188 119 21 
34 7 89 77 21 119 94 124 158 
35 7 141 112 82 117 118 25 67 
36 6 192 224 177 79 26 100 
37 7 62 162 152 193 148 191 229 
38 5 159 190 129 83 109 
39 7 41 106 170 204 70 30 54 
40 6 31 56 186 180 44 226 
41 7 106 30 39 154 204 70 86 
42 6 73 115 150 81 29 66 
43 5 203 87 20 183 72 
44 6 56 186 31 226 95 40 
45 5 27 210 93 174 221 
46 7 57 142 76 5 198 72 196 
47 7 7 175 19 133 238 6 207 
48 7 138 18 151 216 164 239 99 
49 6 209 122 130 141 82 35 
50 6 157 184 25 86 117 106 
51 5 53 236 202 228 15 
52 4 65 11 17 139 
53 6 51 236 202 15 228 80 
54 5 222 70 39 170 212 
55 5 97 4 155 69 64 
56 7 31 44 186 40 226 95 153 
57 7 46 196 5 142 76 134 14 
58 5 131 182 26 75 177 
59 4 102 3 169 80 
60 7 137 14 223 61 108 134 145 
61 7 145 108 60 137 223 14 153 
62 7 37 152 193 162 148 84 191 
63 6 165 105 234 214 3 169 
64 6 88 155 224 4 79 201 
65 5 52 17 11 177 127 
66 6 208 146 29 81 42 85 
67 4 118 112 141 35 
68 7 33 113 178 124 119 21 188 
69 5 189 5 97 55 196 
70 6 54 222 154 41 39 149 
71 7 125 132 167 19 197 217 238 
72 3 87 20 43 
73 4 42 150 115 22 
74 3 227 176 9 
75 3 182 131 26 
76 7 142 198 161 107 46 20 87 
77 7 34 89 21 119 94 124 158 
78 5 235 147 32 123 128 
79 6 201 88 64 100 155 36 
80 5 195 102 15 236 202 
81 7 29 85 135 208 66 42 215 
82 6 25 35 117 141 112 50 
83 5 190 109 232 28 38 
84 4 152 62 219 37 
85 6 29 81 135 208 199 146 
86 6 184 30 154 157 149 50 
87 6 20 203 43 72 183 198 
88 6 64 155 224 4 79 201 
89 6 34 77 21 119 124 94 
90 2 210 27 
91 4 237 24 200 225 
92 7 16 140 219 116 12 123 8 
93 3 45 210 27 
94 6 158 218 34 77 89 2 
95 5 153 96 44 31 56 
96 5 95 153 44 56 31 
97 6 55 4 69 155 64 189 
98 6 164 143 18 138 120 48 
99 6 239 212 18 48 138 151 
100 5 199 173 79 36 177 
101 5 147 128 32 233 78 
102 4 59 80 3 169 
103 7 136 230 23 151 111 216 48 
104 7 194 215 135 201 6 197 79 
105 6 234 63 214 165 169 3 
106 7 41 204 30 39 154 50 86 
107 6 161 198 174 76 142 20 
108 7 223 145 14 61 60 137 134 
109 4 83 190 159 38 
110 7 229 8 191 121 116 193 148 
111 7 23 230 151 239 170 99 212 
112 7 35 117 118 141 220 82 67 
113 7 124 68 33 119 21 188 178 
114 4 127 17 173 65 
115 7 150 215 42 22 73 6 135 
116 7 8 121 110 226 229 92 186 
117 6 112 220 82 35 50 25 
118 5 67 112 35 141 117 
119 7 21 124 113 89 34 77 68 
120 5 143 98 164 216 18 
121 6 8 116 110 229 226 186 
122 7 209 130 49 25 82 111 23 
123 7 32 128 16 171 78 233 140 
124 7 119 113 21 68 33 89 34 
125 7 19 71 197 132 167 238 217 
126 5 205 172 10 179 181 
127 4 114 17 173 65 
128 7 233 32 16 123 140 101 78 
129 5 159 38 24 200 190 
130 7 122 209 49 25 82 204 141 
131 4 182 58 75 26 
132 7 167 71 125 217 197 19 9 
133 7 207 175 7 47 211 22 6 
134 7 14 223 137 60 108 156 145 
135 6 215 81 85 29 104 115 
136 7 103 230 216 151 23 138 48 
137 7 60 14 223 134 108 61 145 
138 7 48 18 216 164 151 143 98 
139 1 10 
140 6 16 233 128 92 32 123 
141 7 35 112 82 118 117 67 25 
142 7 76 198 161 46 107 5 57 
143 6 164 98 216 120 18 138 
144 5 13 213 187 220 185 
145 7 108 61 223 180 60 14 137 
146 5 208 66 29 85 81 
147 6 235 78 101 75 26 32 
148 7 191 162 193 37 229 110 62 
149 5 154 30 70 86 41 
150 7 115 22 73 42 215 6 207 
151 7 230 48 138 23 18 239 216 
152 7 62 37 193 84 219 148 191 
153 6 95 96 31 61 44 56 
154 7 30 149 41 86 106 70 39 
155 5 64 88 4 224 55 
156 6 231 223 134 108 14 180 
157 4 50 184 86 30 
158 4 94 218 2 77 
159 4 38 129 190 200 
160 3 181 10 139 
161 6 107 198 76 174 142 20 
162 7 148 37 62 193 191 152 229 
163 5 9 176 227 221 74 
164 6 143 98 18 138 48 216 
165 6 63 214 234 105 3 169 
166 5 225 237 91 24 165 
167 6 132 71 217 125 197 19 
168 3 185 187 13 
169 7 3 59 102 195 214 80 234 
170 7 39 111 212 222 239 54 70 
171 6 12 123 78 32 235 219 
172 5 205 126 179 10 11 
173 6 127 114 177 100 199 17 
174 6 221 107 161 198 27 45 
175 7 7 133 47 207 238 149 211 
176 4 227 9 74 163 
177 6 58 173 65 36 26 131 
178 7 33 68 113 124 206 188 119 
179 5 205 172 126 181 10 
180 6 145 108 40 156 31 223 
181 6 126 205 10 160 172 179 
182 4 131 75 26 58 
183 4 43 203 20 87 
184 5 86 157 50 30 154 
185 5 187 168 13 213 220 
186 6 226 44 56 31 40 116 
187 6 185 13 213 220 144 168 
188 4 113 33 68 124 
189 6 69 5 196 97 55 142 
190 5 83 38 109 159 232 
191 7 148 229 110 193 8 121 162 
192 5 224 36 26 64 88 
193 7 191 148 229 152 110 37 62 
194 7 104 197 6 215 125 19 135 
195 7 80 169 3 102 15 236 59 
196 7 5 189 69 57 231 134 156 
197 7 125 71 19 167 217 132 194 
198 7 161 76 107 142 174 20 87 
199 5 100 173 85 79 29 
200 3 24 91 159 
201 7 79 4 88 64 104 155 55 
202 6 236 228 53 51 15 80 
203 6 20 43 87 183 72 107 
204 7 106 41 25 39 30 50 170 
205 5 126 172 179 181 10 
206 2 178 33 
207 7 133 211 22 175 7 47 6 
208 6 66 29 81 146 85 42 
209 6 122 49 130 141 82 25 
210 4 27 45 90 93 
211 5 207 133 22 175 184 
212 6 99 239 170 18 222 48 
213 5 13 144 187 185 220 
214 6 165 234 63 3 169 105 
215 7 135 115 6 104 194 150 81 
216 7 138 48 164 18 143 136 151 
217 6 167 132 197 71 125 19 
218 3 158 2 94 
219 6 12 92 171 152 123 16 
220 6 187 117 13 144 213 112 
221 5 174 163 27 107 9 
222 5 54 70 39 170 212 
223 7 14 108 134 60 137 145 61 
224 5 192 64 88 155 36 
225 4 166 237 91 24 
226 6 186 44 116 121 56 8 
227 4 176 74 9 163 
228 5 202 236 53 51 15 
229 7 110 8 191 121 193 116 148 
230 7 23 151 136 111 103 48 138 
231 4 156 134 223 14 
232 7 28 83 190 109 38 60 137 
233 6 128 140 16 32 123 101 
234 7 105 214 63 165 169 3 195 
235 5 78 147 32 75 123 
236 6 15 202 53 51 228 80 
237 5 91 24 225 166 200 
238 7 7 19 47 71 175 9 125 
239 7 99 212 48 151 18 138 111 
DEPOT_SECTION
   1
   -1
EOF
