NAME :  X-n317-kX-w63-c9.cctp
COMMENT : 	Adapted by Maziero, Usberti and Cavellucci from the Uchoa, Pecin, Pessoa, Poggi, Subramanian, and Vidal (2013)
TYPE :  CCTP
DIMENSION :    279
EDGE_WEIGHT_TYPE : 	EUC_2D	
CAPACITY : 	6
VERTICES_WITHIN_COVERAGE :  9
VERTICES_WITH_DEMAND : 	63
NODE_COORD_SECTION
1 0 0
2 971 544
3 564 976
4 266 4
5 395 95
6 379 271
7 936 538
8 980 578
9 242 92
10 476 74
11 247 159
12 359 108
13 473 941
14 490 947
15 548 950
16 389 864
17 916 664
18 212 91
19 415 182
20 961 553
21 423 232
22 596 931
23 955 566
24 534 93
25 252 6
26 950 580
27 517 950
28 942 618
29 636 981
30 629 809
31 508 35
32 108 130
33 391 19
34 208 183
35 991 680
36 428 48
37 272 220
38 931 581
39 327 128
40 966 514
41 313 202
42 267 1
43 404 925
44 985 594
45 895 429
46 348 12
47 316 258
48 238 20
49 970 490
50 854 586
51 293 104
52 628 919
53 880 597
54 353 241
55 753 728
56 291 93
57 993 439
58 382 125
59 230 36
60 984 471
61 489 23
62 277 137
63 593 171
64 378 204
65 411 87
66 207 85
67 906 631
68 445 68
69 673 268
70 576 951
71 953 504
72 530 11
73 632 879
74 541 968
75 353 851
76 629 868
77 593 896
78 936 411
79 276 93
80 359 894
81 548 998
82 52 69
83 507 145
84 451 162
85 646 996
86 532 906
87 220 126
88 482 212
89 137 53
90 978 506
91 300 111
92 907 711
93 222 137
94 423 67
95 268 125
96 434 25
97 548 982
98 511 888
99 371 256
100 440 179
101 965 439
102 545 968
103 447 40
104 785 664
105 915 669
106 468 98
107 247 6
108 271 70
109 260 110
110 902 679
111 926 874
112 587 988
113 368 419
114 351 158
115 967 685
116 559 968
117 984 540
118 380 89
119 886 376
120 943 408
121 420 204
122 386 78
123 219 18
124 497 961
125 542 965
126 718 869
127 414 69
128 606 959
129 575 99
130 330 101
131 257 22
132 600 994
133 951 536
134 534 896
135 297 96
136 438 917
137 385 883
138 233 239
139 481 945
140 414 128
141 602 752
142 592 151
143 267 82
144 587 946
145 728 991
146 242 136
147 292 9
148 494 918
149 2 149
150 24 105
151 933 577
152 227 49
153 651 947
154 991 512
155 805 704
156 253 66
157 628 824
158 199 18
159 833 534
160 633 864
161 343 42
162 565 991
163 603 996
164 404 30
165 434 92
166 822 465
167 393 81
168 351 78
169 536 967
170 553 985
171 652 868
172 472 900
173 824 545
174 370 189
175 196 21
176 590 878
177 551 951
178 480 48
179 384 185
180 327 228
181 567 966
182 537 964
183 929 577
184 336 12
185 496 953
186 149 57
187 250 252
188 238 63
189 245 222
190 231 37
191 512 13
192 868 481
193 994 635
194 697 87
195 989 535
196 462 954
197 355 240
198 335 89
199 817 544
200 196 66
201 389 36
202 413 62
203 277 111
204 245 95
205 878 469
206 407 109
207 999 601
208 974 433
209 578 969
210 548 784
211 519 21
212 986 436
213 483 19
214 420 197
215 825 609
216 347 96
217 967 530
218 749 542
219 271 20
220 307 72
221 420 130
222 821 398
223 147 97
224 950 512
225 394 190
226 962 584
227 934 530
228 611 926
229 323 185
230 966 530
231 378 189
232 334 189
233 265 136
234 303 315
235 562 977
236 995 477
237 862 649
238 379 190
239 935 565
240 178 11
241 465 237
242 214 179
243 479 913
244 903 530
245 379 102
246 268 8
247 922 511
248 403 33
249 289 71
250 374 90
251 557 25
252 957 581
253 134 103
254 554 116
255 392 111
256 200 392
257 929 514
258 521 905
259 341 210
260 394 77
261 339 130
262 938 635
263 315 258
264 970 710
265 402 128
266 954 450
267 528 302
268 353 113
269 611 991
270 235 12
271 958 520
272 521 76
273 334 23
274 591 913
275 589 956
276 568 972
277 983 621
278 418 817
279 334 176
DEMAND_SECTION
2 1
3 1
4 1
5 1
6 1
7 1
8 1
9 1
10 1
11 1
12 1
13 1
14 1
15 1
16 1
17 1
18 1
19 1
20 1
21 1
22 1
23 1
24 1
25 1
26 1
27 1
28 1
29 1
30 1
31 1
32 1
33 1
34 1
35 1
36 1
37 1
38 1
39 1
40 1
41 1
42 1
43 1
44 1
45 1
46 1
47 1
48 1
49 1
50 1
51 1
52 1
53 1
54 1
55 1
56 1
57 1
58 1
59 1
60 1
61 1
62 1
63 1
64 1
COVERAGE_SECTION
2 9 20 117 217 230 195 133 23 271 40 
3 9 235 276 116 181 170 162 209 97 102 
4 9 42 246 25 219 107 131 147 48 270 
5 9 167 118 255 245 65 206 260 122 250 
6 9 99 197 54 21 47 263 64 180 259 
7 9 227 133 257 239 271 20 224 247 230 
8 9 44 226 252 23 26 207 20 2 117 
9 9 204 109 143 156 188 18 79 66 108 
10 9 106 178 68 103 272 165 31 61 94 
11 9 146 233 93 62 242 95 87 34 109 
12 9 268 216 245 250 118 58 130 261 168 
13 9 139 196 14 185 243 124 148 172 136 
14 8 185 139 124 13 27 148 196 243 
15 8 177 125 102 182 74 116 169 181 
16 9 137 75 80 278 43 136 172 243 13 
17 9 105 110 67 262 92 28 115 237 264 
18 9 66 9 200 204 87 188 152 93 156 
19 8 214 225 121 100 179 238 231 84 
20 9 2 23 133 217 230 117 252 7 26 
21 9 121 214 241 19 225 64 100 99 6 
22 9 228 144 274 275 70 128 52 77 209 
23 9 20 26 252 226 239 151 2 8 38 
24 7 272 254 129 83 10 31 106 
25 9 107 4 42 246 131 270 48 219 123 
26 9 252 226 23 151 38 183 239 20 8 
27 7 185 124 182 169 14 125 74 
28 9 262 67 26 38 226 252 277 151 183 
29 9 85 269 163 128 153 132 112 275 209 
30 9 157 160 76 141 171 73 176 210 77 
31 9 211 61 191 213 178 72 272 10 251 
32 9 253 223 89 82 186 150 149 66 200 
33 5 164 201 248 96 46 
34 9 242 11 93 189 87 146 138 37 233 
35 9 115 264 193 277 262 17 105 28 207 
36 8 94 103 202 96 127 68 248 164 
37 9 189 187 138 41 180 263 47 229 11 
38 9 151 183 239 26 252 23 226 28 20 
39 9 261 130 268 91 12 114 216 198 51 
40 9 271 90 71 217 224 230 49 154 133 
41 8 229 232 259 180 279 37 47 54 
42 9 4 246 25 219 107 131 147 270 48 
43 9 136 137 80 16 196 13 172 243 139 
44 9 207 8 226 277 252 26 23 193 20 
45 7 205 78 120 119 192 266 101 
46 6 184 273 161 33 201 147 
47 9 263 180 54 197 259 99 41 37 234 
48 9 270 107 59 190 123 131 25 152 4 
49 9 90 71 40 60 236 154 224 271 217 
50 9 53 215 173 159 199 237 67 244 183 
51 9 135 91 56 203 79 95 249 109 143 
52 9 228 22 153 274 73 77 128 144 76 
53 9 50 67 38 183 237 215 151 239 28 
54 9 197 99 180 259 6 47 263 64 174 
55 9 155 104 237 215 126 30 141 92 110 
56 9 135 51 79 91 249 203 143 220 108 
57 9 212 208 101 60 236 266 49 120 78 
58 8 255 265 245 12 206 268 140 5 
59 9 190 152 48 123 270 188 131 107 158 
60 9 236 49 57 212 90 101 266 208 154 
61 9 213 31 191 178 211 72 103 10 96 
62 9 233 95 203 109 91 146 11 51 79 
63 7 142 254 129 83 24 88 272 
64 9 238 231 174 179 225 259 121 19 197 
65 9 5 127 167 260 206 94 165 202 122 
66 9 18 200 9 188 204 152 87 156 59 
67 9 262 17 28 105 53 110 237 38 183 
68 9 94 36 165 103 127 10 202 106 65 
69 8 63 142 267 194 254 129 222 88 
70 9 144 275 181 209 276 116 177 3 15 
71 9 224 40 271 49 90 257 230 217 133 
72 9 211 191 251 31 61 213 178 272 24 
73 9 76 160 171 52 176 77 228 274 157 
74 7 125 102 169 182 97 116 15 
75 9 16 80 137 278 43 136 172 243 13 
76 9 160 73 171 176 157 77 52 30 274 
77 9 274 176 22 228 52 73 76 144 160 
78 8 120 101 266 208 45 212 119 57 
79 9 143 56 203 51 135 109 108 249 91 
80 9 137 16 75 43 136 278 172 196 243 
81 7 170 97 162 235 3 102 74 
82 9 150 32 89 253 149 186 223 240 200 
83 4 254 24 84 106 
84 2 100 19 
85 9 29 269 163 132 153 128 112 275 209 
86 8 134 258 98 148 27 15 177 243 
87 9 93 146 18 9 204 11 66 109 233 
88 6 241 100 84 21 121 214 
89 9 186 223 253 240 200 175 158 66 32 
90 9 40 154 49 271 71 217 230 224 195 
91 9 51 135 56 203 79 39 130 62 95 
92 9 110 105 17 264 115 237 67 262 35 
93 9 87 146 11 233 242 18 109 34 95 
94 7 127 202 36 68 65 165 260 
95 9 233 62 109 203 146 51 79 91 204 
96 9 103 36 164 248 33 94 202 68 201 
97 7 170 102 235 74 81 3 116 
98 7 258 134 86 148 172 243 27 
99 9 6 54 197 64 180 47 259 263 21 
100 4 84 19 214 121 
101 9 208 266 212 57 60 120 78 236 49 
102 8 74 125 169 182 97 116 15 177 
103 9 96 36 68 178 94 202 213 127 164 
104 9 155 215 55 237 50 53 110 199 67 
105 9 17 110 67 262 92 115 237 28 264 
106 5 10 165 68 178 94 
107 9 25 270 48 4 131 42 246 219 123 
108 5 143 156 249 79 56 
109 9 95 203 204 79 9 233 143 62 146 
110 9 105 17 92 67 237 262 115 28 264 
111 9 92 264 115 110 35 105 126 155 17 
112 9 132 163 209 162 269 276 3 235 181 
113 9 234 6 99 47 263 256 54 197 21 
114 8 279 261 232 174 39 229 231 179 
115 9 35 264 105 17 193 262 92 110 277 
116 9 181 3 235 276 102 125 74 97 170 
117 9 195 2 217 230 20 154 40 133 271 
118 7 250 122 245 167 5 260 255 
119 9 45 78 120 222 205 266 101 208 192 
120 9 78 101 208 266 212 45 57 119 60 
121 9 214 19 21 225 100 179 64 238 231 
122 5 167 260 118 250 5 
123 9 270 48 158 59 190 175 107 152 25 
124 6 185 14 27 139 13 196 
125 8 74 102 182 169 15 116 177 97 
126 9 171 160 73 76 157 52 153 30 228 
127 6 202 94 65 260 167 36 
128 9 275 144 22 209 70 269 228 112 132 
129 8 254 24 142 272 63 251 83 31 
130 7 198 216 268 39 12 261 168 
131 8 219 25 246 48 107 4 42 270 
132 9 163 269 112 209 162 128 29 276 3 
133 9 7 230 217 271 227 20 2 224 40 
134 8 86 258 98 148 15 27 177 243 
135 9 56 51 91 79 203 220 249 130 143 
136 9 43 172 243 13 196 139 148 14 137 
137 9 16 80 75 43 136 278 172 243 13 
138 9 187 189 37 34 242 11 263 47 41 
139 9 13 14 185 196 124 148 243 27 172 
140 5 221 265 206 255 58 
141 7 30 210 157 160 76 171 176 
142 7 63 254 129 24 83 272 194 
143 7 108 79 156 249 56 204 9 
144 9 275 70 22 128 209 181 228 276 274 
145 9 85 153 29 269 126 52 163 128 132 
146 9 93 233 11 87 95 109 62 204 203 
147 6 219 246 4 42 131 25 
148 9 243 172 14 139 258 13 98 185 27 
149 9 150 82 32 253 223 89 186 34 200 
150 9 82 149 32 253 223 89 186 200 240 
151 9 38 183 239 26 252 23 226 20 7 
152 8 59 190 188 48 156 123 200 270 
153 9 52 29 228 128 85 22 269 275 144 
154 9 90 195 40 117 49 217 230 271 236 
155 9 104 55 237 215 110 92 105 17 67 
156 5 188 108 143 9 204 
157 9 30 160 76 171 73 176 141 77 210 
158 9 175 123 240 59 270 190 48 152 200 
159 8 173 199 50 192 166 244 215 53 
160 9 76 73 171 157 176 77 30 52 274 
161 3 273 46 184 
162 8 170 235 3 81 97 276 112 116 
163 9 132 269 112 29 128 209 162 275 276 
164 6 248 201 33 36 96 202 
165 8 65 68 94 127 206 106 202 5 
166 7 192 205 222 159 199 173 45 
167 6 260 122 5 118 65 250 
168 4 216 198 250 12 
169 7 182 74 125 102 97 15 177 
170 7 97 235 162 3 81 116 102 
171 9 160 73 76 157 52 30 176 77 126 
172 9 243 148 136 13 98 139 258 14 196 
173 8 199 159 50 215 218 53 192 166 
174 8 231 238 179 64 225 114 232 259 
175 9 158 240 123 59 190 270 48 152 200 
176 9 77 274 76 73 160 228 22 52 134 
177 9 15 125 102 116 182 74 169 181 70 
178 9 10 61 213 31 103 68 191 211 272 
179 8 231 238 225 174 64 19 214 121 
180 9 259 54 41 197 47 263 232 229 99 
181 9 276 116 3 209 235 70 102 177 170 
182 7 169 125 74 102 15 177 97 
183 9 38 151 239 26 23 252 226 7 20 
184 5 273 46 161 147 33 
185 7 14 124 139 27 13 196 148 
186 9 89 223 200 253 240 175 158 66 18 
187 9 138 189 37 263 47 41 34 180 242 
188 6 156 152 190 59 9 204 
189 9 138 37 187 242 34 11 41 263 47 
190 8 59 152 48 123 270 188 131 107 
191 9 211 72 31 61 213 178 251 272 103 
192 6 205 166 45 244 247 159 
193 9 277 207 44 35 28 262 115 8 226 
194 9 129 142 63 254 251 24 272 69 72 
195 9 117 2 154 217 230 40 90 20 271 
196 9 13 139 14 185 124 136 243 148 27 
197 9 54 99 180 259 6 47 64 263 174 
198 5 130 216 168 268 12 
199 8 173 159 50 215 218 166 192 53 
200 9 66 18 152 188 59 175 190 158 186 
201 3 248 164 33 
202 5 127 94 36 260 65 
203 9 51 95 109 79 56 91 135 62 233 
204 9 9 109 143 156 79 18 188 108 203 
205 6 192 45 166 247 244 257 
206 8 255 5 140 265 65 221 245 58 
207 9 44 277 8 193 226 252 26 23 28 
208 9 101 212 57 266 60 120 78 236 49 
209 9 276 181 3 275 70 235 116 112 144 
210 7 141 30 157 176 98 134 76 
211 9 191 72 31 61 213 251 178 272 10 
212 9 57 208 101 60 266 236 120 49 78 
213 9 61 178 31 191 211 103 72 96 10 
214 9 121 19 100 225 21 179 238 64 231 
215 9 50 237 53 173 199 104 159 67 155 
216 5 198 12 130 168 268 
217 9 230 271 2 40 133 117 195 20 224 
218 8 199 173 159 215 166 50 104 192 
219 7 246 131 4 42 25 147 107 
220 4 249 56 135 198 
221 5 140 265 206 255 58 
222 7 166 119 45 205 192 78 120 
223 9 253 186 89 32 200 66 18 87 93 
224 9 71 271 40 257 133 227 230 217 247 
225 9 179 238 231 64 19 174 214 121 100 
226 9 252 26 8 23 44 151 20 38 239 
227 9 7 257 133 247 224 271 244 71 230 
228 9 22 52 274 144 128 77 275 70 153 
229 8 232 279 41 259 114 180 174 231 
230 9 217 271 2 40 133 117 20 195 224 
231 8 238 179 174 64 225 19 114 214 
232 8 229 279 259 41 114 174 180 231 
233 9 95 62 146 109 203 11 51 91 93 
234 9 47 263 187 6 54 99 180 197 37 
235 9 3 276 116 170 181 162 97 209 102 
236 9 60 49 90 154 57 212 40 101 208 
237 9 67 110 215 53 17 105 50 92 262 
238 8 231 179 174 64 225 19 214 114 
239 9 151 183 38 23 26 7 252 20 133 
240 9 175 158 123 186 270 59 200 89 190 
241 7 88 21 121 214 100 19 84 
242 9 34 11 93 146 87 189 138 233 37 
243 9 172 148 13 139 14 98 136 185 258 
244 7 247 227 257 7 239 133 224 
245 9 118 250 255 5 12 58 122 167 268 
246 8 4 42 219 25 131 107 147 48 
247 7 257 227 244 224 7 71 271 
248 5 164 201 33 36 202 
249 6 108 220 56 143 79 135 
250 7 118 245 122 167 5 12 260 
251 9 72 211 191 31 272 61 24 213 129 
252 9 226 26 23 8 151 38 239 20 183 
253 9 223 32 186 89 200 66 18 82 87 
254 7 129 24 142 272 83 63 106 
255 8 206 5 245 58 265 118 140 250 
256 9 234 187 138 113 189 47 263 37 180 
257 8 247 227 224 7 71 271 133 244 
258 9 86 134 98 148 243 27 172 14 15 
259 9 232 180 41 229 54 197 279 174 64 
260 5 167 122 5 118 65 
261 8 39 268 12 114 130 216 198 58 
262 9 28 67 17 105 277 38 26 193 226 
263 9 47 180 54 197 259 41 99 37 234 
264 9 115 35 92 105 17 110 193 262 277 
265 6 140 221 58 206 255 5 
266 8 101 208 212 60 57 49 78 120 
267 6 241 88 21 63 121 69 
268 9 12 216 261 130 245 39 198 58 250 
269 9 163 132 112 29 128 85 209 275 162 
270 9 48 107 123 25 131 59 190 4 246 
271 9 40 224 217 230 71 133 90 227 2 
272 9 24 31 10 178 254 211 106 129 61 
273 4 184 46 161 147 
274 9 77 22 228 144 176 52 70 275 128 
275 9 144 70 128 209 181 22 276 3 112 
276 9 3 181 235 116 209 162 170 70 97 
277 9 193 207 44 28 8 226 262 252 26 
278 9 16 75 137 80 172 136 43 243 98 
279 8 232 229 114 41 259 174 231 261 
DEPOT_SECTION
   1
   -1
EOF
