NAME :  X-n317-kX-w31-c9.cctp
COMMENT : 	Adapted by Maziero, Usberti and Cavellucci from the Uchoa, Pecin, Pessoa, Poggi, Subramanian, and Vidal (2013)
TYPE :  CCTP
DIMENSION :    205
EDGE_WEIGHT_TYPE : 	EUC_2D	
CAPACITY : 	6
VERTICES_WITHIN_COVERAGE :  9
VERTICES_WITH_DEMAND : 	31
NODE_COORD_SECTION
1 0 0
2 971 544
3 564 976
4 266 4
5 395 95
6 379 271
7 936 538
8 980 578
9 242 92
10 476 74
11 247 159
12 359 108
13 473 941
14 490 947
15 548 950
16 389 864
17 916 664
18 212 91
19 415 182
20 961 553
21 423 232
22 596 931
23 955 566
24 534 93
25 252 6
26 950 580
27 517 950
28 942 618
29 636 981
30 629 809
31 508 35
32 108 130
33 208 183
34 991 680
35 272 220
36 931 581
37 327 128
38 267 1
39 404 925
40 985 594
41 238 20
42 628 919
43 880 597
44 353 241
45 753 728
46 382 125
47 489 23
48 277 137
49 593 171
50 378 204
51 411 87
52 207 85
53 906 631
54 445 68
55 576 951
56 530 11
57 541 968
58 353 851
59 629 868
60 593 896
61 359 894
62 548 998
63 52 69
64 507 145
65 451 162
66 646 996
67 532 906
68 220 126
69 482 212
70 137 53
71 907 711
72 222 137
73 548 982
74 511 888
75 371 256
76 440 179
77 545 968
78 915 669
79 468 98
80 247 6
81 260 110
82 902 679
83 926 874
84 587 988
85 368 419
86 967 685
87 559 968
88 984 540
89 380 89
90 420 204
91 386 78
92 219 18
93 497 961
94 542 965
95 718 869
96 606 959
97 575 99
98 330 101
99 257 22
100 600 994
101 951 536
102 534 896
103 438 917
104 385 883
105 233 239
106 481 945
107 602 752
108 592 151
109 267 82
110 587 946
111 728 991
112 242 136
113 292 9
114 494 918
115 2 149
116 24 105
117 933 577
118 651 947
119 805 704
120 253 66
121 628 824
122 633 864
123 565 991
124 603 996
125 434 92
126 393 81
127 351 78
128 536 967
129 553 985
130 652 868
131 472 900
132 590 878
133 551 951
134 480 48
135 384 185
136 567 966
137 537 964
138 929 577
139 496 953
140 149 57
141 238 63
142 245 222
143 512 13
144 994 635
145 697 87
146 989 535
147 462 954
148 355 240
149 335 89
150 196 66
151 245 95
152 407 109
153 999 601
154 578 969
155 548 784
156 519 21
157 483 19
158 420 197
159 347 96
160 967 530
161 271 20
162 147 97
163 394 190
164 962 584
165 934 530
166 611 926
167 966 530
168 378 189
169 265 136
170 303 315
171 562 977
172 862 649
173 379 190
174 935 565
175 465 237
176 214 179
177 479 913
178 903 530
179 379 102
180 268 8
181 922 511
182 374 90
183 557 25
184 957 581
185 134 103
186 554 116
187 392 111
188 929 514
189 521 905
190 394 77
191 339 130
192 938 635
193 970 710
194 402 128
195 528 302
196 353 113
197 611 991
198 235 12
199 958 520
200 521 76
201 591 913
202 589 956
203 568 972
204 983 621
205 418 817
DEMAND_SECTION
2 1
3 1
4 1
5 1
6 1
7 1
8 1
9 1
10 1
11 1
12 1
13 1
14 1
15 1
16 1
17 1
18 1
19 1
20 1
21 1
22 1
23 1
24 1
25 1
26 1
27 1
28 1
29 1
30 1
31 1
32 1
COVERAGE_SECTION
2 8 20 88 160 167 146 101 23 199 
3 9 171 203 87 136 129 123 154 73 77 
4 9 38 180 25 161 80 99 113 41 198 
5 9 126 89 187 179 51 152 190 91 182 
6 5 75 148 44 21 50 
7 8 165 101 188 174 199 20 181 167 
8 9 40 164 184 23 26 153 20 2 88 
9 7 151 81 109 120 141 18 52 
10 7 79 134 54 200 125 31 47 
11 8 112 169 72 48 176 68 33 81 
12 9 196 159 179 182 89 46 98 191 127 
13 9 106 147 14 139 177 93 114 131 103 
14 8 139 106 93 13 27 114 147 177 
15 8 133 94 77 137 57 87 128 136 
16 9 104 58 61 205 39 103 131 177 13 
17 9 78 82 53 192 71 28 86 172 193 
18 8 52 9 150 151 68 141 72 120 
19 8 158 163 90 76 135 173 168 65 
20 9 2 23 101 160 167 88 184 7 26 
21 9 90 158 175 19 163 50 76 75 6 
22 9 166 110 201 202 55 96 42 60 154 
23 9 20 26 184 164 174 117 2 8 36 
24 7 200 186 97 64 10 31 79 
25 9 80 4 38 180 99 198 41 161 92 
26 9 184 164 23 117 36 138 174 20 8 
27 7 139 93 137 128 14 94 57 
28 9 192 53 26 36 164 184 204 117 138 
29 9 66 197 124 96 118 100 84 202 154 
30 8 121 122 59 107 130 132 155 60 
31 9 156 47 143 157 134 56 200 10 183 
32 9 185 162 70 63 140 116 115 52 150 
33 9 176 11 72 142 68 112 105 35 169 
34 9 86 193 144 204 192 17 78 28 153 
35 3 142 105 11 
36 9 117 138 174 26 184 23 164 28 20 
37 6 191 98 196 12 159 149 
38 9 4 180 25 161 80 99 113 198 41 
39 9 103 104 61 16 147 13 131 177 106 
40 9 153 8 164 204 184 26 23 144 20 
41 6 198 80 92 99 25 4 
42 8 166 22 118 201 60 96 110 59 
43 7 53 36 138 172 117 174 28 
44 4 148 75 6 50 
45 7 119 172 95 30 107 71 82 
46 7 187 194 179 12 152 196 5 
47 7 157 31 143 134 156 56 10 
48 4 169 81 112 11 
49 7 108 186 97 64 24 69 200 
50 7 173 168 135 163 90 19 148 
51 6 5 126 190 152 125 91 
52 7 18 150 9 141 151 68 120 
53 9 192 17 28 78 43 82 172 36 138 
54 4 125 10 79 51 
55 9 110 202 136 154 203 87 133 3 15 
56 9 156 143 183 31 47 157 134 200 24 
57 7 94 77 128 137 73 87 15 
58 9 16 61 104 205 39 103 131 177 13 
59 8 122 130 132 121 60 42 30 201 
60 8 201 132 22 166 42 59 110 122 
61 9 104 16 58 39 103 205 131 147 177 
62 7 129 73 123 171 3 77 57 
63 8 116 32 70 185 115 140 162 150 
64 4 186 24 65 79 
65 2 76 19 
66 9 29 197 124 100 118 96 84 202 154 
67 8 102 189 74 114 27 15 133 177 
68 9 72 112 18 9 151 11 52 81 169 
69 6 175 76 65 21 90 158 
70 6 140 162 185 150 52 32 
71 9 82 78 17 193 86 172 53 192 34 
72 8 68 112 11 169 176 18 81 33 
73 7 129 77 171 57 62 3 87 
74 7 189 102 67 114 131 177 27 
75 5 6 44 148 50 21 
76 4 65 19 158 90 
77 8 57 94 128 137 73 87 15 133 
78 9 17 82 53 192 71 86 172 28 193 
79 4 10 125 54 134 
80 9 25 198 41 4 99 38 180 161 92 
81 6 151 9 169 109 48 112 
82 9 78 17 71 53 172 192 86 28 193 
83 9 71 193 86 82 34 78 95 119 17 
84 9 100 124 154 123 197 203 3 171 136 
85 6 170 6 75 44 148 21 
86 9 34 193 78 17 144 192 71 82 204 
87 9 136 3 171 203 77 94 57 73 129 
88 7 146 2 160 167 20 101 199 
89 7 182 91 179 126 5 190 187 
90 9 158 19 21 163 76 135 50 173 168 
91 5 126 190 89 182 5 
92 4 198 41 80 25 
93 6 139 14 27 106 13 147 
94 8 57 77 137 128 15 87 133 73 
95 8 130 122 59 121 42 118 30 166 
96 9 202 110 22 154 55 197 166 84 100 
97 8 186 24 108 200 49 183 64 31 
98 7 149 159 196 37 12 191 127 
99 8 161 25 180 41 80 4 38 198 
100 9 124 197 84 154 123 96 29 203 3 
101 7 7 167 160 199 165 20 2 
102 8 67 189 74 114 15 27 133 177 
103 9 39 131 177 13 147 106 114 14 104 
104 9 16 61 58 39 103 205 131 177 13 
105 5 142 35 33 176 11 
106 9 13 14 139 147 93 114 177 27 131 
107 7 30 155 121 122 59 130 132 
108 7 49 186 97 24 64 200 145 
109 3 120 151 9 
110 9 202 55 22 96 154 136 166 203 201 
111 9 66 118 29 197 95 42 124 96 100 
112 7 72 169 11 68 81 48 151 
113 6 161 180 4 38 99 25 
114 9 177 131 14 106 189 13 74 139 27 
115 9 116 63 32 185 162 70 140 33 150 
116 8 63 115 32 185 162 70 140 150 
117 9 36 138 174 26 184 23 164 20 7 
118 9 42 29 166 96 66 22 197 202 110 
119 7 45 172 82 71 78 17 53 
120 4 141 109 9 151 
121 8 30 122 59 130 132 107 60 155 
122 8 59 130 121 132 60 30 42 201 
123 8 129 171 3 62 73 203 84 87 
124 9 100 197 84 29 96 154 123 202 203 
125 5 51 54 152 79 5 
126 6 190 91 5 89 51 182 
127 4 159 149 182 12 
128 7 137 57 94 77 73 15 133 
129 7 73 171 123 3 62 87 77 
130 8 122 59 121 42 30 132 60 95 
131 9 177 114 103 13 74 106 189 14 147 
132 8 60 201 59 122 166 22 42 102 
133 9 15 94 77 87 137 57 128 136 55 
134 8 10 47 157 31 54 143 156 200 
135 7 168 173 163 50 19 158 90 
136 9 203 87 3 154 171 55 77 133 129 
137 7 128 94 57 77 15 133 73 
138 9 36 117 174 26 23 184 164 7 20 
139 7 14 93 106 27 13 147 114 
140 6 70 162 150 185 52 18 
141 3 120 9 151 
142 5 105 35 176 33 11 
143 8 156 56 31 47 157 134 183 200 
144 9 204 153 40 34 28 192 86 8 164 
145 8 97 108 49 186 183 24 200 56 
146 6 88 2 160 167 20 199 
147 9 13 106 14 139 93 103 177 114 27 
148 4 44 75 6 50 
149 5 98 159 127 196 12 
150 4 52 18 141 140 
151 6 9 81 109 120 18 141 
152 6 187 5 194 51 179 46 
153 9 40 204 8 144 164 184 26 23 28 
154 9 203 136 3 202 55 171 87 84 110 
155 7 107 30 121 132 74 102 59 
156 9 143 56 31 47 157 183 134 200 10 
157 7 47 134 31 143 156 56 10 
158 9 90 19 76 163 21 135 173 50 168 
159 5 149 12 98 127 196 
160 7 167 199 2 101 88 146 20 
161 7 180 99 4 38 25 113 80 
162 9 185 140 70 32 150 52 18 68 72 
163 8 135 173 168 50 19 158 90 76 
164 9 184 26 8 23 40 117 20 36 174 
165 7 7 188 101 181 199 178 167 
166 9 22 42 201 110 96 60 202 55 118 
167 7 160 199 2 101 88 20 146 
168 6 173 135 50 163 19 158 
169 5 48 112 81 11 72 
170 5 6 44 75 148 35 
171 9 3 203 87 129 136 123 73 154 77 
172 7 53 82 43 17 78 71 192 
173 6 168 135 50 163 19 158 
174 9 117 138 36 23 26 7 184 20 101 
175 7 69 21 90 158 76 19 65 
176 9 33 11 72 112 68 142 105 169 35 
177 9 131 114 13 106 14 74 103 139 189 
178 6 181 165 188 7 174 101 
179 9 89 182 187 5 12 46 91 126 196 
180 8 4 38 161 25 99 80 113 41 
181 5 188 165 178 7 199 
182 7 89 179 91 126 5 12 190 
183 9 56 156 143 31 200 47 24 157 97 
184 9 164 26 23 8 117 36 174 20 138 
185 9 162 32 140 70 150 52 18 63 68 
186 7 97 24 108 200 64 49 79 
187 7 152 5 179 46 194 89 182 
188 6 181 165 7 199 101 178 
189 9 67 102 74 114 177 27 131 14 15 
190 5 126 91 5 89 51 
191 7 37 196 12 98 159 149 46 
192 9 28 53 17 78 204 36 26 144 164 
193 9 86 34 71 78 17 82 144 192 204 
194 4 46 152 187 5 
195 5 175 69 21 49 90 
196 9 12 159 191 98 179 37 149 46 182 
197 9 124 100 84 29 96 66 154 202 123 
198 7 41 80 92 25 99 4 180 
199 5 160 167 101 165 2 
200 9 24 31 10 134 186 156 79 97 47 
201 9 60 22 166 110 132 42 55 202 96 
202 9 110 55 96 154 136 22 203 3 84 
203 9 3 136 171 87 154 123 129 55 73 
204 9 144 153 40 28 8 164 192 184 26 
205 9 16 58 104 61 131 103 39 177 74 
DEPOT_SECTION
   1
   -1
EOF
