NAME :  X-n344-kX-w34-c7.cctp
COMMENT : 	Adapted by Maziero, Usberti and Cavellucci from the Uchoa, Pecin, Pessoa, Poggi, Subramanian, and Vidal (2013)
TYPE :  CCTP
DIMENSION :    166
EDGE_WEIGHT_TYPE : 	EUC_2D	
CAPACITY : 	61
VERTICES_WITHIN_COVERAGE :  7
VERTICES_WITH_DEMAND : 	34
NODE_COORD_SECTION
1 500 500
2 615 190
3 890 200
4 983 684
5 874 112
6 906 186
7 801 278
8 823 446
9 242 544
10 505 210
11 767 766
12 698 305
13 707 511
14 10 968
15 172 13
16 57 414
17 317 373
18 849 680
19 854 12
20 429 688
21 822 378
22 774 584
23 601 895
24 921 309
25 176 165
26 368 432
27 656 430
28 715 225
29 35 264
30 544 994
31 214 533
32 573 650
33 259 595
34 38 550
35 925 755
36 337 562
37 919 402
38 424 206
39 259 588
40 79 364
41 332 593
42 270 544
43 745 267
44 760 786
45 134 998
46 966 458
47 986 462
48 615 293
49 24 217
50 418 662
51 831 314
52 832 564
53 945 758
54 394 446
55 843 680
56 24 613
57 512 655
58 657 544
59 773 727
60 1 461
61 495 295
62 273 186
63 493 121
64 522 653
65 157 9
66 632 964
67 347 750
68 9 237
69 181 662
70 106 978
71 603 944
72 734 612
73 163 142
74 910 272
75 901 149
76 817 700
77 888 1
78 716 413
79 17 309
80 558 122
81 436 663
82 912 64
83 622 271
84 326 388
85 675 587
86 974 135
87 620 443
88 276 222
89 869 663
90 517 935
91 277 612
92 8 525
93 340 489
94 183 75
95 880 600
96 50 555
97 396 484
98 225 176
99 235 9
100 768 438
101 197 149
102 301 18
103 793 659
104 953 401
105 459 264
106 353 254
107 986 680
108 375 639
109 82 923
110 912 604
111 992 123
112 784 823
113 803 338
114 67 555
115 654 393
116 41 545
117 575 872
118 734 779
119 101 440
120 573 609
121 767 794
122 236 121
123 550 658
124 745 746
125 379 464
126 618 848
127 55 556
128 586 888
129 41 501
130 383 686
131 419 687
132 219 38
133 27 564
134 58 518
135 41 399
136 214 619
137 471 405
138 804 753
139 914 234
140 64 580
141 613 106
142 583 675
143 466 675
144 30 555
145 752 797
146 132 16
147 462 689
148 489 725
149 198 26
150 9 875
151 29 588
152 843 98
153 669 393
154 54 527
155 641 883
156 920 860
157 377 640
158 10 614
159 741 232
160 539 901
161 158 173
162 161 140
163 570 682
164 139 525
165 175 121
166 509 650
DEMAND_SECTION
2 7
3 10
4 7
5 8
6 9
7 8
8 5
9 7
10 7
11 5
12 10
13 8
14 6
15 7
16 7
17 5
18 9
19 10
20 10
21 7
22 5
23 9
24 10
25 10
26 8
27 5
28 9
29 7
30 6
31 8
32 5
33 8
34 7
35 6
COVERAGE_SECTION
2 5 83 141 80 48 28 
3 7 6 139 75 74 5 86 152 
4 7 107 53 35 110 89 95 18 
5 7 152 75 82 6 3 19 86 
6 7 3 75 139 5 86 74 111 
7 7 51 43 113 159 28 21 12 
8 7 100 21 37 113 78 52 51 
9 7 42 31 39 33 91 136 36 
10 6 105 38 61 63 80 2 
11 7 44 121 124 145 118 59 138 
12 6 43 28 83 48 159 153 
13 6 58 85 100 27 78 22 
14 4 109 150 70 45 
15 6 65 149 146 132 94 99 
16 5 135 119 40 60 129 
17 7 84 26 54 125 93 106 97 
18 7 55 89 76 103 95 138 59 
19 5 77 82 152 5 75 
20 7 131 81 50 147 143 130 148 
21 7 113 51 8 100 37 7 78 
22 5 72 52 103 13 85 
23 6 128 117 155 71 126 160 
24 7 74 139 51 37 104 3 21 
25 5 161 73 101 162 165 
26 7 54 125 97 84 93 17 137 
27 5 115 87 153 78 13 
28 7 159 43 12 7 83 2 48 
29 3 68 49 79 
30 6 90 71 66 160 23 128 
31 6 9 42 39 164 33 136 
32 6 123 142 163 120 64 57 
33 7 39 91 136 42 9 41 31 
34 7 116 144 96 127 133 154 114 
35 7 53 4 107 156 18 89 55 
36 7 41 42 93 91 39 33 108 
37 7 104 46 47 24 21 8 51 
38 6 105 10 106 63 61 88 
39 7 33 91 42 9 136 31 41 
40 2 135 16 
41 7 36 91 108 157 33 39 42 
42 7 9 39 33 31 91 36 41 
43 7 159 28 7 12 113 51 83 
44 7 121 145 11 118 124 112 138 
45 3 70 109 14 
46 6 47 104 37 8 24 110 
47 6 46 104 37 110 8 24 
48 2 83 12 
49 2 68 29 
50 7 81 131 20 130 157 108 143 
51 7 113 7 21 74 24 43 139 
52 6 95 22 110 103 89 72 
53 7 35 4 107 156 89 18 55 
54 6 125 26 97 93 137 84 
55 7 18 89 76 103 138 59 95 
56 7 158 151 133 140 144 96 34 
57 6 166 64 123 143 147 32 
58 2 85 13 
59 4 124 11 138 76 
60 6 129 92 16 135 134 154 
61 4 105 10 137 38 
62 6 88 98 122 101 25 106 
63 4 80 10 38 141 
64 6 57 166 123 32 163 143 
65 5 15 146 149 132 94 
66 4 71 23 155 128 
67 3 130 131 20 
68 3 49 29 79 
69 4 136 33 39 91 
70 3 45 109 14 
71 6 66 23 128 155 30 117 
72 3 22 85 103 
73 5 162 165 25 161 101 
74 7 139 24 3 6 51 7 75 
75 7 6 5 3 86 152 82 139 
76 7 55 18 103 59 138 89 11 
77 6 19 82 152 5 75 86 
78 7 153 100 27 115 13 87 12 
79 4 29 68 40 49 
80 4 141 63 2 10 
81 6 50 20 131 143 147 130 
82 7 5 77 152 19 75 86 111 
83 3 48 2 12 
84 7 17 26 54 125 93 97 106 
85 3 58 72 13 
86 7 111 75 6 82 5 3 139 
87 3 27 115 153 
88 6 62 98 106 101 122 25 
89 7 18 55 76 95 110 103 52 
90 2 160 30 
91 7 33 39 41 136 42 9 36 
92 7 144 34 116 129 133 154 134 
93 7 125 97 26 54 36 42 84 
94 4 165 149 132 15 
95 6 110 52 89 18 55 103 
96 7 127 34 116 114 144 133 154 
97 6 125 54 93 26 36 137 
98 7 101 62 25 122 161 88 73 
99 6 132 149 15 102 65 94 
100 7 8 78 21 13 113 153 27 
101 7 25 73 165 162 98 161 122 
102 5 99 132 149 122 15 
103 7 76 55 18 59 72 89 22 
104 7 37 46 47 24 21 74 8 
105 6 61 38 10 106 137 63 
106 7 88 38 62 105 17 84 61 
107 7 4 53 35 110 89 95 18 
108 7 157 130 50 41 131 81 20 
109 4 70 14 150 45 
110 6 95 89 52 18 55 107 
111 7 86 75 82 6 5 3 139 
112 4 121 145 44 11 
113 7 51 21 7 43 100 8 12 
114 7 127 96 140 116 34 154 144 
115 4 153 27 87 78 
116 7 34 96 144 127 154 133 114 
117 5 128 23 160 126 155 
118 5 145 44 11 124 121 
119 4 16 135 40 129 
120 5 32 123 64 142 163 
121 6 44 145 11 112 118 124 
122 6 101 98 165 94 25 62 
123 7 32 64 163 142 57 166 120 
124 3 11 59 118 
125 6 54 97 26 93 84 36 
126 4 155 117 23 128 
127 7 96 114 34 116 144 140 133 
128 6 23 117 160 126 155 71 
129 6 134 154 92 116 34 96 
130 7 131 50 20 157 108 81 67 
131 7 20 50 81 130 147 143 157 
132 5 149 99 94 15 65 
133 7 144 34 116 151 96 127 140 
134 6 154 129 116 34 96 114 
135 4 16 40 119 60 
136 7 33 69 39 91 9 31 42 
137 4 54 26 97 125 
138 7 11 59 44 76 121 124 145 
139 7 74 3 6 24 75 51 86 
140 7 114 127 96 151 34 133 116 
141 2 80 2 
142 4 163 32 123 64 
143 6 147 81 20 131 50 57 
144 7 34 133 116 96 127 151 92 
145 6 44 121 118 11 112 124 
146 3 65 15 149 
147 7 143 20 81 131 148 50 57 
148 3 147 143 20 
149 6 132 15 99 65 94 146 
150 3 109 14 70 
151 7 133 56 158 144 140 34 96 
152 7 5 75 82 19 77 6 3 
153 5 115 27 78 87 12 
154 7 134 116 34 96 127 129 114 
155 3 23 126 128 
156 2 35 53 
157 7 108 130 50 81 131 41 20 
158 7 56 151 133 144 140 34 96 
159 7 28 43 7 12 51 113 83 
160 4 90 117 128 23 
161 3 25 73 162 
162 5 73 165 25 161 101 
163 5 142 123 32 64 57 
164 3 31 114 134 
165 5 73 162 101 25 94 
166 6 57 64 123 143 147 32 
DEPOT_SECTION
   1
   -1
EOF
