NAME :  X-n336-kX-w134-c7.cctp
COMMENT : 	Adapted by Maziero, Usberti and Cavellucci from the Uchoa, Pecin, Pessoa, Poggi, Subramanian, and Vidal (2013)
TYPE :  CCTP
DIMENSION :    325
EDGE_WEIGHT_TYPE : 	EUC_2D	
CAPACITY : 	203
VERTICES_WITHIN_COVERAGE :  7
VERTICES_WITH_DEMAND : 	134
NODE_COORD_SECTION
1 0 0
2 365 689
3 146 180
4 792 5
5 658 510
6 461 270
7 299 531
8 812 228
9 643 90
10 615 630
11 258 42
12 616 299
13 475 957
14 425 473
15 406 64
16 656 369
17 202 467
18 318 21
19 579 587
20 458 354
21 575 871
22 47 512
23 568 742
24 128 436
25 546 806
26 197 696
27 615 300
28 852 563
29 772 803
30 678 342
31 916 176
32 390 949
33 113 782
34 226 736
35 119 923
36 584 572
37 134 554
38 912 173
39 827 233
40 851 677
41 598 322
42 627 472
43 94 442
44 688 274
45 977 176
46 597 461
47 931 23
48 170 640
49 941 601
50 873 487
51 797 95
52 451 816
53 866 970
54 833 912
55 106 913
56 260 107
57 332 45
58 685 613
59 728 372
60 407 590
61 619 484
62 966 483
63 482 512
64 278 599
65 213 330
66 37 932
67 643 10
68 341 241
69 302 521
70 593 382
71 438 686
72 637 885
73 277 382
74 152 776
75 546 999
76 288 665
77 232 131
78 563 66
79 602 547
80 996 983
81 464 377
82 502 727
83 691 574
84 535 4
85 975 616
86 974 242
87 853 459
88 263 163
89 967 740
90 810 617
91 580 226
92 615 656
93 346 526
94 172 867
95 319 35
96 602 946
97 224 146
98 48 527
99 970 693
100 314 262
101 413 661
102 756 147
103 381 139
104 421 100
105 930 522
106 440 792
107 862 962
108 668 720
109 493 72
110 573 541
111 668 884
112 380 646
113 24 44
114 457 991
115 511 272
116 960 171
117 150 61
118 721 754
119 56 633
120 389 853
121 700 137
122 823 958
123 422 111
124 727 12
125 203 178
126 548 744
127 677 999
128 610 239
129 396 478
130 509 773
131 347 219
132 754 887
133 717 223
134 650 718
135 909 845
136 451 575
137 806 992
138 740 770
139 291 583
140 74 690
141 877 132
142 379 284
143 574 881
144 871 854
145 987 529
146 509 440
147 976 565
148 644 554
149 325 696
150 969 681
151 888 425
152 782 490
153 974 885
154 502 280
155 992 909
156 440 691
157 342 364
158 806 649
159 552 728
160 980 576
161 671 918
162 26 841
163 463 459
164 526 344
165 268 49
166 979 559
167 156 39
168 303 960
169 85 110
170 760 825
171 28 910
172 725 93
173 987 998
174 827 937
175 253 53
176 342 592
177 833 437
178 705 344
179 35 318
180 839 857
181 7 132
182 462 46
183 511 649
184 72 981
185 660 595
186 306 313
187 806 978
188 954 238
189 679 664
190 223 692
191 783 211
192 258 807
193 29 943
194 901 617
195 634 276
196 711 6
197 253 301
198 229 917
199 379 611
200 494 796
201 804 306
202 366 672
203 739 275
204 390 64
205 421 896
206 773 430
207 780 36
208 583 683
209 102 872
210 999 222
211 991 56
212 687 500
213 381 463
214 982 321
215 188 834
216 373 15
217 240 295
218 379 73
219 94 905
220 291 368
221 365 875
222 281 949
223 222 763
224 487 965
225 525 52
226 217 975
227 767 889
228 966 590
229 584 689
230 52 118
231 513 513
232 626 630
233 528 291
234 61 262
235 67 613
236 528 819
237 776 606
238 453 584
239 113 947
240 619 771
241 751 689
242 680 978
243 207 338
244 930 890
245 740 183
246 313 231
247 487 874
248 695 972
249 857 247
250 376 774
251 168 409
252 855 702
253 543 56
254 846 172
255 43 62
256 548 157
257 153 638
258 987 721
259 619 306
260 31 683
261 681 520
262 445 533
263 117 505
264 860 428
265 265 809
266 947 417
267 791 3
268 305 771
269 697 637
270 599 555
271 595 439
272 952 464
273 217 775
274 585 895
275 185 344
276 710 275
277 22 136
278 668 648
279 423 637
280 318 490
281 686 796
282 870 128
283 845 405
284 37 883
285 59 581
286 292 22
287 182 838
288 905 295
289 285 15
290 159 409
291 556 616
292 370 988
293 436 374
294 143 772
295 15 88
296 897 75
297 667 699
298 621 485
299 942 616
300 900 816
301 707 297
302 170 312
303 541 76
304 244 104
305 367 241
306 71 908
307 349 361
308 754 980
309 32 869
310 812 318
311 731 882
312 701 119
313 170 285
314 577 478
315 377 59
316 312 343
317 823 859
318 760 716
319 809 837
320 269 109
321 112 726
322 454 247
323 873 167
324 205 18
325 738 287
DEMAND_SECTION
2 48
3 63
4 27
5 66
6 86
7 14
8 26
9 47
10 66
11 85
12 22
13 30
14 89
15 51
16 11
17 82
18 92
19 85
20 51
21 90
22 6
23 68
24 73
25 94
26 7
27 12
28 70
29 97
30 41
31 30
32 8
33 11
34 25
35 10
36 75
37 17
38 36
39 6
40 54
41 12
42 30
43 94
44 30
45 27
46 41
47 25
48 41
49 72
50 39
51 32
52 35
53 68
54 68
55 9
56 90
57 56
58 95
59 41
60 39
61 18
62 8
63 16
64 37
65 82
66 26
67 14
68 66
69 33
70 29
71 37
72 56
73 93
74 2
75 54
76 48
77 65
78 6
79 80
80 94
81 80
82 93
83 68
84 20
85 57
86 45
87 7
88 89
89 67
90 72
91 47
92 93
93 35
94 19
95 51
96 100
97 88
98 31
99 92
100 83
101 7
102 22
103 90
104 77
105 89
106 40
107 79
108 87
109 73
110 59
111 67
112 12
113 94
114 18
115 29
116 44
117 57
118 55
119 38
120 1
121 14
122 56
123 100
124 14
125 69
126 55
127 55
128 50
129 98
130 88
131 99
132 67
133 48
134 81
135 78
COVERAGE_SECTION
2 7 202 149 112 101 71 156 279 
3 6 125 97 169 77 313 230 
4 7 267 207 124 196 51 172 296 
5 7 261 212 298 148 61 42 79 
6 7 322 154 115 233 142 20 164 
7 7 69 280 93 139 64 176 213 
8 6 39 191 249 254 201 245 
9 7 312 121 67 172 78 303 253 
10 7 232 92 19 278 185 291 208 
11 7 165 175 289 286 324 95 18 
12 7 27 259 41 195 128 30 44 
13 7 224 114 205 75 247 32 292 
14 7 129 163 213 262 63 146 93 
15 7 204 218 315 104 123 182 216 
16 7 30 178 70 59 259 41 27 
17 7 251 290 24 263 37 43 73 
18 7 95 286 57 289 216 165 11 
19 7 36 291 270 79 110 10 232 
20 7 81 293 164 6 154 233 115 
21 7 143 274 72 236 25 96 247 
22 7 98 263 285 43 37 235 24 
23 7 126 159 229 240 208 130 25 
24 7 43 290 251 263 17 275 22 
25 7 236 130 200 126 23 21 159 
26 7 190 34 48 223 257 273 321 
27 7 12 259 41 195 128 30 44 
28 7 90 194 50 237 105 49 158 
29 7 170 138 319 118 317 132 180 
30 7 178 16 301 59 44 259 276 
31 7 38 116 323 141 45 282 254 
32 7 292 205 221 114 13 168 120 
33 7 294 74 321 287 209 215 140 
34 7 223 273 190 26 192 265 74 
35 7 55 239 219 306 209 184 94 
36 7 19 270 79 110 291 148 10 
37 7 263 285 257 235 98 48 22 
38 7 31 323 116 141 282 45 254 
39 6 8 249 191 254 201 323 
40 7 252 158 90 194 318 241 237 
41 7 259 27 12 195 70 16 164 
42 7 61 298 46 271 5 314 212 
43 7 24 263 290 251 22 98 17 
44 7 276 301 203 325 195 133 30 
45 7 116 210 31 38 86 188 323 
46 7 271 314 42 61 298 5 70 
47 7 296 211 282 141 4 267 38 
48 7 257 26 190 37 321 235 140 
49 7 299 228 85 194 160 147 166 
50 7 87 264 151 177 105 28 272 
51 7 207 102 172 282 141 4 254 
52 7 106 200 247 120 130 236 205 
53 7 107 122 174 187 137 54 244 
54 7 174 122 317 180 107 53 144 
55 7 219 35 239 306 209 66 284 
56 7 320 304 77 97 175 88 165 
57 7 95 18 286 315 216 218 289 
58 7 269 185 83 278 189 232 10 
59 7 178 30 16 206 301 325 203 
60 7 199 136 238 279 112 176 262 
61 7 298 42 46 314 5 271 79 
62 6 272 145 105 266 166 147 
63 7 231 262 163 14 136 146 238 
64 7 139 176 76 7 69 93 199 
65 7 243 275 217 302 197 313 73 
66 7 193 171 306 284 184 219 309 
67 7 196 9 124 78 84 253 172 
68 7 131 305 246 100 142 186 316 
69 7 7 280 93 139 176 64 213 
70 7 271 41 16 164 46 259 27 
71 7 156 101 279 112 2 202 82 
72 7 111 161 274 143 21 96 311 
73 7 220 316 157 186 307 65 243 
74 7 294 33 321 273 215 287 223 
75 7 224 96 13 114 274 143 21 
76 7 149 64 190 202 2 139 176 
77 7 97 304 56 320 88 125 175 
78 7 253 303 225 84 109 9 256 
79 7 270 110 36 148 19 61 298 
80 7 173 155 153 244 53 107 135 
81 7 20 293 164 146 163 14 154 
82 7 130 126 159 23 200 156 71 
83 7 185 58 148 261 269 5 212 
84 7 225 253 78 303 109 182 67 
85 7 228 299 49 160 147 166 150 
86 7 188 210 45 116 214 288 31 
87 6 177 264 50 151 283 152 
88 7 97 77 320 56 125 304 246 
89 7 258 99 150 300 252 135 85 
90 7 158 237 28 40 194 241 252 
91 7 128 195 256 12 27 115 233 
92 7 10 232 208 229 278 189 297 
93 7 69 280 7 176 129 213 139 
94 7 287 215 209 198 35 55 219 
95 7 18 57 286 289 165 216 11 
96 7 274 72 143 161 75 21 242 
97 7 77 125 88 304 56 320 3 
98 7 22 285 263 235 37 43 119 
99 7 150 258 89 85 299 49 194 
100 7 246 68 186 131 305 142 197 
101 7 279 71 112 156 202 2 199 
102 7 245 121 172 312 51 191 133 
103 7 123 104 218 204 15 315 131 
104 7 123 15 204 218 103 315 182 
105 7 62 145 166 272 147 50 160 
106 7 52 200 250 130 120 82 236 
107 7 53 122 174 54 187 137 244 
108 7 134 297 189 118 240 278 281 
109 7 225 182 303 253 78 104 84 
110 7 79 270 36 19 314 231 148 
111 7 72 161 311 274 132 281 96 
112 7 202 199 101 279 2 60 176 
113 7 255 295 230 169 181 277 117 
114 7 13 224 32 292 75 205 247 
115 7 154 233 6 322 164 91 20 
116 7 45 31 38 210 188 86 323 
117 7 167 324 169 175 304 255 77 
118 7 138 318 281 108 29 241 297 
119 7 235 285 260 140 257 98 321 
120 7 221 205 52 106 250 32 247 
121 7 312 172 102 245 9 133 51 
122 7 174 187 137 107 53 54 308 
123 7 104 15 103 204 218 315 182 
124 7 196 207 4 267 172 67 51 
125 7 97 77 3 88 304 56 320 
126 7 159 23 82 130 25 229 208 
127 7 242 248 308 161 96 111 72 
128 7 91 195 12 27 259 41 44 
129 7 213 14 93 163 262 280 63 
130 7 200 82 126 25 236 159 23 
131 7 68 305 246 100 142 103 88 
132 7 227 311 170 317 319 54 29 
133 6 245 276 203 44 191 325 
134 7 108 297 189 240 92 229 278 
135 7 300 144 244 180 153 317 319 
136 7 238 262 60 279 63 199 231 
137 7 187 122 308 174 53 107 54 
138 7 118 29 318 170 281 241 108 
139 7 64 176 7 69 93 76 199 
140 7 260 321 119 235 257 33 294 
141 7 282 323 254 38 31 296 51 
142 7 305 68 100 131 186 6 307 
143 7 21 274 72 96 236 25 247 
144 7 180 135 300 317 319 54 244 
145 7 166 147 160 62 105 228 272 
146 7 163 231 63 81 314 271 14 
147 7 166 160 228 145 49 85 299 
148 7 79 185 270 5 261 83 36 
149 7 2 76 202 112 268 250 101 
150 7 99 258 89 85 299 49 228 
151 5 264 283 87 177 266 
152 7 206 177 87 50 212 264 28 
153 7 155 244 135 80 300 144 173 
154 7 115 233 6 322 164 20 91 
155 7 153 244 80 173 135 300 144 
156 7 71 101 279 82 2 112 202 
157 7 307 316 220 186 73 142 293 
158 7 90 237 40 241 252 318 28 
159 7 126 23 82 229 208 130 25 
160 7 147 166 228 85 49 145 299 
161 7 111 72 248 242 311 96 127 
162 7 309 284 171 306 209 66 219 
163 7 14 146 63 129 231 262 81 
164 7 233 154 20 81 115 41 70 
165 7 11 175 286 289 95 18 56 
166 7 147 160 145 228 49 85 105 
167 7 117 324 175 169 11 304 165 
168 6 222 292 198 226 32 221 
169 7 230 255 277 295 117 181 113 
170 7 29 319 138 132 227 311 317 
171 7 66 284 193 309 306 219 162 
172 7 312 121 102 51 207 124 9 
173 7 80 155 153 244 53 107 122 
174 7 122 54 107 187 53 137 227 
175 7 11 165 286 289 304 56 320 
176 7 199 139 64 60 93 112 7 
177 7 264 87 283 151 206 50 152 
178 7 30 59 301 16 325 276 44 
179 3 234 302 43 
180 7 317 144 319 54 135 300 227 
181 6 277 295 230 255 169 113 
182 7 109 15 225 104 204 123 253 
183 7 291 82 208 71 156 229 238 
184 7 239 193 66 306 35 55 219 
185 7 58 83 148 232 278 269 10 
186 7 316 100 197 220 157 307 217 
187 7 137 122 174 308 107 53 54 
188 7 86 210 45 116 31 288 38 
189 7 278 269 297 58 108 134 232 
190 7 26 34 76 223 48 273 257 
191 6 8 39 245 133 102 254 
192 6 265 273 223 268 215 34 
193 7 66 171 306 184 284 309 219 
194 7 299 49 228 28 85 40 160 
195 7 12 27 259 128 44 41 91 
196 7 124 67 207 267 4 172 9 
197 7 217 65 186 243 100 316 220 
198 6 226 222 94 168 287 215 
199 7 60 112 176 279 101 202 2 
200 7 130 236 52 25 106 82 126 
201 6 310 325 203 39 8 249 
202 7 2 112 101 149 199 279 71 
203 6 325 276 301 44 133 201 
204 7 218 315 15 104 216 123 57 
205 7 120 221 32 247 13 52 224 
206 7 177 152 59 283 87 264 178 
207 7 4 267 124 51 196 172 102 
208 7 229 92 159 23 10 232 126 
209 7 219 55 306 35 284 94 309 
210 7 86 188 45 116 31 38 214 
211 7 47 296 116 45 141 38 282 
212 7 261 5 42 298 148 61 83 
213 7 129 14 280 93 163 262 69 
214 4 86 288 188 210 
215 7 287 94 273 74 192 294 223 
216 7 315 57 204 18 95 218 15 
217 7 197 65 243 186 313 302 275 
218 7 204 315 15 104 57 123 216 
219 7 55 306 35 209 239 284 66 
220 7 73 316 157 186 307 197 65 
221 6 120 205 32 250 52 168 
222 6 168 198 226 292 32 221 
223 7 273 34 192 265 74 190 26 
224 7 13 114 75 247 205 32 96 
225 7 253 303 109 78 84 182 256 
226 6 198 222 168 239 35 94 
227 7 132 311 170 317 319 54 174 
228 7 160 49 147 85 166 299 145 
229 7 208 92 159 23 126 10 134 
230 6 169 277 181 295 255 113 
231 7 63 110 262 146 314 163 136 
232 7 10 92 278 185 58 189 19 
233 7 115 154 164 6 41 91 322 
234 3 179 313 3 
235 7 119 285 140 260 98 37 257 
236 7 25 200 130 247 21 52 143 
237 7 90 158 269 28 241 58 83 
238 7 136 60 262 279 63 199 101 
239 7 35 55 219 184 306 209 66 
240 7 23 134 108 281 126 159 25 
241 7 318 158 118 269 189 138 297 
242 7 248 127 161 308 96 111 72 
243 7 65 275 302 217 197 313 251 
244 7 153 135 155 144 300 180 54 
245 7 102 133 191 121 312 8 172 
246 7 68 100 131 305 186 88 142 
247 7 52 236 205 200 13 143 21 
248 7 242 127 161 308 111 96 311 
249 7 39 8 288 254 201 191 323 
250 7 106 268 120 2 52 149 202 
251 7 290 24 17 275 43 243 65 
252 7 40 158 90 318 194 241 99 
253 7 225 303 78 109 84 182 256 
254 7 323 282 141 39 8 38 31 
255 7 113 295 230 169 277 181 117 
256 7 91 303 78 109 253 128 225 
257 7 48 26 37 190 235 140 119 
258 7 89 99 150 85 299 49 300 
259 7 27 12 41 195 128 30 16 
260 7 140 119 235 321 285 33 257 
261 7 212 5 148 83 298 42 61 
262 7 136 63 238 14 60 231 129 
263 7 37 43 22 24 98 17 285 
264 5 283 151 177 87 50 
265 6 192 268 273 223 215 34 
266 3 272 151 62 
267 7 4 207 124 196 51 172 296 
268 7 265 192 250 149 223 34 273 
269 7 58 278 189 185 83 297 232 
270 7 79 36 110 19 148 185 298 
271 7 46 314 42 61 298 70 146 
272 6 62 266 105 145 151 50 
273 7 223 34 192 265 74 215 287 
274 7 143 21 72 96 111 161 236 
275 7 243 65 302 313 251 290 217 
276 6 44 301 203 325 133 178 
277 6 181 230 295 169 255 113 
278 7 189 269 58 232 297 92 185 
279 7 101 112 60 71 199 156 238 
280 7 69 7 93 213 129 139 176 
281 7 118 138 240 108 170 29 134 
282 7 141 323 254 296 38 31 51 
283 5 264 177 151 87 206 
284 7 309 171 306 162 66 193 219 
285 7 235 119 98 22 37 263 260 
286 7 289 18 95 165 11 57 175 
287 7 215 94 74 273 294 192 223 
288 4 249 188 214 86 
289 7 286 18 11 165 95 175 57 
290 7 251 24 275 17 43 243 65 
291 7 19 36 183 10 92 232 208 
292 7 32 168 114 222 205 13 221 
293 7 81 20 307 163 157 164 146 
294 7 74 33 321 273 215 287 223 
295 6 255 113 181 230 277 169 
296 7 282 141 47 323 211 38 51 
297 7 108 134 189 278 92 269 118 
298 7 61 42 46 5 314 271 79 
299 7 49 85 228 194 160 147 166 
300 7 135 144 180 244 317 319 89 
301 6 276 44 325 203 178 30 
302 7 313 275 243 65 217 197 251 
303 7 253 78 225 109 84 256 182 
304 7 56 320 77 97 175 165 88 
305 7 68 131 142 246 100 322 186 
306 7 219 55 66 284 171 209 35 
307 7 157 316 220 186 73 142 293 
308 7 187 137 248 122 242 127 174 
309 7 284 162 171 306 66 209 219 
310 6 201 325 249 203 39 8 
311 7 132 227 111 170 161 29 319 
312 7 121 172 102 9 245 51 133 
313 6 302 275 65 243 217 197 
314 7 46 61 271 298 42 110 79 
315 7 204 218 15 216 57 104 95 
316 7 186 220 157 307 73 197 100 
317 7 180 319 144 54 227 170 132 
318 7 241 118 138 158 29 108 297 
319 7 317 180 29 170 144 227 132 
320 7 56 304 77 88 97 175 165 
321 7 140 294 33 74 26 260 257 
322 7 6 154 115 142 233 305 20 
323 7 254 141 38 282 31 39 249 
324 7 167 11 175 117 165 289 286 
325 6 203 276 301 44 178 133 
DEPOT_SECTION
   1
   -1
EOF
