NAME :  X-n336-kX-w67-c9.cctp
COMMENT : 	Adapted by Maziero, Usberti and Cavellucci from the Uchoa, Pecin, Pessoa, Poggi, Subramanian, and Vidal (2013)
TYPE :  CCTP
DIMENSION :    308
EDGE_WEIGHT_TYPE : 	EUC_2D	
CAPACITY : 	203
VERTICES_WITHIN_COVERAGE :  9
VERTICES_WITH_DEMAND : 	67
NODE_COORD_SECTION
1 0 0
2 365 689
3 146 180
4 792 5
5 658 510
6 461 270
7 299 531
8 812 228
9 643 90
10 615 630
11 258 42
12 616 299
13 475 957
14 425 473
15 406 64
16 656 369
17 202 467
18 318 21
19 579 587
20 458 354
21 575 871
22 47 512
23 568 742
24 128 436
25 546 806
26 197 696
27 615 300
28 852 563
29 772 803
30 678 342
31 916 176
32 390 949
33 113 782
34 226 736
35 119 923
36 584 572
37 134 554
38 912 173
39 827 233
40 851 677
41 598 322
42 627 472
43 94 442
44 688 274
45 977 176
46 597 461
47 931 23
48 170 640
49 941 601
50 873 487
51 797 95
52 451 816
53 866 970
54 833 912
55 106 913
56 260 107
57 332 45
58 685 613
59 728 372
60 407 590
61 619 484
62 966 483
63 482 512
64 278 599
65 213 330
66 37 932
67 643 10
68 341 241
69 302 521
70 593 382
71 438 686
72 637 885
73 277 382
74 152 776
75 546 999
76 288 665
77 232 131
78 563 66
79 602 547
80 996 983
81 464 377
82 502 727
83 691 574
84 535 4
85 975 616
86 974 242
87 853 459
88 263 163
89 967 740
90 810 617
91 580 226
92 615 656
93 346 526
94 172 867
95 319 35
96 602 946
97 224 146
98 48 527
99 970 693
100 314 262
101 413 661
102 756 147
103 381 139
104 421 100
105 930 522
106 440 792
107 862 962
108 493 72
109 573 541
110 668 884
111 380 646
112 457 991
113 511 272
114 960 171
115 150 61
116 721 754
117 56 633
118 389 853
119 700 137
120 823 958
121 422 111
122 727 12
123 203 178
124 548 744
125 610 239
126 396 478
127 509 773
128 347 219
129 754 887
130 717 223
131 909 845
132 451 575
133 806 992
134 740 770
135 291 583
136 74 690
137 8 248
138 877 132
139 379 284
140 574 881
141 871 854
142 987 529
143 509 440
144 976 565
145 644 554
146 325 696
147 969 681
148 888 425
149 782 490
150 974 885
151 502 280
152 992 909
153 440 691
154 806 649
155 552 728
156 980 576
157 26 841
158 463 459
159 526 344
160 268 49
161 979 559
162 156 39
163 303 960
164 85 110
165 760 825
166 28 910
167 725 93
168 987 998
169 827 937
170 253 53
171 342 592
172 833 437
173 705 344
174 35 318
175 839 857
176 462 46
177 72 981
178 660 595
179 806 978
180 954 238
181 679 664
182 223 692
183 783 211
184 258 807
185 29 943
186 901 617
187 634 276
188 711 6
189 253 301
190 229 917
191 379 611
192 494 796
193 804 306
194 366 672
195 739 275
196 390 64
197 421 896
198 773 430
199 33 185
200 780 36
201 583 683
202 102 872
203 999 222
204 991 56
205 687 500
206 381 463
207 52 296
208 188 834
209 373 15
210 240 295
211 379 73
212 94 905
213 291 368
214 365 875
215 281 949
216 222 763
217 487 965
218 217 975
219 767 889
220 966 590
221 584 689
222 52 118
223 513 513
224 626 630
225 528 291
226 61 262
227 67 613
228 528 819
229 776 606
230 453 584
231 113 947
232 619 771
233 207 338
234 930 890
235 740 183
236 313 231
237 487 874
238 857 247
239 376 774
240 168 409
241 855 702
242 543 56
243 846 172
244 548 157
245 153 638
246 987 721
247 619 306
248 31 683
249 681 520
250 445 533
251 117 505
252 860 428
253 265 809
254 947 417
255 791 3
256 305 771
257 697 637
258 599 555
259 595 439
260 952 464
261 217 775
262 585 895
263 185 344
264 710 275
265 22 136
266 668 648
267 423 637
268 318 490
269 763 274
270 686 796
271 870 128
272 845 405
273 37 883
274 59 581
275 292 22
276 905 295
277 285 15
278 159 409
279 556 616
280 370 988
281 436 374
282 143 772
283 897 75
284 621 485
285 942 616
286 900 816
287 707 297
288 170 312
289 541 76
290 244 104
291 367 241
292 71 908
293 32 869
294 812 318
295 731 882
296 701 119
297 170 285
298 577 478
299 377 59
300 823 859
301 760 716
302 809 837
303 269 109
304 112 726
305 454 247
306 873 167
307 205 18
308 738 287
DEMAND_SECTION
2 48
3 63
4 27
5 66
6 86
7 14
8 26
9 47
10 66
11 85
12 22
13 30
14 89
15 51
16 11
17 82
18 92
19 85
20 51
21 90
22 6
23 68
24 73
25 94
26 7
27 12
28 70
29 97
30 41
31 30
32 8
33 11
34 25
35 10
36 75
37 17
38 36
39 6
40 54
41 12
42 30
43 94
44 30
45 27
46 41
47 25
48 41
49 72
50 39
51 32
52 35
53 68
54 68
55 9
56 90
57 56
58 95
59 41
60 39
61 18
62 8
63 16
64 37
65 82
66 26
67 14
68 66
COVERAGE_SECTION
2 9 194 146 111 101 71 153 267 191 76 
3 9 123 97 164 77 297 199 222 88 226 
4 9 255 200 122 188 51 167 283 47 102 
5 9 249 205 284 145 61 42 79 83 258 
6 9 305 151 113 225 139 20 159 291 81 
7 9 69 268 93 135 64 171 206 126 191 
8 9 39 183 238 243 269 193 235 306 195 
9 9 296 119 67 167 78 289 242 188 122 
10 9 224 92 19 266 178 279 201 36 221 
11 9 160 170 277 275 307 95 18 290 56 
12 9 27 247 41 187 125 30 44 16 91 
13 9 217 112 197 75 237 32 280 140 262 
14 9 126 158 206 250 63 143 93 223 281 
15 9 196 211 299 104 121 176 209 57 103 
16 9 30 173 70 59 247 41 27 12 287 
17 9 240 278 24 251 37 43 73 69 7 
18 9 95 275 57 277 209 160 11 299 170 
19 9 36 279 258 79 109 10 224 145 92 
20 9 81 281 159 6 151 225 113 143 158 
21 8 140 262 72 228 25 96 237 110 
22 9 98 251 274 43 37 227 24 117 278 
23 8 124 155 221 232 201 127 25 82 
24 9 43 278 240 251 17 263 22 37 98 
25 9 228 127 192 124 23 21 155 140 232 
26 9 182 34 48 216 245 261 304 74 282 
27 9 12 247 41 187 125 30 44 16 91 
28 9 90 186 50 229 105 49 154 149 87 
29 9 165 134 302 116 300 129 175 219 270 
30 9 173 16 287 59 44 247 264 12 27 
31 9 38 114 306 138 45 271 243 180 86 
32 9 280 197 214 112 13 163 118 217 215 
33 8 282 74 304 202 208 136 94 261 
34 9 216 261 182 26 184 253 74 256 282 
35 9 55 231 212 292 202 177 94 66 273 
36 9 19 258 79 109 279 145 10 224 178 
37 9 251 274 245 227 98 48 22 17 117 
38 9 31 306 114 138 271 45 243 180 238 
39 9 8 238 183 243 269 193 306 294 195 
40 8 241 154 90 186 301 229 285 28 
41 9 247 27 12 187 70 16 159 225 30 
42 9 61 284 46 259 5 298 205 249 79 
43 9 24 251 278 240 22 98 17 37 263 
44 9 264 287 195 308 187 130 30 173 269 
45 9 114 203 31 38 86 180 306 138 271 
46 9 259 298 42 61 284 5 70 109 79 
47 9 283 204 271 138 4 255 38 114 51 
48 9 245 26 182 37 304 227 136 34 117 
49 9 285 220 85 186 156 144 161 105 142 
50 9 87 252 148 172 105 28 260 272 149 
51 9 200 102 167 271 138 4 243 255 296 
52 9 106 192 237 118 127 228 197 239 25 
53 8 107 120 169 179 133 54 234 141 
54 9 169 120 300 175 107 53 141 219 179 
55 9 212 35 231 292 202 66 273 177 166 
56 9 303 290 77 97 170 88 160 11 123 
57 9 95 18 275 299 209 211 277 196 160 
58 9 257 178 83 266 181 224 10 145 92 
59 9 173 30 16 198 287 308 195 264 294 
60 9 191 132 230 267 111 171 250 101 93 
61 9 284 42 46 298 5 259 79 205 249 
62 8 260 142 105 254 161 144 50 156 
63 9 223 250 158 14 132 143 230 126 109 
64 9 135 171 76 7 69 93 191 146 182 
65 9 233 263 210 288 189 297 73 213 240 
66 9 185 166 292 273 177 212 293 55 231 
67 9 188 9 122 78 84 242 167 289 296 
68 7 128 291 236 100 139 189 88 
69 9 7 268 93 135 171 64 206 126 17 
70 9 259 41 16 159 46 247 27 12 30 
71 8 153 101 267 111 2 194 82 191 
72 7 110 262 140 21 96 295 270 
73 5 213 65 233 189 210 
74 8 282 33 304 261 208 216 34 26 
75 7 217 96 13 112 262 140 21 
76 9 146 64 182 194 2 135 171 34 111 
77 9 97 290 56 303 88 123 170 160 11 
78 8 242 289 84 108 9 244 67 176 
79 9 258 109 36 145 19 61 284 5 298 
80 9 168 152 150 234 53 107 131 120 169 
81 9 20 281 159 143 158 14 151 6 225 
82 8 127 124 155 23 192 153 71 25 
83 9 178 58 145 249 257 5 205 266 224 
84 8 242 78 289 108 176 67 9 15 
85 9 220 285 49 156 144 161 147 186 99 
86 7 180 203 45 114 276 31 38 
87 8 172 252 50 148 272 149 198 105 
88 9 97 77 303 56 123 290 236 128 68 
89 9 246 99 147 286 241 131 85 285 40 
90 8 154 229 28 40 186 241 301 257 
91 9 125 187 244 12 27 113 225 247 151 
92 7 10 224 201 221 266 181 279 
93 9 69 268 7 171 126 206 135 60 191 
94 8 208 202 190 35 55 212 74 231 
95 9 18 57 275 277 160 209 11 299 170 
96 6 262 72 140 75 21 110 
97 9 77 123 88 290 56 303 3 170 160 
98 9 22 274 251 227 37 43 117 24 245 
99 9 147 246 89 85 285 49 186 220 241 
100 7 236 68 128 291 139 189 210 
101 9 267 71 111 153 194 2 191 60 230 
102 9 235 119 167 296 51 183 130 243 8 
103 9 121 104 211 196 15 299 128 291 57 
104 9 121 15 196 211 103 299 176 108 209 
105 9 62 142 161 260 144 50 156 220 49 
106 9 52 192 239 127 118 82 228 237 153 
107 9 53 120 169 54 179 133 234 175 141 
108 8 176 289 242 78 104 84 121 15 
109 9 79 258 36 19 298 223 145 61 284 
110 7 72 295 262 129 270 96 21 
111 9 194 191 101 267 2 60 171 71 146 
112 9 13 217 32 280 75 197 237 214 96 
113 9 151 225 6 305 159 91 20 41 125 
114 9 45 31 38 203 180 86 306 138 271 
115 8 162 307 164 170 290 77 11 97 
116 5 134 301 270 29 165 
117 9 227 274 248 136 245 98 304 37 48 
118 8 214 197 52 106 239 32 237 256 
119 9 296 167 102 235 9 130 51 183 122 
120 8 169 179 133 107 53 54 219 129 
121 9 104 15 103 196 211 299 176 108 209 
122 9 188 200 4 255 167 67 51 296 9 
123 9 97 77 3 88 290 56 303 297 236 
124 9 155 23 82 127 25 221 201 192 232 
125 9 91 187 12 27 247 41 44 225 244 
126 9 206 14 93 158 250 268 63 69 7 
127 9 192 82 124 25 228 155 23 52 106 
128 8 68 291 236 100 139 103 88 305 
129 9 219 295 165 300 302 54 29 110 169 
130 9 235 264 195 44 183 308 269 287 102 
131 9 286 141 234 175 150 300 302 54 152 
132 8 230 250 60 267 63 191 223 101 
133 7 179 120 169 53 107 54 219 
134 6 116 29 301 165 270 302 
135 9 64 171 7 69 93 76 191 268 111 
136 9 248 304 117 227 245 33 282 48 274 
137 7 226 207 199 174 265 222 3 
138 9 271 306 243 38 31 283 51 114 45 
139 7 291 68 100 128 6 305 236 
140 8 21 262 72 96 228 25 237 110 
141 9 175 131 286 300 302 54 234 169 107 
142 9 161 144 156 62 105 220 260 49 85 
143 9 158 223 63 81 298 259 14 46 159 
144 9 161 156 220 142 49 85 285 105 62 
145 9 79 178 258 5 249 83 36 205 58 
146 9 2 76 194 111 256 239 101 191 182 
147 9 99 246 89 85 285 49 220 186 156 
148 6 252 272 87 172 254 50 
149 9 198 172 87 50 205 252 28 249 272 
150 9 152 234 131 80 286 141 168 107 53 
151 9 113 225 6 305 159 20 91 81 41 
152 9 150 234 80 168 131 286 141 53 107 
153 8 71 101 267 82 2 111 194 106 
154 8 90 229 40 241 301 28 186 257 
155 8 124 23 82 221 201 127 25 232 
156 9 144 161 220 85 49 142 285 105 186 
157 9 293 273 166 292 202 66 212 185 33 
158 9 14 143 63 126 223 250 81 206 281 
159 9 225 151 20 81 113 41 70 281 143 
160 9 11 170 275 277 95 18 56 290 303 
161 9 144 156 142 220 49 85 105 285 62 
162 8 115 307 170 164 11 290 160 77 
163 8 215 280 190 218 32 214 197 118 
164 5 222 265 115 199 3 
165 9 29 302 134 129 219 295 300 270 116 
166 9 66 273 185 293 292 212 157 55 202 
167 9 296 119 102 51 200 122 9 188 235 
168 9 80 152 150 234 53 107 120 169 131 
169 9 120 54 107 179 53 133 219 300 175 
170 9 11 160 275 277 290 56 303 307 95 
171 9 191 135 64 60 93 111 7 69 194 
172 7 252 87 272 148 198 50 149 
173 9 30 59 287 16 308 264 44 195 269 
174 8 207 226 137 199 288 43 297 24 
175 9 300 141 302 54 131 286 219 169 165 
176 8 108 15 104 196 121 242 84 289 
177 9 231 185 66 292 35 55 212 166 273 
178 9 58 83 145 224 266 257 10 181 258 
179 8 133 120 169 107 53 54 219 129 
180 7 86 203 45 114 31 276 38 
181 6 266 257 58 224 92 10 
182 9 26 34 76 216 48 261 245 146 64 
183 9 8 39 235 269 130 102 243 195 238 
184 7 253 261 216 256 208 34 94 
185 9 66 166 292 177 273 293 212 55 231 
186 9 285 49 220 28 85 40 156 90 144 
187 9 12 27 247 125 44 41 91 264 287 
188 9 122 67 200 255 4 167 9 296 51 
189 7 210 65 233 100 213 263 73 
190 7 218 215 94 163 208 35 184 
191 9 60 111 171 267 101 194 2 230 132 
192 9 127 228 52 25 106 82 124 237 155 
193 9 294 269 308 195 39 8 238 183 287 
194 9 2 111 101 146 191 267 71 153 76 
195 9 308 269 264 287 44 130 193 173 183 
196 9 211 299 15 104 209 121 57 176 103 
197 9 118 214 32 237 13 52 217 112 280 
198 9 172 149 59 272 87 252 173 205 50 
199 7 265 137 222 226 164 3 207 
200 9 4 255 122 51 188 167 102 296 283 
201 8 221 92 155 23 10 224 124 279 
202 9 212 55 292 35 273 94 293 231 157 
203 7 86 180 45 114 31 38 276 
204 9 47 283 114 45 138 38 271 31 306 
205 9 249 5 42 284 145 61 83 149 79 
206 8 126 14 268 93 158 250 69 281 
207 8 174 226 137 199 288 297 263 3 
208 8 94 261 74 184 282 216 253 33 
209 9 299 57 196 18 95 211 15 275 277 
210 7 189 65 233 297 288 263 100 
211 9 196 299 15 104 57 121 209 103 95 
212 9 55 292 35 202 231 273 66 166 293 
213 5 73 189 65 210 233 
214 8 118 197 32 239 52 163 106 215 
215 8 163 190 218 280 32 214 94 253 
216 9 261 34 184 253 74 182 26 208 282 
217 9 13 112 75 237 197 32 96 280 262 
218 7 190 215 163 231 35 94 55 
219 9 129 295 165 300 302 54 169 175 29 
220 9 156 49 144 85 161 285 142 186 105 
221 8 201 92 155 23 124 10 224 279 
222 5 164 265 199 3 115 
223 9 63 109 250 143 298 158 132 36 230 
224 9 10 92 266 178 58 181 19 201 257 
225 9 113 151 159 6 41 91 305 27 12 
226 8 207 137 174 199 297 3 288 265 
227 9 117 274 136 248 98 37 245 22 48 
228 9 25 192 127 237 21 52 140 124 23 
229 8 90 154 257 28 58 83 40 301 
230 8 132 60 250 267 63 191 101 223 
231 9 35 55 212 177 292 202 66 185 166 
232 6 23 270 124 155 25 221 
233 9 65 263 288 210 189 297 240 73 278 
234 9 150 131 152 141 286 175 54 107 53 
235 9 102 130 183 119 296 8 167 195 269 
236 8 68 100 128 291 88 139 189 210 
237 9 52 228 197 192 13 140 21 25 217 
238 9 39 8 276 243 193 183 306 294 31 
239 9 106 256 118 2 52 146 194 214 153 
240 9 278 24 17 263 43 233 65 288 251 
241 8 40 154 90 301 186 99 147 89 
242 8 289 78 108 84 176 244 9 67 
243 9 306 271 138 39 8 38 31 183 238 
244 8 91 289 78 108 242 125 9 113 
245 9 48 26 37 182 227 136 117 304 274 
246 9 89 99 147 85 285 49 286 220 241 
247 9 27 12 41 187 125 30 16 44 70 
248 9 136 117 227 304 274 33 245 282 48 
249 9 205 5 145 83 284 42 61 178 79 
250 9 132 63 230 14 60 223 126 158 206 
251 9 37 43 22 24 98 17 274 278 240 
252 6 272 148 172 87 50 198 
253 7 184 256 261 216 208 34 94 
254 4 260 148 62 252 
255 9 4 200 122 188 51 167 283 47 296 
256 8 253 184 239 146 216 34 261 2 
257 7 58 266 181 178 83 224 10 
258 9 79 36 109 19 145 178 284 5 61 
259 9 46 298 42 61 284 70 143 16 5 
260 7 62 254 105 142 148 50 87 
261 8 216 34 184 253 74 208 282 26 
262 8 140 21 72 96 110 228 25 237 
263 9 233 65 288 297 240 278 210 189 73 
264 9 44 287 195 308 130 269 173 30 187 
265 5 222 199 164 137 3 
266 7 181 257 58 224 92 178 10 
267 9 101 111 60 71 191 153 230 194 132 
268 9 69 7 93 206 126 135 171 14 64 
269 9 195 308 193 264 287 183 294 8 130 
270 7 116 134 232 165 29 110 295 
271 9 138 306 243 283 38 31 51 114 39 
272 6 252 172 148 87 198 50 
273 9 293 166 292 157 66 185 212 202 55 
274 9 227 117 98 22 37 251 248 136 245 
275 9 277 18 95 160 11 57 170 209 307 
276 5 238 180 86 294 39 
277 9 275 18 11 160 95 170 57 307 209 
278 9 240 24 263 17 43 233 65 288 251 
279 8 19 36 10 92 224 201 258 109 
280 9 32 163 112 215 197 13 214 217 118 
281 7 81 20 158 159 143 14 206 
282 8 74 33 304 261 208 216 34 26 
283 9 271 138 47 306 204 38 51 31 243 
284 9 61 42 46 5 298 259 79 205 249 
285 9 49 85 220 186 156 144 161 147 99 
286 9 131 141 175 234 300 302 89 150 54 
287 9 264 44 308 195 173 30 269 130 187 
288 8 297 263 233 65 210 189 240 278 
289 8 242 78 108 84 244 176 9 67 
290 9 56 303 77 97 170 160 88 11 123 
291 8 68 128 139 236 100 305 6 103 
292 9 212 55 66 273 166 202 35 185 293 
293 9 273 157 166 292 66 202 212 185 55 
294 8 193 269 308 238 195 39 8 272 
295 8 129 219 110 165 29 302 72 300 
296 9 119 167 102 9 235 51 130 122 188 
297 8 288 263 65 233 210 189 3 226 
298 9 46 61 259 284 42 109 79 223 143 
299 9 196 211 15 209 57 104 95 121 18 
300 9 175 302 141 54 219 165 129 29 169 
301 6 116 134 154 29 181 241 
302 9 300 175 29 165 141 219 129 54 295 
303 9 56 290 77 88 97 170 160 11 95 
304 9 136 282 33 74 26 248 245 48 117 
305 9 6 151 113 139 225 291 20 128 68 
306 9 243 138 38 271 31 39 238 8 114 
307 9 162 11 170 115 160 277 275 290 56 
308 9 195 269 264 287 44 173 130 193 294 
DEPOT_SECTION
   1
   -1
EOF
