NAME :  X-n336-kX-w33-c7.cctp
COMMENT : 	Adapted by Maziero, Usberti and Cavellucci from the Uchoa, Pecin, Pessoa, Poggi, Subramanian, and Vidal (2013)
TYPE :  CCTP
DIMENSION :    193
EDGE_WEIGHT_TYPE : 	EUC_2D	
CAPACITY : 	203
VERTICES_WITHIN_COVERAGE :  7
VERTICES_WITH_DEMAND : 	33
NODE_COORD_SECTION
1 0 0
2 365 689
3 146 180
4 792 5
5 658 510
6 461 270
7 299 531
8 812 228
9 643 90
10 615 630
11 258 42
12 616 299
13 475 957
14 425 473
15 406 64
16 656 369
17 202 467
18 318 21
19 579 587
20 458 354
21 575 871
22 47 512
23 568 742
24 128 436
25 546 806
26 197 696
27 615 300
28 852 563
29 772 803
30 678 342
31 916 176
32 390 949
33 113 782
34 226 736
35 584 572
36 134 554
37 912 173
38 827 233
39 598 322
40 627 472
41 94 442
42 688 274
43 977 176
44 597 461
45 931 23
46 170 640
47 873 487
48 797 95
49 332 45
50 685 613
51 728 372
52 619 484
53 482 512
54 278 599
55 643 10
56 302 521
57 593 382
58 438 686
59 637 885
60 152 776
61 546 999
62 288 665
63 563 66
64 602 547
65 464 377
66 502 727
67 691 574
68 974 242
69 810 617
70 580 226
71 615 656
72 346 526
73 319 35
74 602 946
75 224 146
76 48 527
77 413 661
78 381 139
79 421 100
80 573 541
81 380 646
82 457 991
83 511 272
84 960 171
85 721 754
86 389 853
87 700 137
88 422 111
89 727 12
90 203 178
91 548 744
92 610 239
93 396 478
94 509 773
95 754 887
96 740 770
97 291 583
98 74 690
99 877 132
100 379 284
101 574 881
102 509 440
103 644 554
104 325 696
105 782 490
106 502 280
107 440 691
108 806 649
109 552 728
110 463 459
111 526 344
112 268 49
113 156 39
114 303 960
115 760 825
116 725 93
117 253 53
118 342 592
119 705 344
120 462 46
121 660 595
122 954 238
123 223 692
124 783 211
125 258 807
126 901 617
127 634 276
128 711 6
129 379 611
130 494 796
131 804 306
132 366 672
133 390 64
134 421 896
135 780 36
136 583 683
137 999 222
138 687 500
139 381 463
140 373 15
141 379 73
142 365 875
143 281 949
144 222 763
145 487 965
146 584 689
147 626 630
148 528 291
149 61 262
150 528 819
151 776 606
152 619 771
153 740 183
154 487 874
155 857 247
156 376 774
157 168 409
158 846 172
159 153 638
160 619 306
161 31 683
162 681 520
163 445 533
164 117 505
165 265 809
166 791 3
167 305 771
168 599 555
169 217 775
170 585 895
171 318 490
172 686 796
173 870 128
174 59 581
175 292 22
176 285 15
177 159 409
178 556 616
179 370 988
180 436 374
181 143 772
182 621 485
183 707 297
184 812 318
185 731 882
186 701 119
187 377 59
188 760 716
189 809 837
190 112 726
191 454 247
192 873 167
193 205 18
DEMAND_SECTION
2 48
3 63
4 27
5 66
6 86
7 14
8 26
9 47
10 66
11 85
12 22
13 30
14 89
15 51
16 11
17 82
18 92
19 85
20 51
21 90
22 6
23 68
24 73
25 94
26 7
27 12
28 70
29 97
30 41
31 30
32 8
33 11
34 25
COVERAGE_SECTION
2 6 132 104 81 77 58 107 
3 2 90 75 
4 6 166 135 89 128 48 116 
5 7 162 138 182 103 52 40 64 
6 7 191 106 83 148 100 20 111 
7 7 56 171 72 97 54 118 139 
8 6 38 124 155 158 131 153 
9 5 186 87 55 116 63 
10 6 147 71 19 121 178 136 
11 7 112 117 176 175 193 73 18 
12 7 27 160 39 127 92 30 42 
13 7 145 82 134 61 154 32 179 
14 7 93 110 139 163 53 102 72 
15 7 133 141 187 79 88 120 140 
16 7 30 119 57 51 160 39 27 
17 6 157 177 24 164 36 41 
18 7 73 175 49 176 140 112 11 
19 7 35 178 168 64 80 10 147 
20 7 65 180 111 6 106 148 83 
21 7 101 170 59 150 25 74 154 
22 6 76 164 174 41 36 24 
23 7 91 109 146 152 136 94 25 
24 6 41 177 157 164 17 22 
25 7 150 94 130 91 23 21 109 
26 7 123 34 46 144 159 169 190 
27 7 12 160 39 127 92 30 42 
28 5 69 126 47 151 108 
29 5 115 96 189 85 95 
30 6 119 16 183 51 42 160 
31 7 37 84 192 99 43 173 158 
32 7 179 134 142 82 13 114 86 
33 4 181 60 190 98 
34 7 144 169 123 26 125 165 60 
35 7 19 168 64 80 178 103 10 
36 6 164 174 159 76 46 22 
37 7 31 192 84 99 173 43 158 
38 6 8 155 124 158 131 192 
39 7 160 27 12 127 57 16 111 
40 5 52 182 44 5 138 
41 7 24 164 177 157 22 76 17 
42 3 183 127 30 
43 7 84 137 31 37 68 122 192 
44 5 40 52 182 5 57 
45 5 173 99 4 166 37 
46 6 159 26 123 36 190 98 
47 1 28 
48 6 135 116 173 99 4 158 
49 7 73 18 175 187 140 141 176 
50 4 121 67 147 10 
51 4 119 30 16 183 
52 5 182 40 44 5 64 
53 4 163 110 14 102 
54 7 97 118 62 7 56 72 129 
55 5 128 9 89 63 116 
56 7 7 171 72 97 118 54 139 
57 6 39 16 111 44 160 27 
58 6 107 77 81 2 132 66 
59 5 170 101 21 74 185 
60 5 181 33 190 169 144 
61 7 145 74 13 82 170 101 21 
62 7 104 54 123 132 2 97 118 
63 1 9 
64 7 168 80 35 103 19 52 182 
65 7 20 180 111 102 110 14 106 
66 7 94 91 109 23 130 107 58 
67 6 121 50 103 162 5 138 
68 5 122 137 43 84 31 
69 4 108 151 28 126 
70 6 92 127 12 27 83 148 
71 4 10 147 136 146 
72 7 56 171 7 118 93 139 97 
73 7 18 49 175 176 112 140 11 
74 5 170 59 101 61 21 
75 2 90 3 
76 5 22 174 164 36 41 
77 6 58 81 107 132 2 129 
78 6 88 79 141 133 15 187 
79 7 88 15 133 141 78 187 120 
80 5 64 168 35 19 103 
81 5 132 129 77 2 118 
82 7 13 145 32 179 61 134 154 
83 7 106 148 6 191 111 70 20 
84 7 43 31 37 137 122 68 192 
85 4 96 188 172 29 
86 5 142 134 156 32 154 
87 5 186 116 153 9 48 
88 7 79 15 78 133 141 187 120 
89 7 128 135 4 166 116 55 48 
90 2 75 3 
91 7 109 23 66 94 25 146 136 
92 7 70 127 12 27 160 39 42 
93 7 139 14 72 110 163 171 53 
94 7 130 66 91 25 150 109 23 
95 4 185 115 189 29 
96 5 85 29 188 115 172 
97 7 54 118 7 56 72 62 129 
98 5 161 190 159 33 181 
99 6 173 192 158 37 31 48 
100 1 6 
101 7 21 170 59 74 150 25 154 
102 4 110 53 65 14 
103 7 64 121 168 5 162 67 35 
104 7 2 62 132 81 167 156 77 
105 3 47 138 28 
106 7 83 148 6 191 111 20 70 
107 6 58 77 66 2 81 132 
108 4 69 151 188 28 
109 7 91 23 66 146 136 94 25 
110 6 14 102 53 93 163 65 
111 7 148 106 20 65 83 39 57 
112 6 11 117 175 176 73 18 
113 4 193 117 11 112 
114 4 143 179 32 142 
115 5 29 189 96 95 185 
116 6 186 87 48 135 89 9 
117 4 11 112 175 176 
118 6 129 97 54 72 81 7 
119 5 30 51 183 16 42 
120 4 15 79 133 88 
121 5 50 67 103 147 10 
122 6 68 137 43 84 31 37 
123 7 26 34 62 144 46 169 159 
124 4 8 38 153 158 
125 5 165 169 144 167 34 
126 1 28 
127 7 12 27 160 92 42 39 70 
128 7 89 55 135 166 4 116 9 
129 5 81 118 77 132 2 
130 5 94 150 25 66 91 
131 4 184 38 8 155 
132 6 2 81 77 104 129 58 
133 7 141 187 15 79 140 88 49 
134 6 86 142 32 154 13 145 
135 6 4 166 89 48 128 116 
136 7 146 71 109 23 10 147 91 
137 6 68 122 43 84 31 37 
138 7 162 5 40 182 103 52 67 
139 7 93 14 171 72 110 163 56 
140 7 187 49 133 18 73 141 15 
141 7 133 187 15 79 49 88 140 
142 5 86 134 32 156 114 
143 4 114 179 32 142 
144 7 169 34 125 165 60 123 26 
145 7 13 82 61 154 134 32 74 
146 6 136 71 109 23 91 10 
147 5 10 71 121 50 19 
148 7 83 106 111 6 39 70 191 
149 1 3 
150 6 25 130 94 154 21 101 
151 5 69 108 28 50 67 
152 5 23 172 91 109 25 
153 5 124 87 186 8 116 
154 6 150 134 130 13 101 21 
155 6 38 8 158 131 124 192 
156 5 167 86 2 104 132 
157 4 177 24 17 41 
158 7 192 173 99 38 8 37 31 
159 5 46 26 36 123 98 
160 7 27 12 39 127 92 30 16 
161 5 98 190 174 33 159 
162 7 138 5 103 67 182 40 52 
163 3 53 14 93 
164 7 36 41 22 24 76 17 174 
165 5 125 167 169 144 34 
166 6 4 135 89 128 48 116 
167 7 165 125 156 104 144 34 169 
168 7 64 35 80 19 103 121 182 
169 5 144 34 125 165 60 
170 5 101 21 59 74 150 
171 7 56 7 72 139 93 97 118 
172 5 85 96 152 115 29 
173 6 99 192 158 37 31 48 
174 5 76 22 36 164 161 
175 7 176 18 73 112 11 49 117 
176 7 175 18 11 112 73 117 49 
177 4 157 24 17 41 
178 6 19 35 10 71 147 136 
179 7 32 114 82 143 134 13 142 
180 5 65 20 110 111 102 
181 5 60 33 190 169 144 
182 5 52 40 44 5 64 
183 3 42 119 30 
184 4 131 155 38 8 
185 4 95 115 29 189 
186 5 87 116 9 153 48 
187 7 133 141 15 140 49 79 73 
188 4 85 96 108 29 
189 3 29 115 95 
190 7 98 181 33 60 26 161 159 
191 6 6 106 83 100 148 20 
192 7 158 99 37 173 31 38 155 
193 6 113 11 117 112 176 175 
DEPOT_SECTION
   1
   -1
EOF
