NAME :  X-n331-kX-w132-c11.cctp
COMMENT : 	Adapted by Maziero, Usberti and Cavellucci from the Uchoa, Pecin, Pessoa, Poggi, Subramanian, and Vidal (2013)
TYPE :  CCTP
DIMENSION :    331
EDGE_WEIGHT_TYPE : 	EUC_2D	
CAPACITY : 	23
VERTICES_WITHIN_COVERAGE :  11
VERTICES_WITH_DEMAND : 	132
NODE_COORD_SECTION
1 0 0
2 2 857
3 407 102
4 915 965
5 797 45
6 997 241
7 650 683
8 748 248
9 99 174
10 2 545
11 277 689
12 568 771
13 76 105
14 117 973
15 171 971
16 327 183
17 277 697
18 269 246
19 670 18
20 51 901
21 951 696
22 710 102
23 61 465
24 348 606
25 551 243
26 524 793
27 89 582
28 900 748
29 235 368
30 122 587
31 449 781
32 970 38
33 362 490
34 742 267
35 289 115
36 898 957
37 996 922
38 951 633
39 713 779
40 603 247
41 402 363
42 143 0
43 274 608
44 81 422
45 550 408
46 43 699
47 482 575
48 909 254
49 613 37
50 202 575
51 297 297
52 736 288
53 464 127
54 499 491
55 635 531
56 796 328
57 184 941
58 641 824
59 863 673
60 396 950
61 555 631
62 664 966
63 301 260
64 425 990
65 559 746
66 431 827
67 724 472
68 847 51
69 888 721
70 136 331
71 859 627
72 206 5
73 429 381
74 798 918
75 886 684
76 123 488
77 779 445
78 764 43
79 938 743
80 800 398
81 734 20
82 211 678
83 601 545
84 512 403
85 796 106
86 644 810
87 416 973
88 115 435
89 667 91
90 395 941
91 374 546
92 546 191
93 754 255
94 124 588
95 423 929
96 314 637
97 668 268
98 321 786
99 960 423
100 11 499
101 721 692
102 803 584
103 337 475
104 806 773
105 429 478
106 214 547
107 361 166
108 944 218
109 12 468
110 527 255
111 789 724
112 250 862
113 892 896
114 545 806
115 832 12
116 628 495
117 194 884
118 395 309
119 655 39
120 558 175
121 247 947
122 36 394
123 877 451
124 599 724
125 83 489
126 754 703
127 65 35
128 889 230
129 938 307
130 662 394
131 248 220
132 642 549
133 747 86
134 201 643
135 400 574
136 653 798
137 653 904
138 643 138
139 951 307
140 793 865
141 500 726
142 585 586
143 285 769
144 511 898
145 336 912
146 454 207
147 239 951
148 335 815
149 911 708
150 2 239
151 602 984
152 372 799
153 177 756
154 816 435
155 617 639
156 806 796
157 793 584
158 803 561
159 479 831
160 397 20
161 618 113
162 702 902
163 838 111
164 989 451
165 215 154
166 581 757
167 294 174
168 997 332
169 350 909
170 335 941
171 906 354
172 920 675
173 493 469
174 187 284
175 678 127
176 831 755
177 316 319
178 188 134
179 73 608
180 884 613
181 193 831
182 717 851
183 508 52
184 809 556
185 705 769
186 983 312
187 847 359
188 415 658
189 132 789
190 520 413
191 913 564
192 90 256
193 960 936
194 693 559
195 980 347
196 300 456
197 376 144
198 192 177
199 272 525
200 88 626
201 772 743
202 540 206
203 474 559
204 575 901
205 241 949
206 583 602
207 215 48
208 460 683
209 81 368
210 998 835
211 585 234
212 522 137
213 294 501
214 788 392
215 621 498
216 116 698
217 81 236
218 788 277
219 817 861
220 678 560
221 351 354
222 156 507
223 617 486
224 218 189
225 213 23
226 884 616
227 923 177
228 829 814
229 479 307
230 285 153
231 584 878
232 176 928
233 166 656
234 507 183
235 907 171
236 7 792
237 995 412
238 22 787
239 149 784
240 649 933
241 885 309
242 131 560
243 22 81
244 502 640
245 462 970
246 465 114
247 192 569
248 547 473
249 557 408
250 480 579
251 775 395
252 845 753
253 701 529
254 962 95
255 842 847
256 31 68
257 627 629
258 524 322
259 918 853
260 823 774
261 775 894
262 109 935
263 478 480
264 511 488
265 785 899
266 487 121
267 453 440
268 470 598
269 1 111
270 756 89
271 728 583
272 647 753
273 973 391
274 842 559
275 637 397
276 72 370
277 948 485
278 999 268
279 471 517
280 350 131
281 381 534
282 310 467
283 973 212
284 164 485
285 429 565
286 186 426
287 838 897
288 779 143
289 452 1
290 866 928
291 214 623
292 532 586
293 513 152
294 915 772
295 204 585
296 343 558
297 877 720
298 730 272
299 364 617
300 210 569
301 514 296
302 33 761
303 202 695
304 706 395
305 597 866
306 376 83
307 679 434
308 483 578
309 0 299
310 639 101
311 709 590
312 774 925
313 804 864
314 528 192
315 660 561
316 888 7
317 788 712
318 79 750
319 854 884
320 710 665
321 939 390
322 156 683
323 62 737
324 207 501
325 944 334
326 952 915
327 14 440
328 923 386
329 693 370
330 485 885
331 890 951
DEMAND_SECTION
2 1
3 1
4 1
5 1
6 1
7 1
8 1
9 1
10 1
11 1
12 1
13 1
14 1
15 1
16 1
17 1
18 1
19 1
20 1
21 1
22 1
23 1
24 1
25 1
26 1
27 1
28 1
29 1
30 1
31 1
32 1
33 1
34 1
35 1
36 1
37 1
38 1
39 1
40 1
41 1
42 1
43 1
44 1
45 1
46 1
47 1
48 1
49 1
50 1
51 1
52 1
53 1
54 1
55 1
56 1
57 1
58 1
59 1
60 1
61 1
62 1
63 1
64 1
65 1
66 1
67 1
68 1
69 1
70 1
71 1
72 1
73 1
74 1
75 1
76 1
77 1
78 1
79 1
80 1
81 1
82 1
83 1
84 1
85 1
86 1
87 1
88 1
89 1
90 1
91 1
92 1
93 1
94 1
95 1
96 1
97 1
98 1
99 1
100 1
101 1
102 1
103 1
104 1
105 1
106 1
107 1
108 1
109 1
110 1
111 1
112 1
113 1
114 1
115 1
116 1
117 1
118 1
119 1
120 1
121 1
122 1
123 1
124 1
125 1
126 1
127 1
128 1
129 1
130 1
131 1
132 1
133 1
COVERAGE_SECTION
2 11 236 20 238 302 262 318 323 189 14 46 239 
3 11 306 197 246 53 280 107 266 160 289 183 16 
4 11 36 331 193 290 326 113 37 319 287 259 74 
5 11 78 115 68 270 85 133 81 163 316 288 22 
6 11 278 283 108 186 139 48 129 168 227 195 325 
7 11 155 257 320 124 272 101 166 185 206 126 61 
8 11 93 34 298 52 218 97 56 288 329 175 128 
9 11 217 13 192 198 178 150 269 165 224 243 256 
10 11 100 109 27 179 125 23 327 200 30 94 242 
11 11 17 96 82 303 143 43 134 291 98 24 299 
12 11 166 65 114 26 124 272 141 86 136 58 305 
13 11 256 243 127 9 269 178 42 217 198 165 207 
14 11 262 15 57 232 20 117 147 205 121 181 2 
15 11 57 232 14 147 262 205 121 117 112 20 181 
16 11 167 107 230 280 197 35 63 18 131 224 306 
17 11 11 82 96 143 303 43 134 291 98 24 153 
18 11 131 63 51 167 224 16 177 174 230 198 165 
19 11 119 49 81 89 310 22 78 133 161 175 270 
20 11 2 262 14 236 238 232 189 15 57 302 117 
21 11 172 149 79 38 75 69 28 297 294 59 226 
22 11 133 175 89 270 310 138 78 288 119 81 85 
23 11 125 44 109 327 100 88 76 122 276 10 209 
24 11 299 96 296 135 91 43 281 188 285 11 199 
25 11 110 211 202 40 92 314 301 120 234 258 229 
26 11 114 12 65 159 166 141 31 66 330 124 305 
27 11 179 30 94 200 242 125 10 76 222 247 233 
28 11 294 69 297 79 149 252 75 176 21 172 260 
29 11 286 51 177 174 70 196 221 282 18 63 324 
30 11 94 242 27 200 179 247 50 233 295 222 300 
31 11 66 159 141 26 152 114 208 330 65 12 148 
32 11 254 316 68 115 227 235 163 5 283 108 85 
33 11 103 281 91 282 105 213 196 296 135 199 285 
34 11 298 93 8 52 218 97 56 329 288 251 214 
35 11 230 167 280 16 165 107 197 306 207 178 224 
36 11 331 4 290 113 193 326 287 319 37 259 74 
37 11 193 326 210 4 36 259 113 331 290 319 287 
38 11 172 21 226 180 191 75 149 71 59 69 79 
39 11 185 136 201 272 182 86 58 126 101 104 111 
40 11 211 25 97 202 110 92 120 314 301 258 234 
41 11 73 221 118 267 229 177 84 105 51 190 103 
42 11 72 225 127 207 13 256 178 243 165 9 269 
43 11 96 291 24 295 300 50 11 134 199 296 106 
44 11 88 23 122 276 209 125 327 76 109 100 284 
45 11 249 190 84 248 173 275 264 258 54 263 267 
46 11 323 318 302 216 200 238 179 236 322 27 189 
47 11 308 250 203 268 292 285 279 244 135 54 61 
48 11 128 108 129 241 139 283 227 235 325 6 278 
49 11 119 19 310 89 161 138 183 175 22 81 212 
50 11 295 300 247 106 291 134 242 324 43 94 30 
51 11 177 63 18 221 131 29 118 174 16 167 41 
52 11 298 34 93 8 218 97 56 329 304 251 214 
53 11 246 266 293 212 3 234 146 183 197 314 306 
54 11 264 173 263 279 248 267 105 203 190 47 308 
55 11 132 215 83 116 315 223 220 194 253 142 206 
56 11 218 187 214 80 251 52 34 93 298 241 8 
57 11 232 15 147 117 205 121 14 262 112 181 20 
58 11 86 136 305 272 231 137 182 185 39 12 166 
59 11 75 71 297 69 172 149 226 180 252 28 317 
60 11 90 87 95 64 169 170 245 145 330 144 66 
61 11 206 292 142 244 155 257 308 250 268 47 83 
62 11 240 137 151 162 204 312 231 305 182 261 265 
63 11 18 51 177 131 16 167 118 221 230 224 107 
64 11 87 245 60 90 95 170 169 145 330 144 66 
65 11 166 12 124 26 114 141 272 86 136 7 58 
66 11 159 31 152 330 148 26 95 144 169 114 98 
67 11 307 77 253 304 194 251 116 154 220 130 214 
68 11 115 5 316 163 85 78 270 133 288 81 254 
69 11 297 149 28 75 59 252 79 172 294 176 21 
70 11 209 174 276 192 29 44 88 286 217 122 309 
71 11 226 180 59 75 274 102 172 157 191 158 184 
72 11 225 207 42 178 35 127 165 13 230 198 224 
73 11 41 267 118 221 84 229 190 105 173 263 258 
74 11 265 312 261 287 140 313 219 319 290 255 113 
75 11 59 149 172 69 297 71 21 28 226 180 79 
76 11 222 125 284 88 23 242 44 324 286 30 27 
77 11 154 251 80 214 67 304 123 307 187 329 184 
78 11 5 81 133 270 85 115 22 68 19 163 288 
79 11 294 28 149 21 69 297 172 75 252 59 176 
80 11 214 251 154 77 187 56 123 304 67 329 171 
81 11 78 19 133 5 270 119 22 89 115 85 68 
82 11 303 134 233 291 322 11 17 153 295 43 216 
83 11 55 132 142 215 116 206 223 315 220 292 257 
84 11 190 45 249 173 267 248 258 263 264 73 54 
85 11 288 163 270 133 5 78 68 22 115 81 175 
86 11 58 136 272 185 305 39 166 182 12 231 137 
87 11 64 60 90 95 245 170 169 145 330 144 66 
88 11 44 76 23 125 284 286 209 276 222 122 327 
89 11 310 175 22 119 138 161 19 49 133 270 81 
90 11 60 95 87 169 64 170 145 245 330 66 144 
91 11 281 296 135 33 285 24 299 103 105 213 203 
92 11 202 314 120 234 293 25 211 212 110 40 266 
93 11 8 34 298 52 218 56 97 288 329 128 187 
94 11 30 242 27 200 179 247 50 233 295 222 300 
95 11 90 60 87 245 64 169 330 145 170 144 66 
96 11 24 43 299 11 17 296 291 188 135 91 82 
97 11 298 40 52 34 8 93 211 329 25 218 130 
98 11 148 143 152 17 112 11 66 169 145 31 181 
99 11 273 237 321 164 328 277 195 123 171 325 168 
100 11 109 10 327 23 125 44 122 76 27 88 179 
101 11 320 126 317 7 201 111 185 39 272 311 271 
102 11 157 158 184 274 71 271 180 226 311 59 191 
103 11 282 33 196 213 281 91 199 296 105 135 267 
104 11 260 156 176 252 201 228 111 317 255 126 219 
105 11 267 263 279 173 33 54 281 264 91 285 103 
106 11 300 50 247 295 324 199 222 291 284 242 43 
107 11 197 280 16 167 230 3 306 35 146 53 63 
108 11 283 227 48 128 6 235 278 129 139 186 241 
109 11 327 100 23 125 10 122 44 88 76 276 209 
110 11 25 301 202 211 314 92 258 229 234 40 120 
111 11 317 201 126 104 176 260 252 156 101 297 59 
112 11 117 181 121 205 147 148 143 145 232 57 98 
113 11 319 290 259 287 331 36 326 255 4 193 219 
114 11 26 12 166 65 159 305 231 141 58 124 144 
115 11 68 5 316 78 81 163 85 270 133 32 288 
116 11 215 223 55 132 83 315 307 253 220 248 194 
117 11 232 181 57 112 205 147 121 15 262 239 189 
118 11 41 221 73 177 229 51 63 146 301 258 18 
119 11 19 49 89 310 81 161 22 175 138 133 78 
120 11 92 314 202 293 212 234 211 25 40 110 161 
121 11 205 147 57 232 15 117 112 170 145 169 181 
122 11 276 327 209 44 23 109 88 309 125 100 70 
123 11 154 277 328 321 99 80 187 77 171 214 164 
124 11 166 65 12 272 7 155 136 86 114 141 257 
125 11 23 76 88 44 100 109 222 284 327 242 27 
126 11 101 317 111 201 320 185 39 104 176 260 252 
127 11 256 243 13 42 269 9 72 225 207 178 165 
128 11 48 108 235 227 241 283 129 139 6 218 278 
129 11 139 325 186 241 171 195 48 168 278 328 321 
130 11 275 329 307 304 67 223 249 116 215 45 251 
131 11 18 224 167 63 198 165 230 16 174 51 178 
132 11 55 315 220 83 194 215 116 253 142 223 206 
133 11 270 22 78 85 5 288 81 89 175 163 19 
134 11 291 82 233 303 295 322 50 247 300 43 11 
135 11 285 91 281 299 296 24 268 203 250 47 308 
136 11 86 58 272 185 39 166 182 305 12 124 137 
137 11 240 162 62 305 231 204 58 182 86 151 136 
138 11 161 175 310 89 22 120 119 49 92 211 40 
139 11 129 325 186 195 168 278 171 241 48 6 321 
140 11 313 219 261 265 255 74 287 228 312 319 156 
141 11 208 65 26 31 12 244 166 114 124 159 188 
142 11 206 83 292 61 257 155 132 55 315 215 220 
143 11 98 148 17 11 152 112 153 181 303 82 96 
144 11 330 204 159 231 245 305 95 114 26 66 87 
145 11 169 170 90 60 95 121 148 112 87 205 147 
146 11 234 314 53 293 202 110 266 92 246 212 197 
147 11 205 121 57 232 15 117 112 170 145 169 14 
148 11 98 152 143 169 66 112 145 31 170 17 11 
149 11 69 172 75 297 28 21 79 59 294 252 38 
150 11 309 217 192 9 269 276 209 13 122 243 70 
151 11 62 240 204 137 231 305 144 162 245 330 58 
152 11 148 98 66 31 143 159 169 145 112 17 95 
153 11 239 189 303 322 181 216 82 318 233 143 17 
154 11 77 80 214 251 123 187 67 56 304 328 171 
155 11 257 206 7 142 61 124 315 132 83 320 220 
156 11 104 260 228 176 252 255 201 219 313 140 111 
157 11 102 158 184 274 271 71 311 180 226 194 253 
158 11 184 102 157 274 271 71 180 226 311 253 191 
159 11 66 330 31 26 114 144 12 141 152 95 231 
160 11 289 306 3 183 246 280 53 197 266 35 107 
161 11 310 138 89 175 49 119 120 22 212 92 19 
162 11 137 182 240 261 62 312 265 74 140 58 86 
163 11 85 68 288 5 270 235 133 115 78 227 316 
164 11 237 99 277 273 321 328 195 123 168 325 171 
165 11 198 178 224 230 131 167 35 207 18 16 9 
166 11 12 65 124 114 272 26 86 136 141 58 7 
167 11 230 16 35 131 107 280 18 224 165 63 197 
168 11 195 186 139 325 129 273 278 237 321 6 328 
169 11 145 170 90 60 95 87 148 64 112 121 152 
170 11 145 169 90 60 87 121 95 205 147 64 112 
171 11 328 325 321 241 129 187 139 195 273 99 186 
172 11 149 75 21 38 69 59 297 226 79 180 28 
173 11 263 54 264 267 279 248 190 105 84 45 249 
174 11 70 131 18 29 224 192 198 51 63 217 165 
175 11 138 89 22 310 161 133 270 119 288 19 49 
176 11 252 260 104 156 111 297 228 201 317 69 28 
177 11 51 221 63 118 18 29 41 131 73 174 16 
178 11 165 198 224 207 9 230 35 131 167 225 13 
179 11 200 27 30 94 242 10 46 216 233 322 125 
180 11 226 71 191 59 274 38 75 172 102 184 157 
181 11 117 239 112 189 153 232 57 143 205 121 147 
182 11 162 39 261 140 58 136 137 185 265 86 313 
183 11 266 246 289 212 53 293 49 3 160 161 234 
184 11 158 102 157 274 271 71 180 226 191 311 253 
185 11 39 136 272 201 86 101 126 182 58 111 104 
186 11 168 139 195 129 325 278 6 273 171 321 48 
187 11 171 56 80 241 214 251 328 154 123 321 325 
188 11 208 299 268 24 135 244 285 250 96 308 47 
189 11 239 153 318 181 323 216 302 322 238 117 303 
190 11 84 45 249 173 248 267 264 263 54 258 73 
191 11 180 226 274 38 71 277 184 158 172 102 123 
192 11 217 9 70 150 309 174 209 276 198 224 122 
193 11 326 37 4 36 331 113 259 290 210 319 287 
194 11 220 253 315 311 271 132 55 116 67 83 215 
195 11 168 186 325 273 139 129 321 237 328 171 99 
196 11 282 103 213 33 199 324 29 296 281 221 91 
197 11 107 280 3 306 16 167 53 230 35 246 146 
198 11 224 165 178 131 9 230 167 18 174 35 217 
199 11 213 106 282 324 196 300 296 103 43 50 247 
200 11 179 27 30 94 216 242 233 46 322 134 323 
201 11 111 317 126 104 176 260 156 39 101 185 252 
202 11 92 314 120 25 234 110 211 293 212 40 146 
203 11 47 250 308 268 279 285 292 54 135 263 264 
204 11 231 305 144 137 240 151 330 114 58 62 86 
205 11 147 121 57 232 15 117 112 170 145 169 14 
206 11 142 61 155 257 292 83 132 315 55 244 308 
207 11 225 72 42 178 35 165 230 198 224 167 13 
208 11 188 141 244 268 31 250 308 61 47 299 65 
209 11 276 122 44 70 88 327 23 309 192 286 109 
210 11 259 37 326 294 193 79 113 28 21 319 4 
211 11 40 25 202 92 110 120 314 97 234 301 258 
212 11 293 266 234 120 314 53 92 246 202 183 146 
213 11 199 282 196 103 33 296 324 91 106 281 300 
214 11 80 251 154 77 56 187 304 329 67 123 218 
215 11 116 223 55 83 132 315 248 220 253 307 194 
216 11 322 318 233 323 46 200 153 303 189 239 82 
217 11 192 9 150 309 70 174 198 13 209 276 224 
218 11 93 34 8 56 52 298 187 241 128 214 251 
219 11 313 140 255 287 319 228 265 261 74 156 312 
220 11 194 315 132 253 311 55 271 83 116 215 257 
221 11 177 41 118 51 73 63 196 29 282 103 267 
222 11 284 76 324 242 106 247 125 50 300 88 286 
223 11 215 116 55 83 132 248 307 315 275 253 220 
224 11 198 165 131 178 18 230 167 174 35 16 63 
225 11 72 207 42 178 35 165 127 230 198 13 224 
226 11 180 71 191 59 75 38 172 274 102 149 157 
227 11 235 108 283 128 48 254 6 163 278 129 139 
228 11 156 255 260 104 219 313 176 140 252 319 287 
229 11 301 258 110 118 73 41 25 84 146 190 202 
230 11 167 35 16 280 165 224 107 131 197 18 198 
231 11 305 204 137 144 58 114 240 86 330 26 136 
232 11 57 15 117 147 262 205 121 14 181 112 20 
233 11 322 134 82 303 291 216 94 295 30 200 50 
234 11 314 293 92 202 212 120 146 266 53 25 110 
235 11 227 108 128 283 48 163 254 6 85 288 68 
236 11 238 302 2 323 318 46 20 189 239 216 153 
237 11 273 99 164 321 195 328 168 277 325 186 171 
238 11 236 302 323 318 2 46 189 20 239 216 153 
239 11 189 153 181 318 216 323 322 303 117 302 82 
240 11 137 62 162 151 204 231 305 182 58 86 312 
241 11 171 129 48 187 325 139 128 328 56 321 186 
242 11 30 94 27 222 247 76 50 179 295 200 300 
243 11 256 269 13 127 9 42 150 217 178 192 198 
244 11 268 61 208 292 250 308 47 141 203 188 206 
245 11 64 87 95 60 90 144 330 169 170 204 145 
246 11 53 266 3 212 293 183 234 146 197 306 314 
247 11 50 300 295 106 291 242 324 94 30 222 134 
248 11 264 54 173 45 190 249 263 223 84 215 116 
249 11 45 190 84 248 275 173 258 264 223 54 130 
250 11 308 47 203 268 292 285 279 244 135 54 61 
251 11 214 80 77 154 304 56 187 329 67 307 130 
252 11 176 260 104 297 69 28 156 111 228 317 294 
253 11 194 220 315 271 67 132 311 55 116 215 223 
254 11 32 227 235 316 283 68 108 163 6 128 115 
255 11 219 228 319 313 287 140 156 113 260 259 265 
256 11 243 127 269 13 9 42 178 150 217 207 72 
257 11 155 206 7 142 61 315 132 220 83 320 311 
258 11 301 229 110 84 25 45 190 249 211 40 73 
259 11 113 319 326 255 294 210 287 290 193 228 219 
260 11 104 176 156 252 228 111 201 317 255 297 28 
261 11 265 312 74 140 313 219 287 182 162 319 255 
262 11 14 20 232 15 57 117 147 2 205 181 121 
263 11 173 54 264 279 267 105 248 190 203 84 47 
264 11 54 173 263 248 279 267 190 203 105 84 45 
265 11 261 74 312 140 313 219 287 319 255 162 182 
266 11 246 53 212 293 234 183 3 314 120 92 146 
267 11 105 263 173 73 54 84 190 264 279 41 248 
268 11 250 308 47 203 244 285 292 135 188 279 208 
269 11 243 256 13 127 9 150 217 192 42 178 309 
270 11 133 85 78 22 288 5 81 163 175 89 68 
271 11 311 194 220 253 157 315 102 158 320 184 132 
272 11 136 124 86 185 166 7 39 58 12 65 101 
273 11 237 321 99 195 328 164 168 325 171 186 139 
274 11 184 158 102 157 180 71 191 226 123 59 271 
275 11 130 307 329 304 249 45 223 116 215 67 190 
276 11 209 122 44 70 88 327 23 309 109 192 125 
277 11 164 99 123 191 237 321 273 328 274 171 154 
278 11 6 186 139 283 168 129 108 195 325 48 128 
279 11 54 263 203 264 173 105 47 308 250 285 267 
280 11 197 107 306 16 35 3 230 167 53 246 160 
281 11 91 135 296 33 285 103 105 24 299 279 213 
282 11 196 103 213 33 199 296 281 91 324 105 221 
283 11 108 6 227 278 48 235 128 139 186 129 254 
284 11 222 76 324 286 88 106 125 242 247 300 50 
285 11 135 203 250 268 47 308 281 91 279 299 296 
286 11 284 88 29 324 222 76 44 70 196 209 125 
287 11 319 219 290 74 313 255 265 113 140 261 312 
288 11 85 270 133 163 22 5 78 175 8 68 93 
289 11 160 183 3 306 246 266 53 212 197 293 49 
290 11 331 113 287 36 319 4 74 219 255 265 326 
291 11 134 295 50 300 82 233 247 43 303 106 322 
292 11 308 47 61 250 142 206 244 268 203 83 279 
293 11 212 234 266 314 92 120 53 202 246 146 25 
294 11 28 79 69 149 297 252 259 21 176 260 75 
295 11 50 300 247 106 291 134 43 242 94 233 30 
296 11 91 281 24 135 299 33 213 199 103 96 43 
297 11 69 28 149 75 252 59 176 172 294 79 260 
298 11 34 52 93 8 218 97 56 329 304 40 251 
299 11 24 96 135 296 188 91 285 281 43 268 11 
300 11 50 295 247 106 291 324 43 134 199 242 222 
301 11 258 229 110 25 202 211 40 314 84 146 92 
302 11 238 323 236 318 46 2 189 216 239 20 153 
303 11 82 322 134 233 153 291 11 17 216 239 295 
304 11 329 130 307 251 275 67 214 77 80 52 56 
305 11 231 204 58 137 86 114 240 136 144 12 26 
306 11 3 280 197 160 107 35 246 53 16 289 230 
307 11 130 304 275 67 329 116 223 215 253 77 251 
308 11 47 250 203 268 292 285 279 244 135 54 61 
309 11 150 192 276 122 217 209 70 327 44 9 109 
310 11 161 89 138 175 119 49 22 19 133 120 270 
311 11 271 194 220 315 253 320 132 157 257 102 55 
312 11 74 265 261 140 313 287 162 219 319 290 182 
313 11 140 219 265 255 261 287 74 319 228 156 312 
314 11 92 202 234 120 293 212 25 110 211 146 266 
315 11 220 132 194 55 253 311 83 271 116 215 257 
316 11 115 68 32 5 163 254 78 85 81 270 133 
317 11 111 126 201 176 104 101 252 260 59 156 297 
318 11 323 302 46 216 189 238 239 236 153 322 200 
319 11 287 255 113 219 290 313 140 74 259 265 228 
320 11 101 126 7 311 271 257 317 155 111 201 185 
321 11 328 273 99 171 325 195 237 164 168 129 139 
322 11 233 216 303 82 134 153 291 200 94 239 30 
323 11 318 302 46 238 216 236 189 239 322 200 153 
324 11 284 106 222 300 199 247 50 286 295 76 213 
325 11 129 139 195 171 186 168 321 328 241 273 278 
326 11 193 37 4 113 36 259 331 290 210 319 287 
327 11 109 122 23 100 44 125 276 209 88 10 76 
328 11 321 171 273 99 325 195 237 123 129 187 139 
329 11 304 130 275 307 251 52 214 97 298 67 56 
330 11 144 159 95 66 245 204 114 231 26 90 31 
331 11 36 4 290 113 193 326 287 319 74 259 37 
DEPOT_SECTION
   1
   -1
EOF
