NAME :  X-n322-kX-w64-c9.cctp
COMMENT : 	Adapted by Maziero, Usberti and Cavellucci from the Uchoa, Pecin, Pessoa, Poggi, Subramanian, and Vidal (2013)
TYPE :  CCTP
DIMENSION :    295
EDGE_WEIGHT_TYPE : 	EUC_2D	
CAPACITY : 	868
VERTICES_WITHIN_COVERAGE :  9
VERTICES_WITH_DEMAND : 	64
NODE_COORD_SECTION
1 500 500
2 737 450
3 235 789
4 340 234
5 346 320
6 406 309
7 556 636
8 872 923
9 937 83
10 9 321
11 558 18
12 63 833
13 250 509
14 143 192
15 624 286
16 364 117
17 332 953
18 235 142
19 590 430
20 303 692
21 936 665
22 39 410
23 247 581
24 986 739
25 11 283
26 138 747
27 837 511
28 596 206
29 218 339
30 443 922
31 555 133
32 896 306
33 415 752
34 691 216
35 51 0
36 726 19
37 166 333
38 951 932
39 928 807
40 505 590
41 236 284
42 115 882
43 238 887
44 729 26
45 94 697
46 409 899
47 993 715
48 473 607
49 414 55
50 884 327
51 651 407
52 891 372
53 570 733
54 919 529
55 629 220
56 711 630
57 141 492
58 720 382
59 794 51
60 745 451
61 409 990
62 825 781
63 966 938
64 378 175
65 859 269
66 596 131
67 419 557
68 77 908
69 679 268
70 726 860
71 382 728
72 885 15
73 258 313
74 533 912
75 924 636
76 694 621
77 507 707
78 281 800
79 607 285
80 388 354
81 568 781
82 22 348
83 218 236
84 308 904
85 119 154
86 939 105
87 547 736
88 480 1000
89 124 883
90 295 741
91 213 53
92 701 446
93 589 708
94 644 147
95 133 377
96 983 343
97 262 450
98 255 422
99 115 640
100 693 344
101 896 910
102 298 531
103 573 416
104 416 512
105 870 50
106 185 436
107 656 268
108 53 522
109 587 165
110 542 762
111 995 809
112 266 878
113 27 812
114 196 522
115 45 164
116 174 729
117 252 311
118 681 621
119 594 478
120 848 361
121 897 253
122 729 354
123 255 410
124 811 703
125 781 909
126 971 632
127 887 144
128 475 860
129 967 433
130 897 98
131 157 676
132 971 727
133 972 381
134 375 214
135 280 526
136 895 158
137 196 779
138 379 223
139 692 470
140 22 395
141 289 811
142 98 365
143 261 101
144 820 480
145 433 961
146 656 421
147 334 794
148 426 686
149 870 112
150 941 978
151 744 498
152 7 346
153 168 877
154 166 244
155 604 430
156 176 452
157 912 406
158 423 564
159 101 383
160 729 307
161 162 515
162 784 983
163 736 39
164 833 529
165 646 367
166 922 294
167 513 535
168 373 331
169 471 694
170 39 149
171 813 538
172 153 115
173 244 505
174 716 286
175 409 228
176 140 484
177 652 239
178 30 924
179 877 307
180 586 723
181 336 615
182 856 584
183 984 221
184 641 671
185 648 704
186 19 309
187 661 125
188 614 194
189 253 864
190 106 841
191 187 687
192 5 289
193 657 83
194 658 58
195 419 839
196 191 864
197 666 486
198 288 276
199 562 646
200 516 725
201 75 785
202 309 966
203 743 856
204 121 698
205 286 258
206 70 635
207 824 834
208 650 350
209 742 277
210 977 647
211 268 698
212 973 145
213 569 655
214 765 22
215 427 869
216 11 869
217 377 793
218 162 897
219 102 444
220 979 386
221 69 483
222 294 395
223 424 536
224 37 705
225 126 782
226 490 30
227 348 771
228 808 469
229 107 512
230 782 207
231 161 793
232 859 469
233 148 763
234 403 723
235 978 760
236 214 132
237 467 387
238 292 262
239 238 846
240 853 27
241 855 506
242 213 742
243 203 364
244 183 3
245 501 152
246 649 492
247 904 31
248 997 741
249 26 402
250 543 506
251 902 548
252 47 419
253 125 226
254 206 608
255 811 668
256 643 265
257 189 736
258 79 287
259 382 630
260 225 604
261 412 843
262 924 756
263 474 356
264 533 721
265 445 101
266 579 994
267 652 658
268 889 206
269 464 243
270 680 735
271 420 998
272 798 490
273 75 518
274 27 680
275 118 804
276 181 428
277 489 91
278 367 977
279 777 679
280 501 137
281 856 6
282 75 999
283 777 984
284 171 874
285 909 569
286 730 509
287 326 596
288 59 533
289 455 853
290 612 163
291 959 409
292 987 154
293 883 195
294 207 6
295 39 831
DEMAND_SECTION
2 61
3 71
4 83
5 85
6 85
7 99
8 63
9 64
10 50
11 56
12 91
13 87
14 75
15 70
16 57
17 86
18 50
19 89
20 75
21 72
22 83
23 74
24 76
25 53
26 93
27 97
28 69
29 61
30 76
31 93
32 55
33 92
34 83
35 92
36 63
37 61
38 53
39 100
40 94
41 74
42 71
43 95
44 74
45 96
46 75
47 91
48 82
49 50
50 84
51 55
52 74
53 73
54 86
55 52
56 81
57 73
58 92
59 83
60 64
61 66
62 93
63 97
64 88
65 67
COVERAGE_SECTION
2 9 60 92 139 151 286 58 228 272 197 
3 9 137 78 242 239 141 257 231 90 189 
4 9 134 138 238 205 198 175 64 5 6 
5 9 168 80 6 198 238 4 205 73 222 
6 9 168 80 5 175 263 269 138 237 4 
7 9 199 213 40 93 77 48 264 180 184 
8 9 101 38 150 125 63 207 162 283 39 
9 9 86 130 247 212 149 105 127 72 136 
10 9 186 152 82 192 25 140 258 249 22 
11 9 226 277 194 31 193 66 280 265 245 
12 9 295 113 190 201 275 216 42 68 89 
13 9 173 135 102 114 97 23 98 161 156 
14 9 253 85 154 172 83 236 115 18 170 
15 9 79 256 107 177 69 55 208 165 28 
16 9 64 49 265 134 143 138 4 175 277 
17 9 202 278 84 61 46 271 112 145 30 
18 9 236 143 172 91 83 14 85 154 205 
19 9 155 103 119 51 146 165 246 250 197 
20 9 211 90 181 71 227 287 259 242 234 
21 9 75 210 126 132 47 24 262 248 285 
22 8 252 249 140 82 159 152 219 142 
23 8 260 254 135 102 13 173 114 287 
24 9 248 132 235 47 262 111 21 39 210 
25 9 192 186 10 152 82 258 140 142 249 
26 9 233 225 116 231 204 257 275 137 45 
27 9 164 241 144 171 272 232 228 182 251 
28 9 188 55 109 290 177 66 256 94 79 
29 9 243 117 73 37 41 123 98 95 198 
30 9 145 46 215 128 289 61 271 261 88 
31 9 66 109 280 245 290 277 28 188 94 
32 9 179 50 166 65 121 52 120 96 268 
33 9 234 71 217 148 227 169 195 147 261 
34 9 177 69 55 107 256 174 188 209 94 
35 9 244 170 172 294 115 85 91 236 14 
36 9 44 163 214 59 194 193 187 240 281 
37 9 243 29 95 142 159 41 117 154 73 
38 9 63 150 101 8 39 111 207 125 235 
39 9 262 111 235 24 132 248 62 207 101 
40 9 48 167 7 199 158 213 67 250 223 
41 9 117 73 83 198 205 29 238 154 37 
42 9 89 190 68 218 153 284 12 196 275 
43 9 189 112 239 196 284 153 84 218 141 
44 9 36 163 214 59 194 193 187 240 281 
45 8 204 224 99 131 206 26 274 233 
46 9 215 30 261 195 289 145 128 278 61 
47 9 24 132 248 235 210 21 262 126 111 
48 9 40 158 67 167 223 169 7 148 259 
49 9 265 16 226 277 280 64 245 11 143 
50 9 179 32 52 120 166 65 121 157 96 
51 9 146 165 155 208 92 19 58 139 100 
52 9 157 120 50 32 179 291 133 166 220 
53 9 180 87 93 264 110 81 200 77 213 
54 9 251 285 241 27 182 232 164 171 75 
55 9 177 188 28 256 107 290 34 15 69 
56 9 76 118 267 184 279 185 255 270 286 
57 8 176 161 229 156 219 114 106 273 
58 9 122 100 92 2 51 60 146 160 165 
59 9 214 163 240 44 36 105 281 149 72 
60 9 2 92 151 139 286 228 272 58 144 
61 9 271 145 278 88 30 17 46 202 215 
62 9 207 124 262 39 203 279 255 70 125 
63 9 38 150 101 8 111 39 207 235 125 
64 8 134 138 16 175 4 265 269 238 
65 9 121 179 32 50 166 268 293 120 230 
66 9 109 290 31 94 187 188 28 193 55 
67 8 158 223 104 48 259 40 167 181 
68 9 42 178 89 190 12 216 218 295 282 
69 9 107 256 177 174 34 15 160 209 55 
70 4 203 125 207 62 
71 9 234 33 227 148 217 147 20 90 169 
72 9 247 281 240 105 130 9 59 149 86 
73 9 117 41 29 198 238 205 243 83 5 
74 5 128 30 266 289 88 
75 9 21 126 210 285 182 251 132 47 54 
76 8 118 56 267 184 185 279 270 286 
77 8 200 264 169 87 110 53 180 213 
78 9 141 3 147 90 239 189 227 112 137 
79 8 15 256 107 177 55 69 208 28 
80 7 168 6 5 237 263 222 198 
81 7 110 53 87 180 264 93 200 
82 9 152 10 186 140 249 192 22 25 252 
83 9 41 154 205 238 198 117 14 73 253 
84 9 112 17 202 189 43 239 278 141 46 
85 9 14 172 253 115 170 236 154 18 83 
86 8 9 130 212 127 136 149 292 247 
87 8 264 53 110 200 180 77 81 93 
88 9 271 145 61 30 266 74 278 46 128 
89 9 42 218 153 190 284 68 196 12 275 
90 9 20 211 78 227 147 141 3 242 71 
91 9 294 244 143 236 172 18 85 14 16 
92 9 139 2 60 146 197 51 58 151 246 
93 9 180 53 87 213 264 185 184 199 110 
94 9 187 290 66 188 109 193 55 28 34 
95 8 159 142 37 276 243 219 106 156 
96 9 133 220 291 166 129 32 157 52 50 
97 9 98 123 173 13 222 106 135 276 156 
98 9 123 97 222 106 276 243 173 156 13 
99 4 206 131 204 45 
100 9 122 208 58 160 165 174 51 69 209 
101 9 8 38 63 150 207 39 125 162 283 
102 8 135 13 173 23 287 97 181 114 
103 7 19 155 119 51 146 165 250 
104 8 223 67 158 167 48 40 102 259 
105 9 240 72 247 281 130 149 9 59 86 
106 8 276 156 176 57 98 243 123 97 
107 9 256 69 177 15 79 55 34 174 208 
108 8 288 273 221 229 219 57 176 252 
109 9 290 66 188 28 31 94 55 187 245 
110 7 87 81 53 264 200 180 77 
111 9 235 39 248 24 132 262 47 38 63 
112 9 189 43 239 84 141 196 78 3 284 
113 9 295 12 201 216 190 275 225 224 68 
114 8 161 173 13 57 176 156 23 135 
115 9 170 85 253 14 172 25 258 192 154 
116 9 257 26 242 233 191 137 131 204 231 
117 9 73 41 29 198 205 238 243 83 37 
118 8 76 56 267 184 185 279 270 213 
119 8 19 155 246 250 103 197 146 51 
120 9 52 50 179 32 157 65 166 232 228 
121 8 65 166 268 32 179 293 50 183 
122 9 58 100 160 174 209 208 165 51 2 
123 9 98 97 222 243 106 276 29 156 173 
124 9 255 279 62 56 262 182 21 75 207 
125 7 203 70 162 283 207 8 101 
126 9 210 75 21 47 285 132 24 251 248 
127 8 136 149 130 293 268 86 9 212 
128 6 289 215 195 261 30 46 
129 9 291 220 133 157 96 52 54 232 251 
130 8 149 9 86 127 105 136 247 72 
131 6 191 204 99 116 45 257 
132 9 24 47 248 235 262 21 210 111 39 
133 9 220 291 96 129 157 52 166 50 32 
134 8 138 175 64 4 269 238 16 205 
135 8 102 13 173 23 97 114 287 260 
136 8 127 293 268 149 130 86 212 9 
137 9 231 3 242 257 233 116 26 225 239 
138 8 134 175 4 64 269 6 238 205 
139 8 92 197 246 2 286 60 151 146 
140 9 249 22 252 82 152 10 159 142 186 
141 9 78 147 3 239 189 90 112 227 217 
142 8 159 95 22 252 37 82 219 258 
143 9 18 236 91 16 172 294 244 64 83 
144 9 228 272 27 232 241 164 171 151 60 
145 9 61 271 30 88 46 278 215 17 128 
146 9 51 92 155 165 139 197 19 208 246 
147 9 227 217 141 78 90 71 33 261 195 
148 9 234 169 71 33 259 77 48 200 264 
149 8 130 127 136 105 86 9 293 240 
150 9 38 63 101 8 162 283 39 125 111 
151 9 286 60 2 272 139 92 228 144 197 
152 9 82 10 186 140 192 249 25 22 252 
153 9 284 218 196 89 42 43 190 239 231 
154 9 253 83 14 41 37 258 85 29 117 
155 8 19 103 119 51 146 165 246 197 
156 8 106 276 176 57 161 114 219 98 
157 9 52 291 129 133 220 120 232 50 96 
158 8 67 223 104 48 259 40 167 181 
159 8 142 95 219 252 22 249 140 37 
160 9 174 209 122 100 69 58 107 208 256 
161 8 57 114 176 229 156 106 173 273 
162 6 283 125 8 203 101 70 
163 9 44 36 214 59 194 193 187 240 281 
164 9 27 171 241 144 272 182 228 232 251 
165 9 208 51 100 146 58 155 15 19 122 
166 9 32 179 121 50 65 96 52 268 183 
167 9 250 40 48 223 158 67 119 104 7 
168 9 80 5 6 198 4 222 263 238 138 
169 8 77 148 200 264 234 33 48 87 
170 9 115 85 14 253 172 25 192 258 35 
171 9 164 27 272 241 144 182 228 151 232 
172 9 85 236 14 18 91 143 253 244 115 
173 9 13 135 114 97 102 23 161 98 156 
174 9 160 209 69 100 107 122 34 256 177 
175 7 138 134 269 64 4 6 168 
176 8 57 161 229 156 219 106 114 276 
177 9 256 107 55 69 34 15 188 79 28 
178 9 68 216 282 295 42 12 89 113 190 
179 9 32 50 65 166 121 120 52 268 157 
180 9 93 53 87 264 110 81 185 200 213 
181 8 287 259 20 102 23 67 158 135 
182 9 285 251 164 171 27 241 54 75 255 
183 8 292 212 121 166 268 293 136 32 
184 9 267 185 93 118 76 213 270 180 56 
185 9 184 270 267 93 180 53 118 213 76 
186 9 10 192 25 82 152 258 140 249 142 
187 9 94 193 290 66 194 188 109 34 55 
188 9 28 55 290 109 94 177 66 256 34 
189 9 112 239 43 196 141 84 78 3 284 
190 9 275 42 12 89 225 201 295 153 68 
191 7 131 116 257 242 204 26 254 
192 9 25 186 10 152 82 258 140 249 142 
193 9 194 187 94 66 163 44 290 36 109 
194 9 193 187 36 44 163 94 66 11 214 
195 7 261 215 289 128 46 217 30 
196 9 284 153 218 239 43 189 89 112 231 
197 8 246 139 92 146 286 119 151 2 
198 9 238 205 73 117 41 4 5 83 29 
199 9 213 7 93 40 264 180 77 184 53 
200 8 264 77 87 110 53 169 180 93 
201 9 275 12 225 113 295 190 26 233 231 
202 9 17 278 84 112 61 43 189 271 46 
203 4 70 125 207 62 
204 7 45 131 26 99 116 191 233 
205 9 238 198 41 4 73 117 83 5 134 
206 6 99 274 45 224 204 131 
207 8 62 203 125 8 70 101 39 262 
208 9 165 100 51 15 146 58 79 122 107 
209 9 174 160 69 122 34 230 100 107 177 
210 9 126 21 75 47 132 24 248 285 235 
211 9 20 90 242 191 257 3 116 78 260 
212 8 292 86 9 183 136 127 130 293 
213 9 199 7 93 180 184 264 53 77 267 
214 9 163 44 36 59 240 281 105 194 72 
215 7 261 195 289 46 128 30 217 
216 9 295 178 113 12 68 190 42 201 89 
217 9 227 147 33 261 195 71 234 141 215 
218 9 153 284 89 196 42 43 190 68 239 
219 8 221 176 252 159 57 229 22 95 
220 9 133 291 96 129 157 52 166 50 32 
221 8 273 108 229 219 288 252 176 57 
222 9 123 98 97 73 5 29 117 243 168 
223 8 67 104 158 48 167 40 259 287 
224 9 274 45 206 204 201 99 113 26 225 
225 9 275 233 26 231 201 190 137 116 257 
226 9 277 11 49 265 280 31 245 66 16 
227 9 147 217 71 90 33 141 78 234 20 
228 9 144 272 27 232 241 164 60 171 151 
229 8 273 57 176 221 288 108 161 219 
230 8 209 34 65 293 174 268 160 69 
231 9 233 225 137 275 26 257 116 190 242 
232 9 241 144 27 228 164 272 157 171 54 
233 9 26 225 231 116 257 137 275 242 204 
234 9 71 33 148 227 169 217 259 147 20 
235 9 24 248 132 47 111 262 39 21 210 
236 9 18 143 172 91 14 85 83 154 294 
237 4 263 80 6 168 
238 9 205 198 4 41 73 117 83 5 138 
239 9 189 43 112 196 3 141 78 284 153 
240 9 281 105 72 247 59 130 149 214 9 
241 9 27 164 232 144 171 272 228 251 54 
242 9 257 116 137 3 191 233 211 231 26 
243 9 29 37 276 123 95 117 106 73 98 
244 9 294 91 172 143 35 236 18 85 14 
245 8 280 31 277 265 109 66 269 28 
246 8 197 139 119 92 146 155 286 51 
247 9 72 105 240 281 9 130 86 149 59 
248 9 24 47 235 132 111 262 39 210 21 
249 9 140 22 252 82 152 159 142 10 219 
250 8 167 119 19 40 103 155 246 48 
251 9 285 54 182 241 164 27 171 232 75 
252 8 22 249 140 219 159 221 142 82 
253 9 14 154 85 258 83 115 172 37 170 
254 5 260 23 191 131 114 
255 9 124 279 182 56 62 75 21 76 171 
256 9 107 15 177 69 79 55 34 28 174 
257 9 116 242 137 191 233 26 231 131 3 
258 9 186 25 192 253 10 142 82 152 154 
259 8 181 287 148 158 67 48 234 71 
260 5 254 23 114 191 135 
261 7 195 215 289 46 217 128 30 
262 9 39 235 132 24 248 47 111 21 62 
263 3 237 6 80 
264 8 200 87 77 53 110 180 93 169 
265 8 277 49 280 245 16 226 64 31 
266 4 74 88 145 30 
267 9 184 185 118 76 56 93 270 213 199 
268 8 293 121 136 127 65 166 149 183 
269 5 175 138 6 134 245 
270 9 185 184 267 93 180 56 53 279 118 
271 9 61 145 278 88 30 17 46 202 215 
272 9 228 144 27 171 164 151 241 232 60 
273 8 108 288 229 221 57 176 219 161 
274 7 224 206 45 204 99 201 26 
275 9 225 190 231 201 233 26 12 42 89 
276 8 106 156 243 176 95 98 57 123 
277 9 265 280 226 245 31 49 11 66 109 
278 9 17 61 271 202 145 46 30 84 88 
279 9 255 124 56 76 118 270 62 182 267 
280 8 245 277 31 265 109 66 226 269 
281 9 240 72 105 247 59 214 130 149 9 
282 9 178 68 42 89 218 216 153 284 190 
283 6 162 125 8 203 70 101 
284 9 153 196 218 89 42 43 190 239 231 
285 9 251 54 182 75 241 164 126 27 21 
286 8 151 139 2 60 197 92 272 246 
287 8 181 259 102 23 135 20 67 260 
288 8 108 273 221 229 57 176 219 206 
289 6 128 215 195 261 46 30 
290 9 109 188 66 94 28 55 187 31 177 
291 9 129 220 133 157 96 52 50 232 32 
292 8 212 183 86 9 136 127 130 268 
293 8 268 136 127 121 65 149 130 230 
294 9 244 91 143 172 236 18 35 85 16 
295 9 113 12 216 201 190 275 68 42 178 
DEPOT_SECTION
   1
   -1
EOF
