NAME :  X-n367-kX-w36-c11.cctp
COMMENT : 	Adapted by Maziero, Usberti and Cavellucci from the Uchoa, Pecin, Pessoa, Poggi, Subramanian, and Vidal (2013)
TYPE :  CCTP
DIMENSION :    270
EDGE_WEIGHT_TYPE : 	EUC_2D	
CAPACITY : 	218
VERTICES_WITHIN_COVERAGE :  11
VERTICES_WITH_DEMAND : 	36
NODE_COORD_SECTION
1 927 318
2 319 475
3 471 281
4 894 615
5 712 832
6 728 813
7 360 217
8 446 264
9 952 650
10 558 224
11 460 397
12 464 342
13 733 921
14 324 316
15 333 497
16 826 821
17 257 385
18 385 244
19 523 249
20 559 370
21 665 866
22 310 583
23 744 792
24 428 638
25 759 804
26 359 515
27 392 213
28 583 380
29 786 400
30 516 833
31 823 692
32 480 330
33 870 690
34 311 76
35 157 434
36 340 558
37 499 905
38 893 667
39 328 499
40 712 744
41 463 266
42 275 564
43 456 323
44 748 727
45 462 420
46 859 662
47 308 399
48 427 246
49 279 414
50 543 841
51 243 333
52 347 509
53 460 593
54 732 115
55 234 661
56 808 720
57 423 216
58 144 390
59 772 633
60 509 345
61 286 449
62 380 488
63 478 333
64 465 310
65 666 858
66 334 369
67 708 815
68 472 326
69 481 449
70 559 265
71 786 646
72 503 255
73 406 226
74 931 648
75 281 315
76 954 665
77 443 295
78 497 359
79 311 468
80 901 603
81 801 847
82 257 131
83 346 637
84 604 305
85 436 206
86 277 345
87 428 257
88 405 530
89 892 802
90 341 663
91 539 861
92 359 298
93 867 658
94 677 832
95 340 456
96 322 444
97 316 483
98 886 768
99 505 255
100 554 806
101 309 502
102 953 659
103 675 828
104 946 627
105 498 334
106 811 691
107 186 347
108 348 474
109 487 362
110 507 409
111 368 319
112 810 928
113 572 844
114 445 255
115 412 244
116 815 948
117 328 509
118 665 841
119 730 846
120 786 719
121 371 276
122 448 298
123 510 236
124 573 230
125 837 903
126 909 630
127 704 257
128 944 623
129 440 448
130 411 551
131 523 195
132 730 809
133 498 349
134 244 370
135 365 509
136 758 838
137 323 519
138 378 315
139 402 522
140 986 718
141 419 216
142 340 467
143 487 341
144 798 633
145 432 178
146 538 215
147 897 626
148 999 652
149 842 770
150 504 345
151 742 857
152 602 875
153 524 367
154 918 764
155 482 274
156 344 184
157 924 690
158 794 662
159 258 663
160 575 132
161 522 291
162 650 261
163 443 292
164 631 960
165 950 648
166 212 601
167 510 223
168 322 521
169 806 829
170 243 269
171 527 416
172 535 411
173 917 576
174 618 292
175 504 296
176 574 897
177 368 600
178 314 438
179 362 479
180 874 652
181 756 693
182 519 166
183 418 381
184 841 801
185 593 974
186 501 249
187 896 647
188 819 806
189 311 561
190 363 98
191 275 491
192 849 471
193 563 297
194 961 626
195 705 795
196 948 634
197 283 493
198 865 664
199 223 459
200 307 497
201 363 509
202 636 386
203 703 883
204 782 900
205 186 508
206 436 192
207 398 512
208 449 668
209 253 148
210 112 573
211 722 761
212 415 416
213 234 81
214 940 754
215 926 677
216 946 631
217 962 364
218 886 613
219 794 839
220 137 499
221 594 954
222 497 399
223 869 621
224 521 273
225 793 806
226 461 276
227 912 910
228 457 265
229 325 456
230 312 305
231 991 645
232 672 935
233 227 328
234 869 620
235 316 455
236 395 501
237 406 223
238 692 448
239 534 348
240 323 492
241 405 715
242 331 451
243 900 608
244 497 320
245 289 412
246 466 263
247 748 888
248 352 624
249 474 238
250 208 455
251 922 673
252 80 531
253 826 819
254 691 935
255 331 340
256 405 263
257 770 429
258 448 274
259 728 801
260 356 248
261 531 283
262 885 599
263 688 856
264 448 393
265 298 550
266 564 286
267 762 732
268 437 272
269 301 337
270 718 866
DEMAND_SECTION
2 67
3 87
4 73
5 59
6 88
7 58
8 53
9 53
10 97
11 59
12 52
13 83
14 88
15 83
16 95
17 95
18 93
19 63
20 50
21 94
22 56
23 57
24 69
25 68
26 3
27 3
28 1
29 3
30 2
31 1
32 4
33 10
34 6
35 9
36 1
37 3
COVERAGE_SECTION
2 11 97 79 240 229 235 142 200 15 39 242 95 
3 11 226 155 41 246 228 258 122 8 64 163 77 
4 8 218 243 147 80 262 126 234 223 
5 11 67 119 6 132 263 94 259 270 103 195 151 
6 11 132 259 67 5 23 195 25 119 136 151 211 
7 11 260 27 18 156 237 73 115 141 121 57 256 
8 11 114 258 228 268 41 87 226 246 48 163 3 
9 10 165 102 76 196 216 74 104 194 128 215 
10 11 124 146 70 19 131 167 123 99 224 186 266 
11 11 264 45 222 109 183 110 212 78 12 129 69 
12 11 63 68 32 43 143 109 64 105 133 78 150 
13 8 247 254 203 204 270 232 151 119 
14 11 230 255 269 92 75 111 66 138 86 121 260 
15 11 39 240 117 52 97 137 101 2 168 200 108 
16 9 253 188 169 184 81 225 219 149 25 
17 10 134 49 245 86 47 51 233 269 61 75 
18 11 115 73 256 260 237 27 121 7 48 141 87 
19 11 123 99 72 186 224 167 261 146 70 161 10 
20 11 28 239 153 172 60 171 150 78 110 133 222 
21 8 65 118 263 94 103 203 270 5 
22 9 189 265 36 42 248 177 168 83 137 
23 11 259 25 132 6 211 195 67 136 5 225 119 
24 11 208 53 177 248 241 83 130 90 88 36 139 
25 10 23 132 259 6 136 225 219 119 67 169 
26 11 201 135 52 15 117 62 39 137 179 168 207 
27 11 237 73 141 57 7 18 115 85 48 206 260 
28 11 20 202 172 239 153 171 84 110 60 193 150 
29 5 257 192 238 202 127 
30 7 50 91 100 113 37 176 152 
31 11 106 56 158 120 33 46 198 93 71 144 180 
32 11 63 68 143 105 12 244 43 64 133 150 60 
33 10 198 46 93 38 180 31 187 157 251 215 
34 9 190 82 213 209 156 7 145 27 206 
35 8 58 250 220 199 205 107 134 17 
36 10 189 22 168 137 265 26 52 117 177 201 
37 10 91 30 176 50 113 152 221 100 185 164 
38 9 187 180 93 198 251 33 46 215 157 
39 11 15 240 117 101 97 52 137 200 168 2 108 
40 5 211 44 195 267 23 
41 11 246 228 226 3 8 258 114 155 268 249 163 
42 4 265 189 22 168 
43 11 64 68 12 63 32 122 77 163 143 244 105 
44 8 267 181 120 40 211 56 23 106 
45 9 11 264 69 129 222 110 212 183 109 
46 9 198 93 180 33 38 187 223 234 31 
47 10 245 49 178 66 96 17 61 235 242 229 
48 11 87 115 114 8 256 268 73 57 141 237 258 
49 9 245 47 17 61 178 96 235 134 229 
50 7 91 30 113 100 176 152 37 
51 11 233 86 134 75 17 269 107 170 230 14 255 
52 11 26 201 15 135 117 39 137 168 240 179 108 
53 7 24 130 208 88 139 177 207 
54 9 127 160 162 124 10 174 146 182 131 
55 7 159 166 42 90 22 83 248 
56 10 120 106 31 267 181 44 149 158 33 46 
57 11 141 85 237 73 206 48 115 27 145 87 114 
58 11 35 107 250 134 233 199 220 17 51 205 49 
59 6 71 144 158 181 106 31 
60 11 150 133 105 78 143 239 153 109 244 32 63 
61 9 178 79 235 49 96 245 229 2 191 
62 8 179 236 135 201 207 26 108 52 
63 11 32 68 143 12 105 244 43 64 133 150 109 
64 11 43 68 122 32 63 77 163 3 12 226 244 
65 8 21 118 263 94 103 203 5 270 
66 8 255 47 269 14 111 86 245 230 
67 10 5 6 195 132 259 94 103 119 23 263 
68 11 32 63 43 64 12 143 244 105 133 122 150 
69 6 45 129 110 222 11 171 
70 11 266 193 261 124 19 224 10 161 146 99 72 
71 7 144 158 59 106 181 31 120 
72 11 99 186 123 19 224 155 167 249 246 261 3 
73 11 237 141 27 115 57 18 48 85 256 87 206 
74 10 165 9 196 216 102 104 251 126 128 76 
75 11 86 269 230 51 14 233 255 170 134 17 66 
76 11 102 9 165 74 215 196 251 216 104 157 194 
77 11 163 122 258 268 226 64 3 8 43 228 41 
78 11 109 133 150 60 143 105 153 63 32 12 239 
79 11 2 235 97 229 96 242 240 142 200 178 61 
80 7 243 4 262 218 147 126 173 
81 7 219 169 16 253 225 136 188 
82 11 209 213 34 156 190 7 170 260 27 18 237 
83 11 248 90 177 22 36 24 189 159 241 265 42 
84 11 174 193 266 70 162 261 28 20 124 239 161 
85 9 206 57 141 145 237 73 48 27 115 
86 11 269 75 51 134 17 230 233 255 14 47 66 
87 11 48 114 268 8 115 256 258 228 41 73 163 
88 8 139 207 130 236 135 201 26 62 
89 10 98 154 184 149 214 253 16 188 169 225 
90 11 83 248 177 241 159 22 24 36 189 55 208 
91 8 50 30 113 176 100 37 152 221 
92 11 111 121 138 14 230 255 260 256 18 269 66 
93 9 198 46 180 38 187 33 223 234 147 
94 7 103 118 263 65 5 67 21 
95 10 242 142 229 108 96 235 2 79 178 179 
96 9 178 242 229 235 95 79 142 2 61 
97 11 2 240 79 200 39 101 15 229 235 117 142 
98 11 154 89 149 184 214 188 253 16 33 157 56 
99 11 72 186 19 123 224 155 167 249 261 161 246 
100 5 50 113 30 91 152 
101 11 200 240 39 97 117 137 168 15 197 2 79 
102 11 76 9 165 74 196 216 215 104 194 251 128 
103 6 94 118 65 263 67 5 
104 8 128 216 196 194 165 9 74 102 
105 11 143 150 244 133 60 32 63 78 68 109 12 
106 11 31 56 158 120 71 181 46 33 144 198 267 
107 11 233 51 58 134 17 86 35 170 75 250 49 
108 9 142 179 95 15 2 229 242 240 39 
109 11 78 133 143 150 60 12 63 105 32 153 222 
110 11 222 171 172 153 45 69 11 78 109 133 264 
111 10 138 92 121 255 14 230 66 256 269 260 
112 7 116 125 204 247 13 81 219 
113 6 50 91 100 152 176 30 
114 11 8 228 87 258 268 48 41 246 226 249 115 
115 11 48 73 256 87 237 18 141 57 114 27 268 
116 7 112 125 204 13 247 81 227 
117 11 39 137 15 168 240 52 101 200 97 26 2 
118 5 94 103 65 21 263 
119 9 151 5 270 136 6 132 67 263 259 
120 10 56 267 106 44 181 31 158 71 149 211 
121 11 92 260 18 256 138 111 115 7 87 73 14 
122 11 77 163 64 258 43 226 268 3 8 228 41 
123 9 167 186 19 72 99 146 249 224 131 
124 11 10 70 146 19 266 131 123 167 224 193 261 
125 8 112 116 204 81 227 219 169 16 
126 9 147 4 187 243 74 80 218 128 104 
127 11 162 174 84 124 266 54 70 202 193 10 29 
128 8 104 216 196 194 165 9 74 126 
129 5 45 69 212 11 264 
130 7 88 139 207 236 135 26 201 
131 7 146 182 167 123 10 19 186 
132 11 6 259 23 67 5 25 195 119 136 151 211 
133 11 150 78 60 143 105 109 32 63 244 153 12 
134 10 17 51 86 233 49 107 245 75 269 47 
135 10 201 26 52 62 179 236 207 15 117 39 
136 7 151 119 25 219 6 132 81 
137 10 168 117 39 101 15 52 200 240 26 97 
138 11 111 92 121 255 14 256 230 77 163 66 18 
139 8 88 207 236 130 135 62 201 26 
140 10 214 76 148 102 157 215 231 9 251 165 
141 11 57 237 73 85 27 115 206 48 145 87 18 
142 10 95 108 242 229 2 179 235 79 96 97 
143 11 63 32 105 133 150 68 78 109 60 12 244 
144 5 71 59 158 106 31 
145 8 206 85 57 141 237 27 73 48 
146 10 10 131 167 123 19 124 186 99 72 182 
147 8 4 126 218 243 187 80 223 234 
148 10 231 194 9 76 102 165 196 216 104 128 
149 11 184 188 98 253 16 89 56 225 169 120 154 
150 11 60 133 105 78 143 109 244 32 63 153 239 
151 7 119 136 270 247 5 6 203 
152 7 176 113 21 91 65 50 118 
153 11 239 60 78 150 133 20 109 105 222 110 143 
154 10 214 98 89 157 149 140 184 215 33 251 
155 11 3 246 41 226 228 72 99 175 186 258 8 
156 11 7 27 260 18 237 73 141 57 145 190 115 
157 10 215 251 38 76 102 74 9 165 187 33 
158 9 71 144 106 59 31 181 120 56 46 
159 9 55 166 90 83 22 42 248 189 265 
160 7 182 131 146 10 124 167 123 
161 11 261 224 175 244 99 72 193 19 266 155 70 
162 11 174 127 84 124 266 70 193 10 146 261 202 
163 11 77 122 258 268 226 8 64 3 228 41 43 
164 11 221 185 232 254 176 152 21 203 65 13 263 
165 10 9 102 196 76 216 74 104 194 128 215 
166 5 55 42 159 205 22 
167 9 123 186 19 146 131 99 72 249 10 
168 10 137 117 39 101 15 52 200 240 26 97 
169 8 219 81 16 253 188 225 184 136 
170 11 75 233 51 230 86 269 14 107 134 255 260 
171 10 172 110 222 153 20 69 78 45 28 109 
172 10 171 110 222 153 20 28 239 78 69 109 
173 4 80 243 262 4 
174 11 84 162 266 193 70 124 261 10 127 28 161 
175 11 161 244 224 261 155 3 105 64 72 99 32 
176 10 152 91 113 221 50 37 185 164 30 100 
177 11 248 83 36 22 130 90 189 24 88 26 139 
178 10 96 235 229 242 61 79 95 245 2 47 
179 8 108 62 142 135 201 95 15 52 
180 9 93 198 46 187 38 223 234 147 33 
181 10 44 267 120 158 106 71 56 59 31 40 
182 6 131 146 167 160 10 123 
183 8 264 212 11 45 12 43 129 109 
184 11 188 253 16 149 169 225 89 98 219 81 25 
185 11 221 164 176 232 152 254 37 91 21 113 65 
186 10 72 99 123 19 167 249 155 224 246 41 
187 9 38 126 147 180 93 4 74 198 218 
188 10 253 16 184 169 225 219 149 81 25 136 
189 9 265 22 36 42 168 137 117 101 52 
190 9 34 156 145 82 7 27 206 209 85 
191 7 197 200 101 97 61 79 2 
192 2 257 29 
193 11 266 70 261 161 84 224 174 175 239 19 124 
194 8 104 196 216 128 165 9 102 231 
195 8 67 259 6 132 5 211 23 103 
196 9 216 104 128 165 194 9 74 102 76 
197 7 191 200 101 97 79 2 240 
198 9 46 93 180 33 38 187 223 234 31 
199 7 250 191 205 61 197 35 49 
200 11 101 97 240 39 117 197 2 15 137 168 79 
201 10 135 26 52 62 179 15 236 117 207 39 
202 11 28 20 238 84 174 172 239 171 153 193 266 
203 11 270 263 21 65 247 119 151 13 5 254 94 
204 7 247 112 13 125 81 116 151 
205 4 220 250 199 35 
206 9 85 145 57 141 237 73 27 48 115 
207 8 139 236 88 62 135 201 26 130 
208 9 24 241 53 177 248 83 90 130 88 
209 11 82 213 34 156 170 190 7 260 27 18 230 
210 6 252 220 205 166 35 55 
211 8 40 23 195 259 44 132 267 6 
212 5 183 264 129 45 11 
213 11 82 209 34 190 156 7 170 27 260 145 18 
214 10 154 98 140 157 89 215 251 76 33 102 
215 10 251 157 74 76 102 38 9 165 187 196 
216 9 104 196 128 194 165 9 74 102 76 
217 2 192 29 
218 7 4 262 243 147 80 234 223 
219 7 81 169 225 136 16 253 188 
220 7 205 252 35 210 250 199 58 
221 11 185 164 176 152 232 254 37 91 113 21 65 
222 11 110 171 11 109 78 172 45 153 264 133 69 
223 4 234 218 4 262 
224 11 261 161 19 99 72 175 186 70 123 155 266 
225 10 169 188 219 25 253 16 81 136 184 23 
226 11 41 3 228 258 246 8 155 163 268 77 114 
227 10 125 112 116 89 16 253 81 184 204 169 
228 11 41 246 8 226 258 114 3 268 155 87 163 
229 10 242 235 96 95 79 142 2 178 97 108 
230 11 14 75 269 255 92 86 111 121 138 66 260 
231 10 148 194 9 102 165 76 196 216 104 128 
232 11 254 164 203 13 21 65 221 263 270 185 247 
233 11 51 107 134 86 75 170 17 269 230 14 49 
234 4 223 218 4 262 
235 10 229 96 79 242 178 2 95 142 97 61 
236 7 207 62 139 88 135 201 26 
237 11 73 141 27 57 115 18 48 85 87 256 206 
238 7 257 202 29 28 20 192 172 
239 11 153 60 150 20 133 78 105 244 143 109 32 
240 11 39 15 97 2 101 200 117 79 137 52 168 
241 11 208 24 90 83 248 177 53 159 30 22 130 
242 10 229 95 96 235 142 178 79 2 108 97 
243 7 80 4 218 262 147 126 234 
244 11 105 32 63 143 175 68 150 60 133 64 161 
245 9 49 47 178 61 17 96 235 229 242 
246 11 41 228 226 3 155 8 258 114 249 268 163 
247 7 151 13 204 270 203 119 136 
248 11 83 177 90 22 36 189 24 265 130 42 159 
249 10 246 186 41 228 72 114 99 123 155 8 
250 8 199 35 205 191 61 49 197 220 
251 10 215 157 74 38 76 102 187 9 165 126 
252 8 210 220 205 35 166 250 58 199 
253 10 16 188 169 184 225 81 219 149 89 25 
254 11 232 13 203 164 21 247 270 263 65 151 119 
255 10 14 66 269 230 111 92 138 86 75 47 
256 11 115 87 18 48 268 121 73 237 8 114 258 
257 4 29 238 192 202 
258 11 8 268 226 228 41 114 163 246 77 3 122 
259 11 132 6 23 67 195 25 5 211 119 136 151 
260 11 18 7 121 27 92 256 73 115 237 156 48 
261 11 161 224 175 70 266 19 193 99 72 186 155 
262 5 218 80 243 4 234 
263 10 65 21 94 118 103 203 270 5 119 67 
264 11 11 45 183 212 222 109 12 129 78 110 69 
265 8 189 42 22 168 137 36 101 117 
266 11 193 70 261 161 84 224 174 19 124 175 10 
267 9 44 120 181 56 211 40 23 106 25 
268 11 258 8 87 114 163 228 77 226 41 48 122 
269 11 86 75 255 14 230 66 51 47 17 134 111 
270 9 119 203 151 263 5 247 136 67 21 
DEPOT_SECTION
   1
   -1
EOF
