NAME :  X-n327-kX-w65-c11.cctp
COMMENT : 	Adapted by Maziero, Usberti and Cavellucci from the Uchoa, Pecin, Pessoa, Poggi, Subramanian, and Vidal (2013)
TYPE :  CCTP
DIMENSION :    308
EDGE_WEIGHT_TYPE : 	EUC_2D	
CAPACITY : 	128
VERTICES_WITHIN_COVERAGE :  11
VERTICES_WITH_DEMAND : 	65
NODE_COORD_SECTION
1 236 951
2 735 289
3 841 735
4 846 821
5 907 810
6 55 136
7 372 422
8 437 584
9 509 822
10 57 519
11 563 333
12 750 8
13 644 692
14 123 787
15 865 618
16 833 453
17 736 643
18 90 930
19 804 192
20 435 164
21 540 911
22 747 80
23 486 239
24 511 784
25 639 247
26 337 11
27 95 706
28 719 839
29 943 421
30 55 633
31 396 807
32 916 252
33 191 716
34 552 500
35 226 520
36 666 833
37 450 431
38 427 307
39 4 89
40 736 784
41 615 382
42 739 386
43 229 527
44 594 197
45 910 398
46 492 214
47 974 107
48 914 556
49 384 827
50 151 908
51 390 873
52 70 232
53 418 29
54 128 721
55 211 129
56 641 993
57 220 883
58 293 551
59 244 952
60 910 489
61 324 280
62 466 437
63 879 676
64 359 770
65 95 631
66 920 56
67 577 407
68 178 769
69 225 359
70 882 228
71 759 814
72 234 405
73 33 412
74 423 135
75 194 121
76 970 723
77 6 206
78 392 669
79 782 300
80 107 786
81 889 855
82 68 280
83 522 848
84 653 78
85 719 736
86 809 404
87 620 655
88 439 605
89 990 874
90 46 236
91 980 500
92 625 383
93 146 430
94 795 241
95 714 554
96 200 946
97 89 207
98 144 648
99 633 877
100 482 843
101 670 150
102 615 139
103 192 844
104 396 409
105 799 30
106 72 916
107 917 12
108 370 551
109 686 937
110 156 769
111 553 21
112 86 666
113 42 261
114 494 309
115 767 378
116 528 311
117 697 21
118 545 665
119 675 228
120 752 812
121 180 120
122 94 979
123 348 861
124 397 753
125 229 855
126 756 910
127 311 203
128 177 491
129 280 408
130 470 132
131 40 324
132 386 644
133 975 360
134 9 836
135 466 934
136 397 598
137 658 175
138 470 227
139 472 882
140 157 4
141 876 714
142 780 25
143 394 658
144 697 278
145 879 723
146 192 970
147 522 896
148 620 103
149 122 342
150 790 311
151 599 866
152 611 927
153 761 602
154 983 317
155 320 981
156 933 461
157 156 922
158 10 773
159 834 293
160 926 186
161 370 613
162 440 477
163 243 999
164 508 847
165 669 376
166 666 745
167 103 931
168 676 953
169 54 978
170 687 958
171 490 478
172 753 305
173 109 937
174 15 915
175 602 738
176 348 565
177 688 798
178 632 674
179 40 982
180 223 946
181 464 945
182 408 367
183 530 770
184 924 692
185 428 765
186 358 485
187 565 728
188 443 295
189 66 938
190 222 992
191 716 347
192 495 763
193 683 452
194 36 884
195 74 958
196 719 301
197 698 823
198 816 412
199 292 364
200 565 958
201 429 532
202 79 947
203 609 887
204 664 939
205 17 996
206 328 988
207 680 383
208 742 358
209 659 374
210 622 546
211 850 978
212 230 964
213 663 425
214 195 917
215 559 938
216 496 961
217 469 485
218 688 780
219 135 944
220 338 907
221 700 752
222 176 858
223 457 356
224 133 940
225 531 327
226 656 685
227 215 828
228 257 995
229 224 999
230 308 625
231 552 995
232 689 723
233 244 517
234 615 185
235 174 911
236 645 998
237 668 409
238 461 850
239 605 496
240 447 815
241 643 652
242 281 970
243 544 649
244 681 805
245 237 976
246 592 381
247 239 911
248 577 793
249 749 816
250 446 458
251 49 965
252 705 802
253 644 796
254 461 958
255 249 978
256 858 374
257 681 387
258 107 882
259 221 974
260 44 884
261 341 985
262 587 702
263 408 941
264 689 379
265 520 846
266 367 393
267 457 261
268 613 339
269 299 819
270 670 272
271 205 968
272 720 840
273 81 862
274 437 430
275 443 557
276 228 890
277 707 458
278 365 855
279 527 416
280 224 929
281 298 869
282 524 758
283 115 966
284 235 882
285 391 446
286 554 866
287 464 857
288 547 966
289 464 969
290 721 823
291 415 525
292 632 720
293 481 524
294 603 286
295 774 753
296 527 935
297 584 437
298 846 221
299 732 271
300 76 975
301 564 787
302 310 420
303 615 788
304 406 463
305 880 364
306 559 849
307 706 472
308 397 449
DEMAND_SECTION
2 6
3 10
4 8
5 5
6 6
7 9
8 8
9 6
10 7
11 10
12 8
13 6
14 10
15 6
16 7
17 6
18 9
19 8
20 10
21 10
22 9
23 9
24 9
25 7
26 7
27 8
28 7
29 5
30 5
31 7
32 9
33 6
34 9
35 10
36 9
37 8
38 8
39 5
40 5
41 8
42 5
43 10
44 7
45 8
46 7
47 6
48 5
49 9
50 8
51 10
52 5
53 5
54 7
55 5
56 8
57 10
58 8
59 9
60 9
61 5
62 6
63 6
64 5
65 9
66 9
COVERAGE_SECTION
2 10 299 196 172 144 79 150 191 270 208 94 
3 11 145 141 295 63 4 184 5 71 40 120 15 
4 11 81 5 3 71 120 249 295 145 141 40 290 
5 11 81 4 145 3 141 89 76 184 63 295 71 
6 11 39 97 77 52 90 113 121 75 82 55 140 
7 10 104 266 285 308 304 302 186 274 182 37 
8 10 88 275 136 201 291 161 293 108 132 143 
9 11 164 265 83 100 24 183 238 287 306 192 240 
10 11 73 30 65 128 93 112 98 35 43 233 149 
11 11 225 116 268 246 294 41 114 67 92 279 209 
12 11 142 105 117 22 84 148 101 107 66 102 137 
13 10 226 178 292 241 87 232 166 262 175 221 
14 11 80 110 68 54 27 273 103 222 258 33 227 
15 11 63 48 184 141 153 145 3 17 60 76 295 
16 11 198 86 256 60 45 115 156 305 29 42 277 
17 11 153 226 95 232 241 85 13 178 221 295 87 
18 11 167 173 202 106 189 195 224 283 219 300 122 
19 11 94 298 70 159 299 79 2 150 160 172 22 
20 11 74 130 138 46 23 267 127 188 53 38 114 
21 11 147 296 215 286 200 288 306 83 216 265 164 
22 11 142 12 105 117 84 101 19 148 137 102 119 
23 11 138 46 267 114 188 116 38 20 225 130 44 
24 11 183 192 282 9 301 164 265 83 100 248 240 
25 11 270 119 294 144 234 44 137 268 299 196 101 
26 11 53 74 55 75 130 140 20 121 127 111 138 
27 11 54 112 65 98 80 30 14 110 33 68 158 
28 11 272 290 197 249 252 120 71 177 244 36 40 
29 11 45 156 133 60 305 91 256 154 16 198 86 
30 11 65 112 27 98 10 54 158 33 80 14 110 
31 11 49 64 240 185 124 278 51 123 238 287 100 
32 11 70 160 298 159 154 305 94 133 19 256 150 
33 11 68 54 110 98 27 14 80 227 112 65 103 
34 11 239 171 297 293 210 217 279 67 62 162 250 
35 11 43 233 128 58 72 93 129 176 302 230 186 
36 10 244 197 177 253 252 28 272 99 290 218 
37 10 274 62 250 162 304 308 217 104 285 171 
38 11 188 267 223 182 114 23 138 116 266 61 225 
39 11 6 77 97 90 52 140 113 121 75 82 55 
40 11 120 249 252 71 290 218 221 295 177 85 197 
41 11 92 246 268 67 209 165 237 297 213 207 257 
42 9 208 115 191 264 257 207 165 86 237 
43 11 35 233 128 58 72 176 230 93 129 302 186 
44 11 234 102 25 137 119 101 294 148 46 270 23 
45 11 29 305 256 156 133 60 16 198 86 154 91 
46 11 23 138 267 20 130 114 188 44 116 74 38 
47 11 66 160 107 70 32 298 19 105 154 142 94 
48 11 60 15 91 156 63 16 184 29 45 153 141 
49 11 31 278 51 123 64 240 124 185 238 269 287 
50 11 157 235 224 219 214 173 258 167 222 96 18 
51 11 278 123 49 220 31 263 238 287 240 139 281 
52 11 90 97 113 82 77 6 131 149 39 121 75 
53 11 26 74 130 111 20 46 127 138 148 23 102 
54 11 27 110 33 14 80 68 112 98 65 30 158 
55 11 75 121 127 140 97 6 26 52 61 90 82 
56 7 236 168 170 204 109 152 200 
57 11 276 284 125 247 214 280 103 222 235 227 180 
58 10 176 233 43 35 230 108 186 161 136 291 
59 11 212 180 245 255 280 259 242 247 271 96 228 
60 11 156 48 91 29 16 45 198 256 305 86 15 
61 11 127 199 38 188 182 266 69 267 129 302 104 
62 11 37 250 274 162 171 217 279 304 308 104 285 
63 11 141 145 184 15 3 76 48 295 5 153 17 
64 11 124 31 49 185 269 278 123 240 78 51 281 
65 11 112 30 98 27 54 10 33 110 80 14 68 
66 11 107 47 105 160 142 22 70 12 19 298 32 
67 11 246 297 41 279 92 11 268 209 213 237 225 
68 11 110 33 14 54 227 80 103 222 125 27 57 
69 11 72 199 129 149 302 93 61 128 266 233 7 
70 11 298 32 160 159 19 94 79 150 154 305 256 
71 11 120 249 40 290 28 272 252 197 295 177 218 
72 11 129 69 199 302 93 128 233 35 43 149 266 
73 11 131 10 149 93 82 113 128 90 52 69 72 
74 11 20 130 138 46 53 23 127 267 26 188 38 
75 11 121 55 140 97 6 127 52 26 90 39 82 
76 11 184 145 141 63 5 3 15 89 81 4 48 
77 11 90 113 52 97 6 82 39 131 149 121 75 
78 11 143 132 161 136 88 124 230 8 185 64 176 
79 11 150 172 2 159 299 94 196 208 115 191 144 
80 11 14 110 54 68 273 27 258 158 222 103 33 
81 11 5 4 89 3 211 145 71 141 120 126 249 
82 11 113 52 90 131 97 149 77 73 6 93 69 
83 10 265 164 9 286 306 100 147 287 139 238 
84 11 148 102 117 101 22 137 234 111 12 44 142 
85 9 221 232 40 166 218 295 252 177 244 
86 11 198 115 16 256 42 208 305 150 45 79 191 
87 11 178 241 13 226 262 292 118 243 175 187 232 
88 11 8 136 275 132 161 143 201 78 291 108 293 
89 11 81 5 76 4 211 145 184 141 3 63 126 
90 11 52 113 82 77 97 131 6 149 39 73 121 
91 11 156 60 29 48 45 133 16 15 305 256 154 
92 11 41 246 209 165 268 237 67 207 257 213 264 
93 11 128 72 149 69 73 35 10 43 233 129 131 
94 11 19 298 79 159 150 299 2 172 70 196 144 
95 10 153 307 17 210 277 193 241 239 87 213 
96 11 180 271 146 214 280 212 259 59 235 245 157 
97 11 52 90 113 82 6 77 121 131 75 149 39 
98 11 65 112 54 27 33 30 110 68 14 80 43 
99 7 203 151 36 152 204 306 109 
100 11 238 287 164 9 265 83 139 240 24 147 286 
101 11 137 102 234 148 84 119 44 25 22 270 144 
102 11 148 234 101 137 44 84 119 25 111 46 117 
103 11 222 227 125 57 284 276 235 214 50 68 247 
104 11 7 266 285 308 182 274 304 37 250 62 162 
105 11 142 12 22 117 107 66 84 19 101 47 148 
106 11 18 189 202 167 195 173 260 194 258 251 273 
107 11 66 47 105 142 12 160 22 19 70 117 298 
108 9 176 291 136 161 201 186 275 8 58 
109 4 168 170 204 56 
110 11 68 14 80 54 33 103 227 27 222 125 273 
111 11 148 84 102 53 130 117 74 101 234 44 20 
112 11 65 27 30 98 54 33 80 110 14 158 68 
113 11 90 82 52 131 77 97 149 6 73 39 121 
114 11 116 225 188 223 267 38 23 11 138 46 182 
115 11 42 208 86 191 198 150 172 264 79 257 207 
116 11 225 114 11 294 23 223 188 267 268 246 38 
117 11 12 84 22 142 105 148 101 102 111 137 234 
118 11 243 262 187 87 178 175 282 241 13 292 183 
119 11 25 270 144 137 299 234 101 196 2 44 294 
120 11 249 71 40 290 28 272 252 197 295 177 244 
121 11 75 55 140 6 97 127 52 90 39 26 77 
122 11 300 283 195 202 169 173 251 18 167 189 179 
123 11 278 51 220 49 281 269 31 64 263 240 238 
124 11 185 64 31 49 240 78 143 192 278 132 238 
125 11 284 57 227 276 103 222 247 281 214 280 235 
126 3 109 272 28 
127 11 61 55 20 74 75 121 38 267 138 188 199 
128 11 35 43 93 233 72 10 58 129 69 302 149 
129 11 302 72 199 69 266 7 186 233 104 285 35 
130 11 20 74 46 138 23 53 267 111 44 102 148 
131 11 82 113 149 73 90 52 77 97 93 69 6 
132 11 143 78 161 136 88 8 230 176 108 275 124 
133 11 154 29 45 305 156 256 32 91 60 159 70 
134 11 194 260 158 273 174 106 258 80 189 14 18 
135 11 181 254 289 216 139 263 296 147 21 287 238 
136 11 161 8 88 132 108 176 143 275 78 201 291 
137 11 101 234 102 119 44 25 148 84 270 144 299 
138 11 23 46 267 20 188 114 38 130 116 74 225 
139 11 287 238 100 164 135 147 83 265 181 9 240 
140 11 121 75 55 6 39 26 97 52 77 127 90 
141 11 145 63 3 184 76 15 5 295 4 81 71 
142 11 105 12 22 117 84 107 66 101 19 148 137 
143 11 78 132 161 136 88 8 230 124 176 108 185 
144 10 270 196 299 2 119 172 25 191 79 208 
145 11 141 3 63 184 5 76 4 15 295 81 71 
146 11 271 96 259 190 212 180 229 245 280 214 59 
147 11 21 296 286 83 265 164 139 215 306 100 135 
148 11 102 84 101 137 234 44 111 117 22 119 25 
149 11 82 131 93 69 73 113 52 72 90 97 128 
150 11 79 172 159 2 208 94 299 115 196 191 42 
151 8 203 99 306 286 152 21 36 248 
152 8 203 215 204 99 200 151 168 56 
153 11 17 95 15 241 226 63 85 232 307 13 178 
154 11 133 32 45 29 305 70 256 160 159 156 298 
155 11 206 261 242 228 255 220 163 59 245 212 263 
156 11 60 29 91 45 48 16 133 305 256 198 86 
157 11 50 235 224 219 214 173 96 167 146 283 258 
158 11 134 80 27 14 194 273 260 54 112 174 110 
159 11 150 79 94 298 70 172 256 305 32 2 299 
160 11 70 32 298 47 19 66 159 94 154 107 133 
161 10 136 132 143 176 78 108 230 88 8 275 
162 10 250 217 304 37 274 62 171 308 291 201 
163 11 228 229 190 255 245 259 212 59 242 271 180 
164 11 265 83 9 100 287 238 139 286 147 306 24 
165 9 209 207 257 264 237 92 213 41 191 
166 7 232 221 218 292 85 253 13 
167 11 173 18 202 224 106 219 283 189 195 122 258 
168 6 170 204 109 56 236 152 
169 11 251 179 300 195 122 202 205 189 18 283 106 
170 5 168 109 204 56 236 
171 11 217 293 62 250 162 37 34 274 279 201 304 
172 11 2 79 196 150 299 208 191 144 115 94 42 
173 11 167 18 224 219 283 202 195 106 189 122 157 
174 11 194 260 189 106 251 179 202 195 169 18 134 
175 9 292 187 262 303 248 13 301 166 178 
176 10 108 161 58 136 230 291 186 201 132 8 
177 9 244 252 218 197 36 290 253 221 40 
178 11 13 87 241 226 292 262 175 232 166 187 118 
179 11 169 251 205 300 195 189 202 122 18 174 106 
180 11 280 212 59 96 259 271 245 247 146 214 255 
181 11 135 254 289 216 263 139 296 147 21 288 287 
182 11 104 266 223 38 7 274 37 188 285 308 62 
183 11 282 24 192 301 248 187 9 265 83 175 164 
184 11 63 141 76 145 3 15 5 48 4 295 81 
185 11 124 31 240 192 64 49 24 238 100 282 9 
186 9 285 304 308 7 108 291 176 302 162 
187 11 262 175 282 183 301 118 248 292 24 192 303 
188 11 38 267 114 223 23 138 182 116 225 46 61 
189 11 202 195 106 18 251 167 300 169 173 122 179 
190 11 229 259 163 245 212 271 255 228 146 59 180 
191 10 208 264 42 196 207 257 165 172 115 2 
192 11 24 282 183 9 185 240 301 187 100 164 248 
193 10 277 307 213 237 257 207 264 165 209 42 
194 11 260 174 106 273 134 189 18 258 202 167 251 
195 11 202 300 189 251 169 122 18 167 173 106 179 
196 10 2 144 299 172 191 270 208 79 150 264 
197 11 252 290 244 28 177 272 36 218 249 40 120 
198 11 86 16 256 115 305 42 208 45 150 79 277 
199 11 129 302 69 72 266 61 7 104 182 285 308 
200 9 288 215 231 296 21 152 216 147 56 
201 9 291 275 8 293 162 108 217 136 304 
202 11 195 189 18 300 167 106 173 122 251 169 283 
203 8 151 99 152 286 306 215 21 204 
204 7 168 109 170 152 56 236 99 
205 11 179 169 251 300 195 189 122 202 174 106 18 
206 11 155 261 242 228 255 220 163 59 245 263 212 
207 9 257 264 165 209 237 213 191 92 42 
208 10 42 191 115 172 264 196 150 207 257 2 
209 9 165 207 257 264 92 237 41 213 268 
210 11 239 34 95 241 87 193 307 297 277 178 213 
211 4 126 81 4 170 
212 11 259 245 59 180 255 271 190 96 229 280 163 
213 10 237 193 257 207 165 209 264 277 92 41 
214 11 235 96 280 157 180 57 276 247 50 271 146 
215 10 200 288 296 21 152 147 231 216 203 286 
216 11 289 254 181 135 296 288 231 21 215 200 147 
217 10 171 162 250 293 62 37 201 274 291 304 
218 9 177 244 252 221 166 197 253 40 85 
219 11 224 173 157 283 167 50 18 235 122 202 146 
220 11 123 281 278 51 155 261 263 206 242 49 269 
221 9 85 218 232 166 40 177 252 244 197 
222 11 103 227 57 125 235 50 276 214 284 157 258 
223 11 182 38 114 188 37 274 225 62 104 116 279 
224 11 219 173 157 167 283 50 18 235 202 122 195 
225 11 116 11 114 223 246 268 294 279 67 188 23 
226 10 13 178 241 292 87 232 166 262 175 221 
227 11 103 125 222 57 284 276 68 110 269 247 214 
228 11 163 255 245 229 190 242 212 259 59 271 180 
229 11 190 163 259 245 228 255 212 271 146 59 180 
230 11 161 176 58 132 143 136 78 108 43 233 35 
231 11 288 200 215 296 216 21 56 152 289 236 254 
232 9 221 166 85 226 13 218 292 177 178 
233 11 35 43 58 128 72 129 176 302 186 230 93 
234 11 44 137 102 101 25 119 148 294 270 84 144 
235 11 157 214 50 96 224 219 222 280 57 276 180 
236 7 56 168 170 204 109 152 200 
237 10 213 257 207 165 209 264 193 92 41 277 
238 11 287 100 139 240 164 9 265 83 51 147 31 
239 10 34 210 297 193 213 67 307 237 277 279 
240 11 238 100 287 31 185 9 49 164 24 192 139 
241 11 87 178 226 13 292 262 232 17 175 166 118 
242 11 255 228 59 155 245 163 206 212 259 261 180 
243 11 118 262 87 187 178 241 175 13 282 292 88 
244 9 177 252 197 218 36 253 290 28 272 
245 11 255 212 259 190 163 59 229 228 180 271 242 
246 11 41 67 92 268 11 297 209 279 165 225 237 
247 11 280 276 284 57 180 59 214 96 212 125 235 
248 8 301 303 183 306 175 282 187 24 
249 11 120 71 290 40 28 272 252 197 177 295 244 
250 10 162 37 62 274 217 304 171 308 285 104 
251 11 169 179 195 300 189 202 205 122 18 106 174 
252 10 177 197 244 290 218 40 28 272 249 120 
253 7 303 244 36 177 218 166 197 
254 11 289 181 135 216 263 296 139 288 147 21 231 
255 11 245 228 163 212 59 259 190 229 242 180 271 
256 11 305 45 86 198 16 159 115 150 29 79 156 
257 9 207 264 165 209 237 213 191 92 42 
258 11 273 106 167 18 50 173 157 260 224 219 189 
259 11 212 245 271 190 229 180 255 146 59 163 96 
260 11 194 174 106 273 189 134 258 18 202 167 195 
261 11 206 155 242 220 263 228 255 163 59 245 212 
262 11 187 175 292 178 118 87 13 243 226 241 282 
263 11 181 254 135 289 51 220 261 139 216 206 278 
264 9 207 257 165 209 237 191 42 213 208 
265 11 83 164 9 100 286 306 147 287 238 139 24 
266 11 7 104 182 285 302 308 274 199 304 129 37 
267 11 23 138 188 38 46 114 116 223 20 225 182 
268 10 41 92 246 11 294 209 165 67 207 225 
269 11 281 123 278 64 125 227 49 284 220 31 276 
270 10 144 25 119 196 299 2 294 191 268 172 
271 11 146 259 96 212 180 190 245 229 59 280 255 
272 11 28 290 197 249 252 120 71 244 177 36 40 
273 11 258 260 194 106 18 167 134 189 80 173 50 
274 10 37 250 62 308 304 104 162 285 217 7 
275 9 8 201 291 88 293 136 108 217 162 
276 11 57 284 247 125 280 214 180 103 235 222 96 
277 10 307 193 213 237 257 42 207 264 165 95 
278 11 123 51 49 31 220 281 269 64 240 238 263 
279 11 67 297 62 171 246 37 34 225 11 217 250 
280 11 180 247 96 59 214 212 276 271 259 57 284 
281 11 269 123 220 284 278 125 247 276 57 51 227 
282 11 183 24 192 301 187 248 9 175 262 265 83 
283 11 122 173 219 224 167 300 202 195 18 189 157 
284 11 276 57 125 247 280 214 103 227 222 281 180 
285 10 308 304 7 104 274 186 250 162 266 37 
286 10 306 83 265 147 151 21 164 203 9 215 
287 11 238 100 139 164 240 9 265 83 147 51 135 
288 11 200 231 215 296 216 21 147 152 289 181 254 
289 11 254 181 216 135 263 296 288 139 231 147 21 
290 11 28 272 197 252 249 120 71 177 40 244 218 
291 9 201 275 108 162 8 304 293 217 186 
292 8 13 175 166 226 178 262 232 87 
293 10 217 171 275 201 162 291 8 34 250 62 
294 10 25 268 11 270 116 225 44 119 144 246 
295 11 40 85 71 120 249 3 221 252 290 218 232 
296 11 21 215 288 147 216 200 135 181 231 254 289 
297 10 67 246 279 41 239 92 34 213 237 209 
298 11 70 19 94 159 32 160 79 150 299 172 2 
299 11 2 196 144 172 79 270 94 150 119 191 208 
300 11 195 122 169 202 251 179 189 283 18 173 167 
301 8 248 183 282 303 24 187 175 306 
302 11 129 199 7 266 72 186 285 104 308 69 304 
303 7 253 248 301 175 166 36 244 
304 9 308 285 162 250 274 7 186 37 104 
305 11 256 45 198 86 29 159 133 16 150 156 154 
306 10 286 83 265 151 164 9 248 147 301 203 
307 10 277 193 213 237 95 257 42 207 264 165 
308 10 285 304 7 104 274 250 162 186 37 266 
DEPOT_SECTION
   1
   -1
EOF
