NAME :  X-n351-kX-w140-c11.cctp
COMMENT : 	Adapted by Maziero, Usberti and Cavellucci from the Uchoa, Pecin, Pessoa, Poggi, Subramanian, and Vidal (2013)
TYPE :  CCTP
DIMENSION :    351
EDGE_WEIGHT_TYPE : 	EUC_2D	
CAPACITY : 	436
VERTICES_WITHIN_COVERAGE :  11
VERTICES_WITH_DEMAND : 	140
NODE_COORD_SECTION
1 500 500
2 740 442
3 261 710
4 578 522
5 562 509
6 795 425
7 636 463
8 645 617
9 595 524
10 649 599
11 745 252
12 180 757
13 590 598
14 332 775
15 544 551
16 1000 444
17 581 521
18 240 609
19 700 468
20 735 579
21 403 569
22 352 905
23 733 352
24 289 705
25 598 249
26 565 570
27 711 336
28 816 497
29 769 411
30 409 651
31 231 742
32 575 555
33 567 477
34 693 537
35 521 534
36 457 414
37 826 450
38 638 617
39 245 744
40 235 859
41 233 821
42 863 455
43 739 480
44 311 717
45 567 373
46 753 427
47 547 493
48 732 382
49 664 511
50 945 316
51 250 770
52 598 493
53 262 653
54 568 558
55 877 808
56 395 796
57 467 732
58 685 327
59 260 910
60 571 648
61 747 398
62 571 650
63 541 442
64 841 466
65 744 725
66 662 349
67 686 543
68 184 776
69 177 770
70 664 559
71 802 446
72 110 559
73 662 566
74 605 544
75 287 671
76 556 738
77 615 511
78 293 693
79 375 671
80 383 614
81 834 417
82 704 397
83 255 696
84 708 388
85 799 172
86 298 531
87 740 456
88 661 582
89 664 398
90 659 461
91 630 290
92 267 721
93 682 474
94 269 639
95 577 361
96 540 550
97 370 733
98 546 587
99 708 412
100 724 572
101 416 688
102 544 794
103 714 478
104 916 502
105 313 770
106 464 361
107 356 921
108 776 470
109 477 721
110 733 447
111 724 495
112 272 792
113 491 471
114 348 505
115 168 309
116 595 628
117 227 720
118 781 585
119 228 680
120 807 595
121 582 503
122 327 603
123 505 586
124 235 788
125 135 677
126 716 440
127 221 678
128 633 421
129 826 476
130 879 350
131 738 475
132 676 446
133 388 669
134 465 690
135 543 422
136 675 544
137 770 613
138 309 590
139 434 594
140 647 551
141 468 405
142 0 863
143 663 582
144 209 755
145 966 516
146 580 593
147 221 558
148 230 594
149 329 768
150 786 523
151 636 512
152 704 474
153 819 376
154 516 472
155 724 505
156 565 501
157 404 589
158 663 527
159 901 693
160 254 640
161 726 813
162 253 708
163 269 730
164 823 519
165 586 689
166 739 421
167 706 519
168 726 423
169 614 525
170 239 690
171 643 328
172 793 426
173 221 731
174 290 732
175 709 310
176 654 492
177 745 370
178 459 639
179 618 570
180 613 528
181 808 359
182 652 434
183 258 637
184 722 421
185 837 321
186 68 544
187 191 686
188 535 578
189 242 624
190 371 387
191 835 757
192 671 445
193 764 425
194 771 480
195 242 763
196 670 520
197 580 482
198 292 823
199 547 443
200 807 780
201 520 622
202 797 356
203 555 484
204 747 340
205 228 846
206 760 446
207 734 451
208 604 277
209 790 405
210 680 445
211 741 460
212 244 758
213 632 536
214 600 503
215 562 518
216 672 398
217 620 425
218 852 489
219 577 553
220 235 755
221 879 359
222 187 725
223 724 328
224 775 451
225 283 660
226 195 572
227 830 457
228 205 739
229 733 341
230 884 418
231 434 452
232 716 458
233 495 573
234 579 545
235 228 725
236 604 417
237 806 347
238 420 730
239 626 499
240 555 449
241 326 598
242 551 554
243 177 983
244 794 430
245 771 573
246 135 683
247 487 291
248 239 703
249 789 477
250 273 752
251 521 478
252 677 456
253 505 327
254 453 744
255 321 753
256 509 497
257 749 451
258 633 815
259 796 429
260 341 677
261 797 485
262 571 649
263 276 631
264 857 439
265 587 776
266 750 412
267 752 393
268 338 657
269 206 651
270 170 716
271 831 441
272 104 694
273 809 569
274 591 407
275 605 549
276 201 625
277 300 676
278 548 478
279 637 450
280 706 463
281 788 583
282 611 574
283 176 761
284 404 508
285 798 573
286 614 415
287 257 707
288 780 394
289 729 472
290 547 462
291 379 817
292 539 556
293 498 909
294 275 706
295 726 426
296 269 637
297 780 439
298 724 478
299 832 405
300 229 700
301 223 692
302 512 428
303 623 445
304 763 481
305 817 463
306 755 418
307 655 522
308 720 471
309 286 645
310 320 745
311 111 606
312 289 737
313 636 260
314 184 680
315 679 590
316 256 618
317 200 671
318 264 677
319 326 681
320 102 640
321 229 729
322 553 266
323 519 526
324 692 552
325 709 509
326 547 655
327 794 421
328 189 728
329 565 676
330 326 462
331 687 334
332 298 705
333 582 478
334 737 579
335 458 895
336 663 391
337 394 639
338 352 782
339 621 303
340 268 629
341 440 831
342 748 593
343 400 547
344 268 721
345 226 646
346 578 616
347 648 377
348 446 574
349 502 571
350 574 593
351 459 466
DEMAND_SECTION
2 43
3 82
4 57
5 51
6 29
7 55
8 71
9 35
10 28
11 36
12 18
13 42
14 79
15 88
16 68
17 99
18 10
19 11
20 77
21 68
22 44
23 17
24 60
25 33
26 30
27 37
28 87
29 18
30 6
31 42
32 1
33 22
34 78
35 94
36 65
37 88
38 28
39 29
40 34
41 87
42 47
43 53
44 44
45 34
46 94
47 70
48 41
49 28
50 80
51 32
52 20
53 16
54 70
55 22
56 96
57 81
58 23
59 46
60 2
61 56
62 45
63 66
64 7
65 64
66 73
67 51
68 64
69 81
70 86
71 52
72 76
73 26
74 30
75 3
76 95
77 75
78 85
79 50
80 41
81 1
82 42
83 1
84 47
85 34
86 13
87 1
88 31
89 56
90 63
91 39
92 87
93 8
94 67
95 66
96 11
97 38
98 94
99 57
100 43
101 56
102 18
103 77
104 39
105 30
106 42
107 90
108 62
109 95
110 66
111 84
112 9
113 96
114 63
115 19
116 51
117 50
118 89
119 9
120 6
121 34
122 15
123 20
124 33
125 3
126 87
127 96
128 53
129 24
130 7
131 13
132 94
133 44
134 40
135 56
136 62
137 78
138 50
139 16
140 35
141 21
COVERAGE_SECTION
2 11 110 207 257 87 211 46 206 166 295 126 168 
3 11 287 162 92 344 83 294 163 248 24 170 318 
4 11 17 215 9 121 5 234 156 214 219 32 52 
5 11 156 215 4 121 17 47 203 33 197 278 9 
6 11 172 259 327 244 209 297 71 29 193 224 288 
7 11 279 303 90 182 176 239 192 217 128 252 132 
8 11 38 10 88 143 315 116 73 179 282 13 70 
9 11 17 4 180 169 74 214 77 121 234 275 52 
10 11 8 38 88 143 315 73 179 70 282 140 13 
11 11 175 223 204 229 27 58 85 331 23 313 237 
12 11 283 69 68 144 328 228 222 270 173 31 220 
13 11 146 350 346 116 282 26 179 98 32 54 219 
14 11 149 105 338 255 310 97 312 174 44 112 198 
15 11 96 292 242 54 26 188 35 32 219 323 98 
16 11 145 104 230 42 50 264 221 130 218 64 81 
17 11 4 9 121 215 5 234 156 214 219 52 74 
18 11 189 148 316 183 160 340 296 345 94 263 276 
19 11 152 280 103 93 232 308 252 298 289 210 126 
20 11 334 100 342 245 118 137 324 281 315 34 67 
21 11 157 343 139 348 80 284 337 30 241 122 114 
22 11 107 59 291 198 335 341 56 338 40 14 205 
23 11 229 204 177 223 27 48 84 267 61 175 331 
24 11 332 78 294 44 344 92 174 3 277 163 287 
25 11 208 313 322 91 339 171 95 58 66 247 253 
26 11 54 32 219 242 98 350 146 15 234 292 188 
27 11 223 229 331 175 23 58 204 177 48 66 84 
28 11 261 129 164 249 305 218 64 150 227 37 108 
29 11 193 306 266 288 209 46 267 61 327 172 6 
30 11 337 133 101 79 80 178 139 157 134 268 260 
31 11 321 39 220 173 235 212 117 195 144 228 51 
32 11 219 54 234 26 242 15 275 74 4 17 96 
33 11 197 203 333 278 156 290 47 121 240 5 52 
34 11 67 324 136 167 196 158 325 70 49 307 73 
35 11 323 96 292 15 242 256 349 215 188 233 5 
36 11 141 231 351 106 302 113 154 135 63 190 251 
37 11 227 271 305 64 71 129 264 81 42 259 244 
38 11 8 10 88 143 116 315 179 282 13 73 346 
39 11 31 212 220 195 321 235 51 173 163 250 117 
40 11 205 41 59 198 124 112 51 195 68 212 220 
41 11 205 124 40 112 51 195 198 212 220 68 144 
42 11 264 64 227 271 218 37 129 230 305 81 299 
43 11 131 289 298 211 111 308 87 304 103 155 207 
44 11 332 24 174 310 78 312 255 294 319 277 344 
45 11 95 274 135 236 286 199 63 217 240 253 302 
46 11 306 193 166 266 2 206 29 257 168 295 110 
47 11 203 278 156 5 33 215 251 290 197 121 154 
48 11 177 61 267 84 23 82 266 99 166 184 168 
49 11 196 307 158 176 151 136 34 67 239 93 213 
50 11 130 221 185 230 16 153 237 181 299 81 264 
51 11 195 212 220 124 39 250 112 31 144 163 321 
52 11 214 121 197 333 77 239 9 17 156 4 33 
53 11 160 94 183 296 225 318 309 340 263 75 189 
54 11 32 219 26 234 242 15 96 292 98 350 4 
55 11 191 200 159 161 65 137 120 281 118 258 273 
56 11 291 338 341 14 97 238 149 254 105 255 310 
57 11 109 254 134 238 101 76 178 56 97 102 30 
58 11 331 27 175 66 223 171 229 23 347 204 84 
59 11 40 205 22 41 198 107 243 112 124 51 195 
60 11 262 62 326 329 116 346 165 13 350 146 201 
61 11 267 266 48 306 166 29 177 46 193 168 288 
62 11 262 60 326 329 116 346 165 13 350 146 201 
63 11 199 240 135 290 302 278 154 251 33 203 47 
64 11 227 129 37 305 42 218 271 264 28 71 261 
65 11 200 161 191 137 342 258 120 118 20 334 8 
66 11 171 331 347 58 336 89 216 27 84 175 339 
67 11 34 136 324 70 158 196 167 73 307 49 140 
68 11 69 283 12 144 228 328 222 124 220 31 173 
69 11 68 283 12 144 228 328 222 270 173 220 31 
70 11 73 136 140 88 143 67 324 158 315 34 307 
71 11 244 259 6 172 297 305 37 327 224 271 227 
72 11 186 311 320 226 147 276 125 148 246 269 272 
73 11 70 88 143 140 136 315 67 324 10 158 34 
74 11 275 180 169 9 234 213 179 219 282 32 17 
75 11 225 277 78 318 309 53 24 332 94 294 296 
76 11 265 102 165 329 109 326 57 62 262 60 134 
77 11 169 239 180 214 151 9 52 213 74 121 17 
78 11 24 332 277 294 75 44 318 225 319 3 83 
79 11 133 260 337 30 268 101 319 80 97 238 277 
80 11 337 157 30 21 133 139 122 79 241 268 343 
81 11 299 271 264 37 6 227 259 327 172 244 71 
82 11 84 99 184 48 216 168 295 89 336 166 61 
83 11 287 162 3 170 248 318 294 300 92 344 119 
84 11 82 99 48 184 216 168 61 177 295 23 267 
85 11 11 185 175 223 237 204 229 202 313 27 181 
86 11 114 138 241 330 122 147 148 18 316 263 340 
87 11 211 207 257 110 2 131 289 206 43 232 308 
88 11 143 73 315 10 70 140 8 136 38 324 179 
89 11 336 216 347 182 128 82 84 99 192 66 132 
90 11 252 192 7 132 279 93 210 182 176 303 19 
91 11 339 208 313 171 25 58 66 331 175 322 95 
92 11 344 163 3 287 294 162 174 24 312 83 39 
93 11 19 252 152 90 280 132 210 192 103 176 232 
94 11 296 340 183 263 160 53 309 225 316 189 75 
95 11 45 274 236 286 135 339 347 171 217 253 128 
96 11 15 292 242 35 188 54 26 323 32 98 219 
97 11 238 310 338 255 149 14 44 79 260 101 133 
98 11 188 26 350 292 242 146 15 54 96 123 32 
99 11 82 184 168 295 84 126 166 48 216 61 266 
100 11 20 334 342 324 34 245 67 315 136 167 118 
101 11 133 30 238 79 134 337 97 178 57 254 109 
102 11 265 76 258 57 109 254 341 165 329 293 134 
103 11 308 298 152 289 19 280 111 232 131 43 155 
104 11 145 218 42 64 264 230 129 164 227 28 16 
105 11 149 255 14 310 312 338 174 250 112 44 198 
106 11 141 36 253 247 302 231 190 135 45 351 63 
107 11 22 59 335 291 198 341 56 40 338 293 14 
108 11 194 249 304 224 261 206 297 257 71 211 43 
109 11 57 134 254 238 101 76 178 326 30 102 329 
110 11 207 2 87 211 257 126 232 295 168 289 166 
111 11 155 298 103 43 325 131 289 308 152 167 19 
112 11 51 124 198 250 195 212 105 41 220 39 312 
113 11 154 251 256 351 302 278 290 63 47 231 323 
114 11 330 86 284 343 21 138 241 122 157 231 80 
115 11 190 330 147 186 72 86 226 114 148 106 231 
116 11 346 13 60 262 62 146 350 38 8 326 282 
117 11 235 321 173 300 248 31 301 162 228 39 170 
118 11 281 245 285 120 137 273 342 334 20 100 150 
119 11 127 301 170 300 248 317 83 345 269 318 187 
120 11 281 285 273 118 137 245 342 334 20 150 164 
121 11 156 17 214 4 52 5 197 9 215 333 33 
122 11 241 138 268 80 263 309 340 296 94 225 316 
123 11 349 233 188 201 98 292 96 15 35 242 348 
124 11 51 195 212 41 220 112 144 39 31 68 250 
125 11 246 272 314 320 270 187 317 222 328 311 269 
126 11 295 110 232 168 184 207 2 280 87 99 166 
127 11 119 301 170 317 300 187 248 269 345 314 83 
128 11 217 286 182 303 236 279 89 7 336 274 192 
129 11 305 64 227 28 37 218 261 271 249 71 42 
130 11 221 185 153 230 181 299 237 50 81 202 264 
131 11 43 289 298 211 308 87 103 111 207 257 304 
132 11 210 192 252 90 182 93 19 280 279 126 152 
133 11 79 30 337 101 260 268 80 319 97 238 178 
134 11 109 57 101 178 254 238 30 133 201 337 326 
135 11 63 199 240 302 290 274 45 278 154 33 251 
136 11 67 34 70 324 158 196 73 140 307 49 88 
137 11 118 342 281 245 120 334 20 285 273 100 150 
138 11 241 122 263 340 86 309 316 296 94 183 18 
139 11 348 157 21 178 80 343 337 30 233 123 349 
140 11 70 73 213 136 158 307 88 143 179 196 67 
141 11 36 106 302 231 351 113 135 63 154 253 199 
142 11 272 69 283 68 12 243 246 270 205 125 222 
143 11 88 73 315 10 70 140 8 136 324 38 67 
144 11 228 31 220 173 12 68 321 195 283 328 69 
145 11 104 16 218 42 230 264 64 164 129 227 28 
146 11 350 13 346 26 98 282 54 32 116 219 179 
147 11 226 148 18 189 316 276 86 340 183 160 345 
148 11 18 189 316 147 226 276 183 160 340 345 296 
149 11 14 105 255 310 338 312 174 44 97 250 112 
150 11 164 28 261 194 249 304 273 285 245 108 281 
151 11 239 77 307 213 169 176 49 180 158 196 214 
152 11 19 103 280 308 232 298 93 289 111 252 131 
153 11 181 202 237 299 209 288 81 327 6 172 185 
154 11 251 113 256 278 290 47 63 203 199 302 240 
155 11 111 325 167 298 43 103 131 289 308 152 19 
156 11 5 121 215 47 203 33 197 4 17 278 333 
157 11 21 139 80 343 348 337 30 178 122 241 284 
158 11 307 196 49 136 67 140 151 34 70 213 176 
159 11 191 55 200 120 137 273 281 285 65 118 245 
160 11 183 53 94 296 340 189 316 263 345 309 18 
161 11 200 65 258 191 265 55 102 76 165 137 329 
162 11 287 3 83 248 92 344 294 170 300 163 117 
163 11 92 344 174 312 3 250 294 287 162 39 24 
164 11 28 150 218 129 261 273 249 64 305 285 227 
165 11 329 62 262 60 326 76 116 346 265 38 13 
166 11 168 266 295 46 306 184 2 61 193 110 126 
167 11 325 34 155 111 67 196 324 136 103 49 158 
168 11 295 184 166 126 99 2 110 266 46 207 306 
169 11 180 77 9 74 213 151 214 275 239 17 4 
170 11 248 300 119 301 83 127 162 287 318 3 117 
171 11 66 339 91 58 331 347 208 336 27 175 313 
172 11 6 244 259 327 297 209 71 29 193 224 288 
173 11 321 235 117 31 228 39 144 220 300 328 248 
174 11 312 163 92 344 44 250 24 332 294 310 3 
175 11 223 27 58 331 229 23 204 66 11 171 177 
176 11 49 151 239 307 90 196 93 7 158 77 252 
177 11 48 23 267 61 204 229 84 266 288 223 27 
178 11 30 134 139 201 101 337 348 123 157 233 133 
179 11 282 275 74 140 213 13 10 180 73 146 219 
180 11 169 77 9 74 213 275 151 214 239 17 4 
181 11 202 237 153 288 185 209 299 81 177 204 327 
182 11 192 279 128 132 90 210 303 7 217 252 89 
183 11 160 94 296 340 53 263 316 189 309 18 345 
184 11 168 295 99 166 126 2 110 266 82 46 207 
185 11 237 181 130 202 221 153 299 204 288 81 209 
186 11 72 311 320 226 125 147 246 272 276 148 269 
187 11 314 317 127 301 119 270 269 222 300 328 170 
188 11 98 292 15 96 242 26 123 349 54 233 350 
189 11 18 316 160 183 340 345 296 94 148 53 263 
190 11 330 36 231 106 141 351 114 284 113 253 302 
191 11 200 55 159 65 161 137 120 118 281 342 285 
192 11 132 210 252 90 182 93 279 19 7 280 152 
193 11 46 306 29 266 206 297 166 224 2 172 244 
194 11 304 108 249 261 224 43 131 206 211 257 87 
195 11 212 51 220 39 31 124 250 144 321 173 235 
196 11 158 49 307 136 67 34 176 151 167 70 140 
197 11 333 33 52 121 156 203 214 5 278 47 17 
198 11 112 105 41 14 149 40 124 51 205 250 338 
199 11 63 240 290 135 278 302 33 154 203 251 333 
200 11 191 55 65 161 159 137 258 120 342 118 281 
201 11 123 326 98 188 349 233 60 62 262 346 350 
202 11 181 237 153 288 209 204 185 177 267 299 29 
203 11 278 47 33 156 290 197 5 333 121 215 240 
204 11 229 23 223 177 27 48 175 202 267 61 237 
205 11 40 41 124 198 112 59 51 68 195 212 220 
206 11 257 224 2 46 193 297 87 211 207 110 306 
207 11 110 87 2 211 257 232 126 289 131 308 206 
208 11 25 91 339 313 322 171 95 66 58 331 45 
209 11 288 327 6 172 29 244 259 193 297 306 267 
210 11 132 192 252 90 93 19 182 280 126 152 232 
211 11 87 207 257 110 131 289 2 43 206 308 232 
212 11 195 220 51 39 31 250 124 321 144 173 235 
213 11 140 169 180 151 307 74 77 275 158 179 239 
214 11 52 77 121 9 17 169 239 180 4 197 333 
215 11 5 4 156 17 121 47 234 9 203 15 219 
216 11 89 336 82 347 84 99 182 128 192 132 210 
217 11 286 128 236 303 279 182 274 7 89 90 192 
218 11 64 129 42 28 227 164 305 37 264 271 261 
219 11 32 234 54 26 242 275 74 4 17 15 9 
220 11 212 195 31 39 51 144 321 173 235 124 228 
221 11 130 185 230 153 299 181 81 237 50 202 264 
222 11 328 270 228 12 173 144 283 187 117 235 321 
223 11 27 229 175 23 204 331 58 177 48 84 66 
224 11 297 206 108 257 71 193 244 194 249 259 172 
225 11 75 309 53 277 94 318 296 263 78 183 340 
226 11 147 148 276 18 189 316 269 345 72 160 183 
227 11 37 64 305 271 129 71 264 42 218 81 28 
228 11 144 173 328 222 31 321 235 117 12 220 283 
229 11 23 204 223 27 177 175 48 331 58 84 267 
230 11 264 42 81 299 271 221 64 37 227 130 153 
231 11 351 36 141 113 284 302 154 256 190 251 106 
232 11 280 308 126 19 207 289 103 110 152 298 87 
233 11 349 123 188 35 292 348 96 98 323 15 201 
234 11 219 32 54 4 17 9 74 275 26 242 215 
235 11 321 117 173 31 39 248 300 228 162 220 301 
236 11 286 274 217 128 303 279 182 7 45 240 347 
237 11 181 202 153 185 288 204 209 299 177 267 23 
238 11 254 101 57 97 109 134 133 56 79 30 338 
239 11 77 151 214 52 169 176 180 7 213 307 9 
240 11 199 290 63 33 135 278 203 333 197 47 154 
241 11 122 138 80 263 268 309 340 296 94 86 316 
242 11 15 96 292 54 26 32 219 188 234 98 35 
243 11 59 40 205 41 107 22 198 124 68 69 112 
244 11 259 172 6 327 297 71 209 224 193 29 37 
245 11 118 281 285 342 334 20 273 137 120 100 150 
246 11 125 272 270 314 320 187 317 222 328 269 311 
247 11 253 322 106 95 45 141 208 25 36 339 302 
248 11 300 170 162 83 287 301 117 3 119 235 321 
249 11 261 108 194 304 224 305 28 71 129 297 206 
250 11 163 312 174 39 51 212 344 92 195 220 112 
251 11 154 256 278 47 113 290 203 63 199 240 33 
252 11 132 210 192 90 93 19 280 152 182 232 279 
253 11 247 106 45 322 95 141 36 302 135 208 274 
254 11 57 109 238 134 101 56 97 341 133 30 76 
255 11 310 149 105 14 312 44 174 338 250 97 332 
256 11 251 154 323 113 47 35 278 203 290 5 156 
257 11 87 206 211 2 207 110 46 131 224 289 193 
258 11 265 102 161 76 165 65 329 293 62 200 262 
259 11 244 6 172 327 71 297 209 224 29 193 37 
260 11 319 268 79 277 133 44 78 332 75 24 225 
261 11 249 28 108 194 129 305 304 71 150 224 164 
262 11 60 62 326 329 116 346 165 13 350 146 201 
263 11 340 296 94 309 183 160 316 53 225 189 75 
264 11 42 271 64 81 227 37 230 299 305 129 218 
265 11 102 76 258 165 329 109 62 326 57 262 60 
266 11 306 61 166 46 29 193 267 168 295 184 2 
267 11 61 266 48 177 29 306 288 166 46 193 168 
268 11 260 319 79 277 133 75 309 122 225 78 337 
269 11 317 345 276 127 119 314 187 301 189 160 170 
270 11 222 328 187 314 12 228 283 246 125 173 69 
271 11 37 227 81 264 305 64 71 42 129 299 259 
272 11 246 125 320 270 314 187 311 222 328 283 12 
273 11 285 281 120 118 245 150 164 137 342 28 334 
274 11 236 286 217 45 128 95 135 303 240 199 63 
275 11 74 180 179 169 234 282 9 219 213 32 17 
276 11 269 345 189 18 148 317 226 160 316 127 183 
277 11 75 78 225 319 332 24 309 318 294 260 44 
278 11 203 47 290 33 251 156 240 197 154 5 333 
279 11 7 303 182 90 128 217 192 132 252 286 210 
280 11 19 152 232 308 103 298 126 289 93 207 252 
281 11 118 285 245 120 273 137 342 334 20 150 100 
282 11 179 275 74 13 146 219 32 350 140 213 234 
283 11 12 69 68 144 328 228 222 270 173 31 220 
284 11 343 114 21 231 351 348 157 139 330 113 256 
285 11 273 281 118 120 245 137 150 342 164 334 20 
286 11 236 217 128 274 303 182 279 347 7 89 336 
287 11 162 3 83 92 248 294 344 170 163 300 318 
288 11 209 29 267 327 61 6 172 193 266 306 259 
289 11 298 131 308 43 103 211 87 232 207 111 110 
290 11 240 278 199 63 203 33 47 251 154 333 197 
291 11 56 338 14 341 149 105 97 255 198 22 310 
292 11 96 15 242 188 35 54 26 98 32 323 219 
293 11 335 341 102 107 22 291 56 265 258 254 57 
294 11 24 3 92 344 287 78 83 162 332 163 174 
295 11 168 184 166 126 2 110 99 207 46 266 306 
296 11 94 340 263 183 160 53 309 316 225 189 75 
297 11 224 244 172 259 6 193 206 71 327 29 46 
298 11 289 308 103 131 43 111 152 232 280 211 19 
299 11 81 153 271 327 6 209 264 259 172 37 244 
300 11 248 301 170 117 119 127 162 235 83 287 321 
301 11 300 119 127 170 248 117 317 83 187 235 162 
302 11 63 135 199 154 113 240 290 141 251 36 278 
303 11 279 217 7 128 182 286 236 90 192 274 132 
304 11 194 108 43 131 249 211 224 257 87 261 206 
305 11 227 37 129 71 64 271 261 249 28 244 259 
306 11 266 46 193 29 166 61 267 2 206 168 295 
307 11 158 49 196 151 213 136 140 176 67 239 70 
308 11 298 103 289 232 152 280 131 19 43 111 207 
309 11 225 263 94 296 340 53 75 183 160 277 318 
310 11 255 149 105 44 14 312 174 332 250 338 24 
311 11 320 72 125 186 246 272 226 276 314 269 317 
312 11 174 163 250 344 92 44 24 310 332 294 255 
313 11 91 208 25 339 171 58 322 175 331 66 27 
314 11 187 317 269 127 270 301 119 222 328 125 246 
315 11 143 88 73 10 70 324 8 136 67 100 38 
316 11 189 340 18 183 160 296 263 94 148 53 309 
317 11 187 314 269 127 119 301 345 300 170 276 248 
318 11 83 53 75 225 170 287 294 3 78 162 119 
319 11 260 277 268 78 332 44 75 24 225 79 309 
320 11 311 125 246 272 72 314 187 276 186 270 317 
321 11 235 173 117 31 39 228 220 248 300 162 144 
322 11 25 208 247 339 253 91 313 95 45 171 106 
323 11 35 256 96 15 292 47 242 215 5 251 349 
324 11 67 34 136 70 73 167 100 158 196 315 143 
325 11 167 155 111 103 34 298 152 308 67 196 19 
326 11 60 62 262 329 201 346 165 116 98 350 146 
327 11 6 172 259 244 209 297 71 29 193 288 224 
328 11 222 228 270 12 173 144 283 117 235 321 187 
329 11 165 62 262 326 60 116 346 76 201 13 350 
330 11 114 86 190 284 231 343 138 21 351 241 36 
331 11 58 27 66 175 223 171 229 23 84 347 204 
332 11 24 78 44 294 174 277 312 344 92 75 3 
333 11 197 33 52 121 203 156 214 278 5 47 290 
334 11 20 100 342 245 118 137 281 324 315 34 285 
335 11 293 341 107 22 291 56 102 254 338 57 238 
336 11 89 216 347 82 66 128 182 84 99 192 217 
337 11 30 80 133 79 157 101 268 139 178 260 21 
338 11 14 149 105 255 291 56 310 97 198 44 312 
339 11 91 208 171 313 25 66 58 95 331 322 347 
340 11 263 296 94 183 316 160 309 53 189 18 225 
341 11 56 291 335 254 293 338 57 238 102 22 109 
342 11 334 20 137 245 100 118 281 285 120 273 315 
343 11 21 284 157 348 139 114 80 241 122 337 233 
344 11 92 163 3 294 287 162 174 24 312 83 250 
345 11 269 189 160 127 183 276 119 317 53 18 316 
346 11 116 13 146 350 60 262 62 98 26 326 282 
347 11 336 89 66 216 128 171 286 217 182 331 82 
348 11 139 21 157 233 343 349 123 178 80 284 337 
349 11 233 123 188 292 35 96 15 98 323 242 201 
350 11 146 13 346 26 98 54 32 219 116 188 282 
351 11 231 113 36 154 256 141 251 302 284 63 323 
DEPOT_SECTION
   1
   -1
EOF
