NAME :  X-n376-kX-w150-c11.cctp
COMMENT : 	Adapted by Maziero, Usberti and Cavellucci from the Uchoa, Pecin, Pessoa, Poggi, Subramanian, and Vidal (2013)
TYPE :  CCTP
DIMENSION :    376
EDGE_WEIGHT_TYPE : 	EUC_2D	
CAPACITY : 	4
VERTICES_WITHIN_COVERAGE :  11
VERTICES_WITH_DEMAND : 	150
NODE_COORD_SECTION
1 0 0
2 989 944
3 5 730
4 769 200
5 698 515
6 72 561
7 52 397
8 839 271
9 140 724
10 339 580
11 30 850
12 820 815
13 555 844
14 388 709
15 323 438
16 159 983
17 989 233
18 644 167
19 766 151
20 387 690
21 193 140
22 863 192
23 149 123
24 609 119
25 121 204
26 625 537
27 716 123
28 8 219
29 429 956
30 844 970
31 661 66
32 347 202
33 979 314
34 255 772
35 634 504
36 466 48
37 330 90
38 929 245
39 236 130
40 785 0
41 251 486
42 758 203
43 524 280
44 798 71
45 212 595
46 967 478
47 504 429
48 581 534
49 883 899
50 605 414
51 640 692
52 287 432
53 641 771
54 53 374
55 344 325
56 647 72
57 63 976
58 519 235
59 485 226
60 469 527
61 433 168
62 538 891
63 884 433
64 142 134
65 234 394
66 473 750
67 815 622
68 130 999
69 655 588
70 16 235
71 503 614
72 477 489
73 87 78
74 689 289
75 631 868
76 304 743
77 624 81
78 338 865
79 831 984
80 312 157
81 563 205
82 641 435
83 189 201
84 277 903
85 906 949
86 601 486
87 746 904
88 557 409
89 854 201
90 50 20
91 994 111
92 584 875
93 316 741
94 150 56
95 377 988
96 371 762
97 401 741
98 890 126
99 797 335
100 9 301
101 923 259
102 586 782
103 103 99
104 166 987
105 896 750
106 383 86
107 603 863
108 590 78
109 40 554
110 755 120
111 554 351
112 603 102
113 279 404
114 1 481
115 667 931
116 609 350
117 237 925
118 755 779
119 607 107
120 589 379
121 744 130
122 469 142
123 491 28
124 602 512
125 329 925
126 933 714
127 391 982
128 285 336
129 730 604
130 758 153
131 831 894
132 355 206
133 382 353
134 887 133
135 286 835
136 103 743
137 929 750
138 89 845
139 689 515
140 903 330
141 713 261
142 465 494
143 922 783
144 703 619
145 282 745
146 939 801
147 320 130
148 531 25
149 887 949
150 765 502
151 174 187
152 993 233
153 982 13
154 25 851
155 228 228
156 774 690
157 722 969
158 133 115
159 175 663
160 134 106
161 469 233
162 325 78
163 166 547
164 416 965
165 284 119
166 169 541
167 302 72
168 537 7
169 434 329
170 59 816
171 139 74
172 495 746
173 890 453
174 719 235
175 184 528
176 863 957
177 821 476
178 700 645
179 400 49
180 293 179
181 104 271
182 882 906
183 701 394
184 18 221
185 819 101
186 971 397
187 454 960
188 348 657
189 745 122
190 3 510
191 981 283
192 167 323
193 869 880
194 844 154
195 53 544
196 443 825
197 879 809
198 683 254
199 402 59
200 719 31
201 664 737
202 541 249
203 204 791
204 615 578
205 821 381
206 767 595
207 594 837
208 331 365
209 145 850
210 537 263
211 157 938
212 147 59
213 138 140
214 354 240
215 435 976
216 917 593
217 504 643
218 552 29
219 420 473
220 576 665
221 648 637
222 792 147
223 55 92
224 635 236
225 180 793
226 561 629
227 743 136
228 686 38
229 415 672
230 678 523
231 834 48
232 897 63
233 868 224
234 786 394
235 132 915
236 513 74
237 757 295
238 859 823
239 398 959
240 360 94
241 506 114
242 699 907
243 842 46
244 341 918
245 240 808
246 434 756
247 628 184
248 938 599
249 287 889
250 22 999
251 374 19
252 707 963
253 681 762
254 750 278
255 652 340
256 788 95
257 653 222
258 730 753
259 484 573
260 395 854
261 144 957
262 404 597
263 849 288
264 321 355
265 294 41
266 43 501
267 175 695
268 439 486
269 949 443
270 245 169
271 848 143
272 198 396
273 153 521
274 436 824
275 703 624
276 126 2
277 659 523
278 370 702
279 528 268
280 330 488
281 420 88
282 630 555
283 568 848
284 992 800
285 92 747
286 126 152
287 18 275
288 875 151
289 537 418
290 598 777
291 527 104
292 819 522
293 316 915
294 112 727
295 697 29
296 243 155
297 195 437
298 563 820
299 583 383
300 645 62
301 645 77
302 174 884
303 193 643
304 96 519
305 336 319
306 998 266
307 990 922
308 753 566
309 646 537
310 412 328
311 386 478
312 344 512
313 151 492
314 625 949
315 251 208
316 680 428
317 135 843
318 171 19
319 405 150
320 146 654
321 82 631
322 417 950
323 121 982
324 209 292
325 180 796
326 51 162
327 628 521
328 913 714
329 820 662
330 596 600
331 605 229
332 378 53
333 95 447
334 899 216
335 685 705
336 304 713
337 305 760
338 636 482
339 954 189
340 470 857
341 450 97
342 811 886
343 453 64
344 230 919
345 732 350
346 258 429
347 674 351
348 20 95
349 57 298
350 136 129
351 62 213
352 852 852
353 538 110
354 435 522
355 518 452
356 816 415
357 987 849
358 472 154
359 893 13
360 579 281
361 418 966
362 391 92
363 490 482
364 890 711
365 552 802
366 667 416
367 571 581
368 71 227
369 311 90
370 598 723
371 845 677
372 528 124
373 321 456
374 817 624
375 978 276
376 239 960
DEMAND_SECTION
2 1
3 1
4 1
5 1
6 1
7 1
8 1
9 1
10 1
11 1
12 1
13 1
14 1
15 1
16 1
17 1
18 1
19 1
20 1
21 1
22 1
23 1
24 1
25 1
26 1
27 1
28 1
29 1
30 1
31 1
32 1
33 1
34 1
35 1
36 1
37 1
38 1
39 1
40 1
41 1
42 1
43 1
44 1
45 1
46 1
47 1
48 1
49 1
50 1
51 1
52 1
53 1
54 1
55 1
56 1
57 1
58 1
59 1
60 1
61 1
62 1
63 1
64 1
65 1
66 1
67 1
68 1
69 1
70 1
71 1
72 1
73 1
74 1
75 1
76 1
77 1
78 1
79 1
80 1
81 1
82 1
83 1
84 1
85 1
86 1
87 1
88 1
89 1
90 1
91 1
92 1
93 1
94 1
95 1
96 1
97 1
98 1
99 1
100 1
101 1
102 1
103 1
104 1
105 1
106 1
107 1
108 1
109 1
110 1
111 1
112 1
113 1
114 1
115 1
116 1
117 1
118 1
119 1
120 1
121 1
122 1
123 1
124 1
125 1
126 1
127 1
128 1
129 1
130 1
131 1
132 1
133 1
134 1
135 1
136 1
137 1
138 1
139 1
140 1
141 1
142 1
143 1
144 1
145 1
146 1
147 1
148 1
149 1
150 1
151 1
COVERAGE_SECTION
2 11 307 85 357 149 182 49 176 193 284 30 146 
3 11 285 136 170 294 11 154 321 9 138 320 317 
4 11 42 130 19 222 174 227 121 254 110 189 141 
5 11 139 230 277 309 35 150 327 338 308 26 282 
6 11 195 109 304 266 321 190 273 163 166 313 114 
7 11 54 333 114 349 266 100 190 287 304 181 192 
8 11 263 233 89 99 334 22 101 237 140 254 38 
9 11 294 136 267 285 159 320 225 325 203 303 321 
10 11 262 312 188 280 311 354 229 20 373 278 45 
11 11 154 170 138 317 209 285 235 3 57 136 294 
12 11 238 352 197 342 118 131 193 105 49 143 258 
13 11 283 298 207 92 365 62 107 102 75 290 340 
14 11 20 278 97 229 96 188 246 93 336 76 66 
15 11 373 52 280 113 346 208 311 312 264 41 65 
16 11 104 261 68 323 211 235 376 57 344 117 302 
17 11 152 306 375 191 339 38 101 33 334 233 91 
18 11 247 257 24 119 224 331 112 27 77 81 301 
19 11 130 222 227 121 110 189 4 42 27 256 185 
20 11 14 278 229 188 97 96 246 336 93 262 76 
21 11 39 23 64 151 296 213 350 270 83 158 160 
22 11 89 233 194 288 334 271 134 98 8 222 38 
23 11 64 350 158 213 160 286 21 171 103 212 94 
24 11 119 112 77 108 301 18 56 300 247 353 31 
25 11 286 368 151 351 213 83 181 64 350 326 23 
26 11 327 282 309 35 124 277 204 48 230 86 338 
27 11 121 189 227 110 130 19 256 31 222 18 301 
28 11 184 70 351 287 368 326 100 349 181 25 348 
29 11 322 361 164 215 187 239 127 95 244 125 340 
30 11 79 176 149 85 182 131 49 342 193 87 352 
31 11 56 300 301 228 77 295 112 119 200 108 24 
32 11 132 214 80 180 147 319 61 315 165 270 240 
33 11 191 375 306 101 140 17 152 186 38 334 339 
34 11 145 245 337 203 76 93 135 336 225 325 267 
35 11 327 338 277 124 26 309 86 230 282 139 48 
36 11 343 123 341 236 281 199 179 148 241 168 291 
37 11 162 369 240 167 147 106 165 265 332 362 80 
38 11 101 334 375 17 339 191 152 233 306 22 33 
39 11 296 270 21 165 180 315 80 147 151 83 369 
40 11 231 44 200 243 295 256 228 185 359 110 189 
41 11 346 52 297 373 175 280 15 113 65 312 166 
42 11 4 130 174 19 222 227 141 121 254 189 110 
43 11 279 210 202 58 360 59 161 111 81 331 169 
44 11 256 185 231 243 110 40 189 222 121 227 19 
45 11 303 163 166 175 159 320 273 267 41 313 10 
46 11 269 173 186 63 248 216 177 292 140 33 356 
47 11 355 289 363 88 72 142 268 299 111 219 120 
48 11 124 26 367 327 86 282 204 35 309 330 338 
49 11 182 193 149 131 85 352 176 342 238 30 197 
50 11 120 299 82 88 366 116 289 86 338 316 111 
51 11 335 201 370 221 220 178 53 253 275 290 144 
52 11 113 346 15 373 41 65 280 208 264 297 128 
53 11 201 253 290 102 370 51 335 207 258 298 365 
54 11 7 349 333 100 287 181 114 192 266 70 190 
55 11 305 264 208 133 128 310 214 169 113 15 132 
56 11 301 300 31 77 228 112 119 108 24 295 200 
57 11 250 323 68 261 235 16 211 104 11 154 138 
58 11 202 210 279 59 43 161 81 360 331 358 122 
59 11 161 58 279 202 210 43 358 61 81 122 360 
60 11 142 354 72 259 363 268 219 355 71 262 311 
61 11 319 358 122 341 161 59 281 132 362 241 32 
62 11 92 13 283 107 298 340 207 365 75 314 187 
63 11 173 269 356 177 205 46 186 140 234 292 99 
64 11 213 350 23 158 286 160 21 103 171 151 25 
65 11 272 346 113 297 52 128 41 264 192 15 208 
66 11 172 246 97 196 274 14 365 229 96 20 340 
67 11 374 329 206 371 156 308 129 292 216 144 275 
68 11 323 16 104 261 211 57 235 250 376 302 344 
69 11 204 282 221 309 144 26 275 330 277 230 327 
70 11 184 28 287 351 368 100 349 326 181 25 286 
71 11 217 259 226 367 220 60 330 262 229 48 354 
72 11 142 363 268 60 354 355 219 47 259 311 289 
73 11 103 223 171 160 158 212 94 90 348 350 23 
74 11 198 141 174 254 255 347 237 345 224 257 116 
75 11 107 92 207 283 115 242 13 314 298 62 102 
76 11 93 337 145 336 34 96 278 14 245 135 97 
77 11 301 56 300 112 119 108 31 24 228 18 218 
78 11 244 293 249 260 135 125 84 274 96 337 196 
79 11 30 176 149 85 131 182 49 342 157 193 87 
80 11 147 180 165 32 132 369 270 37 296 240 162 
81 11 331 202 58 210 247 279 224 360 59 43 372 
82 11 366 316 50 338 86 35 183 120 299 124 327 
83 11 151 155 21 315 270 25 296 213 286 64 39 
84 11 249 293 117 344 125 244 135 376 78 245 302 
85 11 149 176 182 49 30 193 2 79 307 131 352 
86 11 124 338 35 327 48 26 82 309 277 50 282 
87 11 242 342 157 252 115 131 12 79 30 352 75 
88 11 289 299 120 50 47 111 355 116 82 86 363 
89 11 22 233 334 194 288 271 8 134 222 98 4 
90 11 73 223 276 348 103 171 212 94 160 318 158 
91 11 339 153 98 232 134 17 152 288 359 334 38 
92 11 107 283 207 13 75 62 298 365 314 102 290 
93 11 76 337 336 145 96 278 34 14 97 20 188 
94 11 212 171 318 160 276 158 103 23 73 350 64 
95 11 127 239 164 361 322 215 29 125 244 187 293 
96 11 97 14 93 278 246 337 76 20 336 274 145 
97 11 14 246 96 278 20 229 66 93 274 172 196 
98 11 134 288 271 194 232 22 185 89 334 339 243 
99 11 205 237 234 345 263 254 8 356 140 141 183 
100 11 287 349 70 184 28 54 368 181 351 7 326 
101 11 38 334 375 191 233 17 140 152 306 339 33 
102 11 290 365 298 53 207 370 283 13 107 201 92 
103 11 73 160 158 171 350 223 23 64 213 286 212 
104 11 16 261 68 323 211 376 235 344 117 302 57 
105 11 137 364 328 143 126 197 146 238 371 12 284 
106 11 362 240 199 332 281 179 37 162 251 319 341 
107 11 92 75 207 283 13 298 62 365 102 290 314 
108 11 112 77 119 24 301 56 300 353 218 291 31 
109 11 195 6 266 190 304 114 321 273 333 163 313 
110 11 189 121 227 19 130 27 256 222 44 185 4 
111 11 299 120 116 88 289 360 43 50 279 210 47 
112 11 119 24 108 77 301 56 300 353 31 291 18 
113 11 52 346 65 15 208 264 373 128 272 41 297 
114 11 190 266 195 109 7 333 304 6 54 313 273 
115 11 242 314 252 157 75 87 107 92 207 283 62 
116 11 120 299 255 111 50 347 360 88 366 82 289 
117 11 344 376 84 249 302 293 211 125 104 16 261 
118 11 258 12 253 156 201 335 238 53 342 352 87 
119 11 112 24 77 108 301 56 300 31 353 18 247 
120 11 299 116 50 88 111 289 255 82 366 347 47 
121 11 227 189 110 130 27 19 222 256 4 42 44 
122 11 358 61 241 341 372 319 291 281 353 343 236 
123 11 36 148 168 236 343 218 341 291 241 179 281 
124 11 86 327 48 35 26 338 282 309 277 204 367 
125 11 244 293 249 84 78 239 95 127 322 117 164 
126 11 328 137 364 105 143 146 371 284 197 248 216 
127 11 95 239 164 361 322 215 29 187 244 125 293 
128 11 264 208 305 55 113 65 324 52 346 133 272 
129 11 144 275 206 308 178 69 67 221 374 5 230 
130 11 19 227 121 110 189 222 4 42 27 256 185 
131 11 342 193 352 49 182 176 238 30 149 12 87 
132 11 32 214 80 180 319 147 61 315 165 240 305 
133 11 310 55 208 169 305 264 128 15 113 214 373 
134 11 98 288 271 194 22 232 185 89 334 339 233 
135 11 245 249 78 84 34 337 293 145 203 76 93 
136 11 285 294 9 170 267 225 325 3 320 138 317 
137 11 105 143 126 328 146 364 197 284 238 371 357 
138 11 170 317 209 11 154 235 302 285 136 325 225 
139 11 5 230 277 309 35 327 338 26 282 150 69 
140 11 263 101 33 8 38 191 375 186 205 63 99 
141 11 174 198 74 254 237 257 42 224 4 345 347 
142 11 72 268 363 60 354 219 355 47 259 311 289 
143 11 146 137 105 197 126 328 284 238 364 357 352 
144 11 275 178 129 69 221 206 308 335 51 204 282 
145 11 76 337 93 34 336 245 135 96 203 278 188 
146 11 143 137 284 197 105 357 238 126 328 352 364 
147 11 80 165 37 369 162 240 180 167 32 106 296 
148 11 168 218 123 236 36 108 291 353 343 241 372 
149 11 85 176 182 30 49 79 193 131 342 2 352 
150 11 292 177 308 5 139 230 206 356 129 277 234 
151 11 83 21 25 213 286 64 155 23 350 270 296 
152 11 17 306 375 191 339 38 101 33 334 91 233 
153 11 359 91 232 243 98 231 134 288 339 185 271 
154 11 11 170 138 317 209 3 285 235 57 136 250 
155 11 315 83 270 324 151 296 180 21 39 25 80 
156 11 329 371 258 67 374 178 335 118 206 129 275 
157 11 252 242 115 87 314 79 30 342 131 75 176 
158 11 160 350 23 64 213 103 286 171 212 73 94 
159 11 303 320 267 9 45 294 321 136 163 285 166 
160 11 158 23 350 64 103 171 213 286 212 94 73 
161 11 59 58 279 43 61 202 210 358 122 81 169 
162 11 37 369 167 240 265 147 165 106 332 362 251 
163 11 166 175 273 313 45 304 6 303 41 320 195 
164 11 361 322 29 239 215 127 187 95 244 125 293 
165 11 147 369 80 39 167 37 296 162 180 270 265 
166 11 163 175 273 313 45 304 6 41 303 297 320 
167 11 369 162 265 37 165 147 240 332 106 80 39 
168 11 148 218 123 236 36 108 291 343 353 241 77 
169 11 310 133 55 305 43 161 208 279 59 264 214 
170 11 138 11 154 285 317 136 209 3 294 9 225 
171 11 212 94 160 158 103 23 73 350 64 318 213 
172 11 66 246 365 97 196 102 274 298 217 370 290 
173 11 63 269 177 46 356 186 292 205 234 140 150 
174 11 141 198 42 254 4 74 257 237 224 130 19 
175 11 166 163 273 313 45 41 304 297 303 6 333 
176 11 30 149 79 85 182 49 131 193 342 352 2 
177 11 292 356 150 173 63 234 205 308 5 206 269 
178 11 275 144 129 221 335 69 51 206 156 308 201 
179 11 199 332 251 106 281 362 343 240 36 341 162 
180 11 80 270 315 296 147 32 165 132 39 155 214 
181 11 349 368 25 351 192 287 70 184 100 324 28 
182 11 49 193 149 85 131 176 352 30 342 238 79 
183 11 316 366 347 345 82 255 234 50 116 74 338 
184 11 28 70 351 368 287 326 100 349 181 25 348 
185 11 256 44 271 222 231 194 243 110 19 98 134 
186 11 269 46 33 63 140 173 191 375 306 101 205 
187 11 29 215 361 164 322 239 127 95 340 62 244 
188 11 278 20 14 229 336 10 262 93 76 97 96 
189 11 121 110 227 27 130 19 256 222 44 185 4 
190 11 114 266 109 195 6 304 333 7 54 321 313 
191 11 375 306 33 17 152 101 38 140 339 334 186 
192 11 324 272 181 65 155 349 297 128 83 54 25 
193 11 49 182 352 131 238 342 149 197 176 85 12 
194 11 271 288 22 89 134 222 98 185 233 19 256 
195 11 109 6 266 304 190 114 321 273 333 313 163 
196 11 274 340 260 246 66 97 172 96 365 78 13 
197 11 238 143 352 12 105 146 193 137 49 182 131 
198 11 141 74 174 257 224 254 331 237 247 42 255 
199 11 179 332 106 281 362 251 343 240 341 36 37 
200 11 295 228 31 40 300 56 301 44 27 256 189 
201 11 253 335 53 51 370 258 290 102 178 118 221 
202 11 210 279 58 43 81 360 59 331 161 224 111 
203 11 225 325 245 34 209 317 145 9 135 302 267 
204 11 282 330 69 26 367 309 48 327 124 221 277 
205 11 356 234 99 63 345 177 140 263 173 237 8 
206 11 308 129 67 374 144 275 178 329 292 150 156 
207 11 107 283 298 92 13 75 365 102 290 62 53 
208 11 264 55 305 133 128 113 15 52 310 373 346 
209 11 317 302 138 325 235 225 203 211 170 245 261 
210 11 279 202 43 58 360 59 81 161 331 111 224 
211 11 261 235 16 104 302 323 68 344 117 376 209 
212 11 94 171 318 160 158 103 276 73 23 350 64 
213 11 64 350 286 23 158 160 103 21 151 25 171 
214 11 132 32 305 55 180 80 319 310 61 315 147 
215 11 361 29 164 187 322 239 127 95 244 125 340 
216 11 248 374 67 371 329 292 328 364 126 46 173 
217 11 71 226 259 220 367 229 330 172 262 66 60 
218 11 148 168 236 123 108 291 353 36 77 112 119 
219 11 268 311 142 354 72 363 60 312 280 47 355 
220 11 226 370 330 51 217 221 367 71 204 69 201 
221 11 69 178 51 275 144 330 204 220 335 282 226 
222 11 19 130 110 227 121 194 256 185 189 271 4 
223 11 73 348 103 326 90 160 158 171 350 286 213 
224 11 257 331 198 247 18 360 74 81 141 174 202 
225 11 325 203 245 209 317 34 9 302 136 294 267 
226 11 220 330 367 217 71 204 221 259 48 51 282 
227 11 121 189 110 130 19 27 222 256 4 42 185 
228 11 295 200 31 300 56 301 77 27 189 108 112 
229 11 20 14 278 188 97 262 246 217 66 96 71 
230 11 139 277 5 309 35 327 26 282 338 69 124 
231 11 243 44 185 232 256 40 359 98 271 134 194 
232 11 359 243 98 231 134 185 288 271 44 153 194 
233 11 89 22 334 8 38 101 263 288 194 271 134 
234 11 205 356 99 345 183 177 237 63 150 316 173 
235 11 211 261 302 209 323 317 16 104 138 68 57 
236 11 291 241 353 123 148 372 36 218 343 341 168 
237 11 254 141 99 345 74 174 8 198 42 263 4 
238 11 197 352 12 193 143 131 342 49 105 146 182 
239 11 164 322 361 127 29 95 215 187 244 125 293 
240 11 106 37 362 162 332 369 147 199 179 281 167 
241 11 291 372 353 236 122 358 341 343 36 123 281 
242 11 115 87 252 157 75 314 107 342 92 207 131 
243 11 231 44 232 185 359 40 256 98 271 134 194 
244 11 125 293 78 249 84 239 95 127 322 260 164 
245 11 34 203 135 325 225 145 337 76 249 93 302 
246 11 97 66 172 96 14 274 196 20 278 229 260 
247 11 18 257 331 224 24 81 119 112 198 77 174 
248 11 216 126 328 371 364 46 374 67 329 292 137 
249 11 84 293 135 125 78 244 117 344 376 245 302 
250 11 57 323 68 261 16 235 104 154 211 11 138 
251 11 332 179 199 106 362 240 162 265 281 37 167 
252 11 157 115 242 87 314 75 79 342 30 131 107 
253 11 201 53 258 335 118 51 290 370 102 207 75 
254 11 237 141 174 74 198 99 345 42 4 8 263 
255 11 347 116 74 183 120 366 299 345 50 198 316 
256 11 44 185 110 189 222 121 19 227 130 231 243 
257 11 224 198 247 331 18 174 141 74 81 360 42 
258 11 118 253 335 201 156 53 12 51 178 329 275 
259 11 71 60 354 217 142 72 262 367 363 226 268 
260 11 274 196 78 340 244 96 125 322 293 239 246 
261 11 211 16 323 104 68 235 302 57 344 376 117 
262 11 10 229 354 188 259 20 60 71 312 217 278 
263 11 8 233 140 99 101 89 334 38 237 22 205 
264 11 208 55 305 128 133 113 15 52 65 310 346 
265 11 167 162 369 37 165 251 240 332 147 106 39 
266 11 190 195 114 109 304 6 333 7 313 273 54 
267 11 159 9 320 303 294 136 225 285 203 325 45 
268 11 219 142 354 72 60 363 311 47 355 259 312 
269 11 46 186 173 63 140 33 177 356 205 292 216 
270 11 296 315 39 180 21 155 165 83 80 151 147 
271 11 194 288 134 98 22 185 222 89 256 19 233 
272 11 65 297 346 192 113 52 41 324 128 313 333 
273 11 166 163 313 175 304 6 297 333 45 195 41 
274 11 196 340 260 246 66 96 97 172 78 365 13 
275 11 144 178 129 221 69 206 308 335 51 156 204 
276 11 318 94 212 171 90 73 103 160 158 223 23 
277 11 230 309 35 139 327 26 5 282 338 124 69 
278 11 14 20 97 188 229 96 93 336 76 246 337 
279 11 210 43 202 58 360 59 161 81 331 111 169 
280 11 312 373 15 311 52 41 219 10 346 113 268 
281 11 362 341 199 106 343 179 332 240 36 319 122 
282 11 26 309 204 327 69 277 35 124 48 330 230 
283 11 13 207 298 92 107 365 62 75 102 290 340 
284 11 357 146 143 137 126 105 197 328 307 238 364 
285 11 136 294 9 170 3 138 267 225 325 317 320 
286 11 213 64 350 23 158 160 25 103 151 21 326 
287 11 100 70 349 184 28 368 351 181 54 326 25 
288 11 134 271 98 194 22 89 334 233 185 222 339 
289 11 88 47 355 299 120 50 111 363 72 86 116 
290 11 102 53 365 370 298 207 201 283 13 253 107 
291 11 353 372 241 236 108 122 358 112 341 148 218 
292 11 177 150 308 206 173 67 374 356 63 5 129 
293 11 125 244 249 84 78 117 135 344 376 239 95 
294 11 136 9 285 267 320 159 225 325 321 170 3 
295 11 228 200 31 300 56 301 77 40 27 189 110 
296 11 270 39 21 315 165 180 80 83 155 151 147 
297 11 272 65 346 313 41 113 52 175 273 333 166 
298 11 365 13 283 207 102 290 92 107 62 75 53 
299 11 120 88 50 116 111 289 82 255 366 47 355 
300 11 56 301 31 77 228 108 112 119 295 24 200 
301 11 56 300 31 77 119 112 24 108 228 295 27 
302 11 209 235 211 317 344 117 261 325 225 138 203 
303 11 159 320 45 267 9 163 166 321 175 294 273 
304 11 6 195 266 273 313 109 333 163 166 175 190 
305 11 55 264 208 128 133 310 214 169 113 132 32 
306 11 375 191 152 17 33 38 101 339 334 140 186 
307 11 2 357 85 149 49 182 284 193 146 176 30 
308 11 206 129 150 144 5 275 292 139 67 230 374 
309 11 277 26 282 327 35 230 139 124 204 69 5 
310 11 169 133 55 305 208 264 214 161 43 59 128 
311 11 219 268 312 280 354 373 15 142 72 60 363 
312 11 280 311 373 10 15 219 354 41 52 268 262 
313 11 273 175 166 163 304 297 333 41 6 272 266 
314 11 115 75 252 92 242 107 157 62 207 283 13 
315 11 155 270 180 296 83 39 80 151 21 324 165 
316 11 366 82 183 338 50 347 139 5 35 255 345 
317 11 209 138 302 325 225 235 170 203 211 11 136 
318 11 94 212 276 171 160 73 158 103 23 350 64 
319 11 61 362 122 281 358 106 341 240 132 32 147 
320 11 159 303 267 321 9 294 45 136 285 163 166 
321 11 320 6 109 195 159 294 9 303 267 304 136 
322 11 29 164 361 239 215 187 127 95 244 125 260 
323 11 68 261 16 104 211 57 235 250 302 376 344 
324 11 192 155 128 83 315 65 272 181 151 25 270 
325 11 225 203 245 209 317 34 9 302 136 294 267 
326 11 351 184 368 223 28 348 286 70 25 103 213 
327 11 26 35 309 124 277 282 338 86 48 230 204 
328 11 126 364 137 105 143 371 146 197 329 284 248 
329 11 371 374 67 156 206 364 129 328 105 308 216 
330 11 204 367 226 282 69 221 48 220 26 309 327 
331 11 224 81 257 247 360 202 18 210 198 58 279 
332 11 179 199 106 251 362 240 281 162 37 343 369 
333 11 7 304 313 266 54 273 114 297 195 190 272 
334 11 233 38 22 89 101 339 288 8 194 134 263 
335 11 201 51 253 178 258 221 53 275 144 370 156 
336 11 76 93 145 337 278 188 34 96 14 20 97 
337 11 76 93 145 336 34 96 135 245 278 14 97 
338 11 35 86 327 124 82 277 26 309 230 139 5 
339 11 17 152 38 334 101 134 91 288 306 98 375 
340 11 196 274 260 62 13 283 365 298 187 29 66 
341 11 281 343 122 36 241 362 199 358 236 106 179 
342 11 131 352 193 87 12 49 182 238 176 30 149 
343 11 36 341 281 199 123 179 236 362 106 241 332 
344 11 117 376 84 249 302 211 293 104 261 16 235 
345 11 183 347 237 99 234 254 74 255 141 366 205 
346 11 52 113 65 41 297 15 272 373 280 128 208 
347 11 255 183 345 74 116 366 316 120 82 50 299 
348 11 223 73 326 90 103 158 160 286 171 350 28 
349 11 287 100 181 368 70 54 351 184 28 7 192 
350 11 64 213 23 158 160 286 103 171 21 151 73 
351 11 368 184 70 326 28 25 181 287 349 286 100 
352 11 238 193 131 12 197 342 49 182 143 146 149 
353 11 291 372 241 236 108 112 119 24 122 358 218 
354 11 60 268 142 219 72 311 363 259 262 312 355 
355 11 47 289 363 72 88 142 268 60 86 50 299 
356 11 205 234 177 63 99 173 150 345 292 183 140 
357 11 284 146 307 143 2 49 137 197 182 193 85 
358 11 122 61 241 341 372 319 59 291 161 353 281 
359 11 232 243 231 153 40 44 98 185 134 256 271 
360 11 210 202 279 43 331 224 111 116 58 81 255 
361 11 164 29 322 215 239 127 187 95 244 125 260 
362 11 106 281 240 199 332 179 341 319 37 162 343 
363 11 72 142 355 60 268 47 354 219 289 259 88 
364 11 328 105 126 137 371 143 329 197 146 374 67 
365 11 298 102 13 283 290 207 92 107 172 62 370 
366 11 316 82 183 50 347 338 255 120 116 299 345 
367 11 330 204 48 226 282 26 71 124 327 69 220 
368 11 351 184 25 181 70 28 326 287 349 286 100 
369 11 162 37 167 165 147 240 265 80 106 332 362 
370 11 51 290 102 220 53 201 335 365 253 221 226 
371 11 329 364 374 67 156 328 105 126 137 216 206 
372 11 353 291 241 236 122 358 108 112 24 119 341 
373 11 15 280 52 312 113 311 346 41 208 219 264 
374 11 67 329 206 371 156 308 129 292 216 144 275 
375 11 191 306 33 17 152 38 101 339 140 334 186 
376 11 117 344 84 104 16 211 249 293 261 125 302 
DEPOT_SECTION
   1
   -1
EOF
