NAME :  X-n393-kX-w39-c11.cctp
COMMENT : 	Adapted by Maziero, Usberti and Cavellucci from the Uchoa, Pecin, Pessoa, Poggi, Subramanian, and Vidal (2013)
TYPE :  CCTP
DIMENSION :    209
EDGE_WEIGHT_TYPE : 	EUC_2D	
CAPACITY : 	78
VERTICES_WITHIN_COVERAGE :  11
VERTICES_WITH_DEMAND : 	39
NODE_COORD_SECTION
1 500 500
2 113 195
3 377 239
4 364 39
5 306 316
6 795 18
7 803 771
8 845 880
9 440 450
10 284 370
11 785 211
12 860 318
13 170 621
14 180 957
15 707 913
16 861 505
17 546 186
18 910 997
19 403 865
20 373 357
21 317 394
22 225 729
23 666 199
24 505 56
25 436 885
26 711 906
27 736 688
28 439 550
29 561 186
30 276 294
31 810 244
32 939 53
33 551 220
34 662 179
35 537 420
36 843 543
37 970 798
38 933 860
39 518 910
40 571 265
41 583 119
42 985 150
43 810 48
44 620 230
45 859 278
46 419 310
47 808 811
48 796 931
49 698 66
50 391 808
51 409 562
52 886 760
53 36 197
54 596 305
55 252 372
56 564 16
57 839 206
58 160 313
59 288 150
60 326 201
61 301 6
62 196 391
63 448 41
64 908 558
65 277 270
66 575 993
67 183 972
68 469 577
69 890 727
70 826 883
71 91 15
72 526 335
73 231 693
74 698 701
75 589 978
76 526 926
77 859 847
78 762 64
79 949 109
80 624 779
81 289 195
82 172 345
83 952 443
84 974 550
85 751 49
86 391 837
87 531 44
88 647 594
89 931 76
90 898 863
91 939 987
92 455 898
93 961 784
94 829 284
95 554 874
96 221 155
97 396 228
98 7 29
99 327 28
100 734 216
101 234 977
102 353 101
103 159 260
104 569 501
105 382 366
106 430 883
107 965 322
108 328 254
109 642 318
110 252 663
111 816 889
112 422 318
113 373 417
114 979 824
115 692 65
116 450 466
117 851 582
118 857 111
119 194 87
120 918 84
121 449 898
122 891 587
123 410 387
124 550 467
125 441 531
126 661 762
127 918 264
128 224 33
129 534 961
130 371 255
131 694 794
132 185 127
133 384 56
134 650 223
135 874 501
136 822 439
137 289 312
138 462 546
139 130 555
140 686 269
141 843 617
142 786 493
143 598 317
144 655 343
145 613 491
146 726 602
147 674 47
148 411 577
149 173 977
150 166 928
151 133 564
152 370 870
153 407 548
154 443 554
155 405 435
156 190 760
157 461 450
158 486 905
159 221 739
160 131 657
161 402 893
162 176 632
163 152 947
164 176 969
165 182 936
166 348 466
167 195 586
168 193 757
169 190 940
170 378 861
171 182 951
172 426 810
173 459 591
174 216 656
175 441 599
176 249 700
177 262 426
178 208 752
179 222 603
180 179 574
181 459 337
182 416 849
183 262 763
184 154 594
185 402 509
186 227 552
187 429 876
188 513 819
189 359 853
190 499 576
191 173 991
192 466 341
193 149 943
194 295 460
195 578 423
196 413 893
197 180 989
198 223 699
199 399 829
200 361 401
201 195 922
202 172 990
203 283 760
204 202 999
205 140 631
206 431 871
207 293 729
208 144 955
209 383 878
DEMAND_SECTION
2 5
3 5
4 7
5 9
6 7
7 8
8 5
9 7
10 8
11 7
12 9
13 9
14 10
15 6
16 7
17 9
18 8
19 7
20 6
21 9
22 5
23 5
24 10
25 6
26 6
27 9
28 6
29 6
30 7
31 9
32 6
33 6
34 9
35 5
36 7
37 5
38 8
39 8
40 6
COVERAGE_SECTION
2 11 53 103 132 96 58 119 82 81 65 59 71 
3 11 130 97 108 60 46 112 81 5 65 137 30 
4 11 133 99 102 61 63 59 128 24 60 87 81 
5 11 137 30 65 10 108 55 20 21 130 105 200 
6 11 43 85 78 49 118 115 147 120 32 89 79 
7 11 47 52 77 69 27 131 70 8 111 74 90 
8 11 70 111 77 90 48 47 38 7 52 18 26 
9 11 116 157 155 123 185 113 125 166 200 138 28 
10 11 55 21 5 137 177 30 200 20 62 194 105 
11 11 31 100 57 94 45 140 23 118 34 12 134 
12 10 45 94 127 31 107 57 136 11 83 100 
13 9 162 184 205 167 180 160 179 174 151 
14 11 171 164 67 169 149 165 163 150 197 193 202 
15 11 26 48 111 131 70 75 8 47 66 80 95 
16 10 135 36 64 142 136 117 122 83 141 84 
17 11 29 33 41 40 44 134 34 23 54 24 143 
18 11 91 48 8 90 38 70 111 77 114 37 47 
19 11 182 209 170 161 187 206 86 196 106 152 199 
20 11 105 200 123 113 112 46 21 5 155 181 10 
21 11 10 200 113 177 20 55 194 105 166 5 137 
22 10 159 178 198 73 176 168 156 183 203 207 
23 11 34 134 44 100 140 29 41 40 33 11 17 
24 11 87 63 56 41 133 17 4 29 102 147 33 
25 11 106 187 206 121 92 196 161 19 182 209 158 
26 11 15 48 111 131 70 8 47 75 126 80 77 
27 11 74 146 126 7 131 141 88 47 80 117 69 
28 10 154 125 138 51 153 148 68 173 175 185 
29 11 17 33 41 44 40 134 34 23 54 143 24 
30 11 137 65 5 108 10 55 81 130 60 21 3 
31 11 11 94 57 45 100 12 127 140 118 23 134 
32 11 89 120 79 118 42 43 6 78 57 85 127 
33 11 17 29 40 44 54 134 41 143 23 34 72 
34 11 23 134 44 100 140 41 29 17 33 115 49 
35 9 195 124 157 72 104 116 9 145 192 
36 11 117 16 135 122 64 141 142 136 84 146 83 
37 11 93 114 38 52 90 69 77 8 47 70 7 
38 11 90 114 37 77 93 8 70 52 111 91 47 
39 11 76 158 95 129 92 121 25 188 106 187 206 
40 11 54 33 143 44 29 17 72 109 134 140 144 
41 11 29 17 87 34 24 56 33 23 147 44 115 
42 11 79 89 120 32 127 118 57 107 45 31 43 
43 11 6 78 85 118 49 120 115 89 32 147 79 
44 11 134 23 40 34 33 29 140 54 17 143 109 
45 11 94 12 31 127 57 11 107 100 136 118 140 
46 11 112 181 192 20 105 130 123 3 97 108 200 
47 11 7 77 70 8 111 52 90 131 69 48 38 
48 11 111 70 8 26 15 77 47 90 18 38 91 
49 11 115 147 85 78 6 43 34 41 23 56 100 
50 7 199 86 172 182 170 189 19 
51 7 153 148 28 154 125 175 185 
52 11 69 93 7 77 37 47 90 38 114 8 70 
53 9 2 103 132 58 98 71 96 119 82 
54 11 143 40 109 144 72 44 33 140 134 195 29 
55 10 10 177 62 21 137 5 30 82 194 65 
56 11 87 24 41 147 63 115 49 29 17 133 34 
57 11 31 11 45 94 118 127 100 12 120 79 42 
58 9 82 103 62 55 30 65 2 137 10 
59 11 81 60 96 102 132 108 119 65 3 99 97 
60 11 81 108 3 59 130 97 65 102 30 96 5 
61 11 99 4 128 133 102 119 59 63 132 96 81 
62 7 82 55 177 58 10 21 194 
63 11 24 133 87 4 102 56 99 61 41 17 29 
64 11 122 117 84 135 36 16 141 83 142 136 69 
65 11 30 137 108 5 81 60 130 10 3 55 103 
66 11 75 129 76 39 95 158 92 15 121 26 25 
67 10 164 149 14 197 171 191 202 169 204 165 
68 8 173 190 138 154 175 28 125 148 
69 11 52 93 7 37 47 141 77 114 90 38 122 
70 11 111 8 77 48 47 90 38 7 26 15 52 
71 11 98 119 128 132 2 53 96 61 99 59 103 
72 11 192 181 143 54 40 35 195 112 46 109 33 
73 9 198 176 22 110 174 159 178 207 168 
74 9 27 126 131 146 80 88 7 47 141 
75 11 66 129 76 39 95 158 15 26 92 121 188 
76 11 39 129 158 95 92 75 121 66 25 106 188 
77 11 8 90 70 111 47 38 52 7 48 93 37 
78 11 85 43 6 49 115 147 118 11 34 100 120 
79 11 89 120 42 32 118 57 43 127 6 45 78 
80 6 126 131 74 95 188 27 
81 11 60 59 108 65 96 3 30 130 97 102 137 
82 9 58 62 55 103 10 30 177 137 65 
83 11 135 84 16 107 64 136 36 12 122 117 142 
84 11 64 122 83 135 16 117 36 141 136 69 142 
85 11 78 6 49 43 115 147 118 34 11 100 120 
86 9 199 170 182 50 19 189 152 209 172 
87 11 24 56 63 41 17 147 29 133 115 4 49 
88 5 146 145 74 104 27 
89 11 120 32 79 118 42 43 6 57 78 85 127 
90 11 38 77 8 70 111 114 37 93 47 52 48 
91 11 18 38 90 8 48 70 111 77 114 37 93 
92 11 121 25 106 158 187 206 196 161 19 182 39 
93 11 37 114 52 38 69 90 77 8 47 7 70 
94 10 45 31 12 57 11 127 100 107 140 136 
95 8 39 76 188 158 129 92 121 75 
96 11 132 59 119 81 2 60 103 128 65 102 108 
97 11 3 130 108 60 46 112 81 5 65 181 20 
98 11 71 53 119 2 132 128 96 103 61 59 99 
99 11 61 4 133 102 128 63 59 119 96 81 60 
100 11 11 23 140 31 34 134 57 44 94 109 45 
101 5 204 67 197 169 14 
102 11 133 4 99 59 60 61 63 81 97 3 96 
103 9 58 2 82 65 30 96 62 132 53 
104 5 124 145 195 35 190 
105 11 20 123 200 113 112 46 21 155 181 192 5 
106 11 25 187 206 196 121 92 161 19 182 209 170 
107 11 127 12 45 83 94 57 42 31 136 135 16 
108 11 130 3 60 65 5 30 137 81 97 46 59 
109 9 144 143 54 140 40 44 134 72 23 
110 7 73 174 176 198 179 22 207 
111 11 70 8 48 77 47 90 26 15 7 38 18 
112 11 46 181 192 105 20 123 130 3 97 200 72 
113 11 200 155 123 105 166 20 21 9 194 116 157 
114 11 37 93 38 90 52 77 69 8 70 91 47 
115 11 49 147 85 78 6 34 43 41 23 56 100 
116 10 9 157 155 185 125 138 28 154 123 113 
117 11 141 36 122 64 16 135 142 84 146 136 69 
118 11 120 43 89 79 57 32 78 6 11 85 42 
119 11 132 128 96 59 71 61 2 81 99 102 60 
120 11 89 32 79 118 42 43 6 57 78 85 127 
121 11 92 25 106 187 206 196 158 161 19 182 209 
122 11 64 117 141 36 16 135 84 69 142 83 136 
123 11 105 20 113 155 200 9 112 181 192 46 157 
124 7 104 35 195 145 157 116 9 
125 11 28 154 138 153 51 185 68 148 173 116 175 
126 8 80 131 74 27 7 26 47 95 
127 11 45 107 12 94 57 31 42 11 79 118 120 
128 11 119 61 132 99 96 59 71 4 102 133 81 
129 11 76 66 39 75 158 95 92 121 25 106 187 
130 11 3 97 108 60 46 112 5 65 137 20 81 
131 11 126 80 74 7 26 27 47 15 111 70 95 
132 11 119 96 2 128 59 81 103 71 60 53 61 
133 11 4 102 99 63 61 24 59 87 60 128 81 
134 11 23 44 34 140 100 40 109 29 54 33 143 
135 10 16 36 64 136 117 122 142 83 84 141 
136 8 142 16 135 36 12 83 117 64 
137 11 5 30 65 10 55 108 21 20 130 105 3 
138 10 154 28 125 68 173 190 51 153 175 148 
139 5 151 184 180 167 13 
140 11 134 109 100 23 44 144 34 54 143 11 40 
141 11 117 122 36 64 16 146 69 135 27 142 84 
142 6 136 16 36 135 117 146 
143 11 54 109 40 144 72 44 140 134 33 195 35 
144 8 109 143 54 140 195 40 44 134 
145 4 104 124 195 35 
146 8 88 27 74 141 142 117 36 145 
147 11 115 49 85 78 56 41 6 34 43 87 23 
148 6 51 153 175 28 154 173 
149 8 164 67 202 191 197 14 171 204 
150 7 165 193 163 169 171 201 14 
151 6 139 184 180 167 205 13 
152 6 170 209 189 19 86 161 
153 8 51 148 28 154 125 185 138 175 
154 11 28 138 125 51 68 153 148 173 175 190 185 
155 11 113 9 123 116 200 157 166 105 185 20 21 
156 4 168 178 159 22 
157 10 116 9 155 123 35 125 185 124 113 138 
158 11 39 92 121 76 25 106 187 206 129 196 95 
159 8 22 178 168 156 198 73 176 183 
160 3 205 162 13 
161 11 196 209 19 106 187 25 206 152 170 182 121 
162 9 13 205 184 174 167 160 179 180 151 
163 7 193 208 150 14 171 165 164 
164 10 67 149 14 171 197 202 191 169 163 165 
165 9 169 171 150 201 14 163 164 193 67 
166 8 194 113 155 200 185 21 9 177 
167 10 180 179 184 13 186 162 151 205 139 174 
168 5 156 178 159 22 198 
169 8 165 171 201 14 150 164 67 163 
170 8 152 209 189 19 86 199 161 182 
171 10 14 169 165 164 67 149 150 163 201 193 
172 7 199 50 182 86 19 206 187 
173 7 68 175 154 190 138 28 148 
174 10 110 73 198 162 179 176 13 167 22 205 
175 6 173 68 148 154 28 51 
176 9 73 198 110 22 159 207 174 183 178 
177 8 194 55 10 21 62 166 200 113 
178 7 168 159 156 22 183 198 73 
179 10 167 186 180 174 162 13 110 184 205 73 
180 9 167 184 151 13 179 139 186 162 205 
181 11 192 112 46 72 123 105 20 155 157 35 9 
182 11 19 199 206 86 187 106 170 172 25 196 209 
183 7 203 207 159 22 178 176 168 
184 9 13 180 151 205 167 162 139 160 179 
185 10 153 125 51 28 154 116 148 166 9 138 
186 6 167 179 180 184 13 151 
187 11 206 106 25 196 19 121 182 161 92 209 170 
188 5 95 172 158 39 206 
189 6 152 170 209 86 19 199 
190 6 68 173 138 154 175 28 
191 8 202 197 149 67 164 204 14 171 
192 11 181 112 46 72 123 105 20 35 157 9 155 
193 5 163 208 150 14 165 
194 7 177 166 21 113 200 10 55 
195 7 35 124 145 104 72 143 144 
196 11 161 106 187 25 206 19 209 121 92 182 170 
197 8 191 202 149 67 164 204 14 171 
198 9 73 176 22 159 174 110 178 168 156 
199 10 86 50 182 172 19 170 189 152 209 206 
200 11 113 105 21 20 123 155 166 10 194 9 5 
201 5 165 169 150 171 14 
202 8 191 197 149 67 164 204 14 171 
203 6 183 207 159 22 176 178 
204 8 197 191 202 67 149 101 164 14 
205 5 160 13 162 184 151 
206 11 187 106 25 182 196 19 121 92 161 209 86 
207 6 203 183 176 22 73 159 
208 5 163 193 150 164 14 
209 8 152 170 19 161 196 189 86 182 
DEPOT_SECTION
   1
   -1
EOF
