NAME :  X-n303-kX-w120-c9.cctp
COMMENT : 	Adapted by Maziero, Usberti and Cavellucci from the Uchoa, Pecin, Pessoa, Poggi, Subramanian, and Vidal (2013)
TYPE :  CCTP
DIMENSION :    302
EDGE_WEIGHT_TYPE : 	EUC_2D	
CAPACITY : 	794
VERTICES_WITHIN_COVERAGE :  9
VERTICES_WITH_DEMAND : 	120
NODE_COORD_SECTION
1 500 500
2 205 638
3 893 161
4 191 775
5 444 871
6 225 445
7 368 543
8 120 270
9 612 902
10 45 323
11 707 182
12 125 720
13 442 388
14 79 759
15 904 76
16 379 849
17 213 595
18 164 686
19 404 947
20 331 615
21 842 156
22 272 297
23 957 227
24 274 481
25 287 544
26 152 403
27 873 146
28 267 415
29 188 727
30 594 742
31 198 429
32 810 797
33 383 602
34 459 786
35 50 183
36 395 836
37 600 866
38 192 744
39 12 705
40 869 99
41 233 811
42 235 638
43 423 904
44 220 619
45 236 713
46 960 141
47 128 321
48 160 230
49 200 650
50 104 544
51 375 638
52 540 726
53 635 790
54 512 597
55 643 517
56 327 750
57 198 412
58 375 558
59 123 259
60 365 859
61 545 700
62 242 431
63 140 412
64 316 413
65 145 764
66 892 246
67 331 828
68 231 342
69 676 810
70 211 378
71 197 538
72 808 113
73 129 655
74 84 714
75 416 784
76 151 243
77 275 442
78 46 355
79 182 746
80 158 717
81 198 648
82 137 763
83 206 872
84 30 301
85 979 214
86 384 855
87 212 794
88 35 779
89 108 640
90 186 930
91 623 977
92 231 796
93 402 932
94 166 237
95 341 803
96 559 851
97 883 143
98 524 909
99 387 463
100 395 327
101 382 787
102 341 784
103 180 530
104 81 261
105 379 700
106 721 333
107 312 756
108 424 573
109 596 878
110 273 514
111 281 417
112 125 528
113 464 893
114 140 413
115 256 250
116 206 384
117 204 563
118 202 159
119 347 420
120 283 520
121 214 494
122 854 142
123 502 839
124 599 889
125 485 898
126 339 73
127 396 959
128 192 533
129 234 702
130 811 101
131 840 272
132 266 346
133 867 211
134 185 436
135 61 374
136 843 188
137 156 795
138 387 889
139 724 952
140 622 16
141 235 894
142 327 991
143 867 172
144 329 496
145 930 115
146 728 950
147 371 317
148 416 575
149 408 744
150 98 434
151 468 990
152 239 775
153 231 748
154 251 398
155 311 725
156 913 135
157 928 399
158 444 596
159 337 519
160 294 981
161 625 824
162 153 530
163 124 342
164 615 881
165 534 826
166 454 888
167 639 789
168 48 353
169 200 704
170 50 483
171 269 610
172 477 953
173 54 300
174 346 588
175 617 832
176 867 63
177 304 240
178 129 675
179 293 547
180 110 597
181 868 126
182 190 760
183 894 162
184 209 696
185 400 495
186 283 657
187 536 991
188 649 872
189 198 370
190 824 202
191 275 889
192 904 169
193 511 600
194 224 441
195 674 949
196 627 952
197 7 213
198 155 218
199 593 802
200 817 211
201 212 351
202 843 191
203 616 902
204 230 561
205 459 554
206 585 595
207 204 614
208 698 970
209 425 539
210 430 850
211 498 758
212 437 622
213 107 483
214 119 764
215 265 615
216 547 481
217 324 762
218 723 745
219 163 928
220 308 513
221 339 599
222 314 814
223 316 598
224 183 159
225 325 348
226 163 480
227 595 727
228 303 866
229 350 700
230 920 82
231 105 238
232 111 18
233 437 482
234 88 300
235 464 929
236 544 846
237 201 233
238 353 729
239 302 404
240 708 855
241 739 843
242 198 250
243 55 143
244 257 410
245 26 411
246 832 234
247 207 344
248 212 757
249 277 453
250 274 472
251 272 828
252 875 101
253 434 975
254 510 975
255 647 943
256 349 428
257 317 866
258 391 393
259 612 815
260 217 666
261 229 740
262 630 918
263 125 704
264 545 898
265 184 757
266 492 930
267 985 201
268 448 998
269 117 784
270 359 490
271 292 715
272 365 531
273 503 795
274 21 220
275 225 872
276 387 551
277 895 120
278 476 868
279 281 586
280 609 944
281 868 164
282 148 748
283 168 463
284 364 550
285 844 163
286 465 614
287 214 637
288 189 582
289 94 186
290 863 190
291 676 800
292 175 686
293 393 400
294 172 614
295 320 504
296 35 206
297 182 671
298 356 599
299 88 215
300 608 775
301 481 721
302 449 751
DEMAND_SECTION
2 20
3 14
4 85
5 33
6 51
7 78
8 51
9 85
10 74
11 4
12 13
13 2
14 33
15 16
16 31
17 16
18 18
19 3
20 66
21 42
22 65
23 15
24 3
25 38
26 81
27 82
28 83
29 86
30 1
31 59
32 69
33 1
34 58
35 98
36 37
37 65
38 92
39 44
40 86
41 83
42 68
43 52
44 82
45 66
46 34
47 33
48 18
49 39
50 97
51 29
52 6
53 74
54 20
55 2
56 89
57 48
58 53
59 57
60 80
61 26
62 85
63 89
64 29
65 68
66 15
67 51
68 9
69 63
70 62
71 49
72 28
73 84
74 82
75 65
76 77
77 74
78 27
79 100
80 82
81 54
82 21
83 43
84 4
85 53
86 55
87 73
88 46
89 68
90 22
91 69
92 93
93 44
94 63
95 64
96 81
97 87
98 44
99 12
100 78
101 91
102 63
103 84
104 7
105 2
106 68
107 85
108 77
109 93
110 16
111 6
112 52
113 79
114 43
115 87
116 40
117 47
118 74
119 19
120 3
121 12
COVERAGE_SECTION
2 9 287 81 49 44 207 42 260 297 294 
3 9 183 192 97 27 281 143 156 277 290 
4 9 182 265 87 248 79 38 137 92 65 
5 9 166 210 113 278 43 125 36 138 235 
6 9 194 62 31 134 57 244 77 121 28 
7 9 284 272 58 276 159 174 270 209 298 
8 9 59 231 104 76 234 47 48 94 198 
9 9 203 124 164 262 109 37 280 188 196 
10 9 173 84 168 78 234 135 104 163 47 
11 9 200 190 72 130 246 136 202 21 285 
12 9 263 80 282 74 214 82 178 65 18 
13 9 293 258 100 99 233 119 147 256 185 
14 9 214 74 269 88 82 12 65 282 263 
15 9 230 252 176 40 277 145 156 181 97 
16 9 86 60 36 138 210 67 95 101 257 
17 9 207 44 288 117 204 287 2 294 42 
18 9 292 297 80 178 169 263 184 73 29 
19 9 127 93 253 43 138 235 268 172 151 
20 9 221 223 298 174 51 33 279 171 186 
21 9 285 122 281 143 136 27 202 181 290 
22 9 132 115 68 177 225 247 201 242 237 
23 9 85 267 66 192 46 133 183 3 290 
24 9 250 249 110 77 120 220 295 144 62 
25 9 179 120 110 220 279 295 159 204 223 
26 9 63 114 57 134 31 116 189 150 283 
27 9 97 122 281 181 3 183 143 21 277 
28 9 244 111 154 77 62 239 249 64 194 
29 9 38 79 169 265 80 182 184 248 261 
30 9 227 300 52 199 53 61 167 259 161 
31 9 134 57 194 6 62 283 116 26 70 
32 8 241 218 240 291 69 167 146 53 
33 9 298 51 174 148 221 58 108 276 20 
34 9 302 75 273 211 149 123 301 210 101 
35 9 296 243 289 274 299 197 231 104 59 
36 9 16 86 60 210 101 138 75 5 95 
37 9 109 164 124 9 175 203 96 161 188 
38 9 79 265 182 29 248 4 261 153 169 
39 9 74 88 14 263 12 89 178 214 73 
40 9 252 181 277 176 15 97 122 27 230 
41 9 92 87 152 251 4 248 275 153 83 
42 9 287 44 2 260 49 81 215 207 171 
43 9 93 166 5 138 113 19 235 210 127 
44 9 207 287 2 42 17 81 49 215 260 
45 9 129 261 184 153 169 29 248 260 38 
46 9 145 156 192 267 277 183 3 230 85 
47 9 163 234 8 59 104 173 76 247 10 
48 9 94 198 76 237 242 59 231 8 299 
49 9 81 2 287 260 297 207 42 44 292 
50 9 112 162 180 213 103 170 226 128 71 
51 9 33 298 20 221 174 105 212 229 223 
52 9 61 211 227 30 301 273 300 199 302 
53 9 167 300 259 161 291 199 69 175 30 
54 9 193 286 158 205 206 212 108 148 209 
55 9 206 216 54 193 205 106 286 61 233 
56 9 217 107 155 238 102 271 95 229 222 
57 9 31 134 116 70 194 189 6 26 62 
58 9 276 284 7 272 174 148 33 298 108 
59 9 8 231 76 104 48 94 198 234 299 
60 9 16 86 138 36 67 257 95 228 210 
61 9 52 227 30 301 211 300 273 193 54 
62 9 194 6 244 28 154 77 111 249 31 
63 9 114 26 150 134 57 283 31 116 163 
64 9 239 119 111 256 28 77 249 244 225 
65 9 82 282 214 137 269 265 79 182 4 
66 9 133 131 246 290 23 202 136 143 192 
67 9 222 95 257 102 60 228 16 86 251 
68 9 201 247 132 70 189 116 154 22 244 
69 9 291 167 53 161 240 175 259 188 241 
70 9 116 189 201 247 57 68 154 31 244 
71 9 128 103 117 204 162 288 121 17 226 
72 9 130 122 21 181 285 40 252 27 176 
73 9 178 89 18 263 292 297 294 180 12 
74 9 12 263 14 178 214 82 282 39 73 
75 9 101 149 34 302 36 210 16 102 95 
76 9 48 94 198 59 8 231 242 237 299 
77 9 249 111 28 250 62 244 24 239 6 
78 9 168 135 10 84 173 245 234 163 47 
79 9 38 265 182 29 4 248 282 80 65 
80 9 18 29 12 282 263 292 79 38 169 
81 9 49 2 287 260 297 207 44 42 294 
82 9 65 214 282 269 137 12 265 79 80 
83 9 275 141 90 41 191 219 87 251 92 
84 9 173 10 168 78 234 104 135 274 197 
85 9 267 23 46 192 66 183 3 156 145 
86 9 16 60 36 138 210 67 5 43 95 
87 9 92 41 4 152 248 182 265 153 38 
88 9 14 39 74 269 214 82 12 65 263 
89 9 73 178 180 263 294 18 74 297 292 
90 9 219 83 141 275 191 160 41 228 251 
91 9 196 280 255 195 262 203 208 9 187 
92 9 41 87 152 248 4 153 251 182 261 
93 9 19 127 43 138 253 235 166 113 5 
94 9 48 76 198 237 242 59 8 231 224 
95 9 102 67 222 101 217 56 107 16 60 
96 9 236 165 37 109 264 124 123 199 175 
97 9 27 3 183 181 277 281 122 156 143 
98 9 264 266 125 113 235 278 172 236 254 
99 9 185 270 256 233 119 293 144 258 272 
100 9 147 258 225 293 13 119 256 64 239 
101 9 75 102 95 149 36 16 217 67 238 
102 9 95 217 56 107 222 101 67 238 155 
103 9 128 71 162 117 121 226 288 112 204 
104 9 231 8 234 59 173 299 84 10 76 
105 9 229 238 149 51 56 155 217 101 107 
106 9 131 246 11 200 190 202 136 133 66 
107 9 217 56 155 102 271 238 95 222 229 
108 9 148 158 209 205 276 33 58 212 286 
109 9 124 37 164 9 203 96 175 262 188 
110 9 120 24 25 220 179 250 295 144 249 
111 9 28 239 244 77 64 154 249 62 250 
112 9 50 162 213 103 226 128 180 71 283 
113 9 166 125 278 5 235 43 266 210 172 
114 9 63 26 150 134 283 57 31 226 116 
115 9 177 22 237 242 94 68 132 48 76 
116 9 70 189 57 201 247 31 154 68 134 
117 9 288 71 204 128 17 103 207 44 294 
118 9 224 237 198 48 94 242 76 115 289 
119 9 256 64 239 293 258 99 111 270 77 
120 9 110 25 220 179 24 295 250 144 159 
121 9 128 71 6 103 226 194 283 24 110 
122 9 21 27 181 285 281 97 143 3 183 
123 9 165 278 236 273 96 125 5 113 34 
124 9 109 9 164 203 37 262 188 96 264 
125 9 113 278 166 266 235 98 5 172 264 
126 9 118 177 224 115 237 242 22 198 232 
127 9 19 93 253 43 268 138 235 142 151 
128 9 71 103 117 162 121 204 288 226 17 
129 9 45 184 169 261 260 153 29 38 248 
130 9 72 40 122 181 21 252 176 285 27 
131 9 246 66 200 133 190 202 136 290 143 
132 9 68 22 154 201 225 247 70 244 239 
133 9 290 202 136 143 246 66 190 281 200 
134 9 31 57 283 194 6 26 226 63 114 
135 9 78 168 245 10 150 163 173 84 234 
136 9 202 290 190 285 143 21 133 200 281 
137 9 65 82 4 269 265 214 282 182 79 
138 9 86 60 43 16 93 36 210 5 19 
139 8 146 208 195 255 196 240 262 91 
140 9 11 130 72 176 21 40 122 285 252 
141 9 275 83 191 90 228 251 219 41 257 
142 9 160 127 19 93 253 191 138 268 257 
143 9 281 290 285 27 3 136 183 21 202 
144 9 295 159 220 270 272 120 24 110 250 
145 9 156 230 277 46 15 97 252 3 183 
146 8 139 208 195 255 240 196 262 91 
147 9 100 225 258 293 13 22 177 119 132 
148 9 108 158 209 276 33 58 205 212 7 
149 9 75 302 101 105 238 34 229 301 102 
150 9 63 114 213 26 170 135 245 283 226 
151 9 268 253 172 254 235 266 187 19 127 
152 9 92 153 248 87 41 261 4 182 38 
153 9 261 248 152 45 38 182 129 4 29 
154 9 244 28 62 111 70 116 77 194 239 
155 9 271 56 107 217 238 229 102 105 186 
156 9 277 145 97 3 183 192 27 181 46 
157 9 131 66 23 246 85 133 267 106 200 
158 9 212 286 108 148 205 209 33 193 54 
159 9 295 144 220 272 270 7 284 179 58 
160 9 142 191 127 141 19 228 257 90 93 
161 9 175 259 53 167 199 37 300 69 188 
162 9 103 112 128 71 50 226 117 288 213 
163 9 47 234 26 135 8 63 114 168 78 
164 9 124 109 9 37 203 188 262 175 161 
165 9 236 96 123 273 199 278 264 37 211 
166 9 113 5 278 125 43 235 210 266 138 
167 9 53 300 259 161 291 69 175 199 30 
168 9 78 135 10 173 84 245 234 163 47 
169 9 184 29 292 129 45 297 18 38 260 
170 9 213 150 245 50 112 135 162 226 114 
171 9 215 279 42 186 223 44 17 287 20 
172 9 235 266 151 254 253 268 125 113 98 
173 9 84 10 234 104 168 78 8 135 47 
174 9 221 298 20 223 33 58 284 7 276 
175 9 161 259 37 199 53 167 164 109 188 
176 9 40 15 252 230 181 277 130 72 122 
177 9 115 22 147 237 242 225 132 68 100 
178 9 73 263 18 89 12 292 80 297 74 
179 9 25 120 220 110 279 295 159 223 144 
180 9 89 50 73 294 112 162 178 288 207 
181 9 27 122 97 252 40 277 281 21 3 
182 9 265 4 38 79 248 29 87 153 261 
183 9 3 192 97 27 281 143 156 277 290 
184 9 169 129 260 45 292 29 297 18 49 
185 9 99 233 270 272 209 276 7 284 159 
186 9 215 171 42 271 20 129 260 223 279 
187 9 254 151 172 266 98 280 91 268 264 
188 9 164 203 9 37 262 175 109 124 161 
189 9 70 116 201 247 57 68 26 31 154 
190 9 200 202 136 246 290 133 285 21 143 
191 9 228 141 257 275 251 83 67 222 41 
192 9 183 3 97 156 281 143 27 290 277 
193 9 54 286 158 205 206 212 108 148 209 
194 9 6 62 31 57 134 244 28 77 154 
195 8 255 208 196 139 146 262 91 280 
196 9 280 255 91 262 195 203 9 124 164 
197 9 274 296 35 299 243 104 84 289 173 
198 9 48 94 76 237 59 231 242 8 224 
199 9 259 300 175 161 53 167 30 96 37 
200 9 190 246 202 136 133 290 285 21 143 
201 9 247 68 189 70 116 132 154 57 244 
202 9 136 290 190 285 133 143 200 21 281 
203 9 9 124 164 262 109 37 280 188 196 
204 9 117 17 71 288 128 279 25 44 103 
205 9 209 108 158 148 286 54 193 212 276 
206 9 54 193 55 61 216 286 227 205 52 
207 9 44 17 2 287 294 81 288 49 42 
208 8 139 195 146 255 196 91 262 280 
209 9 108 148 205 276 185 58 7 233 158 
210 9 5 36 166 86 278 16 43 113 138 
211 9 273 301 34 302 52 61 165 123 75 
212 9 158 286 108 148 33 51 205 193 54 
213 9 112 150 226 170 50 283 162 114 63 
214 9 82 269 65 282 14 12 137 263 74 
215 9 171 279 42 44 186 223 17 287 207 
216 9 55 233 205 206 54 193 209 13 185 
217 9 56 107 102 155 95 238 222 271 101 
218 9 291 69 167 53 241 32 240 300 161 
219 9 90 83 141 275 191 137 41 160 87 
220 9 295 120 144 159 110 25 179 24 250 
221 9 174 298 20 223 33 51 58 284 279 
222 9 67 95 102 251 257 217 228 107 56 
223 9 20 221 174 279 298 171 215 179 25 
224 9 118 198 48 237 94 76 242 289 299 
225 9 147 132 239 64 100 22 119 258 111 
226 9 283 134 162 103 121 213 128 112 31 
227 9 30 300 52 61 53 199 167 259 161 
228 9 257 191 67 251 222 60 95 141 16 
229 9 105 238 155 56 271 51 217 107 149 
230 9 15 145 277 252 156 40 176 181 46 
231 9 59 299 104 8 76 289 198 48 94 
232 9 243 224 118 289 35 299 296 198 48 
233 9 185 99 209 205 270 276 272 7 108 
234 9 173 104 8 47 10 59 163 84 231 
235 9 172 266 113 125 166 43 253 5 151 
236 9 96 165 123 264 37 109 273 98 199 
237 9 242 94 48 198 76 115 118 224 59 
238 9 229 56 105 155 217 107 102 149 271 
239 9 64 111 28 244 77 119 154 256 249 
240 8 241 69 188 291 161 175 167 146 
241 8 240 69 291 32 188 218 146 139 
242 9 237 94 48 76 198 115 59 8 22 
243 9 35 289 296 299 274 197 231 104 198 
244 9 28 154 111 62 77 194 239 6 249 
245 9 135 78 168 150 170 10 213 84 63 
246 9 200 190 131 133 202 136 290 66 143 
247 9 201 68 189 70 116 132 57 154 22 
248 9 153 182 38 261 4 265 79 152 87 
249 9 77 250 24 111 28 62 244 6 194 
250 9 24 249 77 110 120 62 220 111 6 
251 9 41 222 228 92 67 257 191 152 275 
252 9 40 181 277 15 176 97 27 122 230 
253 9 268 151 19 127 172 93 235 43 266 
254 9 187 172 151 266 235 268 98 253 125 
255 8 196 195 262 280 91 203 9 208 
256 9 119 64 99 293 239 258 270 111 144 
257 9 228 67 191 60 222 251 16 95 86 
258 9 293 13 119 256 100 99 64 147 225 
259 9 161 175 199 53 167 300 37 69 96 
260 9 49 81 287 2 184 42 297 129 169 
261 9 153 248 45 152 38 129 29 182 169 
262 9 203 9 255 280 196 164 124 188 109 
263 9 12 178 80 74 18 73 282 292 82 
264 9 98 96 236 109 124 125 266 37 9 
265 9 182 79 38 4 248 29 282 65 87 
266 9 172 235 125 98 113 254 166 264 278 
267 9 85 23 46 192 156 183 3 145 66 
268 9 151 253 172 127 254 19 235 93 266 
269 9 214 82 65 137 14 282 12 265 4 
270 9 144 159 99 185 272 295 7 220 284 
271 9 155 107 56 45 217 129 186 229 238 
272 9 7 284 58 159 276 270 144 185 295 
273 9 211 123 165 34 236 302 301 52 278 
274 9 197 296 35 299 104 84 289 243 231 
275 9 83 141 191 41 251 90 92 228 87 
276 9 58 7 284 272 148 209 108 33 174 
277 9 156 97 181 252 40 27 145 3 183 
278 9 113 166 125 5 123 210 235 98 43 
279 9 171 215 223 179 25 204 20 221 174 
280 9 196 262 91 255 9 203 124 164 195 
281 9 143 27 285 3 97 122 183 290 21 
282 9 65 82 80 214 79 12 265 38 182 
283 9 226 134 31 121 114 63 57 6 194 
284 9 7 58 272 276 159 174 298 33 221 
285 9 21 122 281 136 143 202 290 27 97 
286 9 158 212 193 54 108 205 148 33 209 
287 9 2 44 49 81 42 207 260 17 297 
288 9 117 17 207 294 71 204 44 128 103 
289 9 299 35 231 243 296 198 104 48 59 
290 9 143 136 202 133 281 285 21 190 3 
291 9 69 167 53 161 240 259 175 218 300 
292 9 18 297 169 80 184 29 49 81 178 
293 9 258 13 119 256 99 100 64 147 225 
294 9 207 288 2 81 17 49 44 287 297 
295 9 144 220 159 120 270 110 24 179 25 
296 9 274 35 197 299 289 243 104 231 84 
297 9 292 18 49 81 260 184 169 2 287 
298 9 174 221 33 20 223 51 58 284 7 
299 9 231 289 104 35 296 59 8 198 274 
300 9 53 199 167 30 259 227 161 175 291 
301 9 211 302 52 61 34 149 273 75 105 
302 9 34 149 301 75 211 273 101 105 52 
DEPOT_SECTION
   1
   -1
EOF
