NAME :  X-n351-kX-w35-c11.cctp
COMMENT : 	Adapted by Maziero, Usberti and Cavellucci from the Uchoa, Pecin, Pessoa, Poggi, Subramanian, and Vidal (2013)
TYPE :  CCTP
DIMENSION :    280
EDGE_WEIGHT_TYPE : 	EUC_2D	
CAPACITY : 	436
VERTICES_WITHIN_COVERAGE :  11
VERTICES_WITH_DEMAND : 	35
NODE_COORD_SECTION
1 500 500
2 740 442
3 261 710
4 578 522
5 562 509
6 795 425
7 636 463
8 645 617
9 595 524
10 649 599
11 745 252
12 180 757
13 590 598
14 332 775
15 544 551
16 1000 444
17 581 521
18 240 609
19 700 468
20 735 579
21 403 569
22 352 905
23 733 352
24 289 705
25 598 249
26 565 570
27 711 336
28 816 497
29 769 411
30 409 651
31 231 742
32 575 555
33 567 477
34 693 537
35 521 534
36 457 414
37 638 617
38 245 744
39 311 717
40 753 427
41 547 493
42 732 382
43 664 511
44 945 316
45 250 770
46 598 493
47 568 558
48 395 796
49 467 732
50 685 327
51 260 910
52 571 648
53 747 398
54 571 650
55 541 442
56 841 466
57 744 725
58 662 349
59 686 543
60 184 776
61 177 770
62 664 559
63 802 446
64 662 566
65 605 544
66 287 671
67 615 511
68 293 693
69 375 671
70 383 614
71 834 417
72 255 696
73 708 388
74 799 172
75 298 531
76 740 456
77 661 582
78 659 461
79 630 290
80 267 721
81 682 474
82 540 550
83 370 733
84 546 587
85 724 572
86 416 688
87 714 478
88 916 502
89 313 770
90 464 361
91 356 921
92 477 721
93 733 447
94 724 495
95 348 505
96 595 628
97 227 720
98 781 585
99 807 595
100 582 503
101 505 586
102 235 788
103 716 440
104 633 421
105 826 476
106 676 446
107 388 669
108 465 690
109 543 422
110 675 544
111 770 613
112 309 590
113 434 594
114 468 405
115 0 863
116 663 582
117 209 755
118 966 516
119 580 593
120 221 558
121 230 594
122 329 768
123 786 523
124 704 474
125 819 376
126 724 505
127 565 501
128 404 589
129 663 527
130 254 640
131 253 708
132 269 730
133 823 519
134 586 689
135 739 421
136 706 519
137 726 423
138 614 525
139 239 690
140 643 328
141 793 426
142 221 731
143 290 732
144 709 310
145 654 492
146 745 370
147 459 639
148 618 570
149 613 528
150 652 434
151 258 637
152 722 421
153 535 578
154 242 624
155 371 387
156 671 445
157 764 425
158 242 763
159 670 520
160 580 482
161 292 823
162 547 443
163 797 356
164 555 484
165 747 340
166 760 446
167 734 451
168 604 277
169 790 405
170 680 445
171 741 460
172 244 758
173 600 503
174 562 518
175 620 425
176 852 489
177 577 553
178 235 755
179 187 725
180 724 328
181 195 572
182 830 457
183 205 739
184 733 341
185 434 452
186 716 458
187 495 573
188 579 545
189 228 725
190 604 417
191 806 347
192 420 730
193 626 499
194 555 449
195 551 554
196 177 983
197 794 430
198 771 573
199 487 291
200 239 703
201 789 477
202 521 478
203 677 456
204 505 327
205 453 744
206 321 753
207 509 497
208 749 451
209 796 429
210 341 677
211 797 485
212 571 649
213 750 412
214 752 393
215 170 716
216 104 694
217 809 569
218 605 549
219 201 625
220 300 676
221 548 478
222 637 450
223 706 463
224 788 583
225 611 574
226 176 761
227 404 508
228 798 573
229 614 415
230 257 707
231 780 394
232 547 462
233 379 817
234 539 556
235 498 909
236 275 706
237 726 426
238 780 439
239 724 478
240 832 405
241 512 428
242 623 445
243 817 463
244 755 418
245 720 471
246 320 745
247 289 737
248 636 260
249 679 590
250 256 618
251 264 677
252 326 681
253 229 729
254 553 266
255 519 526
256 692 552
257 709 509
258 794 421
259 189 728
260 565 676
261 326 462
262 687 334
263 298 705
264 582 478
265 737 579
266 458 895
267 394 639
268 352 782
269 621 303
270 268 629
271 440 831
272 748 593
273 400 547
274 268 721
275 226 646
276 578 616
277 446 574
278 502 571
279 574 593
280 459 466
DEMAND_SECTION
2 43
3 82
4 57
5 51
6 29
7 55
8 71
9 35
10 28
11 36
12 18
13 42
14 79
15 88
16 68
17 99
18 10
19 11
20 77
21 68
22 44
23 17
24 60
25 33
26 30
27 37
28 87
29 18
30 6
31 42
32 1
33 22
34 78
35 94
36 65
COVERAGE_SECTION
2 11 93 167 208 76 171 40 166 135 237 103 137 
3 11 230 131 80 274 72 236 132 200 24 139 251 
4 11 17 174 9 100 5 188 127 173 177 32 46 
5 11 127 174 4 100 17 41 164 33 160 221 9 
6 10 141 209 258 197 169 238 63 29 157 231 
7 11 222 242 78 150 145 193 156 175 104 203 106 
8 11 37 10 77 116 249 96 64 148 225 13 62 
9 11 17 4 149 138 65 173 67 100 188 218 46 
10 10 8 37 77 116 249 64 148 62 225 13 
11 11 144 180 165 184 27 50 74 262 23 248 191 
12 11 226 61 60 117 259 183 179 215 142 31 178 
13 11 119 279 276 96 225 26 148 84 32 47 177 
14 10 122 89 268 206 246 83 247 143 39 161 
15 11 82 234 195 47 26 153 35 32 177 255 84 
16 6 118 88 44 176 56 71 
17 11 4 9 100 174 5 188 127 173 177 46 65 
18 8 154 121 250 151 130 270 275 219 
19 10 124 223 87 81 186 245 203 239 170 103 
20 11 265 85 272 198 98 111 256 224 249 34 59 
21 9 128 273 113 277 70 227 267 30 95 
22 9 91 51 233 161 266 271 48 268 14 
23 11 184 165 146 180 27 42 73 214 53 144 262 
24 11 263 68 236 39 274 80 143 3 220 132 230 
25 10 168 248 254 79 269 140 50 58 199 204 
26 11 47 32 177 195 84 279 119 15 188 234 153 
27 11 180 184 262 144 23 50 165 146 42 58 73 
28 9 211 105 133 201 243 176 56 123 182 
29 11 157 244 213 231 169 40 214 53 258 141 6 
30 10 267 107 86 69 70 147 113 128 108 210 
31 11 253 38 178 142 189 172 97 158 117 183 45 
32 11 177 47 188 26 195 15 218 65 4 17 82 
33 11 160 164 264 221 127 232 41 100 194 5 46 
34 10 59 256 110 136 159 129 257 62 43 64 
35 11 255 82 234 15 195 207 278 174 153 187 5 
36 9 114 185 280 90 241 109 55 155 202 
37 11 8 10 77 116 96 249 148 225 13 64 276 
38 10 31 172 178 158 253 189 45 142 132 97 
39 11 263 24 143 246 68 247 206 236 252 220 274 
40 11 244 157 135 213 2 166 29 208 137 237 93 
41 10 164 221 127 5 33 174 202 232 160 100 
42 9 146 53 214 73 23 213 135 152 137 
43 8 159 129 145 110 34 59 193 81 
44 5 16 125 191 240 71 
45 9 158 172 178 102 38 31 117 132 253 
46 11 173 100 160 264 67 193 9 17 127 4 33 
47 11 32 177 26 188 195 15 82 234 84 279 4 
48 11 233 268 271 14 83 192 122 205 89 206 246 
49 9 92 205 108 192 86 147 48 83 30 
50 10 262 27 144 58 180 140 184 23 165 73 
51 7 22 161 91 196 102 45 158 
52 9 212 54 260 96 276 134 13 279 119 
53 11 214 213 42 244 135 29 146 40 157 137 231 
54 9 212 52 260 96 276 134 13 279 119 
55 10 162 194 109 232 241 221 202 33 164 41 
56 7 182 105 243 176 28 63 211 
57 7 111 272 99 98 20 265 8 
58 7 140 262 50 27 73 144 269 
59 9 34 110 256 62 129 159 136 64 43 
60 11 61 226 12 117 183 259 179 102 178 31 142 
61 11 60 226 12 117 183 259 179 215 142 178 31 
62 9 64 110 77 116 59 256 129 249 34 
63 8 197 209 6 141 238 243 258 182 
64 10 62 77 116 110 249 59 256 10 129 34 
65 10 218 149 138 9 188 148 177 225 32 17 
66 6 220 68 251 24 263 236 
67 9 138 193 149 173 9 46 65 100 17 
68 10 24 263 220 236 66 39 251 252 3 72 
69 10 107 210 267 30 86 252 70 83 192 220 
70 8 267 128 30 21 107 113 69 273 
71 8 240 6 182 209 258 141 197 63 
72 9 230 131 3 139 200 251 236 80 274 
73 8 42 152 137 53 146 237 23 214 
74 9 11 144 180 191 165 184 163 248 27 
75 8 95 112 261 120 121 18 250 270 
76 8 171 167 208 93 2 166 186 245 
77 10 116 64 249 10 62 8 110 37 256 148 
78 11 203 156 7 106 222 81 170 150 145 242 19 
79 10 269 168 248 140 25 50 58 262 144 254 
80 11 274 132 3 230 236 131 143 24 247 72 38 
81 11 19 203 124 78 223 106 170 156 87 145 186 
82 11 15 234 195 35 153 47 26 255 32 84 177 
83 11 192 246 268 206 122 14 39 69 210 86 107 
84 11 153 26 279 234 195 119 15 47 82 101 32 
85 11 20 265 272 256 34 198 59 249 110 136 98 
86 11 107 30 192 69 108 267 83 147 49 205 92 
87 8 245 239 124 19 223 94 186 126 
88 8 118 176 56 105 133 182 28 16 
89 9 122 206 14 246 247 268 143 39 161 
90 10 114 36 204 199 241 185 155 109 280 55 
91 10 22 51 266 233 161 271 48 268 235 14 
92 8 49 108 205 192 86 147 30 260 
93 10 167 2 76 171 208 103 186 237 137 135 
94 8 126 239 87 257 245 124 136 19 
95 9 261 75 227 273 21 112 128 185 70 
96 10 276 13 52 212 54 119 279 37 8 225 
97 9 189 253 142 200 31 131 183 38 139 
98 11 224 198 228 99 111 217 272 265 20 85 123 
99 11 224 228 217 98 111 198 272 265 20 123 133 
100 11 127 17 173 4 46 5 160 9 174 264 33 
101 10 278 187 153 84 234 82 15 35 195 277 
102 8 45 158 172 178 117 38 31 60 
103 10 237 93 186 137 152 167 2 223 76 135 
104 8 175 229 150 242 190 222 7 156 
105 8 243 56 182 28 176 211 201 63 
106 11 170 156 203 78 150 81 19 223 222 103 124 
107 10 69 30 267 86 210 70 252 83 192 147 
108 9 92 49 86 147 205 192 30 107 267 
109 8 55 162 194 241 232 221 33 202 
110 9 59 34 62 256 129 159 64 43 77 
111 11 98 272 224 198 99 265 20 228 217 85 123 
112 5 270 75 250 151 18 
113 11 277 128 21 147 70 273 267 30 187 101 278 
114 9 36 90 241 185 280 109 55 204 162 
115 8 216 61 226 60 12 196 215 179 
116 10 77 64 249 10 62 8 110 256 37 59 
117 11 183 31 178 142 12 60 253 158 226 259 61 
118 8 88 16 176 56 133 105 182 28 
119 11 279 13 276 26 84 225 47 32 96 177 148 
120 11 181 121 18 154 250 219 75 270 151 130 275 
121 10 18 154 250 120 181 219 151 130 270 275 
122 9 14 89 206 246 268 247 143 39 83 
123 8 133 28 211 201 217 228 198 224 
124 9 19 87 223 245 186 239 81 94 203 
125 9 163 191 240 169 231 71 258 6 141 
126 8 94 257 136 239 87 245 124 19 
127 11 5 100 174 41 164 33 160 4 17 221 264 
128 9 21 113 70 273 277 267 30 147 227 
129 7 159 43 110 59 34 62 145 
130 6 151 270 154 250 275 18 
131 10 230 3 72 200 80 274 236 139 132 97 
132 10 80 274 143 247 3 236 230 131 38 24 
133 11 28 123 176 105 211 217 201 56 243 228 182 
134 8 260 54 212 52 96 276 37 13 
135 11 137 213 237 40 244 152 2 53 157 93 103 
136 11 257 34 126 94 59 159 256 110 87 43 129 
137 10 237 152 135 103 2 93 213 40 167 244 
138 9 149 67 9 65 173 218 193 17 4 
139 7 200 72 131 230 251 3 97 
140 9 58 269 79 50 262 168 27 144 248 
141 10 6 197 209 258 238 169 63 29 157 231 
142 10 253 189 97 31 183 38 117 178 259 200 
143 10 247 132 80 274 39 24 263 236 246 3 
144 11 180 27 50 262 184 23 165 58 11 140 146 
145 9 43 193 78 159 81 7 129 67 203 
146 11 42 23 214 53 165 184 73 213 231 180 27 
147 10 30 108 113 86 267 277 101 128 187 107 
148 9 225 218 65 13 10 149 64 119 177 
149 9 138 67 9 65 218 173 193 17 4 
150 10 156 222 104 106 78 170 242 7 175 203 
151 6 130 270 250 154 18 275 
152 9 137 237 135 103 2 93 213 40 167 
153 11 84 234 15 82 195 26 101 278 47 187 279 
154 7 18 250 130 151 270 275 121 
155 10 261 36 185 90 114 280 95 227 204 241 
156 11 106 170 203 78 150 81 222 19 7 223 124 
157 10 40 244 29 213 166 238 135 2 141 197 
158 10 172 45 178 38 31 102 117 253 142 189 
159 8 129 43 110 59 34 145 136 62 
160 11 264 33 46 100 127 164 173 5 221 41 17 
161 6 89 14 122 102 45 268 
162 10 55 194 232 109 221 241 33 164 202 264 
163 9 191 125 231 169 165 146 214 240 29 
164 11 221 41 33 127 232 160 5 264 100 174 194 
165 11 184 23 180 146 27 42 144 163 214 53 191 
166 10 208 2 40 157 238 76 171 167 93 244 
167 9 93 76 2 171 208 186 103 245 166 
168 9 25 79 269 248 254 140 58 50 262 
169 11 231 258 6 141 29 197 209 157 238 244 214 
170 11 106 156 203 78 81 19 150 223 103 124 186 
171 8 76 167 208 93 2 166 245 186 
172 10 158 178 45 38 31 102 253 117 142 189 
173 11 46 67 100 9 17 138 193 149 4 160 264 
174 11 5 4 127 17 100 41 188 9 164 15 177 
175 9 229 104 190 242 222 150 7 78 156 
176 7 56 105 28 182 133 243 211 
177 11 32 188 47 26 195 218 65 4 17 15 9 
178 11 172 158 31 38 45 117 253 142 189 102 183 
179 10 259 215 183 12 142 117 226 97 189 253 
180 11 27 184 144 23 165 262 50 146 42 73 58 
181 9 120 121 219 18 154 250 275 130 151 
182 7 56 243 105 63 176 71 28 
183 11 117 142 259 179 31 253 189 97 12 178 226 
184 11 23 165 180 27 146 144 42 262 50 73 214 
185 9 280 36 114 227 241 207 155 202 90 
186 10 223 245 103 19 167 87 93 124 239 76 
187 10 278 101 153 35 234 277 82 84 255 15 
188 11 177 32 47 4 17 9 65 218 26 195 174 
189 9 253 97 142 31 38 200 183 131 178 
190 8 229 175 104 242 222 150 7 194 
191 9 163 125 231 165 169 240 146 214 23 
192 11 205 86 49 83 92 108 107 48 69 30 268 
193 8 67 173 46 138 145 149 7 9 
194 10 162 232 55 33 109 221 164 264 160 41 
195 11 15 82 234 47 26 32 177 153 188 84 35 
196 7 51 91 22 161 102 60 61 
197 9 209 141 6 258 238 63 169 157 29 
198 11 98 224 228 272 265 20 217 111 99 85 123 
199 9 204 254 90 114 168 25 36 269 241 
200 8 139 131 72 230 97 3 189 253 
201 7 211 243 28 63 105 238 166 
202 9 207 221 41 232 164 55 162 194 33 
203 11 106 170 156 78 81 19 223 124 150 186 222 
204 8 199 90 254 114 36 241 109 168 
205 10 49 92 192 108 86 48 83 271 107 30 
206 10 246 122 89 14 247 39 143 268 83 263 
207 9 202 255 41 35 221 164 232 5 127 
208 8 76 166 171 2 167 93 40 157 
209 9 197 6 141 258 63 238 169 29 157 
210 9 252 69 220 107 39 68 263 66 24 
211 7 201 28 105 243 63 123 133 
212 9 52 54 260 96 276 134 13 279 119 
213 11 244 53 135 40 29 157 214 137 237 152 2 
214 11 53 213 42 146 29 244 231 135 40 157 137 
215 7 179 259 12 183 226 142 61 
216 5 215 179 259 226 12 
217 11 228 224 99 98 198 123 133 111 272 28 265 
218 10 65 149 148 138 188 225 9 177 32 17 
219 8 275 154 18 121 181 130 250 151 
220 9 66 68 252 263 24 251 236 210 39 
221 10 164 41 232 33 202 127 194 160 5 264 
222 11 7 242 150 78 104 175 156 106 203 229 170 
223 10 19 124 186 245 87 239 103 81 167 203 
224 11 98 228 198 99 217 111 272 265 20 123 85 
225 9 148 218 65 13 119 177 32 279 188 
226 11 12 61 60 117 259 183 179 215 142 31 178 
227 10 273 95 21 185 280 277 128 113 261 207 
228 11 217 224 98 99 198 111 123 272 133 265 20 
229 7 190 175 104 242 150 222 7 
230 10 131 3 72 80 200 236 274 139 132 251 
231 11 169 29 214 258 53 6 141 157 213 244 209 
232 10 194 221 162 55 164 33 41 202 264 160 
233 11 48 268 14 271 122 89 83 206 161 22 246 
234 11 82 15 195 153 35 47 26 84 32 255 177 
235 8 266 271 91 22 233 48 205 49 
236 11 24 3 80 274 230 68 72 131 263 132 143 
237 10 137 152 135 103 2 93 167 40 213 244 
238 10 197 141 209 6 157 166 63 258 29 40 
239 8 245 87 94 124 186 223 171 19 
240 8 71 125 258 6 169 209 141 197 
241 9 55 109 162 194 232 114 202 36 221 
242 10 222 175 7 104 150 229 190 78 156 106 
243 9 182 105 63 56 211 201 28 197 209 
244 11 213 40 157 29 135 53 214 2 166 137 237 
245 8 239 87 186 124 223 19 94 167 
246 10 206 122 89 39 14 247 143 263 268 24 
247 10 143 132 274 80 39 24 246 263 236 206 
248 11 79 168 25 269 140 50 254 144 262 58 27 
249 11 116 77 64 10 62 256 8 110 59 85 37 
250 6 154 270 18 151 130 121 
251 8 72 66 139 230 236 3 68 131 
252 8 210 220 68 263 39 66 24 69 
253 10 189 142 97 31 38 183 178 200 131 117 
254 9 25 168 199 269 204 79 248 140 90 
255 11 35 207 82 15 234 41 195 174 5 202 278 
256 11 59 34 110 62 64 136 85 129 159 249 116 
257 11 136 126 94 87 34 239 124 245 59 159 19 
258 10 6 141 209 197 169 238 63 29 157 231 
259 10 179 183 215 12 142 117 226 97 189 253 
260 8 134 54 212 52 96 276 13 279 
261 10 95 75 155 227 185 273 112 21 280 36 
262 10 50 27 58 144 180 140 184 23 73 165 
263 11 24 68 39 236 143 220 247 274 80 66 3 
264 11 160 33 46 100 164 127 173 221 5 41 232 
265 11 20 85 272 198 98 111 224 256 249 34 228 
266 10 235 271 91 22 233 48 205 268 49 192 
267 10 30 70 107 69 128 86 113 147 210 21 
268 11 14 122 89 206 233 48 246 83 161 39 247 
269 9 79 168 140 248 25 58 50 262 254 
270 5 151 250 130 154 18 
271 10 48 233 266 205 235 268 49 192 22 92 
272 11 265 20 111 198 85 98 224 228 99 217 249 
273 9 21 227 128 277 113 95 70 267 187 
274 10 80 132 3 236 230 131 143 24 247 72 
275 6 154 130 151 219 18 250 
276 10 96 13 119 279 52 212 54 84 26 225 
277 11 113 21 128 187 273 278 101 147 70 227 267 
278 10 187 101 153 234 35 82 15 84 255 195 
279 11 119 13 276 26 84 47 32 177 96 153 225 
280 9 185 36 207 114 202 241 227 55 255 
DEPOT_SECTION
   1
   -1
EOF
