NAME :  X-n303-kX-w30-c7.cctp
COMMENT : 	Adapted by Maziero, Usberti and Cavellucci from the Uchoa, Pecin, Pessoa, Poggi, Subramanian, and Vidal (2013)
TYPE :  CCTP
DIMENSION :    199
EDGE_WEIGHT_TYPE : 	EUC_2D	
CAPACITY : 	794
VERTICES_WITHIN_COVERAGE :  7
VERTICES_WITH_DEMAND : 	30
NODE_COORD_SECTION
1 500 500
2 205 638
3 893 161
4 191 775
5 444 871
6 225 445
7 368 543
8 120 270
9 612 902
10 45 323
11 707 182
12 125 720
13 442 388
14 79 759
15 904 76
16 379 849
17 213 595
18 164 686
19 404 947
20 331 615
21 842 156
22 272 297
23 957 227
24 274 481
25 287 544
26 152 403
27 873 146
28 267 415
29 188 727
30 594 742
31 198 429
32 395 836
33 600 866
34 192 744
35 12 705
36 869 99
37 233 811
38 235 638
39 423 904
40 220 619
41 236 713
42 960 141
43 128 321
44 200 650
45 375 638
46 540 726
47 198 412
48 375 558
49 123 259
50 365 859
51 545 700
52 242 431
53 140 412
54 316 413
55 892 246
56 331 828
57 808 113
58 129 655
59 84 714
60 416 784
61 151 243
62 275 442
63 46 355
64 182 746
65 158 717
66 198 648
67 137 763
68 30 301
69 979 214
70 384 855
71 212 794
72 35 779
73 108 640
74 231 796
75 402 932
76 166 237
77 883 143
78 395 327
79 382 787
80 81 261
81 721 333
82 596 878
83 273 514
84 281 417
85 464 893
86 140 413
87 256 250
88 206 384
89 204 563
90 283 520
91 214 494
92 854 142
93 502 839
94 599 889
95 485 898
96 339 73
97 396 959
98 234 702
99 811 101
100 266 346
101 185 436
102 61 374
103 843 188
104 156 795
105 387 889
106 622 16
107 327 991
108 867 172
109 329 496
110 930 115
111 371 317
112 98 434
113 239 775
114 251 398
115 913 135
116 928 399
117 337 519
118 294 981
119 124 342
120 615 881
121 454 888
122 48 353
123 200 704
124 269 610
125 54 300
126 346 588
127 867 63
128 304 240
129 129 675
130 293 547
131 868 126
132 190 760
133 894 162
134 209 696
135 400 495
136 283 657
137 649 872
138 198 370
139 904 169
140 224 441
141 627 952
142 593 802
143 616 902
144 230 561
145 204 614
146 425 539
147 430 850
148 119 764
149 265 615
150 308 513
151 339 599
152 316 598
153 325 348
154 595 727
155 920 82
156 105 238
157 88 300
158 302 404
159 257 410
160 26 411
161 212 757
162 277 453
163 274 472
164 875 101
165 434 975
166 647 943
167 317 866
168 391 393
169 217 666
170 229 740
171 630 918
172 125 704
173 184 757
174 985 201
175 448 998
176 117 784
177 359 490
178 365 531
179 387 551
180 895 120
181 476 868
182 281 586
183 609 944
184 868 164
185 148 748
186 168 463
187 364 550
188 844 163
189 214 637
190 189 582
191 863 190
192 175 686
193 393 400
194 172 614
195 320 504
196 182 671
197 356 599
198 88 215
199 608 775
DEMAND_SECTION
2 20
3 14
4 85
5 33
6 51
7 78
8 51
9 85
10 74
11 4
12 13
13 2
14 33
15 16
16 31
17 16
18 18
19 3
20 66
21 42
22 65
23 15
24 3
25 38
26 81
27 82
28 83
29 86
30 1
31 59
COVERAGE_SECTION
2 7 189 66 44 40 145 38 169 
3 7 133 139 77 27 184 108 115 
4 7 132 173 71 161 64 34 104 
5 7 121 147 85 181 39 95 32 
6 7 140 52 31 101 47 159 62 
7 7 187 178 48 179 117 126 177 
8 6 49 156 80 61 157 43 
9 7 143 94 120 171 82 33 183 
10 7 125 68 122 63 157 102 80 
11 3 57 99 103 
12 7 172 65 185 59 148 67 129 
13 4 193 168 78 111 
14 6 148 59 176 72 67 12 
15 7 155 164 127 36 180 110 115 
16 6 70 50 32 105 147 56 
17 7 145 40 190 89 144 189 2 
18 7 192 196 65 129 123 172 134 
19 6 97 75 165 39 105 175 
20 6 151 152 197 126 45 182 
21 6 188 92 184 108 103 27 
22 4 100 87 128 153 
23 6 69 174 55 139 42 133 
24 7 163 162 83 62 90 150 195 
25 7 130 90 83 150 182 195 117 
26 7 53 86 47 101 31 88 138 
27 7 77 92 184 131 3 133 108 
28 7 159 84 114 62 52 158 162 
29 7 34 64 123 173 65 132 134 
30 5 154 199 46 142 51 
31 7 101 47 140 6 52 186 88 
32 7 16 70 50 147 79 105 60 
33 5 82 120 94 9 143 
34 7 64 173 132 29 161 4 170 
35 7 59 72 14 172 12 73 129 
36 7 164 131 180 127 15 77 92 
37 5 74 71 113 4 161 
38 7 189 40 2 169 44 66 149 
39 6 75 121 5 105 85 19 
40 7 145 189 2 38 17 66 44 
41 6 98 170 134 123 29 161 
42 7 110 115 139 174 180 133 3 
43 7 119 157 8 49 80 125 61 
44 7 66 2 189 169 196 145 38 
45 4 197 20 151 126 
46 4 51 154 30 199 
47 6 31 101 88 140 138 6 
48 5 179 187 7 178 126 
49 5 8 156 61 80 76 
50 6 16 70 105 32 56 167 
51 4 46 154 30 199 
52 7 140 6 159 28 114 62 84 
53 7 86 26 112 101 47 186 31 
54 5 158 84 28 62 162 
55 3 191 23 103 
56 3 167 50 16 
57 7 99 92 21 131 188 36 164 
58 7 129 73 18 172 192 196 194 
59 7 12 172 14 129 148 67 185 
60 4 79 32 147 16 
61 4 76 49 8 156 
62 7 162 84 28 163 52 159 24 
63 7 122 102 10 68 125 160 157 
64 7 34 173 132 29 4 161 185 
65 7 18 29 12 185 172 192 64 
66 7 44 2 189 169 196 145 40 
67 6 148 185 176 104 12 173 
68 7 125 10 122 63 157 80 102 
69 7 174 23 42 139 55 133 3 
70 7 16 50 32 105 147 56 5 
71 7 74 37 4 113 161 132 173 
72 7 14 35 59 176 148 67 12 
73 6 58 129 172 194 18 59 
74 5 37 71 113 161 4 
75 6 19 97 39 105 165 121 
76 3 61 49 8 
77 7 27 3 133 131 180 184 92 
78 5 111 168 153 193 13 
79 3 60 32 16 
80 7 156 8 157 49 125 198 68 
81 2 11 103 
82 5 94 33 120 9 143 
83 7 90 24 25 150 130 163 195 
84 7 28 158 159 62 54 114 162 
85 5 121 95 181 5 39 
86 7 53 26 112 101 186 47 31 
87 4 128 22 76 100 
88 4 138 47 31 114 
89 4 190 144 17 145 
90 7 83 25 150 130 24 195 163 
91 3 6 140 186 
92 7 21 27 131 188 184 77 108 
93 3 181 95 5 
94 7 82 9 120 143 33 171 137 
95 4 85 181 121 5 
96 3 128 87 22 
97 6 19 75 165 39 175 105 
98 6 41 134 123 170 169 29 
99 7 57 36 92 131 21 164 127 
100 3 22 114 153 
101 6 31 47 186 140 6 26 
102 7 63 122 160 10 112 119 125 
103 4 191 188 108 21 
104 6 67 4 176 173 148 185 
105 7 70 50 39 16 75 32 147 
106 7 11 99 57 127 21 36 92 
107 6 118 97 19 75 165 105 
108 7 184 191 188 27 3 103 133 
109 7 195 117 150 177 178 90 24 
110 7 115 155 180 42 15 77 164 
111 7 78 153 168 193 13 22 128 
112 5 53 86 26 102 160 
113 6 74 161 71 37 170 4 
114 6 159 28 52 84 88 62 
115 7 180 110 77 3 133 139 27 
116 4 55 23 69 174 
117 7 195 109 150 178 177 7 187 
118 4 107 97 19 167 
119 7 43 157 26 102 8 53 86 
120 7 94 82 9 33 143 137 171 
121 6 85 5 181 95 39 147 
122 7 63 102 10 125 68 160 157 
123 7 134 29 192 98 41 196 18 
124 7 149 182 38 136 152 40 17 
125 7 68 10 157 80 122 63 8 
126 6 151 197 20 152 48 187 
127 7 36 15 164 155 131 180 99 
128 5 87 22 111 153 100 
129 7 58 172 18 73 12 192 65 
130 7 25 90 150 83 182 195 117 
131 7 27 92 77 164 36 180 184 
132 7 173 4 34 64 161 29 71 
133 7 3 139 77 27 184 108 115 
134 7 123 98 169 41 192 29 196 
135 5 177 178 146 179 7 
136 6 149 124 38 20 98 169 
137 6 120 143 9 33 171 82 
138 3 88 47 26 
139 7 133 3 77 115 184 108 27 
140 7 6 52 31 47 101 159 28 
141 5 183 166 171 143 9 
142 2 199 30 
143 7 9 94 120 171 82 33 183 
144 5 89 17 190 182 25 
145 7 40 17 2 189 194 66 190 
146 4 179 135 48 7 
147 7 5 32 121 70 181 16 39 
148 6 67 176 185 14 12 104 
149 7 124 182 38 40 136 152 17 
150 7 195 90 109 117 83 25 130 
151 6 126 197 20 152 45 48 
152 7 20 151 126 182 197 124 149 
153 6 111 100 158 54 78 22 
154 5 30 199 46 51 142 
155 7 15 110 180 164 115 36 127 
156 5 49 198 80 8 61 
157 7 125 80 8 43 10 49 119 
158 6 54 84 28 159 62 114 
159 7 28 114 84 52 62 140 158 
160 5 102 63 122 112 10 
161 6 132 34 170 4 173 64 
162 7 62 163 24 84 28 52 159 
163 7 24 162 62 83 90 52 150 
164 7 36 131 180 15 127 77 27 
165 4 175 19 97 75 
166 5 141 171 183 143 9 
167 3 56 50 16 
168 4 193 13 78 54 
169 7 44 66 189 2 134 38 196 
170 6 161 41 113 34 98 29 
171 7 143 9 166 183 141 120 94 
172 7 12 129 65 59 18 58 185 
173 7 132 64 34 4 161 29 185 
174 7 69 23 42 139 115 133 3 
175 3 165 97 19 
176 6 148 67 104 14 185 12 
177 6 109 117 135 178 195 7 
178 7 7 187 48 117 179 177 109 
179 5 48 7 187 178 146 
180 7 115 77 131 164 36 27 110 
181 6 85 121 95 5 93 147 
182 7 124 149 152 130 25 144 20 
183 6 141 171 166 9 143 94 
184 7 108 27 188 3 77 92 133 
185 6 67 65 148 64 12 173 
186 6 101 31 91 86 53 47 
187 7 7 48 178 179 117 126 197 
188 6 21 92 184 103 108 191 
189 7 2 40 44 66 38 145 169 
190 6 89 17 145 194 144 40 
191 5 108 103 184 188 21 
192 7 18 196 123 65 134 29 44 
193 4 168 13 78 54 
194 7 145 190 2 66 17 44 40 
195 7 109 150 117 90 177 83 24 
196 7 192 18 44 66 169 134 123 
197 6 126 151 20 152 45 48 
198 4 156 80 49 8 
199 3 142 30 154 
DEPOT_SECTION
   1
   -1
EOF
