NAME :  X-n336-kX-w33-c9.cctp
COMMENT : 	Adapted by Maziero, Usberti and Cavellucci from the Uchoa, Pecin, Pessoa, Poggi, Subramanian, and Vidal (2013)
TYPE :  CCTP
DIMENSION :    229
EDGE_WEIGHT_TYPE : 	EUC_2D	
CAPACITY : 	203
VERTICES_WITHIN_COVERAGE :  9
VERTICES_WITH_DEMAND : 	33
NODE_COORD_SECTION
1 0 0
2 365 689
3 146 180
4 792 5
5 658 510
6 461 270
7 299 531
8 812 228
9 643 90
10 615 630
11 258 42
12 616 299
13 475 957
14 425 473
15 406 64
16 656 369
17 202 467
18 318 21
19 579 587
20 458 354
21 575 871
22 47 512
23 568 742
24 128 436
25 546 806
26 197 696
27 615 300
28 852 563
29 772 803
30 678 342
31 916 176
32 390 949
33 113 782
34 226 736
35 584 572
36 134 554
37 912 173
38 827 233
39 851 677
40 598 322
41 627 472
42 94 442
43 688 274
44 977 176
45 597 461
46 931 23
47 170 640
48 873 487
49 797 95
50 451 816
51 260 107
52 332 45
53 685 613
54 728 372
55 619 484
56 482 512
57 278 599
58 643 10
59 302 521
60 593 382
61 438 686
62 637 885
63 152 776
64 546 999
65 288 665
66 232 131
67 563 66
68 602 547
69 464 377
70 502 727
71 691 574
72 535 4
73 974 242
74 810 617
75 580 226
76 615 656
77 346 526
78 319 35
79 602 946
80 224 146
81 48 527
82 413 661
83 756 147
84 381 139
85 421 100
86 493 72
87 573 541
88 668 884
89 380 646
90 457 991
91 511 272
92 960 171
93 150 61
94 721 754
95 389 853
96 700 137
97 422 111
98 727 12
99 203 178
100 548 744
101 610 239
102 396 478
103 509 773
104 754 887
105 740 770
106 291 583
107 74 690
108 8 248
109 877 132
110 379 284
111 574 881
112 509 440
113 644 554
114 325 696
115 782 490
116 502 280
117 440 691
118 806 649
119 552 728
120 26 841
121 463 459
122 526 344
123 268 49
124 156 39
125 303 960
126 85 110
127 760 825
128 725 93
129 253 53
130 342 592
131 705 344
132 35 318
133 462 46
134 660 595
135 954 238
136 679 664
137 223 692
138 783 211
139 258 807
140 901 617
141 634 276
142 711 6
143 379 611
144 494 796
145 804 306
146 366 672
147 390 64
148 421 896
149 33 185
150 780 36
151 583 683
152 999 222
153 991 56
154 687 500
155 381 463
156 52 296
157 188 834
158 373 15
159 379 73
160 365 875
161 281 949
162 222 763
163 487 965
164 767 889
165 584 689
166 52 118
167 626 630
168 528 291
169 61 262
170 67 613
171 528 819
172 776 606
173 619 771
174 740 183
175 487 874
176 857 247
177 376 774
178 168 409
179 543 56
180 846 172
181 548 157
182 153 638
183 619 306
184 31 683
185 681 520
186 445 533
187 117 505
188 265 809
189 791 3
190 305 771
191 697 637
192 599 555
193 595 439
194 217 775
195 585 895
196 710 275
197 22 136
198 668 648
199 318 490
200 763 274
201 686 796
202 870 128
203 59 581
204 292 22
205 285 15
206 159 409
207 556 616
208 370 988
209 436 374
210 143 772
211 897 75
212 621 485
213 707 297
214 541 76
215 244 104
216 367 241
217 812 318
218 731 882
219 701 119
220 170 285
221 377 59
222 823 859
223 760 716
224 809 837
225 269 109
226 112 726
227 454 247
228 873 167
229 205 18
DEMAND_SECTION
2 48
3 63
4 27
5 66
6 86
7 14
8 26
9 47
10 66
11 85
12 22
13 30
14 89
15 51
16 11
17 82
18 92
19 85
20 51
21 90
22 6
23 68
24 73
25 94
26 7
27 12
28 70
29 97
30 41
31 30
32 8
33 11
34 25
COVERAGE_SECTION
2 8 146 114 89 82 61 117 143 65 
3 8 99 80 126 66 220 149 166 169 
4 9 189 150 98 142 49 128 211 46 83 
5 9 185 154 212 113 55 41 68 71 192 
6 9 227 116 91 168 110 20 122 216 69 
7 9 59 199 77 106 57 130 155 102 143 
8 8 38 138 176 180 200 145 174 228 
9 9 219 96 58 128 67 214 179 142 98 
10 9 167 76 19 198 134 207 151 35 165 
11 9 123 129 205 204 229 78 18 215 51 
12 9 27 183 40 141 101 30 43 16 75 
13 9 163 90 148 64 175 32 208 111 195 
14 8 102 121 155 186 56 112 77 209 
15 9 147 159 221 85 97 133 158 52 84 
16 9 30 131 60 54 183 40 27 12 213 
17 8 178 206 24 187 36 42 59 7 
18 9 78 204 52 205 158 123 11 221 129 
19 9 35 207 192 68 87 10 167 113 76 
20 9 69 209 122 6 116 168 91 112 121 
21 8 111 195 62 171 25 79 175 88 
22 8 81 187 203 42 36 170 24 206 
23 8 100 119 165 173 151 103 25 70 
24 8 42 206 178 187 17 22 36 81 
25 9 171 103 144 100 23 21 119 111 173 
26 9 137 34 47 162 182 194 226 63 210 
27 9 12 183 40 141 101 30 43 16 75 
28 6 74 140 48 172 118 115 
29 8 127 105 224 94 222 104 164 201 
30 9 131 16 213 54 43 183 196 12 27 
31 9 37 92 228 109 44 202 180 135 73 
32 9 208 148 160 90 13 125 95 163 161 
33 6 210 63 226 157 107 194 
34 9 162 194 137 26 139 188 63 190 210 
35 9 19 192 68 87 207 113 10 167 134 
36 8 187 203 182 170 81 47 22 17 
37 9 31 228 92 109 202 44 180 135 176 
38 8 8 176 138 180 200 145 228 217 
39 6 118 74 140 223 172 28 
40 9 183 27 12 141 60 16 122 168 30 
41 8 55 212 45 193 5 154 185 68 
42 8 24 187 206 178 22 81 17 36 
43 6 196 213 141 30 131 200 
44 9 92 152 31 37 73 135 228 109 202 
45 8 193 41 55 212 5 60 87 68 
46 9 211 153 202 109 4 189 37 92 49 
47 8 182 26 137 36 226 170 107 34 
48 2 28 115 
49 9 150 83 128 202 109 4 180 189 219 
50 8 144 175 95 103 171 148 177 25 
51 8 225 215 66 80 129 123 11 99 
52 9 78 18 204 221 158 159 205 147 123 
53 9 191 134 71 198 136 167 10 113 76 
54 6 131 30 16 213 196 217 
55 8 212 41 45 5 193 68 154 185 
56 6 186 121 14 112 102 87 
57 9 106 130 65 7 59 77 143 114 137 
58 9 142 9 98 67 72 179 128 214 219 
59 9 7 199 77 106 130 57 155 102 17 
60 9 193 40 16 122 45 183 27 12 30 
61 7 117 82 89 2 146 70 143 
62 7 88 195 111 21 79 218 201 
63 8 210 33 226 194 157 162 34 26 
64 7 163 79 13 90 195 111 21 
65 9 114 57 137 146 2 106 130 34 89 
66 8 80 215 51 225 99 129 123 11 
67 8 179 214 72 86 9 181 58 133 
68 8 192 87 35 113 19 55 212 5 
69 9 20 209 122 112 121 14 116 6 168 
70 8 103 100 119 23 144 117 61 25 
71 9 134 53 113 185 191 5 154 198 167 
72 8 179 67 214 86 133 58 9 15 
73 6 135 152 44 92 31 37 
74 7 118 172 28 39 140 223 191 
75 9 101 141 181 12 27 91 168 183 116 
76 7 10 167 151 165 198 136 207 
77 8 59 199 7 130 102 155 106 143 
78 9 18 52 204 205 123 158 11 221 129 
79 6 195 62 111 64 21 88 
80 8 66 99 215 51 225 3 129 123 
81 8 22 203 187 170 36 42 24 182 
82 6 61 89 117 146 2 143 
83 8 174 96 128 219 49 138 180 8 
84 8 97 85 159 147 15 221 216 52 
85 9 97 15 147 159 84 221 133 86 158 
86 8 133 214 179 67 85 72 97 15 
87 7 68 192 35 19 113 55 212 
88 7 62 218 195 104 201 79 21 
89 7 146 143 82 2 130 61 114 
90 9 13 163 32 208 64 148 175 160 79 
91 9 116 168 6 227 122 75 20 40 101 
92 9 44 31 37 152 135 73 228 109 202 
93 8 124 229 126 129 215 66 11 80 
94 5 105 223 201 29 127 
95 7 160 148 50 177 32 175 190 
96 8 219 128 83 174 9 49 138 98 
97 9 85 15 84 147 159 221 133 86 158 
98 9 142 150 4 189 128 58 49 219 9 
99 7 80 66 3 215 51 225 220 
100 9 119 23 70 103 25 165 151 144 173 
101 9 75 141 12 27 183 40 43 168 181 
102 9 155 14 77 121 186 199 56 59 7 
103 8 144 70 100 25 171 119 23 50 
104 7 164 218 127 222 224 29 88 
105 6 94 29 223 127 201 224 
106 9 57 130 7 59 77 65 143 199 89 
107 8 184 226 170 182 33 210 47 203 
108 7 169 156 149 132 197 166 3 
109 9 202 228 180 37 31 211 49 92 44 
110 3 216 6 227 
111 8 21 195 62 79 171 25 175 88 
112 7 121 56 69 193 14 45 122 
113 9 68 134 192 5 185 71 35 154 53 
114 9 2 65 146 89 190 177 82 143 137 
115 4 48 154 28 185 
116 9 91 168 6 227 122 20 75 69 40 
117 6 61 82 70 2 89 146 
118 7 74 172 39 223 28 140 191 
119 8 100 23 70 165 151 103 25 173 
120 1 33 
121 8 14 112 56 102 186 69 155 209 
122 9 168 116 20 69 91 40 60 209 112 
123 9 11 129 204 205 78 18 51 215 225 
124 8 93 229 129 126 11 215 123 66 
125 6 161 208 32 160 148 95 
126 5 166 197 93 149 3 
127 9 29 224 105 104 164 218 222 201 94 
128 9 219 96 83 49 150 98 9 142 174 
129 9 11 123 204 205 215 51 225 229 78 
130 8 143 106 57 77 89 7 59 146 
131 7 30 54 213 16 196 43 200 
132 7 156 169 108 149 42 220 24 
133 8 86 15 85 147 97 179 72 214 
134 9 53 71 113 167 198 191 10 136 192 
135 6 73 152 44 92 31 37 
136 6 198 191 53 167 76 10 
137 9 26 34 65 162 47 194 182 114 57 
138 7 8 38 174 200 83 180 176 
139 6 188 194 162 190 157 34 
140 3 28 39 74 
141 9 12 27 183 101 43 40 75 196 213 
142 9 98 58 150 189 4 128 9 219 49 
143 5 89 130 82 146 2 
144 8 103 171 50 25 70 100 175 119 
145 7 217 200 38 8 176 138 213 
146 8 2 89 82 114 143 61 117 65 
147 9 159 221 15 85 158 97 52 133 84 
148 9 95 160 32 175 13 50 163 90 208 
149 7 197 108 166 169 126 3 156 
150 9 4 189 98 49 142 128 83 219 211 
151 8 165 76 119 23 10 167 100 207 
152 6 73 135 44 92 31 37 
153 9 46 211 92 44 109 37 202 31 228 
154 9 185 5 41 212 113 55 71 115 68 
155 8 102 14 199 77 121 186 59 209 
156 6 132 169 108 149 220 3 
157 7 194 63 139 210 162 188 33 
158 9 221 52 147 18 78 159 15 204 205 
159 9 147 221 15 85 52 97 158 84 78 
160 7 95 148 32 177 50 125 161 
161 5 125 208 32 160 188 
162 9 194 34 139 188 63 137 26 157 210 
163 9 13 90 64 175 148 32 79 208 195 
164 6 104 218 127 222 224 29 
165 8 151 76 119 23 100 10 167 207 
166 5 126 197 149 3 93 
167 9 10 76 198 134 53 136 19 151 191 
168 9 91 116 122 6 40 75 227 27 12 
169 7 156 108 132 149 220 3 197 
170 8 203 107 184 81 36 182 22 47 
171 9 25 144 103 175 21 50 111 100 23 
172 8 74 118 191 28 53 71 39 223 
173 6 23 201 100 119 25 165 
174 7 83 138 96 219 8 128 200 
175 9 50 171 148 144 13 111 21 25 163 
176 8 38 8 180 145 138 228 217 31 
177 8 190 95 2 50 114 146 160 117 
178 5 206 24 17 42 187 
179 8 214 67 86 72 133 181 9 58 
180 9 228 202 109 38 8 37 31 138 176 
181 8 75 214 67 86 179 101 9 91 
182 8 47 26 36 137 170 107 226 203 
183 9 27 12 40 141 101 30 16 43 60 
184 8 107 170 226 203 33 182 210 47 
185 9 154 5 113 71 212 41 55 134 68 
186 5 56 14 102 121 155 
187 9 36 42 22 24 81 17 203 206 178 
188 6 139 190 194 162 157 34 
189 9 4 150 98 142 49 128 211 46 219 
190 8 188 139 177 114 162 34 194 2 
191 7 53 198 136 134 71 167 10 
192 9 68 35 87 19 113 134 212 5 55 
193 8 45 41 55 212 60 112 16 5 
194 8 162 34 139 188 63 157 210 26 
195 8 111 21 62 79 88 171 25 175 
196 6 43 213 200 131 30 141 
197 5 166 149 126 108 3 
198 7 136 191 53 167 76 134 10 
199 9 59 7 77 155 102 106 130 14 57 
200 6 145 196 213 138 217 8 
201 7 94 105 173 127 29 88 218 
202 9 109 228 180 211 37 31 49 92 38 
203 8 170 81 22 36 187 184 107 182 
204 9 205 18 78 123 11 52 129 158 229 
205 9 204 18 11 123 78 129 52 229 158 
206 5 178 24 17 42 187 
207 8 19 35 10 76 167 151 192 87 
208 9 32 125 90 161 148 13 160 163 95 
209 7 69 20 121 122 112 14 155 
210 8 63 33 226 194 157 162 34 26 
211 9 202 109 46 228 153 37 49 31 180 
212 8 55 41 45 5 193 68 154 185 
213 6 196 43 131 30 200 141 
214 8 179 67 86 72 181 133 9 58 
215 8 51 225 66 80 129 123 11 99 
216 4 110 227 6 84 
217 5 145 200 176 38 8 
218 8 104 164 88 127 29 224 62 222 
219 8 96 128 83 9 174 49 98 142 
220 2 3 169 
221 9 147 159 15 158 52 85 78 97 18 
222 5 224 164 127 104 29 
223 5 94 105 118 29 136 
224 6 222 29 127 164 104 218 
225 8 51 215 66 80 129 123 11 78 
226 8 107 210 33 63 26 184 182 47 
227 7 6 116 91 110 168 216 20 
228 9 180 109 37 202 31 38 176 8 92 
229 9 124 11 129 93 123 205 204 215 51 
DEPOT_SECTION
   1
   -1
EOF
