NAME :  X-n317-kX-w31-c7.cctp
COMMENT : 	Adapted by Maziero, Usberti and Cavellucci from the Uchoa, Pecin, Pessoa, Poggi, Subramanian, and Vidal (2013)
TYPE :  CCTP
DIMENSION :    182
EDGE_WEIGHT_TYPE : 	EUC_2D	
CAPACITY : 	6
VERTICES_WITHIN_COVERAGE :  7
VERTICES_WITH_DEMAND : 	31
NODE_COORD_SECTION
1 0 0
2 971 544
3 564 976
4 266 4
5 395 95
6 379 271
7 936 538
8 980 578
9 242 92
10 476 74
11 247 159
12 359 108
13 473 941
14 490 947
15 548 950
16 389 864
17 916 664
18 212 91
19 415 182
20 961 553
21 423 232
22 596 931
23 955 566
24 534 93
25 252 6
26 950 580
27 517 950
28 942 618
29 636 981
30 629 809
31 508 35
32 108 130
33 208 183
34 991 680
35 931 581
36 327 128
37 267 1
38 404 925
39 985 594
40 238 20
41 628 919
42 353 241
43 753 728
44 382 125
45 489 23
46 277 137
47 593 171
48 411 87
49 207 85
50 906 631
51 445 68
52 530 11
53 353 851
54 593 896
55 359 894
56 548 998
57 52 69
58 507 145
59 451 162
60 646 996
61 532 906
62 220 126
63 482 212
64 907 711
65 222 137
66 371 256
67 440 179
68 915 669
69 468 98
70 247 6
71 260 110
72 902 679
73 587 988
74 368 419
75 967 685
76 559 968
77 984 540
78 380 89
79 420 204
80 386 78
81 497 961
82 542 965
83 606 959
84 575 99
85 330 101
86 257 22
87 600 994
88 951 536
89 534 896
90 438 917
91 385 883
92 233 239
93 481 945
94 602 752
95 592 151
96 587 946
97 728 991
98 242 136
99 292 9
100 494 918
101 2 149
102 24 105
103 933 577
104 651 947
105 628 824
106 633 864
107 565 991
108 603 996
109 393 81
110 553 985
111 652 868
112 472 900
113 590 878
114 551 951
115 480 48
116 384 185
117 567 966
118 537 964
119 929 577
120 496 953
121 238 63
122 245 222
123 512 13
124 994 635
125 697 87
126 989 535
127 462 954
128 355 240
129 196 66
130 245 95
131 407 109
132 999 601
133 578 969
134 548 784
135 519 21
136 483 19
137 420 197
138 347 96
139 967 530
140 271 20
141 147 97
142 394 190
143 962 584
144 934 530
145 611 926
146 966 530
147 378 189
148 265 136
149 303 315
150 562 977
151 862 649
152 379 190
153 935 565
154 465 237
155 214 179
156 479 913
157 903 530
158 379 102
159 268 8
160 922 511
161 374 90
162 557 25
163 957 581
164 134 103
165 554 116
166 392 111
167 929 514
168 521 905
169 394 77
170 339 130
171 938 635
172 970 710
173 528 302
174 353 113
175 611 991
176 235 12
177 521 76
178 591 913
179 589 956
180 568 972
181 983 621
182 418 817
DEMAND_SECTION
2 1
3 1
4 1
5 1
6 1
7 1
8 1
9 1
10 1
11 1
12 1
13 1
14 1
15 1
16 1
17 1
18 1
19 1
20 1
21 1
22 1
23 1
24 1
25 1
26 1
27 1
28 1
29 1
30 1
31 1
32 1
COVERAGE_SECTION
2 7 20 77 139 146 126 88 23 
3 7 150 180 76 117 110 107 133 
4 7 37 159 25 140 70 86 99 
5 7 109 78 166 158 48 131 169 
6 4 66 128 42 21 
7 5 144 88 167 153 20 
8 7 39 143 163 23 26 132 20 
9 4 130 71 121 18 
10 5 69 115 51 177 31 
11 6 98 148 65 46 155 62 
12 7 174 138 158 161 78 44 85 
13 7 93 127 14 120 156 81 100 
14 7 120 93 81 13 27 100 127 
15 4 114 82 118 76 
16 7 91 53 55 182 38 90 112 
17 7 68 72 50 171 64 28 75 
18 6 49 9 129 130 62 121 
19 7 137 142 79 67 116 152 147 
20 7 2 23 88 139 146 77 163 
21 6 79 137 154 19 142 67 
22 6 145 96 178 179 83 41 
23 7 20 26 163 143 153 103 2 
24 6 177 165 84 58 10 31 
25 7 70 4 37 159 86 176 40 
26 7 163 143 23 103 35 119 153 
27 4 120 81 118 14 
28 7 171 50 26 35 143 163 181 
29 7 60 175 108 83 104 87 73 
30 5 105 106 94 111 113 
31 7 135 45 123 136 115 52 177 
32 5 164 141 57 102 101 
33 7 155 11 65 122 62 98 92 
34 7 75 172 124 181 171 17 68 
35 7 103 119 153 26 163 23 143 
36 5 170 85 174 12 138 
37 7 4 159 25 140 70 86 99 
38 7 90 91 55 16 127 13 112 
39 7 132 8 143 181 163 26 23 
40 4 176 70 86 25 
41 6 145 22 104 178 54 83 
42 3 128 66 6 
43 3 151 30 94 
44 5 166 158 12 131 174 
45 6 136 31 123 115 135 52 
46 4 148 71 98 11 
47 5 95 165 84 58 24 
48 4 5 109 169 131 
49 6 18 129 9 121 130 62 
50 6 171 17 28 68 72 151 
51 1 10 
52 7 135 123 162 31 45 136 115 
53 7 16 55 91 182 38 90 112 
54 5 178 113 22 145 41 
55 7 91 16 53 38 90 182 112 
56 4 110 107 150 3 
57 5 102 32 164 101 141 
58 3 165 24 59 
59 2 67 19 
60 7 29 175 108 87 104 83 73 
61 6 89 168 100 27 15 114 
62 7 65 98 18 9 130 11 49 
63 4 154 67 59 21 
64 7 72 68 17 172 75 151 50 
65 7 62 98 11 148 155 18 71 
66 3 6 42 128 
67 4 59 19 137 79 
68 7 17 72 50 171 64 75 151 
69 3 10 51 115 
70 7 25 176 40 4 86 37 159 
71 3 130 9 148 
72 7 68 17 64 50 151 171 75 
73 7 87 108 133 107 175 180 3 
74 4 149 6 66 42 
75 7 34 172 68 17 124 171 64 
76 5 117 3 150 180 82 
77 5 126 2 139 146 20 
78 6 161 80 158 109 5 169 
79 6 137 19 21 142 67 116 
80 5 109 169 78 161 5 
81 5 120 14 27 93 13 
82 3 118 15 76 
83 6 179 96 22 133 175 145 
84 7 165 24 95 177 47 162 58 
85 4 138 174 36 12 
86 7 140 25 159 40 70 4 37 
87 7 108 175 73 133 107 83 29 
88 6 7 146 139 144 20 2 
89 5 61 168 100 15 27 
90 7 38 112 156 13 127 93 100 
91 7 16 55 53 38 90 182 112 
92 4 122 33 155 11 
93 7 13 14 120 127 81 100 156 
94 4 30 134 105 106 
95 5 47 165 84 24 58 
96 6 179 22 83 133 117 145 
97 6 60 104 29 175 41 108 
98 6 65 148 11 62 71 46 
99 4 140 159 4 37 
100 6 156 112 14 93 168 13 
101 5 102 57 32 164 141 
102 5 57 101 32 164 141 
103 7 35 119 153 26 163 23 143 
104 7 41 29 145 83 60 22 175 
105 5 30 106 111 113 94 
106 5 111 105 113 54 30 
107 5 110 150 3 56 180 
108 7 87 175 73 29 83 133 107 
109 5 169 80 5 78 48 
110 4 150 107 3 56 
111 5 106 105 41 30 113 
112 6 156 100 90 13 93 168 
113 5 54 178 106 145 22 
114 4 15 82 76 118 
115 6 10 45 136 31 51 123 
116 4 147 152 142 19 
117 5 180 76 3 133 150 
118 2 82 15 
119 7 35 103 153 26 23 163 143 
120 7 14 81 93 27 13 127 100 
121 1 9 
122 4 92 155 33 11 
123 7 135 52 31 45 136 115 162 
124 7 181 132 39 34 28 171 75 
125 7 84 95 47 165 162 24 177 
126 4 77 2 139 146 
127 7 13 93 14 120 81 90 156 
128 3 42 66 6 
129 3 49 18 121 
130 4 9 71 18 121 
131 3 166 5 48 
132 7 39 181 8 124 143 163 26 
133 6 180 117 3 179 150 76 
134 4 94 30 105 113 
135 7 123 52 31 45 136 162 115 
136 6 45 115 31 123 135 52 
137 7 79 19 67 142 21 116 152 
138 3 12 85 174 
139 5 146 2 88 77 126 
140 6 159 86 4 37 25 99 
141 5 164 32 129 49 18 
142 5 116 152 147 19 137 
143 7 163 26 8 23 39 103 20 
144 5 7 167 88 160 157 
145 7 22 41 178 96 83 54 179 
146 5 139 2 88 77 20 
147 4 152 116 142 19 
148 4 46 98 71 11 
149 3 6 42 66 
150 6 3 180 76 110 117 107 
151 4 50 72 17 68 
152 4 147 116 142 19 
153 7 103 119 35 23 26 7 163 
154 5 63 21 79 137 67 
155 7 33 11 65 98 62 122 92 
156 6 112 100 13 93 14 90 
157 5 160 144 167 7 153 
158 7 78 161 166 5 12 44 80 
159 7 4 37 140 25 86 70 99 
160 4 167 144 157 7 
161 6 78 158 80 109 5 12 
162 7 52 135 123 31 177 45 24 
163 7 143 26 23 8 103 35 153 
164 5 141 32 129 49 18 
165 6 84 24 95 177 58 47 
166 5 131 5 158 44 78 
167 4 160 144 7 88 
168 6 61 89 100 156 27 112 
169 4 109 80 5 78 
170 5 36 174 12 85 138 
171 7 28 50 17 68 181 35 26 
172 7 75 34 64 68 17 72 124 
173 5 154 63 21 47 79 
174 6 12 138 170 85 158 36 
175 7 108 87 73 29 83 60 133 
176 4 40 70 25 86 
177 7 24 31 10 115 165 135 69 
178 6 54 22 145 96 113 41 
179 6 96 83 133 117 22 180 
180 7 3 117 150 76 133 107 110 
181 7 124 132 39 28 8 143 171 
182 7 16 53 91 55 112 90 38 
DEPOT_SECTION
   1
   -1
EOF
