NAME :  X-n331-kX-w132-c9.cctp
COMMENT : 	Adapted by Maziero, Usberti and Cavellucci from the Uchoa, Pecin, Pessoa, Poggi, Subramanian, and Vidal (2013)
TYPE :  CCTP
DIMENSION :    330
EDGE_WEIGHT_TYPE : 	EUC_2D	
CAPACITY : 	23
VERTICES_WITHIN_COVERAGE :  9
VERTICES_WITH_DEMAND : 	132
NODE_COORD_SECTION
1 0 0
2 2 857
3 407 102
4 915 965
5 797 45
6 997 241
7 650 683
8 748 248
9 99 174
10 2 545
11 277 689
12 568 771
13 76 105
14 117 973
15 171 971
16 327 183
17 277 697
18 269 246
19 670 18
20 51 901
21 951 696
22 710 102
23 61 465
24 348 606
25 551 243
26 524 793
27 89 582
28 900 748
29 235 368
30 122 587
31 449 781
32 970 38
33 362 490
34 742 267
35 289 115
36 898 957
37 996 922
38 951 633
39 713 779
40 603 247
41 402 363
42 143 0
43 274 608
44 81 422
45 550 408
46 43 699
47 482 575
48 909 254
49 613 37
50 202 575
51 297 297
52 736 288
53 464 127
54 499 491
55 635 531
56 796 328
57 184 941
58 641 824
59 863 673
60 396 950
61 555 631
62 664 966
63 301 260
64 425 990
65 559 746
66 431 827
67 724 472
68 847 51
69 888 721
70 136 331
71 859 627
72 206 5
73 429 381
74 798 918
75 886 684
76 123 488
77 779 445
78 764 43
79 938 743
80 800 398
81 734 20
82 211 678
83 601 545
84 512 403
85 796 106
86 644 810
87 416 973
88 115 435
89 667 91
90 395 941
91 374 546
92 546 191
93 754 255
94 124 588
95 423 929
96 314 637
97 668 268
98 321 786
99 960 423
100 11 499
101 721 692
102 803 584
103 337 475
104 806 773
105 429 478
106 214 547
107 361 166
108 944 218
109 12 468
110 527 255
111 789 724
112 250 862
113 892 896
114 545 806
115 832 12
116 628 495
117 194 884
118 395 309
119 655 39
120 558 175
121 247 947
122 36 394
123 877 451
124 599 724
125 83 489
126 754 703
127 65 35
128 889 230
129 938 307
130 662 394
131 248 220
132 642 549
133 747 86
134 201 643
135 400 574
136 653 798
137 653 904
138 643 138
139 951 307
140 793 865
141 500 726
142 585 586
143 285 769
144 511 898
145 336 912
146 454 207
147 239 951
148 335 815
149 911 708
150 2 239
151 602 984
152 372 799
153 177 756
154 816 435
155 617 639
156 806 796
157 793 584
158 803 561
159 479 831
160 397 20
161 618 113
162 702 902
163 838 111
164 989 451
165 215 154
166 581 757
167 294 174
168 997 332
169 350 909
170 335 941
171 906 354
172 920 675
173 493 469
174 187 284
175 678 127
176 831 755
177 316 319
178 188 134
179 73 608
180 884 613
181 193 831
182 717 851
183 508 52
184 809 556
185 705 769
186 983 312
187 847 359
188 415 658
189 520 413
190 913 564
191 90 256
192 960 936
193 693 559
194 980 347
195 300 456
196 376 144
197 192 177
198 272 525
199 88 626
200 772 743
201 540 206
202 474 559
203 575 901
204 241 949
205 583 602
206 215 48
207 460 683
208 81 368
209 998 835
210 585 234
211 522 137
212 294 501
213 788 392
214 621 498
215 116 698
216 81 236
217 788 277
218 817 861
219 678 560
220 351 354
221 156 507
222 617 486
223 218 189
224 213 23
225 884 616
226 923 177
227 829 814
228 479 307
229 285 153
230 584 878
231 176 928
232 166 656
233 507 183
234 907 171
235 7 792
236 995 412
237 22 787
238 149 784
239 649 933
240 885 309
241 131 560
242 22 81
243 502 640
244 462 970
245 465 114
246 192 569
247 547 473
248 557 408
249 480 579
250 775 395
251 845 753
252 701 529
253 962 95
254 842 847
255 31 68
256 627 629
257 524 322
258 918 853
259 823 774
260 775 894
261 109 935
262 478 480
263 511 488
264 785 899
265 487 121
266 453 440
267 470 598
268 1 111
269 756 89
270 728 583
271 647 753
272 973 391
273 842 559
274 637 397
275 72 370
276 948 485
277 999 268
278 471 517
279 350 131
280 381 534
281 310 467
282 973 212
283 164 485
284 429 565
285 186 426
286 838 897
287 779 143
288 452 1
289 866 928
290 214 623
291 532 586
292 513 152
293 915 772
294 204 585
295 343 558
296 877 720
297 730 272
298 364 617
299 210 569
300 514 296
301 33 761
302 202 695
303 706 395
304 597 866
305 376 83
306 679 434
307 483 578
308 0 299
309 639 101
310 709 590
311 774 925
312 804 864
313 528 192
314 660 561
315 888 7
316 788 712
317 79 750
318 854 884
319 710 665
320 939 390
321 156 683
322 62 737
323 207 501
324 944 334
325 952 915
326 14 440
327 923 386
328 693 370
329 485 885
330 890 951
DEMAND_SECTION
2 1
3 1
4 1
5 1
6 1
7 1
8 1
9 1
10 1
11 1
12 1
13 1
14 1
15 1
16 1
17 1
18 1
19 1
20 1
21 1
22 1
23 1
24 1
25 1
26 1
27 1
28 1
29 1
30 1
31 1
32 1
33 1
34 1
35 1
36 1
37 1
38 1
39 1
40 1
41 1
42 1
43 1
44 1
45 1
46 1
47 1
48 1
49 1
50 1
51 1
52 1
53 1
54 1
55 1
56 1
57 1
58 1
59 1
60 1
61 1
62 1
63 1
64 1
65 1
66 1
67 1
68 1
69 1
70 1
71 1
72 1
73 1
74 1
75 1
76 1
77 1
78 1
79 1
80 1
81 1
82 1
83 1
84 1
85 1
86 1
87 1
88 1
89 1
90 1
91 1
92 1
93 1
94 1
95 1
96 1
97 1
98 1
99 1
100 1
101 1
102 1
103 1
104 1
105 1
106 1
107 1
108 1
109 1
110 1
111 1
112 1
113 1
114 1
115 1
116 1
117 1
118 1
119 1
120 1
121 1
122 1
123 1
124 1
125 1
126 1
127 1
128 1
129 1
130 1
131 1
132 1
133 1
COVERAGE_SECTION
2 8 235 20 237 301 261 317 322 14 
3 9 305 196 245 53 279 107 265 160 288 
4 9 36 330 192 289 325 113 37 318 286 
5 9 78 115 68 269 85 133 81 163 315 
6 9 277 282 108 186 139 48 129 168 226 
7 9 155 256 319 124 271 101 166 185 205 
8 9 93 34 297 52 217 97 56 287 328 
9 9 216 13 191 197 178 150 268 165 223 
10 9 100 109 27 179 125 23 326 199 30 
11 9 17 96 82 302 143 43 134 290 98 
12 9 166 65 114 26 124 271 141 86 136 
13 9 255 242 127 9 268 178 42 216 197 
14 9 261 15 57 231 20 117 147 204 121 
15 9 57 231 14 147 261 204 121 117 112 
16 9 167 107 229 279 196 35 63 18 131 
17 9 11 82 96 143 302 43 134 290 98 
18 9 131 63 51 167 223 16 177 174 229 
19 9 119 49 81 89 309 22 78 133 161 
20 8 2 261 14 235 237 231 15 57 
21 9 172 149 79 38 75 69 28 296 293 
22 9 133 175 89 269 309 138 78 287 119 
23 9 125 44 109 326 100 88 76 122 275 
24 9 298 96 295 135 91 43 280 188 284 
25 9 110 210 201 40 92 313 300 120 233 
26 9 114 12 65 159 166 141 31 66 329 
27 9 179 30 94 199 241 125 10 76 221 
28 9 293 69 296 79 149 251 75 176 21 
29 9 285 51 177 174 70 195 220 281 18 
30 9 94 241 27 199 179 246 50 232 294 
31 9 66 159 141 26 152 114 207 329 65 
32 9 253 315 68 115 226 234 163 5 282 
33 9 103 280 91 281 105 212 195 295 135 
34 9 297 93 8 52 217 97 56 328 287 
35 9 229 167 279 16 165 107 196 305 206 
36 9 330 4 289 113 192 325 286 318 37 
37 9 192 325 209 4 36 258 113 330 289 
38 9 172 21 225 180 190 75 149 71 59 
39 9 185 136 200 271 182 86 58 126 101 
40 9 210 25 97 201 110 92 120 313 300 
41 9 73 220 118 266 228 177 84 105 51 
42 9 72 224 127 206 13 255 178 242 165 
43 9 96 290 24 294 299 50 11 134 198 
44 9 88 23 122 275 208 125 326 76 109 
45 9 248 189 84 247 173 274 263 257 54 
46 9 322 317 301 215 199 237 179 235 321 
47 9 307 249 202 267 291 284 278 243 135 
48 9 128 108 129 240 139 282 226 234 324 
49 9 119 19 309 89 161 138 183 175 22 
50 9 294 299 246 106 290 134 241 323 43 
51 9 177 63 18 220 131 29 118 174 16 
52 9 297 34 93 8 217 97 56 328 303 
53 9 245 265 292 211 3 233 146 183 196 
54 9 263 173 262 278 247 266 105 202 189 
55 9 132 214 83 116 314 222 219 193 252 
56 9 217 187 213 80 250 52 34 93 297 
57 9 231 15 147 117 204 121 14 261 112 
58 9 86 136 304 271 230 137 182 185 39 
59 9 75 71 296 69 172 149 225 180 251 
60 9 90 87 95 64 169 170 244 145 329 
61 9 205 291 142 243 155 256 307 249 267 
62 9 239 137 151 162 203 311 230 304 182 
63 9 18 51 177 131 16 167 118 220 229 
64 9 87 244 60 90 95 170 169 145 329 
65 9 166 12 124 26 114 141 271 86 136 
66 9 159 31 152 329 148 26 95 144 169 
67 9 306 77 252 303 193 250 116 154 219 
68 9 115 5 315 163 85 78 269 133 287 
69 9 296 149 28 75 59 251 79 172 293 
70 9 208 174 275 191 29 44 88 285 216 
71 9 225 180 59 75 273 102 172 157 190 
72 9 224 206 42 178 35 127 165 13 229 
73 9 41 266 118 220 84 228 189 105 173 
74 9 264 311 260 286 140 312 218 318 289 
75 9 59 149 172 69 296 71 21 28 225 
76 9 221 125 283 88 23 241 44 323 285 
77 9 154 250 80 213 67 303 123 306 187 
78 9 5 81 133 269 85 115 22 68 19 
79 9 293 28 149 21 69 296 172 75 251 
80 9 213 250 154 77 187 56 123 303 67 
81 9 78 19 133 5 269 119 22 89 115 
82 9 302 134 232 290 321 11 17 153 294 
83 9 55 132 142 214 116 205 222 314 219 
84 9 189 45 248 173 266 247 257 262 263 
85 9 287 163 269 133 5 78 68 22 115 
86 9 58 136 271 185 304 39 166 182 12 
87 9 64 60 90 95 244 170 169 145 329 
88 9 44 76 23 125 283 285 208 275 221 
89 9 309 175 22 119 138 161 19 49 133 
90 9 60 95 87 169 64 170 145 244 329 
91 9 280 295 135 33 284 24 298 103 105 
92 9 201 313 120 233 292 25 210 211 110 
93 9 8 34 297 52 217 56 97 287 328 
94 9 30 241 27 199 179 246 50 232 294 
95 9 90 60 87 244 64 169 329 145 170 
96 9 24 43 298 11 17 295 290 188 135 
97 9 297 40 52 34 8 93 210 328 25 
98 9 148 143 152 17 112 11 66 169 145 
99 9 272 236 320 164 327 276 194 123 171 
100 9 109 10 326 23 125 44 122 76 27 
101 9 319 126 316 7 200 111 185 39 271 
102 9 157 158 184 273 71 270 180 225 310 
103 9 281 33 195 212 280 91 198 295 105 
104 9 259 156 176 251 200 227 111 316 254 
105 9 266 262 278 173 33 54 280 263 91 
106 9 299 50 246 294 323 198 221 290 283 
107 9 196 279 16 167 229 3 305 35 146 
108 9 282 226 48 128 6 234 277 129 139 
109 9 326 100 23 125 10 122 44 88 76 
110 9 25 300 201 210 313 92 257 228 233 
111 9 316 200 126 104 176 259 251 156 101 
112 9 117 181 121 204 147 148 143 145 231 
113 9 318 289 258 286 330 36 325 254 4 
114 9 26 12 166 65 159 304 230 141 58 
115 9 68 5 315 78 81 163 85 269 133 
116 9 214 222 55 132 83 314 306 252 219 
117 9 231 181 57 112 204 147 121 15 261 
118 9 41 220 73 177 228 51 63 146 300 
119 9 19 49 89 309 81 161 22 175 138 
120 9 92 313 201 292 211 233 210 25 40 
121 9 204 147 57 231 15 117 112 170 145 
122 9 275 326 208 44 23 109 88 308 125 
123 9 154 276 327 320 99 80 187 77 171 
124 9 166 65 12 271 7 155 136 86 114 
125 9 23 76 88 44 100 109 221 283 326 
126 9 101 316 111 200 319 185 39 104 176 
127 9 255 242 13 42 268 9 72 224 206 
128 9 48 108 234 226 240 282 129 139 6 
129 9 139 324 186 240 171 194 48 168 277 
130 9 274 328 306 303 67 222 248 116 214 
131 9 18 223 167 63 197 165 229 16 174 
132 9 55 314 219 83 193 214 116 252 142 
133 9 269 22 78 85 5 287 81 89 175 
134 9 290 82 232 302 294 321 50 246 299 
135 9 284 91 280 298 295 24 267 202 249 
136 9 86 58 271 185 39 166 182 304 12 
137 9 239 162 62 304 230 203 58 182 86 
138 9 161 175 309 89 22 120 119 49 92 
139 9 129 324 186 194 168 277 171 240 48 
140 9 312 218 260 264 254 74 286 227 311 
141 9 207 65 26 31 12 243 166 114 124 
142 9 205 83 291 61 256 155 132 55 314 
143 9 98 148 17 11 152 112 153 181 302 
144 9 329 203 159 230 244 304 95 114 26 
145 9 169 170 90 60 95 121 148 112 87 
146 9 233 313 53 292 201 110 265 92 245 
147 9 204 121 57 231 15 117 112 170 145 
148 9 98 152 143 169 66 112 145 31 170 
149 9 69 172 75 296 28 21 79 59 293 
150 9 308 216 191 9 268 275 208 13 122 
151 9 62 239 203 137 230 304 144 162 244 
152 9 148 98 66 31 143 159 169 145 112 
153 8 238 302 321 181 215 82 317 232 
154 9 77 80 213 250 123 187 67 56 303 
155 9 256 205 7 142 61 124 314 132 83 
156 9 104 259 227 176 251 254 200 218 312 
157 9 102 158 184 273 270 71 310 180 225 
158 9 184 102 157 273 270 71 180 225 310 
159 9 66 329 31 26 114 144 12 141 152 
160 9 288 305 3 183 245 279 53 196 265 
161 9 309 138 89 175 49 119 120 22 211 
162 9 137 182 239 260 62 311 264 74 140 
163 9 85 68 287 5 269 234 133 115 78 
164 9 236 99 276 272 320 327 194 123 168 
165 9 197 178 223 229 131 167 35 206 18 
166 9 12 65 124 114 271 26 86 136 141 
167 9 229 16 35 131 107 279 18 223 165 
168 9 194 186 139 324 129 272 277 236 320 
169 9 145 170 90 60 95 87 148 64 112 
170 9 145 169 90 60 87 121 95 204 147 
171 9 327 324 320 240 129 187 139 194 272 
172 9 149 75 21 38 69 59 296 225 79 
173 9 262 54 263 266 278 247 189 105 84 
174 9 70 131 18 29 223 191 197 51 63 
175 9 138 89 22 309 161 133 269 119 287 
176 9 251 259 104 156 111 296 227 200 316 
177 9 51 220 63 118 18 29 41 131 73 
178 9 165 197 223 206 9 229 35 131 167 
179 9 199 27 30 94 241 10 46 215 232 
180 9 225 71 190 59 273 38 75 172 102 
181 8 117 238 112 153 231 57 143 204 
182 9 162 39 260 140 58 136 137 185 264 
183 9 265 245 288 211 53 292 49 3 160 
184 9 158 102 157 273 270 71 180 225 190 
185 9 39 136 271 200 86 101 126 182 58 
186 9 168 139 194 129 324 277 6 272 171 
187 9 171 56 80 240 213 250 327 154 123 
188 9 207 298 267 24 135 243 284 249 96 
189 9 84 45 248 173 247 266 263 262 54 
190 9 180 225 273 38 71 276 184 158 172 
191 9 216 9 70 150 308 174 208 275 197 
192 9 325 37 4 36 330 113 258 289 209 
193 9 219 252 314 310 270 132 55 116 67 
194 9 168 186 324 272 139 129 320 236 327 
195 9 281 103 212 33 198 323 29 295 280 
196 9 107 279 3 305 16 167 53 229 35 
197 9 223 165 178 131 9 229 167 18 174 
198 9 212 106 281 323 195 299 295 103 43 
199 9 179 27 30 94 215 241 232 46 321 
200 9 111 316 126 104 176 259 156 39 101 
201 9 92 313 120 25 233 110 210 292 211 
202 9 47 249 307 267 278 284 291 54 135 
203 9 230 304 144 137 239 151 329 114 58 
204 9 147 121 57 231 15 117 112 170 145 
205 9 142 61 155 256 291 83 132 314 55 
206 9 224 72 42 178 35 165 229 197 223 
207 9 188 141 243 267 31 249 307 61 47 
208 9 275 122 44 70 88 326 23 308 191 
209 9 258 37 325 293 192 79 113 28 21 
210 9 40 25 201 92 110 120 313 97 233 
211 9 292 265 233 120 313 53 92 245 201 
212 9 198 281 195 103 33 295 323 91 106 
213 9 80 250 154 77 56 187 303 328 67 
214 9 116 222 55 83 132 314 247 219 252 
215 8 321 317 232 322 46 199 153 302 
216 9 191 9 150 308 70 174 197 13 208 
217 9 93 34 8 56 52 297 187 240 128 
218 9 312 140 254 286 318 227 264 260 74 
219 9 193 314 132 252 310 55 270 83 116 
220 9 177 41 118 51 73 63 195 29 281 
221 9 283 76 323 241 106 246 125 50 299 
222 9 214 116 55 83 132 247 306 314 274 
223 9 197 165 131 178 18 229 167 174 35 
224 9 72 206 42 178 35 165 127 229 197 
225 9 180 71 190 59 75 38 172 273 102 
226 9 234 108 282 128 48 253 6 163 277 
227 9 156 254 259 104 218 312 176 140 251 
228 9 300 257 110 118 73 41 25 84 146 
229 9 167 35 16 279 165 223 107 131 196 
230 9 304 203 137 144 58 114 239 86 329 
231 9 57 15 117 147 261 204 121 14 181 
232 9 321 134 82 302 290 215 94 294 30 
233 9 313 292 92 201 211 120 146 265 53 
234 9 226 108 128 282 48 163 253 6 85 
235 8 237 301 2 322 317 46 20 238 
236 9 272 99 164 320 194 327 168 276 324 
237 8 235 301 322 317 2 46 20 238 
238 8 153 181 317 215 322 321 302 117 
239 9 137 62 162 151 203 230 304 182 58 
240 9 171 129 48 187 324 139 128 327 56 
241 9 30 94 27 221 246 76 50 179 294 
242 9 255 268 13 127 9 42 150 216 178 
243 9 267 61 207 291 249 307 47 141 202 
244 9 64 87 95 60 90 144 329 169 170 
245 9 53 265 3 211 292 183 233 146 196 
246 9 50 299 294 106 290 241 323 94 30 
247 9 263 54 173 45 189 248 262 222 84 
248 9 45 189 84 247 274 173 257 263 222 
249 9 307 47 202 267 291 284 278 243 135 
250 9 213 80 77 154 303 56 187 328 67 
251 9 176 259 104 296 69 28 156 111 227 
252 9 193 219 314 270 67 132 310 55 116 
253 9 32 226 234 315 282 68 108 163 6 
254 9 218 227 318 312 286 140 156 113 259 
255 9 242 127 268 13 9 42 178 150 216 
256 9 155 205 7 142 61 314 132 219 83 
257 9 300 228 110 84 25 45 189 248 210 
258 9 113 318 325 254 293 209 286 289 192 
259 9 104 176 156 251 227 111 200 316 254 
260 9 264 311 74 140 312 218 286 182 162 
261 9 14 20 231 15 57 117 147 2 204 
262 9 173 54 263 278 266 105 247 189 202 
263 9 54 173 262 247 278 266 189 202 105 
264 9 260 74 311 140 312 218 286 318 254 
265 9 245 53 211 292 233 183 3 313 120 
266 9 105 262 173 73 54 84 189 263 278 
267 9 249 307 47 202 243 284 291 135 188 
268 9 242 255 13 127 9 150 216 191 42 
269 9 133 85 78 22 287 5 81 163 175 
270 9 310 193 219 252 157 314 102 158 319 
271 9 136 124 86 185 166 7 39 58 12 
272 9 236 320 99 194 327 164 168 324 171 
273 9 184 158 102 157 180 71 190 225 123 
274 9 130 306 328 303 248 45 222 116 214 
275 9 208 122 44 70 88 326 23 308 109 
276 9 164 99 123 190 236 320 272 327 273 
277 9 6 186 139 282 168 129 108 194 324 
278 9 54 262 202 263 173 105 47 307 249 
279 9 196 107 305 16 35 3 229 167 53 
280 9 91 135 295 33 284 103 105 24 298 
281 9 195 103 212 33 198 295 280 91 323 
282 9 108 6 226 277 48 234 128 139 186 
283 9 221 76 323 285 88 106 125 241 246 
284 9 135 202 249 267 47 307 280 91 278 
285 9 283 88 29 323 221 76 44 70 195 
286 9 318 218 289 74 312 254 264 113 140 
287 9 85 269 133 163 22 5 78 175 8 
288 9 160 183 3 305 245 265 53 211 196 
289 9 330 113 286 36 318 4 74 218 254 
290 9 134 294 50 299 82 232 246 43 302 
291 9 307 47 61 249 142 205 243 267 202 
292 9 211 233 265 313 92 120 53 201 245 
293 9 28 79 69 149 296 251 258 21 176 
294 9 50 299 246 106 290 134 43 241 94 
295 9 91 280 24 135 298 33 212 198 103 
296 9 69 28 149 75 251 59 176 172 293 
297 9 34 52 93 8 217 97 56 328 303 
298 9 24 96 135 295 188 91 284 280 43 
299 9 50 294 246 106 290 323 43 134 198 
300 9 257 228 110 25 201 210 40 313 84 
301 8 237 322 235 317 46 2 215 238 
302 9 82 321 134 232 153 290 11 17 215 
303 9 328 130 306 250 274 67 213 77 80 
304 9 230 203 58 137 86 114 239 136 144 
305 9 3 279 196 160 107 35 245 53 16 
306 9 130 303 274 67 328 116 222 214 252 
307 9 47 249 202 267 291 284 278 243 135 
308 9 150 191 275 122 216 208 70 326 44 
309 9 161 89 138 175 119 49 22 19 133 
310 9 270 193 219 314 252 319 132 157 256 
311 9 74 264 260 140 312 286 162 218 318 
312 9 140 218 264 254 260 286 74 318 227 
313 9 92 201 233 120 292 211 25 110 210 
314 9 219 132 193 55 252 310 83 270 116 
315 9 115 68 32 5 163 253 78 85 81 
316 9 111 126 200 176 104 101 251 259 59 
317 8 322 301 46 215 237 238 235 153 
318 9 286 254 113 218 289 312 140 74 258 
319 9 101 126 7 310 270 256 316 155 111 
320 9 327 272 99 171 324 194 236 164 168 
321 9 232 215 302 82 134 153 290 199 94 
322 8 317 301 46 237 215 235 238 321 
323 9 283 106 221 299 198 246 50 285 294 
324 9 129 139 194 171 186 168 320 327 240 
325 9 192 37 4 113 36 258 330 289 209 
326 9 109 122 23 100 44 125 275 208 88 
327 9 320 171 272 99 324 194 236 123 129 
328 9 303 130 274 306 250 52 213 97 297 
329 9 144 159 95 66 244 203 114 230 26 
330 9 36 4 289 113 192 325 286 318 74 
DEPOT_SECTION
   1
   -1
EOF
