NAME :  X-n359-kX-w143-c11.cctp
COMMENT : 	Adapted by Maziero, Usberti and Cavellucci from the Uchoa, Pecin, Pessoa, Poggi, Subramanian, and Vidal (2013)
TYPE :  CCTP
DIMENSION :    346
EDGE_WEIGHT_TYPE : 	EUC_2D	
CAPACITY : 	68
VERTICES_WITHIN_COVERAGE :  11
VERTICES_WITH_DEMAND : 	143
NODE_COORD_SECTION
1 0 0
2 865 693
3 633 220
4 173 361
5 89 714
6 350 102
7 301 24
8 834 663
9 841 997
10 394 790
11 276 488
12 779 312
13 939 66
14 595 462
15 940 964
16 459 459
17 432 280
18 379 338
19 128 439
20 401 22
21 69 887
22 499 657
23 633 46
24 713 182
25 806 525
26 540 169
27 696 559
28 577 888
29 298 725
30 410 644
31 512 889
32 756 352
33 405 407
34 850 365
35 731 588
36 90 553
37 691 383
38 926 631
39 955 351
40 998 736
41 921 854
42 532 257
43 238 513
44 976 912
45 565 912
46 893 74
47 590 548
48 99 355
49 294 39
50 58 429
51 471 573
52 520 109
53 486 611
54 409 682
55 296 843
56 970 479
57 717 390
58 152 711
59 934 255
60 257 539
61 270 31
62 823 409
63 203 849
64 770 627
65 630 581
66 786 186
67 380 300
68 973 847
69 985 975
70 732 465
71 690 428
72 910 568
73 725 539
74 181 186
75 814 694
76 702 927
77 946 492
78 984 305
79 385 696
80 48 323
81 944 440
82 813 293
83 490 676
84 729 923
85 719 883
86 675 637
87 167 14
88 98 159
89 476 709
90 402 339
91 911 734
92 590 230
93 122 698
94 154 418
95 165 998
96 217 599
97 766 21
98 922 407
99 831 607
100 70 494
101 220 740
102 19 855
103 759 507
104 818 409
105 503 304
106 595 827
107 254 282
108 205 607
109 331 57
110 118 404
111 576 658
112 558 611
113 629 732
114 893 182
115 435 1000
116 279 715
117 20 953
118 548 774
119 496 813
120 349 474
121 335 732
122 540 305
123 878 245
124 827 211
125 104 976
126 656 920
127 648 585
128 350 517
129 62 979
130 508 277
131 334 759
132 635 743
133 649 927
134 39 50
135 411 837
136 974 509
137 504 398
138 19 430
139 810 528
140 737 202
141 972 859
142 547 622
143 413 683
144 877 471
145 600 166
146 548 346
147 558 792
148 419 734
149 639 70
150 276 341
151 534 486
152 972 672
153 542 709
154 816 858
155 82 38
156 217 733
157 466 112
158 575 165
159 902 861
160 418 631
161 771 702
162 795 46
163 138 5
164 915 845
165 520 788
166 40 301
167 896 668
168 626 118
169 979 70
170 708 244
171 729 682
172 548 962
173 117 144
174 520 207
175 145 21
176 255 152
177 107 992
178 28 34
179 107 305
180 401 230
181 824 486
182 112 589
183 529 286
184 216 3
185 478 247
186 778 364
187 28 601
188 82 639
189 391 879
190 202 620
191 426 897
192 214 579
193 113 474
194 627 244
195 231 754
196 177 670
197 65 564
198 901 548
199 487 364
200 551 304
201 199 82
202 87 556
203 121 56
204 533 339
205 808 521
206 469 118
207 295 874
208 56 693
209 216 871
210 535 245
211 842 471
212 503 305
213 308 837
214 961 296
215 826 569
216 174 696
217 43 500
218 205 604
219 331 845
220 432 273
221 52 637
222 855 178
223 873 388
224 839 496
225 424 751
226 542 285
227 488 909
228 762 518
229 463 263
230 789 357
231 459 327
232 345 822
233 747 371
234 713 446
235 369 251
236 698 450
237 3 588
238 506 201
239 757 309
240 704 231
241 254 123
242 473 390
243 464 803
244 421 108
245 365 678
246 906 598
247 629 171
248 825 513
249 698 501
250 388 234
251 439 423
252 459 289
253 471 327
254 328 981
255 604 395
256 759 412
257 572 247
258 558 240
259 545 331
260 506 369
261 944 585
262 910 401
263 394 969
264 792 316
265 441 141
266 810 560
267 382 413
268 192 713
269 817 466
270 496 377
271 613 136
272 685 290
273 10 689
274 922 524
275 853 524
276 213 1
277 134 686
278 480 240
279 339 114
280 589 389
281 230 921
282 925 326
283 711 580
284 783 347
285 469 295
286 937 179
287 482 249
288 484 277
289 827 338
290 609 272
291 834 485
292 252 100
293 139 153
294 163 74
295 418 326
296 310 884
297 534 795
298 107 632
299 736 184
300 813 324
301 905 465
302 512 606
303 585 237
304 563 124
305 776 365
306 74 70
307 366 809
308 227 41
309 380 913
310 809 407
311 760 417
312 708 477
313 603 175
314 810 671
315 912 508
316 386 964
317 298 510
318 811 456
319 780 382
320 520 274
321 745 382
322 330 998
323 840 409
324 447 976
325 828 472
326 802 428
327 620 904
328 105 482
329 488 418
330 727 551
331 103 669
332 802 408
333 467 119
334 210 439
335 121 700
336 187 40
337 714 401
338 120 657
339 436 316
340 243 453
341 630 277
342 257 149
343 438 350
344 294 195
345 573 339
346 379 644
DEMAND_SECTION
2 10
3 8
4 9
5 7
6 9
7 1
8 3
9 1
10 8
11 10
12 8
13 10
14 2
15 4
16 9
17 2
18 3
19 10
20 3
21 1
22 4
23 3
24 8
25 3
26 5
27 6
28 7
29 9
30 1
31 1
32 8
33 3
34 10
35 2
36 4
37 10
38 2
39 8
40 5
41 10
42 9
43 9
44 2
45 10
46 3
47 7
48 7
49 6
50 1
51 7
52 1
53 4
54 6
55 7
56 8
57 2
58 9
59 3
60 1
61 6
62 4
63 1
64 5
65 3
66 3
67 1
68 6
69 6
70 8
71 10
72 3
73 2
74 6
75 4
76 1
77 8
78 5
79 7
80 6
81 7
82 1
83 2
84 5
85 10
86 3
87 2
88 8
89 5
90 3
91 3
92 5
93 4
94 6
95 9
96 3
97 6
98 5
99 2
100 5
101 5
102 9
103 9
104 3
105 10
106 6
107 2
108 6
109 1
110 1
111 6
112 3
113 9
114 9
115 3
116 6
117 9
118 6
119 10
120 2
121 7
122 3
123 5
124 10
125 2
126 8
127 7
128 5
129 8
130 6
131 1
132 1
133 5
134 7
135 7
136 1
137 8
138 7
139 8
140 7
141 10
142 6
143 5
144 2
COVERAGE_SECTION
2 11 167 8 75 314 91 38 99 161 246 152 64 
3 11 194 92 247 303 313 290 341 145 257 240 258 
4 11 94 110 48 334 179 19 150 107 340 193 80 
5 11 335 93 208 331 277 58 338 188 273 298 221 
6 11 279 109 244 49 7 20 241 292 265 342 61 
7 11 49 61 109 308 184 292 276 6 279 20 241 
8 11 314 75 2 99 167 64 161 215 38 246 91 
9 11 15 84 154 69 159 76 44 41 85 164 141 
10 11 307 225 135 232 148 131 243 121 219 189 79 
11 11 317 43 340 60 120 128 334 192 96 267 218 
12 11 264 239 284 300 82 32 230 186 305 289 233 
13 11 169 46 286 114 222 162 97 124 59 123 66 
14 11 151 255 280 47 71 236 249 137 312 329 234 
15 11 69 44 9 141 159 41 68 164 154 84 91 
16 11 251 329 242 33 137 151 267 270 199 260 120 
17 11 220 252 229 339 285 295 288 231 67 185 180 
18 11 90 67 295 343 339 33 267 17 231 220 235 
19 11 94 110 193 328 50 100 334 48 4 217 138 
20 11 109 244 6 7 49 157 279 333 206 265 61 
21 11 102 117 129 125 177 63 95 209 281 5 208 
22 11 83 53 302 89 142 153 112 111 160 51 30 
23 11 149 168 271 304 145 247 52 158 313 97 26 
24 11 299 140 240 170 66 247 3 194 168 271 313 
25 11 205 139 248 266 181 224 228 275 215 291 103 
26 8 158 174 238 304 145 52 313 258 
27 11 283 330 73 35 127 249 65 228 86 103 312 
28 11 45 327 106 31 172 133 126 227 147 297 119 
29 11 116 121 131 195 101 156 245 79 268 232 307 
30 11 160 346 54 143 245 79 53 83 22 148 89 
31 11 227 45 28 119 172 191 297 243 165 106 147 
32 11 233 305 186 284 321 230 319 239 12 264 57 
33 11 267 251 343 90 242 18 16 295 329 120 199 
34 11 223 289 323 62 104 300 310 230 332 284 262 
35 11 283 330 27 73 64 86 228 127 266 103 249 
36 11 202 197 182 100 217 328 187 298 193 188 221 
37 11 57 337 71 321 233 234 236 32 256 311 305 
38 11 246 167 261 152 72 2 198 8 99 91 274 
39 11 282 78 214 98 262 81 223 59 34 301 56 
40 11 152 91 68 167 141 38 164 2 41 159 261 
41 11 164 159 141 68 44 154 15 91 69 40 9 
42 11 210 320 183 226 130 258 257 122 174 200 287 
43 11 60 11 317 340 192 334 96 218 108 128 190 
44 11 141 15 69 68 41 159 164 9 154 40 91 
45 11 28 172 327 31 227 133 106 126 147 119 297 
46 11 13 169 162 114 222 286 97 124 66 123 59 
47 11 65 127 112 151 14 142 302 27 111 249 51 
48 11 179 110 80 4 166 94 50 19 138 193 328 
49 11 7 61 109 308 292 6 184 279 276 241 201 
50 11 138 110 100 19 193 328 217 48 94 80 36 
51 11 53 302 160 22 142 30 112 83 151 16 346 
52 8 304 206 157 333 26 158 265 238 
53 11 302 51 22 142 83 160 112 30 89 111 143 
54 11 143 79 30 245 346 160 148 225 89 83 121 
55 9 213 207 219 296 232 307 209 131 63 
56 11 77 136 81 315 274 301 98 144 198 262 72 
57 11 337 37 321 233 71 256 311 32 234 236 305 
58 11 216 277 93 335 268 196 5 338 331 156 101 
59 11 214 123 78 282 286 114 39 222 124 82 289 
60 11 43 317 11 192 96 218 108 340 128 190 334 
61 11 49 7 308 184 276 109 292 336 201 241 87 
62 11 104 310 323 332 326 318 319 34 223 269 230 
63 11 209 281 55 207 195 213 101 296 156 219 268 
64 11 35 314 99 171 8 161 283 266 75 215 330 
65 11 127 47 27 86 112 283 142 111 35 330 73 
66 11 124 299 140 222 24 240 170 114 123 82 12 
67 11 18 90 295 235 17 339 220 250 180 343 252 
68 11 141 41 164 44 159 40 15 69 91 154 152 
69 11 15 44 141 68 41 159 9 164 154 40 91 
70 11 234 312 236 103 249 71 311 256 228 337 73 
71 11 236 234 337 37 57 312 70 256 311 321 249 
72 11 198 246 261 274 315 38 275 77 215 136 99 
73 11 330 27 228 283 103 249 35 312 70 25 205 
74 11 293 173 176 342 88 241 201 292 294 344 107 
75 11 314 8 161 2 64 167 171 99 91 215 38 
76 11 84 85 126 133 327 28 154 45 106 9 172 
77 11 56 136 315 274 301 81 144 198 72 98 261 
78 11 214 39 282 59 98 262 123 286 223 81 34 
79 11 245 54 143 148 346 30 121 225 160 131 29 
80 11 166 48 179 50 110 138 4 19 94 193 328 
81 11 98 301 56 77 262 144 136 315 274 223 39 
82 11 264 300 12 289 239 284 230 186 34 123 305 
83 11 22 89 153 53 302 143 142 54 160 30 111 
84 11 76 85 126 133 154 327 9 28 45 106 159 
85 11 84 76 126 133 154 327 106 28 45 132 9 
86 11 127 283 171 65 35 27 64 330 111 113 73 
87 11 175 163 336 276 184 294 203 308 201 155 61 
88 11 173 293 74 306 203 294 155 134 201 178 175 
89 11 83 22 148 153 225 143 54 165 79 30 243 
90 11 295 18 343 339 67 231 17 33 253 220 252 
91 11 2 167 40 152 38 8 75 164 314 41 159 
92 11 303 257 258 194 3 290 210 313 341 42 145 
93 11 335 277 58 331 5 338 216 196 208 298 188 
94 11 19 110 4 334 193 328 48 340 50 100 179 
95 10 177 125 281 129 209 21 117 63 254 322 
96 11 218 108 192 190 60 196 43 182 216 338 298 
97 11 162 23 149 46 66 299 24 168 13 222 140 
98 11 262 81 223 301 39 144 282 323 34 56 77 
99 11 215 266 8 64 314 246 139 25 275 72 75 
100 11 217 328 193 36 202 50 197 19 138 110 182 
101 11 156 195 268 116 216 58 29 196 277 93 335 
102 11 21 117 129 125 5 177 208 273 63 335 93 
103 11 228 73 25 70 205 330 139 312 249 248 181 
104 11 62 310 332 323 326 319 318 34 269 223 256 
105 11 212 130 183 288 320 285 122 253 226 204 252 
106 11 147 28 297 118 327 165 45 132 119 113 31 
107 11 150 344 4 235 74 67 176 342 18 250 179 
108 11 218 190 96 192 196 60 216 182 338 43 298 
109 11 49 7 6 279 61 20 292 241 244 308 342 
110 11 19 94 48 50 4 193 328 334 179 100 138 
111 11 142 112 153 22 302 83 113 65 86 53 127 
112 11 142 302 111 47 53 22 65 83 127 51 153 
113 11 132 153 111 118 147 106 86 171 297 165 142 
114 11 222 286 123 124 59 66 46 13 214 82 169 
115 9 324 263 316 191 309 227 322 254 172 
116 11 29 121 195 101 156 131 268 245 216 79 196 
117 11 129 21 125 177 102 95 63 209 281 5 208 
118 11 147 297 165 119 153 106 243 113 132 89 83 
119 11 243 165 297 118 147 31 135 225 227 106 10 
120 11 128 317 267 11 33 251 340 16 60 43 18 
121 11 131 29 116 79 245 10 307 148 54 225 232 
122 11 200 226 183 259 204 105 212 320 146 130 345 
123 11 59 124 114 222 82 286 282 214 300 289 66 
124 11 222 66 123 114 82 140 299 264 12 300 286 
125 10 177 129 95 117 21 281 102 209 63 207 
126 11 133 327 76 84 85 28 45 106 172 31 147 
127 11 65 27 86 283 47 35 330 73 112 249 111 
128 11 120 317 11 60 267 43 16 33 340 251 346 
129 10 125 177 117 21 95 102 281 209 63 207 
130 11 320 183 288 105 212 42 226 287 185 210 122 
131 11 121 29 307 232 10 116 79 213 219 245 148 
132 11 113 147 118 106 153 111 171 86 297 165 161 
133 11 126 327 76 84 28 85 45 172 106 31 227 
134 11 178 306 155 203 163 175 173 88 294 87 293 
135 9 189 10 307 191 243 232 219 309 225 
136 11 56 77 274 315 81 261 301 198 72 144 246 
137 11 270 329 260 242 199 204 146 251 16 253 259 
138 11 50 217 100 328 110 193 19 48 80 166 94 
139 11 25 205 248 266 224 275 181 215 228 291 103 
140 11 299 24 240 170 66 124 272 3 239 247 12 
141 11 68 41 44 164 159 15 69 40 91 154 152 
142 11 112 302 111 22 53 83 47 153 51 65 127 
143 11 54 79 30 245 148 160 346 89 225 83 22 
144 11 301 211 224 291 325 315 181 275 269 248 318 
145 11 313 158 247 271 168 304 26 3 92 303 194 
146 11 259 204 345 122 200 260 280 212 226 270 105 
147 11 118 297 165 106 119 153 132 113 243 28 31 
148 11 225 79 143 54 10 89 245 243 121 131 30 
149 11 23 168 271 304 247 145 313 158 52 24 97 
150 11 107 18 4 67 340 334 90 267 235 295 94 
151 11 14 16 329 47 137 51 280 242 251 255 270 
152 11 38 40 167 91 261 246 2 72 8 198 99 
153 11 111 83 118 89 22 165 147 297 142 113 112 
154 11 159 85 164 41 84 76 9 91 141 68 161 
155 11 306 203 134 178 163 175 87 294 336 173 88 
156 11 101 195 268 216 116 58 196 29 277 93 335 
157 6 206 333 265 244 52 26 
158 11 145 313 26 304 271 247 92 168 174 303 258 
159 11 41 164 141 68 154 44 15 91 69 9 40 
160 11 30 346 54 143 53 245 79 51 22 83 89 
161 11 75 171 314 8 64 2 99 86 35 167 283 
162 11 97 46 66 13 222 299 149 24 23 140 114 
163 11 175 87 203 336 155 294 276 184 306 308 201 
164 11 41 159 68 141 44 154 91 15 40 69 2 
165 11 297 118 119 147 243 153 106 89 31 225 28 
166 11 80 179 48 50 110 138 4 88 94 19 173 
167 11 2 38 8 91 246 152 75 314 99 261 72 
168 11 271 149 247 145 313 304 158 23 26 3 52 
169 11 13 46 286 114 222 162 59 123 124 97 66 
170 11 240 140 272 24 299 3 194 239 341 66 12 
171 11 161 64 86 314 75 35 283 8 113 132 127 
172 11 45 28 227 31 327 324 133 126 115 191 106 
173 11 88 293 74 294 306 203 201 155 134 336 175 
174 7 238 210 26 258 42 278 287 
175 11 163 87 203 336 294 155 276 184 201 308 306 
176 11 342 241 292 344 74 201 279 6 308 293 49 
177 10 125 129 95 117 21 281 102 209 63 254 
178 11 134 155 306 203 163 175 87 173 294 88 336 
179 11 48 80 166 4 110 94 50 19 74 88 107 
180 7 250 235 220 17 229 67 185 
181 11 291 325 224 269 211 248 318 205 25 139 275 
182 11 202 36 298 197 188 338 221 331 187 218 108 
183 11 226 320 122 130 200 42 105 212 210 288 259 
184 11 276 308 336 87 61 175 163 201 49 7 294 
185 7 287 278 229 288 130 252 285 
186 11 305 230 284 319 32 233 321 264 332 12 256 
187 11 237 221 197 188 202 36 182 298 273 208 331 
188 11 298 221 331 338 182 208 187 277 93 335 5 
189 7 309 191 135 219 232 307 296 
190 11 108 218 96 192 196 216 338 268 182 277 298 
191 7 189 309 135 227 316 263 324 
192 11 96 218 108 190 60 43 196 182 317 11 298 
193 11 328 19 100 94 110 50 217 36 202 197 334 
194 11 3 290 341 92 303 257 258 247 313 272 240 
195 11 101 156 268 116 29 216 58 63 196 131 121 
196 11 216 268 277 58 190 338 93 335 108 218 331 
197 11 202 36 187 182 237 217 100 221 188 298 328 
198 11 72 274 315 246 275 261 77 215 144 224 136 
199 11 270 260 242 137 253 231 343 204 329 212 105 
200 11 122 226 183 259 204 345 146 320 105 212 42 
201 11 294 336 308 292 241 87 175 184 203 276 61 
202 11 36 197 182 100 217 187 328 298 188 193 221 
203 11 175 155 294 306 163 87 336 134 201 173 178 
204 11 259 146 122 200 260 345 212 105 199 183 270 
205 11 25 139 248 181 266 224 291 275 228 103 215 
206 6 333 157 265 244 52 26 
207 7 296 55 213 219 232 209 281 
208 11 5 273 331 221 188 335 93 338 277 298 187 
209 9 63 281 207 55 296 213 195 219 101 
210 11 42 258 320 257 174 183 226 130 303 238 287 
211 11 325 291 181 224 269 318 144 248 275 326 205 
212 11 105 130 183 288 285 320 122 253 226 204 252 
213 8 55 219 207 232 296 307 131 189 
214 11 78 282 59 39 123 262 98 286 223 34 114 
215 11 266 99 139 25 205 275 248 224 198 64 228 
216 11 268 196 58 277 93 335 156 101 338 331 190 
217 11 100 328 197 36 202 50 138 193 237 187 19 
218 11 108 96 190 192 196 60 182 43 216 338 298 
219 8 213 232 55 296 207 307 189 135 
220 10 17 252 229 285 339 288 180 185 287 295 
221 11 188 187 298 208 331 273 237 338 197 182 5 
222 11 114 124 66 123 286 59 46 299 140 82 13 
223 11 34 262 323 98 62 104 310 289 332 282 326 
224 11 291 181 248 211 325 275 269 205 139 25 144 
225 11 148 10 243 79 89 143 54 307 135 131 121 
226 11 183 122 200 320 42 130 210 105 212 259 257 
227 11 31 191 45 324 172 28 119 189 115 135 309 
228 11 103 73 25 205 330 139 70 248 266 249 312 
229 9 185 287 288 252 278 220 285 17 130 
230 11 284 186 305 319 32 264 300 289 233 12 321 
231 11 253 339 343 285 252 295 199 212 105 17 288 
232 10 307 219 213 55 10 131 135 296 207 189 
233 11 321 32 305 186 319 57 256 284 230 337 311 
234 11 236 70 71 312 337 311 57 249 256 37 321 
235 10 250 180 67 220 17 18 295 339 90 344 
236 11 234 71 312 70 249 337 57 37 311 256 103 
237 11 187 197 221 202 36 188 217 273 182 298 100 
238 5 174 26 278 210 185 
239 11 12 264 32 284 82 230 300 186 305 233 272 
240 11 170 140 24 299 272 3 194 341 66 239 247 
241 11 292 342 176 201 344 279 308 49 61 74 6 
242 11 270 199 137 329 260 251 343 253 231 16 33 
243 11 119 165 135 225 297 10 148 118 89 147 31 
244 8 265 157 333 206 6 279 20 52 
245 11 79 346 54 143 30 121 160 148 29 131 116 
246 11 72 38 261 198 167 99 274 215 315 275 8 
247 11 313 145 271 3 168 158 92 194 303 304 24 
248 11 205 139 25 224 181 291 275 325 211 269 266 
249 11 312 73 70 236 234 27 330 103 228 71 283 
250 8 180 235 220 17 67 229 252 185 
251 11 33 16 242 329 267 137 270 343 199 260 90 
252 11 285 229 17 288 220 339 231 253 105 185 287 
253 11 231 285 339 105 212 199 252 343 288 295 260 
254 6 322 316 263 309 296 115 
255 11 280 345 14 146 259 37 204 71 137 260 200 
256 11 311 321 319 233 332 326 337 57 305 310 186 
257 11 258 303 92 210 42 290 226 194 183 320 200 
258 11 257 210 303 42 92 226 174 320 183 290 130 
259 11 204 146 122 200 345 226 183 212 105 260 320 
260 11 270 199 137 242 204 146 329 259 253 231 212 
261 11 72 246 38 198 274 136 315 152 77 167 56 
262 11 98 223 81 301 39 34 323 282 144 62 104 
263 7 316 115 324 309 254 322 191 
264 11 12 300 82 284 239 230 289 186 32 305 319 
265 5 333 206 157 244 52 
266 11 215 139 25 205 248 99 275 228 224 103 181 
267 11 33 251 120 18 90 343 16 242 295 329 128 
268 11 216 156 101 58 196 195 277 93 335 116 338 
269 11 318 325 181 211 291 224 326 248 205 62 104 
270 11 260 199 137 242 329 204 253 146 231 343 259 
271 11 168 145 247 313 158 304 149 26 3 23 52 
272 11 170 341 240 194 239 290 3 37 32 12 140 
273 11 208 221 5 188 187 331 237 93 335 298 338 
274 11 315 198 77 72 136 301 261 56 275 144 246 
275 11 248 224 139 291 205 25 181 215 198 211 266 
276 11 184 308 336 87 61 175 163 201 294 49 7 
277 11 93 335 58 338 331 216 196 5 298 268 188 
278 6 185 287 229 288 130 238 
279 11 6 109 244 241 49 292 342 176 344 7 265 
280 11 255 345 146 14 259 204 137 260 200 270 122 
281 9 209 63 207 296 95 55 213 254 219 
282 11 39 214 78 59 262 98 223 34 123 289 300 
283 11 35 27 330 73 127 86 64 228 249 65 103 
284 11 230 186 305 32 264 12 319 300 233 289 239 
285 11 252 288 253 229 231 105 212 339 17 130 220 
286 11 114 59 222 123 13 46 124 169 214 78 282 
287 7 185 278 229 288 130 320 252 
288 11 285 130 229 252 287 185 105 212 320 278 183 
289 11 300 34 264 230 284 82 12 186 305 319 223 
290 11 341 194 303 257 92 3 258 200 226 122 345 
291 11 181 224 325 211 269 248 318 275 205 144 25 
292 11 241 342 176 201 308 61 49 279 336 7 109 
293 11 173 88 74 294 201 203 306 176 342 241 336 
294 11 201 336 203 175 87 308 163 293 173 276 155 
295 11 90 339 343 18 231 67 17 253 220 252 285 
296 6 207 55 219 213 232 309 
297 11 165 147 118 119 106 243 153 31 28 89 113 
298 11 188 338 331 182 221 277 93 335 202 196 197 
299 11 140 24 66 240 170 124 247 3 272 222 194 
300 11 289 264 82 12 284 230 186 34 305 239 32 
301 11 144 315 81 77 98 274 211 262 56 224 291 
302 11 53 142 112 22 51 83 111 47 160 153 30 
303 11 92 257 258 290 194 3 210 42 341 226 313 
304 11 158 52 26 271 145 168 313 247 149 174 206 
305 11 186 230 319 284 32 233 321 256 332 264 12 
306 11 155 134 203 178 173 175 294 163 88 293 87 
307 10 232 10 219 135 131 213 189 55 225 121 
308 11 184 336 276 61 201 292 87 49 294 7 175 
309 6 189 191 316 263 296 135 
310 11 332 104 62 326 323 319 318 256 311 186 305 
311 11 256 321 319 326 332 233 337 310 57 305 234 
312 11 249 70 236 234 71 103 73 228 330 337 311 
313 11 145 247 158 271 3 92 168 26 303 304 194 
314 11 75 8 161 2 64 99 171 167 215 266 35 
315 11 274 77 198 301 144 72 275 136 56 224 81 
316 7 263 309 254 115 324 322 191 
317 11 11 60 128 43 120 340 192 334 96 267 218 
318 11 269 325 326 181 211 291 104 62 224 310 332 
319 11 305 186 230 332 233 284 321 256 32 310 311 
320 11 130 183 42 226 210 105 212 288 122 200 287 
321 11 233 57 32 256 305 319 337 186 311 230 284 
322 6 254 316 263 309 115 296 
323 11 62 104 310 332 223 326 34 318 269 211 325 
324 9 115 263 316 227 191 309 172 31 189 
325 11 269 211 291 181 318 224 248 144 326 205 25 
326 11 332 310 104 62 318 269 323 311 256 319 325 
327 11 133 126 28 45 106 76 172 85 31 84 147 
328 11 193 100 19 217 50 36 202 110 94 197 138 
329 11 137 242 270 251 16 260 199 151 33 343 204 
330 11 73 27 283 35 228 103 249 312 25 266 70 
331 11 338 93 277 335 188 298 5 208 221 58 196 
332 11 310 104 326 62 319 323 256 311 318 186 305 
333 6 206 157 265 244 52 26 
334 11 340 94 43 11 19 4 110 193 60 317 328 
335 11 93 277 58 5 331 338 216 196 208 298 188 
336 11 87 308 294 201 175 184 276 163 203 61 292 
337 11 57 37 71 321 233 234 256 311 236 32 70 
338 11 331 298 277 93 188 335 196 58 5 216 182 
339 11 295 231 343 252 17 253 285 90 220 67 229 
340 11 334 11 43 317 60 94 120 4 19 150 128 
341 11 290 194 3 272 303 92 257 258 200 345 170 
342 11 176 241 292 344 74 201 279 6 308 49 109 
343 11 231 295 339 90 253 199 242 18 285 270 252 
344 11 176 342 241 279 235 107 250 292 6 74 180 
345 11 146 259 204 200 122 280 226 255 183 260 290 
346 11 30 245 160 54 79 143 121 148 53 29 51 
DEPOT_SECTION
   1
   -1
EOF
