NAME :  X-n322-kX-w32-c9.cctp
COMMENT : 	Adapted by Maziero, Usberti and Cavellucci from the Uchoa, Pecin, Pessoa, Poggi, Subramanian, and Vidal (2013)
TYPE :  CCTP
DIMENSION :    231
EDGE_WEIGHT_TYPE : 	EUC_2D	
CAPACITY : 	868
VERTICES_WITHIN_COVERAGE :  9
VERTICES_WITH_DEMAND : 	32
NODE_COORD_SECTION
1 500 500
2 737 450
3 235 789
4 340 234
5 346 320
6 406 309
7 556 636
8 872 923
9 937 83
10 9 321
11 558 18
12 63 833
13 250 509
14 143 192
15 624 286
16 364 117
17 332 953
18 235 142
19 590 430
20 303 692
21 936 665
22 39 410
23 247 581
24 986 739
25 11 283
26 138 747
27 837 511
28 596 206
29 218 339
30 443 922
31 555 133
32 896 306
33 415 752
34 51 0
35 166 333
36 951 932
37 928 807
38 505 590
39 236 284
40 115 882
41 94 697
42 409 899
43 993 715
44 473 607
45 414 55
46 884 327
47 651 407
48 891 372
49 919 529
50 629 220
51 720 382
52 745 451
53 409 990
54 966 938
55 378 175
56 859 269
57 596 131
58 77 908
59 679 268
60 382 728
61 885 15
62 258 313
63 533 912
64 924 636
65 281 800
66 607 285
67 388 354
68 22 348
69 218 236
70 308 904
71 119 154
72 939 105
73 480 1000
74 124 883
75 295 741
76 213 53
77 701 446
78 644 147
79 983 343
80 262 450
81 255 422
82 896 910
83 298 531
84 573 416
85 870 50
86 656 268
87 587 165
88 995 809
89 266 878
90 27 812
91 196 522
92 45 164
93 174 729
94 252 311
95 594 478
96 848 361
97 897 253
98 729 354
99 255 410
100 811 703
101 781 909
102 971 632
103 887 144
104 475 860
105 897 98
106 971 727
107 972 381
108 375 214
109 280 526
110 895 158
111 196 779
112 379 223
113 692 470
114 22 395
115 289 811
116 98 365
117 261 101
118 820 480
119 433 961
120 656 421
121 334 794
122 426 686
123 870 112
124 941 978
125 744 498
126 7 346
127 166 244
128 604 430
129 101 383
130 784 983
131 833 529
132 646 367
133 922 294
134 513 535
135 373 331
136 471 694
137 39 149
138 813 538
139 153 115
140 244 505
141 409 228
142 652 239
143 30 924
144 877 307
145 336 615
146 856 584
147 984 221
148 19 309
149 614 194
150 253 864
151 106 841
152 187 687
153 5 289
154 658 58
155 419 839
156 666 486
157 288 276
158 562 646
159 75 785
160 309 966
161 121 698
162 286 258
163 824 834
164 650 350
165 977 647
166 268 698
167 973 145
168 569 655
169 427 869
170 11 869
171 377 793
172 102 444
173 979 386
174 294 395
175 37 705
176 126 782
177 490 30
178 348 771
179 808 469
180 161 793
181 859 469
182 148 763
183 403 723
184 978 760
185 214 132
186 467 387
187 292 262
188 238 846
189 853 27
190 855 506
191 213 742
192 203 364
193 183 3
194 501 152
195 904 31
196 997 741
197 26 402
198 543 506
199 902 548
200 47 419
201 125 226
202 206 608
203 811 668
204 643 265
205 189 736
206 79 287
207 225 604
208 412 843
209 924 756
210 474 356
211 445 101
212 579 994
213 464 243
214 420 998
215 798 490
216 27 680
217 118 804
218 489 91
219 367 977
220 501 137
221 856 6
222 777 984
223 909 569
224 730 509
225 326 596
226 455 853
227 612 163
228 959 409
229 987 154
230 207 6
231 39 831
DEMAND_SECTION
2 61
3 71
4 83
5 85
6 85
7 99
8 63
9 64
10 50
11 56
12 91
13 87
14 75
15 70
16 57
17 86
18 50
19 89
20 75
21 72
22 83
23 74
24 76
25 53
26 93
27 97
28 69
29 61
30 76
31 93
32 55
33 92
COVERAGE_SECTION
2 9 52 77 113 125 224 51 179 215 156 
3 9 111 65 191 188 115 205 180 75 150 
4 9 108 112 187 162 157 141 55 5 6 
5 9 135 67 6 157 187 4 162 62 174 
6 9 135 67 5 141 210 213 112 186 4 
7 4 158 168 38 44 
8 9 82 36 124 101 54 163 130 222 37 
9 9 72 105 195 167 123 85 103 61 110 
10 9 148 126 68 153 25 114 206 197 22 
11 8 177 218 154 31 57 220 211 194 
12 9 231 90 151 159 217 170 40 58 74 
13 7 140 109 83 91 80 23 81 
14 9 201 71 127 139 69 185 92 18 137 
15 9 66 204 86 142 59 50 164 132 28 
16 9 55 45 211 108 117 112 4 141 218 
17 9 160 219 70 53 42 214 89 119 30 
18 9 185 117 139 76 69 14 71 127 162 
19 8 128 84 95 47 120 132 198 156 
20 8 166 75 145 60 178 225 191 183 
21 9 64 165 102 106 43 24 209 196 223 
22 8 200 197 114 68 129 126 172 116 
23 8 207 202 109 83 13 140 91 225 
24 9 196 106 184 43 209 88 21 37 165 
25 9 153 148 10 126 68 206 114 116 197 
26 9 182 176 93 180 161 205 217 111 41 
27 9 131 190 118 138 215 181 179 146 199 
28 9 149 50 87 227 142 57 204 78 66 
29 8 192 94 62 35 39 99 81 157 
30 9 119 42 169 104 226 53 214 208 73 
31 9 57 87 220 194 227 218 28 149 78 
32 8 144 46 133 56 97 48 96 79 
33 9 183 60 171 122 178 136 155 121 208 
34 9 193 137 139 230 92 71 76 185 14 
35 8 192 29 116 129 39 94 127 62 
36 9 54 124 82 8 37 88 163 101 184 
37 8 209 88 184 24 106 196 163 82 
38 6 44 134 7 158 168 198 
39 9 94 62 69 157 162 29 187 127 35 
40 5 74 151 58 12 217 
41 5 161 175 26 216 182 
42 9 169 30 208 155 226 119 104 219 53 
43 9 24 106 196 184 165 21 209 102 88 
44 5 38 134 136 7 122 
45 9 211 16 177 218 220 55 194 11 117 
46 8 144 32 48 96 133 56 97 79 
47 8 120 132 128 164 77 19 51 113 
48 8 96 46 32 144 228 107 133 173 
49 9 199 223 190 27 146 181 131 138 64 
50 8 142 149 28 204 86 227 15 59 
51 7 98 77 2 47 52 120 132 
52 9 2 77 125 113 224 179 215 51 118 
53 9 214 119 219 73 30 17 42 160 169 
54 9 36 124 82 8 88 37 163 184 101 
55 8 108 112 16 141 4 211 213 187 
56 6 97 144 32 46 133 96 
57 7 87 227 31 78 149 28 50 
58 7 40 143 74 151 12 170 231 
59 5 86 204 142 15 50 
60 9 183 33 178 122 171 121 20 75 136 
61 8 195 221 189 85 105 9 123 72 
62 9 94 39 29 157 187 162 192 69 5 
63 5 104 30 212 226 73 
64 9 21 102 165 223 146 199 106 43 49 
65 9 115 3 121 75 188 150 178 89 111 
66 8 15 204 86 142 50 59 164 28 
67 7 135 6 5 186 210 174 157 
68 9 126 10 148 114 197 153 22 25 200 
69 9 39 127 162 187 157 94 14 62 201 
70 8 89 17 160 150 188 219 115 42 
71 9 14 139 201 92 137 185 127 18 69 
72 8 9 105 167 103 110 123 229 195 
73 9 214 119 53 30 212 63 219 42 104 
74 5 40 151 58 12 217 
75 9 20 166 65 178 121 115 3 191 60 
76 9 230 193 117 185 139 18 71 14 16 
77 8 113 2 52 120 156 47 51 125 
78 6 227 57 149 87 50 28 
79 7 107 173 228 133 32 48 46 
80 6 81 99 140 13 174 109 
81 6 99 80 174 192 140 13 
82 9 8 36 54 124 163 37 101 130 222 
83 8 109 13 140 23 225 80 145 91 
84 7 19 128 95 47 120 132 198 
85 8 189 61 195 221 105 123 9 72 
86 7 204 59 142 15 66 50 164 
87 8 227 57 149 28 31 78 50 194 
88 9 184 37 196 24 106 209 43 36 54 
89 6 150 188 70 115 65 3 
90 9 231 12 159 170 151 217 176 175 58 
91 4 140 13 23 109 
92 9 137 71 201 14 139 25 206 153 127 
93 8 205 26 191 182 152 111 161 180 
94 9 62 39 29 157 162 187 192 69 35 
95 7 19 128 198 84 156 120 47 
96 8 48 46 144 32 56 133 181 179 
97 6 56 133 32 144 46 147 
98 5 51 164 132 47 2 
99 6 81 80 174 192 29 140 
100 6 203 209 146 21 64 163 
101 5 130 222 163 8 82 
102 9 165 64 21 43 223 106 24 199 196 
103 6 110 123 105 72 9 167 
104 6 226 169 155 208 30 42 
105 8 123 9 72 103 85 110 195 61 
106 9 24 43 196 184 209 21 165 88 37 
107 7 173 228 79 48 133 46 32 
108 8 112 141 55 4 213 187 16 162 
109 8 83 13 140 23 80 91 225 207 
110 6 103 123 105 72 167 9 
111 9 180 3 191 205 182 93 26 176 188 
112 8 108 141 4 55 213 6 187 162 
113 7 77 156 2 224 52 125 120 
114 9 197 22 200 68 126 10 129 116 148 
115 9 65 121 3 188 150 75 89 178 171 
116 7 129 22 200 35 68 172 206 
117 9 18 185 76 16 139 230 193 55 69 
118 9 179 215 27 181 190 131 138 125 52 
119 9 53 214 30 73 42 219 169 17 104 
120 8 47 77 128 132 113 156 19 164 
121 9 178 171 115 65 75 60 33 208 155 
122 5 183 136 60 33 44 
123 7 105 103 110 85 72 9 189 
124 9 36 54 82 8 130 222 37 101 88 
125 9 224 52 2 215 113 77 179 118 156 
126 9 68 10 148 114 153 197 25 22 200 
127 9 201 69 14 39 35 206 71 29 94 
128 7 19 84 95 47 120 132 156 
129 7 116 172 200 22 197 114 35 
130 4 222 101 8 82 
131 9 27 138 190 118 215 146 179 181 199 
132 8 164 47 120 51 128 15 19 98 
133 8 32 144 97 46 56 79 48 147 
134 5 198 38 44 95 7 
135 9 67 5 6 157 4 174 210 187 112 
136 4 122 183 33 44 
137 9 92 71 14 201 139 25 153 206 34 
138 9 131 27 215 190 118 146 179 125 181 
139 9 71 185 14 18 76 117 201 193 92 
140 7 13 109 91 80 83 23 81 
141 7 112 108 213 55 4 6 135 
142 8 204 86 50 59 15 149 66 28 
143 8 58 170 231 40 12 74 90 151 
144 7 32 46 56 133 97 96 48 
145 5 225 20 83 23 109 
146 9 223 199 131 138 27 190 49 64 203 
147 6 229 167 97 133 110 32 
148 9 10 153 25 68 126 206 114 197 116 
149 8 28 50 227 87 78 142 57 204 
150 6 89 188 115 70 65 3 
151 8 217 40 12 74 176 159 231 58 
152 6 93 205 191 161 26 202 
153 9 25 148 10 126 68 206 114 197 116 
154 3 78 57 11 
155 7 208 169 226 104 42 171 30 
156 7 113 77 120 224 95 125 2 
157 9 187 162 62 94 39 4 5 69 29 
158 3 168 7 38 
159 9 217 12 176 90 231 151 26 182 180 
160 8 17 219 70 89 53 150 214 42 
161 5 41 26 93 152 182 
162 9 187 157 39 4 62 94 69 5 108 
163 5 101 8 82 37 209 
164 8 132 47 15 120 51 66 98 86 
165 9 102 21 64 43 106 24 196 223 184 
166 9 20 75 191 152 205 3 93 65 207 
167 7 229 72 9 147 110 103 105 
168 2 158 7 
169 7 208 155 226 42 104 30 171 
170 9 231 143 90 12 58 151 40 159 74 
171 9 178 121 33 208 155 60 183 115 169 
172 3 200 129 22 
173 7 107 228 79 48 133 46 32 
174 9 99 81 80 62 5 29 94 192 135 
175 7 216 41 161 159 90 26 176 
176 9 217 182 26 180 159 151 111 93 205 
177 9 218 11 45 211 220 31 194 57 16 
178 9 121 171 60 75 33 115 65 183 20 
179 9 118 215 27 181 190 131 52 138 125 
180 9 182 176 111 217 26 205 93 151 191 
181 8 190 118 27 179 131 215 138 49 
182 9 26 176 180 93 205 111 217 191 161 
183 8 60 33 122 178 136 171 121 20 
184 9 24 196 106 43 88 209 37 21 165 
185 9 18 117 139 76 14 71 69 127 230 
186 4 210 67 6 135 
187 9 162 157 4 39 62 94 69 5 112 
188 5 150 89 3 115 65 
189 7 221 85 61 195 105 123 9 
190 9 27 131 181 118 138 215 179 199 49 
191 9 205 93 111 3 152 182 166 180 26 
192 6 29 35 99 94 62 81 
193 9 230 76 139 117 34 185 18 71 14 
194 8 220 31 218 211 87 57 213 28 
195 8 61 85 189 221 9 105 72 123 
196 9 24 43 184 106 88 209 37 165 21 
197 9 114 22 200 68 126 129 116 10 172 
198 7 134 95 19 38 84 128 44 
199 9 223 49 146 190 131 27 138 181 64 
200 7 22 197 114 172 129 116 68 
201 9 14 127 71 206 69 92 139 35 137 
202 4 207 23 152 91 
203 5 100 146 64 21 138 
204 7 86 15 142 59 66 50 28 
205 8 93 191 111 152 182 26 180 3 
206 9 148 25 153 201 10 116 68 126 127 
207 5 202 23 91 152 109 
208 7 155 169 226 42 171 104 30 
209 8 37 184 106 24 196 43 88 21 
210 3 186 6 67 
211 8 218 45 220 194 16 177 55 31 
212 4 63 73 119 30 
213 5 141 112 6 108 194 
214 9 53 119 219 73 30 17 42 160 169 
215 9 179 118 27 138 131 125 190 181 52 
216 5 175 41 161 159 26 
217 9 176 151 180 159 182 26 12 40 74 
218 9 211 220 177 194 31 45 11 57 87 
219 9 17 53 214 160 119 42 30 70 73 
220 8 194 218 31 211 87 57 177 213 
221 7 189 61 85 195 105 123 9 
222 4 130 101 8 82 
223 9 199 49 146 64 190 131 102 27 21 
224 7 125 113 2 52 156 77 215 
225 6 145 83 23 109 20 207 
226 6 104 169 155 208 42 30 
227 8 87 149 57 78 28 50 31 142 
228 7 173 107 79 48 46 181 32 
229 7 167 147 72 9 110 103 105 
230 9 193 76 117 139 185 18 34 71 16 
231 9 90 12 170 159 151 217 58 40 143 
DEPOT_SECTION
   1
   -1
EOF
