NAME :  X-n359-kX-w35-c7.cctp
COMMENT : 	Adapted by Maziero, Usberti and Cavellucci from the Uchoa, Pecin, Pessoa, Poggi, Subramanian, and Vidal (2013)
TYPE :  CCTP
DIMENSION :    202
EDGE_WEIGHT_TYPE : 	EUC_2D	
CAPACITY : 	68
VERTICES_WITHIN_COVERAGE :  7
VERTICES_WITH_DEMAND : 	35
NODE_COORD_SECTION
1 0 0
2 865 693
3 633 220
4 173 361
5 89 714
6 350 102
7 301 24
8 834 663
9 841 997
10 394 790
11 276 488
12 779 312
13 939 66
14 595 462
15 940 964
16 459 459
17 432 280
18 379 338
19 128 439
20 401 22
21 69 887
22 499 657
23 633 46
24 713 182
25 806 525
26 540 169
27 696 559
28 577 888
29 298 725
30 410 644
31 512 889
32 756 352
33 405 407
34 850 365
35 731 588
36 90 553
37 926 631
38 921 854
39 238 513
40 976 912
41 565 912
42 893 74
43 590 548
44 99 355
45 294 39
46 58 429
47 471 573
48 520 109
49 486 611
50 409 682
51 152 711
52 257 539
53 270 31
54 770 627
55 630 581
56 786 186
57 380 300
58 973 847
59 985 975
60 725 539
61 814 694
62 702 927
63 385 696
64 48 323
65 813 293
66 490 676
67 729 923
68 675 637
69 476 709
70 402 339
71 911 734
72 590 230
73 122 698
74 154 418
75 165 998
76 766 21
77 831 607
78 70 494
79 220 740
80 19 855
81 759 507
82 595 827
83 254 282
84 331 57
85 118 404
86 576 658
87 558 611
88 279 715
89 20 953
90 496 813
91 349 474
92 335 732
93 104 976
94 656 920
95 648 585
96 350 517
97 62 979
98 334 759
99 649 927
100 411 837
101 19 430
102 810 528
103 737 202
104 972 859
105 547 622
106 413 683
107 600 166
108 419 734
109 639 70
110 276 341
111 534 486
112 972 672
113 542 709
114 816 858
115 575 165
116 902 861
117 418 631
118 771 702
119 795 46
120 40 301
121 896 668
122 979 70
123 708 244
124 729 682
125 548 962
126 520 207
127 107 992
128 107 305
129 401 230
130 112 589
131 778 364
132 28 601
133 113 474
134 627 244
135 231 754
136 65 564
137 87 556
138 808 521
139 56 693
140 826 569
141 43 500
142 432 273
143 873 388
144 424 751
145 488 909
146 762 518
147 789 357
148 345 822
149 747 371
150 369 251
151 3 588
152 506 201
153 757 309
154 704 231
155 464 803
156 421 108
157 365 678
158 629 171
159 825 513
160 698 501
161 388 234
162 439 423
163 459 289
164 604 395
165 910 401
166 792 316
167 810 560
168 382 413
169 685 290
170 10 689
171 853 524
172 339 114
173 589 389
174 711 580
175 783 347
176 937 179
177 827 338
178 609 272
179 418 326
180 736 184
181 813 324
182 512 606
183 585 237
184 563 124
185 776 365
186 366 809
187 603 175
188 810 671
189 298 510
190 745 382
191 840 409
192 620 904
193 105 482
194 488 418
195 727 551
196 103 669
197 210 439
198 121 700
199 436 316
200 243 453
201 630 277
202 379 644
DEMAND_SECTION
2 10
3 8
4 9
5 7
6 9
7 1
8 3
9 1
10 8
11 10
12 8
13 10
14 2
15 4
16 9
17 2
18 3
19 10
20 3
21 1
22 4
23 3
24 8
25 3
26 5
27 6
28 7
29 9
30 1
31 1
32 8
33 3
34 10
35 2
36 4
COVERAGE_SECTION
2 7 121 8 61 188 71 37 77 
3 7 134 72 158 183 187 178 201 
4 7 74 85 44 197 128 19 110 
5 5 198 73 139 196 51 
6 6 172 84 156 45 7 20 
7 3 45 53 84 
8 7 188 61 2 77 121 54 118 
9 7 15 67 114 59 116 62 40 
10 7 186 144 100 148 108 98 155 
11 7 189 39 200 52 91 96 197 
12 7 166 153 175 181 65 32 147 
13 5 122 42 176 119 76 
14 5 111 164 173 43 160 
15 7 59 40 9 104 116 38 58 
16 5 162 194 33 111 168 
17 4 142 163 199 179 
18 6 70 57 179 199 33 168 
19 7 74 85 133 193 46 78 197 
20 6 84 156 6 7 45 172 
21 6 80 89 97 93 127 75 
22 7 66 49 182 69 105 113 87 
23 5 109 184 107 158 48 
24 7 180 103 154 123 56 158 3 
25 5 138 102 159 167 146 
26 7 115 126 152 184 107 48 187 
27 7 174 195 60 35 95 160 55 
28 7 41 192 82 31 125 99 94 
29 6 88 92 98 135 79 157 
30 7 117 202 50 106 157 63 49 
31 5 145 41 28 90 125 
32 6 149 185 131 175 190 147 
33 5 168 162 70 18 16 
34 4 143 177 191 181 
35 7 174 195 27 60 54 68 146 
36 7 137 136 130 78 141 193 132 
37 3 121 112 2 
38 6 116 104 58 40 114 15 
39 5 52 11 189 200 197 
40 6 104 15 59 58 38 116 
41 7 28 125 192 31 145 99 82 
42 5 13 122 119 176 76 
43 7 55 95 87 111 14 105 182 
44 7 128 85 64 4 120 74 46 
45 4 7 53 84 6 
46 7 101 85 78 19 133 193 141 
47 7 49 182 117 22 105 30 87 
48 3 184 26 115 
49 7 182 47 22 105 66 117 87 
50 7 106 63 30 157 202 117 108 
51 3 73 198 5 
52 3 39 189 11 
53 3 45 7 84 
54 7 35 188 77 124 8 118 174 
55 7 95 43 27 68 87 174 105 
56 5 180 103 24 154 123 
57 7 18 70 179 150 17 199 142 
58 5 104 38 40 116 15 
59 7 15 40 104 58 38 116 9 
60 7 195 27 146 174 81 160 35 
61 7 188 8 118 2 54 121 124 
62 6 67 94 99 192 28 114 
63 7 157 50 106 108 202 30 92 
64 7 120 44 128 46 85 101 4 
65 7 166 181 12 177 153 175 147 
66 7 22 69 113 49 182 106 105 
67 6 62 94 99 114 192 9 
68 7 95 174 124 55 35 27 54 
69 7 66 22 108 113 144 106 50 
70 5 179 18 199 57 17 
71 6 2 121 112 37 8 61 
72 4 183 134 3 178 
73 4 198 51 196 5 
74 7 19 85 4 197 133 193 44 
75 5 127 93 97 21 89 
76 7 119 23 109 42 56 180 24 
77 6 140 167 8 54 188 102 
78 7 141 193 133 36 137 46 136 
79 4 135 88 51 29 
80 7 21 89 97 93 5 127 139 
81 6 146 60 25 138 195 102 
82 3 28 192 41 
83 4 110 4 150 57 
84 6 45 7 6 172 53 20 
85 7 19 74 44 46 4 133 193 
86 6 105 87 113 22 182 66 
87 7 105 182 86 43 49 22 55 
88 5 29 92 135 79 98 
89 6 97 21 93 127 80 75 
90 3 155 31 100 
91 7 96 189 168 11 33 162 200 
92 7 98 29 88 63 157 10 186 
93 6 127 97 75 89 21 80 
94 6 99 192 62 67 28 41 
95 7 55 27 68 174 43 35 195 
96 7 91 189 11 52 168 39 16 
97 6 93 127 89 21 75 80 
98 7 92 29 186 148 10 88 63 
99 6 94 192 62 67 28 41 
100 4 10 186 155 148 
101 7 46 141 78 193 85 133 19 
102 5 25 138 159 167 171 
103 6 180 24 154 123 56 169 
104 6 58 38 40 116 15 59 
105 7 87 182 86 22 49 66 43 
106 7 50 63 30 157 108 117 202 
107 5 187 115 158 184 26 
108 7 144 63 106 50 10 69 157 
109 5 23 184 158 107 187 
110 7 83 18 4 57 200 197 70 
111 6 14 16 194 43 47 173 
112 4 37 121 71 2 
113 4 86 66 69 22 
114 5 116 38 67 62 9 
115 6 107 187 26 184 158 72 
116 6 38 104 58 114 40 15 
117 7 30 202 50 106 49 157 63 
118 7 61 124 188 8 54 2 77 
119 6 76 42 56 13 180 109 
120 7 64 128 44 46 85 101 4 
121 6 2 37 8 71 112 61 
122 4 13 42 176 119 
123 7 154 103 169 24 180 3 134 
124 7 118 54 68 188 61 35 174 
125 6 41 28 145 31 192 99 
126 2 152 26 
127 6 93 97 75 89 21 80 
128 7 44 64 120 4 85 74 46 
129 4 161 150 142 17 
130 3 137 36 136 
131 6 185 147 175 32 149 190 
132 5 151 136 137 36 130 
133 7 193 19 78 74 85 46 141 
134 5 3 178 201 72 183 
135 4 79 88 29 51 
136 7 137 36 132 130 151 141 78 
137 7 36 136 130 78 141 132 193 
138 4 25 102 159 167 
139 5 5 170 196 198 73 
140 7 167 77 102 25 138 171 159 
141 7 78 193 136 36 137 46 101 
142 4 17 163 199 129 
143 3 34 165 191 
144 7 108 10 155 63 69 106 50 
145 5 31 41 125 28 90 
146 6 81 60 25 138 195 102 
147 6 175 131 185 32 166 181 
148 4 186 10 98 100 
149 4 190 32 185 131 
150 7 161 129 57 142 17 18 179 
151 5 132 136 137 36 141 
152 2 126 26 
153 7 12 166 32 175 65 147 181 
154 7 123 103 24 180 169 3 134 
155 5 90 100 144 10 108 
156 1 6 
157 7 63 202 50 106 30 92 117 
158 5 187 107 3 115 72 
159 4 138 102 25 171 
160 3 60 27 195 
161 5 129 150 142 17 57 
162 4 33 16 194 168 
163 3 17 142 199 
164 2 173 14 
165 3 143 34 191 
166 7 12 181 65 175 153 147 177 
167 7 140 102 25 138 159 77 171 
168 6 33 162 91 18 70 16 
169 7 123 201 154 134 153 178 3 
170 5 139 5 132 196 151 
171 4 159 102 138 25 
172 4 6 84 156 45 
173 2 164 14 
174 7 35 27 195 60 95 68 54 
175 6 147 131 185 32 166 12 
176 2 13 42 
177 7 181 34 166 147 175 65 12 
178 5 201 134 183 72 3 
179 5 70 199 18 57 17 
180 6 103 24 56 154 123 158 
181 7 177 166 65 12 175 147 131 
182 7 49 105 87 22 47 66 86 
183 4 72 178 134 3 
184 5 115 48 26 107 187 
185 6 131 147 175 32 149 190 
186 4 148 10 100 98 
187 5 107 158 115 3 72 
188 7 61 8 118 2 54 77 124 
189 6 11 52 96 39 91 200 
190 3 149 32 185 
191 2 143 34 
192 7 99 94 28 41 82 62 125 
193 7 133 78 19 141 46 36 137 
194 2 162 16 
195 7 60 27 174 35 146 81 160 
196 3 73 198 5 
197 7 200 74 39 11 19 4 85 
198 4 73 51 5 196 
199 3 179 163 17 
200 7 197 11 39 189 52 74 91 
201 6 178 134 3 169 183 72 
202 7 30 157 117 50 63 106 92 
DEPOT_SECTION
   1
   -1
EOF
