NAME :  X-n322-kX-w128-c7.cctp
COMMENT : 	Adapted by Maziero, Usberti and Cavellucci from the Uchoa, Pecin, Pessoa, Poggi, Subramanian, and Vidal (2013)
TYPE :  CCTP
DIMENSION :    321
EDGE_WEIGHT_TYPE : 	EUC_2D	
CAPACITY : 	868
VERTICES_WITHIN_COVERAGE :  7
VERTICES_WITH_DEMAND : 	128
NODE_COORD_SECTION
1 500 500
2 737 450
3 235 789
4 340 234
5 346 320
6 406 309
7 556 636
8 872 923
9 937 83
10 9 321
11 558 18
12 63 833
13 250 509
14 143 192
15 624 286
16 364 117
17 332 953
18 235 142
19 590 430
20 303 692
21 936 665
22 39 410
23 247 581
24 986 739
25 11 283
26 138 747
27 837 511
28 596 206
29 218 339
30 443 922
31 555 133
32 896 306
33 415 752
34 691 216
35 51 0
36 726 19
37 166 333
38 951 932
39 928 807
40 505 590
41 236 284
42 115 882
43 238 887
44 729 26
45 94 697
46 409 899
47 993 715
48 473 607
49 414 55
50 884 327
51 651 407
52 891 372
53 570 733
54 919 529
55 629 220
56 711 630
57 141 492
58 720 382
59 794 51
60 745 451
61 409 990
62 825 781
63 966 938
64 378 175
65 859 269
66 596 131
67 419 557
68 77 908
69 679 268
70 726 860
71 382 728
72 885 15
73 258 313
74 734 905
75 533 912
76 924 636
77 694 621
78 469 223
79 507 707
80 892 168
81 281 800
82 607 285
83 388 354
84 568 781
85 22 348
86 153 579
87 218 236
88 308 904
89 119 154
90 939 105
91 489 374
92 547 736
93 480 1000
94 124 883
95 647 930
96 295 741
97 213 53
98 701 446
99 589 708
100 644 147
101 133 377
102 983 343
103 169 651
104 262 450
105 255 422
106 115 640
107 693 344
108 896 910
109 298 531
110 573 416
111 416 512
112 870 50
113 185 436
114 656 268
115 53 522
116 587 165
117 542 762
118 995 809
119 266 878
120 27 812
121 196 522
122 45 164
123 174 729
124 252 311
125 681 621
126 594 478
127 848 361
128 897 253
129 729 354
130 255 410
131 811 703
132 677 991
133 781 909
134 971 632
135 540 824
136 887 144
137 475 860
138 509 336
139 967 433
140 897 98
141 157 676
142 971 727
143 972 381
144 658 504
145 375 214
146 280 526
147 895 158
148 196 779
149 379 223
150 692 470
151 22 395
152 119 604
153 622 843
154 289 811
155 98 365
156 111 426
157 261 101
158 820 480
159 433 961
160 656 421
161 511 273
162 334 794
163 426 686
164 870 112
165 941 978
166 744 498
167 7 346
168 168 877
169 166 244
170 604 430
171 176 452
172 522 306
173 912 406
174 423 564
175 505 779
176 101 383
177 729 307
178 162 515
179 647 869
180 784 983
181 496 811
182 736 39
183 833 529
184 646 367
185 922 294
186 513 535
187 373 331
188 471 694
189 39 149
190 813 538
191 153 115
192 244 505
193 716 286
194 409 228
195 140 484
196 652 239
197 141 628
198 30 924
199 877 307
200 586 723
201 336 615
202 856 584
203 984 221
204 641 671
205 648 704
206 19 309
207 661 125
208 614 194
209 253 864
210 106 841
211 187 687
212 5 289
213 657 83
214 658 58
215 419 839
216 519 347
217 191 864
218 666 486
219 288 276
220 562 646
221 516 725
222 75 785
223 309 966
224 743 856
225 121 698
226 286 258
227 70 635
228 376 539
229 824 834
230 650 350
231 742 277
232 977 647
233 268 698
234 973 145
235 569 655
236 765 22
237 427 869
238 11 869
239 377 793
240 162 897
241 102 444
242 979 386
243 69 483
244 294 395
245 424 536
246 37 705
247 126 782
248 490 30
249 348 771
250 808 469
251 107 512
252 782 207
253 161 793
254 859 469
255 148 763
256 403 723
257 978 760
258 214 132
259 467 387
260 292 262
261 238 846
262 853 27
263 855 506
264 591 902
265 213 742
266 203 364
267 183 3
268 143 608
269 501 152
270 649 492
271 904 31
272 997 741
273 527 299
274 26 402
275 543 506
276 902 548
277 47 419
278 125 226
279 206 608
280 811 668
281 643 265
282 189 736
283 79 287
284 382 630
285 225 604
286 412 843
287 924 756
288 474 356
289 533 721
290 445 101
291 579 994
292 652 658
293 633 914
294 889 206
295 464 243
296 680 735
297 420 998
298 798 490
299 75 518
300 27 680
301 118 804
302 181 428
303 489 91
304 367 977
305 777 679
306 501 137
307 856 6
308 75 999
309 777 984
310 171 874
311 909 569
312 730 509
313 326 596
314 59 533
315 455 853
316 612 163
317 959 409
318 987 154
319 883 195
320 207 6
321 39 831
DEMAND_SECTION
2 61
3 71
4 83
5 85
6 85
7 99
8 63
9 64
10 50
11 56
12 91
13 87
14 75
15 70
16 57
17 86
18 50
19 89
20 75
21 72
22 83
23 74
24 76
25 53
26 93
27 97
28 69
29 61
30 76
31 93
32 55
33 92
34 83
35 92
36 63
37 61
38 53
39 100
40 94
41 74
42 71
43 95
44 74
45 96
46 75
47 91
48 82
49 50
50 84
51 55
52 74
53 73
54 86
55 52
56 81
57 73
58 92
59 83
60 64
61 66
62 93
63 97
64 88
65 67
66 91
67 66
68 98
69 88
70 85
71 73
72 68
73 60
74 73
75 53
76 58
77 62
78 64
79 57
80 81
81 57
82 54
83 73
84 85
85 52
86 65
87 64
88 100
89 60
90 97
91 62
92 92
93 84
94 86
95 81
96 88
97 50
98 87
99 89
100 50
101 72
102 56
103 90
104 78
105 57
106 56
107 77
108 59
109 95
110 68
111 91
112 93
113 89
114 63
115 87
116 71
117 68
118 99
119 78
120 72
121 100
122 60
123 80
124 68
125 71
126 83
127 68
128 96
129 75
COVERAGE_SECTION
2 7 60 98 150 166 312 58 250 
3 7 148 81 265 261 154 282 253 
4 7 145 149 260 226 219 194 64 
5 7 187 83 6 219 260 4 226 
6 7 187 83 5 194 288 295 149 
7 7 220 235 40 99 79 48 289 
8 7 108 38 165 133 63 229 180 
9 7 90 140 271 234 164 112 136 
10 7 206 167 85 212 25 151 283 
11 7 248 303 214 31 213 66 306 
12 7 321 120 210 222 301 238 42 
13 7 192 146 109 121 104 23 105 
14 7 278 89 169 191 87 258 122 
15 7 82 281 114 196 69 55 230 
16 7 64 49 290 145 157 149 4 
17 7 223 304 88 61 46 297 119 
18 7 258 157 191 97 87 14 89 
19 7 170 110 126 51 160 184 270 
20 7 233 96 201 71 249 313 284 
21 7 76 232 134 142 47 24 287 
22 7 277 274 151 85 176 167 241 
23 7 285 279 146 109 13 192 121 
24 7 272 142 257 47 287 118 21 
25 7 212 206 10 167 85 283 151 
26 7 255 247 123 253 225 282 301 
27 7 183 263 158 190 298 254 250 
28 7 208 55 116 316 196 66 281 
29 7 266 124 73 37 41 130 105 
30 7 159 46 237 137 315 61 297 
31 7 66 116 306 269 316 303 28 
32 7 199 50 185 65 128 52 127 
33 7 256 71 239 163 249 188 215 
34 7 196 69 55 114 281 193 208 
35 7 267 189 191 320 122 89 97 
36 7 44 182 236 59 214 213 207 
37 7 266 29 101 155 176 41 124 
38 7 63 165 108 8 39 118 229 
39 7 287 118 257 24 142 272 62 
40 7 48 186 7 220 174 235 67 
41 7 124 73 87 219 226 29 260 
42 7 94 210 68 240 168 310 12 
43 7 209 119 261 217 310 168 88 
44 7 36 182 236 59 214 213 207 
45 7 225 246 106 141 227 26 300 
46 7 237 30 286 215 315 159 137 
47 7 24 142 272 257 232 21 287 
48 7 40 174 67 186 245 188 7 
49 7 290 16 248 303 306 64 269 
50 7 199 32 52 127 185 65 128 
51 7 160 184 170 230 98 19 58 
52 7 173 127 50 32 199 317 143 
53 7 200 92 99 289 117 84 221 
54 7 276 311 263 27 202 254 183 
55 7 196 208 28 281 114 316 34 
56 7 77 125 292 204 305 205 280 
57 7 195 178 251 171 241 121 113 
58 7 129 107 98 2 51 60 160 
59 7 236 182 262 44 36 112 307 
60 7 2 98 166 150 312 250 298 
61 7 297 159 304 93 30 17 46 
62 7 229 131 287 39 224 305 280 
63 7 38 165 108 8 118 39 229 
64 7 145 149 16 194 4 290 78 
65 7 128 199 32 50 185 294 319 
66 7 116 316 31 100 207 208 28 
67 7 174 245 111 228 48 284 40 
68 7 42 198 94 210 12 238 240 
69 7 114 281 196 193 34 15 177 
70 7 224 74 133 179 229 153 95 
71 7 256 33 249 163 239 162 20 
72 7 271 307 262 112 140 9 59 
73 7 124 41 29 219 260 226 266 
74 7 70 133 224 309 95 180 179 
75 7 264 137 135 30 291 315 293 
76 7 21 134 232 311 202 276 142 
77 7 125 56 292 204 205 305 296 
78 7 295 194 161 269 149 306 145 
79 7 221 289 188 92 117 53 175 
80 7 147 136 319 294 164 140 90 
81 7 154 3 162 96 261 209 249 
82 7 15 281 114 196 55 69 230 
83 7 187 6 5 259 288 91 244 
84 7 117 53 92 135 200 175 289 
85 7 167 10 206 151 274 212 22 
86 7 268 152 197 279 178 121 106 
87 7 41 169 226 260 219 124 14 
88 7 119 17 223 209 43 261 304 
89 7 14 191 278 122 189 258 169 
90 7 9 140 234 136 147 164 318 
91 7 288 259 216 138 172 273 110 
92 7 289 53 117 221 200 79 84 
93 7 297 159 61 30 291 75 304 
94 7 42 240 168 210 310 68 217 
95 7 293 179 264 132 74 153 291 
96 7 20 233 81 249 162 154 3 
97 7 320 267 157 258 191 18 89 
98 7 150 2 60 160 218 51 58 
99 7 200 53 92 235 289 205 204 
100 7 207 316 66 208 116 213 55 
101 7 176 155 156 37 302 266 241 
102 7 143 242 317 185 139 32 173 
103 7 141 197 211 268 106 279 225 
104 7 105 130 192 13 244 113 146 
105 7 130 104 244 113 302 266 192 
106 7 197 152 268 227 103 141 225 
107 7 129 230 58 177 184 193 51 
108 7 8 38 63 165 229 39 133 
109 7 146 13 192 23 313 228 104 
110 7 19 170 126 51 160 184 216 
111 7 245 67 228 174 186 48 40 
112 7 262 72 271 307 140 164 9 
113 7 302 171 195 57 105 266 130 
114 7 281 69 196 15 82 55 34 
115 7 314 299 243 251 241 57 195 
116 7 316 66 208 28 31 100 55 
117 7 92 84 53 175 289 221 200 
118 7 257 39 272 24 142 287 47 
119 7 209 43 261 88 154 217 81 
120 7 321 12 222 238 210 301 247 
121 7 178 192 13 57 195 86 171 
122 7 189 89 278 14 191 25 283 
123 7 282 26 265 255 211 148 141 
124 7 73 41 29 219 226 260 266 
125 7 77 56 292 204 205 305 296 
126 7 19 170 270 275 110 144 218 
127 7 52 50 199 32 173 65 185 
128 7 65 185 294 32 199 319 50 
129 7 58 107 177 193 231 230 184 
130 7 105 104 244 266 113 302 29 
131 7 280 305 62 56 287 202 21 
132 7 95 293 291 309 74 180 264 
133 7 74 224 70 180 309 229 8 
134 7 232 76 21 47 311 142 24 
135 6 181 84 175 117 137 153 
136 7 147 80 164 140 319 294 90 
137 6 315 237 181 215 286 30 
138 7 216 172 288 273 91 161 259 
139 7 317 242 143 173 102 52 54 
140 7 164 9 90 136 112 147 271 
141 7 103 211 225 197 106 123 45 
142 7 24 47 272 257 287 21 232 
143 7 242 317 102 139 173 52 185 
144 7 270 218 150 126 98 312 160 
145 7 149 194 64 4 78 295 260 
146 7 109 13 192 23 104 121 313 
147 7 80 136 319 294 164 140 90 
148 7 253 3 265 282 255 123 26 
149 7 145 194 4 64 295 6 78 
150 7 98 218 144 270 2 312 60 
151 7 274 22 277 85 167 10 176 
152 7 268 197 106 86 227 103 141 
153 7 179 264 293 84 135 95 70 
154 7 81 162 3 261 209 96 119 
155 7 176 101 156 22 277 37 85 
156 7 241 176 101 155 277 195 171 
157 7 18 258 97 16 191 320 267 
158 7 250 298 27 254 263 183 190 
159 7 61 297 30 93 46 304 237 
160 7 51 98 170 184 150 218 19 
161 7 273 172 295 138 78 216 288 
162 7 249 239 154 81 96 71 33 
163 7 256 188 71 33 284 79 48 
164 7 140 136 147 80 112 90 9 
165 7 38 63 108 8 180 309 39 
166 7 312 60 2 298 150 98 250 
167 7 85 10 206 151 212 274 25 
168 7 310 240 217 94 42 43 210 
169 7 278 87 14 41 37 283 89 
170 7 19 110 126 51 160 184 270 
171 7 113 302 195 57 178 156 121 
172 7 273 138 161 216 288 91 295 
173 7 52 317 139 143 242 127 254 
174 7 67 245 111 228 48 284 40 
175 6 181 117 221 135 92 84 
176 7 155 101 156 241 277 22 274 
177 7 193 231 129 107 69 58 114 
178 7 57 121 195 251 86 171 113 
179 7 153 293 95 264 70 74 224 
180 7 309 133 74 8 132 224 108 
181 6 175 135 137 315 117 84 
182 7 44 36 236 59 214 213 207 
183 7 27 190 263 158 298 202 250 
184 7 230 51 107 160 58 170 15 
185 7 32 199 128 50 65 102 52 
186 7 275 40 48 245 174 67 126 
187 7 83 5 6 219 4 244 288 
188 7 79 163 221 289 256 33 48 
189 7 122 89 14 278 191 25 212 
190 7 183 27 298 263 158 202 250 
191 7 89 258 14 18 97 157 278 
192 7 13 146 121 104 109 23 178 
193 7 177 231 69 107 114 129 34 
194 7 149 145 295 78 64 4 6 
195 7 57 178 251 171 241 156 113 
196 7 281 114 55 69 34 15 208 
197 7 268 106 152 103 86 141 279 
198 7 68 238 308 321 42 12 94 
199 7 32 50 65 185 128 127 52 
200 7 99 53 92 289 117 84 205 
201 7 313 284 20 228 109 23 67 
202 7 311 276 183 190 27 263 54 
203 7 318 234 128 185 294 319 80 
204 7 292 205 99 125 77 235 296 
205 7 204 296 292 99 200 53 125 
206 7 10 212 25 85 167 283 151 
207 7 100 213 316 66 214 208 116 
208 7 28 55 316 116 100 196 66 
209 7 119 261 43 217 154 88 81 
210 7 301 42 12 94 247 222 321 
211 7 141 103 123 282 265 225 197 
212 7 25 206 10 167 85 283 151 
213 7 214 207 100 66 182 44 316 
214 7 213 207 36 44 182 100 66 
215 6 286 237 315 137 46 239 
216 7 138 91 172 288 273 259 161 
217 7 310 168 240 261 43 209 94 
218 7 270 144 150 98 160 312 126 
219 7 260 226 73 124 41 4 5 
220 7 235 7 99 40 289 200 79 
221 7 289 79 92 117 53 175 188 
222 7 301 12 247 120 321 210 26 
223 7 17 304 88 119 61 43 209 
224 7 70 74 133 229 179 62 95 
225 7 45 141 26 106 123 103 211 
226 7 260 219 41 4 73 124 87 
227 7 106 152 300 45 197 246 268 
228 7 67 111 245 174 313 109 201 
229 7 62 224 133 8 70 108 39 
230 7 184 107 51 15 160 58 82 
231 7 193 177 69 129 34 252 107 
232 7 134 21 76 47 142 24 272 
233 7 20 96 265 211 282 3 123 
234 7 318 90 9 203 147 80 136 
235 7 220 7 99 200 204 289 53 
236 7 182 44 36 59 262 307 112 
237 6 286 215 315 46 137 30 
238 7 321 198 120 12 68 210 42 
239 7 249 162 33 286 215 71 256 
240 7 168 310 94 217 42 43 210 
241 7 156 243 195 277 176 57 251 
242 7 143 317 102 139 173 52 185 
243 7 299 115 251 241 314 277 156 
244 7 130 105 104 73 5 29 124 
245 7 67 111 174 228 48 186 40 
246 7 300 45 227 225 222 106 120 
247 7 301 255 26 253 222 210 148 
248 7 303 11 49 290 306 31 269 
249 7 162 239 71 96 33 154 81 
250 7 158 298 27 254 263 183 60 
251 7 299 57 195 243 314 115 178 
252 7 231 34 65 319 193 294 177 
253 7 255 247 148 301 26 282 123 
254 7 263 158 27 250 183 298 173 
255 7 26 247 253 123 282 148 301 
256 7 71 33 163 249 188 239 284 
257 7 24 272 142 47 118 287 39 
258 7 18 157 191 97 14 89 87 
259 7 91 288 138 216 83 172 6 
260 7 226 219 4 41 73 124 87 
261 7 209 43 119 217 3 154 81 
262 7 307 112 72 271 59 140 164 
263 7 27 183 254 158 190 298 250 
264 7 293 75 95 179 153 135 291 
265 7 282 123 148 3 211 255 233 
266 7 29 37 302 130 101 124 113 
267 7 320 97 191 157 35 258 18 
268 7 197 152 86 106 103 279 141 
269 7 306 31 303 290 78 116 66 
270 7 144 218 150 126 98 160 170 
271 7 72 112 262 307 9 140 90 
272 7 24 47 257 142 118 287 39 
273 7 172 161 138 216 288 82 91 
274 7 151 22 277 85 167 176 155 
275 7 186 126 19 40 110 170 270 
276 7 311 54 202 263 183 27 190 
277 7 22 274 151 241 156 176 243 
278 7 14 169 89 283 87 122 191 
279 7 285 23 103 86 268 197 211 
280 7 131 305 202 56 62 76 21 
281 7 114 15 196 69 82 55 34 
282 7 123 265 148 211 255 26 253 
283 7 206 25 212 278 10 155 85 
284 7 201 313 163 174 67 228 48 
285 7 279 23 103 86 268 121 197 
286 6 215 237 315 46 239 137 
287 7 39 257 142 24 272 47 118 
288 7 91 259 138 216 172 273 6 
289 7 221 92 79 53 117 200 99 
290 7 303 49 306 269 16 248 64 
291 7 95 264 75 293 132 93 179 
292 7 204 205 125 77 56 99 296 
293 7 95 264 179 153 132 291 75 
294 7 319 80 128 147 136 65 185 
295 7 78 161 194 273 172 149 6 
296 7 205 204 292 99 200 56 53 
297 7 61 159 304 93 30 17 46 
298 7 250 158 27 190 183 166 263 
299 7 115 314 251 243 57 195 241 
300 7 246 227 45 225 106 222 152 
301 7 247 210 253 222 255 26 12 
302 7 113 171 266 195 101 156 105 
303 7 290 306 248 269 31 49 11 
304 7 17 61 297 223 159 46 30 
305 7 280 131 56 77 125 296 62 
306 7 269 303 31 290 116 78 66 
307 7 262 72 112 271 59 236 140 
308 7 198 68 42 94 240 238 168 
309 7 180 133 74 132 8 224 70 
310 7 168 217 240 94 42 43 210 
311 7 276 54 202 76 263 183 134 
312 7 166 150 2 60 218 98 298 
313 7 201 284 109 228 23 146 20 
314 7 115 299 243 251 57 152 195 
315 6 137 237 215 286 181 46 
316 7 116 208 66 100 28 55 207 
317 7 139 242 143 173 102 52 50 
318 7 234 203 90 9 147 80 136 
319 7 294 80 147 136 128 65 164 
320 7 267 97 157 191 258 18 35 
321 7 120 12 238 222 210 301 68 
DEPOT_SECTION
   1
   -1
EOF
