NAME :  X-n351-kX-w140-c7.cctp
COMMENT : 	Adapted by Maziero, Usberti and Cavellucci from the Uchoa, Pecin, Pessoa, Poggi, Subramanian, and Vidal (2013)
TYPE :  CCTP
DIMENSION :    348
EDGE_WEIGHT_TYPE : 	EUC_2D	
CAPACITY : 	436
VERTICES_WITHIN_COVERAGE :  7
VERTICES_WITH_DEMAND : 	140
NODE_COORD_SECTION
1 500 500
2 740 442
3 261 710
4 578 522
5 562 509
6 795 425
7 636 463
8 645 617
9 595 524
10 649 599
11 745 252
12 180 757
13 590 598
14 332 775
15 544 551
16 1000 444
17 581 521
18 240 609
19 700 468
20 735 579
21 403 569
22 352 905
23 733 352
24 289 705
25 598 249
26 565 570
27 711 336
28 816 497
29 769 411
30 409 651
31 231 742
32 575 555
33 567 477
34 693 537
35 521 534
36 457 414
37 826 450
38 638 617
39 245 744
40 235 859
41 233 821
42 863 455
43 739 480
44 311 717
45 567 373
46 753 427
47 547 493
48 732 382
49 664 511
50 945 316
51 250 770
52 598 493
53 262 653
54 568 558
55 877 808
56 395 796
57 467 732
58 685 327
59 260 910
60 571 648
61 747 398
62 571 650
63 541 442
64 841 466
65 744 725
66 662 349
67 686 543
68 184 776
69 177 770
70 664 559
71 802 446
72 110 559
73 662 566
74 605 544
75 287 671
76 556 738
77 615 511
78 293 693
79 375 671
80 383 614
81 834 417
82 704 397
83 255 696
84 708 388
85 799 172
86 298 531
87 740 456
88 661 582
89 664 398
90 659 461
91 630 290
92 267 721
93 682 474
94 269 639
95 577 361
96 540 550
97 370 733
98 546 587
99 708 412
100 724 572
101 416 688
102 544 794
103 714 478
104 916 502
105 313 770
106 464 361
107 356 921
108 776 470
109 477 721
110 733 447
111 724 495
112 272 792
113 491 471
114 348 505
115 168 309
116 595 628
117 227 720
118 781 585
119 228 680
120 807 595
121 582 503
122 327 603
123 505 586
124 235 788
125 135 677
126 716 440
127 221 678
128 633 421
129 826 476
130 879 350
131 738 475
132 676 446
133 388 669
134 465 690
135 543 422
136 675 544
137 770 613
138 309 590
139 434 594
140 647 551
141 468 405
142 0 863
143 663 582
144 209 755
145 966 516
146 580 593
147 221 558
148 230 594
149 329 768
150 786 523
151 636 512
152 704 474
153 819 376
154 516 472
155 724 505
156 565 501
157 404 589
158 663 527
159 901 693
160 254 640
161 726 813
162 253 708
163 269 730
164 823 519
165 586 689
166 739 421
167 706 519
168 726 423
169 614 525
170 239 690
171 643 328
172 793 426
173 221 731
174 290 732
175 709 310
176 654 492
177 745 370
178 459 639
179 618 570
180 613 528
181 652 434
182 258 637
183 722 421
184 837 321
185 68 544
186 191 686
187 535 578
188 242 624
189 371 387
190 835 757
191 671 445
192 764 425
193 771 480
194 242 763
195 670 520
196 580 482
197 292 823
198 547 443
199 807 780
200 520 622
201 555 484
202 747 340
203 228 846
204 760 446
205 734 451
206 604 277
207 790 405
208 680 445
209 741 460
210 244 758
211 632 536
212 600 503
213 562 518
214 672 398
215 620 425
216 852 489
217 577 553
218 235 755
219 879 359
220 187 725
221 724 328
222 775 451
223 283 660
224 195 572
225 830 457
226 205 739
227 733 341
228 884 418
229 434 452
230 716 458
231 495 573
232 579 545
233 228 725
234 604 417
235 420 730
236 626 499
237 555 449
238 326 598
239 551 554
240 177 983
241 794 430
242 771 573
243 135 683
244 487 291
245 239 703
246 789 477
247 273 752
248 521 478
249 677 456
250 505 327
251 453 744
252 321 753
253 509 497
254 749 451
255 633 815
256 796 429
257 341 677
258 797 485
259 571 649
260 276 631
261 857 439
262 587 776
263 750 412
264 752 393
265 338 657
266 206 651
267 170 716
268 831 441
269 104 694
270 809 569
271 591 407
272 605 549
273 201 625
274 300 676
275 548 478
276 637 450
277 706 463
278 788 583
279 611 574
280 176 761
281 404 508
282 798 573
283 614 415
284 257 707
285 780 394
286 729 472
287 547 462
288 379 817
289 539 556
290 498 909
291 275 706
292 726 426
293 269 637
294 780 439
295 724 478
296 832 405
297 229 700
298 223 692
299 512 428
300 623 445
301 763 481
302 817 463
303 755 418
304 655 522
305 720 471
306 286 645
307 320 745
308 111 606
309 289 737
310 636 260
311 184 680
312 679 590
313 256 618
314 200 671
315 264 677
316 326 681
317 102 640
318 229 729
319 553 266
320 519 526
321 692 552
322 709 509
323 547 655
324 794 421
325 189 728
326 565 676
327 326 462
328 687 334
329 298 705
330 582 478
331 737 579
332 458 895
333 663 391
334 394 639
335 352 782
336 621 303
337 268 629
338 440 831
339 748 593
340 400 547
341 268 721
342 226 646
343 578 616
344 648 377
345 446 574
346 502 571
347 574 593
348 459 466
DEMAND_SECTION
2 43
3 82
4 57
5 51
6 29
7 55
8 71
9 35
10 28
11 36
12 18
13 42
14 79
15 88
16 68
17 99
18 10
19 11
20 77
21 68
22 44
23 17
24 60
25 33
26 30
27 37
28 87
29 18
30 6
31 42
32 1
33 22
34 78
35 94
36 65
37 88
38 28
39 29
40 34
41 87
42 47
43 53
44 44
45 34
46 94
47 70
48 41
49 28
50 80
51 32
52 20
53 16
54 70
55 22
56 96
57 81
58 23
59 46
60 2
61 56
62 45
63 66
64 7
65 64
66 73
67 51
68 64
69 81
70 86
71 52
72 76
73 26
74 30
75 3
76 95
77 75
78 85
79 50
80 41
81 1
82 42
83 1
84 47
85 34
86 13
87 1
88 31
89 56
90 63
91 39
92 87
93 8
94 67
95 66
96 11
97 38
98 94
99 57
100 43
101 56
102 18
103 77
104 39
105 30
106 42
107 90
108 62
109 95
110 66
111 84
112 9
113 96
114 63
115 19
116 51
117 50
118 89
119 9
120 6
121 34
122 15
123 20
124 33
125 3
126 87
127 96
128 53
129 24
130 7
131 13
132 94
133 44
134 40
135 56
136 62
137 78
138 50
139 16
140 35
141 21
COVERAGE_SECTION
2 7 110 205 254 87 209 46 204 
3 7 284 162 92 341 83 291 163 
4 7 17 213 9 121 5 232 156 
5 7 156 213 4 121 17 47 201 
6 7 172 256 324 241 207 294 71 
7 7 276 300 90 181 176 236 191 
8 7 38 10 88 143 312 116 73 
9 7 17 4 180 169 74 212 77 
10 7 8 38 88 143 312 73 179 
11 7 175 221 202 227 27 58 85 
12 7 280 69 68 144 325 226 220 
13 7 146 347 343 116 279 26 179 
14 7 149 105 335 252 307 97 309 
15 7 96 289 239 54 26 187 35 
16 7 145 104 228 42 50 261 219 
17 7 4 9 121 213 5 232 156 
18 7 188 148 313 182 160 337 293 
19 7 152 277 103 93 230 305 249 
20 7 331 100 339 242 118 137 321 
21 7 157 340 139 345 80 281 334 
22 7 107 59 288 197 332 338 56 
23 7 227 202 177 221 27 48 84 
24 7 329 78 291 44 341 92 174 
25 7 206 310 319 91 336 171 95 
26 7 54 32 217 239 98 347 146 
27 7 221 227 328 175 23 58 202 
28 7 258 129 164 246 302 216 64 
29 7 192 303 263 285 207 46 264 
30 7 334 133 101 79 80 178 139 
31 7 318 39 218 173 233 210 117 
32 7 217 54 232 26 239 15 272 
33 7 196 201 330 275 156 287 47 
34 7 67 321 136 167 195 158 322 
35 7 320 96 289 15 239 253 346 
36 7 141 229 348 106 299 113 154 
37 7 225 268 302 64 71 129 261 
38 7 8 10 88 143 116 312 179 
39 7 31 210 218 194 318 233 51 
40 7 203 41 59 197 124 112 51 
41 7 203 124 40 112 51 194 197 
42 7 261 64 225 268 216 37 129 
43 7 131 286 295 209 111 305 87 
44 7 329 24 174 307 78 309 252 
45 7 95 271 135 234 283 198 63 
46 7 303 192 166 263 2 204 29 
47 7 201 275 156 5 33 213 248 
48 7 177 61 264 84 23 82 263 
49 7 195 304 158 176 151 136 34 
50 6 130 219 184 228 16 153 
51 7 194 210 218 124 39 247 112 
52 7 212 121 196 330 77 236 9 
53 7 160 94 182 293 223 315 306 
54 7 32 217 26 232 239 15 96 
55 7 190 199 159 161 65 137 120 
56 7 288 335 338 14 97 235 149 
57 7 109 251 134 235 101 76 178 
58 7 328 27 175 66 221 171 227 
59 7 40 203 22 41 197 107 240 
60 7 259 62 323 326 116 343 165 
61 7 264 263 48 303 166 29 177 
62 7 259 60 323 326 116 343 165 
63 7 198 237 135 287 299 275 154 
64 7 225 129 37 302 42 216 268 
65 7 199 161 190 137 339 255 120 
66 7 171 328 344 58 333 89 214 
67 7 34 136 321 70 158 195 167 
68 7 69 280 12 144 226 325 220 
69 7 68 280 12 144 226 325 220 
70 7 73 136 140 88 143 67 321 
71 7 241 256 6 172 294 302 37 
72 7 185 308 317 224 147 273 125 
73 7 70 88 143 140 136 312 67 
74 7 272 180 169 9 232 211 179 
75 7 223 274 78 315 306 53 24 
76 7 262 102 165 326 109 323 57 
77 7 169 236 180 212 151 9 52 
78 7 24 329 274 291 75 44 315 
79 7 133 257 334 30 265 101 316 
80 7 334 157 30 21 133 139 122 
81 7 296 268 261 37 6 225 256 
82 7 84 99 183 48 214 168 292 
83 7 284 162 3 170 245 315 291 
84 7 82 99 48 183 214 168 61 
85 6 11 184 175 221 202 227 
86 7 114 138 238 327 122 147 148 
87 7 209 205 254 110 2 131 286 
88 7 143 73 312 10 70 140 8 
89 7 333 214 344 181 128 82 84 
90 7 249 191 7 132 276 93 208 
91 7 336 206 310 171 25 58 66 
92 7 341 163 3 284 291 162 174 
93 7 19 249 152 90 277 132 208 
94 7 293 337 182 260 160 53 306 
95 7 45 271 234 283 135 336 344 
96 7 15 289 239 35 187 54 26 
97 7 235 307 335 252 149 14 44 
98 7 187 26 347 289 239 146 15 
99 7 82 183 168 292 84 126 166 
100 7 20 331 339 321 34 242 67 
101 7 133 30 235 79 134 334 97 
102 7 262 76 255 57 109 251 338 
103 7 305 295 152 286 19 277 111 
104 7 145 216 42 64 261 228 129 
105 7 149 252 14 307 309 335 174 
106 7 141 36 250 244 299 229 189 
107 7 22 59 332 288 197 338 56 
108 7 193 246 301 222 258 204 294 
109 7 57 134 251 235 101 76 178 
110 7 205 2 87 209 254 126 230 
111 7 155 295 103 43 322 131 286 
112 7 51 124 197 247 194 210 105 
113 7 154 248 253 348 299 275 287 
114 7 327 86 281 340 21 138 238 
115 7 189 327 147 185 72 86 224 
116 7 343 13 60 259 62 146 347 
117 7 233 318 173 297 245 31 298 
118 7 278 242 282 120 137 270 339 
119 7 127 298 170 297 245 314 83 
120 7 278 282 270 118 137 242 339 
121 7 156 17 212 4 52 5 196 
122 7 238 138 265 80 260 306 337 
123 7 346 231 187 200 98 289 96 
124 7 51 194 210 41 218 112 144 
125 7 243 269 311 317 267 186 314 
126 7 292 110 230 168 183 205 2 
127 7 119 298 170 314 297 186 245 
128 7 215 283 181 300 234 276 89 
129 7 302 64 225 28 37 216 258 
130 5 219 184 153 228 296 
131 7 43 286 295 209 305 87 103 
132 7 208 191 249 90 181 93 19 
133 7 79 30 334 101 257 265 80 
134 7 109 57 101 178 251 235 30 
135 7 63 198 237 299 287 271 45 
136 7 67 34 70 321 158 195 73 
137 7 118 339 278 242 120 331 20 
138 7 238 122 260 337 86 306 313 
139 7 345 157 21 178 80 340 334 
140 7 70 73 211 136 158 304 88 
141 7 36 106 299 229 348 113 135 
142 7 269 69 280 68 12 240 243 
143 7 88 73 312 10 70 140 8 
144 7 226 31 218 173 12 68 318 
145 7 104 16 216 42 228 261 64 
146 7 347 13 343 26 98 279 54 
147 7 224 148 18 188 313 273 86 
148 7 18 188 313 147 224 273 182 
149 7 14 105 252 307 335 309 174 
150 7 164 28 258 193 246 301 270 
151 7 236 77 304 211 169 176 49 
152 7 19 103 277 305 230 295 93 
153 4 296 207 285 81 
154 7 248 113 253 275 287 47 63 
155 7 111 322 167 295 43 103 131 
156 7 5 121 213 47 201 33 196 
157 7 21 139 80 340 345 334 30 
158 7 304 195 49 136 67 140 151 
159 7 190 55 199 120 137 270 278 
160 7 182 53 94 293 337 188 313 
161 7 199 65 255 190 262 55 102 
162 7 284 3 83 245 92 341 291 
163 7 92 341 174 309 3 247 291 
164 7 28 150 216 129 258 270 246 
165 7 326 62 259 60 323 76 116 
166 7 168 263 292 46 303 183 2 
167 7 322 34 155 111 67 195 321 
168 7 292 183 166 126 99 2 110 
169 7 180 77 9 74 211 151 212 
170 7 245 297 119 298 83 127 162 
171 7 66 336 91 58 328 344 206 
172 7 6 241 256 324 294 207 71 
173 7 318 233 117 31 226 39 144 
174 7 309 163 92 341 44 247 24 
175 7 221 27 58 328 227 23 202 
176 7 49 151 236 304 90 195 93 
177 7 48 23 264 61 202 227 84 
178 7 30 134 139 200 101 334 345 
179 7 279 272 74 140 211 13 10 
180 7 169 77 9 74 211 272 151 
181 7 191 276 128 132 90 208 300 
182 7 160 94 293 337 53 260 313 
183 7 168 292 99 166 126 2 110 
184 4 130 219 153 296 
185 7 72 308 317 224 125 147 243 
186 7 311 314 127 298 119 267 266 
187 7 98 289 15 96 239 26 123 
188 7 18 313 160 182 337 342 293 
189 7 327 36 229 106 141 348 114 
190 7 199 55 159 65 161 137 120 
191 7 132 208 249 90 181 93 276 
192 7 46 303 29 263 204 294 166 
193 7 301 108 246 258 222 43 131 
194 7 210 51 218 39 31 124 247 
195 7 158 49 304 136 67 34 176 
196 7 330 33 52 121 156 201 212 
197 7 112 105 41 14 149 40 124 
198 7 63 237 287 135 275 299 33 
199 7 190 55 65 161 159 137 255 
200 7 123 323 98 187 346 231 60 
201 7 275 47 33 156 287 196 5 
202 7 227 23 221 177 27 48 175 
203 7 40 41 124 197 112 59 51 
204 7 254 222 2 46 192 294 87 
205 7 110 87 2 209 254 230 126 
206 7 25 91 336 310 319 171 95 
207 7 285 324 6 172 29 241 256 
208 7 132 191 249 90 93 19 181 
209 7 87 205 254 110 131 286 2 
210 7 194 218 51 39 31 247 124 
211 7 140 169 180 151 304 74 77 
212 7 52 77 121 9 17 169 236 
213 7 5 4 156 17 121 47 232 
214 7 89 333 82 344 84 99 181 
215 7 283 128 234 300 276 181 271 
216 7 64 129 42 28 225 164 302 
217 7 32 232 54 26 239 272 74 
218 7 210 194 31 39 51 144 318 
219 6 130 184 228 153 296 81 
220 7 325 267 226 12 173 144 280 
221 7 27 227 175 23 202 328 58 
222 7 294 204 108 254 71 192 241 
223 7 75 306 53 274 94 315 293 
224 7 147 148 273 18 188 313 266 
225 7 37 64 302 268 129 71 261 
226 7 144 173 325 220 31 318 233 
227 7 23 202 221 27 177 175 48 
228 7 261 42 81 296 268 219 64 
229 7 348 36 141 113 281 299 154 
230 7 277 305 126 19 205 286 103 
231 7 346 123 187 35 289 345 96 
232 7 217 32 54 4 17 9 74 
233 7 318 117 173 31 39 245 297 
234 7 283 271 215 128 300 276 181 
235 7 251 101 57 97 109 134 133 
236 7 77 151 212 52 169 176 180 
237 7 198 287 63 33 135 275 201 
238 7 122 138 80 260 265 306 337 
239 7 15 96 289 54 26 32 217 
240 7 59 40 203 41 107 22 197 
241 7 256 172 6 324 294 71 207 
242 7 118 278 282 339 331 20 270 
243 7 125 269 267 311 317 186 314 
244 7 250 319 106 95 45 141 206 
245 7 297 170 162 83 284 298 117 
246 7 258 108 193 301 222 302 28 
247 7 163 309 174 39 51 210 341 
248 7 154 253 275 47 113 287 201 
249 7 132 208 191 90 93 19 277 
250 7 244 106 45 319 95 141 36 
251 7 57 109 235 134 101 56 97 
252 7 307 149 105 14 309 44 174 
253 7 248 154 320 113 47 35 275 
254 7 87 204 209 2 205 110 46 
255 7 262 102 161 76 165 65 326 
256 7 241 6 172 324 71 294 207 
257 7 316 265 79 274 133 44 78 
258 7 246 28 108 193 129 302 301 
259 7 60 62 323 326 116 343 165 
260 7 337 293 94 306 182 160 313 
261 7 42 268 64 81 225 37 228 
262 7 102 76 255 165 326 109 62 
263 7 303 61 166 46 29 192 264 
264 7 61 263 48 177 29 303 285 
265 7 257 316 79 274 133 75 306 
266 7 314 342 273 127 119 311 186 
267 7 220 325 186 311 12 226 280 
268 7 37 225 81 261 302 64 71 
269 7 243 125 317 267 311 186 308 
270 7 282 278 120 118 242 150 164 
271 7 234 283 215 45 128 95 135 
272 7 74 180 179 169 232 279 9 
273 7 266 342 188 18 148 314 224 
274 7 75 78 223 316 329 24 306 
275 7 201 47 287 33 248 156 237 
276 7 7 300 181 90 128 215 191 
277 7 19 152 230 305 103 295 126 
278 7 118 282 242 120 270 137 339 
279 7 179 272 74 13 146 217 32 
280 7 12 69 68 144 325 226 220 
281 7 340 114 21 229 348 345 157 
282 7 270 278 118 120 242 137 150 
283 7 234 215 128 271 300 181 276 
284 7 162 3 83 92 245 291 341 
285 7 207 29 264 324 61 6 172 
286 7 295 131 305 43 103 209 87 
287 7 237 275 198 63 201 33 47 
288 7 56 335 14 338 149 105 97 
289 7 96 15 239 187 35 54 26 
290 7 332 338 102 107 22 288 56 
291 7 24 3 92 341 284 78 83 
292 7 168 183 166 126 2 110 99 
293 7 94 337 260 182 160 53 306 
294 7 222 241 172 256 6 192 204 
295 7 286 305 103 131 43 111 152 
296 7 81 153 268 324 6 207 261 
297 7 245 298 170 117 119 127 162 
298 7 297 119 127 170 245 117 314 
299 7 63 135 198 154 113 237 287 
300 7 276 215 7 128 181 283 234 
301 7 193 108 43 131 246 209 222 
302 7 225 37 129 71 64 268 258 
303 7 263 46 192 29 166 61 264 
304 7 158 49 195 151 211 136 140 
305 7 295 103 286 230 152 277 131 
306 7 223 260 94 293 337 53 75 
307 7 252 149 105 44 14 309 174 
308 7 317 72 125 185 243 269 224 
309 7 174 163 247 341 92 44 24 
310 7 91 206 25 336 171 58 319 
311 7 186 314 266 127 267 298 119 
312 7 143 88 73 10 70 321 8 
313 7 188 337 18 182 160 293 260 
314 7 186 311 266 127 119 298 342 
315 7 83 53 75 223 170 284 291 
316 7 257 274 265 78 329 44 75 
317 7 308 125 243 269 72 311 186 
318 7 233 173 117 31 39 226 218 
319 7 25 206 244 336 250 91 310 
320 7 35 253 96 15 289 47 239 
321 7 67 34 136 70 73 167 100 
322 7 167 155 111 103 34 295 152 
323 7 60 62 259 326 200 343 165 
324 7 6 172 256 241 207 294 71 
325 7 220 226 267 12 173 144 280 
326 7 165 62 259 323 60 116 343 
327 7 114 86 189 281 229 340 138 
328 7 58 27 66 175 221 171 227 
329 7 24 78 44 291 174 274 309 
330 7 196 33 52 121 201 156 212 
331 7 20 100 339 242 118 137 278 
332 7 290 338 107 22 288 56 102 
333 7 89 214 344 82 66 128 181 
334 7 30 80 133 79 157 101 265 
335 7 14 149 105 252 288 56 307 
336 7 91 206 171 310 25 66 58 
337 7 260 293 94 182 313 160 306 
338 7 56 288 332 251 290 335 57 
339 7 331 20 137 242 100 118 278 
340 7 21 281 157 345 139 114 80 
341 7 92 163 3 291 284 162 174 
342 7 266 188 160 127 182 273 119 
343 7 116 13 146 347 60 259 62 
344 7 333 89 66 214 128 171 283 
345 7 139 21 157 231 340 346 123 
346 7 231 123 187 289 35 96 15 
347 7 146 13 343 26 98 54 32 
348 7 229 113 36 154 253 141 248 
DEPOT_SECTION
   1
   -1
EOF
