NAME :  X-n303-kX-w60-c7.cctp
COMMENT : 	Adapted by Maziero, Usberti and Cavellucci from the Uchoa, Pecin, Pessoa, Poggi, Subramanian, and Vidal (2013)
TYPE :  CCTP
DIMENSION :    268
EDGE_WEIGHT_TYPE : 	EUC_2D	
CAPACITY : 	794
VERTICES_WITHIN_COVERAGE :  7
VERTICES_WITH_DEMAND : 	60
NODE_COORD_SECTION
1 500 500
2 205 638
3 893 161
4 191 775
5 444 871
6 225 445
7 368 543
8 120 270
9 612 902
10 45 323
11 707 182
12 125 720
13 442 388
14 79 759
15 904 76
16 379 849
17 213 595
18 164 686
19 404 947
20 331 615
21 842 156
22 272 297
23 957 227
24 274 481
25 287 544
26 152 403
27 873 146
28 267 415
29 188 727
30 594 742
31 198 429
32 810 797
33 383 602
34 459 786
35 50 183
36 395 836
37 600 866
38 192 744
39 12 705
40 869 99
41 233 811
42 235 638
43 423 904
44 220 619
45 236 713
46 960 141
47 128 321
48 160 230
49 200 650
50 104 544
51 375 638
52 540 726
53 635 790
54 512 597
55 643 517
56 327 750
57 198 412
58 375 558
59 123 259
60 365 859
61 545 700
62 242 431
63 140 412
64 316 413
65 892 246
66 331 828
67 676 810
68 211 378
69 808 113
70 129 655
71 84 714
72 416 784
73 151 243
74 275 442
75 46 355
76 182 746
77 158 717
78 198 648
79 137 763
80 206 872
81 30 301
82 979 214
83 384 855
84 212 794
85 35 779
86 108 640
87 186 930
88 231 796
89 402 932
90 166 237
91 341 803
92 559 851
93 883 143
94 395 327
95 382 787
96 341 784
97 81 261
98 379 700
99 721 333
100 312 756
101 424 573
102 596 878
103 273 514
104 281 417
105 125 528
106 464 893
107 140 413
108 256 250
109 206 384
110 204 563
111 202 159
112 283 520
113 214 494
114 854 142
115 502 839
116 599 889
117 485 898
118 339 73
119 396 959
120 234 702
121 811 101
122 266 346
123 185 436
124 61 374
125 843 188
126 156 795
127 387 889
128 622 16
129 327 991
130 867 172
131 329 496
132 930 115
133 371 317
134 416 575
135 408 744
136 98 434
137 239 775
138 231 748
139 251 398
140 311 725
141 913 135
142 928 399
143 444 596
144 337 519
145 294 981
146 625 824
147 153 530
148 124 342
149 615 881
150 454 888
151 639 789
152 48 353
153 200 704
154 50 483
155 269 610
156 54 300
157 346 588
158 617 832
159 867 63
160 304 240
161 129 675
162 293 547
163 110 597
164 868 126
165 190 760
166 894 162
167 209 696
168 400 495
169 283 657
170 649 872
171 198 370
172 904 169
173 511 600
174 224 441
175 627 952
176 7 213
177 155 218
178 593 802
179 616 902
180 230 561
181 459 554
182 585 595
183 204 614
184 425 539
185 430 850
186 498 758
187 437 622
188 107 483
189 119 764
190 265 615
191 547 481
192 324 762
193 723 745
194 163 928
195 308 513
196 339 599
197 316 598
198 183 159
199 325 348
200 595 727
201 303 866
202 350 700
203 920 82
204 105 238
205 111 18
206 88 300
207 464 929
208 544 846
209 201 233
210 353 729
211 302 404
212 739 843
213 198 250
214 55 143
215 257 410
216 26 411
217 207 344
218 212 757
219 277 453
220 274 472
221 272 828
222 875 101
223 434 975
224 647 943
225 317 866
226 391 393
227 612 815
228 217 666
229 229 740
230 630 918
231 125 704
232 184 757
233 985 201
234 448 998
235 117 784
236 359 490
237 292 715
238 365 531
239 503 795
240 21 220
241 225 872
242 387 551
243 895 120
244 476 868
245 281 586
246 609 944
247 868 164
248 148 748
249 168 463
250 364 550
251 844 163
252 465 614
253 214 637
254 189 582
255 94 186
256 863 190
257 676 800
258 175 686
259 393 400
260 172 614
261 320 504
262 35 206
263 182 671
264 356 599
265 88 215
266 608 775
267 481 721
268 449 751
DEMAND_SECTION
2 20
3 14
4 85
5 33
6 51
7 78
8 51
9 85
10 74
11 4
12 13
13 2
14 33
15 16
16 31
17 16
18 18
19 3
20 66
21 42
22 65
23 15
24 3
25 38
26 81
27 82
28 83
29 86
30 1
31 59
32 69
33 1
34 58
35 98
36 37
37 65
38 92
39 44
40 86
41 83
42 68
43 52
44 82
45 66
46 34
47 33
48 18
49 39
50 97
51 29
52 6
53 74
54 20
55 2
56 89
57 48
58 53
59 57
60 80
61 26
COVERAGE_SECTION
2 7 253 78 49 44 183 42 228 
3 7 166 172 93 27 247 130 141 
4 7 165 232 84 218 76 38 126 
5 7 150 185 106 244 43 117 36 
6 7 174 62 31 123 57 215 74 
7 7 250 238 58 242 144 157 236 
8 7 59 204 97 73 206 47 48 
9 7 179 116 149 230 102 37 246 
10 7 156 81 152 75 206 124 97 
11 3 69 121 125 
12 7 231 77 248 71 189 79 161 
13 4 259 226 94 133 
14 6 189 71 235 85 79 12 
15 7 203 222 159 40 243 132 141 
16 7 83 60 36 127 185 66 91 
17 7 183 44 254 110 180 253 2 
18 7 258 263 77 161 153 231 167 
19 7 119 89 223 43 127 207 234 
20 7 196 197 264 157 51 33 245 
21 6 251 114 247 130 125 27 
22 5 122 108 160 199 217 
23 6 82 233 65 172 46 166 
24 7 220 219 103 74 112 195 261 
25 7 162 112 103 195 245 261 144 
26 7 63 107 57 123 31 109 171 
27 7 93 114 247 164 3 166 130 
28 7 215 104 139 74 62 211 219 
29 7 38 76 153 232 77 165 167 
30 7 200 266 52 178 53 61 151 
31 7 123 57 174 6 62 249 109 
32 5 212 193 257 67 151 
33 7 264 51 157 134 196 58 101 
34 7 268 72 239 186 135 115 267 
35 7 262 214 255 240 265 176 204 
36 7 16 83 60 185 95 127 72 
37 7 102 149 116 9 158 179 92 
38 7 76 232 165 29 218 4 229 
39 7 71 85 14 231 12 86 161 
40 7 222 164 243 159 15 93 114 
41 7 88 84 137 221 4 218 241 
42 7 253 44 2 228 49 78 190 
43 7 89 150 5 127 106 19 207 
44 7 183 253 2 42 17 78 49 
45 7 120 229 167 138 153 29 218 
46 7 132 141 172 233 243 166 3 
47 7 148 206 8 59 97 156 73 
48 7 90 177 73 209 213 59 204 
49 7 78 2 253 228 263 183 42 
50 5 105 147 163 188 154 
51 7 33 264 20 196 157 98 187 
52 7 61 186 200 30 267 239 266 
53 7 151 266 227 146 257 178 67 
54 7 173 252 143 181 182 187 101 
55 7 182 191 54 173 181 99 252 
56 7 192 100 140 210 96 237 91 
57 7 31 123 109 68 174 171 6 
58 7 242 250 7 238 157 134 33 
59 7 8 204 73 97 48 90 177 
60 7 16 83 127 36 66 225 91 
61 7 52 200 30 267 186 266 239 
62 7 174 6 215 28 139 74 104 
63 7 107 26 136 123 57 249 31 
64 5 211 104 28 74 219 
65 3 256 23 125 
66 6 91 225 96 60 201 16 
67 6 257 151 53 146 158 227 
68 5 109 171 217 57 139 
69 7 121 114 21 164 251 40 222 
70 7 161 86 18 231 258 263 260 
71 7 12 231 14 161 189 79 248 
72 7 95 135 34 268 36 185 16 
73 7 48 90 177 59 8 204 213 
74 7 219 104 28 220 62 215 24 
75 7 152 124 10 81 156 216 206 
76 7 38 232 165 29 4 218 248 
77 7 18 29 12 248 231 258 76 
78 7 49 2 253 228 263 183 44 
79 6 189 248 235 126 12 232 
80 5 241 87 41 194 84 
81 7 156 10 152 75 206 97 124 
82 7 233 23 46 172 65 166 3 
83 7 16 60 36 127 185 66 5 
84 7 88 41 4 137 218 165 232 
85 7 14 39 71 235 189 79 12 
86 7 70 161 163 231 260 18 71 
87 5 194 80 241 145 41 
88 7 41 84 137 218 4 138 221 
89 7 19 119 43 127 223 207 150 
90 7 48 73 177 209 213 59 8 
91 6 96 66 95 192 56 100 
92 5 208 37 102 116 115 
93 7 27 3 166 164 243 247 114 
94 5 133 226 199 259 13 
95 7 72 96 91 135 36 16 192 
96 6 91 192 56 100 95 66 
97 7 204 8 206 59 156 265 81 
98 7 202 210 135 51 56 140 192 
99 2 11 125 
100 7 192 56 140 96 237 210 91 
101 7 134 143 184 181 242 33 58 
102 7 116 37 149 9 179 92 158 
103 7 112 24 25 195 162 220 261 
104 7 28 211 215 74 64 139 219 
105 4 50 147 188 163 
106 6 150 117 244 5 207 43 
107 7 63 26 136 123 249 57 31 
108 6 160 22 209 213 90 122 
109 6 68 171 57 217 31 139 
110 4 254 180 17 183 
111 7 198 209 177 48 90 213 73 
112 7 103 25 195 162 24 261 220 
113 3 6 174 249 
114 7 21 27 164 251 247 93 130 
115 6 244 208 239 92 117 5 
116 7 102 9 149 179 37 230 170 
117 5 106 244 150 207 5 
118 7 111 160 198 108 209 213 22 
119 7 19 89 223 43 234 127 207 
120 7 45 167 153 229 228 138 29 
121 7 69 40 114 164 21 222 159 
122 5 22 139 199 217 68 
123 6 31 57 249 174 6 26 
124 7 75 152 216 10 136 148 156 
125 4 256 251 130 21 
126 6 79 4 235 232 189 248 
127 7 83 60 43 16 89 36 185 
128 7 11 121 69 159 21 40 114 
129 6 145 119 19 89 223 127 
130 7 247 256 251 27 3 125 166 
131 7 261 144 195 236 238 112 24 
132 7 141 203 243 46 15 93 222 
133 7 94 199 226 259 13 22 160 
134 7 101 143 184 242 33 58 181 
135 7 72 268 95 98 210 34 202 
136 7 63 107 188 26 154 124 216 
137 7 88 138 218 84 41 229 4 
138 7 229 218 137 45 38 165 120 
139 7 215 28 62 104 68 109 74 
140 7 237 56 100 192 210 202 96 
141 7 243 132 93 3 166 172 27 
142 4 65 23 82 233 
143 7 187 252 101 134 181 184 33 
144 7 261 131 195 238 236 7 250 
145 5 129 119 19 201 225 
146 7 158 227 53 151 178 37 266 
147 3 105 50 110 
148 7 47 206 26 124 8 63 107 
149 7 116 102 9 37 179 170 230 
150 7 106 5 244 117 43 207 185 
151 7 53 266 227 146 257 67 158 
152 7 75 124 10 156 81 216 206 
153 7 167 29 258 120 45 263 18 
154 7 188 136 216 50 105 124 147 
155 7 190 245 42 169 197 44 17 
156 7 81 10 206 97 152 75 8 
157 7 196 264 20 197 33 58 250 
158 7 146 227 37 178 53 151 149 
159 7 40 15 222 203 164 243 121 
160 7 108 22 133 209 213 199 122 
161 7 70 231 18 86 12 258 77 
162 7 25 112 195 103 245 261 144 
163 7 86 50 70 260 105 147 161 
164 7 27 114 93 222 40 243 247 
165 7 232 4 38 76 218 29 84 
166 7 3 172 93 27 247 130 141 
167 7 153 120 228 45 258 29 263 
168 5 236 238 184 242 7 
169 7 190 155 42 237 20 120 228 
170 7 149 179 9 37 230 158 102 
171 5 68 109 217 57 26 
172 7 166 3 93 141 247 130 27 
173 7 54 252 143 181 182 187 101 
174 7 6 62 31 57 123 215 28 
175 5 246 224 230 179 9 
176 7 240 262 35 265 214 97 81 
177 7 48 90 73 209 59 204 213 
178 7 227 266 158 146 53 151 30 
179 7 9 116 149 230 102 37 246 
180 5 110 17 254 245 25 
181 7 184 101 143 134 252 54 173 
182 7 54 173 55 61 191 252 200 
183 7 44 17 2 253 260 78 254 
184 7 101 134 181 242 168 58 7 
185 7 5 36 150 83 244 16 43 
186 6 239 267 34 268 52 61 
187 7 143 252 101 134 33 51 181 
188 6 105 136 154 50 249 147 
189 6 79 235 248 14 12 126 
190 7 155 245 42 44 169 197 17 
191 6 55 181 182 54 173 184 
192 6 56 100 96 140 91 210 
193 6 257 67 151 53 212 32 
194 5 87 80 241 126 41 
195 7 261 112 131 144 103 25 162 
196 7 157 264 20 197 33 51 58 
197 7 20 196 157 245 264 155 190 
198 7 111 177 48 209 90 73 213 
199 6 133 122 211 64 94 22 
200 7 30 266 52 61 53 178 151 
201 5 225 66 221 60 91 
202 7 98 210 140 56 237 51 192 
203 7 15 132 243 222 141 40 159 
204 7 59 265 97 8 73 255 177 
205 7 214 198 111 255 35 265 262 
206 7 156 97 8 47 10 59 148 
207 5 106 117 150 43 223 
208 5 92 115 37 102 239 
209 7 213 90 48 177 73 108 111 
210 7 202 56 98 140 192 100 96 
211 6 64 104 28 215 74 139 
212 5 67 257 32 170 193 
213 7 209 90 48 73 177 108 59 
214 7 35 255 262 265 240 176 204 
215 7 28 139 104 62 74 174 211 
216 7 124 75 152 136 154 10 188 
217 5 171 68 109 122 57 
218 7 138 165 38 229 4 232 76 
219 7 74 220 24 104 28 62 215 
220 7 24 219 74 103 112 62 195 
221 5 41 201 88 66 225 
222 7 40 164 243 15 159 93 27 
223 5 234 19 119 89 207 
224 5 175 230 246 179 9 
225 5 201 66 60 221 16 
226 4 259 13 94 64 
227 7 146 158 178 53 151 266 37 
228 7 49 78 253 2 167 42 263 
229 7 138 218 45 137 38 120 29 
230 7 179 9 224 246 175 149 116 
231 7 12 161 77 71 18 70 248 
232 7 165 76 38 4 218 29 248 
233 7 82 23 46 172 141 166 3 
234 4 223 119 19 207 
235 6 189 79 126 14 248 12 
236 6 131 144 168 238 261 7 
237 7 140 100 56 45 192 120 169 
238 7 7 250 58 144 242 236 131 
239 6 186 115 34 208 268 267 
240 7 176 262 35 265 97 81 255 
241 5 80 41 221 87 88 
242 7 58 7 250 238 134 184 101 
243 7 141 93 164 222 40 27 132 
244 7 106 150 117 5 115 185 207 
245 7 155 190 197 162 25 180 20 
246 6 175 230 224 9 179 116 
247 7 130 27 251 3 93 114 166 
248 6 79 77 189 76 12 232 
249 6 123 31 113 107 63 57 
250 7 7 58 238 242 144 157 264 
251 6 21 114 247 125 130 256 
252 7 143 187 173 54 101 181 134 
253 7 2 44 49 78 42 183 228 
254 6 110 17 183 260 180 44 
255 7 265 35 204 214 262 177 97 
256 5 130 125 247 251 21 
257 6 67 151 53 146 227 158 
258 7 18 263 153 77 167 29 49 
259 4 226 13 94 64 
260 7 183 254 2 78 17 49 44 
261 7 131 195 144 112 236 103 24 
262 7 240 35 176 265 255 214 97 
263 7 258 18 49 78 228 167 153 
264 7 157 196 33 20 197 51 58 
265 7 204 255 97 35 262 59 8 
266 7 53 178 151 30 227 200 146 
267 7 186 268 52 61 34 135 239 
268 7 34 135 267 72 186 239 95 
DEPOT_SECTION
   1
   -1
EOF
