NAME :  X-n313-kX-w31-c9.cctp
COMMENT : 	Adapted by Maziero, Usberti and Cavellucci from the Uchoa, Pecin, Pessoa, Poggi, Subramanian, and Vidal (2013)
TYPE :  CCTP
DIMENSION :    165
EDGE_WEIGHT_TYPE : 	EUC_2D	
CAPACITY : 	248
VERTICES_WITHIN_COVERAGE :  9
VERTICES_WITH_DEMAND : 	31
NODE_COORD_SECTION
1 471 44
2 63 475
3 766 504
4 895 595
5 816 377
6 462 590
7 997 596
8 775 993
9 16 97
10 839 348
11 558 896
12 423 912
13 169 411
14 75 602
15 402 52
16 388 208
17 202 39
18 510 841
19 555 484
20 920 633
21 369 718
22 432 696
23 624 872
24 472 323
25 753 701
26 584 440
27 292 665
28 202 310
29 764 255
30 662 486
31 822 575
32 469 13
33 554 82
34 336 745
35 950 229
36 407 932
37 376 632
38 775 98
39 503 855
40 215 73
41 566 78
42 4 517
43 44 457
44 676 337
45 338 568
46 623 911
47 626 931
48 799 942
49 725 430
50 264 347
51 986 595
52 331 362
53 760 436
54 115 641
55 307 764
56 469 817
57 315 388
58 564 25
59 671 892
60 174 403
61 76 671
62 984 939
63 830 579
64 249 590
65 663 347
66 21 500
67 501 372
68 483 270
69 548 281
70 205 745
71 870 931
72 79 105
73 545 62
74 719 128
75 80 366
76 16 732
77 24 521
78 848 600
79 618 577
80 489 239
81 768 731
82 274 30
83 546 837
84 890 640
85 498 448
86 473 5
87 277 752
88 435 254
89 905 275
90 521 401
91 850 425
92 374 186
93 712 433
94 814 730
95 120 490
96 376 534
97 982 560
98 815 625
99 356 868
100 659 994
101 804 110
102 415 517
103 549 366
104 57 742
105 381 700
106 867 408
107 763 186
108 416 56
109 163 73
110 314 748
111 580 852
112 758 736
113 181 234
114 49 83
115 285 233
116 440 768
117 505 113
118 491 864
119 168 63
120 733 735
121 449 717
122 433 647
123 425 754
124 393 883
125 811 550
126 814 654
127 717 660
128 635 947
129 335 108
130 539 903
131 511 845
132 35 140
133 320 660
134 881 701
135 417 880
136 58 45
137 212 89
138 499 821
139 412 963
140 637 812
141 689 881
142 518 897
143 516 903
144 481 843
145 737 665
146 448 906
147 210 251
148 490 816
149 624 845
150 843 646
151 536 845
152 450 944
153 484 809
154 118 296
155 416 911
156 656 825
157 244 245
158 378 177
159 585 960
160 348 762
161 302 277
162 672 914
163 381 465
164 565 560
165 65 87
DEMAND_SECTION
2 94
3 56
4 73
5 25
6 4
7 97
8 82
9 57
10 41
11 98
12 45
13 86
14 5
15 83
16 99
17 78
18 64
19 44
20 69
21 25
22 44
23 64
24 59
25 72
26 10
27 26
28 56
29 1
30 41
31 69
32 62
COVERAGE_SECTION
2 9 43 66 95 77 42 75 13 14 60 
3 8 125 53 49 93 31 63 30 91 
4 9 20 84 78 63 150 31 98 51 97 
5 9 10 91 106 53 49 93 29 89 3 
6 8 122 102 37 96 164 22 45 121 
7 9 51 97 20 4 84 78 134 150 63 
8 6 48 71 100 162 141 59 
9 5 114 132 165 72 136 
10 9 5 106 91 89 53 29 49 93 35 
11 7 130 142 143 111 151 83 46 
12 7 155 36 146 135 124 152 139 
13 9 60 95 75 28 50 2 154 43 57 
14 9 54 61 77 42 66 95 2 104 76 
15 9 108 32 86 129 117 158 82 92 73 
16 9 92 158 88 80 115 161 68 129 24 
17 5 40 119 137 109 82 
18 9 131 39 138 151 144 118 148 83 153 
19 8 26 85 164 90 30 79 103 67 
20 8 84 4 51 134 150 78 7 97 
21 9 105 34 160 110 22 123 133 55 121 
22 8 121 122 105 123 21 116 37 160 
23 9 149 46 111 59 156 47 140 162 141 
24 8 68 67 88 80 69 103 90 85 
25 5 81 112 120 145 127 
26 9 19 90 103 85 30 67 164 65 93 
27 9 133 64 110 87 37 34 21 105 55 
28 8 147 50 157 113 154 60 161 13 
29 8 107 10 44 5 74 65 89 101 
30 8 93 49 26 79 3 19 53 164 
31 7 63 125 78 98 150 4 126 
32 8 86 108 15 73 58 117 33 41 
33 6 41 73 58 117 32 86 
34 7 160 110 55 21 87 105 133 
35 9 89 10 29 101 107 106 5 38 91 
36 7 155 12 139 152 146 124 135 
37 9 122 133 105 45 22 21 27 6 96 
38 4 101 74 107 29 
39 6 131 118 18 144 138 151 
40 4 137 17 119 109 
41 5 33 73 58 117 32 
42 9 77 66 2 43 14 95 54 75 61 
43 8 2 66 77 42 95 75 13 60 
44 8 65 93 49 29 53 103 26 69 
45 9 96 37 64 102 133 27 163 122 6 
46 8 47 128 23 162 59 159 149 11 
47 7 128 46 162 159 23 59 100 
48 3 8 71 141 
49 9 93 53 30 3 65 5 44 91 10 
50 9 57 52 28 161 157 60 147 13 115 
51 9 7 97 20 4 84 78 134 150 63 
52 9 57 50 161 163 115 28 24 157 88 
53 9 49 93 3 5 91 30 106 10 125 
54 8 61 14 104 76 70 64 77 95 
55 5 110 87 34 160 21 
56 6 153 148 144 138 18 131 
57 9 52 50 163 161 28 60 13 96 115 
58 6 73 41 33 86 32 117 
59 7 141 162 23 46 47 128 149 
60 9 13 28 75 95 50 154 2 43 57 
61 7 54 14 104 76 70 77 42 
62 3 71 48 8 
63 8 31 78 125 98 4 150 126 84 
64 9 27 45 133 37 96 54 70 95 87 
65 8 44 93 49 103 26 53 69 29 
66 8 77 42 2 43 95 14 75 54 
67 8 90 103 24 85 69 68 26 19 
68 7 80 88 24 69 67 16 103 
69 6 68 80 103 24 67 88 
70 4 87 55 110 27 
71 3 48 8 62 
72 5 165 114 132 9 136 
73 7 33 41 58 117 32 86 108 
74 4 38 107 101 29 
75 6 154 43 13 60 2 95 
76 4 104 61 54 14 
77 9 42 66 2 43 14 95 54 61 75 
78 9 63 31 98 150 4 84 125 126 20 
79 2 164 30 
80 6 68 88 69 24 16 92 
81 4 112 25 120 94 
82 6 17 40 137 129 119 109 
83 6 151 18 131 111 39 138 
84 8 20 4 150 78 134 98 126 63 
85 9 90 19 67 26 103 102 163 24 164 
86 8 32 108 15 73 58 33 117 41 
87 6 55 110 34 70 160 27 
88 9 68 80 16 24 92 158 69 67 161 
89 9 35 10 5 106 29 91 107 101 53 
90 8 67 103 85 26 19 24 69 68 
91 9 106 5 10 53 3 49 125 93 31 
92 7 158 16 129 88 115 161 80 
93 9 49 53 30 3 65 44 5 26 91 
94 4 81 112 25 134 
95 9 2 43 13 66 77 60 42 14 75 
96 9 102 45 163 37 6 122 133 64 85 
97 9 51 7 4 20 84 78 63 31 150 
98 7 126 150 78 63 31 125 84 
99 4 124 135 155 12 
100 7 128 47 159 162 46 59 8 
101 6 38 107 74 29 35 89 
102 9 96 163 6 45 85 37 122 19 164 
103 8 90 67 26 69 24 85 65 68 
104 4 76 61 54 14 
105 9 21 22 34 37 121 123 160 133 122 
106 9 91 5 10 53 89 3 49 125 93 
107 5 29 74 101 38 89 
108 9 15 32 86 129 117 158 73 92 33 
109 3 119 17 40 
110 7 55 34 87 160 21 105 27 
111 5 83 149 151 23 11 
112 4 81 120 25 94 
113 3 147 157 28 
114 5 165 9 72 136 132 
115 6 157 161 147 92 113 16 
116 6 123 121 56 153 148 22 
117 8 33 73 41 32 58 108 86 15 
118 4 39 144 131 18 
119 3 109 17 40 
120 3 112 81 25 
121 7 22 123 116 105 122 21 153 
122 9 22 37 6 121 105 21 123 133 116 
123 6 116 121 22 21 105 56 
124 6 135 155 99 12 36 146 
125 6 31 63 78 3 98 4 
126 8 98 150 78 94 25 63 84 145 
127 2 145 25 
128 7 47 46 162 159 100 59 23 
129 6 158 15 92 108 82 16 
130 5 11 142 143 151 39 
131 8 18 39 151 138 118 144 83 148 
132 4 9 72 114 165 
133 9 27 37 105 21 34 110 45 64 87 
134 5 84 150 94 20 126 
135 5 124 155 12 146 36 
136 4 114 165 72 9 
137 3 40 17 119 
138 9 148 153 18 131 144 56 39 118 151 
139 5 36 152 12 155 146 
140 4 156 149 23 111 
141 7 59 162 156 23 46 149 47 
142 4 143 130 11 118 
143 3 142 130 11 
144 7 118 39 138 148 18 56 131 
145 2 127 25 
146 4 12 155 152 135 
147 4 113 157 28 115 
148 8 153 138 56 144 18 131 39 118 
149 6 23 140 156 111 46 59 
150 9 126 98 78 84 134 63 4 31 20 
151 8 83 131 18 39 138 111 118 148 
152 4 146 12 139 36 
153 7 148 56 138 144 18 131 39 
154 4 75 28 113 147 
155 7 12 36 135 146 124 152 139 
156 4 140 149 23 141 
157 5 147 115 113 161 28 
158 9 92 16 129 88 115 161 15 80 108 
159 6 47 128 46 11 130 100 
160 7 34 110 55 21 105 87 123 
161 8 115 157 50 52 147 28 16 57 
162 6 59 141 46 47 128 23 
163 9 102 96 57 45 52 85 6 67 90 
164 5 79 19 6 26 30 
165 5 114 72 136 9 132 
DEPOT_SECTION
   1
   -1
EOF
