NAME :  X-n313-kX-w124-c11.cctp
COMMENT : 	Adapted by Maziero, Usberti and Cavellucci from the Uchoa, Pecin, Pessoa, Poggi, Subramanian, and Vidal (2013)
TYPE :  CCTP
DIMENSION :    288
EDGE_WEIGHT_TYPE : 	EUC_2D	
CAPACITY : 	248
VERTICES_WITHIN_COVERAGE :  11
VERTICES_WITH_DEMAND : 	124
NODE_COORD_SECTION
1 471 44
2 63 475
3 766 504
4 895 595
5 816 377
6 462 590
7 997 596
8 775 993
9 16 97
10 839 348
11 558 896
12 423 912
13 169 411
14 75 602
15 402 52
16 388 208
17 202 39
18 510 841
19 555 484
20 920 633
21 369 718
22 432 696
23 624 872
24 472 323
25 753 701
26 584 440
27 292 665
28 202 310
29 764 255
30 662 486
31 822 575
32 469 13
33 640 165
34 814 886
35 554 82
36 336 745
37 950 229
38 142 835
39 407 932
40 69 205
41 86 764
42 202 165
43 376 632
44 639 987
45 775 98
46 503 855
47 38 960
48 215 73
49 566 78
50 4 517
51 44 457
52 676 337
53 338 568
54 623 911
55 626 931
56 97 43
57 799 942
58 725 430
59 93 953
60 264 347
61 986 595
62 631 614
63 331 362
64 158 793
65 760 436
66 115 641
67 307 764
68 469 817
69 315 388
70 906 830
71 564 25
72 88 246
73 671 892
74 181 139
75 723 784
76 609 798
77 174 403
78 76 671
79 984 939
80 830 579
81 3 893
82 176 164
83 625 158
84 249 590
85 663 347
86 21 500
87 501 372
88 572 218
89 483 270
90 604 201
91 548 281
92 205 745
93 125 178
94 870 931
95 276 846
96 759 839
97 79 105
98 218 992
99 277 797
100 545 62
101 161 102
102 1 827
103 719 128
104 80 366
105 16 732
106 24 521
107 848 600
108 585 594
109 618 577
110 44 300
111 489 239
112 479 978
113 768 731
114 274 30
115 546 837
116 890 640
117 594 308
118 878 716
119 498 448
120 145 96
121 54 935
122 473 5
123 906 899
124 277 752
125 435 254
126 630 686
127 905 275
128 521 401
129 850 425
130 374 186
131 712 433
132 814 730
133 681 74
134 120 490
135 297 816
136 376 534
137 982 560
138 1 332
139 815 625
140 356 868
141 659 994
142 804 110
143 415 517
144 106 844
145 549 366
146 57 742
147 848 739
148 381 700
149 442 808
150 867 408
151 67 930
152 763 186
153 581 91
154 416 56
155 729 620
156 163 73
157 160 129
158 314 748
159 580 852
160 464 768
161 718 885
162 758 736
163 489 891
164 110 40
165 279 995
166 184 123
167 181 234
168 49 83
169 869 742
170 708 854
171 945 830
172 285 233
173 440 768
174 205 96
175 505 113
176 154 171
177 574 757
178 491 864
179 168 63
180 1 235
181 173 235
182 733 735
183 449 717
184 241 173
185 466 981
186 222 115
187 433 647
188 425 754
189 145 188
190 393 883
191 150 145
192 247 104
193 673 627
194 811 550
195 60 207
196 477 879
197 530 970
198 814 654
199 717 660
200 247 178
201 173 134
202 635 947
203 335 108
204 16 241
205 539 903
206 511 845
207 732 749
208 637 586
209 482 945
210 196 132
211 829 787
212 491 886
213 113 192
214 655 666
215 35 140
216 136 192
217 845 818
218 482 936
219 764 630
220 341 846
221 124 65
222 115 177
223 320 660
224 599 809
225 881 701
226 417 880
227 629 972
228 149 77
229 58 45
230 212 89
231 411 820
232 499 821
233 80 162
234 412 963
235 637 812
236 689 881
237 518 897
238 718 798
239 516 903
240 156 148
241 51 208
242 481 843
243 737 665
244 566 790
245 448 906
246 713 800
247 210 251
248 115 168
249 490 816
250 624 845
251 558 674
252 843 646
253 797 784
254 454 855
255 536 845
256 450 944
257 484 809
258 137 91
259 904 772
260 773 790
261 726 736
262 778 845
263 118 296
264 416 911
265 656 825
266 244 245
267 378 177
268 585 960
269 348 762
270 302 277
271 453 867
272 244 146
273 672 914
274 381 465
275 484 875
276 293 866
277 565 560
278 681 611
279 575 804
280 65 87
281 193 132
282 77 212
283 142 150
284 148 142
285 485 993
286 495 988
287 569 802
288 702 785
DEMAND_SECTION
2 94
3 56
4 73
5 25
6 4
7 97
8 82
9 57
10 41
11 98
12 45
13 86
14 5
15 83
16 99
17 78
18 64
19 44
20 69
21 25
22 44
23 64
24 59
25 72
26 10
27 26
28 56
29 1
30 41
31 69
32 62
33 29
34 77
35 20
36 46
37 47
38 19
39 48
40 95
41 21
42 56
43 13
44 79
45 21
46 66
47 2
48 61
49 2
50 21
51 51
52 33
53 43
54 55
55 89
56 54
57 62
58 41
59 49
60 71
61 100
62 67
63 64
64 40
65 50
66 40
67 4
68 19
69 86
70 76
71 34
72 82
73 90
74 68
75 79
76 80
77 75
78 38
79 87
80 69
81 48
82 78
83 4
84 11
85 43
86 9
87 9
88 14
89 57
90 5
91 9
92 14
93 93
94 72
95 8
96 96
97 82
98 8
99 3
100 11
101 58
102 7
103 50
104 76
105 2
106 35
107 81
108 54
109 72
110 87
111 82
112 47
113 70
114 56
115 74
116 79
117 33
118 92
119 55
120 72
121 40
122 57
123 76
124 47
125 88
COVERAGE_SECTION
2 11 51 86 134 106 50 104 13 14 77 138 66 
3 8 194 65 58 131 31 80 30 129 
4 11 20 116 107 80 252 31 139 61 137 194 198 
5 11 10 129 150 65 58 131 29 127 3 52 85 
6 11 187 143 43 136 277 22 108 53 183 251 148 
7 11 61 137 20 4 116 107 225 252 80 118 31 
8 11 57 94 34 141 161 273 44 236 73 202 227 
9 11 168 215 280 97 229 233 56 164 221 241 195 
10 11 5 150 129 127 65 29 58 131 37 52 3 
11 9 205 237 239 159 255 115 54 212 46 
12 9 264 39 245 226 190 256 234 271 196 
13 11 77 134 104 28 60 2 263 51 69 247 110 
14 11 66 78 106 50 86 134 2 146 105 51 41 
15 11 154 32 122 203 175 267 114 130 100 35 16 
16 11 130 267 125 111 172 270 89 203 24 200 266 
17 11 48 179 230 156 174 228 114 101 186 192 120 
18 11 206 46 232 255 242 178 249 115 257 275 68 
19 11 26 119 277 128 30 109 108 145 87 208 6 
20 11 116 4 61 225 252 107 7 118 137 80 139 
21 11 148 36 269 158 22 188 223 67 183 43 173 
22 11 183 187 148 188 21 173 160 43 269 36 6 
23 11 250 54 159 73 265 55 235 273 236 224 11 
24 11 89 87 125 111 91 145 128 117 119 16 88 
25 7 113 162 182 243 261 207 199 
26 11 19 128 145 119 30 87 277 85 131 117 52 
27 11 223 84 158 124 43 36 21 148 67 53 269 
28 11 247 60 266 167 181 263 77 270 13 172 72 
29 11 152 10 52 5 103 85 127 142 33 45 83 
30 11 131 58 26 109 208 3 19 65 277 278 62 
31 10 80 194 107 139 252 4 198 219 3 116 
32 11 122 154 15 100 71 175 35 49 153 203 267 
33 11 83 90 88 103 153 133 49 35 152 100 175 
34 11 262 57 94 96 217 123 161 211 253 260 70 
35 11 49 100 153 71 175 83 32 122 33 133 90 
36 11 269 158 67 21 124 148 99 135 223 188 27 
37 11 127 10 29 142 152 150 5 45 129 103 65 
38 11 144 64 41 92 151 146 59 121 95 99 102 
39 9 264 12 234 256 245 190 226 218 209 
40 11 195 282 241 233 72 213 222 248 93 204 216 
41 11 146 105 64 144 38 78 102 92 66 81 14 
42 11 82 74 210 281 184 201 166 272 200 176 240 
43 11 187 223 148 53 22 21 27 6 136 183 36 
44 11 227 141 202 55 268 54 273 73 197 23 236 
45 11 142 103 152 133 33 29 83 153 90 49 37 
46 11 206 178 18 242 275 212 232 255 196 163 249 
47 11 121 151 59 81 144 102 38 98 41 64 146 
48 11 230 174 17 186 192 179 156 166 101 210 281 
49 11 35 153 100 71 175 83 33 133 32 122 90 
50 11 106 86 2 51 14 134 66 104 78 138 13 
51 11 2 86 106 50 134 104 138 13 77 14 110 
52 11 85 117 131 58 29 65 145 26 91 5 30 
53 11 136 43 84 143 223 27 274 187 6 148 21 
54 11 55 202 23 273 73 227 268 250 11 236 159 
55 11 202 54 227 273 268 44 23 73 141 11 236 
56 11 164 221 229 280 168 228 258 97 120 156 179 
57 11 8 34 94 161 262 96 123 236 170 273 217 
58 11 131 65 30 3 85 5 52 129 10 26 150 
59 11 151 121 47 81 144 38 98 102 64 41 165 
60 11 69 63 28 270 266 77 247 13 172 167 181 
61 11 7 137 20 4 116 107 225 252 80 118 31 
62 7 208 109 193 108 278 214 126 
63 11 69 60 270 274 172 28 24 266 125 77 16 
64 11 38 92 144 41 146 99 124 95 135 78 67 
65 11 58 131 3 5 129 30 150 10 194 52 85 
66 11 78 14 146 41 105 92 84 106 134 64 50 
67 10 158 124 36 269 99 135 21 95 220 148 
68 11 257 249 149 242 232 254 18 160 206 46 178 
69 11 63 60 274 270 28 77 13 136 172 266 143 
70 11 171 259 217 123 211 169 94 34 147 118 253 
71 11 100 49 35 153 122 32 175 133 83 154 33 
72 11 282 40 195 241 263 213 110 204 216 222 93 
73 11 236 273 161 23 54 170 55 202 250 265 235 
74 11 201 281 166 210 157 82 240 191 42 284 283 
75 8 238 246 288 207 261 182 260 162 
76 11 224 235 279 287 244 250 177 265 159 115 23 
77 11 13 28 104 134 60 263 2 51 69 247 63 
78 11 66 14 146 105 41 64 92 106 50 102 144 
79 11 123 94 171 70 34 217 57 259 8 211 262 
80 10 31 107 194 139 4 252 198 219 116 3 
81 11 102 121 151 47 59 144 38 41 146 105 64 
82 11 176 74 42 240 201 191 281 284 283 157 210 
83 11 33 90 88 153 49 103 133 35 100 175 152 
84 11 27 53 223 43 136 66 92 134 124 158 148 
85 11 52 117 131 58 145 26 65 91 29 30 128 
86 11 106 50 2 51 134 14 104 66 138 13 78 
87 11 128 145 24 119 91 89 26 117 19 111 125 
88 11 90 91 83 33 111 117 89 175 153 35 49 
89 11 111 125 24 91 88 87 16 145 117 128 130 
90 11 88 83 33 91 117 153 111 35 49 175 103 
91 11 117 89 88 111 145 24 90 87 125 128 85 
92 11 64 124 99 67 158 38 135 27 41 95 36 
93 11 222 248 213 216 189 176 283 191 240 284 233 
94 11 123 34 57 70 8 79 217 171 262 96 211 
95 10 276 135 99 220 140 67 124 158 269 36 
96 11 262 260 170 238 246 161 75 253 34 288 236 
97 11 280 168 215 233 221 258 9 229 56 120 164 
98 11 165 59 276 95 151 38 121 47 140 144 220 
99 11 135 67 124 95 158 276 36 269 220 92 140 
100 11 35 49 71 153 175 32 122 83 154 133 33 
101 11 120 258 157 228 156 166 201 179 74 284 174 
102 11 81 105 146 41 144 121 151 47 38 59 64 
103 11 45 133 152 33 142 83 29 90 153 49 35 
104 11 110 263 138 51 13 77 2 72 134 28 204 
105 11 146 41 78 102 66 14 144 64 81 38 92 
106 11 50 86 2 51 14 134 66 78 104 13 138 
107 11 80 31 139 252 4 116 194 198 20 219 225 
108 9 109 277 62 208 251 193 278 214 126 
109 9 208 108 62 277 278 193 214 30 126 
110 11 138 204 72 263 104 180 241 195 282 40 213 
111 11 89 125 91 24 88 16 90 117 130 175 267 
112 8 185 285 286 209 218 256 197 234 
113 9 162 25 182 207 261 132 260 253 75 
114 11 17 48 192 230 174 203 186 179 156 272 210 
115 11 255 18 206 159 287 279 46 232 244 11 224 
116 11 20 4 252 107 225 139 118 198 80 31 169 
117 11 91 145 85 52 88 90 87 89 128 24 111 
118 11 225 169 147 259 132 116 252 211 198 20 253 
119 11 128 19 87 26 145 143 274 24 277 6 136 
120 11 258 101 228 156 157 221 179 284 166 201 191 
121 11 151 47 59 81 144 102 38 41 98 64 146 
122 11 32 154 15 100 71 35 175 49 153 203 267 
123 11 94 70 171 79 34 217 57 259 211 262 253 
124 11 67 158 99 36 135 92 269 27 95 21 223 
125 11 89 111 16 24 130 267 91 87 270 88 63 
126 2 214 62 
127 11 37 10 5 150 29 129 152 142 65 45 52 
128 11 87 145 119 26 19 24 117 91 89 85 274 
129 11 150 5 10 65 3 58 194 131 31 80 127 
130 11 267 16 203 125 172 270 111 200 184 272 15 
131 11 58 65 30 3 85 52 5 26 129 10 194 
132 11 147 113 162 169 253 211 118 25 225 260 198 
133 11 103 45 33 83 153 49 35 71 142 100 152 
134 11 2 51 13 86 106 77 50 14 104 66 84 
135 10 99 95 276 67 220 124 158 269 140 36 
136 11 143 53 274 43 6 187 223 84 119 27 69 
137 11 61 7 4 20 116 107 80 31 252 194 225 
138 11 110 104 204 180 72 263 51 241 195 282 40 
139 9 198 252 107 80 31 219 194 116 4 
140 10 220 190 226 276 231 264 135 12 39 95 
141 11 44 227 202 55 268 273 54 73 8 236 161 
142 11 45 152 103 133 29 33 83 37 127 90 153 
143 11 136 274 6 53 119 43 187 19 277 128 69 
144 11 38 64 41 151 121 102 59 146 81 47 92 
145 11 128 87 117 26 91 24 119 85 89 19 52 
146 11 41 105 78 102 64 144 66 38 14 92 81 
147 11 169 132 118 225 211 259 253 217 113 162 260 
148 11 21 22 36 43 183 188 269 223 187 158 173 
149 11 68 231 173 257 160 249 254 242 188 232 271 
150 11 129 5 10 65 127 3 58 194 131 31 80 
151 11 121 59 47 81 144 38 102 98 64 41 146 
152 11 29 103 142 45 33 133 83 90 127 52 10 
153 11 49 35 100 71 175 83 33 133 90 88 32 
154 11 15 32 122 203 175 267 100 130 35 114 71 
155 6 219 199 243 278 193 25 
156 11 179 228 101 120 258 221 174 17 48 230 166 
157 11 201 284 191 240 74 166 101 283 281 120 210 
158 11 67 36 124 269 99 21 135 148 27 223 220 
159 11 115 250 255 224 23 279 11 287 76 244 205 
160 11 173 188 149 257 68 183 249 232 231 242 22 
161 11 236 170 73 273 96 262 246 265 238 23 34 
162 8 113 182 207 261 25 132 260 75 
163 7 212 196 275 178 237 239 46 
164 11 56 221 229 228 258 156 179 280 120 97 168 
165 11 98 276 234 39 95 140 190 220 264 12 256 
166 11 281 210 74 201 157 101 174 240 186 191 284 
167 11 181 247 189 216 266 176 82 42 28 93 213 
168 11 280 9 97 229 215 56 164 221 233 258 120 
169 11 147 118 225 259 132 211 217 253 70 252 113 
170 11 161 236 73 96 246 238 265 288 273 262 75 
171 11 70 259 123 217 79 169 211 94 118 147 34 
172 11 266 270 200 184 247 272 130 167 16 42 267 
173 11 188 160 149 183 68 231 257 249 22 232 242 
174 11 230 48 186 166 210 281 192 101 156 74 179 
175 11 35 100 49 153 32 71 154 122 15 88 111 
176 11 189 82 240 283 191 216 93 284 222 248 74 
177 7 244 287 279 76 224 235 115 
178 10 275 46 196 212 242 163 206 18 254 271 
179 11 156 228 101 120 17 258 221 48 174 230 164 
180 11 204 241 195 40 110 282 72 138 215 233 213 
181 11 167 247 189 216 176 82 266 213 93 42 28 
182 5 261 207 162 113 25 
183 10 22 188 173 160 148 187 21 149 257 68 
184 11 200 272 42 186 210 281 82 74 192 266 172 
185 9 112 285 286 209 256 218 234 197 39 
186 11 174 192 230 210 281 272 166 48 74 201 42 
187 11 22 43 6 183 148 21 188 223 173 53 160 
188 11 173 160 183 149 22 21 231 148 68 269 257 
189 11 216 176 93 213 222 248 283 82 240 191 284 
190 10 226 264 140 12 39 245 271 220 231 254 
191 11 284 240 283 157 201 176 74 82 166 93 248 
192 11 186 230 272 174 48 210 281 166 184 200 74 
193 6 278 214 62 199 208 155 
194 9 31 80 107 3 139 219 4 252 198 
195 11 40 241 282 72 233 213 204 222 180 248 93 
196 9 275 212 163 178 271 254 46 242 245 
197 9 286 285 112 209 268 218 185 205 239 
198 10 139 252 219 107 132 25 80 116 243 31 
199 5 243 155 25 193 219 
200 11 184 272 42 172 266 186 210 281 82 192 74 
201 11 74 157 166 281 240 210 191 284 82 101 283 
202 11 55 227 54 44 273 268 141 73 23 236 11 
203 11 267 15 130 192 154 114 272 200 16 186 184 
204 11 180 241 195 40 110 282 72 138 233 215 213 
205 9 11 237 239 163 212 255 46 178 275 
206 11 18 46 255 232 178 242 115 249 275 257 212 
207 6 182 261 162 75 113 288 
208 9 109 62 278 108 193 277 214 155 126 
209 7 218 256 112 185 286 285 245 
210 11 281 166 74 201 186 42 157 174 82 240 101 
211 11 253 217 147 260 132 169 259 262 113 118 96 
212 8 163 275 196 178 237 239 46 271 
213 11 222 93 216 248 189 282 233 40 176 283 195 
214 3 126 193 62 
215 11 9 233 97 168 280 241 195 40 282 248 222 
216 11 189 93 213 222 176 248 283 240 82 191 284 
217 11 211 253 70 262 34 259 260 147 169 96 132 
218 7 209 256 112 245 163 239 185 
219 7 155 243 139 198 199 25 31 
220 10 140 276 135 190 95 231 99 226 269 67 
221 11 228 164 258 56 120 156 179 101 97 280 229 
222 11 248 93 213 216 189 233 283 176 191 284 240 
223 11 27 43 148 21 36 158 53 84 124 67 269 
224 11 76 279 287 235 244 250 159 177 265 115 23 
225 11 118 169 147 116 252 132 259 20 198 211 139 
226 9 190 264 12 271 245 254 39 196 231 
227 11 44 202 141 55 268 54 273 73 197 23 11 
228 11 156 258 120 179 101 221 157 164 166 174 56 
229 11 56 168 280 164 97 9 221 258 228 215 120 
230 11 174 48 186 192 166 210 281 17 179 156 101 
231 10 149 254 68 173 226 271 190 188 140 160 
232 11 249 257 18 206 242 68 46 178 255 115 254 
233 11 248 222 40 213 93 195 215 282 241 97 283 
234 10 39 256 12 264 185 245 112 209 218 285 
235 11 265 76 250 224 23 279 287 159 288 244 246 
236 11 73 161 170 273 265 23 54 250 55 96 246 
237 9 239 205 212 163 11 275 178 46 196 
238 10 246 75 288 207 260 170 96 261 182 265 
239 8 237 205 163 212 11 275 178 196 
240 11 191 284 283 157 201 176 82 74 166 281 189 
241 11 195 40 282 204 72 233 180 213 215 222 248 
242 11 178 46 232 249 18 68 206 254 275 257 196 
243 4 199 25 219 155 
244 11 287 279 177 224 76 115 255 159 232 235 18 
245 8 12 264 256 271 196 226 163 218 
246 10 238 75 288 170 207 96 260 265 261 182 
247 11 167 266 181 28 172 200 184 42 189 82 216 
248 11 222 93 213 216 283 189 233 176 191 284 240 
249 11 257 232 68 242 18 206 46 178 149 254 255 
250 11 23 235 265 224 159 76 279 54 73 287 236 
251 6 126 108 177 62 214 109 
252 11 198 139 107 116 225 80 4 31 20 118 219 
253 11 260 211 132 217 113 162 262 96 147 75 207 
254 10 271 242 196 275 178 68 226 212 46 149 
255 11 115 206 18 46 232 159 178 249 287 237 242 
256 9 209 218 245 185 12 234 39 112 264 
257 11 249 68 232 242 18 149 206 160 46 178 254 
258 11 120 228 101 221 156 179 157 284 191 201 166 
259 11 169 70 118 147 171 217 225 211 132 253 123 
260 11 253 75 96 262 162 211 238 207 113 246 182 
261 5 182 207 162 113 25 
262 11 96 34 260 253 170 161 217 238 211 246 75 
263 11 72 110 104 181 28 167 282 247 40 213 195 
264 9 12 39 226 245 190 256 234 271 254 
265 11 235 250 76 23 224 170 288 246 236 238 73 
266 11 247 172 167 270 200 181 184 28 42 272 60 
267 11 130 16 203 125 172 270 15 111 154 200 184 
268 11 227 55 202 197 44 54 11 205 141 239 237 
269 10 36 158 67 21 148 124 135 188 99 220 
270 11 172 266 60 63 247 28 16 69 200 130 184 
271 10 254 196 275 242 178 226 245 212 163 46 
272 11 184 200 186 192 42 210 281 74 174 166 230 
273 11 73 236 54 55 202 161 23 170 227 44 141 
274 11 143 136 69 53 63 119 6 87 128 60 43 
275 9 196 178 212 163 46 242 271 254 206 
276 10 95 135 220 140 99 190 67 124 269 158 
277 11 108 109 19 208 62 6 251 26 30 193 278 
278 6 193 155 62 208 199 214 
279 11 287 244 224 76 115 177 159 255 235 250 18 
280 11 168 97 229 9 56 215 221 164 258 233 120 
281 11 210 166 74 201 157 42 186 82 174 240 101 
282 11 40 195 241 72 213 233 222 248 93 216 204 
283 11 191 284 240 176 157 248 93 201 82 189 222 
284 11 191 240 283 157 201 176 74 82 166 101 248 
285 8 286 112 185 209 197 218 256 234 
286 8 285 112 185 197 209 218 256 234 
287 11 279 244 224 76 115 177 159 255 235 250 18 
288 7 246 75 238 207 261 182 265 
DEPOT_SECTION
   1
   -1
EOF
