NAME :  X-n367-kX-w36-c7.cctp
COMMENT : 	Adapted by Maziero, Usberti and Cavellucci from the Uchoa, Pecin, Pessoa, Poggi, Subramanian, and Vidal (2013)
TYPE :  CCTP
DIMENSION :    208
EDGE_WEIGHT_TYPE : 	EUC_2D	
CAPACITY : 	218
VERTICES_WITHIN_COVERAGE :  7
VERTICES_WITH_DEMAND : 	36
NODE_COORD_SECTION
1 927 318
2 319 475
3 471 281
4 894 615
5 712 832
6 728 813
7 360 217
8 446 264
9 952 650
10 558 224
11 460 397
12 464 342
13 733 921
14 324 316
15 333 497
16 826 821
17 257 385
18 385 244
19 523 249
20 559 370
21 665 866
22 310 583
23 744 792
24 428 638
25 759 804
26 359 515
27 392 213
28 583 380
29 786 400
30 516 833
31 823 692
32 480 330
33 870 690
34 311 76
35 157 434
36 340 558
37 499 905
38 893 667
39 328 499
40 463 266
41 456 323
42 462 420
43 859 662
44 308 399
45 427 246
46 279 414
47 543 841
48 243 333
49 347 509
50 460 593
51 732 115
52 234 661
53 808 720
54 144 390
55 478 333
56 465 310
57 666 858
58 334 369
59 708 815
60 472 326
61 559 265
62 503 255
63 406 226
64 931 648
65 281 315
66 954 665
67 443 295
68 311 468
69 901 603
70 801 847
71 257 131
72 346 637
73 604 305
74 277 345
75 428 257
76 892 802
77 341 663
78 539 861
79 359 298
80 867 658
81 677 832
82 316 483
83 505 255
84 554 806
85 953 659
86 946 627
87 498 334
88 811 691
89 186 347
90 348 474
91 487 362
92 507 409
93 368 319
94 810 928
95 572 844
96 445 255
97 412 244
98 815 948
99 328 509
100 665 841
101 730 846
102 786 719
103 371 276
104 510 236
105 573 230
106 909 630
107 944 623
108 523 195
109 730 809
110 498 349
111 244 370
112 365 509
113 758 838
114 323 519
115 378 315
116 419 216
117 340 467
118 487 341
119 432 178
120 538 215
121 897 626
122 999 652
123 842 770
124 602 875
125 524 367
126 482 274
127 344 184
128 794 662
129 258 663
130 575 132
131 443 292
132 631 960
133 950 648
134 510 223
135 322 521
136 806 829
137 243 269
138 527 416
139 535 411
140 504 296
141 574 897
142 368 600
143 418 381
144 841 801
145 593 974
146 501 249
147 819 806
148 311 561
149 363 98
150 961 626
151 705 795
152 948 634
153 865 664
154 307 497
155 363 509
156 636 386
157 703 883
158 782 900
159 449 668
160 253 148
161 722 761
162 234 81
163 946 631
164 962 364
165 886 613
166 137 499
167 594 954
168 497 399
169 521 273
170 793 806
171 461 276
172 912 910
173 457 265
174 325 456
175 312 305
176 991 645
177 672 935
178 227 328
179 316 455
180 406 223
181 692 448
182 534 348
183 323 492
184 405 715
185 900 608
186 497 320
187 289 412
188 466 263
189 748 888
190 352 624
191 208 455
192 80 531
193 826 819
194 691 935
195 331 340
196 405 263
197 770 429
198 448 274
199 728 801
200 356 248
201 531 283
202 885 599
203 688 856
204 448 393
205 298 550
206 437 272
207 301 337
208 718 866
DEMAND_SECTION
2 67
3 87
4 73
5 59
6 88
7 58
8 53
9 53
10 97
11 59
12 52
13 83
14 88
15 83
16 95
17 95
18 93
19 63
20 50
21 94
22 56
23 57
24 69
25 68
26 3
27 3
28 1
29 3
30 2
31 1
32 4
33 10
34 6
35 9
36 1
37 3
COVERAGE_SECTION
2 7 82 68 183 174 179 117 154 
3 6 171 126 40 188 173 198 
4 6 165 185 121 69 202 106 
5 7 59 101 6 109 203 81 199 
6 7 109 199 59 5 23 151 25 
7 7 200 27 18 127 180 63 97 
8 7 96 198 173 206 40 75 171 
9 7 133 85 66 152 163 64 86 
10 7 105 120 61 19 108 134 104 
11 6 204 42 168 91 143 92 
12 7 55 60 32 41 118 91 56 
13 6 189 194 157 158 208 177 
14 7 175 195 207 79 65 93 58 
15 6 39 183 99 49 82 114 
16 6 193 147 136 144 70 170 
17 6 111 46 187 74 44 48 
18 7 97 63 196 200 180 27 103 
19 7 104 83 62 146 169 134 201 
20 5 28 182 125 139 138 
21 5 57 100 203 81 157 
22 5 148 205 36 190 142 
23 7 199 25 109 6 161 151 59 
24 6 159 50 142 190 184 72 
25 6 23 109 199 6 113 170 
26 6 155 112 49 15 99 39 
27 6 180 63 116 7 18 97 
28 7 20 156 139 182 125 138 73 
29 3 197 181 156 
30 6 47 78 84 95 37 141 
31 7 88 53 128 102 33 43 153 
32 7 55 60 118 87 12 186 41 
33 5 153 43 80 38 31 
34 7 149 71 162 160 127 7 119 
35 4 54 191 166 89 
36 7 148 22 135 114 205 26 49 
37 7 78 30 141 47 95 124 167 
38 3 80 153 33 
39 6 15 183 99 82 49 114 
40 7 188 173 171 3 8 198 96 
41 6 56 60 12 55 32 67 
42 4 11 204 168 92 
43 4 153 80 33 38 
44 4 187 46 58 17 
45 7 75 97 96 8 196 206 63 
46 3 187 44 17 
47 6 78 30 95 84 141 124 
48 7 178 74 111 65 17 207 89 
49 7 26 155 15 112 99 39 114 
50 2 24 159 
51 3 130 105 10 
52 4 129 77 22 72 
53 4 102 88 31 123 
54 6 35 89 191 111 178 166 
55 7 32 60 118 12 87 186 41 
56 6 41 60 32 55 67 131 
57 4 21 100 203 81 
58 5 195 44 207 14 93 
59 6 5 6 151 109 199 81 
60 7 32 55 41 56 12 118 186 
61 5 201 105 19 169 10 
62 7 83 146 104 19 169 126 134 
63 6 180 116 27 97 18 45 
64 6 133 9 152 163 85 86 
65 7 74 207 175 48 14 178 195 
66 5 85 9 133 64 152 
67 6 131 198 206 171 56 3 
68 5 2 179 82 174 183 
69 5 185 4 202 165 121 
70 3 136 16 193 
71 7 160 162 34 127 149 7 137 
72 7 190 77 142 22 36 24 148 
73 3 61 201 28 
74 7 207 65 48 111 17 175 178 
75 7 45 96 206 8 97 196 198 
76 4 144 123 193 16 
77 7 72 190 142 184 129 22 24 
78 7 47 30 95 141 84 37 124 
79 7 93 103 115 14 175 195 200 
80 4 153 43 38 33 
81 4 100 203 57 5 
82 6 2 183 68 154 39 15 
83 7 62 146 19 104 169 126 134 
84 4 47 95 30 78 
85 6 66 9 133 64 152 163 
86 7 107 163 152 150 133 9 64 
87 5 118 186 110 32 55 
88 5 31 53 128 102 43 
89 7 178 48 54 111 17 74 35 
90 3 117 15 2 
91 4 110 118 12 55 
92 6 168 138 139 125 42 11 
93 7 115 79 103 195 14 175 58 
94 4 98 158 189 13 
95 6 47 78 84 124 141 30 
96 7 8 173 75 198 206 45 40 
97 7 45 63 196 75 180 18 116 
98 4 94 158 13 189 
99 6 39 114 15 135 183 49 
100 4 81 57 21 203 
101 5 5 208 113 6 109 
102 3 53 88 31 
103 7 79 200 18 196 115 93 97 
104 6 134 146 19 62 83 120 
105 6 10 61 120 19 108 104 
106 5 121 4 185 64 69 
107 6 86 163 152 150 133 9 
108 4 120 134 104 10 
109 7 6 199 23 59 5 25 151 
110 4 118 87 91 32 
111 7 17 48 74 178 46 89 187 
112 3 155 26 49 
113 2 101 25 
114 6 135 99 39 15 49 154 
115 7 93 79 103 195 14 196 175 
116 4 180 63 27 97 
117 3 90 174 2 
118 5 55 32 87 110 60 
119 3 116 180 27 
120 6 10 108 134 104 19 105 
121 5 4 106 165 185 69 
122 6 176 150 9 66 85 133 
123 6 144 147 193 16 76 53 
124 5 141 95 21 78 57 
125 4 182 110 20 91 
126 7 3 188 40 171 173 62 83 
127 7 7 27 200 18 180 63 116 
128 3 88 31 102 
129 5 52 77 72 22 190 
130 4 108 120 10 105 
131 6 67 198 206 171 8 56 
132 7 167 145 177 194 141 124 21 
133 7 9 85 152 66 163 64 86 
134 6 104 146 19 120 108 83 
135 6 114 99 39 15 49 154 
136 5 70 16 193 147 170 
137 7 65 178 48 175 74 207 14 
138 5 139 92 168 125 20 
139 7 138 92 168 125 20 28 182 
140 6 186 169 201 126 3 87 
141 7 124 78 95 167 47 37 145 
142 6 190 72 36 22 77 148 
143 4 204 11 42 12 
144 7 147 193 16 123 136 170 76 
145 7 167 132 141 177 124 194 37 
146 6 62 83 104 19 134 126 
147 6 193 16 144 136 170 123 
148 5 205 22 36 135 114 
149 6 34 127 119 71 7 27 
150 6 86 152 163 107 133 9 
151 7 59 199 6 109 5 161 23 
152 7 163 86 107 133 150 9 64 
153 4 43 80 33 38 
154 5 82 183 39 99 2 
155 4 112 26 49 15 
156 6 28 20 181 73 139 182 
157 6 208 203 21 57 189 101 
158 3 189 94 13 
159 7 24 184 50 142 190 72 77 
160 7 71 162 34 127 137 149 7 
161 3 23 151 199 
162 7 71 160 34 149 127 7 137 
163 7 86 152 107 150 133 9 64 
164 1 29 
165 5 4 202 185 121 69 
166 4 192 35 191 54 
167 7 145 132 141 124 177 194 37 
168 6 92 138 11 91 139 42 
169 6 201 19 83 62 140 146 
170 6 136 147 25 193 16 70 
171 7 40 3 173 198 188 8 126 
172 6 94 98 76 16 193 70 
173 7 40 188 8 171 198 96 3 
174 4 179 68 117 2 
175 7 14 65 207 195 79 74 93 
176 6 122 150 9 85 133 66 
177 7 194 132 157 13 21 57 167 
178 7 48 89 111 74 65 137 17 
179 3 174 68 2 
180 6 63 116 27 97 18 45 
181 5 197 156 29 28 20 
182 4 125 20 110 87 
183 6 39 15 82 2 154 99 
184 7 159 24 77 72 190 142 50 
185 6 69 4 165 202 121 106 
186 6 87 32 55 118 140 60 
187 3 46 44 17 
188 7 40 173 171 3 126 8 198 
189 3 13 158 208 
190 7 72 142 77 22 36 148 24 
191 1 35 
192 4 166 35 191 54 
193 6 16 147 136 144 170 70 
194 7 177 13 157 132 21 189 208 
195 7 14 58 207 175 93 79 115 
196 7 97 75 18 45 206 103 63 
197 2 29 181 
198 7 8 206 171 173 40 96 131 
199 7 109 6 23 59 151 25 5 
200 7 18 7 103 27 79 196 63 
201 4 169 140 61 19 
202 4 165 69 185 4 
203 6 57 21 81 100 157 208 
204 6 11 42 143 168 91 12 
205 4 148 22 135 114 
206 7 198 8 75 96 131 173 67 
207 7 74 65 195 14 175 58 48 
208 5 101 157 203 5 189 
DEPOT_SECTION
   1
   -1
EOF
