NAME :  X-n317-kX-w126-c11.cctp
COMMENT : 	Adapted by Maziero, Usberti and Cavellucci from the Uchoa, Pecin, Pessoa, Poggi, Subramanian, and Vidal (2013)
TYPE :  CCTP
DIMENSION :    317
EDGE_WEIGHT_TYPE : 	EUC_2D	
CAPACITY : 	6
VERTICES_WITHIN_COVERAGE :  11
VERTICES_WITH_DEMAND : 	126
NODE_COORD_SECTION
1 0 0
2 971 544
3 564 976
4 266 4
5 395 95
6 379 271
7 936 538
8 980 578
9 242 92
10 476 74
11 247 159
12 359 108
13 473 941
14 490 947
15 548 950
16 389 864
17 916 664
18 212 91
19 415 182
20 961 553
21 423 232
22 596 931
23 955 566
24 534 93
25 252 6
26 950 580
27 517 950
28 942 618
29 636 981
30 629 809
31 508 35
32 108 130
33 391 19
34 208 183
35 991 680
36 428 48
37 272 220
38 931 581
39 327 128
40 966 514
41 313 202
42 267 1
43 404 925
44 985 594
45 895 429
46 348 12
47 316 258
48 238 20
49 970 490
50 854 586
51 293 104
52 628 919
53 880 597
54 353 241
55 753 728
56 291 93
57 993 439
58 382 125
59 230 36
60 984 471
61 489 23
62 277 137
63 593 171
64 378 204
65 411 87
66 207 85
67 538 991
68 906 631
69 343 72
70 445 68
71 673 268
72 576 951
73 388 66
74 953 504
75 434 145
76 530 11
77 632 879
78 541 968
79 353 851
80 629 868
81 593 896
82 936 411
83 272 40
84 276 93
85 469 169
86 359 894
87 548 998
88 52 69
89 397 58
90 507 145
91 451 162
92 646 996
93 532 906
94 220 126
95 536 831
96 482 212
97 137 53
98 511 991
99 978 506
100 300 111
101 907 711
102 908 488
103 222 137
104 266 48
105 423 67
106 268 125
107 434 25
108 548 982
109 511 888
110 371 256
111 440 179
112 331 82
113 965 439
114 545 968
115 447 40
116 785 664
117 915 669
118 468 98
119 247 6
120 271 70
121 260 110
122 902 679
123 926 874
124 587 988
125 368 419
126 351 158
127 967 685
128 559 968
129 278 56
130 877 507
131 353 164
132 984 540
133 380 89
134 886 376
135 943 408
136 420 204
137 386 78
138 219 18
139 497 961
140 542 965
141 718 869
142 297 45
143 414 69
144 606 959
145 575 99
146 330 101
147 364 74
148 257 22
149 371 64
150 600 994
151 951 536
152 534 896
153 297 96
154 467 149
155 438 917
156 385 883
157 233 239
158 481 945
159 414 128
160 602 752
161 592 151
162 267 82
163 587 946
164 728 991
165 242 136
166 292 9
167 916 480
168 494 918
169 2 149
170 24 105
171 933 577
172 227 49
173 651 947
174 991 512
175 805 704
176 253 66
177 628 824
178 199 18
179 833 534
180 633 864
181 343 42
182 565 991
183 603 996
184 404 30
185 434 92
186 822 465
187 393 81
188 351 78
189 390 56
190 536 967
191 553 985
192 652 868
193 472 900
194 824 545
195 370 189
196 196 21
197 524 974
198 590 878
199 551 951
200 480 48
201 384 185
202 327 228
203 567 966
204 537 964
205 929 577
206 491 141
207 336 12
208 496 953
209 149 57
210 394 63
211 250 252
212 238 63
213 245 222
214 263 50
215 231 37
216 512 13
217 868 481
218 994 635
219 697 87
220 989 535
221 462 954
222 355 240
223 335 89
224 817 544
225 501 154
226 196 66
227 389 36
228 413 62
229 277 111
230 245 95
231 878 469
232 407 109
233 326 52
234 999 601
235 974 433
236 578 969
237 548 784
238 519 21
239 436 135
240 986 436
241 483 19
242 420 197
243 417 122
244 825 609
245 347 96
246 967 530
247 749 542
248 271 20
249 307 72
250 420 130
251 821 398
252 147 97
253 950 512
254 394 190
255 962 584
256 934 530
257 611 926
258 323 185
259 966 530
260 378 189
261 334 189
262 340 77
263 265 136
264 303 315
265 533 852
266 562 977
267 995 477
268 862 649
269 379 190
270 935 565
271 178 11
272 465 237
273 214 179
274 479 913
275 903 530
276 379 102
277 268 8
278 922 511
279 403 33
280 289 71
281 474 196
282 374 90
283 557 25
284 957 581
285 134 103
286 554 116
287 392 111
288 200 392
289 929 514
290 521 905
291 341 210
292 394 77
293 339 130
294 938 635
295 315 258
296 970 710
297 376 48
298 402 128
299 954 450
300 528 302
301 433 137
302 353 113
303 611 991
304 235 12
305 544 988
306 958 520
307 521 76
308 334 23
309 264 63
310 591 913
311 532 972
312 589 956
313 568 972
314 983 621
315 418 817
316 312 39
317 334 176
DEMAND_SECTION
2 1
3 1
4 1
5 1
6 1
7 1
8 1
9 1
10 1
11 1
12 1
13 1
14 1
15 1
16 1
17 1
18 1
19 1
20 1
21 1
22 1
23 1
24 1
25 1
26 1
27 1
28 1
29 1
30 1
31 1
32 1
33 1
34 1
35 1
36 1
37 1
38 1
39 1
40 1
41 1
42 1
43 1
44 1
45 1
46 1
47 1
48 1
49 1
50 1
51 1
52 1
53 1
54 1
55 1
56 1
57 1
58 1
59 1
60 1
61 1
62 1
63 1
64 1
65 1
66 1
67 1
68 1
69 1
70 1
71 1
72 1
73 1
74 1
75 1
76 1
77 1
78 1
79 1
80 1
81 1
82 1
83 1
84 1
85 1
86 1
87 1
88 1
89 1
90 1
91 1
92 1
93 1
94 1
95 1
96 1
97 1
98 1
99 1
100 1
101 1
102 1
103 1
104 1
105 1
106 1
107 1
108 1
109 1
110 1
111 1
112 1
113 1
114 1
115 1
116 1
117 1
118 1
119 1
120 1
121 1
122 1
123 1
124 1
125 1
126 1
127 1
COVERAGE_SECTION
2 11 20 132 246 259 220 151 23 306 40 8 7 
3 11 266 313 128 203 191 182 236 108 114 305 78 
4 11 42 277 25 248 119 148 166 48 304 83 104 
5 11 187 133 287 276 65 232 292 137 282 73 143 
6 11 110 222 54 21 47 295 64 202 291 136 269 
7 11 256 151 289 270 306 20 253 278 259 246 23 
8 11 44 255 284 23 26 234 20 2 132 314 220 
9 11 230 121 162 176 212 18 84 66 120 309 94 
10 11 118 200 70 115 307 185 31 61 105 36 241 
11 11 165 263 103 62 273 106 94 34 121 229 213 
12 11 302 245 276 282 133 58 146 293 188 223 287 
13 11 158 221 14 208 274 139 168 193 155 27 290 
14 11 208 158 139 13 27 168 221 274 197 98 311 
15 11 199 140 114 204 78 128 190 203 311 72 266 
16 11 156 79 86 315 43 155 193 274 13 221 168 
17 11 117 122 68 294 101 28 127 268 296 53 35 
18 11 66 9 226 230 94 212 172 103 176 121 165 
19 11 242 254 136 111 201 269 260 91 75 64 195 
20 11 2 23 151 246 259 132 284 7 26 270 8 
21 11 136 242 272 19 254 64 111 110 6 201 269 
22 11 257 163 310 312 72 144 52 81 236 203 199 
23 11 20 26 284 255 270 171 2 8 38 205 151 
24 11 307 286 145 90 10 31 206 118 225 200 283 
25 11 119 4 42 277 148 304 48 248 138 59 215 
26 11 284 255 23 171 38 205 270 20 8 44 28 
27 11 208 139 204 190 197 14 311 140 78 15 114 
28 11 294 68 26 38 255 284 314 171 205 44 17 
29 11 92 303 183 144 173 150 124 312 236 163 257 
30 11 177 180 80 160 192 77 198 237 81 95 265 
31 11 238 61 216 241 200 76 307 10 283 115 24 
32 11 285 252 97 88 209 170 169 66 226 18 94 
33 11 184 227 279 297 189 89 107 46 210 36 73 
34 11 273 11 103 213 94 165 157 37 263 211 62 
35 11 127 296 218 314 294 17 117 28 234 44 122 
36 11 105 115 228 107 143 70 279 184 89 210 189 
37 11 213 211 157 41 202 295 47 258 11 261 291 
38 11 171 205 270 26 284 23 255 28 20 7 8 
39 11 293 146 302 100 12 126 245 223 51 131 153 
40 11 306 99 74 246 253 259 49 174 151 2 220 
41 11 258 261 291 202 317 37 131 47 54 295 222 
42 11 4 277 25 248 119 148 166 304 48 83 104 
43 11 155 156 86 16 221 13 193 274 158 14 79 
44 11 234 8 255 314 284 26 23 218 20 28 2 
45 11 231 82 135 134 167 217 102 299 113 235 130 
46 11 207 308 181 33 316 233 297 227 166 149 184 
47 11 295 202 54 222 291 110 41 37 264 6 211 
48 11 304 119 59 215 138 148 25 172 4 277 248 
49 11 99 74 40 60 267 174 253 306 246 259 299 
50 11 53 244 194 179 224 268 68 275 205 38 171 
51 11 153 100 56 229 84 106 280 121 162 249 62 
52 11 257 22 173 310 77 81 144 163 80 312 180 
53 11 50 68 38 205 268 244 171 270 28 294 275 
54 11 222 110 202 291 6 47 295 64 195 261 41 
55 11 175 116 268 244 141 30 160 101 122 177 117 
56 11 153 51 84 100 280 229 162 249 120 121 106 
57 11 240 235 113 60 267 299 49 135 82 99 174 
58 11 287 298 276 12 232 302 159 5 243 133 282 
59 11 215 172 48 138 304 212 148 119 178 214 25 
60 11 267 49 57 240 99 113 299 235 174 74 40 
61 11 241 31 216 200 238 76 115 10 107 307 70 
62 11 263 106 229 121 100 165 11 51 84 56 153 
63 11 161 286 145 90 225 24 206 96 307 281 85 
64 11 269 260 195 201 254 291 136 19 222 242 54 
65 11 5 143 187 292 232 105 185 228 137 210 73 
66 11 18 226 9 212 230 172 94 176 59 103 215 
67 11 305 87 108 191 311 197 78 114 190 140 98 
68 11 294 17 28 117 53 122 268 38 205 171 26 
69 11 262 188 112 223 147 245 233 149 181 146 249 
70 11 105 36 185 115 143 10 228 118 65 200 107 
71 11 63 161 300 219 286 145 251 96 225 90 272 
72 11 163 312 203 236 313 128 199 3 15 22 266 
73 11 210 189 89 137 292 187 149 297 133 147 228 
74 11 253 40 306 49 99 289 259 246 151 256 278 
75 11 301 239 250 91 159 243 154 111 298 19 85 
76 11 238 216 283 31 61 241 200 307 24 10 115 
77 11 80 180 192 52 198 81 257 310 177 22 30 
78 11 140 114 190 204 311 108 128 197 15 199 305 
79 11 16 86 156 315 43 155 193 274 13 221 168 
80 11 180 77 192 198 177 81 52 30 310 257 22 
81 11 310 198 22 257 52 77 80 163 180 72 152 
82 11 135 113 299 235 45 240 134 57 167 60 102 
83 11 104 214 129 248 148 309 142 120 176 277 280 
84 11 162 56 229 51 153 121 120 280 100 230 309 
85 11 91 154 281 111 225 206 75 90 96 239 301 
86 11 156 16 79 43 155 315 193 221 274 13 158 
87 11 305 67 191 108 182 266 3 114 78 311 128 
88 11 170 32 97 285 169 209 252 271 226 196 66 
89 11 210 189 73 228 292 143 137 187 227 297 279 
90 11 225 206 154 85 286 24 91 118 281 307 96 
91 11 85 111 154 75 239 301 19 281 206 250 242 
92 11 29 303 183 150 173 144 124 312 236 163 257 
93 11 152 290 109 168 27 15 199 274 265 204 14 
94 11 103 165 18 9 230 11 66 121 263 106 273 
95 11 265 237 109 152 198 93 290 81 177 193 30 
96 11 281 272 85 111 91 225 21 136 242 154 90 
97 11 209 252 285 271 226 196 178 66 32 18 88 
98 11 197 67 311 139 305 190 204 78 87 108 140 
99 11 40 174 49 306 74 246 259 253 220 267 132 
100 11 51 153 56 229 84 39 146 62 106 121 249 
101 11 122 117 17 296 127 268 68 294 35 28 175 
102 11 167 278 289 130 231 217 275 74 253 256 7 
103 11 94 165 11 263 273 18 121 34 106 230 9 
104 11 214 83 129 309 176 120 148 248 142 212 280 
105 11 143 228 36 70 65 185 89 210 292 187 73 
106 11 263 62 121 229 165 51 84 100 230 56 11 
107 11 115 36 184 279 33 105 228 70 227 143 241 
108 11 191 305 67 114 266 78 87 3 128 140 182 
109 11 290 152 93 168 193 274 265 27 95 14 158 
110 11 6 54 222 64 202 47 291 295 21 269 195 
111 11 91 19 242 85 136 75 281 154 301 239 254 
112 11 223 262 69 146 188 245 249 233 147 153 12 
113 11 235 299 240 57 60 135 82 267 49 167 74 
114 11 78 140 190 204 108 128 311 15 199 191 266 
115 11 107 36 70 200 105 228 241 143 184 10 61 
116 11 175 244 55 268 50 53 122 224 68 194 247 
117 11 17 122 68 294 101 127 268 28 296 35 53 
118 11 10 185 70 206 239 154 200 301 105 243 307 
119 11 25 304 48 4 148 42 277 248 138 59 215 
120 11 309 162 129 176 280 214 104 84 56 83 212 
121 11 106 229 230 84 9 263 162 62 165 51 56 
122 11 117 17 101 68 268 294 127 28 296 53 35 
123 11 101 296 127 122 35 117 141 175 17 55 164 
124 11 150 183 236 182 303 313 3 266 203 312 128 
125 11 264 6 110 47 295 288 54 222 21 202 300 
126 11 131 317 293 261 195 39 258 260 201 269 58 
127 11 35 296 117 17 218 294 101 122 314 28 68 
128 11 203 3 266 313 114 140 78 108 191 199 236 
129 11 104 120 214 309 83 280 142 176 162 249 84 
130 11 217 275 102 231 278 167 179 289 256 194 7 
131 11 126 317 195 261 260 201 258 269 293 39 64 
132 11 220 2 246 259 20 174 40 151 306 99 8 
133 11 282 137 276 187 5 292 147 73 287 149 12 
134 11 45 82 135 251 231 299 113 235 217 167 186 
135 11 82 113 235 299 240 45 57 134 60 167 49 
136 11 242 19 21 254 111 201 64 269 260 91 195 
137 11 187 292 73 133 210 282 5 149 147 189 89 
138 11 304 48 178 59 215 196 119 172 25 148 271 
139 11 208 14 27 158 197 13 98 221 311 190 204 
140 11 78 114 204 190 311 15 128 199 108 197 191 
141 11 192 180 77 80 177 52 173 30 257 164 81 
142 11 316 129 83 280 249 233 104 214 120 166 248 
143 11 228 105 65 89 210 292 187 36 73 189 137 
144 11 312 163 22 236 72 303 257 124 150 29 183 
145 11 286 24 161 307 63 283 90 225 31 206 238 
146 11 223 245 112 262 302 39 12 293 188 69 100 
147 11 149 188 282 69 133 137 262 73 245 297 187 
148 11 248 25 277 48 119 4 42 83 304 104 214 
149 11 147 73 297 137 189 210 188 282 292 89 133 
150 11 183 303 124 236 182 144 29 313 3 312 266 
151 11 7 259 246 306 256 20 2 253 40 23 289 
152 11 93 290 109 265 168 15 27 199 274 81 198 
153 11 56 51 100 84 229 249 280 146 162 112 120 
154 11 85 91 206 75 225 239 301 90 111 281 118 
155 11 43 193 274 13 221 158 168 14 156 208 16 
156 11 16 86 79 43 155 315 193 274 13 221 158 
157 11 211 213 37 34 273 11 295 47 41 202 103 
158 11 13 14 208 221 139 168 274 27 193 155 197 
159 11 250 243 298 232 301 239 75 287 58 5 65 
160 11 30 237 177 95 180 80 265 192 198 77 81 
161 11 63 286 145 24 90 225 206 307 219 85 154 
162 11 120 84 309 176 280 56 230 9 129 121 229 
163 11 312 72 22 144 236 203 257 313 310 128 199 
164 11 92 173 29 303 141 52 183 144 150 257 124 
165 11 103 263 11 94 106 121 62 230 229 9 273 
166 11 248 277 4 42 142 316 83 148 25 207 308 
167 11 102 278 289 231 74 130 253 217 299 275 256 
168 11 274 193 14 158 290 13 109 208 27 93 139 
169 11 170 88 32 285 252 97 209 34 226 273 66 
170 11 88 169 32 285 252 97 209 226 271 66 18 
171 11 38 205 270 26 284 23 255 20 7 28 151 
172 11 59 215 212 48 176 138 226 214 304 104 148 
173 11 52 29 257 144 92 22 303 312 163 150 183 
174 11 99 220 40 132 49 246 259 306 267 2 74 
175 11 116 55 268 244 122 101 117 17 68 50 53 
176 11 309 212 120 214 162 104 129 9 230 172 83 
177 11 30 180 80 192 77 198 160 81 237 95 52 
178 11 196 138 271 59 304 215 48 172 226 119 25 
179 11 194 224 130 50 217 186 275 244 53 231 247 
180 11 80 77 192 177 198 81 30 52 310 257 22 
181 11 233 308 46 69 207 316 297 262 149 188 147 
182 11 191 266 3 87 108 313 305 124 128 203 236 
183 11 150 303 124 29 144 236 182 312 313 92 3 
184 11 279 227 33 89 36 107 189 228 297 210 73 
185 11 65 70 105 143 232 243 118 228 5 250 159 
186 11 217 231 251 130 179 224 194 45 102 167 275 
187 11 292 137 5 133 73 210 65 282 89 143 189 
188 11 69 262 147 245 223 112 149 282 12 133 146 
189 11 89 210 73 297 227 149 292 137 228 187 279 
190 11 204 78 140 311 114 197 108 15 199 305 128 
191 11 108 305 266 182 3 87 67 128 114 313 78 
192 11 180 77 80 177 52 30 198 81 141 257 310 
193 11 274 168 155 13 109 158 290 14 221 208 93 
194 11 224 179 50 244 130 247 53 217 186 275 231 
195 11 260 269 201 64 254 131 126 261 291 317 19 
196 11 178 271 138 59 215 304 48 172 226 119 25 
197 11 311 190 204 78 140 98 67 114 305 27 108 
198 11 81 310 80 77 180 257 22 52 152 192 265 
199 11 15 140 114 128 204 78 190 203 72 313 3 
200 11 10 61 241 31 115 70 216 238 307 107 118 
201 11 260 269 254 195 64 19 131 242 136 126 261 
202 11 291 54 41 222 47 295 261 258 110 317 37 
203 11 313 128 3 236 266 72 114 199 191 312 15 
204 11 190 140 78 114 311 197 15 199 108 128 27 
205 11 38 171 270 26 23 284 255 7 20 28 151 
206 11 90 225 154 85 91 118 239 75 281 301 24 
207 11 308 46 181 316 233 166 142 297 33 227 69 
208 11 14 139 158 27 13 221 168 197 98 311 190 
209 11 97 252 226 285 271 196 178 66 18 172 138 
210 11 89 73 189 292 137 187 228 143 149 297 227 
211 11 157 213 37 295 47 41 34 202 273 264 11 
212 11 176 172 309 215 59 214 9 104 230 120 162 
213 11 157 37 211 273 34 11 41 295 47 202 165 
214 11 104 83 309 129 176 120 212 148 248 162 280 
215 11 59 172 48 138 304 212 148 119 214 176 25 
216 11 238 76 31 61 241 200 283 307 115 10 107 
217 11 231 130 102 167 186 45 275 278 179 289 194 
218 11 314 234 44 35 28 294 127 8 255 284 26 
219 11 145 161 63 286 283 24 307 71 76 238 31 
220 11 132 2 174 246 259 40 99 20 306 151 8 
221 11 13 158 14 208 139 155 274 168 27 193 98 
222 11 54 110 202 291 6 47 64 295 195 261 269 
223 11 112 146 262 245 69 188 302 12 147 249 233 
224 11 194 179 50 244 247 130 186 217 53 275 231 
225 11 90 206 154 85 281 91 96 118 286 111 75 
226 11 66 18 172 212 59 196 215 178 209 9 138 
227 11 279 184 33 297 189 89 210 73 149 228 36 
228 11 143 105 89 210 36 189 292 65 73 187 137 
229 11 51 106 121 84 56 100 153 62 263 162 230 
230 11 9 121 162 176 84 18 212 120 229 309 106 
231 11 217 102 130 167 45 186 278 275 289 299 179 
232 11 287 243 5 159 298 65 250 276 58 187 185 
233 11 316 181 69 249 262 112 142 308 188 223 207 
234 11 44 314 8 218 255 284 26 23 28 20 132 
235 11 113 240 57 299 60 135 82 267 49 99 74 
236 11 313 203 3 312 72 266 128 124 163 182 144 
237 11 95 160 265 30 177 198 109 152 80 180 81 
238 11 216 76 31 61 241 283 200 307 10 24 115 
239 11 301 75 250 159 243 91 154 298 232 185 111 
240 11 57 235 113 60 299 267 135 49 82 99 74 
241 11 61 200 31 216 238 115 76 107 10 36 70 
242 11 136 19 111 254 21 201 269 64 260 91 195 
243 11 159 250 232 298 301 239 287 75 185 5 58 
244 11 50 268 53 194 224 116 179 68 175 247 122 
245 11 223 12 146 188 302 262 112 69 147 282 276 
246 11 259 306 2 40 151 132 220 20 253 99 74 
247 11 224 194 179 244 186 50 116 130 217 53 231 
248 11 277 148 4 42 83 25 166 104 119 214 48 
249 11 280 56 112 153 233 142 129 223 262 316 51 
250 11 159 243 301 239 298 75 232 287 58 185 5 
251 11 186 134 45 231 217 82 135 130 102 167 179 
252 11 285 209 97 32 226 66 18 94 103 196 271 
253 11 74 306 40 289 151 256 259 246 278 99 7 
254 11 201 269 260 64 19 195 242 136 111 131 21 
255 11 284 26 8 23 44 171 20 38 270 205 28 
256 11 7 289 151 278 253 306 275 74 259 246 20 
257 11 22 52 310 163 144 81 312 72 173 77 198 
258 11 261 317 41 291 131 126 202 195 260 269 39 
259 11 246 306 2 40 151 132 20 220 253 99 74 
260 11 269 201 195 64 254 131 19 126 242 291 261 
261 11 258 317 291 41 131 126 195 202 260 269 64 
262 11 69 112 188 223 245 147 146 233 249 149 181 
263 11 106 62 165 121 229 11 51 100 103 84 94 
264 11 47 295 211 6 54 110 202 222 37 157 213 
265 11 95 109 152 93 290 198 237 81 168 193 274 
266 11 3 313 128 191 203 182 108 236 114 305 78 
267 11 60 49 99 174 57 240 40 113 235 299 74 
268 11 68 122 244 53 17 117 50 101 294 116 175 
269 11 260 201 195 64 254 19 131 242 126 136 291 
270 11 171 205 38 23 26 7 284 20 151 255 256 
271 11 196 178 138 209 304 59 226 97 215 48 172 
272 11 96 21 281 136 242 111 85 19 91 254 154 
273 11 34 11 103 165 94 213 157 263 37 62 106 
274 11 193 168 13 158 14 109 155 208 290 221 139 
275 11 278 256 289 7 130 102 270 151 253 167 205 
276 11 133 282 287 5 12 58 137 187 302 232 292 
277 11 4 42 248 25 148 119 166 48 83 304 104 
278 11 289 256 102 275 253 7 74 167 306 151 40 
279 11 184 227 33 89 189 36 210 228 297 107 73 
280 11 120 249 129 56 162 84 153 309 142 51 104 
281 11 96 85 111 91 272 154 225 242 136 206 19 
282 11 133 276 137 147 187 5 12 292 149 188 73 
283 11 76 238 216 31 307 61 24 241 145 200 286 
284 11 255 26 23 8 171 38 270 20 205 44 2 
285 11 252 32 209 97 226 66 18 88 94 103 271 
286 11 145 24 161 307 90 225 63 206 118 10 283 
287 11 232 5 276 58 298 133 243 159 282 187 65 
288 11 264 211 157 125 213 47 295 37 202 34 273 
289 11 278 256 253 7 74 306 151 275 102 167 40 
290 11 93 152 109 168 274 27 193 14 15 208 265 
291 11 261 202 41 258 54 222 317 195 64 260 269 
292 11 187 137 73 210 5 133 89 65 189 143 228 
293 11 39 302 12 126 146 245 131 223 58 100 317 
294 11 28 68 17 117 314 38 26 218 255 122 284 
295 11 47 202 54 222 291 41 110 37 264 6 211 
296 11 127 35 101 117 17 122 218 294 314 28 68 
297 11 189 149 227 73 89 210 147 279 137 33 184 
298 11 159 243 250 58 232 287 301 5 239 276 75 
299 11 113 235 240 60 57 49 82 135 167 267 74 
300 11 272 96 281 21 85 63 136 71 225 111 242 
301 11 239 75 250 159 243 91 298 154 232 111 185 
302 11 12 245 293 146 276 39 223 58 282 188 133 
303 11 183 150 124 29 144 92 236 312 182 313 3 
304 11 48 119 138 25 148 59 215 4 277 42 178 
305 11 67 108 191 87 78 114 311 182 266 190 3 
306 11 40 253 246 259 74 151 99 256 2 7 289 
307 11 24 31 10 200 286 238 118 145 61 283 216 
308 11 207 46 181 316 233 142 166 297 69 262 149 
309 11 120 176 214 104 129 162 83 212 280 84 9 
310 11 81 22 257 163 198 52 72 312 144 77 199 
311 11 190 197 204 78 140 114 108 67 305 191 15 
312 11 163 72 144 236 203 22 313 3 124 128 266 
313 11 3 203 266 128 236 182 191 72 108 114 124 
314 11 218 234 44 28 8 255 294 284 26 35 23 
315 11 16 79 156 86 193 155 43 274 109 95 265 
316 11 142 233 308 181 249 166 207 129 280 83 46 
317 11 261 258 131 126 41 291 195 260 293 269 39 
DEPOT_SECTION
   1
   -1
EOF
