NAME :  X-n384-kX-w153-c11.cctp
COMMENT : 	Adapted by Maziero, Usberti and Cavellucci from the Uchoa, Pecin, Pessoa, Poggi, Subramanian, and Vidal (2013)
TYPE :  CCTP
DIMENSION :    383
EDGE_WEIGHT_TYPE : 	EUC_2D	
CAPACITY : 	564
VERTICES_WITHIN_COVERAGE :  11
VERTICES_WITH_DEMAND : 	153
NODE_COORD_SECTION
1 51 570
2 691 985
3 66 119
4 502 415
5 434 289
6 427 584
7 342 576
8 790 87
9 312 475
10 908 531
11 840 566
12 863 232
13 284 833
14 515 175
15 9 243
16 768 209
17 777 582
18 84 508
19 380 523
20 255 267
21 544 961
22 408 661
23 57 588
24 278 44
25 168 722
26 726 406
27 223 385
28 495 70
29 560 632
30 235 655
31 643 127
32 765 267
33 459 976
34 585 962
35 154 796
36 650 444
37 931 52
38 377 19
39 178 633
40 917 803
41 871 677
42 667 164
43 208 651
44 35 437
45 503 680
46 462 870
47 322 123
48 677 829
49 878 407
50 223 251
51 671 94
52 218 351
53 375 220
54 367 567
55 986 869
56 236 769
57 202 998
58 761 712
59 75 520
60 14 737
61 895 632
62 224 725
63 328 387
64 36 300
65 817 531
66 31 283
67 209 574
68 490 395
69 659 121
70 410 207
71 761 450
72 768 348
73 943 340
74 39 955
75 106 150
76 963 376
77 516 144
78 554 127
79 944 75
80 373 88
81 54 5
82 39 965
83 51 392
84 999 983
85 563 410
86 536 848
87 786 533
88 42 948
89 875 361
90 535 800
91 581 696
92 413 763
93 148 875
94 483 983
95 449 343
96 219 600
97 374 487
98 279 200
99 479 705
100 273 519
101 869 745
102 776 395
103 341 275
104 593 973
105 778 716
106 277 152
107 782 314
108 896 301
109 573 478
110 42 198
111 124 348
112 105 240
113 557 630
114 782 897
115 774 669
116 847 411
117 357 782
118 161 755
119 709 832
120 948 830
121 434 60
122 298 921
123 990 161
124 942 399
125 571 611
126 262 680
127 253 246
128 563 416
129 382 91
130 579 962
131 215 439
132 248 65
133 811 175
134 725 834
135 169 359
136 641 926
137 625 52
138 629 8
139 486 394
140 83 462
141 924 930
142 175 333
143 115 192
144 123 534
145 634 528
146 702 299
147 86 172
148 11 889
149 8 583
150 495 538
151 3 14
152 201 666
153 131 348
154 300 323
155 551 167
156 851 897
157 412 90
158 813 64
159 993 344
160 317 999
161 90 595
162 180 817
163 667 24
164 666 285
165 733 661
166 506 774
167 493 953
168 162 458
169 735 602
170 345 771
171 468 639
172 776 107
173 819 750
174 204 781
175 165 858
176 678 218
177 536 950
178 47 421
179 239 153
180 744 664
181 766 64
182 788 448
183 920 330
184 54 707
185 216 471
186 793 257
187 517 964
188 389 503
189 923 563
190 383 388
191 917 890
192 734 599
193 749 248
194 333 17
195 84 713
196 776 428
197 888 452
198 371 465
199 408 820
200 357 613
201 675 690
202 979 298
203 222 489
204 507 187
205 379 793
206 526 595
207 17 545
208 513 146
209 70 513
210 484 862
211 294 987
212 880 478
213 287 733
214 709 30
215 755 201
216 939 682
217 23 975
218 135 799
219 808 471
220 352 279
221 224 900
222 275 130
223 60 465
224 608 301
225 288 813
226 718 755
227 829 744
228 523 799
229 569 157
230 634 665
231 627 260
232 743 336
233 870 16
234 267 623
235 675 856
236 239 494
237 950 618
238 445 653
239 394 763
240 816 368
241 19 825
242 68 548
243 912 106
244 600 71
245 245 644
246 620 364
247 555 400
248 549 230
249 243 724
250 657 925
251 355 48
252 951 488
253 586 851
254 318 318
255 549 848
256 917 3
257 295 453
258 818 398
259 73 482
260 891 952
261 349 100
262 950 284
263 69 29
264 140 20
265 178 1
266 585 862
267 381 457
268 266 918
269 164 506
270 174 282
271 56 123
272 693 864
273 146 606
274 244 461
275 846 275
276 176 95
277 912 431
278 903 582
279 703 553
280 297 364
281 703 755
282 332 591
283 283 487
284 968 440
285 718 490
286 295 702
287 449 997
288 926 605
289 604 188
290 632 895
291 761 894
292 239 159
293 963 544
294 762 412
295 986 378
296 802 918
297 851 893
298 180 267
299 593 544
300 837 710
301 276 708
302 963 733
303 255 875
304 396 884
305 699 106
306 261 853
307 348 742
308 860 800
309 535 344
310 808 933
311 450 911
312 433 336
313 652 319
314 411 46
315 842 35
316 654 385
317 871 67
318 457 532
319 9 162
320 886 356
321 464 267
322 413 493
323 140 227
324 819 673
325 660 739
326 322 299
327 626 556
328 975 276
329 138 941
330 304 86
331 560 367
332 201 120
333 532 473
334 60 255
335 240 267
336 174 678
337 929 577
338 369 972
339 668 756
340 899 435
341 367 634
342 585 668
343 45 722
344 207 394
345 340 665
346 142 543
347 279 945
348 259 574
349 293 833
350 54 58
351 481 595
352 44 507
353 125 942
354 410 444
355 462 734
356 881 743
357 690 935
358 879 195
359 239 813
360 911 347
361 289 397
362 206 571
363 532 174
364 610 399
365 184 52
366 719 98
367 261 552
368 277 497
369 85 267
370 818 67
371 54 568
372 545 251
373 657 549
374 484 37
375 739 237
376 868 790
377 17 42
378 778 328
379 848 464
380 33 255
381 237 37
382 335 531
383 113 544
DEMAND_SECTION
2 83
3 65
4 92
5 73
6 94
7 100
8 99
9 83
10 84
11 81
12 65
13 69
14 84
15 67
16 53
17 70
18 93
19 69
20 78
21 75
22 56
23 99
24 88
25 61
26 65
27 90
28 74
29 85
30 59
31 76
32 79
33 99
34 98
35 80
36 71
37 71
38 93
39 69
40 88
41 71
42 52
43 75
44 83
45 67
46 88
47 64
48 89
49 86
50 84
51 89
52 97
53 85
54 78
55 83
56 90
57 93
58 61
59 84
60 98
61 97
62 78
63 60
64 58
65 63
66 99
67 50
68 93
69 53
70 52
71 70
72 97
73 63
74 72
75 77
76 88
77 66
78 100
79 50
80 69
81 78
82 53
83 81
84 59
85 77
86 67
87 77
88 74
89 88
90 78
91 78
92 84
93 83
94 86
95 88
96 71
97 90
98 73
99 60
100 59
101 65
102 87
103 59
104 51
105 79
106 83
107 71
108 81
109 63
110 83
111 84
112 71
113 69
114 93
115 80
116 67
117 95
118 88
119 89
120 68
121 67
122 54
123 54
124 84
125 88
126 98
127 66
128 94
129 100
130 61
131 93
132 71
133 51
134 59
135 96
136 79
137 90
138 73
139 90
140 64
141 51
142 51
143 72
144 71
145 78
146 90
147 66
148 71
149 86
150 54
151 76
152 99
153 50
154 80
COVERAGE_SECTION
2 11 357 250 136 104 34 290 130 291 272 114 310 
3 11 271 75 147 350 319 110 143 263 377 276 81 
4 11 68 139 247 85 128 333 331 309 95 109 354 
5 11 321 312 95 220 70 53 103 190 326 309 139 
6 11 351 318 54 171 238 200 19 341 22 150 7 
7 11 282 54 200 382 341 19 348 367 6 188 100 
8 11 172 158 181 370 366 315 317 133 305 214 233 
9 11 257 283 368 100 198 382 97 274 267 236 361 
10 11 189 278 337 293 212 252 11 288 197 379 65 
11 11 65 87 17 278 10 189 61 337 288 212 219 
12 11 358 275 186 108 133 16 262 32 215 183 107 
13 11 349 225 306 359 303 56 170 268 117 122 221 
14 11 204 363 208 77 155 229 78 248 372 289 321 
15 11 380 66 334 110 64 369 319 112 147 143 271 
16 11 215 375 193 186 133 32 176 12 172 275 107 
17 11 192 169 87 11 65 279 115 180 165 324 285 
18 11 59 209 259 352 242 140 383 144 223 371 346 
19 11 188 97 322 54 382 198 7 267 6 318 9 
20 11 335 127 50 98 154 326 298 254 270 103 52 
21 11 177 187 130 34 104 167 94 33 287 136 311 
22 11 238 341 171 345 200 6 99 355 45 351 307 
23 11 371 161 242 149 207 59 383 209 352 18 144 
24 11 132 381 330 194 251 222 47 261 365 38 80 
25 11 118 336 62 152 174 35 249 43 56 195 218 
26 11 294 102 196 71 72 232 182 316 285 36 258 
27 11 344 52 131 135 361 142 280 274 185 168 153 
28 11 374 121 77 208 78 157 314 244 14 363 155 
29 11 113 125 342 206 91 45 230 351 171 299 327 
30 11 245 43 152 126 234 96 39 336 301 249 62 
31 11 69 51 42 305 244 289 137 229 366 78 176 
32 11 193 186 375 107 16 378 215 146 232 72 275 
33 11 287 94 167 187 311 177 21 338 46 304 210 
34 11 130 104 21 177 136 187 250 290 167 266 94 
35 11 218 162 118 174 175 25 93 56 359 62 195 
36 11 316 364 285 109 26 246 145 128 85 247 373 
37 11 79 256 243 317 233 315 370 158 123 8 358 
38 11 251 314 194 80 121 129 157 261 330 24 374 
39 11 43 152 273 336 96 30 67 245 362 25 234 
40 11 120 376 308 356 101 302 191 55 227 173 297 
41 11 300 61 324 356 101 216 227 173 288 115 237 
42 11 31 69 176 305 289 51 366 215 229 375 231 
43 11 152 30 39 245 336 96 126 234 62 67 273 
44 11 178 223 83 140 259 352 209 18 59 207 242 
45 11 99 171 238 355 113 29 91 342 206 351 166 
46 11 210 311 304 199 86 167 255 228 90 33 166 
47 11 261 330 222 106 80 129 251 98 179 24 292 
48 11 235 119 272 134 339 281 290 226 325 253 250 
49 11 116 340 277 89 197 320 258 124 379 360 212 
50 11 335 127 20 298 270 98 323 292 142 179 52 
51 11 69 305 31 366 137 42 163 214 244 138 181 
52 11 27 344 142 135 280 270 361 153 154 335 131 
53 11 70 220 103 5 326 98 321 47 254 106 261 
54 11 7 282 19 200 382 6 341 188 97 322 318 
55 11 120 191 141 40 84 260 297 156 302 376 308 
56 11 174 359 62 249 213 225 301 162 118 13 25 
57 11 329 211 347 353 221 268 160 122 93 303 175 
58 11 105 115 180 165 226 173 324 281 227 300 201 
59 11 209 18 242 352 259 383 144 371 223 140 207 
60 11 343 184 195 241 218 118 35 148 149 23 25 
61 11 288 41 278 237 337 216 189 11 324 300 10 
62 11 249 56 301 25 126 174 152 213 336 118 30 
63 11 280 361 190 154 254 257 267 326 9 198 354 
64 11 66 380 334 369 15 112 83 111 110 153 178 
65 11 87 11 219 17 379 212 182 10 71 278 197 
66 11 64 380 334 15 369 110 112 83 111 153 319 
67 11 362 96 348 367 39 273 346 234 43 245 269 
68 11 139 4 247 95 309 85 331 128 312 333 354 
69 11 31 51 305 42 366 137 244 289 163 229 176 
70 11 53 321 5 220 103 204 14 157 129 208 47 
71 11 182 196 294 219 26 102 285 258 87 379 116 
72 11 378 232 107 102 240 294 258 26 196 32 146 
73 11 183 360 76 159 202 262 295 124 320 108 89 
74 11 88 82 217 148 353 329 241 93 175 57 218 
75 11 147 143 3 271 110 323 276 112 319 332 350 
76 11 295 124 73 159 360 183 284 277 202 320 340 
77 11 208 14 363 78 155 204 229 28 248 289 244 
78 11 229 155 77 208 363 14 244 204 289 28 31 
79 11 37 243 317 256 233 123 315 370 158 358 8 
80 11 129 261 157 251 314 47 121 38 330 194 24 
81 11 263 151 377 350 264 3 271 265 365 276 75 
82 11 74 88 217 148 353 329 93 241 175 57 218 
83 11 178 44 223 140 111 153 64 259 66 352 18 
84 11 141 260 55 191 120 156 297 310 40 296 308 
85 11 128 247 331 364 4 109 333 309 246 68 139 
86 11 255 90 253 228 266 210 46 166 177 290 311 
87 11 65 17 11 219 285 192 182 279 169 71 379 
88 11 74 82 217 148 353 329 241 93 175 57 218 
89 11 320 360 49 183 116 240 108 258 73 124 340 
90 11 228 166 86 255 253 210 266 355 46 99 91 
91 11 342 230 29 113 45 125 325 201 99 339 166 
92 11 239 205 199 355 117 170 307 99 166 22 238 
93 11 175 162 329 353 218 35 221 303 174 359 306 
94 11 33 167 287 187 177 21 311 130 34 104 46 
95 11 312 5 139 68 321 190 309 4 354 331 220 
96 11 67 362 348 245 43 39 234 30 367 152 273 
97 11 188 198 267 19 322 354 382 9 54 257 283 
98 11 106 127 292 179 222 20 50 335 47 103 53 
99 11 355 45 238 171 166 22 92 91 239 228 113 
100 11 368 283 367 236 348 9 203 382 274 257 185 
101 11 356 227 376 300 173 308 41 40 324 216 302 
102 11 294 196 258 72 240 26 182 71 378 232 116 
103 11 220 326 254 154 53 20 127 5 70 98 280 
104 11 34 130 21 177 136 187 250 290 2 167 357 
105 11 58 115 173 227 300 324 180 165 226 281 101 
106 11 222 179 292 98 47 330 332 261 132 127 24 
107 11 378 72 232 32 186 240 193 275 102 146 375 
108 11 183 360 275 320 262 73 89 12 202 328 76 
109 11 333 128 85 299 145 247 36 364 327 4 150 
110 11 319 147 15 380 334 143 112 271 75 369 3 
111 11 153 135 142 270 83 369 52 344 298 64 27 
112 11 369 323 334 143 147 380 110 298 270 66 75 
113 11 29 125 206 342 91 45 351 230 171 299 327 
114 11 291 296 310 156 297 134 272 119 357 235 260 
115 11 180 165 58 324 105 300 169 192 17 173 227 
116 11 49 258 240 379 89 340 197 320 277 182 219 
117 11 170 205 307 239 92 199 225 349 213 13 286 
118 11 25 35 174 218 162 62 56 336 195 249 359 
119 11 134 48 272 235 281 226 291 339 114 290 325 
120 11 40 55 191 376 308 302 141 356 101 297 156 
121 11 314 157 374 129 28 80 38 251 261 194 77 
122 11 347 268 303 211 221 306 160 338 349 13 304 
123 11 243 79 328 358 37 262 202 12 317 108 256 
124 11 76 277 284 295 340 73 360 49 320 183 159 
125 11 29 113 206 342 299 327 230 91 351 45 145 
126 11 301 30 245 286 249 234 62 213 43 152 345 
127 11 20 335 50 98 298 270 326 292 154 103 179 
128 11 85 247 331 364 4 109 333 68 246 309 139 
129 11 80 157 261 251 314 121 47 38 330 194 24 
130 11 34 104 21 177 187 136 290 167 250 94 266 
131 11 185 274 344 203 27 168 236 257 283 269 361 
132 11 381 24 330 365 222 332 276 179 106 47 292 
133 11 16 215 358 172 12 186 8 375 193 32 275 
134 11 119 272 48 235 291 226 281 114 339 357 290 
135 11 142 153 111 52 344 27 270 131 298 168 335 
136 11 250 290 357 34 104 130 2 235 272 266 253 
137 11 244 138 163 51 31 69 214 305 78 366 229 
138 11 163 137 244 214 51 69 31 305 366 78 28 
139 11 68 4 95 247 309 85 312 331 128 333 354 
140 11 259 223 18 209 44 178 59 352 83 168 144 
141 11 260 191 156 297 55 84 120 310 296 40 308 
142 11 135 153 52 270 111 298 344 27 335 50 20 
143 11 147 75 323 112 110 369 334 3 271 298 380 
144 11 383 346 18 59 269 209 242 161 259 273 371 
145 11 327 373 299 279 109 36 285 125 333 192 169 
146 11 164 313 232 193 32 375 107 378 72 176 231 
147 11 75 143 110 3 271 112 323 319 334 369 380 
148 11 241 88 74 82 217 353 329 93 60 218 175 
149 11 207 371 23 242 161 352 59 209 18 383 259 
150 11 318 351 206 333 6 322 109 299 125 171 113 
151 11 377 81 350 263 271 3 264 319 75 265 147 
152 11 43 336 30 39 245 62 126 25 96 249 234 
153 11 111 135 142 270 52 344 83 369 298 27 64 
154 11 254 326 280 103 220 63 20 361 335 52 127 
155 11 363 229 14 78 77 208 204 289 248 372 31 
156 11 297 296 310 191 260 114 141 291 308 376 40 
157 11 129 121 80 314 261 251 38 28 374 47 194 
158 11 370 8 315 181 172 317 233 366 243 214 133 
159 11 295 76 202 73 328 183 262 124 360 284 108 
160 11 211 338 347 122 268 57 287 221 303 304 33 
161 11 23 371 242 383 273 144 346 59 149 209 18 
162 11 35 174 175 218 359 118 93 56 306 221 303 
163 11 138 214 137 51 244 305 366 69 31 181 172 
164 11 313 146 231 224 176 375 193 246 232 32 316 
165 11 180 115 58 169 192 201 105 324 17 226 230 
166 11 228 90 355 99 86 255 210 45 92 46 91 
167 11 187 94 33 177 21 311 287 130 46 210 34 
168 11 269 131 185 203 344 140 274 144 236 346 259 
169 11 192 17 165 279 180 115 87 373 201 65 324 
170 11 117 307 205 239 92 213 225 199 349 286 13 
171 11 238 351 45 22 99 6 206 113 29 355 341 
172 11 8 181 158 366 370 133 305 215 315 16 214 
173 11 227 300 101 105 356 376 308 58 324 41 115 
174 11 56 162 359 118 35 62 25 249 218 175 225 
175 11 93 162 35 218 221 174 329 359 303 353 306 
176 11 42 375 231 164 193 215 289 146 16 31 69 
177 11 21 187 167 130 34 104 94 33 311 287 266 
178 11 44 83 223 140 259 352 18 209 59 111 153 
179 11 292 106 222 332 98 276 47 132 330 127 50 
180 11 165 115 58 105 169 192 201 324 17 226 281 
181 11 8 172 158 370 366 214 305 315 51 317 163 
182 11 196 71 219 294 102 258 379 116 26 285 87 
183 11 360 73 108 320 89 262 76 202 124 159 328 
184 11 343 195 60 25 118 161 23 218 241 336 149 
185 11 203 274 131 236 168 269 368 283 100 344 257 
186 11 32 193 16 275 107 375 215 378 12 133 232 
187 11 177 167 21 94 33 130 34 287 104 311 210 
188 11 19 97 322 198 267 382 354 54 318 9 7 
189 11 337 278 10 288 293 237 61 252 11 212 65 
190 11 63 354 267 312 198 95 280 361 254 97 139 
191 11 141 156 297 260 120 55 40 308 376 310 296 
192 11 169 17 279 165 180 115 87 373 65 201 285 
193 11 375 32 16 186 215 146 107 176 378 232 164 
194 11 251 38 24 330 80 314 261 129 132 381 47 
195 11 184 343 60 25 118 336 218 35 161 39 273 
196 11 294 182 71 102 258 219 26 240 116 72 379 
197 11 340 212 277 379 49 116 252 124 10 284 219 
198 11 267 97 188 354 322 19 9 382 257 190 63 
199 11 205 92 239 117 304 46 170 210 307 311 355 
200 11 341 282 7 54 345 22 6 382 234 19 238 
201 11 230 325 165 339 281 180 226 58 342 91 115 
202 11 328 262 159 73 183 76 295 108 360 124 320 
203 11 236 185 274 131 368 100 269 283 168 367 257 
204 11 14 363 208 77 155 248 229 372 78 321 289 
205 11 117 239 170 199 92 307 225 304 349 355 13 
206 11 351 113 125 29 150 171 299 45 318 342 6 
207 11 149 371 352 242 23 209 59 18 259 161 223 
208 11 77 14 363 204 155 78 229 28 248 289 372 
209 11 59 18 352 259 242 223 140 383 144 371 207 
210 11 46 86 311 255 228 90 199 166 167 304 266 
211 11 160 347 122 268 338 57 221 303 306 304 13 
212 11 197 379 340 277 10 49 219 252 116 65 189 
213 11 301 286 249 126 56 307 62 170 225 117 345 
214 11 163 181 366 51 305 138 137 8 172 69 158 
215 11 16 375 193 133 32 186 176 42 172 366 305 
216 11 302 237 61 41 288 356 101 337 278 300 189 
217 11 82 74 88 148 353 329 241 93 57 175 218 
218 11 35 162 118 175 174 93 25 195 56 359 62 
219 11 182 379 71 196 65 87 116 212 258 294 102 
220 11 103 326 254 53 154 5 70 20 312 280 127 
221 11 303 268 306 347 175 122 93 359 13 162 329 
222 11 106 179 292 47 330 98 132 332 261 24 381 
223 11 259 140 44 352 178 18 209 59 83 242 207 
224 10 231 313 164 246 372 331 309 248 146 316 
225 11 13 349 306 359 56 303 170 117 213 174 205 
226 11 281 339 325 58 105 119 201 134 48 165 180 
227 11 173 300 101 356 105 376 308 324 58 41 115 
228 11 90 166 86 255 210 253 266 355 46 99 92 
229 11 155 78 363 289 77 14 208 204 248 31 244 
230 11 201 342 91 325 29 125 113 339 165 327 180 
231 10 224 164 313 176 289 372 248 146 42 246 
232 11 72 378 107 146 102 26 32 294 240 193 164 
233 11 315 256 317 37 370 158 79 243 8 181 172 
234 11 245 30 348 96 126 43 367 282 67 152 362 
235 11 272 48 119 134 290 250 136 357 253 266 291 
236 11 203 185 274 368 100 283 131 367 257 9 269 
237 11 288 337 61 278 189 216 293 10 41 302 11 
238 11 171 22 99 45 351 6 341 355 200 206 345 
239 11 92 205 117 170 307 199 355 22 99 213 345 
240 11 258 102 72 116 378 89 107 294 320 196 49 
241 11 148 60 343 218 184 88 195 74 35 93 82 
242 11 371 59 209 23 18 383 352 207 161 144 259 
243 11 79 37 317 123 358 233 315 370 256 158 133 
244 11 137 138 31 78 51 69 163 229 28 305 155 
245 11 30 234 43 126 152 96 39 301 348 286 67 
246 10 364 316 313 331 224 85 247 128 36 309 
247 11 85 128 331 4 364 309 68 139 246 333 109 
248 10 372 363 204 155 14 289 229 231 208 77 
249 11 62 301 213 56 126 286 30 174 152 25 245 
250 11 136 357 290 2 235 272 104 34 130 266 48 
251 11 38 194 80 129 261 314 330 157 24 121 47 
252 11 284 293 10 277 212 197 340 189 124 337 278 
253 11 266 255 86 290 90 228 235 136 48 210 250 
254 11 154 326 103 280 220 63 20 361 335 190 127 
255 11 86 253 266 90 228 210 166 46 290 177 21 
256 11 233 37 79 317 315 243 370 158 8 181 123 
257 11 9 283 368 274 361 236 100 63 198 131 185 
258 11 240 116 102 196 182 294 49 89 72 379 219 
259 11 223 140 18 209 59 352 44 178 242 144 383 
260 11 141 191 156 297 310 296 84 114 55 120 291 
261 11 80 129 47 330 251 157 222 314 194 38 106 
262 11 328 202 183 73 108 159 360 76 320 12 295 
263 11 81 350 377 151 264 3 271 265 365 276 75 
264 11 265 365 263 276 81 350 381 132 332 3 377 
265 11 264 365 381 276 132 24 263 332 81 350 330 
266 11 253 255 86 290 90 136 228 235 250 48 34 
267 11 198 97 354 188 322 19 190 9 257 382 63 
268 11 347 122 303 221 306 211 13 349 160 57 225 
269 11 346 168 144 203 185 383 236 362 18 67 131 
270 11 298 142 50 323 335 135 153 112 20 52 111 
271 11 3 75 147 319 350 110 377 143 263 81 151 
272 11 235 119 48 134 290 250 357 291 136 114 253 
273 11 39 161 346 362 383 67 96 144 43 336 152 
274 11 185 236 131 203 283 368 257 100 9 344 361 
275 11 12 108 186 107 32 378 358 320 89 183 360 
276 11 332 365 132 264 381 179 75 292 265 222 3 
277 11 340 197 49 124 212 284 116 252 379 76 89 
278 11 337 189 288 10 61 237 11 293 41 65 216 
279 11 373 192 169 285 145 327 17 87 299 165 65 
280 11 361 63 154 254 326 27 52 190 257 344 103 
281 11 226 339 325 201 58 119 48 134 105 165 180 
282 11 7 200 54 341 382 234 345 348 367 19 100 
283 11 368 9 100 257 236 274 203 382 185 367 131 
284 11 124 252 277 76 295 340 197 49 212 159 73 
285 11 71 279 87 36 182 26 196 373 294 145 219 
286 11 301 213 126 249 345 307 62 30 245 234 170 
287 11 33 94 167 187 338 311 177 21 304 46 160 
288 11 237 337 278 61 189 293 10 216 41 11 252 
289 11 229 155 42 248 31 363 231 78 176 372 69 
290 11 136 250 266 235 253 272 357 48 34 130 104 
291 11 114 296 310 134 272 119 357 156 297 235 48 
292 11 179 106 222 332 98 127 47 276 50 132 330 
293 11 189 337 10 252 278 288 237 284 212 61 197 
294 11 196 102 26 71 182 258 72 240 219 232 116 
295 11 76 159 124 73 284 202 360 183 277 262 320 
296 11 310 114 291 156 297 260 357 134 191 272 141 
297 11 156 296 310 191 114 260 141 291 308 376 40 
298 11 270 50 323 335 142 20 127 112 52 135 153 
299 11 327 145 373 109 125 206 113 29 333 150 279 
300 11 227 324 173 41 101 356 105 115 58 376 308 
301 11 286 213 126 249 62 30 245 56 345 307 234 
302 11 216 356 40 101 120 41 376 237 61 308 300 
303 11 306 221 268 13 349 122 359 225 347 175 162 
304 11 311 199 46 210 338 205 122 117 33 349 167 
305 11 366 51 69 31 42 172 214 181 163 137 8 
306 11 303 13 349 359 225 221 268 122 56 162 174 
307 11 170 117 239 205 213 286 92 345 301 225 199 
308 11 376 101 40 356 227 173 120 297 300 156 191 
309 10 331 247 68 139 85 128 4 224 95 246 
310 11 296 114 156 297 291 260 141 191 357 2 134 
311 11 46 167 210 304 33 94 187 287 177 199 338 
312 11 95 5 190 321 139 68 220 309 4 103 354 
313 10 164 224 146 246 231 316 364 232 176 331 
314 11 121 38 157 129 251 80 374 261 194 28 330 
315 11 233 370 158 317 8 181 256 37 172 243 79 
316 11 246 364 36 313 26 85 128 224 331 146 247 
317 11 315 233 370 243 158 37 79 256 8 172 181 
318 11 150 322 6 351 188 19 206 97 333 54 354 
319 11 110 271 3 147 15 380 75 334 143 350 377 
320 11 89 360 183 49 108 73 116 124 240 277 76 
321 10 5 312 95 70 372 204 248 53 14 309 
322 11 188 97 19 267 354 198 318 54 382 6 150 
323 11 112 143 298 270 369 147 75 334 50 110 335 
324 11 300 115 41 105 58 227 180 173 61 165 101 
325 11 339 281 201 226 230 91 48 342 58 119 165 
326 11 254 103 154 220 280 20 127 63 335 53 361 
327 11 145 373 299 279 125 109 29 113 206 230 285 
328 11 202 262 159 73 183 108 360 76 295 123 12 
329 11 353 93 57 175 221 88 74 82 217 268 162 
330 11 47 261 24 222 132 251 80 106 194 129 381 
331 10 247 309 85 128 364 246 4 68 139 224 
332 11 276 179 292 365 132 222 106 381 75 24 330 
333 11 109 4 128 85 150 247 68 139 299 318 364 
334 11 380 369 66 112 64 15 110 143 323 147 319 
335 11 20 50 127 298 270 98 154 52 326 142 254 
336 11 152 43 25 39 30 62 273 118 245 249 126 
337 11 189 278 288 237 293 10 61 11 252 216 212 
338 11 160 211 287 122 33 304 347 311 94 268 167 
339 11 325 281 226 201 48 119 134 230 235 58 91 
340 11 277 197 49 212 124 116 379 284 252 89 320 
341 11 200 345 22 282 7 54 6 238 286 171 234 
342 11 91 29 113 230 125 45 201 206 325 99 327 
343 11 184 60 195 241 218 118 25 35 23 161 336 
344 11 27 52 131 135 142 274 168 185 361 153 111 
345 11 341 200 286 22 282 301 307 126 234 213 7 
346 11 144 383 269 273 18 362 59 67 161 242 209 
347 11 268 122 211 160 221 303 57 306 338 13 349 
348 11 367 96 67 234 362 100 245 282 368 236 7 
349 11 13 225 306 303 359 170 117 56 122 268 205 
350 11 263 377 81 3 271 151 264 75 319 147 276 
351 11 206 171 6 150 318 238 113 29 45 125 22 
352 11 209 59 259 18 223 207 242 140 371 44 383 
353 11 329 93 88 74 82 175 57 217 221 148 162 
354 11 267 198 322 97 190 188 19 139 68 4 63 
355 11 99 92 166 45 239 238 228 22 171 90 199 
356 11 101 376 227 300 308 173 41 40 302 216 324 
357 11 250 2 136 290 272 235 291 114 104 119 48 
358 11 12 133 275 243 186 108 16 262 123 215 328 
359 11 56 306 174 13 225 349 162 303 35 175 221 
360 11 183 320 73 89 108 76 124 49 262 295 159 
361 11 280 63 257 27 154 274 9 344 254 52 131 
362 11 67 96 348 367 39 273 346 269 43 234 245 
363 11 14 155 204 77 208 229 78 248 289 372 28 
364 11 246 316 85 128 247 331 36 109 313 309 224 
365 11 276 265 264 381 132 332 24 179 263 222 292 
366 11 305 51 172 181 69 214 8 31 42 163 158 
367 11 348 100 67 368 362 236 96 283 234 203 382 
368 11 283 100 236 9 257 274 203 367 185 382 348 
369 11 334 112 380 66 64 323 15 110 143 111 270 
370 11 158 8 315 181 317 172 233 243 366 133 37 
371 11 23 242 207 161 149 59 209 352 383 18 144 
372 10 248 204 363 224 14 231 321 155 289 309 
373 11 145 327 279 299 285 192 169 36 125 109 230 
374 11 28 121 314 157 38 77 208 78 129 244 80 
375 11 193 215 16 32 186 176 146 164 107 133 232 
376 11 308 101 356 40 227 173 300 120 297 156 191 
377 11 151 350 81 263 271 3 319 264 75 147 110 
378 11 107 72 232 240 32 102 186 146 258 193 275 
379 11 212 219 197 116 340 182 49 258 277 65 196 
380 11 15 334 66 64 369 110 112 319 147 143 323 
381 11 132 24 365 265 330 276 332 194 264 222 179 
382 11 7 19 54 97 282 9 188 100 368 283 198 
383 11 144 346 59 242 18 209 161 269 371 273 23 
DEPOT_SECTION
   1
   -1
EOF
