NAME :  X-n303-kX-w30-c11.cctp
COMMENT : 	Adapted by Maziero, Usberti and Cavellucci from the Uchoa, Pecin, Pessoa, Poggi, Subramanian, and Vidal (2013)
TYPE :  CCTP
DIMENSION :    239
EDGE_WEIGHT_TYPE : 	EUC_2D	
CAPACITY : 	794
VERTICES_WITHIN_COVERAGE :  11
VERTICES_WITH_DEMAND : 	30
NODE_COORD_SECTION
1 500 500
2 205 638
3 893 161
4 191 775
5 444 871
6 225 445
7 368 543
8 120 270
9 612 902
10 45 323
11 707 182
12 125 720
13 442 388
14 79 759
15 904 76
16 379 849
17 213 595
18 164 686
19 404 947
20 331 615
21 842 156
22 272 297
23 957 227
24 274 481
25 287 544
26 152 403
27 873 146
28 267 415
29 188 727
30 594 742
31 198 429
32 383 602
33 50 183
34 395 836
35 600 866
36 192 744
37 12 705
38 869 99
39 233 811
40 235 638
41 423 904
42 220 619
43 236 713
44 960 141
45 128 321
46 160 230
47 200 650
48 375 638
49 540 726
50 635 790
51 198 412
52 375 558
53 123 259
54 365 859
55 545 700
56 242 431
57 140 412
58 316 413
59 145 764
60 892 246
61 331 828
62 231 342
63 211 378
64 197 538
65 808 113
66 129 655
67 84 714
68 416 784
69 151 243
70 275 442
71 46 355
72 182 746
73 158 717
74 198 648
75 137 763
76 30 301
77 979 214
78 384 855
79 212 794
80 35 779
81 108 640
82 623 977
83 231 796
84 402 932
85 166 237
86 341 803
87 883 143
88 395 327
89 382 787
90 341 784
91 180 530
92 81 261
93 721 333
94 424 573
95 596 878
96 273 514
97 281 417
98 464 893
99 140 413
100 256 250
101 206 384
102 204 563
103 283 520
104 214 494
105 854 142
106 502 839
107 599 889
108 485 898
109 339 73
110 396 959
111 192 533
112 234 702
113 811 101
114 266 346
115 867 211
116 185 436
117 61 374
118 843 188
119 156 795
120 387 889
121 622 16
122 327 991
123 867 172
124 329 496
125 930 115
126 371 317
127 416 575
128 98 434
129 468 990
130 239 775
131 231 748
132 251 398
133 913 135
134 928 399
135 337 519
136 294 981
137 124 342
138 615 881
139 454 888
140 639 789
141 48 353
142 200 704
143 269 610
144 54 300
145 346 588
146 867 63
147 304 240
148 129 675
149 293 547
150 868 126
151 190 760
152 894 162
153 209 696
154 400 495
155 283 657
156 649 872
157 198 370
158 824 202
159 904 169
160 224 441
161 674 949
162 627 952
163 7 213
164 155 218
165 593 802
166 817 211
167 212 351
168 843 191
169 616 902
170 230 561
171 585 595
172 204 614
173 698 970
174 425 539
175 430 850
176 498 758
177 119 764
178 265 615
179 547 481
180 723 745
181 308 513
182 339 599
183 316 598
184 325 348
185 163 480
186 595 727
187 303 866
188 920 82
189 105 238
190 437 482
191 88 300
192 464 929
193 201 233
194 302 404
195 198 250
196 257 410
197 26 411
198 832 234
199 207 344
200 212 757
201 277 453
202 274 472
203 875 101
204 434 975
205 647 943
206 317 866
207 391 393
208 217 666
209 229 740
210 630 918
211 125 704
212 545 898
213 184 757
214 985 201
215 448 998
216 117 784
217 359 490
218 365 531
219 387 551
220 895 120
221 476 868
222 281 586
223 609 944
224 868 164
225 148 748
226 168 463
227 364 550
228 844 163
229 214 637
230 189 582
231 863 190
232 175 686
233 393 400
234 172 614
235 320 504
236 182 671
237 356 599
238 88 215
239 608 775
DEMAND_SECTION
2 20
3 14
4 85
5 33
6 51
7 78
8 51
9 85
10 74
11 4
12 13
13 2
14 33
15 16
16 31
17 16
18 18
19 3
20 66
21 42
22 65
23 15
24 3
25 38
26 81
27 82
28 83
29 86
30 1
31 59
COVERAGE_SECTION
2 11 229 74 47 42 172 40 208 236 234 17 232 
3 11 152 159 87 27 224 123 133 220 231 105 150 
4 11 151 213 79 200 72 36 119 83 59 29 130 
5 11 139 175 98 221 41 108 34 120 192 78 106 
6 11 160 56 31 116 51 196 70 104 28 201 132 
7 11 227 218 52 219 135 145 217 174 237 127 154 
8 11 53 189 92 69 191 45 46 85 164 238 137 
9 11 169 107 138 210 95 35 223 156 162 205 212 
10 11 144 76 141 71 191 117 92 137 45 197 8 
11 11 166 158 65 113 198 118 168 21 228 93 105 
12 11 211 73 225 67 177 75 148 59 18 14 232 
13 8 233 207 88 190 126 154 184 58 
14 11 177 67 216 80 75 12 59 225 211 119 37 
15 11 188 203 146 38 220 125 133 150 87 27 105 
16 11 78 54 34 120 175 61 86 89 206 5 41 
17 11 172 42 230 102 170 229 2 234 40 74 178 
18 11 232 236 73 148 142 211 153 66 29 47 74 
19 10 110 84 204 41 120 192 215 129 139 98 
20 11 182 183 237 145 48 32 222 143 155 178 52 
21 11 228 105 224 123 118 27 168 150 231 87 158 
22 11 114 100 62 147 184 199 167 195 193 63 126 
23 11 77 214 60 159 44 115 152 3 231 133 123 
24 11 202 201 96 70 103 181 235 124 56 6 104 
25 11 149 103 96 181 222 235 135 170 183 24 124 
26 11 57 99 51 116 31 101 157 128 226 63 137 
27 11 87 105 224 150 3 152 123 21 220 228 159 
28 11 196 97 132 70 56 194 201 58 160 6 202 
29 11 36 72 142 213 73 151 153 200 209 232 225 
30 8 186 239 49 165 50 55 140 176 
31 11 116 51 160 6 56 226 101 26 63 157 57 
32 10 237 48 145 127 182 52 94 219 20 227 
33 7 238 163 189 92 53 164 8 
34 11 16 78 54 175 89 120 68 5 86 61 41 
35 6 95 138 107 9 169 156 
36 11 72 213 151 29 200 4 209 131 142 73 225 
37 11 67 80 14 211 12 81 148 177 66 216 75 
38 11 203 150 220 146 15 87 105 27 188 133 113 
39 8 83 79 130 4 200 131 151 209 
40 11 229 42 2 208 47 74 178 172 143 17 155 
41 11 84 139 5 120 98 19 192 175 110 108 78 
42 11 172 229 2 40 17 74 47 178 208 230 234 
43 10 112 209 153 131 142 29 200 208 36 130 
44 11 125 133 159 214 220 152 3 188 77 87 15 
45 11 137 191 8 53 92 144 69 199 10 26 117 
46 9 85 164 69 193 195 53 189 8 238 
47 11 74 2 229 208 236 172 40 42 232 234 153 
48 8 32 237 20 182 145 183 127 52 
49 6 55 176 186 30 239 165 
50 6 140 239 165 30 186 156 
51 11 31 116 101 63 160 157 6 26 56 132 57 
52 11 219 227 7 218 145 127 32 237 94 174 135 
53 11 8 189 69 92 46 85 164 191 238 45 195 
54 10 16 78 120 34 61 206 86 187 175 41 
55 6 49 186 30 176 239 171 
56 11 160 6 196 28 132 70 97 201 31 51 202 
57 11 99 26 128 116 51 226 31 101 137 157 185 
58 9 194 97 28 70 201 196 184 132 202 
59 11 75 225 177 119 216 213 72 151 4 12 73 
60 10 115 198 231 23 168 118 123 159 158 166 
61 9 86 206 90 54 187 16 78 34 89 
62 11 167 199 114 63 157 101 132 22 196 51 28 
63 11 101 157 167 199 51 62 132 31 196 56 26 
64 9 111 91 102 170 230 104 17 185 172 
65 11 113 105 21 150 228 38 203 27 146 224 87 
66 10 148 81 18 211 232 236 234 12 73 74 
67 11 12 211 14 148 177 75 225 37 66 73 216 
68 7 89 34 175 16 90 86 78 
69 11 46 85 164 53 8 189 195 193 238 92 45 
70 11 201 97 28 202 56 196 24 194 6 58 132 
71 11 141 117 10 76 144 197 191 137 45 128 92 
72 11 36 213 151 29 4 200 225 73 59 142 209 
73 11 18 29 12 225 211 232 72 36 142 213 59 
74 11 47 2 229 208 236 172 42 40 234 232 153 
75 11 59 177 225 216 119 12 213 72 73 151 4 
76 9 144 10 141 71 191 92 117 163 8 
77 11 214 23 44 159 60 152 3 133 125 115 231 
78 11 16 54 34 120 175 61 5 41 86 89 206 
79 11 83 39 4 130 200 151 213 131 36 119 72 
80 11 14 37 67 216 177 75 12 59 211 225 119 
81 10 66 148 211 234 18 67 236 232 12 74 
82 10 162 223 205 161 210 169 173 9 107 138 
83 10 39 79 130 200 4 131 151 209 213 36 
84 10 19 110 41 120 204 192 139 98 5 78 
85 9 46 69 164 193 195 53 8 189 238 
86 7 90 61 89 16 54 34 78 
87 11 27 3 152 150 220 224 105 133 123 159 21 
88 9 126 207 184 233 13 58 194 147 22 
89 7 68 90 86 34 16 61 78 
90 5 86 89 61 16 34 
91 9 111 64 102 104 185 230 170 226 17 
92 9 189 8 191 53 144 238 76 10 69 
93 9 198 11 166 158 168 118 115 60 231 
94 7 127 174 219 32 52 7 227 
95 8 107 35 138 9 169 210 156 212 
96 11 103 24 25 181 149 202 235 124 201 104 135 
97 11 28 194 196 70 58 132 201 56 202 160 6 
98 8 139 108 221 5 192 41 175 106 
99 11 57 26 128 116 226 51 31 185 101 157 137 
100 10 147 22 193 195 85 62 114 46 69 164 
101 11 63 157 51 167 199 31 132 62 116 26 196 
102 10 230 64 170 111 17 91 172 42 234 104 
103 11 96 25 181 149 24 235 202 124 135 222 170 
104 11 111 64 6 91 185 160 226 24 96 202 116 
105 11 21 27 150 228 224 87 123 3 152 38 203 
106 5 221 108 5 98 139 
107 9 95 9 138 169 35 210 156 212 223 
108 8 98 221 139 192 5 212 106 41 
109 8 147 100 193 195 22 164 46 85 
110 10 19 84 204 41 215 120 192 122 129 139 
111 9 64 91 102 104 170 230 185 17 226 
112 10 43 153 142 209 208 131 29 36 200 232 
113 11 65 38 105 150 21 203 146 228 27 87 224 
114 11 62 22 132 167 184 199 63 196 194 28 101 
115 11 231 168 118 123 198 60 158 224 166 228 3 
116 11 31 51 226 160 6 26 185 57 99 101 56 
117 11 71 141 197 10 128 137 144 76 191 45 57 
118 11 168 231 158 228 123 21 115 166 224 105 198 
119 11 59 75 4 216 213 177 225 151 72 79 36 
120 11 78 54 41 16 84 34 175 5 19 139 110 
121 11 11 113 65 146 21 38 105 228 203 150 158 
122 10 136 110 19 84 204 120 215 206 187 41 
123 11 224 231 228 27 3 118 152 21 168 87 105 
124 11 235 135 181 217 218 103 24 96 202 7 149 
125 11 133 188 220 44 15 87 203 3 152 159 38 
126 10 88 184 207 233 13 22 147 114 58 194 
127 7 94 174 219 32 52 7 227 
128 9 57 99 26 117 197 226 185 116 71 
129 7 215 204 192 19 110 84 108 
130 11 83 131 200 79 39 209 4 151 36 213 43 
131 11 209 200 130 43 36 151 112 4 29 83 213 
132 11 196 28 56 97 63 101 70 160 194 6 114 
133 11 220 125 87 3 152 159 27 150 44 203 188 
134 10 60 23 198 77 115 214 93 166 231 158 
135 11 235 124 181 218 217 7 227 149 52 103 25 
136 7 122 110 19 187 206 84 120 
137 11 45 191 26 117 8 57 99 141 71 157 10 
138 8 107 95 9 35 169 156 210 223 
139 10 98 5 221 108 41 192 175 120 84 106 
140 6 50 239 165 30 186 156 
141 11 71 117 10 144 76 197 191 137 45 128 92 
142 11 153 29 232 112 43 236 18 36 208 73 72 
143 11 178 222 40 155 183 42 17 229 20 170 172 
144 11 76 10 191 92 141 71 8 117 45 53 189 
145 11 182 237 20 183 32 52 227 7 219 48 218 
146 11 38 15 203 188 150 220 113 65 105 87 125 
147 10 100 22 126 193 195 184 114 62 88 85 
148 11 66 211 18 81 12 232 73 236 67 74 47 
149 11 25 103 181 96 222 235 135 183 124 170 143 
150 11 27 105 87 203 38 220 224 21 3 152 228 
151 11 213 4 36 72 200 29 79 131 209 225 59 
152 11 3 159 87 27 224 123 133 220 231 150 105 
153 11 142 112 208 43 232 29 236 18 47 209 74 
154 10 190 217 218 174 219 7 227 135 52 124 
155 10 178 143 40 20 112 208 183 222 229 43 
156 7 138 169 9 35 210 95 107 
157 11 63 101 167 199 51 62 26 31 132 116 196 
158 11 166 168 118 198 231 115 228 21 123 224 105 
159 11 152 3 87 133 224 123 27 231 220 115 150 
160 11 6 56 31 51 116 196 28 70 132 104 201 
161 8 205 173 162 210 82 223 169 9 
162 11 223 205 82 210 161 169 9 107 138 173 95 
163 7 33 238 92 76 144 189 10 
164 9 46 85 69 193 53 189 195 8 238 
165 5 239 50 140 30 35 
166 10 158 198 168 118 115 231 228 21 123 224 
167 11 199 62 157 63 101 114 132 51 196 26 31 
168 11 118 231 158 228 115 123 166 21 224 198 105 
169 10 9 107 138 210 95 35 223 156 162 205 
170 11 102 17 64 230 111 222 25 42 91 172 143 
171 5 55 179 186 49 30 
172 11 42 17 2 229 234 74 230 47 40 102 208 
173 8 161 205 162 82 210 223 169 9 
174 9 94 127 219 154 52 7 190 218 227 
175 11 5 34 139 78 221 16 41 98 120 54 68 
176 5 49 55 106 68 30 
177 11 75 216 59 225 14 12 119 211 67 73 213 
178 11 143 222 40 42 155 183 17 229 172 2 170 
179 6 190 171 174 13 154 94 
180 5 140 50 239 30 186 
181 11 235 103 124 135 96 25 149 24 202 217 218 
182 11 145 237 20 183 32 48 52 227 222 7 219 
183 11 20 182 145 222 237 143 178 149 25 32 155 
184 9 126 114 194 58 88 22 207 97 233 
185 8 226 116 91 104 111 31 64 6 
186 8 30 239 49 55 50 165 140 176 
187 6 206 61 54 86 16 78 
188 11 15 125 220 203 133 38 146 150 44 87 27 
189 9 53 238 92 8 69 164 46 85 191 
190 9 154 174 217 219 218 7 94 233 13 
191 11 144 92 8 45 10 53 137 76 189 141 71 
192 9 98 108 139 41 204 5 129 84 221 
193 9 195 85 46 164 69 100 53 8 22 
194 9 58 97 28 196 70 132 201 184 56 
195 9 193 85 46 69 164 100 53 8 22 
196 11 28 132 97 56 70 160 194 6 201 63 101 
197 9 117 71 141 128 10 76 57 99 144 
198 10 166 158 115 168 118 231 60 123 228 21 
199 11 167 62 157 63 101 114 51 132 22 26 45 
200 11 131 151 36 209 4 213 72 130 79 29 83 
201 11 70 202 24 97 28 56 196 6 160 194 58 
202 11 24 201 70 96 103 56 181 97 6 235 28 
203 11 38 150 220 15 146 87 27 105 188 133 125 
204 8 215 129 19 110 84 192 41 98 
205 10 162 161 210 223 82 169 9 173 138 156 
206 8 187 61 54 16 86 78 120 34 
207 8 233 13 88 58 126 184 194 190 
208 11 47 74 229 2 153 40 236 112 142 42 232 
209 11 131 200 43 130 36 112 29 151 142 72 153 
210 11 169 9 205 223 162 138 107 156 95 161 82 
211 11 12 148 73 67 18 66 225 232 75 177 59 
212 7 95 107 108 35 9 169 138 
213 11 151 72 36 4 200 29 225 59 79 75 119 
214 11 77 23 44 159 133 152 3 125 60 87 115 
215 7 129 204 110 19 192 84 41 
216 11 177 75 59 119 14 225 12 213 4 72 67 
217 9 124 135 154 218 235 7 181 227 219 
218 11 7 227 52 135 219 217 124 154 235 145 181 
219 11 52 7 227 218 127 174 94 32 145 154 237 
220 11 133 87 150 203 38 27 125 3 152 15 188 
221 8 98 139 108 5 106 175 192 41 
222 11 143 178 183 149 25 170 20 182 145 103 17 
223 11 162 210 82 205 9 169 107 138 161 95 35 
224 11 123 27 228 3 87 105 152 231 21 118 159 
225 11 59 75 73 177 72 12 213 36 151 29 119 
226 10 185 116 31 104 99 57 51 6 160 26 
227 11 7 52 218 219 135 145 237 32 182 127 217 
228 11 21 105 224 118 123 168 231 27 87 150 158 
229 11 2 42 47 74 40 172 208 17 236 234 178 
230 11 102 17 172 234 64 170 42 111 91 2 229 
231 11 123 118 168 115 224 228 21 158 3 152 27 
232 11 18 236 142 73 153 29 47 74 148 208 211 
233 8 207 13 88 58 126 184 194 190 
234 11 172 230 2 74 17 47 42 229 236 66 102 
235 11 124 181 135 103 217 96 24 149 25 218 202 
236 11 232 18 47 74 208 153 142 2 229 73 148 
237 11 145 182 32 20 183 48 52 227 7 219 127 
238 8 189 92 33 53 8 164 69 46 
239 6 50 165 140 30 186 49 
DEPOT_SECTION
   1
   -1
EOF
