NAME :  X-n393-kX-w78-c11.cctp
COMMENT : 	Adapted by Maziero, Usberti and Cavellucci from the Uchoa, Pecin, Pessoa, Poggi, Subramanian, and Vidal (2013)
TYPE :  CCTP
DIMENSION :    300
EDGE_WEIGHT_TYPE : 	EUC_2D	
CAPACITY : 	78
VERTICES_WITHIN_COVERAGE :  11
VERTICES_WITH_DEMAND : 	78
NODE_COORD_SECTION
1 500 500
2 113 195
3 377 239
4 364 39
5 306 316
6 795 18
7 803 771
8 845 880
9 440 450
10 284 370
11 785 211
12 860 318
13 170 621
14 180 957
15 707 913
16 861 505
17 546 186
18 910 997
19 403 865
20 373 357
21 317 394
22 225 729
23 666 199
24 505 56
25 436 885
26 711 906
27 736 688
28 439 550
29 561 186
30 276 294
31 810 244
32 939 53
33 551 220
34 662 179
35 537 420
36 843 543
37 970 798
38 933 860
39 518 910
40 571 265
41 583 119
42 985 150
43 810 48
44 620 230
45 859 278
46 40 882
47 419 310
48 63 713
49 471 758
50 151 399
51 808 811
52 54 756
53 796 931
54 698 66
55 391 808
56 324 665
57 409 562
58 886 760
59 36 197
60 682 514
61 596 305
62 252 372
63 564 16
64 515 641
65 839 206
66 160 313
67 248 945
68 288 150
69 326 201
70 301 6
71 316 800
72 45 410
73 449 618
74 196 391
75 448 41
76 908 558
77 302 672
78 694 425
79 277 270
80 575 993
81 183 972
82 469 577
83 890 727
84 826 883
85 91 15
86 526 335
87 325 793
88 15 658
89 231 693
90 698 701
91 76 488
92 578 518
93 510 785
94 589 978
95 526 926
96 36 459
97 859 847
98 762 64
99 949 109
100 624 779
101 448 691
102 516 564
103 289 195
104 172 345
105 952 443
106 974 550
107 751 49
108 391 837
109 531 44
110 647 594
111 931 76
112 898 863
113 939 987
114 455 898
115 961 784
116 717 403
117 829 284
118 377 812
119 554 874
120 134 378
121 221 155
122 396 228
123 7 29
124 327 28
125 75 671
126 734 216
127 234 977
128 353 101
129 159 260
130 569 501
131 68 458
132 453 663
133 382 366
134 430 883
135 528 767
136 965 322
137 328 254
138 82 468
139 642 318
140 252 663
141 816 889
142 13 795
143 422 318
144 373 417
145 329 646
146 979 824
147 692 65
148 450 466
149 851 582
150 857 111
151 194 87
152 918 84
153 48 452
154 297 780
155 710 476
156 449 898
157 891 587
158 410 387
159 550 467
160 441 531
161 661 762
162 918 264
163 224 33
164 469 760
165 534 961
166 371 255
167 694 794
168 185 127
169 384 56
170 650 223
171 874 501
172 822 439
173 289 312
174 462 546
175 130 555
176 686 269
177 32 885
178 843 617
179 786 493
180 665 455
181 598 317
182 655 343
183 613 491
184 726 602
185 674 47
186 411 577
187 173 977
188 94 672
189 166 928
190 311 839
191 133 564
192 385 729
193 370 870
194 357 692
195 407 548
196 443 554
197 30 771
198 405 435
199 410 744
200 190 760
201 231 907
202 237 968
203 7 685
204 376 577
205 313 598
206 223 937
207 478 633
208 459 720
209 461 450
210 486 905
211 90 715
212 540 632
213 411 631
214 231 915
215 371 748
216 221 739
217 131 657
218 402 893
219 176 632
220 60 851
221 152 947
222 176 969
223 182 936
224 348 466
225 301 850
226 23 856
227 104 694
228 293 819
229 195 586
230 309 835
231 237 919
232 193 757
233 477 756
234 409 613
235 393 593
236 287 981
237 190 940
238 378 861
239 182 951
240 426 810
241 87 697
242 405 632
243 459 591
244 61 921
245 216 656
246 302 631
247 441 599
248 347 527
249 249 700
250 418 772
251 262 426
252 208 752
253 222 603
254 488 798
255 2 986
256 8 895
257 179 574
258 419 649
259 459 337
260 416 849
261 19 788
262 262 763
263 154 594
264 362 575
265 402 509
266 227 552
267 429 876
268 103 756
269 513 819
270 359 853
271 499 576
272 452 633
273 292 683
274 173 991
275 466 341
276 32 909
277 567 639
278 230 947
279 149 943
280 295 460
281 223 992
282 578 423
283 522 601
284 105 726
285 413 893
286 180 989
287 223 699
288 399 829
289 361 401
290 195 922
291 172 990
292 283 760
293 202 999
294 140 631
295 431 871
296 175 491
297 293 729
298 144 955
299 334 809
300 383 878
DEMAND_SECTION
2 5
3 5
4 7
5 9
6 7
7 8
8 5
9 7
10 8
11 7
12 9
13 9
14 10
15 6
16 7
17 9
18 8
19 7
20 6
21 9
22 5
23 5
24 10
25 6
26 6
27 9
28 6
29 6
30 7
31 9
32 6
33 6
34 9
35 5
36 7
37 5
38 8
39 8
40 6
41 5
42 9
43 7
44 10
45 9
46 7
47 10
48 9
49 7
50 9
51 9
52 8
53 8
54 9
55 5
56 8
57 8
58 6
59 9
60 10
61 9
62 10
63 7
64 7
65 7
66 10
67 9
68 8
69 6
70 5
71 5
72 6
73 8
74 5
75 7
76 6
77 9
78 9
79 6
COVERAGE_SECTION
2 11 59 129 168 121 66 151 104 103 79 68 85 
3 11 166 122 137 69 47 143 103 5 79 173 30 
4 11 169 124 128 70 75 68 163 24 69 109 103 
5 11 173 30 79 10 137 62 20 21 166 133 289 
6 11 43 107 98 54 150 147 185 152 32 111 99 
7 11 51 58 97 83 27 167 84 8 141 90 112 
8 11 84 141 97 112 53 51 38 7 58 18 26 
9 11 148 209 198 158 265 144 160 224 289 174 28 
10 11 62 21 5 173 251 30 289 20 74 280 133 
11 11 31 126 65 117 45 176 23 150 34 12 170 
12 11 45 117 162 31 136 65 172 11 105 126 116 
13 9 219 263 294 229 257 217 253 245 191 
14 11 239 222 81 237 187 223 221 189 286 279 291 
15 11 26 53 141 167 84 94 8 51 80 100 119 
16 11 171 36 76 179 172 149 157 105 178 106 155 
17 11 29 33 41 40 44 170 34 23 61 24 181 
18 11 113 53 8 112 38 84 141 97 146 37 51 
19 11 260 300 238 218 267 295 108 285 134 193 288 
20 11 133 289 158 144 143 47 21 5 198 259 10 
21 11 10 289 144 251 20 62 280 133 224 5 173 
22 10 216 252 287 89 249 232 200 262 292 297 
23 11 34 170 44 126 176 29 41 40 33 11 17 
24 11 109 75 63 41 169 17 4 29 128 185 33 
25 11 134 267 295 156 114 285 218 19 260 300 210 
26 11 15 53 141 167 84 8 51 94 161 100 97 
27 11 90 184 161 7 167 178 110 51 100 149 83 
28 11 196 160 174 57 195 186 82 243 247 265 235 
29 11 17 33 41 44 40 170 34 23 61 181 24 
30 11 173 79 5 137 10 62 103 166 69 21 3 
31 11 11 117 65 45 126 12 162 176 150 23 170 
32 11 111 152 99 150 42 43 6 98 65 107 162 
33 11 17 29 40 44 61 170 41 181 23 34 86 
34 11 23 170 44 126 176 41 29 17 33 147 54 
35 10 282 159 209 86 130 148 9 183 92 275 
36 11 149 16 171 157 76 178 179 172 106 184 105 
37 11 115 146 38 58 112 83 97 8 51 84 7 
38 11 112 146 37 97 115 8 84 58 141 113 51 
39 11 95 210 119 165 114 156 25 269 134 267 295 
40 11 61 33 181 44 29 17 86 139 170 176 182 
41 11 29 17 109 34 24 63 33 23 185 44 147 
42 11 99 111 152 32 162 150 65 136 45 31 43 
43 11 6 98 107 150 54 152 147 111 32 185 99 
44 11 170 23 40 34 33 29 176 61 17 181 139 
45 11 117 12 31 162 65 11 136 126 172 150 176 
46 6 177 276 226 256 220 244 
47 11 143 259 275 20 133 166 158 3 122 137 289 
48 10 211 241 52 125 284 227 188 268 203 197 
49 11 164 233 208 254 93 250 135 199 240 101 269 
50 11 120 74 104 66 296 138 131 62 72 251 91 
51 11 7 97 84 8 141 58 112 167 83 53 38 
52 8 197 48 261 268 211 142 284 241 
53 11 141 84 8 26 15 97 51 112 18 38 113 
54 11 147 185 107 98 6 43 34 41 23 63 126 
55 11 118 288 108 240 250 260 238 270 299 19 215 
56 10 145 77 273 246 194 205 297 140 249 242 
57 11 195 186 28 196 235 204 160 247 264 234 265 
58 11 83 115 7 97 37 51 112 38 146 8 84 
59 11 2 129 168 66 123 85 121 151 104 120 72 
60 10 155 180 183 110 78 184 92 179 130 116 
61 11 181 40 139 182 86 44 33 176 170 282 29 
62 11 10 251 74 21 173 5 30 104 280 50 79 
63 11 109 24 41 185 75 147 54 29 17 169 34 
64 11 212 207 283 277 272 132 271 73 243 102 82 
65 11 31 11 45 117 150 162 126 12 152 99 42 
66 11 104 129 120 50 74 62 30 79 2 173 10 
67 10 278 202 206 231 214 127 201 236 281 237 
68 11 103 69 121 128 168 137 151 79 3 124 122 
69 11 103 137 3 68 166 122 79 128 30 121 5 
70 11 124 4 163 169 128 151 68 75 168 121 103 
71 10 87 299 154 228 230 190 225 292 118 262 
72 9 153 96 131 138 91 120 50 104 66 
73 11 272 247 243 207 213 234 258 132 82 242 186 
74 10 50 104 62 120 251 66 10 296 21 280 
75 11 24 169 109 4 128 63 124 70 41 17 29 
76 11 157 149 106 171 36 16 178 105 179 172 83 
77 11 273 56 145 246 140 297 194 249 89 205 287 
78 11 116 180 155 60 182 183 179 282 139 172 181 
79 11 30 173 137 5 103 69 166 10 3 62 129 
80 11 94 165 95 39 119 210 114 15 156 26 25 
81 10 222 187 14 286 239 274 291 237 293 223 
82 11 243 271 174 196 247 28 73 102 160 207 186 
83 11 58 115 7 37 51 178 97 146 112 38 157 
84 11 141 8 97 53 51 112 38 7 26 15 58 
85 11 123 151 163 168 2 59 121 70 124 68 129 
86 11 275 259 181 61 40 35 282 143 47 139 33 
87 10 71 299 154 228 230 190 292 118 225 215 
88 5 203 125 48 188 241 
89 11 287 249 22 140 245 216 273 252 297 77 232 
90 11 27 161 167 184 100 110 7 277 51 178 212 
91 6 138 131 153 96 72 175 
92 9 130 183 159 102 282 271 283 110 60 
93 11 135 254 269 233 49 164 208 240 250 119 199 
94 11 80 165 95 39 119 210 15 26 114 156 269 
95 11 39 165 210 119 114 94 156 80 25 134 269 
96 7 153 131 138 91 72 120 50 
97 11 8 112 84 141 51 38 58 7 53 115 37 
98 11 107 43 6 54 147 185 150 11 34 126 152 
99 11 111 152 42 32 150 65 43 162 6 45 98 
100 11 161 167 135 90 93 119 269 254 27 233 277 
101 11 132 208 258 272 199 207 213 49 233 164 73 
102 9 271 283 82 174 243 212 196 64 92 
103 11 69 68 137 79 121 3 30 166 122 128 173 
104 11 66 120 74 50 62 129 10 30 251 173 79 
105 11 171 106 16 136 76 172 36 12 157 149 179 
106 11 76 157 105 171 16 149 36 178 172 83 179 
107 11 98 6 54 43 147 185 150 34 11 126 152 
108 10 288 238 260 55 118 19 270 193 300 240 
109 11 24 63 75 41 17 185 29 169 147 4 54 
110 10 184 60 277 92 183 212 90 130 283 27 
111 11 152 32 99 150 42 43 6 65 98 107 162 
112 11 38 97 8 84 141 146 37 115 51 58 53 
113 11 18 38 112 8 53 84 141 97 146 37 115 
114 11 156 25 134 210 267 295 285 218 19 260 39 
115 11 37 146 58 38 83 112 97 8 51 7 84 
116 11 78 155 180 182 172 139 179 60 183 176 282 
117 11 45 31 12 65 11 162 126 136 176 172 116 
118 11 55 288 108 299 270 238 240 260 87 250 193 
119 11 39 95 269 210 165 93 254 114 156 94 135 
120 11 50 104 74 66 72 131 138 153 62 296 129 
121 11 168 68 151 103 2 69 129 163 79 128 137 
122 11 3 166 137 69 47 143 103 5 79 259 20 
123 11 85 59 151 2 168 163 121 129 70 68 124 
124 11 70 4 169 128 163 75 68 151 121 103 69 
125 7 188 241 227 48 211 217 88 
126 11 11 23 176 31 34 170 65 44 117 139 45 
127 11 202 281 278 67 293 206 81 236 286 237 14 
128 11 169 4 124 68 69 70 75 103 122 3 121 
129 11 66 2 104 79 120 30 121 74 168 59 50 
130 9 92 159 183 282 102 35 271 180 283 
131 7 138 153 91 96 72 50 120 
132 11 101 272 258 207 73 213 208 242 247 64 234 
133 11 20 158 289 144 143 47 21 198 259 275 5 
134 11 25 267 295 285 156 114 218 19 260 300 238 
135 11 93 254 233 269 49 164 208 100 101 119 250 
136 11 162 12 45 105 117 65 42 31 172 171 16 
137 11 166 3 69 79 5 30 173 103 122 47 68 
138 7 131 91 153 96 72 296 50 
139 11 182 181 61 176 40 44 170 116 86 78 23 
140 11 89 245 249 273 287 77 246 253 22 56 297 
141 11 84 8 53 97 51 112 26 15 7 38 18 
142 9 261 197 52 226 220 46 177 48 268 
143 11 47 259 275 133 20 158 166 3 122 289 86 
144 11 289 198 158 133 224 20 21 9 280 148 209 
145 10 56 246 77 205 273 194 242 264 140 204 
146 11 37 115 38 112 58 97 83 8 84 113 51 
147 11 54 185 107 98 6 34 43 41 23 63 126 
148 10 9 209 198 265 160 174 28 196 158 144 
149 11 178 36 157 76 16 171 179 106 184 172 83 
150 11 152 43 111 99 65 32 98 6 11 107 42 
151 11 168 163 121 68 85 70 2 103 124 128 69 
152 11 111 32 99 150 42 43 6 65 98 107 162 
153 7 96 131 138 72 91 120 50 
154 10 292 71 87 228 262 299 297 230 190 225 
155 11 60 180 78 116 179 183 172 184 110 92 282 
156 11 114 25 134 267 295 285 210 218 19 260 300 
157 11 76 149 178 36 16 171 106 83 179 105 172 
158 11 133 20 144 198 289 9 143 259 275 47 209 
159 9 130 35 282 92 183 209 148 102 9 
160 11 28 196 174 195 57 265 82 186 243 148 247 
161 11 100 167 90 27 135 7 26 93 51 119 277 
162 11 45 136 12 117 65 31 42 11 99 150 152 
163 11 151 70 168 124 121 68 85 4 128 169 103 
164 11 49 233 208 254 93 250 135 199 240 101 269 
165 11 95 80 39 94 210 119 114 156 25 134 267 
166 11 3 122 137 69 47 143 5 79 173 20 103 
167 11 161 100 90 7 26 27 51 15 141 84 119 
168 11 151 121 2 163 68 103 129 85 69 59 70 
169 11 4 128 124 75 70 24 68 109 69 163 103 
170 11 23 44 34 176 126 40 139 29 61 33 181 
171 11 16 36 76 172 149 157 179 105 106 178 155 
172 11 179 16 171 36 116 155 12 78 105 149 76 
173 11 5 30 79 10 62 137 21 20 166 133 3 
174 11 196 28 160 82 243 271 57 195 102 247 186 
175 5 191 263 257 229 13 
176 11 170 139 126 23 44 182 34 61 181 11 40 
177 6 46 276 256 226 220 244 
178 11 149 157 36 76 16 184 83 171 27 179 106 
179 11 172 16 36 155 171 60 149 116 78 184 180 
180 11 78 155 60 183 116 282 130 92 182 159 179 
181 11 61 139 40 182 86 44 176 170 33 282 35 
182 11 139 181 61 176 116 78 282 180 40 44 170 
183 9 92 130 180 159 60 282 155 35 78 
184 11 110 27 60 90 178 179 149 155 36 183 180 
185 11 147 54 107 98 63 41 6 34 43 109 23 
186 11 57 235 195 204 234 247 28 196 264 243 213 
187 8 222 81 291 274 286 14 239 293 
188 7 125 227 241 217 211 48 284 
189 7 223 279 221 237 239 290 14 
190 7 230 225 228 299 71 87 270 
191 6 175 263 257 229 294 13 
192 11 215 199 194 250 101 208 55 118 258 56 87 
193 6 238 300 270 19 108 218 
194 11 56 192 145 215 77 273 199 297 258 242 213 
195 11 57 186 28 196 160 265 204 235 264 174 247 
196 11 28 174 160 57 82 195 186 243 247 271 265 
197 7 261 52 142 48 268 211 220 
198 11 144 9 158 148 289 209 224 133 265 20 21 
199 11 192 250 215 208 164 49 101 55 233 240 194 
200 4 232 252 216 22 
201 7 214 231 206 290 278 67 237 
202 11 127 278 67 281 206 293 231 236 214 81 237 
203 8 88 48 125 241 52 188 211 197 
204 10 264 235 186 57 195 234 248 242 213 205 
205 7 246 145 264 204 56 77 248 
206 9 278 214 231 67 201 290 237 202 127 
207 11 272 73 64 132 243 247 283 82 258 271 212 
208 11 101 49 233 164 199 132 250 192 258 93 135 
209 10 148 9 198 158 35 160 265 159 144 174 
210 11 39 114 156 95 25 134 267 295 165 285 119 
211 8 241 284 227 48 188 268 125 52 
212 11 64 277 283 207 271 102 272 82 243 73 132 
213 11 242 234 258 73 272 235 247 132 186 243 204 
214 8 231 201 206 278 67 290 237 202 
215 11 192 199 250 194 55 87 118 299 71 297 154 
216 8 22 252 232 200 287 89 249 262 
217 6 294 188 227 219 13 125 
218 11 285 300 19 134 267 25 295 193 238 260 156 
219 9 13 294 263 245 229 217 253 257 191 
220 6 46 226 177 276 256 244 
221 7 279 298 189 14 239 223 222 
222 10 81 187 14 239 286 291 274 237 221 223 
223 9 237 239 189 290 14 221 222 279 81 
224 9 280 144 248 198 289 265 21 9 251 
225 5 190 230 228 71 299 
226 8 177 46 220 256 276 142 261 244 
227 7 241 188 211 284 125 48 217 
228 8 230 190 71 225 154 87 299 292 
229 10 257 253 263 13 266 219 191 294 175 245 
230 7 190 225 228 71 299 87 270 
231 8 214 201 206 67 278 290 202 237 
232 5 200 252 216 22 287 
233 11 49 164 208 254 93 135 250 199 101 269 240 
234 11 213 242 235 247 186 258 73 272 204 57 243 
235 10 204 186 234 57 264 242 213 195 247 73 
236 7 202 67 127 281 278 206 231 
237 9 223 239 290 14 189 222 81 206 221 
238 8 193 300 270 19 108 288 218 260 
239 10 14 237 223 222 81 187 189 221 290 279 
240 11 288 55 250 260 108 118 19 295 254 164 267 
241 7 227 211 188 48 125 284 217 
242 11 213 234 258 235 73 272 247 186 132 204 243 
243 11 82 247 73 196 271 272 174 28 207 186 234 
244 4 276 46 177 256 
245 10 140 89 287 219 253 249 13 229 22 294 
246 9 145 205 56 77 273 140 194 264 253 
247 11 243 73 234 82 272 186 213 196 235 28 57 
248 7 264 204 265 224 195 57 205 
249 11 89 287 140 22 273 216 297 245 77 262 252 
250 11 199 240 55 164 215 192 49 118 288 233 208 
251 9 280 62 10 21 74 224 289 296 144 
252 7 232 216 200 22 262 287 89 
253 11 229 266 257 245 219 13 140 263 246 294 89 
254 11 93 269 164 49 233 135 240 250 208 260 295 
255 5 276 244 256 177 46 
256 7 177 276 46 226 244 220 255 
257 9 229 263 191 13 253 175 266 219 294 
258 11 213 242 132 234 272 73 101 247 207 235 243 
259 11 275 143 47 86 158 133 20 198 209 35 9 
260 11 19 288 295 108 267 134 238 240 25 285 300 
261 8 142 197 52 226 220 48 268 46 
262 10 292 154 297 216 22 252 228 249 71 232 
263 9 13 257 191 294 229 219 175 217 253 
264 9 204 235 57 186 248 195 205 234 242 
265 11 195 160 57 28 248 196 148 186 224 9 174 
266 7 229 253 257 296 263 13 191 
267 11 295 134 25 285 19 156 260 218 114 300 238 
268 6 284 211 52 48 241 227 
269 11 254 93 135 119 233 49 164 240 210 39 295 
270 7 193 238 300 108 118 19 288 
271 10 102 82 283 243 174 196 207 247 28 73 
272 11 73 207 132 247 258 213 243 234 242 101 82 
273 11 77 56 140 249 297 145 246 89 194 287 292 
274 8 291 286 187 81 222 293 14 239 
275 11 259 143 47 86 158 133 20 35 209 9 198 
276 6 177 46 256 244 226 220 
277 10 212 64 283 207 102 110 271 272 82 132 
278 10 206 67 202 231 127 214 201 237 290 281 
279 5 221 298 189 14 223 
280 8 251 224 21 248 144 289 10 62 
281 11 127 293 202 286 81 278 274 291 187 222 67 
282 10 35 159 183 130 180 92 86 181 182 78 
283 10 271 212 102 64 207 82 277 243 73 272 
284 6 211 268 227 241 48 188 
285 11 218 134 267 25 295 19 300 156 114 260 238 
286 8 274 291 187 81 222 293 14 239 
287 10 89 249 22 216 245 140 252 232 200 273 
288 11 108 55 260 118 240 19 238 270 193 300 295 
289 11 144 133 21 20 158 198 224 10 280 9 5 
290 8 223 237 189 206 239 214 14 201 
291 8 274 286 187 81 222 293 14 239 
292 11 262 154 297 71 87 228 216 22 249 299 252 
293 10 281 286 274 291 81 187 127 222 14 202 
294 6 217 13 219 263 188 191 
295 11 267 134 25 260 285 19 156 114 218 300 108 
296 8 175 266 257 191 50 138 229 91 
297 11 292 262 273 154 249 77 22 56 87 89 216 
298 5 221 279 189 222 14 
299 10 87 71 230 190 228 118 154 270 225 55 
300 8 193 238 19 218 285 270 108 260 
DEPOT_SECTION
   1
   -1
EOF
