NAME :  X-n308-kX-w122-c11.cctp
COMMENT : 	Adapted by Maziero, Usberti and Cavellucci from the Uchoa, Pecin, Pessoa, Poggi, Subramanian, and Vidal (2013)
TYPE :  CCTP
DIMENSION :    293
EDGE_WEIGHT_TYPE : 	EUC_2D	
CAPACITY : 	246
VERTICES_WITHIN_COVERAGE :  11
VERTICES_WITH_DEMAND : 	122
NODE_COORD_SECTION
1 0 0
2 706 137
3 392 662
4 692 274
5 944 370
6 726 945
7 869 43
8 621 770
9 112 402
10 523 374
11 619 178
12 553 457
13 95 814
14 696 130
15 27 417
16 940 487
17 943 965
18 670 435
19 931 752
20 307 776
21 404 101
22 199 526
23 117 312
24 762 505
25 433 864
26 868 155
27 832 870
28 488 624
29 686 782
30 585 89
31 268 339
32 248 344
33 22 776
34 89 614
35 75 271
36 882 646
37 6 656
38 449 27
39 857 362
40 809 774
41 403 626
42 559 145
43 667 945
44 524 737
45 683 777
46 641 798
47 514 495
48 102 813
49 517 591
50 748 330
51 859 127
52 699 41
53 281 442
54 257 106
55 116 99
56 41 732
57 555 95
58 378 1
59 155 308
60 942 955
61 619 205
62 646 910
63 796 791
64 785 49
65 958 817
66 424 240
67 311 226
68 37 119
69 761 866
70 404 417
71 929 432
72 743 535
73 418 679
74 107 379
75 329 868
76 22 432
77 24 474
78 380 83
79 145 135
80 576 209
81 877 859
82 901 0
83 464 473
84 181 35
85 976 331
86 672 617
87 324 264
88 193 341
89 525 782
90 527 935
91 218 529
92 48 325
93 431 989
94 626 974
95 594 432
96 757 450
97 805 123
98 959 266
99 348 776
100 409 946
101 458 247
102 841 361
103 333 503
104 675 306
105 407 811
106 418 325
107 856 199
108 300 792
109 371 156
110 163 237
111 172 589
112 609 928
113 273 18
114 379 694
115 996 38
116 4 6
117 738 18
118 693 307
119 989 54
120 468 585
121 594 172
122 563 205
123 271 783
124 58 987
125 374 383
126 775 530
127 913 512
128 413 798
129 813 948
130 943 941
131 437 169
132 247 374
133 347 51
134 8 111
135 321 825
136 854 335
137 619 272
138 742 232
139 496 187
140 605 66
141 973 75
142 241 509
143 845 106
144 451 217
145 955 319
146 432 662
147 704 73
148 418 205
149 817 754
150 570 429
151 362 720
152 114 713
153 11 516
154 737 62
155 563 318
156 697 638
157 343 830
158 3 342
159 159 177
160 386 880
161 493 321
162 366 804
163 655 303
164 524 297
165 633 506
166 522 325
167 541 547
168 378 801
169 89 325
170 724 631
171 76 414
172 514 273
173 378 958
174 690 639
175 222 135
176 233 59
177 248 871
178 356 223
179 38 314
180 118 33
181 359 835
182 36 361
183 340 718
184 682 361
185 82 210
186 293 801
187 249 336
188 232 799
189 102 526
190 221 216
191 87 148
192 664 361
193 656 366
194 537 434
195 696 622
196 330 105
197 621 753
198 401 923
199 159 253
200 552 382
201 364 793
202 271 72
203 804 650
204 29 322
205 213 3
206 598 388
207 243 144
208 273 196
209 623 781
210 107 370
211 516 271
212 432 765
213 62 608
214 55 270
215 841 468
216 616 334
217 235 243
218 221 773
219 79 461
220 186 665
221 165 871
222 608 391
223 349 329
224 227 136
225 17 329
226 559 430
227 736 641
228 387 3
229 12 327
230 149 266
231 100 768
232 567 435
233 110 270
234 304 770
235 739 876
236 61 312
237 71 260
238 215 125
239 255 202
240 481 97
241 289 287
242 65 344
243 235 151
244 413 724
245 362 952
246 107 111
247 188 217
248 300 735
249 517 304
250 401 321
251 734 562
252 259 344
253 705 626
254 783 708
255 159 450
256 543 262
257 373 44
258 483 678
259 704 755
260 30 414
261 353 818
262 385 930
263 683 188
264 163 27
265 3 371
266 138 120
267 342 822
268 577 482
269 524 915
270 348 908
271 695 636
272 856 763
273 8 227
274 216 95
275 8 342
276 47 343
277 256 24
278 365 753
279 726 662
280 24 311
281 614 173
282 534 255
283 357 820
284 284 869
285 554 665
286 201 907
287 629 776
288 264 193
289 339 342
290 47 176
291 67 412
292 206 824
293 154 267
DEMAND_SECTION
2 80
3 94
4 87
5 77
6 77
7 50
8 79
9 86
10 75
11 84
12 88
13 94
14 74
15 95
16 89
17 83
18 55
19 77
20 1
21 7
22 3
23 7
24 5
25 2
26 2
27 2
28 5
29 2
30 7
31 1
32 5
33 5
34 8
35 4
36 2
37 8
38 9
39 1
40 10
41 3
42 10
43 3
44 2
45 3
46 2
47 1
48 5
49 4
50 3
51 4
52 3
53 5
54 3
55 5
56 6
57 9
58 6
59 4
60 2
61 7
62 10
63 2
64 3
65 10
66 8
67 10
68 10
69 4
70 4
71 10
72 7
73 4
74 1
75 4
76 9
77 3
78 10
79 4
80 3
81 10
82 10
83 1
84 6
85 3
86 2
87 8
88 8
89 7
90 3
91 7
92 8
93 6
94 1
95 10
96 10
97 9
98 10
99 10
100 6
101 7
102 6
103 10
104 1
105 3
106 2
107 2
108 2
109 3
110 2
111 1
112 7
113 6
114 5
115 8
116 3
117 3
118 4
119 8
120 2
121 9
122 6
123 3
COVERAGE_SECTION
2 11 14 263 147 154 11 52 281 97 138 61 121 
3 11 73 114 41 146 151 244 183 258 278 28 120 
4 11 118 104 163 138 137 50 263 184 192 216 193 
5 11 85 145 71 39 136 102 98 16 215 127 107 
6 11 43 235 69 62 129 94 112 27 29 63 46 
7 11 82 143 64 51 97 141 26 119 115 117 154 
8 11 287 209 197 46 45 29 259 89 44 285 62 
9 11 74 210 171 291 255 219 242 169 260 15 182 
10 11 200 166 161 194 226 155 249 150 232 206 164 
11 11 281 121 61 80 122 263 42 14 137 30 2 
12 11 232 194 226 150 268 95 47 200 206 222 10 
13 11 48 231 33 221 56 152 292 218 188 286 177 
14 11 2 147 263 154 52 11 281 61 97 121 140 
15 11 260 76 291 171 265 77 182 219 275 276 158 
16 11 127 71 215 5 39 85 102 36 145 126 136 
17 11 60 130 81 129 27 65 69 19 6 272 235 
18 11 193 192 184 95 222 165 206 96 150 232 268 
19 11 65 272 149 36 81 40 63 27 254 203 130 
20 11 234 108 186 123 99 248 135 267 201 261 278 
21 11 78 109 257 196 131 133 240 38 228 58 148 
22 11 91 142 111 255 189 53 103 219 220 34 9 
23 11 169 59 233 230 236 293 35 210 242 74 237 
24 10 126 72 96 251 215 18 165 170 195 253 
25 11 160 105 198 128 181 262 168 100 283 162 261 
26 11 51 107 143 97 7 141 64 98 138 82 119 
27 11 81 69 129 63 235 40 272 149 6 130 65 
28 11 49 120 258 146 285 41 73 167 3 44 244 
29 11 45 259 46 287 209 8 197 235 63 69 254 
30 11 140 57 42 121 281 11 240 14 122 80 147 
31 11 252 187 32 132 241 289 88 223 87 217 53 
32 11 187 252 31 132 88 241 289 59 217 223 53 
33 11 56 231 13 48 152 37 221 213 34 292 220 
34 11 213 111 189 37 152 220 153 56 22 219 77 
35 9 237 214 233 236 169 179 23 92 185 
36 8 203 19 254 272 149 127 227 40 
37 11 213 56 34 33 152 153 231 189 111 220 13 
38 11 228 58 240 257 21 78 133 57 196 131 30 
39 11 102 136 5 71 145 215 50 85 96 98 16 
40 11 63 149 272 254 27 69 259 81 29 19 203 
41 11 3 146 73 114 120 28 258 244 151 183 49 
42 11 121 57 122 30 281 80 11 139 61 140 240 
43 11 62 94 6 112 235 69 90 129 269 46 29 
44 11 89 258 285 212 197 8 209 244 287 28 146 
45 11 29 259 46 287 209 8 197 63 235 69 254 
46 11 209 287 8 45 29 197 259 62 89 235 44 
47 11 12 83 167 268 194 226 232 150 49 120 95 
48 11 13 231 221 33 56 152 292 218 188 286 177 
49 11 28 120 167 285 258 47 146 41 268 83 73 
50 11 118 184 104 4 192 163 102 138 193 136 39 
51 11 143 26 97 107 7 64 141 82 154 119 2 
52 11 147 154 117 64 14 2 140 30 97 263 57 
53 11 132 142 103 252 32 31 91 125 187 289 22 
54 9 202 207 224 274 175 238 243 176 196 
55 11 246 266 79 191 180 68 264 159 84 274 238 
56 11 33 231 152 37 13 48 213 34 220 218 221 
57 11 30 42 140 240 121 281 11 139 122 80 38 
58 11 228 257 133 38 78 21 113 196 277 202 240 
59 11 23 293 230 88 199 233 169 110 210 74 35 
60 11 17 130 81 129 27 65 69 19 272 6 235 
61 11 11 281 121 80 122 263 137 42 256 282 4 
62 11 43 112 94 6 235 46 90 269 69 209 29 
63 11 40 149 272 69 254 27 259 235 81 29 45 
64 11 154 117 97 143 7 147 52 51 2 14 82 
65 11 19 81 272 130 27 60 17 149 40 63 36 
66 11 101 144 148 178 131 250 106 139 172 211 109 
67 9 87 178 208 288 239 241 217 190 109 
68 11 134 191 290 246 55 266 185 79 273 116 180 
69 11 235 27 63 6 129 40 29 81 45 43 62 
70 11 125 83 106 250 289 223 103 53 10 161 194 
71 11 16 5 127 215 39 85 102 145 136 98 96 
72 10 251 126 24 96 170 195 253 227 86 271 
73 11 146 3 114 244 41 258 151 183 212 28 278 
74 11 210 9 171 291 242 169 23 276 182 92 236 
75 11 157 135 270 181 284 267 261 283 160 162 186 
76 11 15 260 77 291 171 219 265 182 153 275 158 
77 11 76 153 15 219 260 291 171 189 265 9 182 
78 11 21 257 133 196 109 228 58 38 240 131 202 
79 9 266 159 246 55 191 238 175 274 224 
80 11 122 121 61 281 11 256 282 42 137 139 211 
81 11 27 65 272 130 63 40 129 60 69 19 149 
82 11 7 115 119 141 143 64 51 97 26 117 154 
83 11 47 70 194 12 226 167 232 120 268 10 150 
84 11 264 205 176 180 274 277 55 113 266 238 202 
85 11 145 5 98 71 136 39 102 16 107 127 215 
86 9 195 174 271 156 253 170 227 279 251 
87 11 67 241 178 223 289 208 217 239 288 31 250 
88 11 59 32 187 132 252 31 23 293 230 210 74 
89 11 44 212 8 209 197 287 258 128 46 285 105 
90 11 269 112 94 93 25 100 62 198 43 262 160 
91 11 22 142 111 255 53 189 103 220 34 219 132 
92 11 179 236 276 204 242 280 225 229 182 169 275 
93 11 100 173 198 262 245 90 270 160 269 25 75 
94 11 112 43 62 6 90 269 235 69 46 129 209 
95 11 150 232 226 222 206 12 268 194 200 18 165 
96 11 24 126 72 215 18 251 184 50 102 192 193 
97 11 143 51 26 64 154 107 2 7 14 147 117 
98 11 145 85 5 107 136 39 26 102 71 51 141 
99 11 201 278 162 168 20 261 234 283 267 108 157 
100 11 198 262 173 245 93 160 270 25 75 90 269 
101 11 144 66 148 172 211 139 282 131 161 249 164 
102 11 39 136 50 5 215 71 145 96 85 98 118 
103 11 53 142 70 91 125 83 22 41 132 120 289 
104 10 118 163 4 184 192 193 216 137 50 138 
105 11 128 168 162 201 283 212 181 261 25 267 157 
106 11 250 223 125 161 289 66 101 70 249 166 172 
107 11 26 51 97 143 138 98 136 145 7 2 39 
108 11 186 20 234 123 135 99 267 157 248 261 201 
109 11 21 196 131 148 178 78 67 66 144 208 133 
110 9 199 293 230 247 159 190 233 59 217 
111 11 22 91 220 34 189 142 213 152 255 219 153 
112 11 62 94 43 90 269 6 46 235 209 287 8 
113 11 277 202 176 205 133 54 84 274 257 196 58 
114 11 151 3 73 244 183 278 146 41 99 212 248 
115 11 119 141 82 7 51 143 26 97 64 107 98 
116 11 134 180 68 55 246 264 191 290 266 84 79 
117 11 154 52 64 147 14 2 97 7 143 140 51 
118 10 104 4 163 184 50 192 193 137 216 138 
119 11 115 141 82 7 51 143 26 97 107 64 98 
120 11 28 49 41 167 146 258 47 73 3 83 285 
121 11 281 11 61 80 42 122 30 57 263 139 282 
122 11 80 121 61 282 42 256 281 11 139 211 172 
123 11 186 108 234 20 188 218 248 135 99 292 267 
124 11 221 286 13 48 33 292 177 231 284 56 188 
125 11 70 289 223 250 106 53 31 252 83 103 132 
126 9 24 72 251 96 215 170 227 253 195 
127 11 16 71 215 36 126 5 24 39 102 96 72 
128 11 105 168 212 162 201 283 261 181 278 25 99 
129 11 27 6 69 235 81 60 130 17 43 63 62 
130 11 60 17 81 65 129 27 19 69 272 63 40 
131 11 148 144 139 109 66 21 101 240 178 78 42 
132 11 32 252 187 31 88 53 241 289 223 59 255 
133 11 257 78 196 58 228 21 202 113 277 38 54 
134 11 68 290 191 246 116 55 273 185 266 180 79 
135 11 267 157 261 283 186 108 181 75 162 20 201 
136 11 39 102 5 145 50 85 71 98 215 107 96 
137 10 163 216 104 61 155 4 80 256 118 122 
138 11 4 263 118 50 104 2 14 163 107 61 97 
139 11 144 131 122 101 42 282 148 80 211 172 66 
140 11 30 57 42 52 147 121 281 14 11 2 240 
141 11 119 115 82 7 51 26 143 107 97 64 98 
142 11 91 22 53 103 255 111 132 189 32 220 252 
143 11 51 97 26 7 64 107 154 82 141 117 2 
144 11 101 66 148 131 139 172 211 282 178 109 256 
145 11 85 5 98 136 39 71 102 107 16 26 215 
146 11 73 3 41 258 114 244 28 120 151 212 183 
147 11 52 154 14 2 117 64 140 97 263 30 11 
148 11 144 66 131 101 178 109 139 21 67 87 250 
149 9 40 272 63 254 203 259 19 27 81 
150 11 232 226 95 12 194 200 206 268 222 10 47 
151 11 183 114 278 244 99 248 3 73 201 234 20 
152 11 231 56 220 48 34 13 33 213 37 218 111 
153 11 77 76 219 189 15 260 213 291 171 34 37 
154 11 147 52 117 64 14 2 97 143 140 7 263 
155 10 166 164 249 216 256 200 211 172 10 282 
156 8 271 174 253 195 170 86 279 227 
157 11 267 261 181 283 135 162 75 201 168 99 108 
158 10 275 229 225 265 204 280 182 276 179 92 
159 7 79 247 110 266 190 175 199 
160 11 198 270 25 262 181 75 157 283 100 261 105 
161 11 166 249 164 172 211 10 155 106 256 282 101 
162 11 201 168 283 261 267 181 99 157 105 128 135 
163 10 104 118 4 137 216 192 193 184 155 50 
164 10 249 172 211 166 161 256 282 155 10 101 
165 11 268 18 95 12 232 150 167 226 72 251 86 
166 10 249 164 161 155 10 172 211 200 256 282 
167 11 49 47 268 120 12 28 165 83 194 232 226 
168 11 162 201 283 261 105 128 99 181 267 157 278 
169 11 23 236 242 92 276 210 179 35 74 233 204 
170 8 227 253 156 195 271 279 174 86 
171 11 291 9 260 74 219 15 210 76 182 242 276 
172 10 211 164 282 249 256 161 166 101 155 122 
173 11 245 262 100 198 270 93 160 75 25 181 284 
174 8 271 156 195 253 86 170 279 227 
175 6 224 238 243 207 274 54 
176 11 202 274 277 54 84 113 205 238 175 224 264 
177 11 284 286 292 188 75 186 221 135 123 108 218 
178 11 67 87 148 109 66 208 241 144 131 288 239 
179 8 204 280 92 236 225 229 276 242 
180 11 264 84 55 246 266 205 79 274 116 68 176 
181 11 283 157 261 267 162 135 168 201 75 160 105 
182 11 276 242 265 275 225 92 158 204 229 179 280 
183 11 151 248 278 114 99 234 20 244 3 201 108 
184 11 192 193 104 118 163 216 50 18 222 4 206 
185 11 290 237 35 191 214 233 273 159 110 230 199 
186 11 108 123 20 234 135 267 157 99 188 261 248 
187 11 32 252 31 132 88 241 289 217 59 223 87 
188 11 218 292 123 186 108 177 20 234 284 135 248 
189 11 219 34 213 153 77 111 255 22 171 91 291 
190 6 217 247 239 288 208 110 
191 10 246 290 55 68 266 79 185 159 134 273 
192 11 193 184 216 104 163 118 222 206 18 50 4 
193 10 192 184 216 222 206 104 163 18 118 95 
194 11 226 12 232 150 200 95 10 268 47 206 83 
195 9 253 271 156 174 86 170 227 279 251 
196 11 78 133 109 202 54 21 257 207 113 243 176 
197 11 8 287 209 46 45 29 259 44 89 285 174 
198 11 262 100 173 160 245 270 25 93 75 181 157 
199 10 293 110 230 247 233 59 23 190 159 217 
200 11 10 206 226 150 194 232 222 166 95 155 12 
201 11 162 168 99 261 283 267 278 181 157 105 128 
202 11 54 176 277 113 274 196 207 238 224 133 175 
203 8 254 227 36 279 170 253 149 156 
204 9 179 280 225 229 92 276 275 158 236 
205 11 84 277 264 176 113 202 274 180 54 238 175 
206 11 222 95 200 150 232 216 226 193 192 10 194 
207 6 243 224 175 238 54 288 
208 7 288 239 67 190 243 207 217 
209 11 287 8 46 197 45 29 259 89 44 62 285 
210 11 74 9 169 242 171 291 23 276 182 92 236 
211 10 172 282 164 256 249 166 161 101 155 122 
212 11 128 244 105 168 278 201 162 151 99 73 114 
213 11 34 37 189 153 111 152 56 220 77 219 22 
214 6 237 35 236 179 280 92 
215 11 127 96 24 126 71 16 39 102 72 136 5 
216 10 163 193 155 192 206 222 137 104 184 200 
217 7 190 239 247 288 208 241 110 
218 11 188 123 292 186 108 234 20 248 177 135 221 
219 11 171 291 77 76 9 15 260 189 255 74 153 
220 11 111 152 34 218 231 248 213 22 91 188 123 
221 11 286 292 177 48 13 188 218 284 231 123 186 
222 11 206 95 150 193 200 216 232 226 192 18 184 
223 11 289 250 125 106 87 241 31 252 187 32 70 
224 6 175 238 243 207 54 274 
225 9 229 204 275 158 280 179 92 276 182 
226 11 232 150 194 12 95 200 268 206 222 10 47 
227 8 170 279 253 156 271 195 174 86 
228 11 58 257 133 38 78 21 113 196 240 277 202 
229 9 225 275 158 204 280 179 92 276 182 
230 11 293 199 110 233 59 23 247 35 237 169 88 
231 11 48 13 152 56 33 292 218 221 220 188 37 
232 11 150 226 12 95 194 268 200 206 222 10 47 
233 11 35 230 237 23 293 199 214 59 169 110 236 
234 11 20 108 186 123 248 99 135 183 278 201 267 
235 11 69 6 27 62 43 63 129 29 45 40 46 
236 10 92 179 169 242 204 276 280 214 35 225 
237 8 35 214 233 185 236 179 169 23 
238 6 175 224 274 243 207 54 
239 7 288 208 190 217 243 207 67 
240 11 57 21 38 131 139 42 78 30 257 144 109 
241 11 87 31 187 252 67 32 217 223 289 208 239 
242 11 276 92 169 236 182 179 204 210 225 280 74 
243 6 207 224 175 238 54 288 
244 11 73 114 212 151 278 3 146 183 128 99 258 
245 11 173 262 270 100 198 160 93 75 25 284 181 
246 11 55 266 191 79 68 180 159 290 134 264 185 
247 7 110 190 199 159 217 293 230 
248 11 234 20 183 123 108 99 151 186 278 201 218 
249 10 164 166 161 172 211 155 256 282 10 101 
250 11 106 223 289 125 66 161 101 70 87 178 144 
251 10 72 126 24 170 253 195 227 86 271 156 
252 11 31 32 187 132 241 88 289 223 53 87 217 
253 8 195 156 271 170 174 86 227 279 
254 8 149 203 40 279 227 63 272 259 
255 11 9 219 22 74 171 189 210 91 291 142 88 
256 10 282 211 172 164 249 155 122 80 166 137 
257 11 133 78 58 228 21 196 38 113 202 109 277 
258 11 146 28 73 44 285 244 3 49 120 41 212 
259 10 45 29 46 287 197 8 209 254 279 63 
260 11 15 76 291 171 265 182 77 219 276 275 158 
261 11 283 267 157 181 162 201 168 135 99 105 75 
262 11 198 100 173 245 270 160 93 25 75 181 157 
263 11 2 14 11 61 281 138 4 121 137 80 147 
264 11 84 180 205 176 55 274 277 266 246 79 113 
265 11 158 275 182 225 229 260 15 276 204 76 92 
266 10 79 55 246 191 159 238 274 175 180 224 
267 11 157 261 283 135 181 162 201 168 99 75 108 
268 11 12 232 95 150 226 165 194 47 167 206 222 
269 11 90 112 25 94 93 100 62 198 89 262 160 
270 11 262 75 245 160 198 173 100 181 284 157 267 
271 8 156 174 195 253 170 86 279 227 
272 11 149 40 63 19 254 81 27 65 36 203 69 
273 5 214 290 237 185 35 
274 10 238 175 176 54 224 207 243 202 84 79 
275 10 158 225 229 204 265 182 280 276 179 92 
276 11 92 242 182 204 179 225 236 229 275 280 158 
277 11 113 176 205 202 84 274 54 264 133 238 196 
278 11 99 151 201 183 168 162 244 114 20 234 128 
279 8 227 170 156 271 253 174 195 86 
280 8 204 179 225 229 92 275 158 236 
281 11 11 121 61 80 122 42 263 30 14 57 2 
282 10 256 211 172 164 249 122 80 155 166 101 
283 11 261 181 267 157 162 168 201 135 99 105 75 
284 11 177 75 135 186 157 267 270 108 181 261 123 
285 11 258 28 44 49 197 120 167 89 146 8 86 
286 11 221 177 292 284 188 75 218 48 186 13 123 
287 11 209 8 197 46 45 29 259 89 44 285 62 
288 7 208 239 190 243 207 67 217 
289 11 223 125 250 31 241 87 252 106 187 32 132 
290 10 185 191 68 273 134 237 246 214 35 55 
291 11 171 260 15 9 76 219 74 210 182 242 276 
292 11 188 218 221 177 123 286 186 284 108 48 13 
293 11 230 199 110 59 233 23 247 35 237 88 190 
DEPOT_SECTION
   1
   -1
EOF
