NAME :  X-n322-kX-w128-c9.cctp
COMMENT : 	Adapted by Maziero, Usberti and Cavellucci from the Uchoa, Pecin, Pessoa, Poggi, Subramanian, and Vidal (2013)
TYPE :  CCTP
DIMENSION :    322
EDGE_WEIGHT_TYPE : 	EUC_2D	
CAPACITY : 	868
VERTICES_WITHIN_COVERAGE :  9
VERTICES_WITH_DEMAND : 	128
NODE_COORD_SECTION
1 500 500
2 737 450
3 235 789
4 340 234
5 346 320
6 406 309
7 556 636
8 872 923
9 937 83
10 9 321
11 558 18
12 63 833
13 250 509
14 143 192
15 624 286
16 364 117
17 332 953
18 235 142
19 590 430
20 303 692
21 936 665
22 39 410
23 247 581
24 986 739
25 11 283
26 138 747
27 837 511
28 596 206
29 218 339
30 443 922
31 555 133
32 896 306
33 415 752
34 691 216
35 51 0
36 726 19
37 166 333
38 951 932
39 928 807
40 505 590
41 236 284
42 115 882
43 238 887
44 729 26
45 94 697
46 409 899
47 993 715
48 473 607
49 414 55
50 884 327
51 651 407
52 891 372
53 570 733
54 919 529
55 629 220
56 711 630
57 141 492
58 720 382
59 794 51
60 745 451
61 409 990
62 825 781
63 966 938
64 378 175
65 859 269
66 596 131
67 419 557
68 77 908
69 679 268
70 726 860
71 382 728
72 885 15
73 258 313
74 734 905
75 533 912
76 924 636
77 694 621
78 469 223
79 507 707
80 892 168
81 281 800
82 607 285
83 388 354
84 568 781
85 22 348
86 153 579
87 218 236
88 308 904
89 119 154
90 939 105
91 489 374
92 547 736
93 480 1000
94 124 883
95 647 930
96 295 741
97 213 53
98 701 446
99 589 708
100 644 147
101 133 377
102 983 343
103 169 651
104 262 450
105 255 422
106 115 640
107 693 344
108 896 910
109 298 531
110 573 416
111 416 512
112 870 50
113 185 436
114 656 268
115 53 522
116 587 165
117 542 762
118 995 809
119 266 878
120 27 812
121 196 522
122 45 164
123 174 729
124 252 311
125 681 621
126 594 478
127 848 361
128 897 253
129 729 354
130 255 410
131 811 703
132 677 991
133 781 909
134 971 632
135 540 824
136 887 144
137 475 860
138 509 336
139 967 433
140 897 98
141 157 676
142 971 727
143 972 381
144 658 504
145 375 214
146 280 526
147 895 158
148 196 779
149 379 223
150 692 470
151 22 395
152 119 604
153 622 843
154 289 811
155 98 365
156 111 426
157 261 101
158 483 818
159 820 480
160 433 961
161 656 421
162 511 273
163 334 794
164 426 686
165 870 112
166 941 978
167 744 498
168 7 346
169 168 877
170 166 244
171 604 430
172 176 452
173 522 306
174 912 406
175 423 564
176 505 779
177 101 383
178 729 307
179 162 515
180 647 869
181 784 983
182 496 811
183 736 39
184 833 529
185 646 367
186 922 294
187 513 535
188 373 331
189 471 694
190 39 149
191 813 538
192 153 115
193 244 505
194 716 286
195 409 228
196 140 484
197 652 239
198 141 628
199 30 924
200 877 307
201 586 723
202 336 615
203 856 584
204 984 221
205 641 671
206 648 704
207 19 309
208 661 125
209 614 194
210 253 864
211 106 841
212 187 687
213 5 289
214 657 83
215 658 58
216 419 839
217 519 347
218 191 864
219 666 486
220 288 276
221 562 646
222 516 725
223 75 785
224 309 966
225 743 856
226 121 698
227 286 258
228 70 635
229 376 539
230 824 834
231 650 350
232 742 277
233 977 647
234 268 698
235 973 145
236 569 655
237 765 22
238 427 869
239 11 869
240 377 793
241 162 897
242 102 444
243 979 386
244 69 483
245 294 395
246 424 536
247 37 705
248 126 782
249 490 30
250 348 771
251 808 469
252 107 512
253 782 207
254 161 793
255 859 469
256 148 763
257 403 723
258 978 760
259 214 132
260 467 387
261 292 262
262 238 846
263 853 27
264 855 506
265 591 902
266 213 742
267 203 364
268 183 3
269 143 608
270 501 152
271 649 492
272 904 31
273 997 741
274 527 299
275 26 402
276 543 506
277 902 548
278 47 419
279 125 226
280 206 608
281 811 668
282 643 265
283 189 736
284 79 287
285 382 630
286 225 604
287 412 843
288 924 756
289 474 356
290 533 721
291 445 101
292 579 994
293 652 658
294 633 914
295 889 206
296 464 243
297 680 735
298 420 998
299 798 490
300 75 518
301 27 680
302 118 804
303 181 428
304 489 91
305 367 977
306 777 679
307 501 137
308 856 6
309 75 999
310 777 984
311 171 874
312 909 569
313 730 509
314 326 596
315 59 533
316 455 853
317 612 163
318 959 409
319 987 154
320 883 195
321 207 6
322 39 831
DEMAND_SECTION
2 61
3 71
4 83
5 85
6 85
7 99
8 63
9 64
10 50
11 56
12 91
13 87
14 75
15 70
16 57
17 86
18 50
19 89
20 75
21 72
22 83
23 74
24 76
25 53
26 93
27 97
28 69
29 61
30 76
31 93
32 55
33 92
34 83
35 92
36 63
37 61
38 53
39 100
40 94
41 74
42 71
43 95
44 74
45 96
46 75
47 91
48 82
49 50
50 84
51 55
52 74
53 73
54 86
55 52
56 81
57 73
58 92
59 83
60 64
61 66
62 93
63 97
64 88
65 67
66 91
67 66
68 98
69 88
70 85
71 73
72 68
73 60
74 73
75 53
76 58
77 62
78 64
79 57
80 81
81 57
82 54
83 73
84 85
85 52
86 65
87 64
88 100
89 60
90 97
91 62
92 92
93 84
94 86
95 81
96 88
97 50
98 87
99 89
100 50
101 72
102 56
103 90
104 78
105 57
106 56
107 77
108 59
109 95
110 68
111 91
112 93
113 89
114 63
115 87
116 71
117 68
118 99
119 78
120 72
121 100
122 60
123 80
124 68
125 71
126 83
127 68
128 96
129 75
COVERAGE_SECTION
2 9 60 98 150 167 313 58 251 299 219 
3 9 148 81 266 262 154 283 254 96 210 
4 9 145 149 261 227 220 195 64 5 6 
5 9 188 83 6 220 261 4 227 73 245 
6 9 188 83 5 195 289 296 149 260 4 
7 9 221 236 40 99 79 48 290 201 205 
8 9 108 38 166 133 63 230 181 310 39 
9 9 90 140 272 235 165 112 136 72 147 
10 9 207 168 85 213 25 151 284 275 22 
11 9 249 304 215 31 214 66 307 291 270 
12 9 322 120 211 223 302 239 42 68 94 
13 9 193 146 109 121 104 23 105 179 172 
14 9 279 89 170 192 87 259 122 18 190 
15 9 82 282 114 197 69 55 231 185 28 
16 9 64 49 291 145 157 149 4 195 304 
17 9 224 305 88 61 46 298 119 160 30 
18 9 259 157 192 97 87 14 89 170 227 
19 9 171 110 126 51 161 185 271 276 219 
20 9 234 96 202 71 250 314 285 266 257 
21 9 76 233 134 142 47 24 288 273 312 
22 9 278 275 151 85 177 168 242 155 156 
23 9 286 280 146 109 13 193 121 314 86 
24 9 273 142 258 47 288 118 21 39 233 
25 9 213 207 10 168 85 284 151 155 275 
26 9 256 248 123 254 226 283 302 148 45 
27 9 184 264 159 191 299 255 251 203 277 
28 9 209 55 116 317 197 66 282 100 82 
29 9 267 124 73 37 41 130 105 101 220 
30 9 160 46 238 137 316 61 298 287 93 
31 9 66 116 307 270 317 304 28 209 100 
32 9 200 50 186 65 128 52 127 102 295 
33 9 257 71 240 164 250 189 216 163 287 
34 9 197 69 55 114 282 194 209 232 100 
35 9 268 190 192 321 122 89 97 259 14 
36 9 44 183 237 59 215 214 208 263 308 
37 9 267 29 101 155 177 41 124 170 73 
38 9 63 166 108 8 39 118 230 133 258 
39 9 288 118 258 24 142 273 62 230 108 
40 9 48 187 7 221 175 236 67 276 246 
41 9 124 73 87 220 227 29 261 170 37 
42 9 94 211 68 241 169 311 12 218 302 
43 9 210 119 262 218 311 169 88 241 154 
44 9 36 183 237 59 215 214 208 263 308 
45 9 226 247 106 141 228 26 301 198 256 
46 9 238 30 287 216 316 160 137 305 61 
47 9 24 142 273 258 233 21 288 134 118 
48 9 40 175 67 187 246 189 7 164 285 
49 9 291 16 249 304 307 64 270 11 157 
50 9 200 32 52 127 186 65 128 174 102 
51 9 161 185 171 231 98 19 58 150 107 
52 9 174 127 50 32 200 318 143 186 243 
53 9 201 92 99 290 117 84 222 79 236 
54 9 277 312 264 27 203 255 184 191 76 
55 9 197 209 28 282 114 317 34 15 69 
56 9 77 125 293 205 306 206 281 297 313 
57 9 196 179 252 172 242 121 113 300 156 
58 9 129 107 98 2 51 60 161 178 185 
59 9 237 183 263 44 36 112 308 165 72 
60 9 2 98 167 150 313 251 299 58 159 
61 9 298 160 305 93 30 17 46 224 238 
62 9 230 131 288 39 225 306 281 70 133 
63 9 38 166 108 8 118 39 230 258 133 
64 9 145 149 16 195 4 291 78 296 261 
65 9 128 200 32 50 186 295 320 127 253 
66 9 116 317 31 100 208 209 28 214 55 
67 9 175 246 111 229 48 285 40 187 202 
68 9 42 199 94 211 12 239 241 322 309 
69 9 114 282 197 194 34 15 178 232 55 
70 9 225 74 133 180 230 153 95 294 62 
71 9 257 33 250 164 240 163 20 96 189 
72 9 272 308 263 112 140 9 59 165 90 
73 9 124 41 29 220 261 227 267 87 5 
74 9 70 133 225 310 95 181 180 294 132 
75 9 265 137 135 30 292 316 294 93 158 
76 9 21 134 233 312 203 277 142 47 54 
77 9 125 56 293 205 206 306 297 313 144 
78 9 296 195 162 270 149 307 145 274 173 
79 9 222 290 189 92 117 53 176 201 236 
80 9 147 136 320 295 165 140 90 235 128 
81 9 154 3 163 96 262 210 250 119 148 
82 9 15 282 114 197 55 69 231 28 274 
83 9 188 6 5 260 289 91 245 138 220 
84 9 117 53 92 135 201 176 290 99 222 
85 9 168 10 207 151 275 213 22 25 278 
86 9 269 152 198 280 179 121 106 103 286 
87 9 41 170 227 261 220 124 14 73 279 
88 9 119 17 224 210 43 262 305 154 46 
89 9 14 192 279 122 190 259 170 18 87 
90 9 9 140 235 136 147 165 319 80 272 
91 9 289 260 217 138 173 274 110 83 162 
92 9 290 53 117 222 201 79 84 99 176 
93 9 298 160 61 30 292 75 305 46 137 
94 9 42 241 169 211 311 68 218 12 302 
95 9 294 180 265 132 74 153 292 70 75 
96 9 20 234 81 250 163 154 3 266 71 
97 9 321 268 157 259 192 18 89 14 16 
98 9 150 2 60 161 219 51 58 167 271 
99 9 201 53 92 236 290 206 205 221 117 
100 9 208 317 66 209 116 214 55 28 34 
101 9 177 155 156 37 303 267 242 113 172 
102 9 143 243 318 186 139 32 174 52 50 
103 9 141 198 212 269 106 280 226 152 286 
104 9 105 130 193 13 245 113 146 303 172 
105 9 130 104 245 113 303 267 193 172 13 
106 9 198 152 269 228 103 141 226 45 86 
107 9 129 231 58 178 185 194 51 69 232 
108 9 8 38 63 166 230 39 133 181 310 
109 9 146 13 193 23 314 229 104 202 121 
110 9 19 171 126 51 161 185 217 91 276 
111 9 246 67 229 175 187 48 40 109 285 
112 9 263 72 272 308 140 165 9 59 90 
113 9 303 172 196 57 105 267 130 156 104 
114 9 282 69 197 15 82 55 34 194 231 
115 9 315 300 244 252 242 57 196 278 152 
116 9 317 66 209 28 31 100 55 208 270 
117 9 92 84 53 176 290 222 201 135 79 
118 9 258 39 273 24 142 288 47 38 63 
119 9 210 43 262 88 154 218 81 3 311 
120 9 322 12 223 239 211 302 248 247 68 
121 9 179 193 13 57 196 86 172 23 146 
122 9 190 89 279 14 192 25 284 213 170 
123 9 283 26 266 256 212 148 141 226 254 
124 9 73 41 29 220 227 261 267 87 37 
125 9 77 56 293 205 206 306 297 236 144 
126 9 19 171 271 276 110 144 219 161 51 
127 9 52 50 200 32 174 65 186 255 251 
128 9 65 186 295 32 200 320 50 80 204 
129 9 58 107 178 194 232 231 185 51 2 
130 9 105 104 245 267 113 303 29 172 193 
131 9 281 306 62 56 288 203 21 76 230 
132 9 95 294 292 310 74 181 265 180 133 
133 9 74 225 70 181 310 230 8 108 132 
134 9 233 76 21 47 312 142 24 277 273 
135 9 182 84 158 176 117 137 153 75 92 
136 9 147 80 165 140 320 295 90 9 235 
137 9 316 158 238 182 216 287 30 135 46 
138 9 217 173 289 274 91 162 260 110 296 
139 9 318 243 143 174 102 52 54 255 277 
140 9 165 9 90 136 112 147 272 80 72 
141 9 103 212 226 198 106 123 45 283 269 
142 9 24 47 273 258 288 21 233 118 39 
143 9 243 318 102 139 174 52 186 50 32 
144 9 271 219 150 126 98 313 161 167 171 
145 9 149 195 64 4 78 296 261 16 227 
146 9 109 13 193 23 104 121 314 286 229 
147 9 80 136 320 295 165 140 90 235 9 
148 9 254 3 266 283 256 123 26 248 262 
149 9 145 195 4 64 296 6 78 261 227 
150 9 98 219 144 271 2 313 60 167 161 
151 9 275 22 278 85 168 10 177 155 207 
152 9 269 198 106 86 228 103 141 280 252 
153 9 180 265 294 84 135 95 70 75 117 
154 9 81 163 3 262 210 96 119 250 240 
155 9 177 101 156 22 278 37 85 242 284 
156 9 242 177 101 155 278 196 172 303 244 
157 9 18 259 97 16 192 321 268 64 87 
158 9 182 137 176 316 135 216 287 238 117 
159 9 251 299 27 255 264 184 191 167 60 
160 9 61 298 30 93 46 305 238 17 137 
161 9 51 98 171 185 150 219 19 231 271 
162 9 274 173 296 138 78 217 289 82 91 
163 9 250 240 154 81 96 71 33 287 216 
164 9 257 189 71 33 285 79 48 222 290 
165 9 140 136 147 80 112 90 9 320 263 
166 9 38 63 108 8 181 310 39 133 118 
167 9 313 60 2 299 150 98 251 159 219 
168 9 85 10 207 151 213 275 25 22 278 
169 9 311 241 218 94 42 43 211 262 254 
170 9 279 87 14 41 37 284 89 29 124 
171 9 19 110 126 51 161 185 271 219 144 
172 9 113 303 196 57 179 156 121 242 105 
173 9 274 138 162 217 289 91 296 82 78 
174 9 52 318 139 143 243 127 255 50 102 
175 9 67 246 111 229 48 285 40 187 202 
176 9 182 117 158 222 135 92 84 290 79 
177 9 155 101 156 242 278 22 275 151 37 
178 9 194 232 129 107 69 58 114 231 282 
179 9 57 121 196 252 86 172 113 193 300 
180 9 153 294 95 265 70 74 225 135 84 
181 9 310 133 74 8 132 225 108 70 95 
182 9 158 176 135 137 316 117 84 216 222 
183 9 44 36 237 59 215 214 208 263 308 
184 9 27 191 264 159 299 203 251 255 277 
185 9 231 51 107 161 58 171 15 19 129 
186 9 32 200 128 50 65 102 52 295 204 
187 9 276 40 48 246 175 67 126 111 7 
188 9 83 5 6 220 4 245 289 261 149 
189 9 79 164 222 290 257 33 48 92 176 
190 9 122 89 14 279 192 25 213 284 35 
191 9 184 27 299 264 159 203 251 167 255 
192 9 89 259 14 18 97 157 279 268 122 
193 9 13 146 121 104 109 23 179 105 172 
194 9 178 232 69 107 114 129 34 282 197 
195 9 149 145 296 78 64 4 6 188 162 
196 9 57 179 252 172 242 156 113 121 303 
197 9 282 114 55 69 34 15 209 82 28 
198 9 269 106 152 103 86 141 280 228 226 
199 9 68 239 309 322 42 12 94 120 211 
200 9 32 50 65 186 128 127 52 295 174 
201 9 99 53 92 290 117 84 206 222 236 
202 9 314 285 20 229 109 23 67 175 146 
203 9 312 277 184 191 27 264 54 76 281 
204 9 319 235 128 186 295 320 80 147 32 
205 9 293 206 99 125 77 236 297 201 56 
206 9 205 297 293 99 201 53 125 236 77 
207 9 10 213 25 85 168 284 151 275 155 
208 9 100 214 317 66 215 209 116 34 55 
209 9 28 55 317 116 100 197 66 282 34 
210 9 119 262 43 218 154 88 81 3 311 
211 9 302 42 12 94 248 223 322 169 68 
212 9 141 103 123 283 266 226 198 26 280 
213 9 25 207 10 168 85 284 151 275 155 
214 9 215 208 100 66 183 44 317 36 116 
215 9 214 208 36 44 183 100 66 11 237 
216 9 287 238 316 137 46 240 158 182 30 
217 9 138 91 173 289 274 260 162 110 82 
218 9 311 169 241 262 43 210 94 119 254 
219 9 271 144 150 98 161 313 126 167 2 
220 9 261 227 73 124 41 4 5 87 29 
221 9 236 7 99 40 290 201 79 205 53 
222 9 290 79 92 117 53 176 189 201 99 
223 9 302 12 248 120 322 211 26 256 254 
224 9 17 305 88 119 61 43 210 298 46 
225 9 70 74 133 230 180 62 95 153 294 
226 9 45 141 26 106 123 103 212 256 198 
227 9 261 220 41 4 73 124 87 5 145 
228 9 106 152 301 45 198 247 269 226 141 
229 9 67 111 246 175 314 109 202 285 146 
230 9 62 225 133 8 70 108 39 74 288 
231 9 185 107 51 15 161 58 82 129 114 
232 9 194 178 69 129 34 253 107 114 197 
233 9 134 21 76 47 142 24 273 312 258 
234 9 20 96 266 212 283 3 123 81 286 
235 9 319 90 9 204 147 80 136 140 320 
236 9 221 7 99 201 205 290 53 79 293 
237 9 183 44 36 59 263 308 112 215 72 
238 9 287 216 316 46 137 30 158 182 240 
239 9 322 199 120 12 68 211 42 223 94 
240 9 250 163 33 287 216 71 257 154 238 
241 9 169 311 94 218 42 43 211 68 262 
242 9 156 244 196 278 177 57 252 22 101 
243 9 143 318 102 139 174 52 186 50 32 
244 9 300 115 252 242 315 278 156 196 57 
245 9 130 105 104 73 5 29 124 267 188 
246 9 67 111 175 229 48 187 40 285 314 
247 9 301 45 228 226 223 106 120 26 248 
248 9 302 256 26 254 223 211 148 123 283 
249 9 304 11 49 291 307 31 270 66 16 
250 9 163 240 71 96 33 154 81 257 20 
251 9 159 299 27 255 264 184 60 191 167 
252 9 300 57 196 244 315 115 179 242 86 
253 9 232 34 65 320 194 295 178 80 69 
254 9 256 248 148 302 26 283 123 211 266 
255 9 264 159 27 251 184 299 174 191 54 
256 9 26 248 254 123 283 148 302 266 226 
257 9 71 33 164 250 189 240 285 163 20 
258 9 24 273 142 47 118 288 39 21 233 
259 9 18 157 192 97 14 89 87 170 321 
260 9 91 289 138 217 83 173 6 274 188 
261 9 227 220 4 41 73 124 87 5 149 
262 9 210 43 119 218 3 154 81 311 169 
263 9 308 112 72 272 59 140 165 237 9 
264 9 27 184 255 159 191 299 251 277 54 
265 9 294 75 95 180 153 135 292 84 137 
266 9 283 123 148 3 212 256 234 254 26 
267 9 29 37 303 130 101 124 113 73 105 
268 9 321 97 192 157 35 259 18 89 14 
269 9 198 152 86 106 103 280 141 228 286 
270 9 307 31 304 291 78 116 66 296 28 
271 9 144 219 150 126 98 161 171 313 51 
272 9 72 112 263 308 9 140 90 165 59 
273 9 24 47 258 142 118 288 39 233 21 
274 9 173 162 138 217 289 82 91 296 78 
275 9 151 22 278 85 168 177 155 10 242 
276 9 187 126 19 40 110 171 271 144 48 
277 9 312 54 203 264 184 27 191 255 76 
278 9 22 275 151 242 156 177 244 155 85 
279 9 14 170 89 284 87 122 192 37 190 
280 9 286 23 103 86 269 198 212 141 121 
281 9 131 306 203 56 62 76 21 77 191 
282 9 114 15 197 69 82 55 34 28 194 
283 9 123 266 148 212 256 26 254 141 3 
284 9 207 25 213 279 10 155 85 168 170 
285 9 202 314 164 175 67 229 48 257 71 
286 9 280 23 103 86 269 121 198 212 146 
287 9 216 238 316 46 240 137 158 30 182 
288 9 39 258 142 24 273 47 118 21 62 
289 9 91 260 138 217 173 274 6 83 162 
290 9 222 92 79 53 117 201 99 176 189 
291 9 304 49 307 270 16 249 64 31 78 
292 9 95 265 75 294 132 93 180 160 30 
293 9 205 206 125 77 56 99 297 236 221 
294 9 95 265 180 153 132 292 75 74 70 
295 9 320 80 128 147 136 65 186 165 204 
296 9 78 162 195 274 173 149 6 145 270 
297 9 206 205 293 99 201 56 53 306 125 
298 9 61 160 305 93 30 17 46 224 238 
299 9 251 159 27 191 184 167 264 255 60 
300 9 115 315 252 244 57 196 242 179 152 
301 9 247 228 45 226 106 223 152 198 26 
302 9 248 211 254 223 256 26 12 42 94 
303 9 113 172 267 196 101 156 105 57 130 
304 9 291 307 249 270 31 49 11 66 116 
305 9 17 61 298 224 160 46 30 88 93 
306 9 281 131 56 77 125 297 62 203 293 
307 9 270 304 31 291 116 78 66 249 296 
308 9 263 72 112 272 59 237 140 165 9 
309 9 199 68 42 94 241 239 169 311 211 
310 9 181 133 74 132 8 225 70 108 95 
311 9 169 218 241 94 42 43 211 262 254 
312 9 277 54 203 76 264 184 134 27 21 
313 9 167 150 2 60 219 98 299 144 271 
314 9 202 285 109 229 23 146 20 67 286 
315 9 115 300 244 252 57 152 196 242 228 
316 9 137 238 216 287 158 182 46 30 176 
317 9 116 209 66 100 28 55 208 31 197 
318 9 139 243 143 174 102 52 50 255 32 
319 9 235 204 90 9 147 80 136 140 295 
320 9 295 80 147 136 128 65 165 140 253 
321 9 268 97 157 192 259 18 35 89 16 
322 9 120 12 239 223 211 302 68 42 199 
DEPOT_SECTION
   1
   -1
EOF
