NAME :  X-n313-kX-w124-c7.cctp
COMMENT : 	Adapted by Maziero, Usberti and Cavellucci from the Uchoa, Pecin, Pessoa, Poggi, Subramanian, and Vidal (2013)
TYPE :  CCTP
DIMENSION :    273
EDGE_WEIGHT_TYPE : 	EUC_2D	
CAPACITY : 	248
VERTICES_WITHIN_COVERAGE :  7
VERTICES_WITH_DEMAND : 	124
NODE_COORD_SECTION
1 471 44
2 63 475
3 766 504
4 895 595
5 816 377
6 462 590
7 997 596
8 775 993
9 16 97
10 839 348
11 558 896
12 423 912
13 169 411
14 75 602
15 402 52
16 388 208
17 202 39
18 510 841
19 555 484
20 920 633
21 369 718
22 432 696
23 624 872
24 472 323
25 753 701
26 584 440
27 292 665
28 202 310
29 764 255
30 662 486
31 822 575
32 469 13
33 640 165
34 814 886
35 554 82
36 336 745
37 950 229
38 142 835
39 407 932
40 69 205
41 86 764
42 202 165
43 376 632
44 639 987
45 775 98
46 503 855
47 38 960
48 215 73
49 566 78
50 4 517
51 44 457
52 676 337
53 338 568
54 623 911
55 626 931
56 97 43
57 799 942
58 725 430
59 93 953
60 264 347
61 986 595
62 631 614
63 331 362
64 158 793
65 760 436
66 115 641
67 307 764
68 469 817
69 315 388
70 906 830
71 564 25
72 88 246
73 671 892
74 181 139
75 723 784
76 609 798
77 174 403
78 76 671
79 984 939
80 830 579
81 3 893
82 176 164
83 625 158
84 249 590
85 663 347
86 21 500
87 501 372
88 572 218
89 483 270
90 604 201
91 548 281
92 205 745
93 125 178
94 870 931
95 276 846
96 759 839
97 79 105
98 218 992
99 277 797
100 545 62
101 161 102
102 1 827
103 719 128
104 80 366
105 16 732
106 24 521
107 848 600
108 585 594
109 618 577
110 44 300
111 489 239
112 479 978
113 768 731
114 274 30
115 546 837
116 890 640
117 594 308
118 878 716
119 498 448
120 145 96
121 54 935
122 473 5
123 906 899
124 277 752
125 435 254
126 905 275
127 521 401
128 850 425
129 374 186
130 712 433
131 814 730
132 681 74
133 120 490
134 297 816
135 376 534
136 982 560
137 1 332
138 815 625
139 659 994
140 804 110
141 415 517
142 106 844
143 549 366
144 57 742
145 848 739
146 381 700
147 442 808
148 867 408
149 67 930
150 763 186
151 581 91
152 416 56
153 163 73
154 160 129
155 314 748
156 580 852
157 464 768
158 718 885
159 758 736
160 110 40
161 279 995
162 184 123
163 181 234
164 49 83
165 869 742
166 708 854
167 945 830
168 440 768
169 205 96
170 505 113
171 154 171
172 574 757
173 491 864
174 168 63
175 1 235
176 173 235
177 733 735
178 449 717
179 241 173
180 466 981
181 433 647
182 425 754
183 145 188
184 393 883
185 150 145
186 247 104
187 673 627
188 811 550
189 60 207
190 530 970
191 814 654
192 247 178
193 173 134
194 635 947
195 335 108
196 16 241
197 539 903
198 511 845
199 732 749
200 637 586
201 482 945
202 196 132
203 113 192
204 35 140
205 136 192
206 845 818
207 482 936
208 341 846
209 124 65
210 115 177
211 320 660
212 599 809
213 881 701
214 417 880
215 629 972
216 149 77
217 58 45
218 212 89
219 411 820
220 499 821
221 80 162
222 412 963
223 637 812
224 689 881
225 518 897
226 718 798
227 516 903
228 156 148
229 51 208
230 481 843
231 737 665
232 566 790
233 448 906
234 713 800
235 210 251
236 115 168
237 490 816
238 624 845
239 558 674
240 843 646
241 797 784
242 454 855
243 536 845
244 450 944
245 484 809
246 137 91
247 904 772
248 773 790
249 778 845
250 118 296
251 416 911
252 656 825
253 378 177
254 585 960
255 348 762
256 302 277
257 244 146
258 672 914
259 381 465
260 484 875
261 293 866
262 565 560
263 681 611
264 575 804
265 65 87
266 193 132
267 77 212
268 142 150
269 148 142
270 485 993
271 495 988
272 569 802
273 702 785
DEMAND_SECTION
2 94
3 56
4 73
5 25
6 4
7 97
8 82
9 57
10 41
11 98
12 45
13 86
14 5
15 83
16 99
17 78
18 64
19 44
20 69
21 25
22 44
23 64
24 59
25 72
26 10
27 26
28 56
29 1
30 41
31 69
32 62
33 29
34 77
35 20
36 46
37 47
38 19
39 48
40 95
41 21
42 56
43 13
44 79
45 21
46 66
47 2
48 61
49 2
50 21
51 51
52 33
53 43
54 55
55 89
56 54
57 62
58 41
59 49
60 71
61 100
62 67
63 64
64 40
65 50
66 40
67 4
68 19
69 86
70 76
71 34
72 82
73 90
74 68
75 79
76 80
77 75
78 38
79 87
80 69
81 48
82 78
83 4
84 11
85 43
86 9
87 9
88 14
89 57
90 5
91 9
92 14
93 93
94 72
95 8
96 96
97 82
98 8
99 3
100 11
101 58
102 7
103 50
104 76
105 2
106 35
107 81
108 54
109 72
110 87
111 82
112 47
113 70
114 56
115 74
116 79
117 33
118 92
119 55
120 72
121 40
122 57
123 76
124 47
125 88
COVERAGE_SECTION
2 7 51 86 133 106 50 104 13 
3 7 188 65 58 130 31 80 30 
4 7 20 116 107 80 240 31 138 
5 7 10 128 148 65 58 130 29 
6 7 181 141 43 135 262 22 108 
7 7 61 136 20 4 116 107 213 
8 7 57 94 34 139 158 258 44 
9 7 164 204 265 97 217 221 56 
10 7 5 148 128 126 65 29 58 
11 6 197 225 227 156 243 115 
12 6 251 39 233 214 184 244 
13 7 77 133 104 28 60 2 250 
14 7 66 78 106 50 86 133 2 
15 7 152 32 122 195 170 253 114 
16 6 129 253 125 111 256 89 
17 7 48 174 218 153 169 216 114 
18 7 198 46 220 243 230 173 237 
19 7 26 119 262 127 30 109 108 
20 7 116 4 61 213 240 107 7 
21 7 146 36 255 155 22 182 211 
22 7 178 181 146 182 21 168 157 
23 7 238 54 156 73 252 55 223 
24 7 89 87 125 111 91 143 127 
25 5 113 159 177 231 199 
26 7 19 127 143 119 30 87 262 
27 7 211 84 155 124 43 36 21 
28 6 235 60 163 176 250 77 
29 7 150 10 52 5 103 85 126 
30 7 130 58 26 109 200 3 19 
31 7 80 188 107 138 240 4 191 
32 7 122 152 15 100 71 170 35 
33 7 83 90 88 103 151 132 49 
34 7 249 57 94 96 206 123 158 
35 7 49 100 151 71 170 83 32 
36 7 255 155 67 21 124 146 99 
37 7 126 10 29 140 150 148 5 
38 7 142 64 41 92 149 144 59 
39 7 251 12 222 244 233 184 214 
40 7 189 267 229 221 72 203 210 
41 7 144 105 64 142 38 78 102 
42 7 82 74 202 266 179 193 162 
43 7 181 211 146 53 22 21 27 
44 7 215 139 194 55 254 54 258 
45 7 140 103 150 132 33 29 83 
46 6 198 173 18 230 260 220 
47 7 121 149 59 81 142 102 38 
48 6 218 169 17 186 174 153 
49 7 35 151 100 71 170 83 33 
50 7 106 86 2 51 14 133 66 
51 7 2 86 106 50 133 104 137 
52 7 85 117 130 58 29 65 143 
53 7 135 43 84 141 211 27 259 
54 7 55 194 23 258 73 215 254 
55 7 194 54 215 258 254 44 23 
56 7 160 209 217 265 164 216 246 
57 7 8 34 94 158 249 96 123 
58 7 130 65 30 3 85 5 52 
59 7 149 121 47 81 142 38 98 
60 6 69 63 28 256 77 235 
61 7 7 136 20 4 116 107 213 
62 5 200 109 187 108 263 
63 6 69 60 256 259 28 24 
64 7 38 92 142 41 144 99 124 
65 7 58 130 3 5 128 30 148 
66 7 78 14 144 41 105 92 84 
67 7 155 124 36 255 99 134 21 
68 7 245 237 147 230 220 242 18 
69 7 63 60 259 256 28 77 13 
70 6 167 247 206 123 165 94 
71 7 100 49 35 151 122 32 170 
72 7 267 40 189 229 250 203 110 
73 7 224 258 158 23 54 166 55 
74 7 193 266 162 202 154 82 228 
75 6 226 234 273 199 177 248 
76 7 212 223 264 272 232 238 172 
77 7 13 28 104 133 60 250 2 
78 7 66 14 144 105 41 64 92 
79 7 123 94 167 70 34 206 57 
80 7 31 107 188 138 4 240 191 
81 7 102 121 149 47 59 142 38 
82 7 171 74 42 228 193 185 266 
83 7 33 90 88 151 49 103 132 
84 7 27 53 211 43 135 66 92 
85 7 52 117 130 58 143 26 65 
86 7 106 50 2 51 133 14 104 
87 7 127 143 24 119 91 89 26 
88 7 90 91 83 33 111 117 89 
89 7 111 125 24 91 88 87 16 
90 7 88 83 33 91 117 151 111 
91 7 117 89 88 111 143 24 90 
92 7 64 124 99 67 155 38 134 
93 7 210 236 203 205 183 171 268 
94 7 123 34 57 70 8 79 206 
95 6 261 134 99 208 67 124 
96 7 249 248 166 226 234 158 75 
97 7 265 164 204 221 209 246 9 
98 7 161 59 261 95 149 38 121 
99 7 134 67 124 95 155 261 36 
100 7 35 49 71 151 170 32 122 
101 7 120 246 154 216 153 162 193 
102 7 81 105 144 41 142 121 149 
103 7 45 132 150 33 140 83 29 
104 7 110 250 137 51 13 77 2 
105 7 144 41 78 102 66 14 142 
106 7 50 86 2 51 14 133 66 
107 7 80 31 138 240 4 116 188 
108 7 109 262 62 200 239 187 263 
109 6 200 108 62 262 263 187 
110 7 137 196 72 250 104 175 229 
111 7 89 125 91 24 88 16 90 
112 6 180 270 271 201 207 244 
113 6 159 25 177 199 131 248 
114 6 17 48 186 218 169 195 
115 7 243 18 198 156 272 264 46 
116 7 20 4 240 107 213 138 118 
117 7 91 143 85 52 88 90 87 
118 7 213 165 145 247 131 116 240 
119 7 127 19 87 26 143 141 259 
120 7 246 101 216 153 154 209 174 
121 7 149 47 59 81 142 102 38 
122 7 32 152 15 100 71 35 170 
123 7 94 70 167 79 34 206 57 
124 7 67 155 99 36 134 92 255 
125 7 89 111 16 24 129 253 91 
126 7 37 10 5 148 29 128 150 
127 7 87 143 119 26 19 24 117 
128 7 148 5 10 65 3 58 188 
129 6 253 16 195 125 256 111 
130 7 58 65 30 3 85 52 5 
131 6 145 113 159 165 241 118 
132 7 103 45 33 83 151 49 35 
133 7 2 51 13 86 106 77 50 
134 7 99 95 261 67 208 124 155 
135 7 141 53 259 43 6 181 211 
136 7 61 7 4 20 116 107 80 
137 7 110 104 196 175 72 250 51 
138 5 191 240 107 80 31 
139 7 44 215 194 55 254 258 54 
140 7 45 150 103 132 29 33 83 
141 7 135 259 6 53 119 43 181 
142 7 38 64 41 149 121 102 59 
143 7 127 87 117 26 91 24 119 
144 7 41 105 78 102 64 142 66 
145 6 165 131 118 213 247 241 
146 7 21 22 36 43 178 182 255 
147 7 68 219 168 245 157 237 242 
148 7 128 5 10 65 126 3 58 
149 7 121 59 47 81 142 38 102 
150 7 29 103 140 45 33 132 83 
151 7 49 35 100 71 170 83 33 
152 7 15 32 122 195 170 253 100 
153 7 174 216 101 120 246 209 169 
154 7 193 269 185 228 74 162 101 
155 7 67 36 124 255 99 21 134 
156 7 115 238 243 212 23 264 11 
157 7 168 182 147 245 68 178 237 
158 7 224 166 73 258 96 249 234 
159 5 113 177 199 25 131 
160 7 56 209 217 216 246 153 174 
161 6 98 261 222 39 95 184 
162 7 266 202 74 193 154 101 169 
163 6 176 235 183 205 171 82 
164 7 265 9 97 217 204 56 160 
165 6 145 118 213 247 131 206 
166 7 158 224 73 96 234 226 252 
167 6 70 247 123 206 79 165 
168 7 182 157 147 178 68 219 245 
169 6 218 48 162 202 266 186 
170 7 35 100 49 151 32 71 152 
171 7 183 82 228 268 185 205 93 
172 5 232 272 264 76 212 
173 4 260 46 230 198 
174 7 153 216 101 120 17 246 209 
175 7 196 229 189 40 110 267 72 
176 6 163 235 183 205 171 82 
177 3 199 159 113 
178 7 22 182 168 157 146 181 21 
179 6 192 257 42 202 266 82 
180 6 112 270 271 201 244 207 
181 7 22 43 6 178 146 21 182 
182 7 168 157 178 147 22 21 219 
183 7 205 171 93 203 210 236 268 
184 5 214 251 12 39 233 
185 7 269 228 268 154 193 171 74 
186 6 218 257 169 48 202 266 
187 2 263 62 
188 5 31 80 107 3 138 
189 7 40 229 267 72 221 203 196 
190 6 271 270 112 201 254 207 
191 6 138 240 107 131 25 80 
192 4 179 257 42 202 
193 7 74 154 162 266 228 202 185 
194 7 55 215 54 44 258 254 139 
195 7 253 15 129 186 152 114 257 
196 7 175 229 189 40 110 267 72 
197 3 11 225 227 
198 7 18 46 243 220 173 230 115 
199 4 177 159 75 113 
200 6 109 62 263 108 187 262 
201 4 207 244 112 180 
202 6 266 162 74 193 42 154 
203 7 210 93 205 236 183 267 221 
204 7 9 221 97 164 265 229 189 
205 7 183 93 203 210 171 236 268 
206 6 241 70 249 34 247 248 
207 3 201 244 112 
208 5 261 134 184 95 219 
209 7 216 160 246 56 120 153 174 
210 7 236 93 203 205 183 221 268 
211 7 27 43 146 21 36 155 53 
212 7 76 264 272 223 232 238 156 
213 7 118 165 145 116 240 131 247 
214 6 184 251 12 233 242 39 
215 7 44 194 139 55 254 54 258 
216 7 153 246 120 174 101 209 154 
217 7 56 164 265 160 97 9 209 
218 6 169 48 186 162 202 266 
219 5 147 242 68 168 214 
220 7 237 245 18 198 230 68 46 
221 7 236 210 40 203 93 189 204 
222 7 39 244 12 251 180 233 112 
223 7 252 76 238 212 23 264 272 
224 7 73 158 166 258 252 23 54 
225 3 227 197 11 
226 7 234 75 273 199 248 166 96 
227 3 225 197 11 
228 7 185 269 268 154 193 171 82 
229 7 189 40 267 196 72 221 175 
230 7 173 46 220 237 18 68 198 
231 1 25 
232 7 272 264 172 212 76 115 243 
233 3 12 251 244 
234 7 226 75 273 166 199 96 248 
235 5 163 176 28 192 179 
236 7 210 93 203 205 268 183 221 
237 7 245 220 68 230 18 198 46 
238 7 23 223 252 212 156 76 264 
239 3 108 172 62 
240 7 191 138 107 116 213 80 4 
241 6 248 131 206 113 159 249 
242 5 230 260 173 68 214 
243 7 115 198 18 46 220 156 173 
244 6 201 207 233 180 12 222 
245 7 237 68 220 230 18 147 198 
246 7 120 216 101 209 153 174 154 
247 7 165 70 118 145 167 206 213 
248 6 241 75 96 249 159 226 
249 7 96 34 248 241 166 158 206 
250 7 72 110 104 176 28 163 267 
251 7 12 39 214 233 184 244 222 
252 7 223 238 76 23 212 166 273 
253 6 129 16 195 125 256 15 
254 7 215 55 194 190 44 54 11 
255 7 36 155 67 21 146 124 134 
256 5 60 63 235 28 16 
257 6 179 192 186 42 202 266 
258 7 73 224 54 55 194 158 23 
259 7 141 135 69 53 63 119 6 
260 2 173 46 
261 5 95 134 208 99 184 
262 7 108 109 19 200 62 6 239 
263 3 187 62 200 
264 7 272 232 212 76 115 172 156 
265 7 164 97 217 9 56 204 209 
266 6 202 162 74 193 154 42 
267 7 40 189 229 72 203 221 210 
268 7 185 269 228 171 154 236 93 
269 7 185 228 268 154 193 171 74 
270 7 271 112 180 201 190 207 244 
271 6 270 112 180 190 201 207 
272 7 264 232 212 76 115 172 156 
273 4 234 75 226 199 
DEPOT_SECTION
   1
   -1
EOF
