NAME :  X-n384-kX-w153-c7.cctp
COMMENT : 	Adapted by Maziero, Usberti and Cavellucci from the Uchoa, Pecin, Pessoa, Poggi, Subramanian, and Vidal (2013)
TYPE :  CCTP
DIMENSION :    380
EDGE_WEIGHT_TYPE : 	EUC_2D	
CAPACITY : 	564
VERTICES_WITHIN_COVERAGE :  7
VERTICES_WITH_DEMAND : 	153
NODE_COORD_SECTION
1 51 570
2 691 985
3 66 119
4 502 415
5 434 289
6 427 584
7 342 576
8 790 87
9 312 475
10 908 531
11 840 566
12 863 232
13 284 833
14 515 175
15 9 243
16 768 209
17 777 582
18 84 508
19 380 523
20 255 267
21 544 961
22 408 661
23 57 588
24 278 44
25 168 722
26 726 406
27 223 385
28 495 70
29 560 632
30 235 655
31 643 127
32 765 267
33 459 976
34 585 962
35 154 796
36 650 444
37 931 52
38 377 19
39 178 633
40 917 803
41 871 677
42 667 164
43 208 651
44 35 437
45 503 680
46 462 870
47 322 123
48 677 829
49 878 407
50 223 251
51 671 94
52 218 351
53 375 220
54 367 567
55 986 869
56 236 769
57 202 998
58 761 712
59 75 520
60 14 737
61 895 632
62 224 725
63 328 387
64 36 300
65 817 531
66 31 283
67 209 574
68 490 395
69 659 121
70 410 207
71 761 450
72 768 348
73 943 340
74 39 955
75 106 150
76 963 376
77 516 144
78 554 127
79 944 75
80 373 88
81 54 5
82 39 965
83 51 392
84 999 983
85 563 410
86 536 848
87 786 533
88 42 948
89 875 361
90 535 800
91 581 696
92 413 763
93 148 875
94 483 983
95 449 343
96 219 600
97 374 487
98 279 200
99 479 705
100 273 519
101 869 745
102 776 395
103 341 275
104 593 973
105 778 716
106 277 152
107 782 314
108 896 301
109 573 478
110 42 198
111 124 348
112 105 240
113 557 630
114 782 897
115 774 669
116 847 411
117 357 782
118 161 755
119 709 832
120 948 830
121 434 60
122 298 921
123 990 161
124 942 399
125 571 611
126 262 680
127 253 246
128 563 416
129 382 91
130 579 962
131 215 439
132 248 65
133 811 175
134 725 834
135 169 359
136 641 926
137 625 52
138 629 8
139 486 394
140 83 462
141 924 930
142 175 333
143 115 192
144 123 534
145 634 528
146 702 299
147 86 172
148 11 889
149 8 583
150 495 538
151 3 14
152 201 666
153 131 348
154 300 323
155 551 167
156 851 897
157 412 90
158 813 64
159 993 344
160 317 999
161 90 595
162 180 817
163 667 24
164 666 285
165 733 661
166 506 774
167 493 953
168 162 458
169 735 602
170 345 771
171 468 639
172 776 107
173 819 750
174 204 781
175 165 858
176 678 218
177 536 950
178 47 421
179 239 153
180 744 664
181 766 64
182 788 448
183 920 330
184 54 707
185 216 471
186 793 257
187 517 964
188 389 503
189 923 563
190 383 388
191 917 890
192 734 599
193 749 248
194 333 17
195 84 713
196 776 428
197 888 452
198 371 465
199 408 820
200 357 613
201 979 298
202 222 489
203 507 187
204 379 793
205 526 595
206 17 545
207 513 146
208 70 513
209 484 862
210 294 987
211 880 478
212 287 733
213 709 30
214 755 201
215 939 682
216 23 975
217 135 799
218 808 471
219 352 279
220 224 900
221 275 130
222 60 465
223 288 813
224 718 755
225 829 744
226 523 799
227 569 157
228 634 665
229 743 336
230 870 16
231 267 623
232 675 856
233 239 494
234 950 618
235 445 653
236 394 763
237 816 368
238 19 825
239 68 548
240 912 106
241 600 71
242 245 644
243 620 364
244 555 400
245 549 230
246 243 724
247 657 925
248 355 48
249 951 488
250 586 851
251 318 318
252 549 848
253 917 3
254 295 453
255 818 398
256 73 482
257 891 952
258 349 100
259 950 284
260 69 29
261 140 20
262 178 1
263 585 862
264 381 457
265 266 918
266 164 506
267 174 282
268 56 123
269 693 864
270 146 606
271 244 461
272 846 275
273 176 95
274 912 431
275 903 582
276 703 553
277 297 364
278 703 755
279 332 591
280 283 487
281 968 440
282 718 490
283 295 702
284 449 997
285 926 605
286 604 188
287 632 895
288 761 894
289 239 159
290 963 544
291 762 412
292 986 378
293 802 918
294 851 893
295 180 267
296 593 544
297 837 710
298 276 708
299 963 733
300 255 875
301 396 884
302 699 106
303 261 853
304 348 742
305 860 800
306 535 344
307 808 933
308 450 911
309 433 336
310 652 319
311 411 46
312 842 35
313 654 385
314 871 67
315 457 532
316 9 162
317 886 356
318 464 267
319 413 493
320 140 227
321 819 673
322 660 739
323 322 299
324 626 556
325 975 276
326 138 941
327 304 86
328 560 367
329 201 120
330 532 473
331 60 255
332 240 267
333 174 678
334 929 577
335 369 972
336 668 756
337 899 435
338 367 634
339 585 668
340 45 722
341 207 394
342 340 665
343 142 543
344 279 945
345 259 574
346 293 833
347 54 58
348 481 595
349 44 507
350 125 942
351 410 444
352 462 734
353 881 743
354 690 935
355 879 195
356 239 813
357 911 347
358 289 397
359 206 571
360 532 174
361 610 399
362 184 52
363 719 98
364 261 552
365 277 497
366 85 267
367 818 67
368 54 568
369 545 251
370 657 549
371 484 37
372 739 237
373 868 790
374 17 42
375 778 328
376 848 464
377 33 255
378 237 37
379 335 531
380 113 544
DEMAND_SECTION
2 83
3 65
4 92
5 73
6 94
7 100
8 99
9 83
10 84
11 81
12 65
13 69
14 84
15 67
16 53
17 70
18 93
19 69
20 78
21 75
22 56
23 99
24 88
25 61
26 65
27 90
28 74
29 85
30 59
31 76
32 79
33 99
34 98
35 80
36 71
37 71
38 93
39 69
40 88
41 71
42 52
43 75
44 83
45 67
46 88
47 64
48 89
49 86
50 84
51 89
52 97
53 85
54 78
55 83
56 90
57 93
58 61
59 84
60 98
61 97
62 78
63 60
64 58
65 63
66 99
67 50
68 93
69 53
70 52
71 70
72 97
73 63
74 72
75 77
76 88
77 66
78 100
79 50
80 69
81 78
82 53
83 81
84 59
85 77
86 67
87 77
88 74
89 88
90 78
91 78
92 84
93 83
94 86
95 88
96 71
97 90
98 73
99 60
100 59
101 65
102 87
103 59
104 51
105 79
106 83
107 71
108 81
109 63
110 83
111 84
112 71
113 69
114 93
115 80
116 67
117 95
118 88
119 89
120 68
121 67
122 54
123 54
124 84
125 88
126 98
127 66
128 94
129 100
130 61
131 93
132 71
133 51
134 59
135 96
136 79
137 90
138 73
139 90
140 64
141 51
142 51
143 72
144 71
145 78
146 90
147 66
148 71
149 86
150 54
151 76
152 99
153 50
154 80
COVERAGE_SECTION
2 7 354 247 136 104 34 287 130 
3 7 268 75 147 347 316 110 143 
4 7 68 139 244 85 128 330 328 
5 7 318 309 95 219 70 53 103 
6 7 348 315 54 171 235 200 19 
7 7 279 54 200 379 338 19 345 
8 7 172 158 181 367 363 312 314 
9 7 254 280 365 100 198 379 97 
10 7 189 275 334 290 211 249 11 
11 7 65 87 17 275 10 189 61 
12 7 355 272 186 108 133 16 259 
13 7 346 223 303 356 300 56 170 
14 7 203 360 207 77 155 227 78 
15 7 377 66 331 110 64 366 316 
16 7 214 372 193 186 133 32 176 
17 7 192 169 87 11 65 276 115 
18 7 59 208 256 349 239 140 380 
19 7 188 97 319 54 379 198 7 
20 7 332 127 50 98 154 323 295 
21 7 177 187 130 34 104 167 94 
22 7 235 338 171 342 200 6 99 
23 7 368 161 239 149 206 59 380 
24 7 132 378 327 194 248 221 47 
25 7 118 333 62 152 174 35 246 
26 7 291 102 196 71 72 229 182 
27 7 341 52 131 135 358 142 277 
28 7 371 121 77 207 78 157 311 
29 7 113 125 339 205 91 45 228 
30 7 242 43 152 126 231 96 39 
31 7 69 51 42 302 241 286 137 
32 7 193 186 372 107 16 375 214 
33 7 284 94 167 187 308 177 21 
34 7 130 104 21 177 136 187 247 
35 7 217 162 118 174 175 25 93 
36 7 313 361 282 109 26 243 145 
37 7 79 253 240 314 230 312 367 
38 7 248 311 194 80 121 129 157 
39 7 43 152 270 333 96 30 67 
40 7 120 373 305 353 101 299 191 
41 7 297 61 321 353 101 215 225 
42 7 31 69 176 302 286 51 363 
43 7 152 30 39 242 333 96 126 
44 7 178 222 83 140 256 349 208 
45 7 99 171 235 352 113 29 91 
46 7 209 308 301 199 86 167 252 
47 7 258 327 221 106 80 129 248 
48 7 232 119 269 134 336 278 287 
49 7 116 337 274 89 197 317 255 
50 7 332 127 20 295 267 98 320 
51 7 69 302 31 363 137 42 163 
52 7 27 341 142 135 277 267 358 
53 7 70 219 103 5 323 98 318 
54 7 7 279 19 200 379 6 338 
55 7 120 191 141 40 84 257 294 
56 7 174 356 62 246 212 223 298 
57 7 326 210 344 350 220 265 160 
58 7 105 115 180 165 224 173 321 
59 7 208 18 239 349 256 380 144 
60 7 340 184 195 238 217 118 35 
61 7 285 41 275 234 334 215 189 
62 7 246 56 298 25 126 174 152 
63 7 277 358 190 154 251 254 264 
64 7 66 377 331 366 15 112 83 
65 7 87 11 218 17 376 211 182 
66 7 64 377 331 15 366 110 112 
67 7 359 96 345 364 39 270 343 
68 7 139 4 244 95 306 85 328 
69 7 31 51 302 42 363 137 241 
70 7 53 318 5 219 103 203 14 
71 7 182 196 291 218 26 102 282 
72 7 375 229 107 102 237 291 255 
73 7 183 357 76 159 201 259 292 
74 7 88 82 216 148 350 326 238 
75 7 147 143 3 268 110 320 273 
76 7 292 124 73 159 357 183 281 
77 7 207 14 360 78 155 203 227 
78 7 227 155 77 207 360 14 241 
79 7 37 240 314 253 230 123 312 
80 7 129 258 157 248 311 47 121 
81 7 260 151 374 347 261 3 268 
82 7 74 88 216 148 350 326 93 
83 7 178 44 222 140 111 153 64 
84 7 141 257 55 191 120 156 294 
85 7 128 244 328 361 4 109 330 
86 7 252 90 250 226 263 209 46 
87 7 65 17 11 218 282 192 182 
88 7 74 82 216 148 350 326 238 
89 7 317 357 49 183 116 237 108 
90 7 226 166 86 252 250 209 263 
91 7 339 228 29 113 45 125 322 
92 7 236 204 199 352 117 170 304 
93 7 175 162 326 350 217 35 220 
94 7 33 167 284 187 177 21 308 
95 7 309 5 139 68 318 190 306 
96 7 67 359 345 242 43 39 231 
97 7 188 198 264 19 319 351 379 
98 7 106 127 289 179 221 20 50 
99 7 352 45 235 171 166 22 92 
100 7 365 280 364 233 345 9 202 
101 7 353 225 373 297 173 305 41 
102 7 291 196 255 72 237 26 182 
103 7 219 323 251 154 53 20 127 
104 7 34 130 21 177 136 187 247 
105 7 58 115 173 225 297 321 180 
106 7 221 179 289 98 47 327 329 
107 7 375 72 229 32 186 237 193 
108 7 183 357 272 317 259 73 89 
109 7 330 128 85 296 145 244 36 
110 7 316 147 15 377 331 143 112 
111 7 153 135 142 267 83 366 52 
112 7 366 320 331 143 147 377 110 
113 7 29 125 205 339 91 45 348 
114 7 288 293 307 156 294 134 269 
115 7 180 165 58 321 105 297 169 
116 7 49 255 237 376 89 337 197 
117 7 170 204 304 236 92 199 223 
118 7 25 35 174 217 162 62 56 
119 7 134 48 269 232 278 224 288 
120 7 40 55 191 373 305 299 141 
121 7 311 157 371 129 28 80 38 
122 7 344 265 300 210 220 303 160 
123 7 240 79 325 355 37 259 201 
124 7 76 274 281 292 337 73 357 
125 7 29 113 205 339 296 324 228 
126 7 298 30 242 283 246 231 62 
127 7 20 332 50 98 295 267 323 
128 7 85 244 328 361 4 109 330 
129 7 80 157 258 248 311 121 47 
130 7 34 104 21 177 187 136 287 
131 7 185 271 341 202 27 168 233 
132 7 378 24 327 362 221 329 273 
133 7 16 214 355 172 12 186 8 
134 7 119 269 48 232 288 224 278 
135 7 142 153 111 52 341 27 267 
136 7 247 287 354 34 104 130 2 
137 7 241 138 163 51 31 69 213 
138 7 163 137 241 213 51 69 31 
139 7 68 4 95 244 306 85 309 
140 7 256 222 18 208 44 178 59 
141 7 257 191 156 294 55 84 120 
142 7 135 153 52 267 111 295 341 
143 7 147 75 320 112 110 366 331 
144 7 380 343 18 59 266 208 239 
145 7 324 370 296 276 109 36 282 
146 7 164 310 229 193 32 372 107 
147 7 75 143 110 3 268 112 320 
148 7 238 88 74 82 216 350 326 
149 7 206 368 23 239 161 349 59 
150 7 315 348 205 330 6 319 109 
151 7 374 81 347 260 268 3 261 
152 7 43 333 30 39 242 62 126 
153 7 111 135 142 267 52 341 83 
154 7 251 323 277 103 219 63 20 
155 7 360 227 14 78 77 207 203 
156 7 294 293 307 191 257 114 141 
157 7 129 121 80 311 258 248 38 
158 7 367 8 312 181 172 314 230 
159 7 292 76 201 73 325 183 259 
160 7 210 335 344 122 265 57 284 
161 7 23 368 239 380 270 144 343 
162 7 35 174 175 217 356 118 93 
163 7 138 213 137 51 241 302 363 
164 5 310 146 176 372 193 
165 6 180 115 58 169 192 105 
166 7 226 90 352 99 86 252 209 
167 7 187 94 33 177 21 308 284 
168 7 266 131 185 202 341 140 271 
169 7 192 17 165 276 180 115 87 
170 7 117 304 204 236 92 212 223 
171 7 235 348 45 22 99 6 205 
172 7 8 181 158 363 367 133 302 
173 7 225 297 101 105 353 373 305 
174 7 56 162 356 118 35 62 25 
175 7 93 162 35 217 220 174 326 
176 6 42 372 164 193 214 286 
177 7 21 187 167 130 34 104 94 
178 7 44 83 222 140 256 349 18 
179 7 289 106 221 329 98 273 47 
180 6 165 115 58 105 169 192 
181 7 8 172 158 367 363 213 302 
182 7 196 71 218 291 102 255 376 
183 7 357 73 108 317 89 259 76 
184 7 340 195 60 25 118 161 23 
185 7 202 271 131 233 168 266 365 
186 7 32 193 16 272 107 372 214 
187 7 177 167 21 94 33 130 34 
188 7 19 97 319 198 264 379 351 
189 7 334 275 10 285 290 234 61 
190 7 63 351 264 309 198 95 277 
191 7 141 156 294 257 120 55 40 
192 7 169 17 276 165 180 115 87 
193 7 372 32 16 186 214 146 107 
194 7 248 38 24 327 80 311 258 
195 7 184 340 60 25 118 333 217 
196 7 291 182 71 102 255 218 26 
197 7 337 211 274 376 49 116 249 
198 7 264 97 188 351 319 19 9 
199 7 204 92 236 117 301 46 170 
200 7 338 279 7 54 342 22 6 
201 7 325 259 159 73 183 76 292 
202 7 233 185 271 131 365 100 266 
203 7 14 360 207 77 155 245 227 
204 7 117 236 170 199 92 304 223 
205 7 348 113 125 29 150 171 296 
206 7 149 368 349 239 23 208 59 
207 7 77 14 360 203 155 78 227 
208 7 59 18 349 256 239 222 140 
209 7 46 86 308 252 226 90 199 
210 7 160 344 122 265 335 57 220 
211 7 197 376 337 274 10 49 218 
212 7 298 283 246 126 56 304 62 
213 7 163 181 363 51 302 138 137 
214 7 16 372 193 133 32 186 176 
215 7 299 234 61 41 285 353 101 
216 7 82 74 88 148 350 326 238 
217 7 35 162 118 175 174 93 25 
218 7 182 376 71 196 65 87 116 
219 7 103 323 251 53 154 5 70 
220 7 300 265 303 344 175 122 93 
221 7 106 179 289 47 327 98 132 
222 7 256 140 44 349 178 18 208 
223 7 13 346 303 356 56 300 170 
224 6 278 336 322 58 105 119 
225 7 173 297 101 353 105 373 305 
226 7 90 166 86 252 209 250 263 
227 7 155 78 360 286 77 14 207 
228 6 339 91 322 29 125 113 
229 7 72 375 107 146 102 26 32 
230 7 312 253 314 37 367 158 79 
231 7 242 30 345 96 126 43 364 
232 7 269 48 119 134 287 247 136 
233 7 202 185 271 365 100 280 131 
234 7 285 334 61 275 189 215 290 
235 7 171 22 99 45 348 6 338 
236 7 92 204 117 170 304 199 352 
237 7 255 102 72 116 375 89 107 
238 7 148 60 340 217 184 88 195 
239 7 368 59 208 23 18 380 349 
240 7 79 37 314 123 355 230 312 
241 7 137 138 31 78 51 69 163 
242 7 30 231 43 126 152 96 39 
243 6 361 313 310 328 85 244 
244 7 85 128 328 4 361 306 68 
245 6 369 360 203 155 14 286 
246 7 62 298 212 56 126 283 30 
247 7 136 354 287 2 232 269 104 
248 7 38 194 80 129 258 311 327 
249 7 281 290 10 274 211 197 337 
250 7 263 252 86 287 90 226 232 
251 7 154 323 103 277 219 63 20 
252 7 86 250 263 90 226 209 166 
253 7 230 37 79 314 312 240 367 
254 7 9 280 365 271 358 233 100 
255 7 237 116 102 196 182 291 49 
256 7 222 140 18 208 59 349 44 
257 7 141 191 156 294 307 293 84 
258 7 80 129 47 327 248 157 221 
259 7 325 201 183 73 108 159 357 
260 7 81 347 374 151 261 3 268 
261 7 262 362 260 273 81 347 378 
262 7 261 362 378 273 132 24 260 
263 7 250 252 86 287 90 136 226 
264 7 198 97 351 188 319 19 190 
265 7 344 122 300 220 303 210 13 
266 7 343 168 144 202 185 380 233 
267 7 295 142 50 320 332 135 153 
268 7 3 75 147 316 347 110 374 
269 7 232 119 48 134 287 247 354 
270 7 39 161 343 359 380 67 96 
271 7 185 233 131 202 280 365 254 
272 7 12 108 186 107 32 375 355 
273 7 329 362 132 261 378 179 75 
274 7 337 197 49 124 211 281 116 
275 7 334 189 285 10 61 234 11 
276 7 370 192 169 282 145 324 17 
277 7 358 63 154 251 323 27 52 
278 6 224 336 322 58 119 48 
279 7 7 200 54 338 379 231 342 
280 7 365 9 100 254 233 271 202 
281 7 124 249 274 76 292 337 197 
282 7 71 276 87 36 182 26 196 
283 7 298 212 126 246 342 304 62 
284 7 33 94 167 187 335 308 177 
285 7 234 334 275 61 189 290 10 
286 6 227 155 42 245 31 360 
287 7 136 247 263 232 250 269 354 
288 7 114 293 307 134 269 119 354 
289 7 179 106 221 329 98 127 47 
290 7 189 334 10 249 275 285 234 
291 7 196 102 26 71 182 255 72 
292 7 76 159 124 73 281 201 357 
293 7 307 114 288 156 294 257 354 
294 7 156 293 307 191 114 257 141 
295 7 267 50 320 332 142 20 127 
296 7 324 145 370 109 125 205 113 
297 7 225 321 173 41 101 353 105 
298 7 283 212 126 246 62 30 242 
299 7 215 353 40 101 120 41 373 
300 7 303 220 265 13 346 122 356 
301 7 308 199 46 209 335 204 122 
302 7 363 51 69 31 42 172 213 
303 7 300 13 346 356 223 220 265 
304 7 170 117 236 204 212 283 92 
305 7 373 101 40 353 225 173 120 
306 6 328 244 68 139 85 128 
307 7 293 114 156 294 288 257 141 
308 7 46 167 209 301 33 94 187 
309 7 95 5 190 318 139 68 219 
310 4 164 146 243 313 
311 7 121 38 157 129 248 80 371 
312 7 230 367 158 314 8 181 253 
313 7 243 361 36 310 26 85 128 
314 7 312 230 367 240 158 37 79 
315 7 150 319 6 348 188 19 205 
316 7 110 268 3 147 15 377 75 
317 7 89 357 183 49 108 73 116 
318 7 5 309 95 70 369 203 245 
319 7 188 97 19 264 351 198 315 
320 7 112 143 295 267 366 147 75 
321 7 297 115 41 105 58 225 180 
322 6 336 278 224 228 91 48 
323 7 251 103 154 219 277 20 127 
324 7 145 370 296 276 125 109 29 
325 7 201 259 159 73 183 108 357 
326 7 350 93 57 175 220 88 74 
327 7 47 258 24 221 132 248 80 
328 6 244 306 85 128 361 243 
329 7 273 179 289 362 132 221 106 
330 7 109 4 128 85 150 244 68 
331 7 377 366 66 112 64 15 110 
332 7 20 50 127 295 267 98 154 
333 7 152 43 25 39 30 62 270 
334 7 189 275 285 234 290 10 61 
335 7 160 210 284 122 33 301 344 
336 6 322 278 224 48 119 134 
337 7 274 197 49 211 124 116 376 
338 7 200 342 22 279 7 54 6 
339 6 91 29 113 228 125 45 
340 7 184 60 195 238 217 118 25 
341 7 27 52 131 135 142 271 168 
342 7 338 200 283 22 279 298 304 
343 7 144 380 266 270 18 359 59 
344 7 265 122 210 160 220 300 57 
345 7 364 96 67 231 359 100 242 
346 7 13 223 303 300 356 170 117 
347 7 260 374 81 3 268 151 261 
348 7 205 171 6 150 315 235 113 
349 7 208 59 256 18 222 206 239 
350 7 326 93 88 74 82 175 57 
351 7 264 198 319 97 190 188 19 
352 7 99 92 166 45 236 235 226 
353 7 101 373 225 297 305 173 41 
354 7 247 2 136 287 269 232 288 
355 7 12 133 272 240 186 108 16 
356 7 56 303 174 13 223 346 162 
357 7 183 317 73 89 108 76 124 
358 7 277 63 254 27 154 271 9 
359 7 67 96 345 364 39 270 343 
360 7 14 155 203 77 207 227 78 
361 7 243 313 85 128 244 328 36 
362 7 273 262 261 378 132 329 24 
363 7 302 51 172 181 69 213 8 
364 7 345 100 67 365 359 233 96 
365 7 280 100 233 9 254 271 202 
366 7 331 112 377 66 64 320 15 
367 7 158 8 312 181 314 172 230 
368 7 23 239 206 161 149 59 208 
369 4 245 203 360 14 
370 7 145 324 276 296 282 192 169 
371 7 28 121 311 157 38 77 207 
372 7 193 214 16 32 186 176 146 
373 7 305 101 353 40 225 173 297 
374 7 151 347 81 260 268 3 316 
375 7 107 72 229 237 32 102 186 
376 7 211 218 197 116 337 182 49 
377 7 15 331 66 64 366 110 112 
378 7 132 24 362 262 327 273 329 
379 7 7 19 54 97 279 9 188 
380 7 144 343 59 239 18 208 161 
DEPOT_SECTION
   1
   -1
EOF
