NAME :  X-n331-kX-w33-c11.cctp
COMMENT : 	Adapted by Maziero, Usberti and Cavellucci from the Uchoa, Pecin, Pessoa, Poggi, Subramanian, and Vidal (2013)
TYPE :  CCTP
DIMENSION :    209
EDGE_WEIGHT_TYPE : 	EUC_2D	
CAPACITY : 	23
VERTICES_WITHIN_COVERAGE :  11
VERTICES_WITH_DEMAND : 	33
NODE_COORD_SECTION
1 0 0
2 2 857
3 407 102
4 915 965
5 797 45
6 997 241
7 650 683
8 748 248
9 99 174
10 2 545
11 277 689
12 568 771
13 76 105
14 117 973
15 171 971
16 327 183
17 277 697
18 269 246
19 670 18
20 51 901
21 951 696
22 710 102
23 61 465
24 348 606
25 551 243
26 524 793
27 89 582
28 900 748
29 235 368
30 122 587
31 449 781
32 970 38
33 362 490
34 742 267
35 289 115
36 898 957
37 996 922
38 951 633
39 603 247
40 143 0
41 274 608
42 81 422
43 43 699
44 909 254
45 613 37
46 202 575
47 297 297
48 736 288
49 464 127
50 796 328
51 184 941
52 641 824
53 863 673
54 301 260
55 559 746
56 431 827
57 847 51
58 888 721
59 136 331
60 206 5
61 886 684
62 123 488
63 764 43
64 938 743
65 734 20
66 211 678
67 796 106
68 644 810
69 115 435
70 667 91
71 374 546
72 546 191
73 754 255
74 124 588
75 314 637
76 668 268
77 321 786
78 11 499
79 721 692
80 337 475
81 429 478
82 361 166
83 944 218
84 12 468
85 527 255
86 892 896
87 545 806
88 832 12
89 194 884
90 395 309
91 655 39
92 558 175
93 247 947
94 36 394
95 599 724
96 83 489
97 65 35
98 889 230
99 248 220
100 747 86
101 201 643
102 400 574
103 653 798
104 643 138
105 951 307
106 500 726
107 285 769
108 511 898
109 239 951
110 335 815
111 911 708
112 2 239
113 372 799
114 177 756
115 617 639
116 479 831
117 397 20
118 618 113
119 838 111
120 215 154
121 581 757
122 294 174
123 997 332
124 920 675
125 187 284
126 678 127
127 831 755
128 316 319
129 188 134
130 73 608
131 508 52
132 983 312
133 415 658
134 90 256
135 960 936
136 300 456
137 376 144
138 192 177
139 88 626
140 540 206
141 241 949
142 215 48
143 460 683
144 81 368
145 998 835
146 585 234
147 294 501
148 81 236
149 788 277
150 351 354
151 218 189
152 213 23
153 923 177
154 479 307
155 285 153
156 584 878
157 176 928
158 166 656
159 507 183
160 907 171
161 7 792
162 22 787
163 131 560
164 22 81
165 465 114
166 192 569
167 845 753
168 962 95
169 31 68
170 627 629
171 524 322
172 823 774
173 109 935
174 487 121
175 1 111
176 756 89
177 647 753
178 72 370
179 999 268
180 350 131
181 381 534
182 310 467
183 973 212
184 186 426
185 779 143
186 452 1
187 866 928
188 513 152
189 915 772
190 204 585
191 343 558
192 877 720
193 730 272
194 364 617
195 514 296
196 33 761
197 202 695
198 597 866
199 376 83
200 0 299
201 639 101
202 528 192
203 888 7
204 710 665
205 156 683
206 952 915
207 14 440
208 485 885
209 890 951
DEMAND_SECTION
2 1
3 1
4 1
5 1
6 1
7 1
8 1
9 1
10 1
11 1
12 1
13 1
14 1
15 1
16 1
17 1
18 1
19 1
20 1
21 1
22 1
23 1
24 1
25 1
26 1
27 1
28 1
29 1
30 1
31 1
32 1
33 1
34 1
COVERAGE_SECTION
2 7 161 20 162 196 173 14 43 
3 11 199 137 165 49 180 82 174 117 186 131 16 
4 7 36 209 135 187 206 86 37 
5 11 63 88 57 176 67 100 65 119 203 185 22 
6 8 179 183 83 132 105 44 123 153 
7 7 115 170 204 95 177 79 121 
8 10 73 34 193 48 149 76 50 185 126 98 
9 11 148 13 134 138 129 112 175 120 151 164 169 
10 11 78 84 27 130 96 23 207 139 30 74 163 
11 10 17 75 66 197 107 41 101 77 24 194 
12 11 121 55 87 26 95 177 106 68 103 52 198 
13 11 169 164 97 9 175 129 40 148 138 120 142 
14 10 173 15 51 157 20 89 109 141 93 2 
15 9 51 157 14 109 173 141 93 89 20 
16 11 122 82 155 180 137 35 54 18 99 151 199 
17 10 11 66 75 107 197 41 101 77 24 114 
18 11 99 54 47 122 151 16 128 125 155 138 120 
19 11 91 45 65 70 201 22 63 100 118 126 176 
20 10 2 173 14 161 162 157 15 51 196 89 
21 10 124 111 64 38 61 58 28 192 189 53 
22 11 100 126 70 176 201 104 63 185 91 65 67 
23 11 96 42 84 207 78 69 62 94 178 10 144 
24 9 194 75 191 102 71 41 181 133 11 
25 11 85 146 140 39 72 202 195 92 159 171 154 
26 11 87 12 55 116 121 106 31 56 208 95 198 
27 10 130 30 74 139 163 96 10 62 166 158 
28 11 189 58 192 64 111 167 61 127 21 124 172 
29 10 184 47 128 125 59 136 150 182 18 54 
30 9 74 163 27 139 130 166 46 158 190 
31 11 56 116 106 26 113 87 143 208 55 12 110 
32 11 168 203 57 88 153 160 119 5 183 83 67 
33 9 80 181 71 182 81 147 136 191 102 
34 8 193 73 8 48 149 76 50 185 
35 11 155 122 180 16 120 82 137 199 142 129 151 
36 7 209 4 187 86 135 206 37 
37 8 135 206 145 4 36 86 209 187 
38 7 124 21 61 111 53 58 64 
39 11 146 25 76 140 85 72 92 202 195 171 159 
40 11 60 152 97 142 13 169 129 164 120 9 175 
41 7 75 24 190 46 11 101 191 
42 10 69 23 94 178 144 96 207 62 84 78 
43 7 196 139 162 130 161 205 27 
44 8 98 83 105 183 153 160 6 179 
45 10 91 19 201 70 118 104 131 126 22 65 
46 7 190 166 101 163 41 74 30 
47 10 128 54 18 150 99 29 90 125 16 122 
48 7 193 34 73 8 149 76 50 
49 9 165 174 188 3 159 131 137 202 199 
50 6 149 48 34 73 193 8 
51 9 157 15 109 89 141 93 14 173 20 
52 7 68 103 198 177 156 12 121 
53 7 61 192 58 124 111 167 28 
54 11 18 47 128 99 16 122 90 150 155 151 82 
55 11 121 12 95 26 87 106 177 68 103 7 52 
56 9 116 31 113 208 110 26 108 87 77 
57 11 88 5 203 119 67 63 176 100 185 65 168 
58 11 192 111 28 61 53 167 64 124 189 127 21 
59 11 144 125 178 134 29 42 69 184 148 94 200 
60 11 152 142 40 129 35 97 120 13 155 138 151 
61 8 53 111 124 58 192 21 28 64 
62 8 96 69 23 163 42 184 30 27 
63 11 5 65 100 176 67 88 22 57 19 119 185 
64 11 189 28 111 21 58 192 124 61 167 53 127 
65 11 63 19 100 5 176 91 22 70 88 67 57 
66 9 197 101 158 205 11 17 114 190 41 
67 11 185 119 176 100 5 63 57 22 88 65 126 
68 7 52 103 177 198 121 12 156 
69 9 42 62 23 96 184 144 178 94 207 
70 11 201 126 22 91 104 118 19 45 100 176 65 
71 9 181 191 102 33 24 194 80 81 147 
72 10 140 202 92 159 188 25 146 85 39 174 
73 9 8 34 193 48 149 50 76 185 98 
74 9 30 163 27 139 130 166 46 158 190 
75 10 24 41 194 11 17 191 133 102 71 66 
76 9 193 39 48 34 8 73 146 25 149 
77 7 110 107 113 17 11 56 31 
78 11 84 10 207 23 96 42 94 62 27 69 130 
79 3 204 7 177 
80 9 182 33 136 147 181 71 191 81 102 
81 4 33 181 71 80 
82 10 137 180 16 122 155 3 199 35 49 54 
83 9 183 153 44 98 6 160 179 105 132 
84 11 207 78 23 96 10 94 42 69 62 178 144 
85 11 25 195 140 146 202 72 171 154 159 39 92 
86 6 187 209 36 206 4 135 
87 11 26 12 121 55 116 198 156 106 52 95 108 
88 11 57 5 203 63 65 119 67 176 100 32 185 
89 7 157 51 141 109 93 15 173 
90 8 150 128 154 47 54 195 171 18 
91 11 19 45 70 201 65 118 22 126 104 100 63 
92 10 72 202 140 188 159 146 25 39 85 118 
93 6 141 109 51 157 15 89 
94 11 178 207 144 42 23 84 69 200 96 78 59 
95 11 121 55 12 177 7 115 103 68 87 106 170 
96 9 23 62 69 42 78 84 207 163 27 
97 11 169 164 13 40 175 9 60 152 142 129 120 
98 9 44 83 160 153 183 105 6 149 179 
99 11 18 151 122 54 138 120 155 16 125 47 129 
100 11 176 22 63 67 5 185 65 70 126 119 19 
101 9 66 158 197 190 205 46 166 41 11 
102 5 71 181 194 191 24 
103 7 68 52 177 121 198 12 95 
104 11 118 126 201 70 22 92 91 45 72 146 39 
105 5 132 123 179 44 6 
106 10 143 55 26 31 12 121 87 95 116 133 
107 9 77 110 17 11 113 114 197 66 75 
108 7 208 116 156 198 87 26 56 
109 7 141 93 51 157 15 89 14 
110 7 77 113 107 56 31 17 11 
111 11 58 124 61 192 28 21 64 53 189 167 38 
112 11 200 148 134 9 175 178 144 13 94 164 59 
113 7 110 77 56 31 107 116 17 
114 6 197 205 66 158 107 17 
115 4 170 7 95 204 
116 10 56 208 31 26 87 108 12 106 113 156 
117 11 186 199 3 131 165 180 49 137 174 35 82 
118 10 201 104 70 126 45 91 92 22 72 19 
119 11 67 57 185 5 176 160 100 88 63 153 203 
120 11 138 129 151 155 99 122 35 142 18 16 9 
121 11 12 55 95 87 177 26 68 103 106 52 7 
122 11 155 16 35 99 82 180 18 151 120 54 137 
123 4 132 105 179 6 
124 9 111 61 21 38 58 53 192 64 28 
125 11 59 99 18 29 151 134 138 47 54 148 120 
126 11 104 70 22 201 118 100 176 91 185 19 45 
127 5 167 172 192 58 28 
128 9 47 150 54 90 18 29 99 125 16 
129 11 120 138 151 142 9 155 35 99 122 152 13 
130 10 139 27 30 74 163 10 43 158 205 96 
131 10 174 165 186 49 188 45 3 117 118 159 
132 5 123 105 179 6 44 
133 5 143 194 24 102 75 
134 11 148 9 59 112 200 125 144 178 138 151 94 
135 8 206 37 4 36 209 86 187 145 
136 9 182 80 147 33 29 191 181 150 71 
137 10 82 180 3 199 16 122 49 155 35 165 
138 11 151 120 129 99 9 155 122 18 125 35 148 
139 9 130 27 30 74 163 158 43 205 101 
140 9 72 202 92 25 159 85 146 188 39 
141 7 109 93 51 157 15 89 14 
142 11 152 60 40 129 35 120 155 138 151 122 13 
143 5 133 106 31 194 55 
144 11 178 94 42 59 69 207 23 200 134 184 84 
145 9 37 206 189 135 64 86 28 21 4 
146 11 39 25 140 72 85 92 202 76 159 195 171 
147 7 182 136 80 33 191 71 181 
148 11 134 9 112 200 59 125 138 13 144 178 151 
149 7 73 34 8 50 48 193 98 
150 8 128 90 47 54 136 29 182 80 
151 11 138 120 99 129 18 155 122 125 35 16 54 
152 11 60 142 40 129 35 120 97 155 138 13 151 
153 10 160 83 183 98 44 168 6 119 179 105 
154 6 195 171 85 90 25 140 
155 11 122 35 16 180 120 151 82 99 137 18 138 
156 8 198 108 52 87 68 208 26 103 
157 9 51 15 89 109 173 141 93 14 20 
158 9 205 101 66 197 74 190 30 139 46 
159 9 202 188 72 140 92 174 49 25 85 
160 11 153 83 98 183 44 119 168 6 67 185 57 
161 6 162 196 2 43 20 114 
162 6 161 196 2 43 20 114 
163 9 30 74 27 166 62 46 130 190 139 
164 11 169 175 13 97 9 40 112 148 129 134 138 
165 9 49 174 3 188 131 159 137 199 202 
166 6 46 190 163 74 30 101 
167 6 127 172 192 58 28 189 
168 11 32 153 160 203 183 57 83 119 6 98 88 
169 11 164 97 175 13 9 40 129 112 148 142 60 
170 3 115 7 204 
171 6 195 154 85 25 146 39 
172 4 127 167 192 28 
173 10 14 20 157 15 51 89 109 2 141 93 
174 9 165 49 188 159 131 3 202 92 72 
175 11 164 169 13 97 9 112 148 134 40 129 200 
176 11 100 67 63 22 185 5 65 119 126 70 57 
177 9 103 95 68 121 7 52 12 55 79 
178 11 144 94 42 59 69 207 23 200 84 134 96 
179 8 6 132 105 183 123 83 44 98 
180 11 137 82 199 16 35 3 155 122 49 165 117 
181 9 71 102 191 33 80 81 24 194 147 
182 9 136 80 147 33 191 181 71 81 150 
183 10 83 6 153 179 44 160 98 105 132 168 
184 8 69 29 62 42 59 136 144 96 
185 11 67 176 100 119 22 5 63 126 8 57 73 
186 10 117 131 3 199 165 174 49 137 188 45 
187 5 209 86 36 4 206 
188 9 159 174 202 72 92 49 140 165 25 
189 10 28 64 58 111 192 167 21 127 172 61 
190 8 46 166 101 41 163 74 158 30 
191 10 71 181 24 102 194 33 147 80 75 41 
192 11 58 28 111 61 167 53 127 124 189 64 172 
193 8 34 48 73 8 149 76 50 39 
194 9 24 75 102 191 133 71 181 41 11 
195 9 171 154 85 25 140 146 39 202 72 
196 6 162 161 43 2 20 114 
197 8 66 205 101 158 114 11 17 190 
198 8 156 52 68 87 103 108 12 26 
199 11 3 180 137 117 82 35 165 49 16 186 155 
200 11 112 134 178 94 148 144 59 207 42 9 84 
201 11 118 70 104 126 91 45 22 19 100 92 176 
202 9 72 140 159 92 188 25 85 146 174 
203 11 88 57 32 5 119 168 63 67 65 176 100 
204 4 79 7 170 115 
205 8 158 197 66 101 114 139 74 30 
206 8 135 37 4 86 36 209 187 145 
207 11 84 94 23 78 42 96 178 144 69 10 62 
208 7 108 116 56 87 156 26 31 
209 7 36 4 187 86 135 206 37 
DEPOT_SECTION
   1
   -1
EOF
