NAME :  X-n367-kX-w73-c11.cctp
COMMENT : 	Adapted by Maziero, Usberti and Cavellucci from the Uchoa, Pecin, Pessoa, Poggi, Subramanian, and Vidal (2013)
TYPE :  CCTP
DIMENSION :    348
EDGE_WEIGHT_TYPE : 	EUC_2D	
CAPACITY : 	218
VERTICES_WITHIN_COVERAGE :  11
VERTICES_WITH_DEMAND : 	73
NODE_COORD_SECTION
1 927 318
2 319 475
3 471 281
4 894 615
5 712 832
6 728 813
7 360 217
8 446 264
9 952 650
10 558 224
11 460 397
12 464 342
13 733 921
14 324 316
15 333 497
16 826 821
17 257 385
18 385 244
19 523 249
20 559 370
21 665 866
22 310 583
23 744 792
24 428 638
25 759 804
26 359 515
27 392 213
28 583 380
29 786 400
30 516 833
31 823 692
32 480 330
33 870 690
34 311 76
35 157 434
36 340 558
37 499 905
38 893 667
39 665 781
40 328 499
41 712 744
42 949 498
43 463 266
44 275 564
45 456 323
46 748 727
47 860 607
48 821 554
49 245 542
50 462 420
51 859 662
52 308 399
53 427 246
54 279 414
55 543 841
56 243 333
57 406 498
58 347 509
59 460 593
60 244 536
61 650 703
62 732 115
63 234 661
64 808 720
65 423 216
66 144 390
67 772 633
68 917 645
69 509 345
70 286 449
71 380 488
72 478 333
73 465 310
74 666 858
75 334 369
76 708 815
77 767 610
78 472 326
79 481 449
80 559 265
81 786 646
82 503 255
83 406 226
84 627 709
85 859 611
86 931 648
87 281 315
88 954 665
89 443 295
90 497 359
91 247 542
92 311 468
93 901 603
94 801 847
95 257 131
96 346 637
97 604 305
98 436 206
99 277 345
100 428 257
101 405 530
102 892 802
103 341 663
104 856 527
105 539 861
106 359 298
107 875 642
108 610 772
109 867 658
110 677 832
111 340 456
112 322 444
113 623 825
114 316 483
115 886 768
116 505 255
117 554 806
118 309 502
119 953 659
120 675 828
121 946 627
122 242 560
123 498 334
124 844 511
125 811 691
126 468 522
127 454 510
128 675 733
129 186 347
130 348 474
131 605 756
132 487 362
133 835 517
134 507 409
135 378 458
136 368 319
137 810 928
138 572 844
139 445 255
140 412 244
141 815 948
142 328 509
143 665 841
144 295 534
145 859 585
146 730 846
147 786 719
148 437 458
149 371 276
150 876 594
151 448 298
152 510 236
153 573 230
154 837 903
155 909 630
156 704 257
157 643 809
158 944 623
159 440 448
160 411 551
161 721 584
162 523 195
163 370 474
164 730 809
165 520 525
166 498 349
167 667 782
168 244 370
169 365 509
170 758 838
171 323 519
172 378 315
173 402 522
174 986 718
175 419 216
176 340 467
177 664 691
178 887 519
179 487 341
180 798 633
181 432 178
182 538 215
183 619 734
184 897 626
185 653 723
186 999 652
187 424 473
188 842 770
189 504 345
190 830 617
191 742 857
192 602 875
193 524 367
194 918 764
195 654 754
196 482 274
197 861 603
198 344 184
199 832 573
200 924 690
201 794 662
202 258 663
203 575 132
204 273 535
205 871 612
206 522 291
207 650 261
208 443 292
209 631 960
210 950 648
211 212 601
212 698 735
213 510 223
214 322 521
215 806 829
216 243 269
217 527 416
218 535 411
219 917 576
220 618 292
221 504 296
222 574 897
223 368 600
224 733 712
225 314 438
226 362 479
227 874 652
228 756 693
229 519 166
230 418 381
231 841 801
232 593 974
233 410 515
234 434 478
235 501 249
236 896 647
237 819 806
238 311 561
239 363 98
240 275 491
241 849 471
242 563 297
243 961 626
244 588 700
245 705 795
246 948 634
247 283 493
248 865 664
249 856 622
250 223 459
251 307 497
252 363 509
253 655 782
254 636 386
255 703 883
256 782 900
257 186 508
258 436 192
259 398 512
260 449 668
261 253 148
262 112 573
263 250 532
264 722 761
265 375 393
266 415 416
267 234 81
268 511 473
269 940 754
270 382 449
271 267 459
272 926 677
273 946 631
274 962 364
275 886 613
276 794 839
277 137 499
278 594 954
279 497 399
280 869 621
281 857 586
282 971 559
283 521 273
284 793 806
285 461 276
286 912 910
287 457 265
288 325 456
289 312 305
290 991 645
291 672 935
292 227 328
293 869 620
294 316 455
295 617 725
296 395 501
297 406 223
298 879 592
299 692 448
300 534 348
301 641 823
302 644 822
303 323 492
304 405 715
305 331 451
306 902 505
307 900 608
308 939 553
309 681 748
310 497 320
311 289 412
312 466 263
313 662 812
314 256 499
315 748 888
316 352 624
317 474 238
318 208 455
319 922 673
320 470 473
321 869 610
322 80 531
323 826 819
324 691 935
325 331 340
326 405 263
327 640 751
328 246 487
329 770 429
330 876 561
331 448 274
332 728 801
333 453 176
334 356 248
335 531 283
336 885 599
337 994 539
338 781 595
339 688 856
340 448 393
341 302 417
342 298 550
343 663 798
344 564 286
345 762 732
346 437 272
347 301 337
348 718 866
DEMAND_SECTION
2 67
3 87
4 73
5 59
6 88
7 58
8 53
9 53
10 97
11 59
12 52
13 83
14 88
15 83
16 95
17 95
18 93
19 63
20 50
21 94
22 56
23 57
24 69
25 68
26 3
27 3
28 1
29 3
30 2
31 1
32 4
33 10
34 6
35 9
36 1
37 3
38 4
39 2
40 10
41 5
42 4
43 6
44 3
45 10
46 5
47 2
48 5
49 9
50 6
51 8
52 2
53 3
54 6
55 5
56 5
57 3
58 3
59 6
60 5
61 8
62 9
63 4
64 8
65 4
66 10
67 5
68 1
69 9
70 9
71 6
72 6
73 7
74 4
COVERAGE_SECTION
2 11 114 92 303 288 294 176 251 15 40 305 111 
3 11 285 196 43 312 287 331 151 8 73 208 89 
4 11 275 307 184 93 336 155 205 293 321 280 298 
5 11 76 146 6 164 339 110 332 348 120 245 191 
6 11 164 332 76 5 23 245 25 146 170 191 264 
7 11 334 27 18 198 297 83 140 175 149 65 326 
8 11 139 331 287 346 43 100 285 312 53 208 3 
9 11 210 119 88 246 273 86 121 243 158 68 272 
10 11 153 182 80 19 162 213 152 116 283 235 344 
11 11 340 50 279 132 230 134 266 90 12 159 79 
12 11 72 78 32 45 179 132 73 123 166 90 189 
13 8 315 324 255 256 348 291 191 146 
14 11 289 325 347 106 87 136 75 172 99 149 334 
15 11 40 303 142 58 114 171 118 2 214 251 130 
16 9 323 237 215 231 94 284 276 188 25 
17 11 168 54 311 99 52 56 341 292 347 70 87 
18 11 140 83 326 334 297 27 149 7 53 175 100 
19 11 152 116 82 235 283 213 335 182 80 206 10 
20 11 28 300 193 218 69 217 189 90 134 166 279 
21 11 74 143 339 110 120 255 301 302 348 313 5 
22 11 238 342 36 44 144 316 223 204 214 96 171 
23 11 332 25 164 6 264 245 76 170 5 284 146 
24 11 260 59 223 316 304 96 160 103 101 36 173 
25 10 23 164 332 6 170 284 276 146 76 215 
26 11 252 169 58 15 142 71 40 171 226 214 259 
27 11 297 83 175 65 7 18 140 98 53 258 334 
28 11 20 254 218 300 193 217 97 134 69 242 189 
29 11 329 241 299 124 133 104 254 178 306 48 156 
30 10 55 105 117 138 37 222 192 113 108 131 
31 11 125 64 201 147 33 51 248 109 81 180 227 
32 11 72 78 179 123 12 310 45 73 166 189 69 
33 11 248 51 109 38 227 31 107 236 200 319 272 
34 10 239 95 267 261 198 7 181 27 258 333 
35 11 66 318 277 250 257 129 328 168 17 271 314 
36 11 238 22 214 171 342 26 58 142 223 144 252 
37 11 105 30 222 55 138 192 278 117 232 209 113 
38 11 236 227 109 248 319 107 33 68 51 272 200 
39 11 167 253 343 195 313 157 309 327 245 302 120 
40 11 15 303 142 118 114 58 171 251 214 2 130 
41 11 212 264 309 224 128 46 245 345 23 167 195 
42 8 306 308 337 178 282 219 330 104 
43 11 312 287 285 3 8 331 139 196 346 317 208 
44 11 342 204 122 91 144 238 49 22 263 60 214 
45 11 73 78 12 72 32 151 89 208 179 310 123 
46 11 345 224 228 147 41 264 212 64 23 309 125 
47 11 85 197 321 205 249 293 280 150 281 145 298 
48 11 199 133 104 281 124 145 330 338 197 190 47 
49 11 91 60 263 122 204 44 314 144 342 328 240 
50 11 11 340 79 159 279 148 134 266 320 230 132 
51 11 248 109 227 107 33 38 236 249 280 293 31 
52 11 341 311 54 225 75 112 17 70 294 305 288 
53 11 100 140 139 8 326 346 83 65 175 297 331 
54 11 311 341 52 17 70 225 271 112 294 168 288 
55 10 105 30 138 117 222 192 37 113 108 301 
56 11 292 99 168 87 17 347 129 216 289 14 325 
57 11 296 259 233 173 71 187 101 234 169 163 252 
58 11 26 252 15 169 142 40 171 214 303 226 130 
59 11 24 160 126 260 127 101 165 173 223 233 259 
60 11 49 91 263 122 204 314 44 328 144 240 342 
61 11 177 185 84 128 295 183 327 195 309 212 244 
62 9 156 203 207 153 10 220 182 229 162 
63 11 202 211 122 44 103 22 96 49 91 316 60 
64 11 147 125 31 345 228 46 188 201 33 224 51 
65 11 175 98 297 83 258 53 140 27 181 100 139 
66 11 35 129 318 168 292 250 277 17 56 257 54 
67 11 81 77 180 201 338 190 228 125 161 31 199 
68 11 86 155 236 184 319 273 38 210 246 272 121 
69 11 189 166 123 90 179 300 193 132 310 32 72 
70 11 271 225 92 294 54 112 341 311 288 2 240 
71 11 163 226 296 169 252 57 135 259 26 130 58 
72 11 32 78 179 12 123 310 45 73 166 189 132 
73 11 45 78 151 32 72 89 208 3 12 285 310 
74 11 21 143 339 110 120 302 301 255 313 5 348 
75 10 325 52 347 265 14 341 136 99 311 289 
76 11 5 6 245 164 332 110 120 146 23 313 339 
77 11 338 67 180 81 161 201 190 199 48 228 249 
78 11 32 72 45 73 12 179 310 123 166 151 189 
79 11 320 50 268 159 148 134 279 234 11 217 187 
80 11 344 242 335 153 19 283 10 206 182 116 82 
81 11 180 201 67 77 125 338 190 228 31 147 249 
82 11 116 235 152 19 283 196 213 317 312 335 3 
83 11 297 175 27 140 65 18 53 98 326 100 258 
84 11 295 61 183 185 244 177 327 131 195 128 108 
85 11 47 197 321 249 205 293 280 150 281 145 275 
86 11 68 210 9 246 273 119 121 319 155 158 88 
87 11 99 347 289 56 14 292 325 216 168 17 75 
88 11 119 9 210 86 272 246 319 273 121 200 243 
89 11 208 151 331 346 285 73 3 8 45 287 43 
90 11 132 166 189 69 179 123 193 72 32 12 300 
91 11 49 60 263 122 204 44 314 144 342 328 240 
92 11 2 294 114 288 112 305 303 176 251 225 70 
93 11 307 4 336 275 184 298 150 155 205 219 321 
94 7 276 215 16 323 284 170 237 
95 11 261 267 34 198 239 7 216 334 27 18 297 
96 11 316 103 223 22 36 24 238 202 304 342 44 
97 11 220 242 344 80 207 335 28 20 153 300 206 
98 10 258 65 175 181 297 333 83 53 27 140 
99 11 347 87 56 168 17 289 292 325 14 52 75 
100 11 53 139 346 8 140 326 331 287 43 83 208 
101 11 173 233 259 160 296 57 169 252 26 71 127 
102 10 115 194 231 188 269 323 16 237 215 284 
103 11 96 316 223 304 202 22 24 36 238 63 260 
104 11 124 133 178 330 48 306 199 241 145 281 298 
105 10 55 30 138 222 117 37 192 113 278 301 
106 11 136 149 172 14 289 325 334 326 18 347 75 
107 11 227 109 236 280 293 248 51 184 249 205 38 
108 10 131 327 183 253 195 295 157 113 39 167 
109 11 248 51 227 107 38 236 33 280 249 293 184 
110 11 120 143 313 339 74 302 5 76 21 301 343 
111 10 305 176 288 130 112 294 2 92 225 226 
112 10 225 305 288 294 111 92 176 2 341 70 
113 10 301 302 157 313 143 343 120 74 110 138 
114 11 2 303 92 251 40 118 15 288 294 142 176 
115 11 194 102 188 231 269 237 323 16 33 200 64 
116 11 82 235 19 152 283 196 213 317 335 206 312 
117 10 55 138 30 105 108 131 113 192 157 301 
118 11 251 303 40 114 142 171 214 15 247 2 92 
119 11 88 9 210 86 246 273 272 121 243 319 158 
120 11 110 143 313 74 339 302 343 301 76 5 157 
121 9 158 273 246 243 210 9 86 119 68 
122 11 49 91 60 263 44 204 211 342 144 314 238 
123 11 179 189 310 166 69 32 72 90 78 132 12 
124 11 133 104 241 178 48 306 330 199 145 281 298 
125 11 31 64 201 147 81 228 51 33 180 248 345 
126 11 127 320 165 234 233 101 160 268 57 173 187 
127 11 126 234 320 233 187 57 101 173 148 259 160 
128 11 309 212 185 195 41 61 327 177 39 167 253 
129 11 292 56 66 168 17 99 35 216 87 318 54 
130 10 176 226 111 163 15 2 288 305 303 40 
131 10 108 183 295 327 195 84 253 185 244 39 
132 11 90 166 179 189 69 12 72 123 32 193 279 
133 11 124 104 48 241 178 199 330 306 145 281 150 
134 11 279 217 218 193 50 79 11 90 132 166 340 
135 8 270 163 226 71 130 111 176 296 
136 11 172 106 149 325 14 289 75 326 347 334 265 
137 7 141 154 256 315 13 94 276 
138 10 55 105 117 192 222 113 30 301 302 157 
139 11 8 287 100 331 346 53 43 312 285 317 140 
140 11 53 83 326 100 297 18 175 65 139 27 346 
141 7 137 154 256 13 315 94 286 
142 11 40 171 15 214 303 58 118 251 114 26 2 
143 11 110 120 74 21 339 302 313 301 157 343 113 
144 11 342 204 214 238 171 118 44 251 142 247 263 
145 11 281 197 150 298 47 85 321 330 199 205 336 
146 9 191 5 348 170 6 164 76 339 332 
147 11 64 345 125 46 228 31 224 201 81 188 264 
148 11 159 187 234 320 50 79 266 57 127 270 135 
149 11 106 334 18 326 172 136 140 7 100 83 14 
150 11 298 336 197 321 145 205 47 275 281 85 93 
151 11 89 208 73 331 45 285 346 3 8 287 43 
152 9 213 235 19 82 116 182 317 283 162 
153 11 10 80 182 19 344 162 152 213 283 242 335 
154 8 137 141 256 94 286 276 215 16 
155 11 184 68 4 236 307 86 93 275 107 158 121 
156 11 207 220 97 153 344 62 80 254 242 10 29 
157 11 302 301 313 343 113 253 39 167 120 143 110 
158 9 121 273 246 243 210 9 86 68 155 
159 11 148 187 234 50 320 79 266 11 340 270 57 
160 11 101 173 233 259 296 57 127 169 26 126 252 
161 11 77 338 67 81 180 48 201 199 190 228 177 
162 7 182 229 213 152 10 19 235 
163 10 226 71 135 130 270 176 111 169 252 296 
164 11 6 332 23 76 5 25 245 146 170 191 264 
165 11 126 268 127 320 79 59 234 148 187 217 233 
166 11 189 90 69 179 123 132 32 72 310 193 12 
167 11 39 253 343 313 195 157 309 245 327 302 120 
168 11 17 56 99 292 54 129 311 87 347 52 341 
169 11 252 26 58 71 226 296 259 15 163 142 40 
170 7 191 146 25 276 6 164 94 
171 11 214 142 40 118 15 58 251 303 144 26 114 
172 11 136 106 149 325 14 326 289 89 208 75 18 
173 11 101 233 259 296 57 160 169 71 252 26 127 
174 10 269 88 186 119 200 272 290 9 319 210 
175 11 65 297 83 98 27 140 258 53 181 100 18 
176 10 111 130 305 288 2 226 294 92 112 114 
177 11 61 185 84 128 212 295 309 183 195 327 41 
178 11 306 104 330 124 133 241 308 219 42 145 281 
179 11 72 32 123 166 189 78 90 132 69 12 310 
180 11 81 67 201 190 77 338 125 249 31 85 47 
181 9 258 333 98 65 175 297 27 83 53 
182 10 10 162 213 152 19 153 235 116 82 229 
183 10 295 84 131 327 185 108 195 61 244 128 
184 11 4 155 275 307 236 93 107 68 280 293 205 
185 11 61 128 84 195 327 177 183 295 309 212 131 
186 10 290 243 9 88 119 210 246 273 121 158 
187 11 234 148 159 57 296 233 71 320 259 127 135 
188 11 231 237 115 323 16 102 64 284 215 147 194 
189 11 69 166 123 90 179 132 310 32 72 193 300 
190 11 249 85 47 197 180 280 293 321 205 281 145 
191 7 146 170 348 315 5 6 255 
192 11 222 138 113 21 105 301 74 55 302 143 157 
193 11 300 69 90 189 166 20 132 123 279 134 179 
194 10 269 115 102 200 188 174 231 272 33 319 
195 11 327 253 309 39 128 167 185 183 343 295 108 
196 11 3 312 43 285 287 82 116 221 235 331 8 
197 11 47 85 321 205 150 281 145 293 249 280 298 
198 11 7 27 334 18 297 83 175 65 181 239 140 
199 11 48 281 145 197 47 190 330 85 150 298 104 
200 11 272 319 38 88 119 86 68 9 210 236 33 
201 11 81 180 125 67 31 228 147 190 77 64 51 
202 11 63 211 103 96 22 44 316 122 238 342 91 
203 7 229 162 182 10 153 213 152 
204 11 144 263 91 44 49 60 342 122 314 247 240 
205 11 321 293 280 47 85 197 275 249 150 336 298 
206 11 335 283 221 310 116 82 242 19 344 196 80 
207 11 220 156 97 153 344 80 242 10 182 335 254 
208 11 89 151 331 346 285 8 73 3 287 43 45 
209 11 278 232 291 324 222 192 21 255 74 13 339 
210 11 9 119 246 88 273 86 121 243 158 68 272 
211 11 122 63 49 91 60 44 202 263 204 257 22 
212 11 41 309 128 264 224 185 195 46 167 177 39 
213 9 152 235 19 182 162 116 82 317 10 
214 11 171 142 40 118 15 58 251 303 144 26 114 
215 8 276 94 16 323 237 284 231 170 
216 11 87 292 56 289 99 347 14 129 168 325 334 
217 11 218 134 279 193 20 79 268 90 50 28 132 
218 11 217 134 279 193 20 28 300 90 79 268 132 
219 8 93 308 307 336 298 330 4 150 
220 11 97 207 344 242 80 153 335 10 156 28 206 
221 11 206 310 283 335 196 3 123 73 82 116 32 
222 11 192 105 138 278 55 37 232 209 30 113 117 
223 11 316 96 36 22 160 103 238 24 101 26 173 
224 11 46 228 345 41 212 264 147 128 309 177 64 
225 11 112 294 288 305 341 70 92 111 311 2 52 
226 10 163 130 71 176 135 169 252 111 15 58 
227 11 109 107 248 51 236 38 280 293 184 249 33 
228 11 224 46 345 147 201 125 81 64 67 31 41 
229 7 162 182 213 203 333 10 152 
230 9 340 266 11 265 50 12 45 159 132 
231 11 237 323 16 188 215 284 102 115 276 94 25 
232 11 278 209 222 291 192 324 37 105 21 138 74 
233 11 173 259 101 57 296 160 71 127 187 234 169 
234 11 187 148 159 57 320 127 233 296 259 173 71 
235 10 82 116 152 19 213 317 196 283 312 43 
236 11 38 68 155 184 107 227 109 4 86 248 275 
237 10 323 16 231 215 284 276 188 94 25 170 
238 11 342 22 36 144 44 214 171 204 142 118 58 
239 10 34 198 181 95 7 27 258 333 261 98 
240 11 247 314 328 251 271 118 114 70 92 204 2 
241 11 124 133 104 178 306 48 329 330 29 199 42 
242 11 344 80 335 206 97 283 220 221 300 19 153 
243 8 121 246 273 158 210 9 119 290 
244 10 295 84 183 131 61 185 327 108 177 195 
245 11 76 332 6 164 5 264 23 167 39 343 120 
246 10 273 121 158 210 243 9 86 119 88 68 
247 11 240 251 118 314 114 328 92 271 2 303 144 
248 11 51 109 227 107 33 38 236 249 280 293 31 
249 11 85 280 293 47 205 321 197 190 107 275 150 
250 11 318 328 271 314 240 257 70 247 35 54 263 
251 11 118 114 303 40 142 247 2 15 171 214 92 
252 11 169 26 58 71 226 15 296 142 259 40 163 
253 11 39 167 343 195 157 313 327 302 301 309 108 
254 11 28 20 299 97 220 218 300 217 193 242 344 
255 11 348 339 21 74 315 146 191 13 5 324 110 
256 7 315 137 13 154 94 141 191 
257 11 277 318 250 60 328 49 263 91 314 122 35 
258 10 98 181 333 65 175 297 83 27 53 140 
259 11 173 296 233 57 101 71 169 252 26 160 163 
260 11 24 304 59 223 316 96 103 160 244 101 126 
261 11 95 267 34 198 216 239 7 334 27 18 289 
262 11 322 277 257 211 122 49 60 91 263 35 63 
263 11 60 91 49 204 122 314 44 144 328 240 247 
264 11 41 212 23 245 332 46 309 164 345 224 6 
265 8 230 266 75 270 135 52 325 111 
266 9 230 340 159 265 50 148 270 11 135 
267 11 95 261 34 239 198 7 216 27 334 181 18 
268 11 79 320 165 217 134 126 218 127 50 159 279 
269 10 194 115 174 200 102 272 319 88 33 119 
270 8 135 163 226 71 130 111 176 266 
271 11 70 240 328 247 314 250 92 54 294 225 311 
272 11 319 200 86 88 119 68 38 9 210 236 246 
273 10 121 246 158 243 210 9 86 119 68 88 
274 11 42 306 241 178 337 29 124 308 104 282 133 
275 11 4 336 205 307 184 321 93 293 280 150 298 
276 7 94 215 284 170 16 323 237 
277 11 257 322 35 262 318 250 66 328 60 49 91 
278 11 232 209 222 192 291 324 37 105 138 21 74 
279 11 134 217 11 132 90 218 50 193 340 166 79 
280 11 293 205 321 249 85 47 275 197 107 4 336 
281 11 145 197 47 150 298 85 321 199 205 330 336 
282 6 337 308 219 42 243 158 
283 11 335 206 19 116 82 221 235 80 152 196 344 
284 10 215 237 276 25 323 16 94 170 231 23 
285 11 43 3 287 331 312 8 196 208 346 89 139 
286 10 154 137 141 102 16 323 94 231 256 215 
287 11 43 312 8 285 331 139 3 346 196 100 208 
288 10 305 294 112 111 92 176 2 225 114 130 
289 11 14 87 347 325 106 99 136 149 172 75 334 
290 10 186 243 9 119 210 88 246 273 121 158 
291 11 324 209 255 13 21 74 278 339 348 232 315 
292 11 56 129 168 99 87 216 17 347 289 14 54 
293 11 280 205 321 85 249 47 275 197 107 4 336 
294 10 288 112 92 305 225 2 111 176 114 70 
295 11 183 84 131 327 185 244 61 195 108 177 128 
296 11 57 259 71 233 173 101 169 252 163 26 187 
297 11 83 175 27 65 140 18 53 98 100 326 258 
298 11 150 336 145 197 321 205 275 281 47 93 307 
299 11 329 254 29 28 161 20 133 241 218 124 48 
300 11 193 69 189 20 166 90 123 310 179 132 32 
301 11 302 157 113 313 143 343 120 110 74 253 39 
302 11 301 157 113 313 143 343 120 110 253 74 39 
303 11 40 15 114 2 118 251 142 92 171 58 214 
304 11 260 24 103 96 316 223 59 202 30 22 160 
305 10 288 111 112 294 176 225 92 2 130 114 
306 10 178 42 104 124 308 330 241 133 219 282 
307 11 93 4 275 336 184 155 298 150 205 321 293 
308 7 219 282 42 337 306 178 93 
309 11 128 212 195 41 39 167 185 327 253 264 245 
310 11 123 32 72 179 221 78 189 69 166 73 206 
311 11 54 341 52 225 70 17 112 294 271 288 305 
312 11 43 287 285 3 196 8 331 139 317 346 208 
313 11 343 157 120 302 301 110 143 167 39 253 113 
314 11 328 240 247 263 60 204 271 49 91 251 144 
315 7 191 13 256 348 255 146 170 
316 11 96 223 103 22 36 238 24 342 160 44 202 
317 10 312 235 43 287 82 139 116 152 196 8 
318 11 250 328 35 257 271 314 240 70 54 247 277 
319 11 272 200 86 68 38 88 119 236 9 210 155 
320 11 79 148 234 159 127 268 187 126 50 57 165 
321 11 205 47 85 293 197 280 150 275 249 336 298 
322 11 262 277 257 35 211 318 66 250 60 49 122 
323 10 16 237 215 231 284 94 276 188 102 25 
324 11 291 13 255 209 21 315 348 339 74 191 146 
325 11 14 75 347 289 136 106 172 99 87 52 265 
326 11 140 100 18 53 346 149 83 297 8 139 331 
327 11 195 183 185 253 131 295 108 39 128 167 309 
328 11 314 240 271 250 247 263 60 318 49 70 91 
329 11 29 299 241 133 124 104 48 254 178 306 199 
330 11 145 281 298 150 104 336 178 219 197 199 47 
331 11 8 346 285 287 43 139 208 312 89 3 151 
332 11 164 6 23 76 245 25 5 264 146 170 191 
333 9 181 258 98 65 175 317 297 229 83 
334 11 18 7 149 27 106 326 83 140 297 198 53 
335 11 206 283 221 80 344 19 242 116 82 235 196 
336 11 298 150 275 93 307 4 205 321 197 47 293 
337 6 282 308 42 219 243 158 
338 11 77 67 180 81 190 199 48 161 201 281 145 
339 11 74 21 110 143 120 255 348 5 146 76 313 
340 11 11 50 230 266 279 132 12 159 90 134 79 
341 11 311 52 54 225 112 70 294 288 305 92 111 
342 11 144 238 44 204 22 214 171 36 118 142 263 
343 11 313 167 39 253 157 302 120 301 110 245 143 
344 11 242 80 335 206 97 283 220 19 153 221 10 
345 11 46 147 224 228 64 264 41 23 125 212 25 
346 11 331 8 100 139 208 287 89 285 43 53 151 
347 11 99 87 325 14 289 75 56 52 17 168 136 
348 9 146 255 191 339 5 315 170 76 21 
DEPOT_SECTION
   1
   -1
EOF
