NAME :  X-n344-kX-w34-c9.cctp
COMMENT : 	Adapted by Maziero, Usberti and Cavellucci from the Uchoa, Pecin, Pessoa, Poggi, Subramanian, and Vidal (2013)
TYPE :  CCTP
DIMENSION :    184
EDGE_WEIGHT_TYPE : 	EUC_2D	
CAPACITY : 	61
VERTICES_WITHIN_COVERAGE :  9
VERTICES_WITH_DEMAND : 	34
NODE_COORD_SECTION
1 500 500
2 615 190
3 890 200
4 983 684
5 874 112
6 906 186
7 801 278
8 823 446
9 242 544
10 505 210
11 767 766
12 698 305
13 707 511
14 10 968
15 172 13
16 57 414
17 317 373
18 849 680
19 854 12
20 429 688
21 822 378
22 774 584
23 601 895
24 921 309
25 176 165
26 368 432
27 656 430
28 715 225
29 35 264
30 544 994
31 214 533
32 573 650
33 259 595
34 38 550
35 925 755
36 337 562
37 412 969
38 919 402
39 424 206
40 259 588
41 79 364
42 332 593
43 270 544
44 745 267
45 760 786
46 134 998
47 966 458
48 986 462
49 615 293
50 24 217
51 418 662
52 831 314
53 832 564
54 945 758
55 394 446
56 843 680
57 24 613
58 512 655
59 657 544
60 773 727
61 1 461
62 167 981
63 495 295
64 589 311
65 273 186
66 493 121
67 522 653
68 157 9
69 632 964
70 347 750
71 9 237
72 181 662
73 106 978
74 603 944
75 734 612
76 163 142
77 910 272
78 985 968
79 901 149
80 817 700
81 888 1
82 70 323
83 716 413
84 17 309
85 558 122
86 436 663
87 912 64
88 622 271
89 469 629
90 326 388
91 675 587
92 974 135
93 620 443
94 276 222
95 869 663
96 517 935
97 277 612
98 730 728
99 8 525
100 340 489
101 183 75
102 880 600
103 50 555
104 396 484
105 225 176
106 235 9
107 768 438
108 197 149
109 301 18
110 930 549
111 793 659
112 953 401
113 459 264
114 353 254
115 986 680
116 375 639
117 82 923
118 912 604
119 992 123
120 784 823
121 803 338
122 67 555
123 907 896
124 654 393
125 41 545
126 575 872
127 734 779
128 101 440
129 573 609
130 767 794
131 236 121
132 550 658
133 745 746
134 379 464
135 618 848
136 55 556
137 586 888
138 136 189
139 41 501
140 383 686
141 419 687
142 219 38
143 27 564
144 58 518
145 92 293
146 731 737
147 606 332
148 609 368
149 41 399
150 214 619
151 471 405
152 804 753
153 914 234
154 64 580
155 613 106
156 583 675
157 466 675
158 30 555
159 163 244
160 46 194
161 752 797
162 132 16
163 462 689
164 489 725
165 198 26
166 9 875
167 29 588
168 843 98
169 142 149
170 669 393
171 54 527
172 641 883
173 920 860
174 377 640
175 10 614
176 741 232
177 5 190
178 539 901
179 158 173
180 161 140
181 570 682
182 139 525
183 175 121
184 509 650
DEMAND_SECTION
2 7
3 10
4 7
5 8
6 9
7 8
8 5
9 7
10 7
11 5
12 10
13 8
14 6
15 7
16 7
17 5
18 9
19 10
20 10
21 7
22 5
23 9
24 10
25 10
26 8
27 5
28 9
29 7
30 6
31 8
32 5
33 8
34 7
35 6
COVERAGE_SECTION
2 6 88 155 85 49 28 10 
3 9 6 153 79 77 5 92 168 24 7 
4 9 115 54 35 118 95 102 18 56 110 
5 9 168 79 87 6 3 19 92 81 119 
6 9 3 79 153 5 92 77 119 168 87 
7 9 52 44 121 176 28 21 12 77 3 
8 9 107 21 38 121 83 53 52 13 112 
9 9 43 31 40 33 97 150 36 42 182 
10 9 113 39 63 66 85 2 64 88 49 
11 9 45 130 133 161 127 60 152 146 98 
12 9 44 28 88 49 176 170 147 124 7 
13 7 59 91 107 27 83 22 75 
14 5 117 166 73 46 62 
15 6 68 165 162 142 101 106 
16 6 149 128 41 61 139 82 
17 7 90 26 55 134 100 114 104 
18 9 56 95 80 111 102 152 60 118 35 
19 5 81 87 168 5 79 
20 9 141 86 51 163 157 140 164 89 174 
21 9 121 52 8 107 38 7 83 24 112 
22 6 75 53 111 13 91 102 
23 7 137 126 172 74 135 178 69 
24 9 77 153 52 38 112 3 21 121 6 
25 8 179 76 108 180 169 183 138 105 
26 8 55 134 104 90 100 17 151 36 
27 6 124 93 170 83 148 13 
28 8 176 44 12 7 88 2 49 121 
29 7 71 50 84 145 82 160 177 
30 6 96 74 69 178 23 137 
31 7 9 43 40 182 33 150 97 
32 7 132 156 181 129 67 58 184 
33 9 40 97 150 43 9 42 31 36 72 
34 9 125 158 103 136 143 171 122 144 99 
35 9 54 4 115 173 18 95 56 80 152 
36 9 42 43 100 97 40 33 116 174 9 
37 2 96 30 
38 9 112 47 48 24 21 8 52 77 121 
39 8 113 10 114 66 63 94 65 85 
40 9 33 97 43 9 150 31 42 36 72 
41 4 82 149 16 145 
42 9 36 97 116 174 33 40 43 9 100 
43 9 9 40 33 31 97 36 42 100 150 
44 9 176 28 7 12 121 52 88 49 21 
45 9 130 161 11 127 133 120 152 146 60 
46 5 73 62 117 14 166 
47 9 48 112 38 110 8 24 118 21 102 
48 9 47 112 38 110 118 8 24 102 21 
49 7 88 64 147 148 12 2 124 
50 4 71 160 177 29 
51 9 86 141 20 140 174 116 157 163 89 
52 9 121 7 21 77 24 44 153 176 38 
53 9 102 22 118 110 111 95 75 18 56 
54 9 35 4 115 173 95 18 56 80 152 
55 7 134 26 104 100 151 90 17 
56 9 18 95 80 111 152 60 102 118 35 
57 8 175 167 143 154 158 103 34 136 
58 8 184 67 132 89 157 163 32 181 
59 2 91 13 
60 8 133 11 152 98 146 80 45 127 
61 8 139 99 16 149 144 171 125 34 
62 4 46 73 117 14 
63 7 113 10 64 151 39 147 49 
64 7 147 49 88 148 63 124 12 
65 8 94 105 131 108 25 114 179 76 
66 4 85 10 39 155 
67 9 58 184 132 32 181 89 157 156 129 
68 6 15 162 165 142 101 106 
69 5 74 23 172 137 30 
70 4 140 141 20 51 
71 6 50 29 177 160 84 145 
72 4 150 33 40 97 
73 5 46 117 62 14 166 
74 8 69 23 137 172 30 126 178 96 
75 3 22 91 111 
76 6 180 169 183 25 179 108 
77 9 153 24 3 6 52 7 79 121 38 
78 4 123 173 54 35 
79 9 6 5 3 92 168 87 153 119 77 
80 9 56 18 111 60 152 95 11 133 98 
81 7 19 87 168 5 79 92 119 
82 4 145 41 84 29 
83 9 170 107 27 124 13 93 12 8 21 
84 7 29 82 71 145 41 50 149 
85 4 155 66 2 10 
86 9 51 20 141 157 163 89 140 174 116 
87 9 5 81 168 19 79 92 119 6 3 
88 7 49 64 147 2 12 148 28 
89 8 184 157 86 58 67 163 51 20 
90 8 17 26 55 134 100 104 114 151 
91 3 59 75 13 
92 9 119 79 6 87 5 3 153 168 77 
93 4 27 124 170 148 
94 7 65 105 114 108 131 25 159 
95 9 18 56 80 102 118 111 53 35 152 
96 4 178 30 137 74 
97 9 33 40 42 150 43 9 36 31 116 
98 5 146 133 60 127 11 
99 9 158 34 125 139 143 171 144 103 136 
100 9 134 104 26 55 36 43 90 42 9 
101 5 183 165 142 15 180 
102 9 118 53 95 110 18 56 111 22 80 
103 9 136 34 125 122 158 143 171 154 144 
104 7 134 55 100 26 36 151 90 
105 9 108 65 25 131 179 94 76 180 183 
106 7 142 165 15 109 68 101 162 
107 9 8 83 21 13 121 170 27 124 52 
108 8 25 76 183 180 105 179 131 169 
109 7 106 142 165 131 15 101 68 
110 9 118 102 47 53 48 95 115 4 38 
111 8 80 56 18 60 75 95 22 98 
112 9 38 47 48 24 21 77 8 52 110 
113 7 63 39 10 114 64 151 66 
114 9 94 39 65 113 17 90 63 105 10 
115 9 4 54 35 118 95 102 18 110 56 
116 9 174 140 51 42 141 86 20 36 89 
117 5 73 14 166 46 62 
118 9 102 110 95 53 18 56 115 4 111 
119 9 92 79 87 6 5 3 153 168 81 
120 6 130 161 45 11 127 152 
121 9 52 21 7 44 107 8 12 83 24 
122 9 136 103 154 125 34 171 158 144 143 
123 3 173 78 35 
124 7 170 27 148 93 83 147 12 
125 9 34 103 158 136 171 143 122 144 99 
126 5 137 23 178 135 172 
127 7 161 45 11 133 130 146 98 
128 5 16 149 41 139 144 
129 7 32 132 67 156 181 58 184 
130 8 45 161 11 120 127 133 152 60 
131 8 108 105 183 101 25 65 76 180 
132 8 32 67 181 156 58 184 129 89 
133 7 146 98 11 60 127 45 161 
134 8 55 104 26 100 90 36 151 17 
135 4 172 126 23 137 
136 9 103 122 34 125 158 154 143 171 144 
137 7 23 126 178 135 172 74 96 
138 3 179 169 25 
139 8 144 171 99 125 34 103 158 61 
140 9 141 51 20 174 116 86 70 163 157 
141 9 20 51 86 140 163 157 174 116 89 
142 7 165 106 101 15 68 109 131 
143 9 158 34 125 167 103 136 154 122 99 
144 7 171 139 125 34 103 122 136 
145 2 82 29 
146 5 98 133 127 60 11 
147 7 64 148 49 88 124 170 12 
148 7 147 124 64 170 49 93 27 
149 7 16 41 128 61 82 84 139 
150 8 33 72 40 97 9 31 43 182 
151 5 55 26 104 134 63 
152 9 11 60 45 80 130 133 161 120 127 
153 9 77 3 6 24 79 52 92 7 5 
154 9 122 136 103 167 34 143 125 158 57 
155 2 85 2 
156 5 181 32 132 67 129 
157 9 163 86 20 89 141 51 58 184 164 
158 9 34 143 125 103 136 167 99 122 171 
159 3 138 179 25 
160 4 50 177 71 29 
161 7 45 130 127 11 120 133 146 
162 3 68 15 165 
163 9 157 20 86 141 164 51 58 89 184 
164 4 163 157 20 58 
165 6 142 15 106 68 101 162 
166 3 117 14 73 
167 9 143 57 175 158 154 34 103 136 125 
168 8 5 79 87 19 81 6 3 92 
169 5 180 76 179 25 138 
170 7 124 27 83 148 93 147 12 
171 8 144 125 34 103 136 139 122 158 
172 4 23 135 137 126 
173 4 123 35 54 78 
174 9 116 140 51 86 141 42 20 36 89 
175 9 57 167 143 158 154 34 103 136 125 
176 9 28 44 7 12 52 121 88 2 49 
177 4 50 160 71 29 
178 4 96 126 137 23 
179 6 25 138 169 76 180 108 
180 6 76 169 183 25 179 108 
181 6 156 132 32 67 58 184 
182 5 31 122 144 171 136 
183 7 76 180 108 169 25 101 179 
184 8 58 67 132 89 157 163 32 181 
DEPOT_SECTION
   1
   -1
EOF
