NAME :  X-n376-kX-w37-c9.cctp
COMMENT : 	Adapted by Maziero, Usberti and Cavellucci from the Uchoa, Pecin, Pessoa, Poggi, Subramanian, and Vidal (2013)
TYPE :  CCTP
DIMENSION :    254
EDGE_WEIGHT_TYPE : 	EUC_2D	
CAPACITY : 	4
VERTICES_WITHIN_COVERAGE :  9
VERTICES_WITH_DEMAND : 	37
NODE_COORD_SECTION
1 0 0
2 989 944
3 5 730
4 769 200
5 698 515
6 72 561
7 52 397
8 839 271
9 140 724
10 339 580
11 30 850
12 820 815
13 555 844
14 388 709
15 323 438
16 159 983
17 989 233
18 644 167
19 766 151
20 387 690
21 193 140
22 863 192
23 149 123
24 609 119
25 121 204
26 625 537
27 716 123
28 8 219
29 429 956
30 844 970
31 661 66
32 347 202
33 979 314
34 255 772
35 634 504
36 466 48
37 330 90
38 929 245
39 236 130
40 251 486
41 758 203
42 581 534
43 287 432
44 53 374
45 647 72
46 63 976
47 538 891
48 142 134
49 473 750
50 130 999
51 655 588
52 16 235
53 631 868
54 304 743
55 624 81
56 831 984
57 312 157
58 641 435
59 189 201
60 906 949
61 601 486
62 746 904
63 854 201
64 994 111
65 584 875
66 316 741
67 150 56
68 377 988
69 371 762
70 401 741
71 890 126
72 797 335
73 9 301
74 923 259
75 586 782
76 103 99
77 166 987
78 383 86
79 603 863
80 590 78
81 40 554
82 755 120
83 603 102
84 279 404
85 1 481
86 755 779
87 607 107
88 744 130
89 491 28
90 602 512
91 391 982
92 758 153
93 831 894
94 355 206
95 382 353
96 887 133
97 286 835
98 103 743
99 89 845
100 689 515
101 903 330
102 713 261
103 282 745
104 320 130
105 531 25
106 887 949
107 765 502
108 174 187
109 993 233
110 25 851
111 228 228
112 722 969
113 133 115
114 175 663
115 134 106
116 325 78
117 166 547
118 416 965
119 284 119
120 169 541
121 302 72
122 537 7
123 59 816
124 139 74
125 719 235
126 863 957
127 821 476
128 400 49
129 293 179
130 104 271
131 882 906
132 18 221
133 819 101
134 971 397
135 454 960
136 348 657
137 745 122
138 3 510
139 981 283
140 844 154
141 53 544
142 879 809
143 719 31
144 204 791
145 615 578
146 594 837
147 331 365
148 157 938
149 147 59
150 138 140
151 354 240
152 435 976
153 552 29
154 792 147
155 635 236
156 180 793
157 743 136
158 686 38
159 415 672
160 678 523
161 868 224
162 132 915
163 513 74
164 757 295
165 859 823
166 398 959
167 360 94
168 506 114
169 240 808
170 434 756
171 628 184
172 22 999
173 707 963
174 750 278
175 788 95
176 653 222
177 730 753
178 144 957
179 404 597
180 849 288
181 321 355
182 294 41
183 43 501
184 175 695
185 949 443
186 245 169
187 848 143
188 153 521
189 659 523
190 370 702
191 330 488
192 420 88
193 630 555
194 568 848
195 92 747
196 126 152
197 18 275
198 875 151
199 598 777
200 112 727
201 697 29
202 243 155
203 563 820
204 645 62
205 645 77
206 193 643
207 96 519
208 998 266
209 990 922
210 753 566
211 646 537
212 386 478
213 344 512
214 151 492
215 251 208
216 680 428
217 171 19
218 146 654
219 82 631
220 417 950
221 121 982
222 180 796
223 51 162
224 628 521
225 596 600
226 605 229
227 378 53
228 95 447
229 899 216
230 304 713
231 305 760
232 636 482
233 954 189
234 470 857
235 450 97
236 811 886
237 453 64
238 258 429
239 57 298
240 136 129
241 62 213
242 852 852
243 538 110
244 987 849
245 418 966
246 391 92
247 552 802
248 571 581
249 71 227
250 311 90
251 528 124
252 321 456
253 978 276
254 239 960
DEMAND_SECTION
2 1
3 1
4 1
5 1
6 1
7 1
8 1
9 1
10 1
11 1
12 1
13 1
14 1
15 1
16 1
17 1
18 1
19 1
20 1
21 1
22 1
23 1
24 1
25 1
26 1
27 1
28 1
29 1
30 1
31 1
32 1
33 1
34 1
35 1
36 1
37 1
38 1
COVERAGE_SECTION
2 6 209 60 244 106 131 126 
3 9 195 98 123 200 11 110 219 9 99 
4 9 41 92 19 154 125 157 88 174 82 
5 9 100 160 189 211 35 107 224 232 210 
6 9 141 81 207 183 219 138 188 117 120 
7 9 44 228 85 239 183 73 138 197 207 
8 9 180 161 63 72 229 22 74 164 101 
9 9 200 98 184 195 114 218 156 222 144 
10 8 179 213 136 191 212 159 20 252 
11 7 110 123 99 195 162 3 46 
12 6 165 242 142 236 86 93 
13 9 194 203 146 65 247 47 79 75 53 
14 9 20 190 70 159 69 136 170 66 230 
15 9 252 43 191 84 238 147 212 213 181 
16 8 77 178 50 221 148 162 254 46 
17 9 109 208 253 139 233 38 74 33 229 
18 9 171 176 24 87 155 226 83 27 55 
19 9 92 154 157 88 82 137 4 41 27 
20 9 14 190 159 136 70 69 170 230 66 
21 9 39 23 48 108 202 150 240 186 59 
22 9 63 161 140 198 229 187 96 71 8 
23 9 48 240 113 150 115 196 21 124 76 
24 9 87 83 55 80 205 18 45 204 171 
25 9 196 249 108 241 150 59 130 48 240 
26 9 224 193 211 35 90 189 145 42 160 
27 9 88 137 157 82 92 19 175 31 154 
28 9 132 52 241 197 249 223 73 239 130 
29 8 220 245 118 152 135 166 91 68 
30 7 56 126 106 60 131 93 236 
31 9 45 204 205 158 55 201 83 87 143 
32 7 94 151 57 129 104 215 119 
33 9 139 253 208 74 101 17 109 134 38 
34 9 103 169 231 144 54 66 97 230 156 
35 9 224 232 189 90 26 211 61 160 193 
36 8 237 89 235 163 192 128 105 168 
37 9 116 250 167 121 104 78 119 182 227 
38 9 74 229 253 17 233 139 109 161 208 
39 9 202 186 21 119 129 215 57 104 108 
40 6 238 43 252 191 15 84 
41 9 4 92 125 19 154 157 102 88 174 
42 9 90 26 248 224 61 193 145 35 211 
43 8 84 238 15 252 40 191 147 181 
44 8 7 239 228 73 197 130 85 183 
45 9 205 204 31 55 158 83 87 80 24 
46 9 172 221 50 178 162 16 148 77 11 
47 9 65 13 194 79 203 234 146 247 53 
48 9 150 240 23 113 196 115 21 76 124 
49 6 170 70 14 247 159 69 
50 9 221 16 77 178 148 46 162 172 254 
51 6 145 193 211 26 225 189 
52 9 132 28 197 241 249 73 239 223 130 
53 6 79 65 146 194 13 203 
54 9 66 231 103 230 34 69 190 14 169 
55 9 205 45 204 83 87 80 31 24 158 
56 8 30 126 106 60 93 131 236 112 
57 9 104 129 119 32 94 250 186 37 202 
58 4 216 232 61 35 
59 9 108 111 21 215 186 25 202 150 196 
60 7 106 126 131 30 2 56 209 
61 9 90 232 35 224 42 26 58 211 189 
62 7 236 112 173 93 12 56 30 
63 9 22 161 229 140 198 187 8 96 154 
64 6 233 71 96 17 109 198 
65 8 79 194 146 13 53 47 203 247 
66 9 54 231 230 103 69 190 34 14 70 
67 7 149 124 217 115 113 76 23 
68 7 91 166 118 245 220 152 29 
69 9 70 14 66 190 170 231 54 20 230 
70 8 14 170 69 190 20 159 49 66 
71 8 96 198 187 140 22 133 63 229 
72 5 164 180 174 8 101 
73 9 197 239 52 132 28 44 249 130 241 
74 9 38 229 253 139 161 17 101 109 208 
75 7 199 247 203 146 194 13 79 
76 7 115 113 124 240 23 48 150 
77 7 16 178 50 221 148 254 162 
78 7 246 167 227 192 128 37 116 
79 9 65 53 146 194 13 203 47 247 75 
80 9 83 55 87 24 205 45 204 243 153 
81 9 141 6 183 138 207 85 219 188 228 
82 8 137 88 157 19 92 27 175 154 
83 9 87 24 80 55 205 45 204 243 31 
84 6 43 238 15 147 181 252 
85 9 138 183 141 81 7 228 207 6 44 
86 4 177 12 165 236 
87 9 83 24 55 80 205 45 204 31 243 
88 9 157 137 82 92 27 19 154 175 4 
89 8 36 105 122 163 237 153 235 168 
90 9 61 224 42 35 26 232 193 211 189 
91 8 68 166 118 245 220 152 29 135 
92 9 19 157 88 82 137 154 4 41 27 
93 7 236 242 131 126 165 30 106 
94 7 32 151 57 129 104 215 119 
95 4 147 181 15 84 
96 8 71 198 187 140 22 133 63 229 
97 5 169 34 231 103 144 
98 9 195 200 9 123 184 156 222 3 218 
99 6 123 11 110 162 195 98 
100 9 5 160 189 211 35 224 232 26 193 
101 8 180 74 33 8 38 139 253 134 
102 7 125 174 164 176 41 155 4 
103 9 54 231 66 34 230 169 97 69 144 
104 9 57 119 37 250 116 167 129 121 32 
105 8 122 153 89 163 36 80 243 237 
106 7 60 126 131 30 56 93 236 
107 5 127 210 5 100 160 
108 9 59 21 25 150 196 48 111 23 240 
109 9 17 208 253 139 233 38 74 33 229 
110 7 11 123 99 3 195 162 46 
111 8 215 59 186 108 202 129 21 39 
112 6 173 62 56 30 236 93 
113 9 115 240 23 48 150 76 196 124 149 
114 8 206 218 184 9 200 219 98 117 
115 9 113 23 240 48 76 124 150 196 149 
116 9 37 250 121 167 182 104 119 78 227 
117 7 120 188 214 207 6 206 40 
118 8 245 220 29 166 152 91 135 68 
119 9 104 250 57 39 121 37 202 116 129 
120 7 117 188 214 207 6 40 206 
121 9 250 116 182 37 119 104 167 227 78 
122 8 105 153 89 163 36 80 237 243 
123 7 99 11 110 195 98 3 200 
124 8 149 67 115 113 76 23 240 48 
125 7 102 41 174 4 176 164 155 
126 7 30 106 56 60 131 93 236 
127 3 107 210 5 
128 7 227 78 192 246 237 167 36 
129 9 57 186 215 202 104 32 119 94 39 
130 8 239 249 25 241 197 52 132 73 
131 7 106 60 93 126 242 30 236 
132 9 28 52 241 249 197 223 73 239 130 
133 6 175 187 154 140 82 19 
134 6 185 33 101 139 253 208 
135 9 29 152 245 118 220 166 91 68 234 
136 9 190 20 14 159 230 10 179 66 54 
137 8 88 82 157 27 92 19 175 154 
138 9 85 183 81 141 6 207 228 7 44 
139 9 253 208 33 17 109 74 38 101 233 
140 9 187 198 22 63 96 154 71 133 161 
141 9 81 6 183 207 138 85 219 188 228 
142 3 165 242 12 
143 7 201 158 31 204 45 205 27 
144 7 156 222 169 34 103 9 97 
145 9 193 225 51 26 248 211 42 224 90 
146 9 79 194 203 65 13 53 247 75 199 
147 5 181 95 84 15 43 
148 6 178 162 16 77 221 50 
149 7 67 124 217 115 113 76 23 
150 9 48 240 196 23 113 115 76 21 108 
151 4 94 32 129 57 
152 8 245 29 118 135 220 166 91 68 
153 8 105 122 163 89 80 243 36 55 
154 9 19 92 82 157 88 140 175 133 137 
155 5 176 226 171 18 102 
156 6 222 144 169 34 9 98 
157 9 88 137 82 92 19 27 154 175 4 
158 9 201 143 31 204 45 205 55 27 137 
159 8 20 14 190 136 70 179 170 49 
160 9 100 189 5 211 35 224 26 193 232 
161 9 63 22 229 8 38 74 180 198 140 
162 6 148 178 221 16 77 99 
163 8 168 243 89 105 251 36 153 237 
164 6 174 102 72 125 8 41 
165 5 142 242 12 93 236 
166 8 118 220 245 91 29 68 152 135 
167 8 78 37 246 116 227 250 104 128 
168 6 251 243 163 235 237 36 
169 8 34 144 97 222 156 103 231 54 
170 6 70 49 69 14 20 190 
171 7 18 176 226 155 24 87 83 
172 9 46 221 50 178 16 162 77 110 148 
173 6 112 62 53 56 236 30 
174 6 164 102 125 72 41 4 
175 8 133 82 137 154 88 19 157 92 
176 6 155 171 226 18 125 102 
177 2 86 12 
178 7 148 16 221 77 50 162 46 
179 5 10 159 136 20 213 
180 9 8 161 101 72 74 63 229 38 164 
181 5 147 95 84 15 43 
182 8 121 116 250 37 119 167 227 104 
183 9 138 141 85 81 207 6 228 7 214 
184 9 114 9 218 206 200 98 156 195 144 
185 4 134 101 33 127 
186 9 202 215 39 129 21 111 119 59 57 
187 9 140 198 96 71 22 133 154 63 175 
188 6 120 117 214 207 6 228 
189 9 160 211 35 100 224 26 5 193 232 
190 9 14 20 70 136 159 69 66 230 54 
191 8 213 252 15 212 43 40 10 238 
192 8 246 235 78 237 128 227 167 36 
193 9 26 211 145 224 51 189 35 90 42 
194 9 13 146 203 65 79 247 47 53 75 
195 9 98 200 9 123 3 99 184 156 222 
196 9 150 48 240 23 113 115 25 76 108 
197 9 73 52 239 132 28 249 241 130 44 
198 9 96 187 71 140 22 63 229 161 133 
199 6 75 247 203 146 194 13 
200 9 98 9 195 184 218 114 156 222 219 
201 8 158 143 31 204 45 205 55 27 
202 9 186 39 21 215 119 129 57 59 111 
203 9 247 13 194 146 75 199 65 79 47 
204 9 45 205 31 55 158 80 83 87 201 
205 9 45 204 31 55 87 83 24 80 158 
206 7 114 218 184 9 117 120 219 
207 9 6 141 183 188 214 81 228 117 120 
208 9 253 139 109 17 33 38 74 233 229 
209 5 2 244 60 106 131 
210 3 107 5 100 
211 9 189 26 193 224 35 160 100 90 145 
212 4 213 191 252 15 
213 7 191 212 252 10 15 40 43 
214 7 188 120 117 207 228 40 6 
215 9 111 186 129 202 59 39 57 108 21 
216 5 58 232 100 5 35 
217 7 67 149 124 115 113 76 23 
218 8 114 206 184 219 9 200 98 195 
219 9 218 6 81 141 114 200 9 206 184 
220 8 29 118 245 166 152 135 91 68 
221 8 50 178 16 77 148 46 162 172 
222 6 156 144 169 34 9 98 
223 7 241 132 249 28 196 52 25 
224 9 26 35 211 90 189 193 232 61 42 
225 6 145 248 193 51 42 26 
226 4 155 176 171 18 
227 7 128 78 246 167 192 116 37 
228 8 7 207 214 183 44 188 85 141 
229 9 161 38 22 63 74 233 198 8 140 
230 9 54 66 103 231 190 136 34 69 14 
231 9 54 66 103 230 34 69 97 169 190 
232 9 35 61 224 90 58 189 26 211 160 
233 9 17 109 38 229 74 96 64 198 208 
234 6 47 13 194 247 203 135 
235 6 192 237 36 168 246 163 
236 7 93 242 62 12 131 165 126 
237 8 36 235 192 89 128 163 246 78 
238 6 43 84 40 15 252 191 
239 9 197 73 130 249 52 44 241 132 28 
240 9 48 150 23 113 115 196 76 124 21 
241 9 249 132 52 223 28 25 130 197 239 
242 6 165 93 12 142 236 131 
243 7 251 168 163 80 83 87 24 
244 4 209 2 142 131 
245 8 118 29 220 152 166 91 135 68 
246 7 78 192 167 227 128 235 37 
247 8 203 75 13 194 199 146 65 79 
248 7 225 145 42 193 26 90 224 
249 9 241 132 25 130 52 28 223 197 239 
250 9 116 37 121 119 104 167 182 57 78 
251 6 243 168 163 80 83 24 
252 9 15 191 43 213 84 212 238 40 147 
253 9 139 208 33 17 109 38 74 233 101 
254 4 77 16 148 178 
DEPOT_SECTION
   1
   -1
EOF
