NAME :  X-n331-kX-w66-c9.cctp
COMMENT : 	Adapted by Maziero, Usberti and Cavellucci from the Uchoa, Pecin, Pessoa, Poggi, Subramanian, and Vidal (2013)
TYPE :  CCTP
DIMENSION :    289
EDGE_WEIGHT_TYPE : 	EUC_2D	
CAPACITY : 	23
VERTICES_WITHIN_COVERAGE :  9
VERTICES_WITH_DEMAND : 	66
NODE_COORD_SECTION
1 0 0
2 2 857
3 407 102
4 915 965
5 797 45
6 997 241
7 650 683
8 748 248
9 99 174
10 2 545
11 277 689
12 568 771
13 76 105
14 117 973
15 171 971
16 327 183
17 277 697
18 269 246
19 670 18
20 51 901
21 951 696
22 710 102
23 61 465
24 348 606
25 551 243
26 524 793
27 89 582
28 900 748
29 235 368
30 122 587
31 449 781
32 970 38
33 362 490
34 742 267
35 289 115
36 898 957
37 996 922
38 951 633
39 713 779
40 603 247
41 402 363
42 143 0
43 274 608
44 81 422
45 550 408
46 43 699
47 482 575
48 909 254
49 613 37
50 202 575
51 297 297
52 736 288
53 464 127
54 499 491
55 635 531
56 796 328
57 184 941
58 641 824
59 863 673
60 396 950
61 555 631
62 664 966
63 301 260
64 425 990
65 559 746
66 431 827
67 724 472
68 847 51
69 888 721
70 136 331
71 859 627
72 206 5
73 429 381
74 886 684
75 123 488
76 779 445
77 764 43
78 938 743
79 800 398
80 734 20
81 211 678
82 601 545
83 512 403
84 796 106
85 644 810
86 416 973
87 115 435
88 667 91
89 395 941
90 374 546
91 546 191
92 754 255
93 124 588
94 423 929
95 314 637
96 668 268
97 321 786
98 11 499
99 721 692
100 337 475
101 429 478
102 214 547
103 361 166
104 944 218
105 12 468
106 527 255
107 892 896
108 545 806
109 832 12
110 628 495
111 194 884
112 395 309
113 655 39
114 558 175
115 247 947
116 36 394
117 599 724
118 83 489
119 754 703
120 65 35
121 889 230
122 938 307
123 662 394
124 248 220
125 642 549
126 747 86
127 201 643
128 400 574
129 653 798
130 653 904
131 643 138
132 951 307
133 500 726
134 585 586
135 285 769
136 511 898
137 336 912
138 454 207
139 239 951
140 335 815
141 911 708
142 2 239
143 602 984
144 372 799
145 816 435
146 617 639
147 479 831
148 397 20
149 618 113
150 702 902
151 838 111
152 215 154
153 581 757
154 294 174
155 350 909
156 335 941
157 920 675
158 493 469
159 187 284
160 678 127
161 316 319
162 188 134
163 73 608
164 884 613
165 193 831
166 717 851
167 508 52
168 705 769
169 983 312
170 847 359
171 415 658
172 520 413
173 913 564
174 90 256
175 960 936
176 693 559
177 300 456
178 376 144
179 192 177
180 272 525
181 88 626
182 772 743
183 540 206
184 474 559
185 575 901
186 241 949
187 583 602
188 215 48
189 460 683
190 81 368
191 998 835
192 585 234
193 522 137
194 294 501
195 788 392
196 621 498
197 116 698
198 81 236
199 788 277
200 678 560
201 351 354
202 156 507
203 617 486
204 218 189
205 213 23
206 884 616
207 923 177
208 479 307
209 285 153
210 584 878
211 176 928
212 166 656
213 507 183
214 907 171
215 7 792
216 22 787
217 649 933
218 885 309
219 131 560
220 22 81
221 502 640
222 462 970
223 465 114
224 192 569
225 547 473
226 557 408
227 480 579
228 775 395
229 845 753
230 701 529
231 962 95
232 31 68
233 627 629
234 524 322
235 109 935
236 478 480
237 511 488
238 487 121
239 453 440
240 470 598
241 1 111
242 756 89
243 647 753
244 637 397
245 72 370
246 999 268
247 471 517
248 350 131
249 381 534
250 310 467
251 973 212
252 429 565
253 186 426
254 779 143
255 452 1
256 866 928
257 214 623
258 532 586
259 513 152
260 915 772
261 204 585
262 343 558
263 877 720
264 730 272
265 364 617
266 210 569
267 514 296
268 33 761
269 202 695
270 706 395
271 597 866
272 376 83
273 679 434
274 483 578
275 0 299
276 639 101
277 528 192
278 660 561
279 888 7
280 788 712
281 79 750
282 710 665
283 62 737
284 207 501
285 952 915
286 14 440
287 693 370
288 485 885
289 890 951
DEMAND_SECTION
2 1
3 1
4 1
5 1
6 1
7 1
8 1
9 1
10 1
11 1
12 1
13 1
14 1
15 1
16 1
17 1
18 1
19 1
20 1
21 1
22 1
23 1
24 1
25 1
26 1
27 1
28 1
29 1
30 1
31 1
32 1
33 1
34 1
35 1
36 1
37 1
38 1
39 1
40 1
41 1
42 1
43 1
44 1
45 1
46 1
47 1
48 1
49 1
50 1
51 1
52 1
53 1
54 1
55 1
56 1
57 1
58 1
59 1
60 1
61 1
62 1
63 1
64 1
65 1
66 1
67 1
COVERAGE_SECTION
2 8 215 20 216 268 235 281 283 14 
3 9 272 178 223 53 248 103 238 148 255 
4 7 36 289 175 256 285 107 37 
5 9 77 109 68 242 84 126 80 151 279 
6 8 246 251 104 169 132 48 122 207 
7 9 146 233 282 117 243 99 153 168 187 
8 9 92 34 264 52 199 96 56 254 287 
9 9 198 13 174 179 162 142 241 152 204 
10 9 98 105 27 163 118 23 286 181 30 
11 9 17 95 81 269 135 43 127 257 97 
12 9 153 65 108 26 117 243 133 85 129 
13 9 232 220 120 9 241 162 42 198 179 
14 9 235 15 57 211 20 111 139 186 115 
15 8 57 211 14 139 235 186 115 111 
16 9 154 103 209 248 178 35 63 18 124 
17 9 11 81 95 135 269 43 127 257 97 
18 9 124 63 51 154 204 16 161 159 209 
19 9 113 49 80 88 276 22 77 126 149 
20 8 2 235 14 215 216 211 15 57 
21 9 157 141 78 38 74 69 28 263 260 
22 9 126 160 88 242 276 131 77 254 113 
23 9 118 44 105 286 98 87 75 116 245 
24 9 265 95 262 128 90 43 249 171 252 
25 9 106 192 183 40 91 277 267 114 213 
26 9 108 12 65 147 153 133 31 66 288 
27 9 163 30 93 181 219 118 10 75 202 
28 8 260 69 263 78 141 229 74 21 
29 9 253 51 161 159 70 177 201 250 18 
30 9 93 219 27 181 163 224 50 212 261 
31 9 66 147 133 26 144 108 189 288 65 
32 9 231 279 68 109 207 214 151 5 251 
33 9 100 249 90 250 101 194 177 262 128 
34 9 264 92 8 52 199 96 56 287 254 
35 9 209 154 248 16 152 103 178 272 188 
36 7 289 4 256 107 175 285 37 
37 8 175 285 191 4 36 107 289 256 
38 9 157 21 206 164 173 74 141 71 59 
39 9 168 129 182 243 166 85 58 119 99 
40 9 192 25 96 183 106 91 114 277 267 
41 9 73 201 112 239 208 161 83 101 51 
42 9 72 205 120 188 13 232 162 220 152 
43 9 95 257 24 261 266 50 11 127 180 
44 9 87 23 116 245 190 118 286 75 105 
45 9 226 172 83 225 158 244 237 234 54 
46 8 283 281 268 197 181 216 163 215 
47 9 274 227 184 240 258 252 247 221 128 
48 8 121 104 122 218 132 251 207 214 
49 9 113 19 276 88 149 131 167 160 22 
50 9 261 266 224 102 257 127 219 284 43 
51 9 161 63 18 201 124 29 112 159 16 
52 9 264 34 92 8 199 96 56 287 270 
53 9 223 238 259 193 3 213 138 167 178 
54 9 237 158 236 247 225 239 101 184 172 
55 9 125 196 82 110 278 203 200 176 230 
56 9 199 170 195 79 228 52 34 92 264 
57 8 211 15 139 111 186 115 14 235 
58 9 85 129 271 243 210 130 166 168 39 
59 9 74 71 263 69 157 141 206 164 229 
60 9 89 86 94 64 155 156 222 137 288 
61 9 187 258 134 221 146 233 274 227 240 
62 8 217 130 143 150 185 210 271 166 
63 9 18 51 161 124 16 154 112 201 209 
64 9 86 222 60 89 94 156 155 137 288 
65 9 153 12 117 26 108 133 243 85 129 
66 9 147 31 144 288 140 26 94 136 155 
67 9 273 76 230 270 176 228 110 145 200 
68 9 109 5 279 151 84 77 242 126 254 
69 9 263 141 28 74 59 229 78 157 260 
70 9 190 159 245 174 29 44 87 253 198 
71 6 206 164 59 74 157 173 
72 9 205 188 42 162 35 120 152 13 209 
73 9 41 239 112 201 83 208 172 101 158 
74 9 59 141 157 69 263 71 21 28 206 
75 8 202 118 87 23 219 44 284 253 
76 8 145 228 79 195 67 270 273 170 
77 9 5 80 126 242 84 109 22 68 19 
78 9 260 28 141 21 69 263 157 74 229 
79 8 195 228 145 76 170 56 270 67 
80 9 77 19 126 5 242 113 22 88 109 
81 7 269 127 212 257 11 17 261 
82 9 55 125 134 196 110 187 203 278 200 
83 9 172 45 226 158 239 225 234 236 237 
84 9 254 151 242 126 5 77 68 22 109 
85 9 58 129 243 168 271 39 153 166 12 
86 9 64 60 89 94 222 156 155 137 288 
87 8 44 75 23 118 253 190 245 202 
88 9 276 160 22 113 131 149 19 49 126 
89 9 60 94 86 155 64 156 137 222 288 
90 9 249 262 128 33 252 24 265 100 101 
91 9 183 277 114 213 259 25 192 193 106 
92 9 8 34 264 52 199 56 96 254 287 
93 9 30 219 27 181 163 224 50 212 261 
94 9 89 60 86 222 64 155 288 137 156 
95 9 24 43 265 11 17 262 257 171 128 
96 9 264 40 52 34 8 92 192 287 25 
97 8 140 135 144 17 11 66 155 137 
98 9 105 10 286 23 118 44 116 75 27 
99 8 282 119 280 7 182 168 39 243 
100 9 250 33 177 194 249 90 180 262 101 
101 9 239 236 247 158 33 54 249 237 90 
102 8 266 50 224 261 284 180 202 257 
103 9 178 248 16 154 209 3 272 35 138 
104 9 251 207 48 121 6 214 246 122 132 
105 9 286 98 23 118 10 116 44 87 75 
106 9 25 267 183 192 277 91 234 208 213 
107 5 256 289 36 285 4 
108 9 26 12 153 65 147 271 210 133 58 
109 9 68 5 279 77 80 151 84 242 126 
110 9 196 203 55 125 82 278 273 230 200 
111 8 211 165 57 186 139 115 15 235 
112 9 41 201 73 161 208 51 63 138 267 
113 9 19 49 88 276 80 149 22 160 131 
114 9 91 277 183 259 193 213 192 25 40 
115 8 186 139 57 211 15 111 156 137 
116 9 245 286 190 44 23 105 87 275 118 
117 9 153 65 12 243 7 146 129 85 108 
118 8 23 75 87 44 98 105 202 286 
119 6 99 280 182 282 168 39 
120 9 232 220 13 42 241 9 72 205 188 
121 9 48 104 214 207 218 251 122 132 6 
122 5 132 169 218 48 246 
123 9 244 287 273 270 67 203 226 110 196 
124 9 18 204 154 63 179 152 209 16 159 
125 9 55 278 200 82 176 196 110 230 134 
126 9 242 22 77 84 5 254 80 88 160 
127 8 257 81 212 269 261 50 224 266 
128 9 252 90 249 265 262 24 240 184 227 
129 9 85 58 243 168 39 153 166 271 12 
130 9 217 150 62 271 210 185 58 166 85 
131 9 149 160 276 88 22 114 113 49 91 
132 5 122 169 246 218 48 
133 9 189 65 26 31 12 221 153 108 117 
134 9 187 82 258 61 233 146 125 55 278 
135 7 97 140 17 11 144 165 269 
136 9 288 185 147 210 222 271 94 108 26 
137 8 155 156 89 60 94 115 140 86 
138 9 213 277 53 259 183 106 238 91 223 
139 8 186 115 57 211 15 111 156 137 
140 8 97 144 135 155 66 137 31 156 
141 9 69 157 74 263 28 21 78 59 260 
142 9 275 198 174 9 241 245 190 13 116 
143 9 62 217 185 130 210 271 136 150 222 
144 8 140 97 66 31 135 147 155 137 
145 8 76 79 195 228 170 67 56 270 
146 9 233 187 7 134 61 117 278 125 82 
147 9 66 288 31 26 108 136 12 133 144 
148 9 255 272 3 167 223 248 53 178 238 
149 9 276 131 88 160 49 113 114 22 193 
150 4 130 166 217 62 
151 9 84 68 254 5 242 214 126 109 77 
152 9 179 162 204 209 124 154 35 188 18 
153 9 12 65 117 108 243 26 85 129 133 
154 9 209 16 35 124 103 248 18 204 152 
155 8 137 156 89 60 94 86 140 64 
156 9 137 155 89 60 86 115 94 186 139 
157 9 141 74 21 38 69 59 263 206 78 
158 9 236 54 237 239 247 225 172 101 83 
159 9 70 124 18 29 204 174 179 51 63 
160 9 131 88 22 276 149 126 242 113 254 
161 9 51 201 63 112 18 29 41 124 73 
162 9 152 179 204 188 9 209 35 124 154 
163 9 181 27 30 93 219 10 46 197 212 
164 7 206 71 173 59 38 74 157 
165 5 111 211 57 135 186 
166 6 150 39 58 129 130 168 
167 9 238 223 255 193 53 259 49 3 148 
168 9 39 129 243 182 85 99 119 166 58 
169 4 132 122 246 6 
170 6 56 79 218 195 228 145 
171 9 189 265 240 24 128 221 252 227 95 
172 9 83 45 226 158 225 239 237 236 54 
173 5 164 206 38 71 157 
174 9 198 9 70 142 275 159 190 245 179 
175 8 285 37 4 36 289 107 256 191 
176 7 200 230 278 125 55 110 67 
177 9 250 100 194 33 180 284 29 262 249 
178 9 103 248 3 272 16 154 53 209 35 
179 9 204 152 162 124 9 209 154 18 159 
180 9 194 102 250 284 177 266 262 100 43 
181 8 163 27 30 93 197 219 212 46 
182 4 280 119 39 99 
183 9 91 277 114 25 213 106 192 259 193 
184 9 47 227 274 240 247 252 258 54 128 
185 9 210 271 136 130 217 143 288 108 58 
186 8 139 115 57 211 15 111 156 137 
187 9 134 61 146 233 258 82 125 278 55 
188 9 205 72 42 162 35 152 209 179 204 
189 9 171 133 221 240 31 227 274 61 47 
190 9 245 116 44 70 87 286 23 275 174 
191 8 37 285 260 175 78 107 28 21 
192 9 40 25 183 91 106 114 277 96 213 
193 9 259 238 213 114 277 53 91 223 183 
194 9 180 250 177 100 33 262 284 90 102 
195 9 79 228 145 76 56 170 270 287 67 
196 9 110 203 55 82 125 278 225 200 230 
197 6 281 212 283 46 181 269 
198 9 174 9 142 275 70 159 179 13 190 
199 9 92 34 8 56 52 264 170 218 121 
200 7 176 278 125 230 55 82 110 
201 9 161 41 112 51 73 63 177 29 250 
202 8 75 284 219 102 224 118 50 266 
203 9 196 110 55 82 125 225 273 278 244 
204 9 179 152 124 162 18 209 154 159 35 
205 9 72 188 42 162 35 152 120 209 179 
206 7 164 71 173 59 74 38 157 
207 9 214 104 251 121 48 231 6 151 246 
208 9 267 234 106 112 73 41 25 83 138 
209 9 154 35 16 248 152 204 103 124 178 
210 9 271 185 130 136 58 108 217 85 288 
211 9 57 15 111 139 235 186 115 14 165 
212 8 127 81 269 257 197 93 261 30 
213 9 277 259 91 183 193 114 138 238 53 
214 9 207 104 121 251 48 151 231 6 84 
215 7 216 268 2 283 281 46 20 
216 7 215 268 283 281 2 46 20 
217 9 130 62 150 143 185 210 271 166 58 
218 6 122 48 170 132 121 56 
219 9 30 93 27 202 224 75 50 163 261 
220 9 232 241 13 120 9 42 142 198 162 
221 9 240 61 189 258 227 274 47 133 184 
222 9 64 86 94 60 89 136 288 155 156 
223 9 53 238 3 193 259 167 213 138 178 
224 9 50 266 261 102 257 219 284 93 30 
225 9 237 54 158 45 172 226 236 203 83 
226 9 45 172 83 225 244 158 234 237 203 
227 9 274 47 184 240 258 252 247 221 128 
228 9 195 79 76 145 270 56 170 287 67 
229 3 263 69 28 
230 7 176 200 278 67 125 55 110 
231 9 32 207 214 279 251 68 104 151 6 
232 9 220 120 241 13 9 42 162 142 198 
233 9 146 187 7 134 61 278 125 200 82 
234 9 267 208 106 83 25 45 172 226 192 
235 9 14 20 211 15 57 111 139 2 186 
236 9 158 54 237 247 239 101 225 172 184 
237 9 54 158 236 225 247 239 172 184 101 
238 9 223 53 193 259 213 167 3 277 114 
239 9 101 236 158 73 54 83 172 237 247 
240 9 227 274 47 184 221 252 258 128 171 
241 9 220 232 13 120 9 142 198 174 42 
242 9 126 84 77 22 254 5 80 151 160 
243 9 129 117 85 168 153 7 39 58 12 
244 9 123 273 287 270 226 45 203 110 196 
245 9 190 116 44 70 87 286 23 275 105 
246 6 6 169 132 251 122 104 
247 9 54 236 184 237 158 101 47 274 227 
248 9 178 103 272 16 35 3 209 154 53 
249 9 90 128 262 33 252 100 101 24 265 
250 9 177 100 194 33 180 262 249 90 284 
251 9 104 6 207 246 48 214 121 132 169 
252 9 128 184 227 240 47 274 249 90 247 
253 8 87 29 284 202 75 44 70 177 
254 9 84 242 126 151 22 5 77 160 8 
255 9 148 167 3 272 223 238 53 193 178 
256 4 289 107 36 4 
257 9 127 261 50 266 81 212 224 43 269 
258 9 274 47 61 227 134 187 221 240 184 
259 9 193 213 238 277 91 114 53 183 223 
260 7 28 78 69 141 263 229 21 
261 9 50 266 224 102 257 127 43 219 93 
262 9 90 249 24 128 265 33 194 180 100 
263 8 69 28 141 74 229 59 157 260 
264 9 34 52 92 8 199 96 56 287 270 
265 9 24 95 128 262 171 90 252 249 43 
266 9 50 261 224 102 257 284 43 127 180 
267 9 234 208 106 25 183 192 40 277 83 
268 7 216 283 215 281 46 2 197 
269 7 81 127 212 257 11 17 197 
270 9 287 123 273 228 244 67 195 76 79 
271 9 210 185 58 130 85 108 217 129 136 
272 9 3 248 178 148 103 35 223 53 16 
273 9 123 270 244 67 287 110 203 196 230 
274 9 47 227 184 240 258 252 247 221 128 
275 9 142 174 245 116 198 190 70 286 44 
276 9 149 88 131 160 113 49 22 19 126 
277 9 91 183 213 114 259 193 25 106 192 
278 7 200 125 176 55 230 82 110 
279 9 109 68 32 5 151 231 77 84 80 
280 5 119 182 99 229 59 
281 6 283 268 46 197 216 215 
282 6 99 119 7 233 280 146 
283 6 281 268 46 216 197 215 
284 8 102 202 266 180 224 50 253 261 
285 8 175 37 4 107 36 289 256 191 
286 9 105 116 23 98 44 118 245 190 87 
287 9 270 123 244 273 228 52 195 96 264 
288 9 136 147 94 66 222 185 108 210 26 
289 6 36 4 256 107 175 285 
DEPOT_SECTION
   1
   -1
EOF
