NAME :  X-n351-kX-w140-c9.cctp
COMMENT : 	Adapted by Maziero, Usberti and Cavellucci from the Uchoa, Pecin, Pessoa, Poggi, Subramanian, and Vidal (2013)
TYPE :  CCTP
DIMENSION :    349
EDGE_WEIGHT_TYPE : 	EUC_2D	
CAPACITY : 	436
VERTICES_WITHIN_COVERAGE :  9
VERTICES_WITH_DEMAND : 	140
NODE_COORD_SECTION
1 500 500
2 740 442
3 261 710
4 578 522
5 562 509
6 795 425
7 636 463
8 645 617
9 595 524
10 649 599
11 745 252
12 180 757
13 590 598
14 332 775
15 544 551
16 1000 444
17 581 521
18 240 609
19 700 468
20 735 579
21 403 569
22 352 905
23 733 352
24 289 705
25 598 249
26 565 570
27 711 336
28 816 497
29 769 411
30 409 651
31 231 742
32 575 555
33 567 477
34 693 537
35 521 534
36 457 414
37 826 450
38 638 617
39 245 744
40 235 859
41 233 821
42 863 455
43 739 480
44 311 717
45 567 373
46 753 427
47 547 493
48 732 382
49 664 511
50 945 316
51 250 770
52 598 493
53 262 653
54 568 558
55 877 808
56 395 796
57 467 732
58 685 327
59 260 910
60 571 648
61 747 398
62 571 650
63 541 442
64 841 466
65 744 725
66 662 349
67 686 543
68 184 776
69 177 770
70 664 559
71 802 446
72 110 559
73 662 566
74 605 544
75 287 671
76 556 738
77 615 511
78 293 693
79 375 671
80 383 614
81 834 417
82 704 397
83 255 696
84 708 388
85 799 172
86 298 531
87 740 456
88 661 582
89 664 398
90 659 461
91 630 290
92 267 721
93 682 474
94 269 639
95 577 361
96 540 550
97 370 733
98 546 587
99 708 412
100 724 572
101 416 688
102 544 794
103 714 478
104 916 502
105 313 770
106 464 361
107 356 921
108 776 470
109 477 721
110 733 447
111 724 495
112 272 792
113 491 471
114 348 505
115 168 309
116 595 628
117 227 720
118 781 585
119 228 680
120 807 595
121 582 503
122 327 603
123 505 586
124 235 788
125 135 677
126 716 440
127 221 678
128 633 421
129 826 476
130 879 350
131 738 475
132 676 446
133 388 669
134 465 690
135 543 422
136 675 544
137 770 613
138 309 590
139 434 594
140 647 551
141 468 405
142 0 863
143 663 582
144 209 755
145 966 516
146 580 593
147 221 558
148 230 594
149 329 768
150 786 523
151 636 512
152 704 474
153 819 376
154 516 472
155 724 505
156 565 501
157 404 589
158 663 527
159 901 693
160 254 640
161 726 813
162 253 708
163 269 730
164 823 519
165 586 689
166 739 421
167 706 519
168 726 423
169 614 525
170 239 690
171 643 328
172 793 426
173 221 731
174 290 732
175 709 310
176 654 492
177 745 370
178 459 639
179 618 570
180 613 528
181 808 359
182 652 434
183 258 637
184 722 421
185 837 321
186 68 544
187 191 686
188 535 578
189 242 624
190 371 387
191 835 757
192 671 445
193 764 425
194 771 480
195 242 763
196 670 520
197 580 482
198 292 823
199 547 443
200 807 780
201 520 622
202 555 484
203 747 340
204 228 846
205 760 446
206 734 451
207 604 277
208 790 405
209 680 445
210 741 460
211 244 758
212 632 536
213 600 503
214 562 518
215 672 398
216 620 425
217 852 489
218 577 553
219 235 755
220 879 359
221 187 725
222 724 328
223 775 451
224 283 660
225 195 572
226 830 457
227 205 739
228 733 341
229 884 418
230 434 452
231 716 458
232 495 573
233 579 545
234 228 725
235 604 417
236 420 730
237 626 499
238 555 449
239 326 598
240 551 554
241 177 983
242 794 430
243 771 573
244 135 683
245 487 291
246 239 703
247 789 477
248 273 752
249 521 478
250 677 456
251 505 327
252 453 744
253 321 753
254 509 497
255 749 451
256 633 815
257 796 429
258 341 677
259 797 485
260 571 649
261 276 631
262 857 439
263 587 776
264 750 412
265 752 393
266 338 657
267 206 651
268 170 716
269 831 441
270 104 694
271 809 569
272 591 407
273 605 549
274 201 625
275 300 676
276 548 478
277 637 450
278 706 463
279 788 583
280 611 574
281 176 761
282 404 508
283 798 573
284 614 415
285 257 707
286 780 394
287 729 472
288 547 462
289 379 817
290 539 556
291 498 909
292 275 706
293 726 426
294 269 637
295 780 439
296 724 478
297 832 405
298 229 700
299 223 692
300 512 428
301 623 445
302 763 481
303 817 463
304 755 418
305 655 522
306 720 471
307 286 645
308 320 745
309 111 606
310 289 737
311 636 260
312 184 680
313 679 590
314 256 618
315 200 671
316 264 677
317 326 681
318 102 640
319 229 729
320 553 266
321 519 526
322 692 552
323 709 509
324 547 655
325 794 421
326 189 728
327 565 676
328 326 462
329 687 334
330 298 705
331 582 478
332 737 579
333 458 895
334 663 391
335 394 639
336 352 782
337 621 303
338 268 629
339 440 831
340 748 593
341 400 547
342 268 721
343 226 646
344 578 616
345 648 377
346 446 574
347 502 571
348 574 593
349 459 466
DEMAND_SECTION
2 43
3 82
4 57
5 51
6 29
7 55
8 71
9 35
10 28
11 36
12 18
13 42
14 79
15 88
16 68
17 99
18 10
19 11
20 77
21 68
22 44
23 17
24 60
25 33
26 30
27 37
28 87
29 18
30 6
31 42
32 1
33 22
34 78
35 94
36 65
37 88
38 28
39 29
40 34
41 87
42 47
43 53
44 44
45 34
46 94
47 70
48 41
49 28
50 80
51 32
52 20
53 16
54 70
55 22
56 96
57 81
58 23
59 46
60 2
61 56
62 45
63 66
64 7
65 64
66 73
67 51
68 64
69 81
70 86
71 52
72 76
73 26
74 30
75 3
76 95
77 75
78 85
79 50
80 41
81 1
82 42
83 1
84 47
85 34
86 13
87 1
88 31
89 56
90 63
91 39
92 87
93 8
94 67
95 66
96 11
97 38
98 94
99 57
100 43
101 56
102 18
103 77
104 39
105 30
106 42
107 90
108 62
109 95
110 66
111 84
112 9
113 96
114 63
115 19
116 51
117 50
118 89
119 9
120 6
121 34
122 15
123 20
124 33
125 3
126 87
127 96
128 53
129 24
130 7
131 13
132 94
133 44
134 40
135 56
136 62
137 78
138 50
139 16
140 35
141 21
COVERAGE_SECTION
2 9 110 206 255 87 210 46 205 166 293 
3 9 285 162 92 342 83 292 163 246 24 
4 9 17 214 9 121 5 233 156 213 218 
5 9 156 214 4 121 17 47 202 33 197 
6 9 172 257 325 242 208 295 71 29 193 
7 9 277 301 90 182 176 237 192 216 128 
8 9 38 10 88 143 313 116 73 179 280 
9 9 17 4 180 169 74 213 77 121 233 
10 9 8 38 88 143 313 73 179 70 280 
11 9 175 222 203 228 27 58 85 329 23 
12 9 281 69 68 144 326 227 221 268 173 
13 9 146 348 344 116 280 26 179 98 32 
14 9 149 105 336 253 308 97 310 174 44 
15 9 96 290 240 54 26 188 35 32 218 
16 9 145 104 229 42 50 262 220 130 217 
17 9 4 9 121 214 5 233 156 213 218 
18 9 189 148 314 183 160 338 294 343 94 
19 9 152 278 103 93 231 306 250 296 287 
20 9 332 100 340 243 118 137 322 279 313 
21 9 157 341 139 346 80 282 335 30 239 
22 9 107 59 289 198 333 339 56 336 40 
23 9 228 203 177 222 27 48 84 265 61 
24 9 330 78 292 44 342 92 174 3 275 
25 9 207 311 320 91 337 171 95 58 66 
26 9 54 32 218 240 98 348 146 15 233 
27 9 222 228 329 175 23 58 203 177 48 
28 9 259 129 164 247 303 217 64 150 226 
29 9 193 304 264 286 208 46 265 61 325 
30 9 335 133 101 79 80 178 139 157 134 
31 9 319 39 219 173 234 211 117 195 144 
32 9 218 54 233 26 240 15 273 74 4 
33 9 197 202 331 276 156 288 47 121 238 
34 9 67 322 136 167 196 158 323 70 49 
35 9 321 96 290 15 240 254 347 214 188 
36 9 141 230 349 106 300 113 154 135 63 
37 9 226 269 303 64 71 129 262 81 42 
38 9 8 10 88 143 116 313 179 280 13 
39 9 31 211 219 195 319 234 51 173 163 
40 9 204 41 59 198 124 112 51 195 68 
41 9 204 124 40 112 51 195 198 211 219 
42 9 262 64 226 269 217 37 129 229 303 
43 9 131 287 296 210 111 306 87 302 103 
44 9 330 24 174 308 78 310 253 292 317 
45 9 95 272 135 235 284 199 63 216 238 
46 9 304 193 166 264 2 205 29 255 168 
47 9 202 276 156 5 33 214 249 288 197 
48 9 177 61 265 84 23 82 264 99 166 
49 9 196 305 158 176 151 136 34 67 237 
50 8 130 220 185 229 16 153 181 297 
51 9 195 211 219 124 39 248 112 31 144 
52 9 213 121 197 331 77 237 9 17 156 
53 9 160 94 183 294 224 316 307 338 261 
54 9 32 218 26 233 240 15 96 290 98 
55 9 191 200 159 161 65 137 120 279 118 
56 9 289 336 339 14 97 236 149 252 105 
57 9 109 252 134 236 101 76 178 56 97 
58 9 329 27 175 66 222 171 228 23 345 
59 9 40 204 22 41 198 107 241 112 124 
60 9 260 62 324 327 116 344 165 13 348 
61 9 265 264 48 304 166 29 177 46 193 
62 9 260 60 324 327 116 344 165 13 348 
63 9 199 238 135 288 300 276 154 249 33 
64 9 226 129 37 303 42 217 269 262 28 
65 9 200 161 191 137 340 256 120 118 20 
66 9 171 329 345 58 334 89 215 27 84 
67 9 34 136 322 70 158 196 167 73 305 
68 9 69 281 12 144 227 326 221 124 219 
69 9 68 281 12 144 227 326 221 268 173 
70 9 73 136 140 88 143 67 322 158 313 
71 9 242 257 6 172 295 303 37 325 223 
72 9 186 309 318 225 147 274 125 148 244 
73 9 70 88 143 140 136 313 67 322 10 
74 9 273 180 169 9 233 212 179 218 280 
75 9 224 275 78 316 307 53 24 330 94 
76 9 263 102 165 327 109 324 57 62 260 
77 9 169 237 180 213 151 9 52 212 74 
78 9 24 330 275 292 75 44 316 224 317 
79 9 133 258 335 30 266 101 317 80 97 
80 9 335 157 30 21 133 139 122 79 239 
81 9 297 269 262 37 6 226 257 325 172 
82 9 84 99 184 48 215 168 293 89 334 
83 9 285 162 3 170 246 316 292 298 92 
84 9 82 99 48 184 215 168 61 177 293 
85 7 11 185 175 222 203 228 311 
86 9 114 138 239 328 122 147 148 18 314 
87 9 210 206 255 110 2 131 287 205 43 
88 9 143 73 313 10 70 140 8 136 38 
89 9 334 215 345 182 128 82 84 99 192 
90 9 250 192 7 132 277 93 209 182 176 
91 9 337 207 311 171 25 58 66 329 175 
92 9 342 163 3 285 292 162 174 24 310 
93 9 19 250 152 90 278 132 209 192 103 
94 9 294 338 183 261 160 53 307 224 314 
95 9 45 272 235 284 135 337 345 171 216 
96 9 15 290 240 35 188 54 26 321 32 
97 9 236 308 336 253 149 14 44 79 258 
98 9 188 26 348 290 240 146 15 54 96 
99 9 82 184 168 293 84 126 166 48 215 
100 9 20 332 340 322 34 243 67 313 136 
101 9 133 30 236 79 134 335 97 178 57 
102 9 263 76 256 57 109 252 339 165 327 
103 9 306 296 152 287 19 278 111 231 131 
104 9 145 217 42 64 262 229 129 164 226 
105 9 149 253 14 308 310 336 174 248 112 
106 9 141 36 251 245 300 230 190 135 45 
107 9 22 59 333 289 198 339 56 40 336 
108 9 194 247 302 223 259 205 295 255 71 
109 9 57 134 252 236 101 76 178 324 30 
110 9 206 2 87 210 255 126 231 293 168 
111 9 155 296 103 43 323 131 287 306 152 
112 9 51 124 198 248 195 211 105 41 219 
113 9 154 249 254 349 300 276 288 63 47 
114 9 328 86 282 341 21 138 239 122 157 
115 9 190 328 147 186 72 86 225 114 148 
116 9 344 13 60 260 62 146 348 38 8 
117 9 234 319 173 298 246 31 299 162 227 
118 9 279 243 283 120 137 271 340 332 20 
119 9 127 299 170 298 246 315 83 343 267 
120 9 279 283 271 118 137 243 340 332 20 
121 9 156 17 213 4 52 5 197 9 214 
122 9 239 138 266 80 261 307 338 294 94 
123 9 347 232 188 201 98 290 96 15 35 
124 9 51 195 211 41 219 112 144 39 31 
125 9 244 270 312 318 268 187 315 221 326 
126 9 293 110 231 168 184 206 2 278 87 
127 9 119 299 170 315 298 187 246 267 343 
128 9 216 284 182 301 235 277 89 7 334 
129 9 303 64 226 28 37 217 259 269 247 
130 8 220 185 153 229 181 297 50 81 
131 9 43 287 296 210 306 87 103 111 206 
132 9 209 192 250 90 182 93 19 278 277 
133 9 79 30 335 101 258 266 80 317 97 
134 9 109 57 101 178 252 236 30 133 201 
135 9 63 199 238 300 288 272 45 276 154 
136 9 67 34 70 322 158 196 73 140 305 
137 9 118 340 279 243 120 332 20 283 271 
138 9 239 122 261 338 86 307 314 294 94 
139 9 346 157 21 178 80 341 335 30 232 
140 9 70 73 212 136 158 305 88 143 179 
141 9 36 106 300 230 349 113 135 63 154 
142 9 270 69 281 68 12 241 244 268 204 
143 9 88 73 313 10 70 140 8 136 322 
144 9 227 31 219 173 12 68 319 195 281 
145 9 104 16 217 42 229 262 64 164 129 
146 9 348 13 344 26 98 280 54 32 116 
147 9 225 148 18 189 314 274 86 338 183 
148 9 18 189 314 147 225 274 183 160 338 
149 9 14 105 253 308 336 310 174 44 97 
150 9 164 28 259 194 247 302 271 283 243 
151 9 237 77 305 212 169 176 49 180 158 
152 9 19 103 278 306 231 296 93 287 111 
153 7 181 297 208 286 81 325 6 
154 9 249 113 254 276 288 47 63 202 199 
155 9 111 323 167 296 43 103 131 287 306 
156 9 5 121 214 47 202 33 197 4 17 
157 9 21 139 80 341 346 335 30 178 122 
158 9 305 196 49 136 67 140 151 34 70 
159 9 191 55 200 120 137 271 279 283 65 
160 9 183 53 94 294 338 189 314 261 343 
161 9 200 65 256 191 263 55 102 76 165 
162 9 285 3 83 246 92 342 292 170 298 
163 9 92 342 174 310 3 248 292 285 162 
164 9 28 150 217 129 259 271 247 64 303 
165 9 327 62 260 60 324 76 116 344 263 
166 9 168 264 293 46 304 184 2 61 193 
167 9 323 34 155 111 67 196 322 136 103 
168 9 293 184 166 126 99 2 110 264 46 
169 9 180 77 9 74 212 151 213 273 237 
170 9 246 298 119 299 83 127 162 285 316 
171 9 66 337 91 58 329 345 207 334 27 
172 9 6 242 257 325 295 208 71 29 193 
173 9 319 234 117 31 227 39 144 219 298 
174 9 310 163 92 342 44 248 24 330 292 
175 9 222 27 58 329 228 23 203 66 11 
176 9 49 151 237 305 90 196 93 7 158 
177 9 48 23 265 61 203 228 84 264 286 
178 9 30 134 139 201 101 335 346 123 157 
179 9 280 273 74 140 212 13 10 180 73 
180 9 169 77 9 74 212 273 151 213 237 
181 7 153 286 185 208 297 81 177 
182 9 192 277 128 132 90 209 301 7 216 
183 9 160 94 294 338 53 261 314 189 307 
184 9 168 293 99 166 126 2 110 264 82 
185 7 181 130 220 153 297 203 286 
186 9 72 309 318 225 125 147 244 270 274 
187 9 312 315 127 299 119 268 267 221 298 
188 9 98 290 15 96 240 26 123 347 54 
189 9 18 314 160 183 338 343 294 94 148 
190 9 328 36 230 106 141 349 114 282 113 
191 9 200 55 159 65 161 137 120 118 279 
192 9 132 209 250 90 182 93 277 19 7 
193 9 46 304 29 264 205 295 166 223 2 
194 9 302 108 247 259 223 43 131 205 210 
195 9 211 51 219 39 31 124 248 144 319 
196 9 158 49 305 136 67 34 176 151 167 
197 9 331 33 52 121 156 202 213 5 276 
198 9 112 105 41 14 149 40 124 51 204 
199 9 63 238 288 135 276 300 33 154 202 
200 9 191 55 65 161 159 137 256 120 340 
201 9 123 324 98 188 347 232 60 62 260 
202 9 276 47 33 156 288 197 5 331 121 
203 8 228 23 222 177 27 48 175 265 
204 9 40 41 124 198 112 59 51 68 195 
205 9 255 223 2 46 193 295 87 210 206 
206 9 110 87 2 210 255 231 126 287 131 
207 9 25 91 337 311 320 171 95 66 58 
208 9 286 325 6 172 29 242 257 193 295 
209 9 132 192 250 90 93 19 182 278 126 
210 9 87 206 255 110 131 287 2 43 205 
211 9 195 219 51 39 31 248 124 319 144 
212 9 140 169 180 151 305 74 77 273 158 
213 9 52 77 121 9 17 169 237 180 4 
214 9 5 4 156 17 121 47 233 9 202 
215 9 89 334 82 345 84 99 182 128 192 
216 9 284 128 235 301 277 182 272 7 89 
217 9 64 129 42 28 226 164 303 37 262 
218 9 32 233 54 26 240 273 74 4 17 
219 9 211 195 31 39 51 144 319 173 234 
220 8 130 185 229 153 297 181 81 50 
221 9 326 268 227 12 173 144 281 187 117 
222 9 27 228 175 23 203 329 58 177 48 
223 9 295 205 108 255 71 193 242 194 247 
224 9 75 307 53 275 94 316 294 261 78 
225 9 147 148 274 18 189 314 267 343 72 
226 9 37 64 303 269 129 71 262 42 217 
227 9 144 173 326 221 31 319 234 117 12 
228 9 23 203 222 27 177 175 48 329 58 
229 9 262 42 81 297 269 220 64 37 226 
230 9 349 36 141 113 282 300 154 254 190 
231 9 278 306 126 19 206 287 103 110 152 
232 9 347 123 188 35 290 346 96 98 321 
233 9 218 32 54 4 17 9 74 273 26 
234 9 319 117 173 31 39 246 298 227 162 
235 9 284 272 216 128 301 277 182 7 45 
236 9 252 101 57 97 109 134 133 56 79 
237 9 77 151 213 52 169 176 180 7 212 
238 9 199 288 63 33 135 276 202 331 197 
239 9 122 138 80 261 266 307 338 294 94 
240 9 15 96 290 54 26 32 218 188 233 
241 9 59 40 204 41 107 22 198 124 68 
242 9 257 172 6 325 295 71 208 223 193 
243 9 118 279 283 340 332 20 271 137 120 
244 9 125 270 268 312 318 187 315 221 326 
245 9 251 320 106 95 45 141 207 25 36 
246 9 298 170 162 83 285 299 117 3 119 
247 9 259 108 194 302 223 303 28 71 129 
248 9 163 310 174 39 51 211 342 92 195 
249 9 154 254 276 47 113 288 202 63 199 
250 9 132 209 192 90 93 19 278 152 182 
251 9 245 106 45 320 95 141 36 300 135 
252 9 57 109 236 134 101 56 97 339 133 
253 9 308 149 105 14 310 44 174 336 248 
254 9 249 154 321 113 47 35 276 202 288 
255 9 87 205 210 2 206 110 46 131 223 
256 9 263 102 161 76 165 65 327 291 62 
257 9 242 6 172 325 71 295 208 223 29 
258 9 317 266 79 275 133 44 78 330 75 
259 9 247 28 108 194 129 303 302 71 150 
260 9 60 62 324 327 116 344 165 13 348 
261 9 338 294 94 307 183 160 314 53 224 
262 9 42 269 64 81 226 37 229 297 303 
263 9 102 76 256 165 327 109 62 324 57 
264 9 304 61 166 46 29 193 265 168 293 
265 9 61 264 48 177 29 304 286 166 46 
266 9 258 317 79 275 133 75 307 122 224 
267 9 315 343 274 127 119 312 187 299 189 
268 9 221 326 187 312 12 227 281 244 125 
269 9 37 226 81 262 303 64 71 42 129 
270 9 244 125 318 268 312 187 309 221 326 
271 9 283 279 120 118 243 150 164 137 340 
272 9 235 284 216 45 128 95 135 301 238 
273 9 74 180 179 169 233 280 9 218 212 
274 9 267 343 189 18 148 315 225 160 314 
275 9 75 78 224 317 330 24 307 316 292 
276 9 202 47 288 33 249 156 238 197 154 
277 9 7 301 182 90 128 216 192 132 250 
278 9 19 152 231 306 103 296 126 287 93 
279 9 118 283 243 120 271 137 340 332 20 
280 9 179 273 74 13 146 218 32 348 140 
281 9 12 69 68 144 326 227 221 268 173 
282 9 341 114 21 230 349 346 157 139 328 
283 9 271 279 118 120 243 137 150 340 164 
284 9 235 216 128 272 301 182 277 345 7 
285 9 162 3 83 92 246 292 342 170 163 
286 9 208 29 265 325 61 6 172 193 264 
287 9 296 131 306 43 103 210 87 231 206 
288 9 238 276 199 63 202 33 47 249 154 
289 9 56 336 14 339 149 105 97 253 198 
290 9 96 15 240 188 35 54 26 98 32 
291 9 333 339 102 107 22 289 56 263 256 
292 9 24 3 92 342 285 78 83 162 330 
293 9 168 184 166 126 2 110 99 206 46 
294 9 94 338 261 183 160 53 307 314 224 
295 9 223 242 172 257 6 193 205 71 325 
296 9 287 306 103 131 43 111 152 231 278 
297 9 81 153 269 325 6 208 262 257 172 
298 9 246 299 170 117 119 127 162 234 83 
299 9 298 119 127 170 246 117 315 83 187 
300 9 63 135 199 154 113 238 288 141 249 
301 9 277 216 7 128 182 284 235 90 192 
302 9 194 108 43 131 247 210 223 255 87 
303 9 226 37 129 71 64 269 259 247 28 
304 9 264 46 193 29 166 61 265 2 205 
305 9 158 49 196 151 212 136 140 176 67 
306 9 296 103 287 231 152 278 131 19 43 
307 9 224 261 94 294 338 53 75 183 160 
308 9 253 149 105 44 14 310 174 330 248 
309 9 318 72 125 186 244 270 225 274 312 
310 9 174 163 248 342 92 44 24 308 330 
311 9 91 207 25 337 171 58 320 175 329 
312 9 187 315 267 127 268 299 119 221 326 
313 9 143 88 73 10 70 322 8 136 67 
314 9 189 338 18 183 160 294 261 94 148 
315 9 187 312 267 127 119 299 343 298 170 
316 9 83 53 75 224 170 285 292 3 78 
317 9 258 275 266 78 330 44 75 24 224 
318 9 309 125 244 270 72 312 187 274 186 
319 9 234 173 117 31 39 227 219 246 298 
320 9 25 207 245 337 251 91 311 95 45 
321 9 35 254 96 15 290 47 240 214 5 
322 9 67 34 136 70 73 167 100 158 196 
323 9 167 155 111 103 34 296 152 306 67 
324 9 60 62 260 327 201 344 165 116 98 
325 9 6 172 257 242 208 295 71 29 193 
326 9 221 227 268 12 173 144 281 117 234 
327 9 165 62 260 324 60 116 344 76 201 
328 9 114 86 190 282 230 341 138 21 349 
329 9 58 27 66 175 222 171 228 23 84 
330 9 24 78 44 292 174 275 310 342 92 
331 9 197 33 52 121 202 156 213 276 5 
332 9 20 100 340 243 118 137 279 322 313 
333 9 291 339 107 22 289 56 102 252 336 
334 9 89 215 345 82 66 128 182 84 99 
335 9 30 80 133 79 157 101 266 139 178 
336 9 14 149 105 253 289 56 308 97 198 
337 9 91 207 171 311 25 66 58 95 329 
338 9 261 294 94 183 314 160 307 53 189 
339 9 56 289 333 252 291 336 57 236 102 
340 9 332 20 137 243 100 118 279 283 120 
341 9 21 282 157 346 139 114 80 239 122 
342 9 92 163 3 292 285 162 174 24 310 
343 9 267 189 160 127 183 274 119 315 53 
344 9 116 13 146 348 60 260 62 98 26 
345 9 334 89 66 215 128 171 284 216 182 
346 9 139 21 157 232 341 347 123 178 80 
347 9 232 123 188 290 35 96 15 98 321 
348 9 146 13 344 26 98 54 32 218 116 
349 9 230 113 36 154 254 141 249 300 282 
DEPOT_SECTION
   1
   -1
EOF
