NAME :  X-n331-kX-w66-c7.cctp
COMMENT : 	Adapted by Maziero, Usberti and Cavellucci from the Uchoa, Pecin, Pessoa, Poggi, Subramanian, and Vidal (2013)
TYPE :  CCTP
DIMENSION :    278
EDGE_WEIGHT_TYPE : 	EUC_2D	
CAPACITY : 	23
VERTICES_WITHIN_COVERAGE :  7
VERTICES_WITH_DEMAND : 	66
NODE_COORD_SECTION
1 0 0
2 2 857
3 407 102
4 915 965
5 797 45
6 997 241
7 650 683
8 748 248
9 99 174
10 2 545
11 277 689
12 568 771
13 76 105
14 117 973
15 171 971
16 327 183
17 277 697
18 269 246
19 670 18
20 51 901
21 951 696
22 710 102
23 61 465
24 348 606
25 551 243
26 524 793
27 89 582
28 900 748
29 235 368
30 122 587
31 449 781
32 970 38
33 362 490
34 742 267
35 289 115
36 898 957
37 996 922
38 951 633
39 713 779
40 603 247
41 402 363
42 143 0
43 274 608
44 81 422
45 550 408
46 43 699
47 482 575
48 909 254
49 613 37
50 202 575
51 297 297
52 736 288
53 464 127
54 499 491
55 635 531
56 796 328
57 184 941
58 641 824
59 863 673
60 396 950
61 555 631
62 664 966
63 301 260
64 425 990
65 559 746
66 431 827
67 724 472
68 847 51
69 888 721
70 136 331
71 859 627
72 206 5
73 429 381
74 886 684
75 123 488
76 779 445
77 764 43
78 938 743
79 800 398
80 734 20
81 211 678
82 601 545
83 512 403
84 796 106
85 644 810
86 416 973
87 115 435
88 667 91
89 395 941
90 374 546
91 546 191
92 754 255
93 124 588
94 423 929
95 314 637
96 668 268
97 321 786
98 11 499
99 721 692
100 337 475
101 429 478
102 214 547
103 361 166
104 944 218
105 12 468
106 527 255
107 892 896
108 545 806
109 832 12
110 628 495
111 194 884
112 395 309
113 655 39
114 247 947
115 36 394
116 599 724
117 83 489
118 754 703
119 65 35
120 889 230
121 938 307
122 662 394
123 248 220
124 642 549
125 747 86
126 201 643
127 400 574
128 653 798
129 653 904
130 643 138
131 500 726
132 585 586
133 285 769
134 336 912
135 454 207
136 239 951
137 335 815
138 911 708
139 2 239
140 602 984
141 372 799
142 816 435
143 617 639
144 479 831
145 397 20
146 618 113
147 702 902
148 838 111
149 215 154
150 581 757
151 294 174
152 350 909
153 335 941
154 920 675
155 493 469
156 187 284
157 678 127
158 316 319
159 188 134
160 73 608
161 884 613
162 193 831
163 717 851
164 508 52
165 705 769
166 983 312
167 847 359
168 415 658
169 520 413
170 913 564
171 90 256
172 960 936
173 693 559
174 300 456
175 376 144
176 192 177
177 88 626
178 540 206
179 474 559
180 241 949
181 583 602
182 215 48
183 460 683
184 81 368
185 998 835
186 585 234
187 522 137
188 294 501
189 788 392
190 621 498
191 116 698
192 81 236
193 788 277
194 678 560
195 351 354
196 617 486
197 218 189
198 213 23
199 884 616
200 923 177
201 479 307
202 285 153
203 584 878
204 176 928
205 907 171
206 7 792
207 22 787
208 649 933
209 885 309
210 131 560
211 22 81
212 502 640
213 462 970
214 465 114
215 192 569
216 547 473
217 557 408
218 480 579
219 775 395
220 845 753
221 701 529
222 962 95
223 31 68
224 627 629
225 524 322
226 109 935
227 478 480
228 511 488
229 487 121
230 453 440
231 470 598
232 1 111
233 756 89
234 647 753
235 637 397
236 72 370
237 999 268
238 471 517
239 350 131
240 381 534
241 310 467
242 973 212
243 429 565
244 186 426
245 779 143
246 452 1
247 866 928
248 214 623
249 532 586
250 513 152
251 915 772
252 204 585
253 343 558
254 877 720
255 730 272
256 364 617
257 210 569
258 514 296
259 33 761
260 202 695
261 706 395
262 597 866
263 376 83
264 679 434
265 483 578
266 639 101
267 528 192
268 660 561
269 888 7
270 79 750
271 710 665
272 62 737
273 207 501
274 952 915
275 14 440
276 693 370
277 485 885
278 890 951
DEMAND_SECTION
2 1
3 1
4 1
5 1
6 1
7 1
8 1
9 1
10 1
11 1
12 1
13 1
14 1
15 1
16 1
17 1
18 1
19 1
20 1
21 1
22 1
23 1
24 1
25 1
26 1
27 1
28 1
29 1
30 1
31 1
32 1
33 1
34 1
35 1
36 1
37 1
38 1
39 1
40 1
41 1
42 1
43 1
44 1
45 1
46 1
47 1
48 1
49 1
50 1
51 1
52 1
53 1
54 1
55 1
56 1
57 1
58 1
59 1
60 1
61 1
62 1
63 1
64 1
65 1
66 1
67 1
COVERAGE_SECTION
2 7 206 20 207 259 226 270 272 
3 7 263 175 214 53 239 103 229 
4 7 36 278 172 247 274 107 37 
5 7 77 109 68 233 84 125 80 
6 6 237 242 104 166 48 121 
7 7 143 224 271 116 234 99 150 
8 7 92 34 255 52 193 96 56 
9 7 192 13 171 176 159 139 232 
10 7 98 105 27 160 117 23 275 
11 7 17 95 81 260 133 43 126 
12 7 150 65 108 26 116 234 131 
13 7 223 211 119 9 232 159 42 
14 7 226 15 57 204 20 111 136 
15 7 57 204 14 136 226 180 114 
16 7 151 103 202 239 175 35 63 
17 7 11 81 95 133 260 43 126 
18 7 123 63 51 151 197 16 158 
19 7 113 49 80 88 266 22 77 
20 6 2 226 14 206 207 204 
21 7 154 138 78 38 74 69 28 
22 7 125 157 88 233 266 130 77 
23 7 117 44 105 275 98 87 75 
24 7 256 95 253 127 90 43 240 
25 7 106 186 178 40 91 267 258 
26 7 108 12 65 144 150 131 31 
27 7 160 30 93 177 210 117 10 
28 7 251 69 254 78 138 220 74 
29 7 244 51 158 156 70 174 195 
30 7 93 210 27 177 160 215 50 
31 7 66 144 131 26 141 108 183 
32 7 222 269 68 109 200 205 148 
33 7 100 240 90 241 101 188 174 
34 7 255 92 8 52 193 96 56 
35 7 202 151 239 16 149 103 175 
36 6 278 4 247 107 172 274 
37 6 172 274 185 4 36 107 
38 7 154 21 199 161 170 74 138 
39 6 165 128 234 163 85 58 
40 6 186 25 96 178 106 91 
41 7 73 195 112 230 201 158 83 
42 7 72 198 119 182 13 223 159 
43 7 95 248 24 252 257 50 11 
44 7 87 23 115 236 184 117 275 
45 7 217 169 83 216 155 235 228 
46 7 272 270 259 191 177 207 160 
47 7 265 218 179 231 249 243 238 
48 6 120 104 121 209 242 200 
49 7 113 19 266 88 146 130 164 
50 7 252 257 215 102 248 126 210 
51 7 158 63 18 195 123 29 112 
52 7 255 34 92 8 193 96 56 
53 6 214 229 250 187 3 135 
54 7 228 155 227 238 216 230 101 
55 7 124 190 82 110 268 196 194 
56 7 193 167 189 79 219 52 34 
57 7 204 15 136 111 180 114 14 
58 7 85 128 262 234 203 129 163 
59 7 74 71 254 69 154 138 199 
60 7 89 86 94 64 152 153 213 
61 7 181 249 132 212 143 224 265 
62 5 208 129 140 147 203 
63 7 18 51 158 123 16 151 112 
64 7 86 213 60 89 94 153 152 
65 7 150 12 116 26 108 131 234 
66 7 144 31 141 277 137 26 94 
67 7 264 76 221 261 173 219 110 
68 7 109 5 269 148 84 77 233 
69 7 254 138 28 74 59 220 78 
70 7 184 156 236 171 29 44 87 
71 5 199 161 59 74 154 
72 7 198 182 42 159 35 119 149 
73 7 41 230 112 195 83 201 169 
74 7 59 138 154 69 254 71 21 
75 5 117 87 23 210 44 
76 6 142 219 79 189 67 261 
77 7 5 80 125 233 84 109 22 
78 7 251 28 138 21 69 254 154 
79 6 189 219 142 76 167 56 
80 7 77 19 125 5 233 113 22 
81 5 260 126 248 11 17 
82 7 55 124 132 190 110 181 196 
83 7 169 45 217 155 230 216 225 
84 7 245 148 233 125 5 77 68 
85 7 58 128 234 165 262 39 150 
86 7 64 60 89 94 213 153 152 
87 6 44 75 23 117 244 184 
88 7 266 157 22 113 130 146 19 
89 7 60 94 86 152 64 153 134 
90 7 240 253 127 33 243 24 256 
91 5 178 267 250 25 186 
92 7 8 34 255 52 193 56 96 
93 7 30 210 27 177 160 215 50 
94 7 89 60 86 213 64 152 277 
95 7 24 43 256 11 17 253 248 
96 7 255 40 52 34 8 92 186 
97 6 137 133 141 17 11 66 
98 7 105 10 275 23 117 44 115 
99 4 271 118 7 165 
100 6 241 33 174 188 240 90 
101 7 230 227 238 155 33 54 240 
102 5 257 50 215 252 273 
103 7 175 239 16 151 202 3 263 
104 7 242 200 48 120 6 205 237 
105 7 275 98 23 117 10 115 44 
106 7 25 258 178 186 267 91 225 
107 4 247 278 36 274 
108 7 26 12 150 65 144 262 203 
109 7 68 5 269 77 80 148 84 
110 7 190 196 55 124 82 268 264 
111 6 204 162 57 180 136 114 
112 7 41 195 73 158 201 51 63 
113 7 19 49 88 266 80 146 22 
114 6 180 136 57 204 15 111 
115 7 236 275 184 44 23 105 87 
116 7 150 65 12 234 7 143 128 
117 6 23 75 87 44 98 105 
118 4 99 271 165 39 
119 7 223 211 13 42 232 9 72 
120 7 48 104 205 200 209 242 121 
121 3 166 209 48 
122 7 235 276 264 261 67 196 217 
123 7 18 197 151 63 176 149 202 
124 7 55 268 194 82 173 190 110 
125 7 233 22 77 84 5 245 80 
126 5 248 81 260 252 50 
127 7 243 90 240 256 253 24 231 
128 7 85 58 234 165 39 150 163 
129 6 208 147 62 262 203 58 
130 6 146 157 266 88 22 113 
131 7 183 65 26 31 12 212 150 
132 7 181 82 249 61 224 143 124 
133 5 97 137 17 11 141 
134 7 152 153 89 60 94 114 137 
135 6 267 53 250 178 106 229 
136 6 180 114 57 204 15 111 
137 6 97 141 133 152 66 134 
138 7 69 154 74 254 28 21 78 
139 6 192 171 9 232 236 184 
140 5 62 208 129 203 262 
141 7 137 97 66 31 133 144 152 
142 6 76 79 189 219 167 67 
143 7 224 181 7 132 61 116 268 
144 6 66 277 31 26 108 12 
145 7 246 263 3 164 214 239 53 
146 6 266 130 88 157 49 113 
147 4 129 163 208 62 
148 7 84 68 245 5 233 205 125 
149 7 176 159 197 202 123 151 35 
150 7 12 65 116 108 234 26 85 
151 7 202 16 35 123 103 239 18 
152 7 134 153 89 60 94 86 137 
153 7 134 152 89 60 86 114 94 
154 7 138 74 21 38 69 59 254 
155 7 227 54 228 230 238 216 169 
156 7 70 123 18 29 197 171 176 
157 7 130 88 22 266 146 125 233 
158 7 51 195 63 112 18 29 41 
159 7 149 176 197 182 9 202 35 
160 7 177 27 30 93 210 10 46 
161 6 199 71 170 59 38 74 
162 3 111 204 57 
163 5 147 39 58 128 129 
164 7 229 214 246 187 53 250 49 
165 6 39 128 234 85 99 118 
166 3 121 237 6 
167 5 56 79 209 189 219 
168 7 183 256 231 24 127 212 243 
169 7 83 45 217 155 216 230 228 
170 4 161 199 38 71 
171 6 192 9 70 139 156 184 
172 6 274 37 4 36 278 107 
173 5 194 221 268 124 55 
174 6 241 100 188 33 273 29 
175 7 103 239 3 263 16 151 53 
176 7 197 149 159 123 9 202 151 
177 6 160 27 30 93 191 210 
178 5 91 267 25 106 186 
179 7 47 218 265 231 238 243 249 
180 6 136 114 57 204 15 111 
181 7 132 61 143 224 249 82 124 
182 7 198 72 42 159 35 149 202 
183 7 168 131 212 231 31 218 265 
184 7 236 115 44 70 87 275 23 
185 6 37 274 251 172 78 107 
186 6 40 25 178 91 106 267 
187 5 250 229 267 53 91 
188 6 241 174 100 33 253 273 
189 7 79 219 142 76 56 167 261 
190 7 110 196 55 82 124 268 216 
191 4 270 272 46 177 
192 6 171 9 139 70 156 176 
193 7 92 34 8 56 52 255 167 
194 5 173 268 124 221 55 
195 7 158 41 112 51 73 63 174 
196 7 190 110 55 82 124 216 264 
197 7 176 149 123 159 18 202 151 
198 7 72 182 42 159 35 149 119 
199 7 161 71 170 59 74 38 154 
200 7 205 104 242 120 48 222 6 
201 7 258 225 106 112 73 41 25 
202 7 151 35 16 239 149 197 103 
203 5 262 129 58 108 208 
204 7 57 15 111 136 226 180 114 
205 7 200 104 120 242 48 148 222 
206 7 207 259 2 272 270 46 20 
207 6 206 259 272 270 2 46 
208 6 129 62 147 140 203 262 
209 4 121 48 167 120 
210 6 30 93 27 215 75 50 
211 7 223 232 13 119 9 42 139 
212 7 231 61 183 249 218 265 47 
213 6 64 86 94 60 89 277 
214 6 53 229 3 187 250 164 
215 7 50 257 252 102 248 210 273 
216 7 228 54 155 45 169 217 227 
217 7 45 169 83 216 235 155 225 
218 7 265 47 179 231 249 243 238 
219 7 189 79 76 142 261 56 167 
220 3 254 69 28 
221 5 173 194 268 67 124 
222 7 32 200 205 269 242 68 104 
223 7 211 119 232 13 9 42 159 
224 7 143 181 7 132 61 268 124 
225 7 258 201 106 83 25 45 169 
226 7 14 20 204 15 57 111 136 
227 7 155 54 228 238 230 101 216 
228 7 54 155 227 216 238 230 169 
229 6 214 53 187 250 164 3 
230 7 101 227 155 73 54 83 169 
231 7 218 265 47 179 212 243 249 
232 7 211 223 13 119 9 139 192 
233 7 125 84 77 22 245 5 80 
234 7 128 116 85 165 150 7 39 
235 7 122 264 276 261 217 45 196 
236 7 184 115 44 70 87 275 23 
237 5 6 166 242 121 104 
238 7 54 227 179 228 155 101 47 
239 7 175 103 263 16 35 3 202 
240 7 90 127 253 33 243 100 101 
241 6 174 100 188 33 253 240 
242 7 104 6 200 237 48 205 120 
243 7 127 179 218 231 47 265 240 
244 5 87 29 273 75 44 
245 7 84 233 125 148 22 5 77 
246 7 145 164 3 263 214 229 53 
247 4 278 107 36 4 
248 6 126 252 50 257 81 215 
249 7 265 47 61 218 132 181 212 
250 5 187 229 267 91 53 
251 6 28 78 69 138 254 220 
252 7 50 257 215 102 248 126 43 
253 7 90 240 24 127 256 33 188 
254 6 69 28 138 74 220 59 
255 7 34 52 92 8 193 96 56 
256 7 24 95 127 253 168 90 243 
257 7 50 252 215 102 248 273 43 
258 7 225 201 106 25 178 186 40 
259 6 207 272 206 270 46 2 
260 4 81 126 248 11 
261 7 276 122 264 219 235 67 189 
262 6 203 58 129 85 108 208 
263 7 3 239 175 145 103 35 214 
264 7 122 261 235 67 276 110 196 
265 7 47 218 179 231 249 243 238 
266 7 146 88 130 157 113 49 22 
267 5 91 178 250 187 25 
268 6 194 124 173 55 221 82 
269 7 109 68 32 5 148 222 77 
270 5 272 259 46 191 207 
271 4 99 118 7 224 
272 6 270 259 46 207 191 206 
273 4 102 257 215 50 
274 6 172 37 4 107 36 278 
275 7 105 115 23 98 44 117 236 
276 7 261 122 235 264 219 52 189 
277 5 144 94 66 213 108 
278 6 36 4 247 107 172 274 
DEPOT_SECTION
   1
   -1
EOF
