NAME :  X-n308-kX-w122-c7.cctp
COMMENT : 	Adapted by Maziero, Usberti and Cavellucci from the Uchoa, Pecin, Pessoa, Poggi, Subramanian, and Vidal (2013)
TYPE :  CCTP
DIMENSION :    269
EDGE_WEIGHT_TYPE : 	EUC_2D	
CAPACITY : 	246
VERTICES_WITHIN_COVERAGE :  7
VERTICES_WITH_DEMAND : 	122
NODE_COORD_SECTION
1 0 0
2 706 137
3 392 662
4 692 274
5 944 370
6 726 945
7 869 43
8 621 770
9 112 402
10 523 374
11 619 178
12 553 457
13 95 814
14 696 130
15 27 417
16 940 487
17 943 965
18 670 435
19 931 752
20 307 776
21 404 101
22 199 526
23 117 312
24 762 505
25 433 864
26 868 155
27 832 870
28 488 624
29 686 782
30 585 89
31 268 339
32 248 344
33 22 776
34 89 614
35 75 271
36 882 646
37 6 656
38 449 27
39 857 362
40 809 774
41 403 626
42 559 145
43 667 945
44 524 737
45 683 777
46 641 798
47 514 495
48 102 813
49 517 591
50 748 330
51 859 127
52 699 41
53 281 442
54 257 106
55 116 99
56 41 732
57 555 95
58 378 1
59 155 308
60 942 955
61 619 205
62 646 910
63 796 791
64 785 49
65 958 817
66 424 240
67 311 226
68 37 119
69 761 866
70 404 417
71 929 432
72 743 535
73 418 679
74 107 379
75 329 868
76 22 432
77 24 474
78 380 83
79 145 135
80 576 209
81 877 859
82 901 0
83 464 473
84 181 35
85 976 331
86 672 617
87 324 264
88 193 341
89 525 782
90 527 935
91 218 529
92 48 325
93 431 989
94 626 974
95 594 432
96 757 450
97 805 123
98 959 266
99 348 776
100 409 946
101 458 247
102 841 361
103 333 503
104 675 306
105 407 811
106 418 325
107 856 199
108 300 792
109 371 156
110 163 237
111 172 589
112 609 928
113 273 18
114 379 694
115 996 38
116 4 6
117 738 18
118 693 307
119 989 54
120 468 585
121 594 172
122 563 205
123 271 783
124 58 987
125 374 383
126 775 530
127 913 512
128 413 798
129 813 948
130 943 941
131 437 169
132 247 374
133 347 51
134 8 111
135 321 825
136 854 335
137 619 272
138 742 232
139 496 187
140 605 66
141 973 75
142 241 509
143 845 106
144 451 217
145 955 319
146 432 662
147 704 73
148 418 205
149 817 754
150 570 429
151 362 720
152 114 713
153 11 516
154 737 62
155 697 638
156 343 830
157 159 177
158 386 880
159 493 321
160 366 804
161 655 303
162 633 506
163 522 325
164 541 547
165 378 801
166 89 325
167 76 414
168 378 958
169 690 639
170 233 59
171 248 871
172 356 223
173 38 314
174 118 33
175 36 361
176 340 718
177 682 361
178 82 210
179 293 801
180 249 336
181 232 799
182 102 526
183 87 148
184 664 361
185 656 366
186 537 434
187 696 622
188 330 105
189 621 753
190 401 923
191 159 253
192 552 382
193 364 793
194 271 72
195 804 650
196 29 322
197 213 3
198 598 388
199 243 144
200 273 196
201 623 781
202 107 370
203 432 765
204 62 608
205 55 270
206 841 468
207 221 773
208 79 461
209 186 665
210 165 871
211 608 391
212 349 329
213 227 136
214 17 329
215 559 430
216 387 3
217 149 266
218 100 768
219 567 435
220 110 270
221 304 770
222 739 876
223 61 312
224 71 260
225 215 125
226 481 97
227 289 287
228 65 344
229 413 724
230 362 952
231 107 111
232 188 217
233 300 735
234 401 321
235 734 562
236 259 344
237 705 626
238 783 708
239 159 450
240 373 44
241 483 678
242 704 755
243 30 414
244 385 930
245 683 188
246 163 27
247 3 371
248 138 120
249 577 482
250 524 915
251 348 908
252 695 636
253 856 763
254 216 95
255 47 343
256 256 24
257 365 753
258 24 311
259 614 173
260 534 255
261 284 869
262 554 665
263 201 907
264 629 776
265 339 342
266 47 176
267 67 412
268 206 824
269 154 267
DEMAND_SECTION
2 80
3 94
4 87
5 77
6 77
7 50
8 79
9 86
10 75
11 84
12 88
13 94
14 74
15 95
16 89
17 83
18 55
19 77
20 1
21 7
22 3
23 7
24 5
25 2
26 2
27 2
28 5
29 2
30 7
31 1
32 5
33 5
34 8
35 4
36 2
37 8
38 9
39 1
40 10
41 3
42 10
43 3
44 2
45 3
46 2
47 1
48 5
49 4
50 3
51 4
52 3
53 5
54 3
55 5
56 6
57 9
58 6
59 4
60 2
61 7
62 10
63 2
64 3
65 10
66 8
67 10
68 10
69 4
70 4
71 10
72 7
73 4
74 1
75 4
76 9
77 3
78 10
79 4
80 3
81 10
82 10
83 1
84 6
85 3
86 2
87 8
88 8
89 7
90 3
91 7
92 8
93 6
94 1
95 10
96 10
97 9
98 10
99 10
100 6
101 7
102 6
103 10
104 1
105 3
106 2
107 2
108 2
109 3
110 2
111 1
112 7
113 6
114 5
115 8
116 3
117 3
118 4
119 8
120 2
121 9
122 6
123 3
COVERAGE_SECTION
2 7 14 245 147 154 11 52 259 
3 7 73 114 41 146 151 229 176 
4 7 118 104 161 138 137 50 245 
5 7 85 145 71 39 136 102 98 
6 7 43 222 69 62 129 94 112 
7 7 82 143 64 51 97 141 26 
8 7 264 201 189 46 45 29 242 
9 7 74 202 167 267 239 208 228 
10 5 192 163 159 186 215 
11 7 259 121 61 80 122 245 42 
12 7 219 186 215 150 249 95 47 
13 7 48 218 33 210 56 152 268 
14 7 2 147 245 154 52 11 259 
15 7 243 76 267 167 247 77 175 
16 7 127 71 206 5 39 85 102 
17 7 60 130 81 129 27 65 69 
18 7 185 184 177 95 211 162 198 
19 7 65 253 149 36 81 40 63 
20 7 221 108 179 123 99 233 135 
21 7 78 109 240 188 131 133 226 
22 7 91 142 111 239 182 53 103 
23 7 166 59 220 217 223 269 35 
24 6 126 72 96 235 206 18 
25 6 158 105 190 128 244 165 
26 7 51 107 143 97 7 141 64 
27 7 81 69 129 63 222 40 253 
28 7 49 120 241 146 262 41 73 
29 7 45 242 46 264 201 8 189 
30 7 140 57 42 121 259 11 226 
31 7 236 180 32 132 227 265 88 
32 7 180 236 31 132 88 227 265 
33 7 56 218 13 48 152 37 210 
34 7 204 111 182 37 152 209 153 
35 6 224 205 220 223 166 173 
36 5 195 19 238 253 149 
37 7 204 56 34 33 152 153 218 
38 7 216 58 226 240 21 78 133 
39 7 102 136 5 71 145 206 50 
40 7 63 149 253 238 27 69 242 
41 7 3 146 73 114 120 28 241 
42 7 121 57 122 30 259 80 11 
43 7 62 94 6 112 222 69 90 
44 7 89 241 262 203 189 8 201 
45 7 29 242 46 264 201 8 189 
46 7 201 264 8 45 29 189 242 
47 7 12 83 164 249 186 215 219 
48 7 13 218 210 33 56 152 268 
49 7 28 120 164 262 241 47 146 
50 7 118 177 104 4 184 161 102 
51 7 143 26 97 107 7 64 141 
52 7 147 154 117 64 14 2 140 
53 7 132 142 103 236 32 31 91 
54 5 194 199 213 254 225 
55 7 231 248 79 183 174 68 246 
56 7 33 218 152 37 13 48 204 
57 7 30 42 140 226 121 259 11 
58 7 216 240 133 38 78 21 113 
59 7 23 269 217 88 191 220 166 
60 7 17 130 81 129 27 65 69 
61 7 11 259 121 80 122 245 137 
62 7 43 112 94 6 222 46 90 
63 7 40 149 253 69 238 27 242 
64 7 154 117 97 143 7 147 52 
65 7 19 81 253 130 27 60 17 
66 7 101 144 148 172 131 234 106 
67 4 87 172 200 227 
68 7 134 183 266 231 55 248 178 
69 7 222 27 63 6 129 40 29 
70 7 125 83 106 234 265 212 103 
71 7 16 5 127 206 39 85 102 
72 5 235 126 24 96 187 
73 7 146 3 114 229 41 241 151 
74 7 202 9 167 267 228 166 23 
75 4 156 135 251 261 
76 7 15 243 77 267 167 208 247 
77 7 76 153 15 208 243 267 167 
78 7 21 240 133 188 109 216 58 
79 6 248 157 231 55 183 225 
80 6 122 121 61 259 11 260 
81 7 27 65 253 130 63 40 129 
82 7 7 115 119 141 143 64 51 
83 7 47 70 186 12 215 164 219 
84 7 246 197 170 174 254 256 55 
85 7 145 5 98 71 136 39 102 
86 5 187 169 252 155 237 
87 6 67 227 172 212 265 200 
88 7 59 32 180 132 236 31 23 
89 7 44 203 8 201 189 264 241 
90 7 250 112 94 93 25 100 62 
91 7 22 142 111 239 53 182 103 
92 7 173 223 255 196 228 258 214 
93 7 100 168 190 244 230 90 251 
94 7 112 43 62 6 90 250 222 
95 7 150 219 215 211 198 12 249 
96 7 24 126 72 206 18 235 177 
97 7 143 51 26 64 154 107 2 
98 7 145 85 5 107 136 39 26 
99 6 193 257 160 165 20 221 
100 7 190 244 168 230 93 158 251 
101 5 144 66 148 139 260 
102 7 39 136 50 5 206 71 145 
103 7 53 142 70 91 125 83 22 
104 6 118 161 4 177 184 185 
105 5 128 165 160 193 203 
106 7 234 212 125 159 265 66 101 
107 7 26 51 97 143 138 98 136 
108 6 179 20 221 123 135 99 
109 7 21 188 131 148 172 78 67 
110 6 191 269 217 232 157 220 
111 7 22 91 209 34 182 142 204 
112 7 62 94 43 90 250 6 46 
113 7 256 194 170 197 133 54 84 
114 7 151 3 73 229 176 257 146 
115 7 119 141 82 7 51 143 26 
116 7 134 174 68 55 231 246 183 
117 7 154 52 64 147 14 2 97 
118 7 104 4 161 177 50 184 185 
119 7 115 141 82 7 51 143 26 
120 7 28 49 41 164 146 241 47 
121 7 259 11 61 80 42 122 30 
122 6 80 121 61 260 42 259 
123 7 179 108 221 20 181 207 233 
124 7 210 263 13 48 33 268 171 
125 7 70 265 212 234 106 53 31 
126 5 24 72 235 96 206 
127 7 16 71 206 36 126 5 24 
128 5 105 165 203 160 193 
129 7 27 6 69 222 81 60 130 
130 7 60 17 81 65 129 27 19 
131 7 148 144 139 109 66 21 101 
132 7 32 236 180 31 88 53 227 
133 7 240 78 188 58 216 21 194 
134 6 68 266 183 231 116 55 
135 3 156 179 108 
136 7 39 102 5 145 50 85 71 
137 4 161 104 61 4 
138 7 4 245 118 50 104 2 14 
139 7 144 131 122 101 42 260 148 
140 7 30 57 42 52 147 121 259 
141 7 119 115 82 7 51 26 143 
142 7 91 22 53 103 239 111 132 
143 7 51 97 26 7 64 107 154 
144 5 101 66 148 131 139 
145 7 85 5 98 136 39 71 102 
146 7 73 3 41 241 114 229 28 
147 7 52 154 14 2 117 64 140 
148 7 144 66 131 101 172 109 139 
149 6 40 253 63 238 195 242 
150 7 219 215 95 12 186 192 198 
151 7 176 114 257 229 99 233 3 
152 7 218 56 209 48 34 13 33 
153 7 77 76 208 182 15 243 204 
154 7 147 52 117 64 14 2 97 
155 5 252 169 237 187 86 
156 3 135 160 75 
157 4 79 232 110 248 
158 6 190 251 25 244 75 156 
159 2 163 10 
160 3 193 165 99 
161 6 104 118 4 137 184 185 
162 7 249 18 95 12 219 150 164 
163 2 159 10 
164 7 49 47 249 120 12 28 162 
165 5 160 193 105 128 99 
166 7 23 223 228 92 255 202 173 
167 7 267 9 243 74 208 15 202 
168 7 230 244 100 190 251 93 158 
169 5 252 155 187 237 86 
170 7 194 254 256 54 84 113 197 
171 7 261 263 268 181 75 179 210 
172 7 67 87 148 109 66 200 227 
173 6 196 258 92 223 214 255 
174 7 246 84 55 231 248 197 79 
175 5 255 228 247 214 92 
176 7 151 233 257 114 99 221 20 
177 6 184 185 104 118 161 50 
178 6 266 224 35 183 205 220 
179 6 108 123 20 221 135 156 
180 7 32 236 31 132 88 227 265 
181 7 207 268 123 179 108 171 20 
182 7 208 34 204 153 77 111 239 
183 7 231 266 55 68 248 79 178 
184 6 185 177 104 161 118 211 
185 6 184 177 211 198 104 161 
186 7 215 12 219 150 192 95 10 
187 5 237 252 155 169 86 
188 7 78 133 109 194 54 21 240 
189 7 8 264 201 46 45 29 242 
190 7 244 100 168 158 230 251 25 
191 7 269 110 217 232 220 59 23 
192 7 10 198 215 150 186 219 211 
193 4 160 165 99 257 
194 7 54 170 256 113 254 188 199 
195 2 238 36 
196 5 173 258 214 92 255 
197 7 84 256 246 170 113 194 254 
198 6 211 95 192 150 219 215 
199 3 213 225 54 
200 1 67 
201 7 264 8 46 189 45 29 242 
202 7 74 9 166 228 167 267 23 
203 7 128 229 105 165 257 193 160 
204 7 34 37 182 153 111 152 56 
205 4 224 35 223 173 
206 7 127 96 24 126 71 16 39 
207 7 181 123 268 179 108 221 20 
208 7 167 267 77 76 9 15 243 
209 7 111 152 34 207 218 233 204 
210 7 263 268 171 48 13 181 207 
211 6 198 95 150 185 192 219 
212 7 265 234 125 106 87 227 31 
213 3 225 199 54 
214 4 196 258 173 92 
215 7 219 150 186 12 95 192 249 
216 7 58 240 133 38 78 21 113 
217 7 269 191 110 220 59 23 232 
218 7 48 13 152 56 33 268 207 
219 7 150 215 12 95 186 249 192 
220 7 35 217 224 23 269 191 205 
221 7 20 108 179 123 233 99 135 
222 7 69 6 27 62 43 63 129 
223 7 92 173 166 228 196 255 258 
224 6 35 205 220 178 223 173 
225 4 213 254 199 54 
226 7 57 21 38 131 139 42 78 
227 6 87 31 180 236 67 32 
228 7 255 92 166 223 175 173 196 
229 7 73 114 203 151 257 3 146 
230 7 168 244 251 100 190 158 93 
231 7 55 248 183 79 68 174 157 
232 3 110 191 157 
233 7 221 20 176 123 108 99 151 
234 7 106 212 265 125 66 159 101 
235 5 72 126 24 237 187 
236 7 31 32 180 132 227 88 265 
237 5 187 155 252 169 86 
238 3 149 195 40 
239 7 9 208 22 74 167 182 202 
240 7 133 78 58 216 21 188 38 
241 7 146 28 73 44 262 229 3 
242 7 45 29 46 264 189 8 201 
243 7 15 76 267 167 247 175 77 
244 7 190 100 168 230 251 158 93 
245 7 2 14 11 61 259 138 4 
246 7 84 174 197 170 55 254 256 
247 4 175 214 243 15 
248 6 79 55 231 183 157 225 
249 7 12 219 95 150 215 162 186 
250 7 90 112 25 94 93 100 62 
251 7 244 75 230 158 190 168 100 
252 5 155 169 187 237 86 
253 7 149 40 63 19 238 81 27 
254 5 225 170 54 213 199 
255 7 92 228 175 196 173 214 223 
256 7 113 170 197 194 84 254 54 
257 7 99 151 193 176 165 160 229 
258 4 196 173 214 92 
259 7 11 121 61 80 122 42 245 
260 2 122 80 
261 6 171 75 135 179 156 251 
262 7 241 28 44 49 189 120 164 
263 7 210 171 268 261 181 75 207 
264 7 201 8 189 46 45 29 242 
265 7 212 125 234 31 227 87 236 
266 6 178 183 68 134 224 231 
267 7 167 243 15 9 76 208 74 
268 7 181 207 210 171 123 263 179 
269 7 217 191 110 59 220 23 232 
DEPOT_SECTION
   1
   -1
EOF
