NAME :  X-n322-kX-w64-c7.cctp
COMMENT : 	Adapted by Maziero, Usberti and Cavellucci from the Uchoa, Pecin, Pessoa, Poggi, Subramanian, and Vidal (2013)
TYPE :  CCTP
DIMENSION :    281
EDGE_WEIGHT_TYPE : 	EUC_2D	
CAPACITY : 	868
VERTICES_WITHIN_COVERAGE :  7
VERTICES_WITH_DEMAND : 	64
NODE_COORD_SECTION
1 500 500
2 737 450
3 235 789
4 340 234
5 346 320
6 406 309
7 556 636
8 872 923
9 937 83
10 9 321
11 558 18
12 63 833
13 250 509
14 143 192
15 624 286
16 364 117
17 332 953
18 235 142
19 590 430
20 303 692
21 936 665
22 39 410
23 247 581
24 986 739
25 11 283
26 138 747
27 837 511
28 596 206
29 218 339
30 443 922
31 555 133
32 896 306
33 415 752
34 691 216
35 51 0
36 726 19
37 166 333
38 951 932
39 928 807
40 505 590
41 236 284
42 115 882
43 238 887
44 729 26
45 94 697
46 409 899
47 993 715
48 473 607
49 414 55
50 884 327
51 651 407
52 891 372
53 570 733
54 919 529
55 629 220
56 711 630
57 141 492
58 720 382
59 794 51
60 745 451
61 409 990
62 825 781
63 966 938
64 378 175
65 859 269
66 596 131
67 419 557
68 77 908
69 679 268
70 382 728
71 885 15
72 258 313
73 533 912
74 924 636
75 694 621
76 507 707
77 281 800
78 607 285
79 388 354
80 568 781
81 22 348
82 218 236
83 308 904
84 119 154
85 939 105
86 547 736
87 480 1000
88 124 883
89 295 741
90 213 53
91 701 446
92 589 708
93 644 147
94 133 377
95 983 343
96 262 450
97 693 344
98 896 910
99 298 531
100 573 416
101 416 512
102 870 50
103 185 436
104 656 268
105 53 522
106 587 165
107 542 762
108 995 809
109 266 878
110 27 812
111 196 522
112 45 164
113 174 729
114 252 311
115 681 621
116 594 478
117 848 361
118 897 253
119 729 354
120 255 410
121 811 703
122 781 909
123 971 632
124 475 860
125 967 433
126 897 98
127 157 676
128 971 727
129 972 381
130 375 214
131 280 526
132 196 779
133 379 223
134 692 470
135 22 395
136 289 811
137 98 365
138 261 101
139 820 480
140 433 961
141 656 421
142 334 794
143 426 686
144 870 112
145 941 978
146 744 498
147 7 346
148 168 877
149 166 244
150 604 430
151 176 452
152 912 406
153 423 564
154 101 383
155 729 307
156 162 515
157 784 983
158 736 39
159 833 529
160 646 367
161 922 294
162 513 535
163 373 331
164 471 694
165 39 149
166 813 538
167 153 115
168 244 505
169 716 286
170 409 228
171 140 484
172 652 239
173 30 924
174 877 307
175 586 723
176 336 615
177 856 584
178 648 704
179 19 309
180 614 194
181 253 864
182 106 841
183 5 289
184 657 83
185 658 58
186 419 839
187 191 864
188 288 276
189 562 646
190 516 725
191 75 785
192 309 966
193 743 856
194 121 698
195 286 258
196 70 635
197 824 834
198 650 350
199 742 277
200 977 647
201 268 698
202 973 145
203 569 655
204 765 22
205 427 869
206 11 869
207 377 793
208 162 897
209 102 444
210 979 386
211 294 395
212 424 536
213 37 705
214 126 782
215 490 30
216 348 771
217 808 469
218 107 512
219 782 207
220 161 793
221 859 469
222 148 763
223 403 723
224 978 760
225 214 132
226 467 387
227 292 262
228 238 846
229 853 27
230 855 506
231 213 742
232 203 364
233 183 3
234 501 152
235 904 31
236 997 741
237 26 402
238 543 506
239 902 548
240 47 419
241 125 226
242 206 608
243 811 668
244 643 265
245 189 736
246 79 287
247 382 630
248 225 604
249 412 843
250 924 756
251 474 356
252 533 721
253 445 101
254 652 658
255 889 206
256 464 243
257 680 735
258 420 998
259 798 490
260 75 518
261 27 680
262 118 804
263 489 91
264 367 977
265 777 679
266 501 137
267 856 6
268 75 999
269 777 984
270 171 874
271 909 569
272 730 509
273 326 596
274 59 533
275 455 853
276 612 163
277 959 409
278 987 154
279 883 195
280 207 6
281 39 831
DEMAND_SECTION
2 61
3 71
4 83
5 85
6 85
7 99
8 63
9 64
10 50
11 56
12 91
13 87
14 75
15 70
16 57
17 86
18 50
19 89
20 75
21 72
22 83
23 74
24 76
25 53
26 93
27 97
28 69
29 61
30 76
31 93
32 55
33 92
34 83
35 92
36 63
37 61
38 53
39 100
40 94
41 74
42 71
43 95
44 74
45 96
46 75
47 91
48 82
49 50
50 84
51 55
52 74
53 73
54 86
55 52
56 81
57 73
58 92
59 83
60 64
61 66
62 93
63 97
64 88
65 67
COVERAGE_SECTION
2 7 60 91 134 146 272 58 217 
3 7 132 77 231 228 136 245 220 
4 7 130 133 227 195 188 170 64 
5 7 163 79 6 188 227 4 195 
6 7 163 79 5 170 251 256 133 
7 7 189 203 40 92 76 48 252 
8 7 98 38 145 122 63 197 157 
9 6 85 126 235 202 144 102 
10 7 179 147 81 183 25 135 246 
11 7 215 263 185 31 184 66 266 
12 7 281 110 182 191 262 206 42 
13 6 168 131 99 111 96 23 
14 7 241 84 149 167 82 225 112 
15 7 78 244 104 172 69 55 198 
16 7 64 49 253 130 138 133 4 
17 7 192 264 83 61 46 258 109 
18 7 225 138 167 90 82 14 84 
19 6 150 100 116 51 141 160 
20 7 201 89 176 70 216 273 247 
21 7 74 200 123 128 47 24 250 
22 7 240 237 135 81 154 147 209 
23 7 248 242 131 99 13 168 111 
24 7 236 128 224 47 250 108 21 
25 7 183 179 10 147 81 246 135 
26 7 222 214 113 220 194 245 262 
27 7 159 230 139 166 259 221 217 
28 7 180 55 106 276 172 66 244 
29 6 232 114 72 37 41 120 
30 7 140 46 205 124 275 61 258 
31 7 66 106 266 234 276 263 28 
32 7 174 50 161 65 118 52 117 
33 7 223 70 207 143 216 164 186 
34 7 172 69 55 104 244 169 180 
35 7 233 165 167 280 112 84 90 
36 6 44 158 204 59 185 184 
37 7 232 29 94 137 154 41 114 
38 7 63 145 98 8 39 108 197 
39 7 250 108 224 24 128 236 62 
40 7 48 162 7 189 153 203 67 
41 7 114 72 82 188 195 29 227 
42 7 88 182 68 208 148 270 12 
43 7 181 109 228 187 270 148 83 
44 6 36 158 204 59 185 184 
45 6 194 213 127 196 26 261 
46 7 205 30 249 186 275 140 124 
47 7 24 128 236 224 200 21 250 
48 7 40 153 67 162 212 164 7 
49 7 253 16 215 263 266 64 234 
50 7 174 32 52 117 161 65 118 
51 7 141 160 150 198 91 19 58 
52 7 152 117 50 32 174 277 129 
53 7 175 86 92 252 107 80 190 
54 7 239 271 230 27 177 221 159 
55 7 172 180 28 244 104 276 34 
56 6 75 115 254 265 178 243 
57 7 171 156 218 151 209 111 103 
58 7 119 97 91 2 51 60 141 
59 7 204 158 229 44 36 102 267 
60 7 2 91 146 134 272 217 259 
61 7 258 140 264 87 30 17 46 
62 7 197 121 250 39 193 265 243 
63 7 38 145 98 8 108 39 197 
64 6 130 133 16 170 4 253 
65 7 118 174 32 50 161 255 279 
66 6 106 276 31 93 180 28 
67 6 153 212 101 48 247 40 
68 7 42 173 88 182 12 206 208 
69 7 104 244 172 169 34 15 155 
70 7 223 33 216 143 207 142 20 
71 7 235 267 229 102 126 9 59 
72 7 114 41 29 188 227 195 232 
73 3 124 30 275 
74 7 21 123 200 271 177 239 128 
75 6 115 56 254 178 265 257 
76 6 190 252 164 86 107 53 
77 7 136 3 142 89 228 181 216 
78 7 15 244 104 172 55 69 198 
79 6 163 6 5 226 251 211 
80 5 107 53 86 175 252 
81 7 147 10 179 135 237 183 22 
82 7 41 149 195 227 188 114 14 
83 7 109 17 192 181 43 228 264 
84 7 14 167 241 112 165 225 149 
85 5 9 126 202 144 278 
86 7 252 53 107 190 175 76 80 
87 6 258 140 61 30 73 264 
88 7 42 208 148 182 270 68 187 
89 7 20 201 77 216 142 136 3 
90 7 280 233 138 225 167 18 84 
91 6 134 2 60 141 51 58 
92 6 175 53 86 203 252 178 
93 6 276 66 180 106 184 55 
94 5 154 137 37 232 209 
95 7 129 210 277 161 125 32 152 
96 6 120 168 13 211 103 131 
97 7 119 198 58 155 160 169 51 
98 7 8 38 63 145 197 39 122 
99 6 131 13 168 23 273 96 
100 6 19 150 116 51 141 160 
101 6 212 67 153 162 48 40 
102 7 229 71 235 267 126 144 9 
103 5 151 171 57 232 120 
104 7 244 69 172 15 78 55 34 
105 6 274 260 218 209 57 171 
106 7 276 66 180 28 31 93 55 
107 6 86 80 53 252 190 175 
108 7 224 39 236 24 128 250 47 
109 7 181 43 228 83 136 187 77 
110 7 281 12 191 206 182 262 214 
111 6 156 168 13 57 171 151 
112 7 165 84 241 14 167 25 246 
113 6 245 26 231 222 132 127 
114 7 72 41 29 188 195 227 232 
115 6 75 56 254 178 265 257 
116 4 19 150 238 100 
117 7 52 50 174 32 152 65 161 
118 7 65 161 255 32 174 279 50 
119 7 58 97 155 169 199 198 160 
120 5 96 211 232 103 29 
121 7 243 265 62 56 250 177 21 
122 5 193 157 269 197 8 
123 7 200 74 21 47 271 128 24 
124 5 275 205 186 249 30 
125 7 277 210 129 152 95 52 54 
126 5 144 9 85 102 235 
127 3 194 113 45 
128 7 24 47 236 224 250 21 200 
129 7 210 277 95 125 152 52 161 
130 6 133 170 64 4 256 227 
131 7 99 13 168 23 96 111 273 
132 7 220 3 231 245 222 113 26 
133 6 130 170 4 64 256 6 
134 4 91 2 272 60 
135 7 237 22 240 81 147 10 154 
136 7 77 142 3 228 181 89 109 
137 6 154 94 22 240 37 81 
138 7 18 225 90 16 167 280 233 
139 7 217 259 27 221 230 159 166 
140 7 61 258 30 87 46 264 205 
141 6 51 91 150 160 134 19 
142 7 216 207 136 77 89 70 33 
143 7 223 164 70 33 247 76 48 
144 4 126 102 85 9 
145 7 38 63 98 8 157 269 39 
146 7 272 60 2 259 134 91 217 
147 7 81 10 179 135 183 237 25 
148 7 270 208 187 88 42 43 182 
149 7 241 82 14 41 37 246 84 
150 6 19 100 116 51 141 160 
151 5 103 171 57 156 111 
152 7 52 277 125 129 210 117 221 
153 6 67 212 101 48 247 40 
154 6 137 94 209 240 22 237 
155 7 169 199 119 97 69 58 104 
156 6 57 111 171 218 151 103 
157 5 269 122 8 193 98 
158 6 44 36 204 59 185 184 
159 7 27 166 230 139 259 177 217 
160 7 198 51 97 141 58 150 15 
161 7 32 174 118 50 65 95 52 
162 7 238 40 48 212 153 67 116 
163 7 79 5 6 188 4 211 251 
164 7 76 143 190 252 223 33 48 
165 7 112 84 14 241 167 25 183 
166 7 159 27 259 230 139 177 217 
167 7 84 225 14 18 90 138 241 
168 7 13 131 111 96 99 23 156 
169 7 155 199 69 97 104 119 34 
170 6 133 130 256 64 4 6 
171 6 57 156 218 151 209 103 
172 7 244 104 55 69 34 15 180 
173 7 68 206 268 281 42 12 88 
174 7 32 50 65 161 118 117 52 
175 7 92 53 86 252 107 80 178 
176 6 273 247 20 99 23 67 
177 7 271 239 159 166 27 230 54 
178 6 257 254 92 175 53 115 
179 7 10 183 25 81 147 246 135 
180 7 28 55 276 106 93 172 66 
181 7 109 228 43 187 136 83 77 
182 7 262 42 12 88 214 191 281 
183 7 25 179 10 147 81 246 135 
184 6 185 93 66 158 44 276 
185 6 184 36 44 158 93 66 
186 6 249 205 275 124 46 207 
187 7 270 148 208 228 43 181 88 
188 7 227 195 72 114 41 4 5 
189 7 203 7 92 40 252 175 76 
190 6 252 76 86 107 53 164 
191 7 262 12 214 110 281 182 26 
192 7 17 264 83 109 61 43 181 
193 3 122 197 62 
194 4 45 127 26 113 
195 7 227 188 41 4 72 114 82 
196 3 261 45 213 
197 6 62 193 122 8 98 39 
198 7 160 97 51 15 141 58 78 
199 7 169 155 69 119 34 219 97 
200 7 123 21 74 47 128 24 236 
201 6 20 89 231 245 3 113 
202 3 278 85 9 
203 6 189 7 92 175 252 53 
204 7 158 44 36 59 229 267 102 
205 6 249 186 275 46 124 30 
206 7 281 173 110 12 68 182 42 
207 7 216 142 33 249 186 70 223 
208 7 148 270 88 187 42 43 182 
209 5 171 240 154 57 218 
210 7 129 277 95 125 152 52 161 
211 6 120 96 72 5 29 114 
212 6 67 101 153 48 162 40 
213 6 261 45 196 194 191 110 
214 7 262 222 26 220 191 182 132 
215 7 263 11 49 253 266 31 234 
216 7 142 207 70 89 33 136 77 
217 7 139 259 27 221 230 159 60 
218 6 260 57 171 274 105 156 
219 7 199 34 65 279 169 255 155 
220 7 222 214 132 262 26 245 113 
221 7 230 139 27 217 159 259 152 
222 7 26 214 220 113 245 132 262 
223 7 70 33 143 216 164 207 247 
224 7 24 236 128 47 108 250 39 
225 7 18 138 167 90 14 84 82 
226 3 251 79 6 
227 7 195 188 4 41 72 114 82 
228 7 181 43 109 187 3 136 77 
229 7 267 102 71 235 59 126 144 
230 7 27 159 221 139 166 259 217 
231 6 245 113 132 3 222 201 
232 6 29 37 120 94 114 103 
233 7 280 90 167 138 35 225 18 
234 6 266 31 263 253 106 66 
235 7 71 102 229 267 9 126 85 
236 7 24 47 224 128 108 250 39 
237 7 135 22 240 81 147 154 137 
238 6 162 116 19 40 100 150 
239 7 271 54 177 230 159 27 166 
240 5 22 237 135 209 154 
241 7 14 149 84 246 82 112 167 
242 2 248 23 
243 7 121 265 177 56 62 74 21 
244 7 104 15 172 69 78 55 34 
245 6 113 231 132 222 26 220 
246 7 179 25 183 241 10 137 81 
247 6 176 273 143 153 67 48 
248 3 242 23 111 
249 6 186 205 275 46 207 124 
250 7 39 224 128 24 236 47 108 
251 2 226 6 
252 7 190 86 76 53 107 175 92 
253 7 263 49 266 234 16 215 64 
254 6 178 115 75 56 92 257 
255 4 279 118 65 161 
256 3 170 133 6 
257 6 178 254 92 175 56 53 
258 7 61 140 264 87 30 17 46 
259 7 217 139 27 166 159 146 230 
260 6 105 274 218 57 171 209 
261 5 213 196 45 194 191 
262 7 214 182 220 191 222 26 12 
263 7 253 266 215 234 31 49 11 
264 7 17 61 258 192 140 46 30 
265 7 243 121 56 75 115 257 62 
266 6 234 263 31 253 106 66 
267 7 229 71 102 235 59 204 126 
268 7 173 68 42 88 208 206 148 
269 4 157 122 8 193 
270 7 148 187 208 88 42 43 182 
271 7 239 54 177 74 230 159 123 
272 6 146 134 2 60 91 259 
273 6 176 247 99 23 131 20 
274 5 105 260 218 57 171 
275 5 124 205 186 249 46 
276 6 106 180 66 93 28 55 
277 7 125 210 129 152 95 52 50 
278 3 202 85 9 
279 4 255 118 65 144 
280 7 233 90 138 167 225 18 35 
281 7 110 12 206 191 182 262 68 
DEPOT_SECTION
   1
   -1
EOF
