NAME :  X-n376-kX-w150-c7.cctp
COMMENT : 	Adapted by Maziero, Usberti and Cavellucci from the Uchoa, Pecin, Pessoa, Poggi, Subramanian, and Vidal (2013)
TYPE :  CCTP
DIMENSION :    375
EDGE_WEIGHT_TYPE : 	EUC_2D	
CAPACITY : 	4
VERTICES_WITHIN_COVERAGE :  7
VERTICES_WITH_DEMAND : 	150
NODE_COORD_SECTION
1 0 0
2 989 944
3 5 730
4 769 200
5 698 515
6 72 561
7 52 397
8 839 271
9 140 724
10 339 580
11 30 850
12 820 815
13 555 844
14 388 709
15 323 438
16 159 983
17 989 233
18 644 167
19 766 151
20 387 690
21 193 140
22 863 192
23 149 123
24 609 119
25 121 204
26 625 537
27 716 123
28 8 219
29 429 956
30 844 970
31 661 66
32 347 202
33 979 314
34 255 772
35 634 504
36 466 48
37 330 90
38 929 245
39 236 130
40 785 0
41 251 486
42 758 203
43 524 280
44 798 71
45 212 595
46 967 478
47 504 429
48 581 534
49 883 899
50 605 414
51 640 692
52 287 432
53 641 771
54 53 374
55 344 325
56 647 72
57 63 976
58 519 235
59 485 226
60 469 527
61 433 168
62 538 891
63 884 433
64 142 134
65 234 394
66 473 750
67 815 622
68 130 999
69 655 588
70 16 235
71 503 614
72 477 489
73 87 78
74 689 289
75 631 868
76 304 743
77 624 81
78 338 865
79 831 984
80 312 157
81 563 205
82 641 435
83 189 201
84 277 903
85 906 949
86 601 486
87 746 904
88 557 409
89 854 201
90 50 20
91 994 111
92 584 875
93 316 741
94 150 56
95 377 988
96 371 762
97 401 741
98 890 126
99 797 335
100 9 301
101 923 259
102 586 782
103 103 99
104 166 987
105 896 750
106 383 86
107 603 863
108 590 78
109 40 554
110 755 120
111 554 351
112 603 102
113 279 404
114 1 481
115 667 931
116 609 350
117 237 925
118 755 779
119 607 107
120 589 379
121 744 130
122 469 142
123 491 28
124 602 512
125 329 925
126 933 714
127 391 982
128 285 336
129 730 604
130 758 153
131 831 894
132 355 206
133 382 353
134 887 133
135 286 835
136 103 743
137 929 750
138 89 845
139 689 515
140 903 330
141 713 261
142 465 494
143 922 783
144 703 619
145 282 745
146 939 801
147 320 130
148 531 25
149 887 949
150 765 502
151 174 187
152 993 233
153 982 13
154 25 851
155 228 228
156 774 690
157 722 969
158 133 115
159 175 663
160 134 106
161 469 233
162 325 78
163 166 547
164 416 965
165 284 119
166 169 541
167 302 72
168 537 7
169 434 329
170 59 816
171 139 74
172 495 746
173 890 453
174 719 235
175 184 528
176 863 957
177 821 476
178 700 645
179 400 49
180 293 179
181 104 271
182 882 906
183 701 394
184 18 221
185 819 101
186 971 397
187 454 960
188 348 657
189 745 122
190 3 510
191 981 283
192 167 323
193 869 880
194 844 154
195 53 544
196 443 825
197 879 809
198 683 254
199 402 59
200 719 31
201 664 737
202 541 249
203 204 791
204 615 578
205 821 381
206 767 595
207 594 837
208 331 365
209 145 850
210 537 263
211 157 938
212 147 59
213 138 140
214 354 240
215 435 976
216 917 593
217 504 643
218 552 29
219 420 473
220 576 665
221 648 637
222 792 147
223 55 92
224 635 236
225 180 793
226 561 629
227 743 136
228 686 38
229 415 672
230 678 523
231 834 48
232 897 63
233 868 224
234 786 394
235 132 915
236 513 74
237 757 295
238 859 823
239 398 959
240 360 94
241 506 114
242 699 907
243 842 46
244 341 918
245 240 808
246 434 756
247 628 184
248 938 599
249 287 889
250 22 999
251 374 19
252 707 963
253 681 762
254 750 278
255 652 340
256 788 95
257 653 222
258 730 753
259 484 573
260 395 854
261 144 957
262 404 597
263 849 288
264 321 355
265 294 41
266 43 501
267 175 695
268 439 486
269 949 443
270 245 169
271 848 143
272 198 396
273 153 521
274 436 824
275 703 624
276 126 2
277 659 523
278 370 702
279 528 268
280 330 488
281 420 88
282 630 555
283 568 848
284 992 800
285 92 747
286 126 152
287 18 275
288 875 151
289 537 418
290 598 777
291 527 104
292 819 522
293 316 915
294 112 727
295 697 29
296 243 155
297 195 437
298 563 820
299 583 383
300 645 62
301 645 77
302 174 884
303 193 643
304 96 519
305 336 319
306 998 266
307 990 922
308 753 566
309 646 537
310 412 328
311 386 478
312 344 512
313 625 949
314 251 208
315 680 428
316 135 843
317 171 19
318 405 150
319 146 654
320 82 631
321 417 950
322 121 982
323 209 292
324 180 796
325 51 162
326 628 521
327 913 714
328 820 662
329 596 600
330 605 229
331 378 53
332 95 447
333 899 216
334 685 705
335 304 713
336 305 760
337 636 482
338 954 189
339 470 857
340 450 97
341 811 886
342 453 64
343 230 919
344 732 350
345 258 429
346 674 351
347 20 95
348 57 298
349 136 129
350 62 213
351 852 852
352 538 110
353 435 522
354 518 452
355 816 415
356 987 849
357 472 154
358 893 13
359 579 281
360 418 966
361 391 92
362 490 482
363 890 711
364 552 802
365 667 416
366 571 581
367 71 227
368 311 90
369 598 723
370 845 677
371 528 124
372 321 456
373 817 624
374 978 276
375 239 960
DEMAND_SECTION
2 1
3 1
4 1
5 1
6 1
7 1
8 1
9 1
10 1
11 1
12 1
13 1
14 1
15 1
16 1
17 1
18 1
19 1
20 1
21 1
22 1
23 1
24 1
25 1
26 1
27 1
28 1
29 1
30 1
31 1
32 1
33 1
34 1
35 1
36 1
37 1
38 1
39 1
40 1
41 1
42 1
43 1
44 1
45 1
46 1
47 1
48 1
49 1
50 1
51 1
52 1
53 1
54 1
55 1
56 1
57 1
58 1
59 1
60 1
61 1
62 1
63 1
64 1
65 1
66 1
67 1
68 1
69 1
70 1
71 1
72 1
73 1
74 1
75 1
76 1
77 1
78 1
79 1
80 1
81 1
82 1
83 1
84 1
85 1
86 1
87 1
88 1
89 1
90 1
91 1
92 1
93 1
94 1
95 1
96 1
97 1
98 1
99 1
100 1
101 1
102 1
103 1
104 1
105 1
106 1
107 1
108 1
109 1
110 1
111 1
112 1
113 1
114 1
115 1
116 1
117 1
118 1
119 1
120 1
121 1
122 1
123 1
124 1
125 1
126 1
127 1
128 1
129 1
130 1
131 1
132 1
133 1
134 1
135 1
136 1
137 1
138 1
139 1
140 1
141 1
142 1
143 1
144 1
145 1
146 1
147 1
148 1
149 1
150 1
151 1
COVERAGE_SECTION
2 7 307 85 356 149 182 49 176 
3 7 285 136 170 294 11 154 320 
4 7 42 130 19 222 174 227 121 
5 7 139 230 277 309 35 150 326 
6 7 195 109 304 266 320 190 273 
7 7 54 332 114 348 266 100 190 
8 7 263 233 89 99 333 22 101 
9 7 294 136 267 285 159 319 225 
10 7 262 312 188 280 311 353 229 
11 7 154 170 138 316 209 285 235 
12 7 238 351 197 341 118 131 193 
13 7 283 298 207 92 364 62 107 
14 7 20 278 97 229 96 188 246 
15 7 372 52 280 113 345 208 311 
16 7 104 261 68 322 211 235 375 
17 7 152 306 374 191 338 38 101 
18 7 247 257 24 119 224 330 112 
19 7 130 222 227 121 110 189 4 
20 7 14 278 229 188 97 96 246 
21 7 39 23 64 151 296 213 349 
22 7 89 233 194 288 333 271 134 
23 7 64 349 158 213 160 286 21 
24 7 119 112 77 108 301 18 56 
25 7 286 367 151 350 213 83 181 
26 7 326 282 309 35 124 277 204 
27 7 121 189 227 110 130 19 256 
28 7 184 70 350 287 367 325 100 
29 7 321 360 164 215 187 239 127 
30 7 79 176 149 85 182 131 49 
31 7 56 300 301 228 77 295 112 
32 7 132 214 80 180 147 318 61 
33 7 191 374 306 101 140 17 152 
34 7 145 245 336 203 76 93 135 
35 7 326 337 277 124 26 309 86 
36 7 342 123 340 236 281 199 179 
37 7 162 368 240 167 147 106 165 
38 7 101 333 374 17 338 191 152 
39 7 296 270 21 165 180 314 80 
40 7 231 44 200 243 295 256 228 
41 7 345 52 297 372 175 280 15 
42 7 4 130 174 19 222 227 141 
43 7 279 210 202 58 359 59 161 
44 7 256 185 231 243 110 40 189 
45 7 303 163 166 175 159 319 273 
46 7 269 173 186 63 248 216 177 
47 7 354 289 362 88 72 142 268 
48 7 124 26 366 326 86 282 204 
49 7 182 193 149 131 85 351 176 
50 7 120 299 82 88 365 116 289 
51 7 334 201 369 221 220 178 53 
52 7 113 345 15 372 41 65 280 
53 7 201 253 290 102 369 51 334 
54 7 7 348 332 100 287 181 114 
55 7 305 264 208 133 128 310 214 
56 7 301 300 31 77 228 112 119 
57 7 250 322 68 261 235 16 211 
58 7 202 210 279 59 43 161 81 
59 7 161 58 279 202 210 43 357 
60 7 142 353 72 259 362 268 219 
61 7 318 357 122 340 161 59 281 
62 7 92 13 283 107 298 339 207 
63 7 173 269 355 177 205 46 186 
64 7 213 349 23 158 286 160 21 
65 7 272 345 113 297 52 128 41 
66 7 172 246 97 196 274 14 364 
67 7 373 328 206 370 156 308 129 
68 7 322 16 104 261 211 57 235 
69 7 204 282 221 309 144 26 275 
70 7 184 28 287 350 367 100 348 
71 7 217 259 226 366 220 60 329 
72 7 142 362 268 60 353 354 219 
73 7 103 223 171 160 158 212 94 
74 7 198 141 174 254 255 346 237 
75 7 107 92 207 283 115 242 13 
76 7 93 336 145 335 34 96 278 
77 7 301 56 300 112 119 108 31 
78 7 244 293 249 260 135 125 84 
79 7 30 176 149 85 131 182 49 
80 7 147 180 165 32 132 368 270 
81 7 330 202 58 210 247 279 224 
82 7 365 315 50 337 86 35 183 
83 7 151 155 21 314 270 25 296 
84 7 249 293 117 343 125 244 135 
85 7 149 176 182 49 30 193 2 
86 7 124 337 35 326 48 26 82 
87 7 242 341 157 252 115 131 12 
88 7 289 299 120 50 47 111 354 
89 7 22 233 333 194 288 271 8 
90 7 73 223 276 347 103 171 212 
91 7 338 153 98 232 134 17 152 
92 7 107 283 207 13 75 62 298 
93 7 76 336 335 145 96 278 34 
94 7 212 171 317 160 276 158 103 
95 7 127 239 164 360 321 215 29 
96 7 97 14 93 278 246 336 76 
97 7 14 246 96 278 20 229 66 
98 7 134 288 271 194 232 22 185 
99 7 205 237 234 344 263 254 8 
100 7 287 348 70 184 28 54 367 
101 7 38 333 374 191 233 17 140 
102 7 290 364 298 53 207 369 283 
103 7 73 160 158 171 349 223 23 
104 7 16 261 68 322 211 375 235 
105 7 137 363 327 143 126 197 146 
106 7 361 240 199 331 281 179 37 
107 7 92 75 207 283 13 298 62 
108 7 112 77 119 24 301 56 300 
109 7 195 6 266 190 304 114 320 
110 7 189 121 227 19 130 27 256 
111 7 299 120 116 88 289 359 43 
112 7 119 24 108 77 301 56 300 
113 7 52 345 65 15 208 264 372 
114 7 190 266 195 109 7 332 304 
115 7 242 313 252 157 75 87 107 
116 7 120 299 255 111 50 346 359 
117 7 343 375 84 249 302 293 211 
118 7 258 12 253 156 201 334 238 
119 7 112 24 77 108 301 56 300 
120 7 299 116 50 88 111 289 255 
121 7 227 189 110 130 27 19 222 
122 7 357 61 241 340 371 318 291 
123 7 36 148 168 236 342 218 340 
124 7 86 326 48 35 26 337 282 
125 7 244 293 249 84 78 239 95 
126 7 327 137 363 105 143 146 370 
127 7 95 239 164 360 321 215 29 
128 7 264 208 305 55 113 65 323 
129 7 144 275 206 308 178 69 67 
130 7 19 227 121 110 189 222 4 
131 7 341 193 351 49 182 176 238 
132 7 32 214 80 180 318 147 61 
133 7 310 55 208 169 305 264 128 
134 7 98 288 271 194 22 232 185 
135 7 245 249 78 84 34 336 293 
136 7 285 294 9 170 267 225 324 
137 7 105 143 126 327 146 363 197 
138 7 170 316 209 11 154 235 302 
139 7 5 230 277 309 35 326 337 
140 7 263 101 33 8 38 191 374 
141 7 174 198 74 254 237 257 42 
142 7 72 268 362 60 353 219 354 
143 7 146 137 105 197 126 327 284 
144 7 275 178 129 69 221 206 308 
145 7 76 336 93 34 335 245 135 
146 7 143 137 284 197 105 356 238 
147 7 80 165 37 368 162 240 180 
148 7 168 218 123 236 36 108 291 
149 7 85 176 182 30 49 79 193 
150 7 292 177 308 5 139 230 206 
151 7 83 21 25 213 286 64 155 
152 7 17 306 374 191 338 38 101 
153 7 358 91 232 243 98 231 134 
154 7 11 170 138 316 209 3 285 
155 7 314 83 270 323 151 296 180 
156 7 328 370 258 67 373 178 334 
157 7 252 242 115 87 313 79 30 
158 7 160 349 23 64 213 103 286 
159 7 303 319 267 9 45 294 320 
160 7 158 23 349 64 103 171 213 
161 7 59 58 279 43 61 202 210 
162 7 37 368 167 240 265 147 165 
163 6 166 175 273 45 304 6 
164 7 360 321 29 239 215 127 187 
165 7 147 368 80 39 167 37 296 
166 6 163 175 273 45 304 6 
167 7 368 162 265 37 165 147 240 
168 7 148 218 123 236 36 108 291 
169 7 310 133 55 305 43 161 208 
170 7 138 11 154 285 316 136 209 
171 7 212 94 160 158 103 23 73 
172 7 66 246 364 97 196 102 274 
173 7 63 269 177 46 355 186 292 
174 7 141 198 42 254 4 74 257 
175 6 166 163 273 45 41 304 
176 7 30 149 79 85 182 49 131 
177 7 292 355 150 173 63 234 205 
178 7 275 144 129 221 334 69 51 
179 7 199 331 251 106 281 361 342 
180 7 80 270 314 296 147 32 165 
181 7 348 367 25 350 192 287 70 
182 7 49 193 149 85 131 176 351 
183 7 315 365 346 344 82 255 234 
184 7 28 70 350 367 287 325 100 
185 7 256 44 271 222 231 194 243 
186 7 269 46 33 63 140 173 191 
187 7 29 215 360 164 321 239 127 
188 7 278 20 14 229 335 10 262 
189 7 121 110 227 27 130 19 256 
190 7 114 266 109 195 6 304 332 
191 7 374 306 33 17 152 101 38 
192 7 323 272 181 65 155 348 297 
193 7 49 182 351 131 238 341 149 
194 7 271 288 22 89 134 222 98 
195 7 109 6 266 304 190 114 320 
196 7 274 339 260 246 66 97 172 
197 7 238 143 351 12 105 146 193 
198 7 141 74 174 257 224 254 330 
199 7 179 331 106 281 361 251 342 
200 7 295 228 31 40 300 56 301 
201 7 253 334 53 51 369 258 290 
202 7 210 279 58 43 81 359 59 
203 7 225 324 245 34 209 316 145 
204 7 282 329 69 26 366 309 48 
205 7 355 234 99 63 344 177 140 
206 7 308 129 67 373 144 275 178 
207 7 107 283 298 92 13 75 364 
208 7 264 55 305 133 128 113 15 
209 7 316 302 138 324 235 225 203 
210 7 279 202 43 58 359 59 81 
211 7 261 235 16 104 302 322 68 
212 7 94 171 317 160 158 103 276 
213 7 64 349 286 23 158 160 103 
214 7 132 32 305 55 180 80 318 
215 7 360 29 164 187 321 239 127 
216 7 248 373 67 370 328 292 327 
217 7 71 226 259 220 366 229 329 
218 7 148 168 236 123 108 291 352 
219 7 268 311 142 353 72 362 60 
220 7 226 369 329 51 217 221 366 
221 7 69 178 51 275 144 329 204 
222 7 19 130 110 227 121 194 256 
223 7 73 347 103 325 90 160 158 
224 7 257 330 198 247 18 359 74 
225 7 324 203 245 209 316 34 9 
226 7 220 329 366 217 71 204 221 
227 7 121 189 110 130 19 27 222 
228 7 295 200 31 300 56 301 77 
229 7 20 14 278 188 97 262 246 
230 7 139 277 5 309 35 326 26 
231 7 243 44 185 232 256 40 358 
232 7 358 243 98 231 134 185 288 
233 7 89 22 333 8 38 101 263 
234 7 205 355 99 344 183 177 237 
235 7 211 261 302 209 322 316 16 
236 7 291 241 352 123 148 371 36 
237 7 254 141 99 344 74 174 8 
238 7 197 351 12 193 143 131 341 
239 7 164 321 360 127 29 95 215 
240 7 106 37 361 162 331 368 147 
241 7 291 371 352 236 122 357 340 
242 7 115 87 252 157 75 313 107 
243 7 231 44 232 185 358 40 256 
244 7 125 293 78 249 84 239 95 
245 7 34 203 135 324 225 145 336 
246 7 97 66 172 96 14 274 196 
247 7 18 257 330 224 24 81 119 
248 7 216 126 327 370 363 46 373 
249 7 84 293 135 125 78 244 117 
250 7 57 322 68 261 16 235 104 
251 7 331 179 199 106 361 240 162 
252 7 157 115 242 87 313 75 79 
253 7 201 53 258 334 118 51 290 
254 7 237 141 174 74 198 99 344 
255 7 346 116 74 183 120 365 299 
256 7 44 185 110 189 222 121 19 
257 7 224 198 247 330 18 174 141 
258 7 118 253 334 201 156 53 12 
259 7 71 60 353 217 142 72 262 
260 7 274 196 78 339 244 96 125 
261 7 211 16 322 104 68 235 302 
262 7 10 229 353 188 259 20 60 
263 7 8 233 140 99 101 89 333 
264 7 208 55 305 128 133 113 15 
265 7 167 162 368 37 165 251 240 
266 7 190 195 114 109 304 6 332 
267 7 159 9 319 303 294 136 225 
268 7 219 142 353 72 60 362 311 
269 7 46 186 173 63 140 33 177 
270 7 296 314 39 180 21 155 165 
271 7 194 288 134 98 22 185 222 
272 7 65 297 345 192 113 52 41 
273 6 166 163 175 304 6 297 
274 7 196 339 260 246 66 96 97 
275 7 144 178 129 221 69 206 308 
276 7 317 94 212 171 90 73 103 
277 7 230 309 35 139 326 26 5 
278 7 14 20 97 188 229 96 93 
279 7 210 43 202 58 359 59 161 
280 7 312 372 15 311 52 41 219 
281 7 361 340 199 106 342 179 331 
282 7 26 309 204 326 69 277 35 
283 7 13 207 298 92 107 364 62 
284 7 356 146 143 137 126 105 197 
285 7 136 294 9 170 3 138 267 
286 7 213 64 349 23 158 160 25 
287 7 100 70 348 184 28 367 350 
288 7 134 271 98 194 22 89 333 
289 7 88 47 354 299 120 50 111 
290 7 102 53 364 369 298 207 201 
291 7 352 371 241 236 108 122 357 
292 7 177 150 308 206 173 67 373 
293 7 125 244 249 84 78 117 135 
294 7 136 9 285 267 319 159 225 
295 7 228 200 31 300 56 301 77 
296 7 270 39 21 314 165 180 80 
297 6 272 65 345 41 113 52 
298 7 364 13 283 207 102 290 92 
299 7 120 88 50 116 111 289 82 
300 7 56 301 31 77 228 108 112 
301 7 56 300 31 77 119 112 24 
302 7 209 235 211 316 343 117 261 
303 7 159 319 45 267 9 163 166 
304 6 6 195 266 273 109 332 
305 7 55 264 208 128 133 310 214 
306 7 374 191 152 17 33 38 101 
307 7 2 356 85 149 49 182 284 
308 7 206 129 150 144 5 275 292 
309 7 277 26 282 326 35 230 139 
310 7 169 133 55 305 208 264 214 
311 7 219 268 312 280 353 372 15 
312 7 280 311 372 10 15 219 353 
313 7 115 75 252 92 242 107 157 
314 7 155 270 180 296 83 39 80 
315 7 365 82 183 337 50 346 139 
316 7 209 138 302 324 225 235 170 
317 7 94 212 276 171 160 73 158 
318 7 61 361 122 281 357 106 340 
319 7 159 303 267 320 9 294 45 
320 7 319 6 109 195 159 294 9 
321 7 29 164 360 239 215 187 127 
322 7 68 261 16 104 211 57 235 
323 7 192 155 128 83 314 65 272 
324 7 225 203 245 209 316 34 9 
325 7 350 184 367 223 28 347 286 
326 7 26 35 309 124 277 282 337 
327 7 126 363 137 105 143 370 146 
328 7 370 373 67 156 206 363 129 
329 7 204 366 226 282 69 221 48 
330 7 224 81 257 247 359 202 18 
331 7 179 199 106 251 361 240 281 
332 6 7 304 266 54 273 114 
333 7 233 38 22 89 101 338 288 
334 7 201 51 253 178 258 221 53 
335 7 76 93 145 336 278 188 34 
336 7 76 93 145 335 34 96 135 
337 7 35 86 326 124 82 277 26 
338 7 17 152 38 333 101 134 91 
339 7 196 274 260 62 13 283 364 
340 7 281 342 122 36 241 361 199 
341 7 131 351 193 87 12 49 182 
342 7 36 340 281 199 123 179 236 
343 7 117 375 84 249 302 211 293 
344 7 183 346 237 99 234 254 74 
345 7 52 113 65 41 297 15 272 
346 7 255 183 344 74 116 365 315 
347 7 223 73 325 90 103 158 160 
348 7 287 100 181 367 70 54 350 
349 7 64 213 23 158 160 286 103 
350 7 367 184 70 325 28 25 181 
351 7 238 193 131 12 197 341 49 
352 7 291 371 241 236 108 112 119 
353 7 60 268 142 219 72 311 362 
354 7 47 289 362 72 88 142 268 
355 7 205 234 177 63 99 173 150 
356 7 284 146 307 143 2 49 137 
357 7 122 61 241 340 371 318 59 
358 7 232 243 231 153 40 44 98 
359 7 210 202 279 43 330 224 111 
360 7 164 29 321 215 239 127 187 
361 7 106 281 240 199 331 179 340 
362 7 72 142 354 60 268 47 353 
363 7 327 105 126 137 370 143 328 
364 7 298 102 13 283 290 207 92 
365 7 315 82 183 50 346 337 255 
366 7 329 204 48 226 282 26 71 
367 7 350 184 25 181 70 28 325 
368 7 162 37 167 165 147 240 265 
369 7 51 290 102 220 53 201 334 
370 7 328 363 373 67 156 327 105 
371 7 352 291 241 236 122 357 108 
372 7 15 280 52 312 113 311 345 
373 7 67 328 206 370 156 308 129 
374 7 191 306 33 17 152 38 101 
375 7 117 343 84 104 16 211 249 
DEPOT_SECTION
   1
   -1
EOF
