NAME :  X-n393-kX-w156-c9.cctp
COMMENT : 	Adapted by Maziero, Usberti and Cavellucci from the Uchoa, Pecin, Pessoa, Poggi, Subramanian, and Vidal (2013)
TYPE :  CCTP
DIMENSION :    340
EDGE_WEIGHT_TYPE : 	EUC_2D	
CAPACITY : 	78
VERTICES_WITHIN_COVERAGE :  9
VERTICES_WITH_DEMAND : 	156
NODE_COORD_SECTION
1 500 500
2 113 195
3 377 239
4 364 39
5 306 316
6 795 18
7 803 771
8 845 880
9 440 450
10 284 370
11 785 211
12 860 318
13 170 621
14 180 957
15 707 913
16 861 505
17 546 186
18 910 997
19 403 865
20 373 357
21 317 394
22 225 729
23 666 199
24 505 56
25 436 885
26 711 906
27 736 688
28 439 550
29 561 186
30 276 294
31 810 244
32 939 53
33 551 220
34 662 179
35 537 420
36 843 543
37 970 798
38 933 860
39 518 910
40 571 265
41 583 119
42 985 150
43 810 48
44 620 230
45 859 278
46 40 882
47 419 310
48 63 713
49 471 758
50 151 399
51 808 811
52 54 756
53 796 931
54 698 66
55 391 808
56 324 665
57 409 562
58 886 760
59 36 197
60 682 514
61 596 305
62 252 372
63 564 16
64 515 641
65 839 206
66 160 313
67 248 945
68 288 150
69 326 201
70 301 6
71 316 800
72 45 410
73 449 618
74 196 391
75 448 41
76 908 558
77 302 672
78 694 425
79 277 270
80 575 993
81 183 972
82 469 577
83 890 727
84 826 883
85 91 15
86 526 335
87 325 793
88 15 658
89 231 693
90 698 701
91 76 488
92 578 518
93 510 785
94 146 694
95 589 978
96 526 926
97 36 459
98 859 847
99 762 64
100 949 109
101 624 779
102 152 709
103 448 691
104 516 564
105 289 195
106 172 345
107 952 443
108 974 550
109 751 49
110 391 837
111 531 44
112 647 594
113 931 76
114 111 779
115 898 863
116 939 987
117 455 898
118 961 784
119 717 403
120 829 284
121 152 529
122 398 980
123 105 812
124 377 812
125 554 874
126 209 508
127 134 378
128 221 155
129 396 228
130 7 29
131 327 28
132 75 671
133 115 779
134 734 216
135 162 834
136 234 977
137 353 101
138 159 260
139 569 501
140 68 458
141 453 663
142 382 366
143 430 883
144 528 767
145 965 322
146 328 254
147 82 468
148 642 318
149 135 828
150 252 663
151 816 889
152 13 795
153 422 318
154 236 845
155 373 417
156 329 646
157 979 824
158 692 65
159 450 466
160 851 582
161 166 765
162 857 111
163 194 87
164 918 84
165 48 452
166 297 780
167 710 476
168 449 898
169 891 587
170 410 387
171 550 467
172 441 531
173 661 762
174 918 264
175 224 33
176 469 760
177 534 961
178 371 255
179 694 794
180 185 127
181 384 56
182 650 223
183 874 501
184 822 439
185 289 312
186 462 546
187 130 555
188 686 269
189 32 885
190 843 617
191 786 493
192 665 455
193 598 317
194 655 343
195 613 491
196 726 602
197 674 47
198 92 650
199 411 577
200 173 977
201 94 672
202 292 532
203 311 839
204 133 564
205 385 729
206 370 870
207 357 692
208 407 548
209 443 554
210 231 820
211 30 771
212 567 538
213 405 435
214 210 861
215 410 744
216 190 760
217 354 936
218 91 824
219 231 907
220 237 968
221 219 878
222 7 685
223 376 577
224 163 999
225 313 598
226 223 937
227 478 633
228 525 520
229 153 851
230 459 720
231 185 792
232 461 450
233 486 905
234 90 715
235 540 632
236 411 631
237 231 915
238 371 748
239 221 739
240 131 657
241 402 893
242 176 632
243 60 851
244 152 947
245 176 969
246 182 936
247 348 466
248 301 850
249 23 856
250 104 694
251 293 819
252 195 586
253 309 835
254 237 919
255 255 851
256 193 757
257 477 756
258 409 613
259 393 593
260 107 651
261 287 981
262 190 940
263 378 861
264 182 951
265 426 810
266 87 697
267 405 632
268 459 591
269 61 921
270 216 656
271 80 646
272 200 801
273 302 631
274 441 599
275 164 797
276 96 862
277 249 700
278 418 772
279 262 426
280 208 752
281 222 603
282 163 784
283 130 834
284 488 798
285 8 895
286 179 574
287 419 649
288 459 337
289 284 864
290 416 849
291 19 788
292 262 763
293 108 521
294 154 594
295 362 575
296 402 509
297 221 833
298 147 823
299 227 552
300 429 876
301 103 756
302 513 819
303 359 853
304 499 576
305 452 633
306 292 683
307 173 991
308 466 341
309 32 909
310 28 619
311 567 639
312 230 947
313 149 943
314 295 460
315 223 992
316 578 423
317 20 532
318 522 601
319 105 726
320 413 893
321 180 989
322 223 699
323 399 829
324 361 401
325 195 922
326 349 956
327 172 990
328 283 760
329 135 861
330 202 999
331 339 591
332 140 631
333 117 860
334 431 871
335 175 491
336 293 729
337 126 772
338 51 632
339 334 809
340 383 878
DEMAND_SECTION
2 5
3 5
4 7
5 9
6 7
7 8
8 5
9 7
10 8
11 7
12 9
13 9
14 10
15 6
16 7
17 9
18 8
19 7
20 6
21 9
22 5
23 5
24 10
25 6
26 6
27 9
28 6
29 6
30 7
31 9
32 6
33 6
34 9
35 5
36 7
37 5
38 8
39 8
40 6
41 5
42 9
43 7
44 10
45 9
46 7
47 10
48 9
49 7
50 9
51 9
52 8
53 8
54 9
55 5
56 8
57 8
58 6
59 9
60 10
61 9
62 10
63 7
64 7
65 7
66 10
67 9
68 8
69 6
70 5
71 5
72 6
73 8
74 5
75 7
76 6
77 9
78 9
79 6
80 9
81 9
82 10
83 10
84 10
85 6
86 5
87 10
88 7
89 10
90 10
91 6
92 6
93 10
94 7
95 7
96 5
97 5
98 7
99 5
100 10
101 6
102 10
103 8
104 8
105 7
106 5
107 8
108 7
109 6
110 6
111 7
112 5
113 8
114 7
115 9
116 7
117 5
118 7
119 10
120 8
121 6
122 6
123 7
124 10
125 6
126 5
127 5
128 8
129 7
130 8
131 5
132 6
133 8
134 7
135 8
136 8
137 8
138 7
139 9
140 8
141 7
142 10
143 6
144 5
145 10
146 6
147 6
148 10
149 5
150 5
151 9
152 9
153 6
154 10
155 7
156 9
157 9
COVERAGE_SECTION
2 9 59 138 180 128 66 163 106 105 79 
3 9 178 129 146 69 47 153 105 5 79 
4 9 181 131 137 70 75 68 175 24 69 
5 9 185 30 79 10 146 62 20 21 178 
6 9 43 109 99 54 162 158 197 164 32 
7 9 51 58 98 83 27 179 84 8 151 
8 9 84 151 98 115 53 51 38 7 58 
9 9 159 232 213 170 296 155 172 247 324 
10 9 62 21 5 185 279 30 324 20 74 
11 9 31 134 65 120 45 188 23 162 34 
12 9 45 120 174 31 145 65 184 11 107 
13 9 242 294 332 252 286 240 281 270 204 
14 8 264 245 81 262 200 246 244 321 
15 9 26 53 151 179 84 95 8 51 80 
16 9 183 36 76 191 184 160 169 107 190 
17 9 29 33 41 40 44 182 34 23 61 
18 9 116 53 8 115 38 84 151 98 157 
19 9 290 340 263 241 300 334 110 320 143 
20 9 142 324 170 155 153 47 21 5 213 
21 9 10 324 155 279 20 62 314 142 247 
22 9 239 280 322 89 277 256 216 292 328 
23 9 34 182 44 134 188 29 41 40 33 
24 9 111 75 63 41 181 17 4 29 137 
25 9 143 300 334 168 117 320 241 19 290 
26 9 15 53 151 179 84 8 51 95 173 
27 9 90 196 173 7 179 190 112 51 101 
28 9 209 172 186 57 208 199 82 268 274 
29 9 17 33 41 44 40 182 34 23 61 
30 9 185 79 5 146 10 62 105 178 69 
31 9 11 120 65 45 134 12 174 188 162 
32 9 113 164 100 162 42 43 6 99 65 
33 9 17 29 40 44 61 182 41 193 23 
34 9 23 182 44 134 188 41 29 17 33 
35 9 316 171 232 86 139 159 228 9 195 
36 9 160 16 183 169 76 190 191 184 108 
37 9 118 157 38 58 115 83 98 8 51 
38 9 115 157 37 98 118 8 84 58 151 
39 9 96 233 125 177 117 168 25 302 143 
40 9 61 33 193 44 29 17 86 148 182 
41 9 29 17 111 34 24 63 33 23 197 
42 9 100 113 164 32 174 162 65 145 45 
43 9 6 99 109 162 54 164 158 113 32 
44 9 182 23 40 34 33 29 188 61 17 
45 9 120 12 31 174 65 11 145 134 184 
46 7 189 309 249 285 243 269 276 
47 9 153 288 308 20 142 178 170 3 129 
48 9 234 266 52 132 319 250 201 301 222 
49 9 176 257 230 284 93 278 144 215 265 
50 9 127 74 106 66 335 147 140 62 72 
51 9 7 98 84 8 151 58 115 179 83 
52 9 211 48 291 301 234 152 319 114 133 
53 9 151 84 8 26 15 98 51 115 18 
54 9 158 197 109 99 6 43 34 41 23 
55 9 124 323 110 265 278 290 263 303 339 
56 9 156 77 306 273 207 225 336 150 331 
57 9 208 199 28 209 259 223 172 274 295 
58 9 83 118 7 98 37 51 115 38 157 
59 9 2 138 180 66 130 85 128 163 106 
60 9 167 192 195 112 78 196 92 191 139 
61 9 193 40 148 194 86 44 33 188 182 
62 9 10 279 74 21 185 5 30 106 314 
63 9 111 24 41 197 75 158 54 29 17 
64 9 235 227 318 311 305 141 304 73 268 
65 9 31 11 45 120 162 174 134 12 164 
66 9 106 138 127 50 74 62 30 79 2 
67 9 312 220 226 254 237 136 219 261 315 
68 9 105 69 128 137 180 146 163 79 3 
69 9 105 146 3 68 178 129 79 137 30 
70 9 131 4 175 181 137 163 68 75 180 
71 8 87 339 166 251 253 203 248 328 
72 9 165 97 140 147 91 127 50 317 293 
73 9 305 274 268 227 236 258 287 141 82 
74 9 50 106 62 127 279 66 10 335 126 
75 9 24 181 111 4 137 63 131 70 41 
76 9 169 160 108 183 36 16 190 107 191 
77 9 306 56 156 273 150 336 207 277 89 
78 9 119 192 167 60 194 195 191 316 148 
79 9 30 185 146 5 105 69 178 10 3 
80 9 95 177 96 39 125 233 117 15 168 
81 9 245 200 14 321 264 307 327 262 330 
82 9 268 304 186 209 274 28 73 104 172 
83 9 58 118 7 37 51 190 98 157 115 
84 9 151 8 98 53 51 115 38 7 26 
85 9 130 163 175 180 2 59 128 70 131 
86 9 308 288 193 61 40 35 316 153 47 
87 8 71 339 166 251 253 203 328 124 
88 9 222 310 338 132 271 48 198 201 266 
89 9 322 277 22 150 270 239 306 280 336 
90 9 27 173 179 196 101 112 7 311 51 
91 7 147 140 165 293 97 317 72 
92 9 139 212 195 228 171 104 316 304 318 
93 9 144 284 302 257 49 176 230 265 278 
94 9 102 240 250 319 201 260 266 234 332 
95 9 80 177 96 39 125 233 15 26 117 
96 9 39 177 233 125 117 95 168 80 25 
97 7 165 140 147 91 72 317 293 
98 9 8 115 84 151 51 38 58 7 53 
99 9 109 43 6 54 158 197 162 11 34 
100 9 113 164 42 32 162 65 43 174 6 
101 9 173 179 144 90 93 125 302 284 27 
102 9 94 250 319 240 161 234 256 216 266 
103 9 141 230 287 305 215 227 236 49 257 
104 9 304 318 228 82 186 212 268 235 209 
105 9 69 68 146 79 128 3 30 178 129 
106 9 66 127 74 50 62 138 10 30 279 
107 9 183 108 16 145 76 184 36 12 169 
108 9 76 169 107 183 16 160 36 190 184 
109 9 99 6 54 43 158 197 162 34 11 
110 9 323 263 290 55 124 19 303 206 340 
111 9 24 63 75 41 17 197 29 181 158 
112 9 196 60 311 212 92 195 235 90 139 
113 9 164 32 100 162 42 43 6 65 99 
114 9 133 337 301 123 218 282 319 149 275 
115 9 38 98 8 84 151 157 37 118 51 
116 9 18 38 115 8 53 84 151 98 157 
117 9 168 25 143 233 300 334 320 241 19 
118 9 37 157 58 38 83 115 98 8 51 
119 9 78 167 192 194 184 148 191 60 195 
120 9 45 31 12 65 11 174 134 145 188 
121 9 187 204 335 293 286 126 294 252 299 
122 5 326 217 241 320 168 
123 9 218 283 114 133 149 298 337 333 276 
124 9 55 323 110 339 303 263 265 290 87 
125 9 39 96 302 233 177 93 284 117 168 
126 8 335 299 121 286 252 202 187 204 
127 9 50 106 74 66 72 140 147 165 62 
128 9 180 68 163 105 2 69 138 175 79 
129 9 3 178 146 69 47 153 105 5 79 
130 9 85 59 163 2 180 175 128 138 70 
131 9 70 4 181 137 175 75 68 163 128 
132 9 201 271 198 266 250 260 48 234 338 
133 9 114 337 301 123 282 218 275 149 161 
134 9 11 23 188 31 34 182 65 44 120 
135 6 229 298 149 283 275 329 
136 9 220 315 312 67 330 226 81 261 321 
137 9 181 4 131 68 69 70 75 105 129 
138 9 66 2 106 79 127 30 128 74 180 
139 9 92 212 171 195 228 316 104 35 304 
140 9 147 165 91 97 72 293 317 50 127 
141 9 103 305 287 227 73 236 230 267 274 
142 9 20 170 324 155 153 47 21 213 288 
143 9 25 300 334 320 168 117 241 19 290 
144 9 93 284 257 302 49 176 230 101 103 
145 9 174 12 45 107 120 65 42 31 184 
146 9 178 3 69 79 5 30 185 105 129 
147 8 140 91 165 97 293 72 317 121 
148 9 194 193 61 188 40 44 182 119 86 
149 8 283 298 135 229 329 123 333 275 
150 9 89 270 277 306 322 77 273 281 22 
151 9 84 8 53 98 51 115 26 15 7 
152 9 291 211 52 249 243 218 46 189 123 
153 9 47 288 308 142 20 170 178 3 129 
154 9 297 255 210 214 221 289 272 219 251 
155 9 324 213 170 142 247 20 21 9 314 
156 9 56 273 77 225 306 207 331 267 295 
157 9 37 118 38 115 58 98 83 8 84 
158 9 54 197 109 99 6 34 43 41 23 
159 9 9 232 213 296 172 186 28 209 170 
160 9 190 36 169 76 16 183 191 108 196 
161 9 282 216 256 275 231 337 280 272 133 
162 9 164 43 113 100 65 32 99 6 11 
163 9 180 175 128 68 85 70 2 105 131 
164 9 113 32 100 162 42 43 6 65 99 
165 8 97 140 147 72 91 317 293 127 
166 9 328 71 87 251 292 339 336 253 203 
167 9 60 192 78 119 191 195 184 196 112 
168 9 117 25 143 300 334 320 233 241 19 
169 9 76 160 190 36 16 183 108 83 191 
170 9 142 20 155 213 324 9 153 288 308 
171 9 139 35 316 92 228 195 212 232 159 
172 9 28 209 186 208 57 296 82 199 268 
173 9 101 179 90 27 144 7 26 93 51 
174 9 45 145 12 120 65 31 42 11 100 
175 9 163 70 180 131 128 68 85 4 137 
176 9 49 257 230 284 93 278 144 215 265 
177 9 96 80 39 95 233 125 117 168 25 
178 9 3 129 146 69 47 153 5 79 185 
179 9 173 101 90 7 26 27 51 15 151 
180 9 163 128 2 175 68 105 138 85 69 
181 9 4 137 131 75 70 24 68 111 69 
182 9 23 44 34 188 134 40 148 29 61 
183 9 16 36 76 184 160 169 191 107 108 
184 9 191 16 183 36 119 167 12 78 107 
185 9 5 30 79 10 62 146 21 20 178 
186 9 209 28 172 82 268 304 57 208 104 
187 5 204 121 293 294 286 
188 9 182 148 134 23 44 194 34 61 193 
189 7 46 309 285 249 243 269 276 
190 9 160 169 36 76 16 196 83 183 27 
191 9 184 16 36 167 183 60 160 119 78 
192 9 78 167 60 195 119 316 139 92 194 
193 9 61 148 40 194 86 44 188 182 33 
194 9 148 193 61 188 119 78 316 192 40 
195 9 92 139 192 212 171 60 316 228 167 
196 9 112 27 60 90 190 191 160 167 36 
197 9 158 54 109 99 63 41 6 34 43 
198 8 271 260 201 132 240 338 250 266 
199 9 57 259 208 223 258 274 28 209 295 
200 8 245 81 327 307 321 14 224 264 
201 9 132 198 250 260 266 271 240 234 48 
202 6 299 225 314 331 295 126 
203 7 253 248 251 289 339 71 87 
204 7 187 294 121 286 293 252 332 
205 9 238 215 207 278 103 230 55 124 287 
206 6 263 340 303 19 110 241 
207 9 56 205 156 238 77 306 215 336 287 
208 9 57 199 28 209 172 296 223 259 295 
209 9 28 186 172 57 82 208 199 268 274 
210 9 297 154 272 255 214 231 221 251 292 
211 9 291 52 152 48 301 114 218 234 123 
212 9 92 139 228 104 195 171 318 304 112 
213 9 155 9 170 159 324 232 247 142 296 
214 7 221 297 154 210 255 219 135 
215 9 205 278 238 230 176 49 103 55 257 
216 9 256 280 161 231 282 239 272 275 22 
217 2 326 122 
218 8 123 276 283 243 149 333 114 133 
219 7 237 254 221 226 325 312 67 
220 9 136 312 67 315 226 330 254 261 237 
221 7 214 219 154 237 254 255 297 
222 9 88 48 132 310 338 266 271 52 201 
223 8 295 259 199 57 331 208 258 267 
224 6 307 327 321 200 245 81 
225 7 331 273 156 295 223 56 202 
226 8 312 237 254 67 219 325 262 220 
227 9 305 73 64 141 268 274 318 82 287 
228 9 104 212 139 92 171 304 186 82 318 
229 5 135 329 149 283 298 
230 9 103 49 257 176 215 141 278 205 287 
231 9 272 275 282 216 161 256 280 135 298 
232 9 159 9 213 170 35 172 296 171 155 
233 9 39 117 168 96 25 143 300 334 177 
234 9 266 319 250 48 201 301 132 52 94 
235 9 64 311 318 227 304 104 305 82 268 
236 9 267 258 287 73 305 259 274 141 199 
237 7 254 219 226 312 67 325 221 
238 9 205 215 278 207 55 87 124 339 71 
239 9 22 280 256 216 322 89 277 292 161 
240 9 260 332 94 198 201 250 242 271 13 
241 9 320 340 19 143 300 25 334 206 263 
242 9 13 332 294 270 252 240 281 286 94 
243 8 46 249 276 218 189 333 123 309 
244 3 313 14 264 
245 9 81 200 14 264 321 327 307 262 224 
246 7 262 264 325 14 244 245 313 
247 7 314 155 213 324 296 21 202 
248 6 203 253 289 251 255 71 
249 9 189 46 243 285 309 152 291 276 218 
250 9 266 201 234 319 132 94 260 48 198 
251 9 253 203 71 248 166 87 339 289 255 
252 9 286 281 294 13 299 242 204 121 332 
253 7 203 248 251 71 339 289 87 
254 7 237 219 226 67 312 325 221 
255 8 154 289 297 210 221 214 248 251 
256 9 216 280 161 239 231 282 22 272 275 
257 9 49 176 230 284 93 144 278 215 103 
258 9 236 267 259 274 199 287 73 305 223 
259 9 223 199 258 57 295 267 236 208 274 
260 8 198 201 240 271 132 332 250 266 
261 7 220 67 136 315 312 326 226 
262 7 246 264 325 14 245 81 226 
263 7 206 340 303 19 110 323 241 
264 8 14 262 246 245 81 200 244 325 
265 9 323 55 278 290 110 124 19 334 284 
266 9 250 234 201 48 132 319 198 260 271 
267 9 236 258 287 259 73 305 274 199 141 
268 9 82 274 73 209 304 305 186 28 227 
269 4 309 46 189 285 
270 9 150 89 322 242 281 277 13 252 22 
271 8 198 132 260 201 338 266 240 250 
272 9 231 210 275 297 282 216 256 135 161 
273 9 156 225 56 77 306 331 150 207 295 
274 9 268 73 258 82 305 199 236 209 259 
275 9 282 231 298 161 272 135 149 216 337 
276 6 333 218 243 329 283 123 
277 9 89 322 150 22 306 239 336 270 77 
278 9 215 265 55 176 238 205 49 124 323 
279 9 314 62 10 21 74 247 126 324 335 
280 9 256 239 216 22 161 231 272 282 292 
281 9 252 299 286 270 242 13 150 294 273 
282 9 275 161 231 216 337 256 272 298 133 
283 8 149 298 329 229 333 135 123 218 
284 9 93 302 176 49 257 144 265 278 230 
285 6 189 309 46 249 269 243 
286 9 252 294 204 13 121 281 187 299 242 
287 9 236 267 141 258 305 73 103 274 227 
288 9 308 153 47 86 170 142 20 213 232 
289 6 248 255 203 253 251 154 
290 9 19 323 334 110 300 143 263 265 25 
291 9 152 211 52 249 243 218 48 123 301 
292 9 328 166 336 239 22 280 251 277 71 
293 7 187 121 91 204 147 335 140 
294 9 13 286 204 332 252 242 187 121 240 
295 7 223 331 259 57 199 208 225 
296 8 208 172 57 28 209 159 199 247 
297 9 210 154 214 255 272 221 231 135 275 
298 9 149 135 283 229 275 329 282 123 333 
299 8 252 126 281 286 202 121 335 294 
300 9 334 143 25 320 19 168 290 241 117 
301 9 114 133 337 319 234 52 123 48 266 
302 9 284 93 144 125 257 49 176 265 233 
303 5 206 263 340 110 124 
304 9 104 82 318 268 186 209 227 228 274 
305 9 73 227 141 274 287 236 268 258 267 
306 9 77 56 150 277 336 156 273 89 207 
307 7 327 321 224 200 81 245 330 
308 9 288 153 47 86 170 142 20 35 232 
309 6 189 46 285 269 249 243 
310 6 338 88 271 222 132 198 
311 9 235 64 318 227 104 112 304 212 305 
312 9 226 67 220 254 136 237 219 262 325 
313 2 244 14 
314 6 279 247 21 202 155 324 
315 9 136 330 220 321 81 312 307 327 200 
316 9 35 171 195 139 192 92 86 193 194 
317 6 91 97 165 310 140 147 
318 9 304 235 104 64 227 82 311 268 73 
319 9 234 301 250 266 48 102 337 94 114 
320 9 241 143 300 25 334 19 340 168 117 
321 8 307 327 200 81 224 245 330 14 
322 9 89 277 22 239 270 150 280 256 216 
323 9 110 55 290 124 265 19 263 303 206 
324 9 155 142 21 20 170 213 247 10 314 
325 6 246 262 226 264 237 14 
326 3 217 122 261 
327 7 307 321 200 224 81 245 330 
328 9 292 166 336 71 87 251 239 22 277 
329 4 333 229 283 149 
330 9 315 321 307 327 81 200 136 224 245 
331 6 225 295 223 259 273 156 
332 8 240 13 242 260 294 198 201 271 
333 5 329 276 283 149 229 
334 9 300 143 25 290 320 19 168 117 241 
335 9 126 121 293 187 299 286 204 50 147 
336 9 328 292 306 166 277 77 22 56 87 
337 9 133 114 301 282 161 123 275 319 298 
338 7 310 271 88 198 132 201 260 
339 8 87 71 253 203 251 124 166 303 
340 7 206 263 19 241 320 303 110 
DEPOT_SECTION
   1
   -1
EOF
