NAME :  X-n393-kX-w156-c7.cctp
COMMENT : 	Adapted by Maziero, Usberti and Cavellucci from the Uchoa, Pecin, Pessoa, Poggi, Subramanian, and Vidal (2013)
TYPE :  CCTP
DIMENSION :    324
EDGE_WEIGHT_TYPE : 	EUC_2D	
CAPACITY : 	78
VERTICES_WITHIN_COVERAGE :  7
VERTICES_WITH_DEMAND : 	156
NODE_COORD_SECTION
1 500 500
2 113 195
3 377 239
4 364 39
5 306 316
6 795 18
7 803 771
8 845 880
9 440 450
10 284 370
11 785 211
12 860 318
13 170 621
14 180 957
15 707 913
16 861 505
17 546 186
18 910 997
19 403 865
20 373 357
21 317 394
22 225 729
23 666 199
24 505 56
25 436 885
26 711 906
27 736 688
28 439 550
29 561 186
30 276 294
31 810 244
32 939 53
33 551 220
34 662 179
35 537 420
36 843 543
37 970 798
38 933 860
39 518 910
40 571 265
41 583 119
42 985 150
43 810 48
44 620 230
45 859 278
46 40 882
47 419 310
48 63 713
49 471 758
50 151 399
51 808 811
52 54 756
53 796 931
54 698 66
55 391 808
56 324 665
57 409 562
58 886 760
59 36 197
60 682 514
61 596 305
62 252 372
63 564 16
64 515 641
65 839 206
66 160 313
67 248 945
68 288 150
69 326 201
70 301 6
71 316 800
72 45 410
73 449 618
74 196 391
75 448 41
76 908 558
77 302 672
78 694 425
79 277 270
80 575 993
81 183 972
82 469 577
83 890 727
84 826 883
85 91 15
86 526 335
87 325 793
88 15 658
89 231 693
90 698 701
91 76 488
92 578 518
93 510 785
94 146 694
95 589 978
96 526 926
97 36 459
98 859 847
99 762 64
100 949 109
101 624 779
102 152 709
103 448 691
104 516 564
105 289 195
106 172 345
107 952 443
108 974 550
109 751 49
110 391 837
111 531 44
112 647 594
113 931 76
114 111 779
115 898 863
116 939 987
117 455 898
118 961 784
119 717 403
120 829 284
121 152 529
122 398 980
123 105 812
124 377 812
125 554 874
126 209 508
127 134 378
128 221 155
129 396 228
130 7 29
131 327 28
132 75 671
133 115 779
134 734 216
135 162 834
136 234 977
137 353 101
138 159 260
139 569 501
140 68 458
141 453 663
142 382 366
143 430 883
144 528 767
145 965 322
146 328 254
147 82 468
148 642 318
149 135 828
150 252 663
151 816 889
152 13 795
153 422 318
154 236 845
155 373 417
156 329 646
157 979 824
158 692 65
159 450 466
160 851 582
161 857 111
162 194 87
163 918 84
164 48 452
165 297 780
166 710 476
167 449 898
168 891 587
169 410 387
170 550 467
171 441 531
172 661 762
173 918 264
174 224 33
175 469 760
176 534 961
177 371 255
178 694 794
179 185 127
180 384 56
181 650 223
182 874 501
183 822 439
184 289 312
185 462 546
186 130 555
187 686 269
188 32 885
189 843 617
190 786 493
191 665 455
192 598 317
193 655 343
194 613 491
195 726 602
196 674 47
197 92 650
198 411 577
199 173 977
200 94 672
201 311 839
202 133 564
203 385 729
204 370 870
205 357 692
206 407 548
207 443 554
208 231 820
209 30 771
210 567 538
211 405 435
212 210 861
213 410 744
214 91 824
215 237 968
216 219 878
217 7 685
218 376 577
219 313 598
220 223 937
221 478 633
222 525 520
223 153 851
224 459 720
225 461 450
226 486 905
227 90 715
228 540 632
229 411 631
230 231 915
231 371 748
232 221 739
233 131 657
234 402 893
235 176 632
236 60 851
237 176 969
238 182 936
239 348 466
240 23 856
241 104 694
242 293 819
243 195 586
244 309 835
245 237 919
246 255 851
247 193 757
248 477 756
249 409 613
250 393 593
251 107 651
252 287 981
253 190 940
254 378 861
255 182 951
256 426 810
257 87 697
258 405 632
259 459 591
260 61 921
261 216 656
262 80 646
263 302 631
264 441 599
265 164 797
266 249 700
267 418 772
268 262 426
269 208 752
270 222 603
271 130 834
272 488 798
273 8 895
274 179 574
275 419 649
276 459 337
277 416 849
278 19 788
279 262 763
280 108 521
281 154 594
282 362 575
283 402 509
284 221 833
285 147 823
286 227 552
287 429 876
288 103 756
289 513 819
290 359 853
291 499 576
292 452 633
293 292 683
294 173 991
295 466 341
296 32 909
297 28 619
298 567 639
299 230 947
300 295 460
301 223 992
302 578 423
303 20 532
304 522 601
305 105 726
306 413 893
307 180 989
308 223 699
309 399 829
310 361 401
311 349 956
312 172 990
313 283 760
314 202 999
315 339 591
316 140 631
317 117 860
318 431 871
319 175 491
320 293 729
321 126 772
322 51 632
323 334 809
324 383 878
DEMAND_SECTION
2 5
3 5
4 7
5 9
6 7
7 8
8 5
9 7
10 8
11 7
12 9
13 9
14 10
15 6
16 7
17 9
18 8
19 7
20 6
21 9
22 5
23 5
24 10
25 6
26 6
27 9
28 6
29 6
30 7
31 9
32 6
33 6
34 9
35 5
36 7
37 5
38 8
39 8
40 6
41 5
42 9
43 7
44 10
45 9
46 7
47 10
48 9
49 7
50 9
51 9
52 8
53 8
54 9
55 5
56 8
57 8
58 6
59 9
60 10
61 9
62 10
63 7
64 7
65 7
66 10
67 9
68 8
69 6
70 5
71 5
72 6
73 8
74 5
75 7
76 6
77 9
78 9
79 6
80 9
81 9
82 10
83 10
84 10
85 6
86 5
87 10
88 7
89 10
90 10
91 6
92 6
93 10
94 7
95 7
96 5
97 5
98 7
99 5
100 10
101 6
102 10
103 8
104 8
105 7
106 5
107 8
108 7
109 6
110 6
111 7
112 5
113 8
114 7
115 9
116 7
117 5
118 7
119 10
120 8
121 6
122 6
123 7
124 10
125 6
126 5
127 5
128 8
129 7
130 8
131 5
132 6
133 8
134 7
135 8
136 8
137 8
138 7
139 9
140 8
141 7
142 10
143 6
144 5
145 10
146 6
147 6
148 10
149 5
150 5
151 9
152 9
153 6
154 10
155 7
156 9
157 9
COVERAGE_SECTION
2 7 59 138 179 128 66 162 106 
3 7 177 129 146 69 47 153 105 
4 7 180 131 137 70 75 68 174 
5 7 184 30 79 10 146 62 20 
6 7 43 109 99 54 161 158 196 
7 7 51 58 98 83 27 178 84 
8 7 84 151 98 115 53 51 38 
9 7 159 225 211 169 283 155 171 
10 7 62 21 5 184 268 30 310 
11 7 31 134 65 120 45 187 23 
12 7 45 120 173 31 145 65 183 
13 7 235 281 316 243 274 233 270 
14 6 255 237 81 253 199 238 
15 7 26 53 151 178 84 95 8 
16 7 182 36 76 190 183 160 168 
17 7 29 33 41 40 44 181 34 
18 7 116 53 8 115 38 84 151 
19 7 277 324 254 234 287 318 110 
20 7 142 310 169 155 153 47 21 
21 7 10 310 155 268 20 62 300 
22 6 232 269 308 89 266 247 
23 7 34 181 44 134 187 29 41 
24 7 111 75 63 41 180 17 4 
25 7 143 287 318 167 117 306 234 
26 7 15 53 151 178 84 8 51 
27 7 90 195 172 7 178 189 112 
28 7 207 171 185 57 206 198 82 
29 7 17 33 41 44 40 181 34 
30 7 184 79 5 146 10 62 105 
31 7 11 120 65 45 134 12 173 
32 7 113 163 100 161 42 43 6 
33 7 17 29 40 44 61 181 41 
34 7 23 181 44 134 187 41 29 
35 7 302 170 225 86 139 159 222 
36 7 160 16 182 168 76 189 190 
37 7 118 157 38 58 115 83 98 
38 7 115 157 37 98 118 8 84 
39 7 96 226 125 176 117 167 25 
40 7 61 33 192 44 29 17 86 
41 7 29 17 111 34 24 63 33 
42 7 100 113 163 32 173 161 65 
43 7 6 99 109 161 54 163 158 
44 7 181 23 40 34 33 29 187 
45 7 120 12 31 173 65 11 145 
46 6 188 296 240 273 236 260 
47 7 153 276 295 20 142 177 169 
48 7 227 257 52 132 305 241 200 
49 7 175 248 224 272 93 267 144 
50 7 127 74 106 66 319 147 140 
51 7 7 98 84 8 151 58 115 
52 7 209 48 278 288 227 152 305 
53 7 151 84 8 26 15 98 51 
54 7 158 196 109 99 6 43 34 
55 7 124 309 110 256 267 277 254 
56 7 156 77 293 263 205 219 320 
57 7 206 198 28 207 250 218 171 
58 7 83 118 7 98 37 51 115 
59 7 2 138 179 66 130 85 128 
60 7 166 191 194 112 78 195 92 
61 7 192 40 148 193 86 44 33 
62 7 10 268 74 21 184 5 30 
63 7 111 24 41 196 75 158 54 
64 7 228 221 304 298 292 141 291 
65 7 31 11 45 120 161 173 134 
66 7 106 138 127 50 74 62 30 
67 6 299 215 220 245 230 136 
68 7 105 69 128 137 179 146 162 
69 7 105 146 3 68 177 129 79 
70 7 131 4 174 180 137 162 68 
71 6 87 323 165 242 244 201 
72 7 164 97 140 147 91 127 50 
73 7 292 264 259 221 229 249 275 
74 7 50 106 62 127 268 66 10 
75 7 24 180 111 4 137 63 131 
76 7 168 160 108 182 36 16 189 
77 7 293 56 156 263 150 320 205 
78 7 119 191 166 60 193 194 190 
79 7 30 184 146 5 105 69 177 
80 7 95 176 96 39 125 226 117 
81 7 237 199 14 307 255 294 312 
82 7 259 291 185 207 264 28 73 
83 7 58 118 7 37 51 189 98 
84 7 151 8 98 53 51 115 38 
85 7 130 162 174 179 2 59 128 
86 7 295 276 192 61 40 35 302 
87 7 71 323 165 242 244 201 313 
88 7 217 297 322 132 262 48 197 
89 7 308 266 22 150 261 232 293 
90 7 27 172 178 195 101 112 7 
91 6 147 140 164 280 97 303 
92 7 139 210 194 222 170 104 302 
93 7 144 272 289 248 49 175 224 
94 7 102 233 241 305 200 251 257 
95 7 80 176 96 39 125 226 15 
96 7 39 176 226 125 117 95 167 
97 7 164 140 147 91 72 303 280 
98 7 8 115 84 151 51 38 58 
99 7 109 43 6 54 158 196 161 
100 7 113 163 42 32 161 65 43 
101 7 172 178 144 90 93 125 289 
102 6 94 241 305 233 227 247 
103 7 141 224 275 292 213 221 229 
104 7 291 304 222 82 185 210 259 
105 7 69 68 146 79 128 3 30 
106 7 66 127 74 50 62 138 10 
107 7 182 108 16 145 76 183 36 
108 7 76 168 107 182 16 160 36 
109 7 99 6 54 43 158 196 161 
110 7 309 254 277 55 124 19 290 
111 7 24 63 75 41 17 196 29 
112 7 195 60 298 210 92 194 228 
113 7 163 32 100 161 42 43 6 
114 6 133 321 288 123 214 305 
115 7 38 98 8 84 151 157 37 
116 7 18 38 115 8 53 84 151 
117 7 167 25 143 226 287 318 306 
118 7 37 157 58 38 83 115 98 
119 7 78 166 191 193 183 148 190 
120 7 45 31 12 65 11 173 134 
121 7 186 202 319 280 274 126 281 
122 3 311 234 306 
123 7 214 271 114 133 149 285 321 
124 7 55 309 110 323 290 254 256 
125 7 39 96 289 226 176 93 272 
126 6 319 286 121 274 243 186 
127 7 50 106 74 66 72 140 147 
128 7 179 68 162 105 2 69 138 
129 7 3 177 146 69 47 153 105 
130 7 85 59 162 2 179 174 128 
131 7 70 4 180 137 174 75 68 
132 7 200 262 197 257 241 251 48 
133 6 114 321 288 123 214 265 
134 7 11 23 187 31 34 181 65 
135 5 223 285 149 271 265 
136 7 215 301 299 67 314 220 81 
137 7 180 4 131 68 69 70 75 
138 7 66 2 106 79 127 30 128 
139 7 92 210 170 194 222 302 104 
140 7 147 164 91 97 72 280 303 
141 7 103 292 275 221 73 229 224 
142 7 20 169 310 155 153 47 21 
143 7 25 287 318 306 167 117 234 
144 7 93 272 248 289 49 175 224 
145 7 173 12 45 107 120 65 42 
146 7 177 3 69 79 5 30 184 
147 7 140 91 164 97 280 72 303 
148 7 193 192 61 187 40 44 181 
149 6 271 285 135 223 123 317 
150 7 89 261 266 293 308 77 263 
151 7 84 8 53 98 51 115 26 
152 7 278 209 52 240 236 214 46 
153 7 47 276 295 142 20 169 177 
154 5 284 246 208 212 216 
155 7 310 211 169 142 239 20 21 
156 7 56 263 77 219 293 205 315 
157 7 37 118 38 115 58 98 83 
158 7 54 196 109 99 6 34 43 
159 7 9 225 211 283 171 185 28 
160 7 189 36 168 76 16 182 190 
161 7 163 43 113 100 65 32 99 
162 7 179 174 128 68 85 70 2 
163 7 113 32 100 161 42 43 6 
164 7 97 140 147 72 91 303 280 
165 7 313 71 87 242 279 323 320 
166 7 60 191 78 119 190 194 183 
167 7 117 25 143 287 318 306 226 
168 7 76 160 189 36 16 182 108 
169 7 142 20 155 211 310 9 153 
170 7 139 35 302 92 222 194 210 
171 7 28 207 185 206 57 283 82 
172 7 101 178 90 27 144 7 26 
173 7 45 145 12 120 65 31 42 
174 7 162 70 179 131 128 68 85 
175 7 49 248 224 272 93 267 144 
176 7 96 80 39 95 226 125 117 
177 7 3 129 146 69 47 153 5 
178 7 172 101 90 7 26 27 51 
179 7 162 128 2 174 68 105 138 
180 7 4 137 131 75 70 24 68 
181 7 23 44 34 187 134 40 148 
182 7 16 36 76 183 160 168 190 
183 7 190 16 182 36 119 166 12 
184 7 5 30 79 10 62 146 21 
185 7 207 28 171 82 259 291 57 
186 5 202 121 280 281 274 
187 7 181 148 134 23 44 193 34 
188 6 46 296 273 240 236 260 
189 7 160 168 36 76 16 195 83 
190 7 183 16 36 166 182 60 160 
191 7 78 166 60 194 119 302 139 
192 7 61 148 40 193 86 44 187 
193 7 148 192 61 187 119 78 302 
194 7 92 139 191 210 170 60 302 
195 7 112 27 60 90 189 190 160 
196 7 158 54 109 99 63 41 6 
197 6 262 251 200 132 233 322 
198 7 57 250 206 218 249 264 28 
199 6 237 81 312 294 307 14 
200 7 132 197 241 251 257 262 233 
201 4 244 242 323 71 
202 5 186 281 121 274 280 
203 7 231 213 205 267 103 224 55 
204 4 254 324 290 19 
205 7 56 203 156 231 77 293 213 
206 7 57 198 28 207 171 283 218 
207 7 28 185 171 57 82 206 198 
208 5 284 154 246 212 216 
209 7 278 52 152 48 288 114 214 
210 7 92 139 222 104 194 170 304 
211 7 155 9 169 159 310 225 239 
212 5 216 284 154 208 246 
213 7 203 267 231 224 175 49 103 
214 6 123 271 236 149 317 114 
215 7 136 299 67 301 220 314 245 
216 5 212 154 230 245 246 
217 7 88 48 132 297 322 257 262 
218 7 282 250 198 57 315 206 249 
219 6 315 263 156 282 218 56 
220 4 299 230 245 67 
221 7 292 73 64 141 259 264 304 
222 7 104 210 139 92 170 291 185 
223 3 135 149 271 
224 7 103 49 248 175 213 141 267 
225 7 159 9 211 169 35 171 283 
226 7 39 117 167 96 25 143 287 
227 7 257 305 241 48 200 288 132 
228 7 64 298 304 221 291 104 292 
229 7 258 249 275 73 292 250 264 
230 4 245 220 299 67 
231 7 203 213 267 205 55 87 124 
232 6 22 269 247 308 89 266 
233 7 251 316 94 197 200 241 235 
234 7 306 324 19 143 287 25 318 
235 7 13 316 281 261 243 233 270 
236 5 46 240 214 188 317 
237 7 81 199 14 255 307 312 294 
238 3 253 255 14 
239 5 300 155 211 310 283 
240 7 188 46 236 273 296 152 278 
241 7 257 200 227 305 132 94 251 
242 6 244 201 71 165 87 323 
243 7 274 270 281 13 286 235 202 
244 4 201 242 71 323 
245 4 230 220 67 299 
246 5 154 284 208 216 212 
247 3 269 232 22 
248 7 49 175 224 272 93 144 267 
249 7 229 258 250 264 198 275 73 
250 7 218 198 249 57 282 258 229 
251 7 197 200 233 262 132 316 241 
252 6 215 67 136 301 299 311 
253 4 238 255 14 237 
254 6 204 324 290 19 110 309 
255 6 14 253 238 237 81 199 
256 7 309 55 267 277 110 124 19 
257 7 241 227 200 48 132 305 197 
258 7 229 249 275 250 73 292 264 
259 7 82 264 73 207 291 292 185 
260 3 296 46 188 
261 7 150 89 308 235 270 266 13 
262 6 197 132 251 200 322 257 
263 7 156 219 56 77 293 315 150 
264 7 259 73 249 82 292 198 229 
265 3 285 135 149 
266 7 89 308 150 22 293 232 320 
267 7 213 256 55 175 231 203 49 
268 7 300 62 10 21 74 239 126 
269 3 247 232 22 
270 7 243 286 274 261 235 13 150 
271 6 149 285 223 317 135 123 
272 7 93 289 175 49 248 144 256 
273 6 188 296 46 240 260 236 
274 7 243 281 202 13 121 270 186 
275 7 229 258 141 249 292 73 103 
276 7 295 153 47 86 169 142 20 
277 7 19 309 318 110 287 143 254 
278 7 152 209 52 240 236 214 48 
279 7 313 165 320 232 22 269 242 
280 5 186 121 91 202 147 
281 7 13 274 202 316 243 235 186 
282 6 218 315 250 57 198 206 
283 6 206 171 57 28 207 159 
284 5 208 154 212 246 216 
285 5 149 135 271 223 265 
286 5 243 126 270 274 121 
287 7 318 143 25 306 19 167 277 
288 7 114 133 321 305 227 52 123 
289 7 272 93 144 125 248 49 175 
290 4 204 254 324 110 
291 7 104 82 304 259 185 207 221 
292 7 73 221 141 264 275 229 259 
293 7 77 56 150 266 320 156 263 
294 5 312 307 199 81 237 
295 7 276 153 47 86 169 142 20 
296 6 188 46 273 260 240 236 
297 4 322 88 262 217 
298 7 228 64 304 221 104 112 291 
299 6 220 67 215 245 136 230 
300 3 268 239 21 
301 7 136 314 215 307 81 299 294 
302 7 35 170 194 139 191 92 86 
303 4 91 97 164 297 
304 7 291 228 104 64 221 82 298 
305 7 227 288 241 257 48 102 321 
306 7 234 143 287 25 318 19 324 
307 6 294 312 199 81 237 314 
308 7 89 266 22 232 261 150 269 
309 7 110 55 277 124 256 19 254 
310 7 155 142 21 20 169 211 239 
311 1 122 
312 5 294 307 199 81 237 
313 7 279 165 320 71 87 242 232 
314 7 301 307 294 312 81 199 136 
315 6 219 282 218 250 263 156 
316 6 233 13 235 251 281 197 
317 2 271 149 
318 7 287 143 25 277 306 19 167 
319 7 126 121 280 186 286 274 202 
320 7 313 279 293 165 266 77 22 
321 5 133 114 288 123 265 
322 5 297 262 88 197 132 
323 6 87 71 244 201 242 124 
324 6 204 254 19 234 306 290 
DEPOT_SECTION
   1
   -1
EOF
