NAME :  X-n336-kX-w134-c9.cctp
COMMENT : 	Adapted by Maziero, Usberti and Cavellucci from the Uchoa, Pecin, Pessoa, Poggi, Subramanian, and Vidal (2013)
TYPE :  CCTP
DIMENSION :    331
EDGE_WEIGHT_TYPE : 	EUC_2D	
CAPACITY : 	203
VERTICES_WITHIN_COVERAGE :  9
VERTICES_WITH_DEMAND : 	134
NODE_COORD_SECTION
1 0 0
2 365 689
3 146 180
4 792 5
5 658 510
6 461 270
7 299 531
8 812 228
9 643 90
10 615 630
11 258 42
12 616 299
13 475 957
14 425 473
15 406 64
16 656 369
17 202 467
18 318 21
19 579 587
20 458 354
21 575 871
22 47 512
23 568 742
24 128 436
25 546 806
26 197 696
27 615 300
28 852 563
29 772 803
30 678 342
31 916 176
32 390 949
33 113 782
34 226 736
35 119 923
36 584 572
37 134 554
38 912 173
39 827 233
40 851 677
41 598 322
42 627 472
43 94 442
44 688 274
45 977 176
46 597 461
47 931 23
48 170 640
49 941 601
50 873 487
51 797 95
52 451 816
53 866 970
54 833 912
55 106 913
56 260 107
57 332 45
58 685 613
59 728 372
60 407 590
61 619 484
62 966 483
63 482 512
64 278 599
65 213 330
66 37 932
67 643 10
68 341 241
69 302 521
70 593 382
71 438 686
72 637 885
73 277 382
74 152 776
75 546 999
76 288 665
77 232 131
78 563 66
79 602 547
80 996 983
81 464 377
82 502 727
83 691 574
84 535 4
85 975 616
86 974 242
87 853 459
88 263 163
89 967 740
90 810 617
91 580 226
92 615 656
93 346 526
94 172 867
95 319 35
96 602 946
97 224 146
98 48 527
99 970 693
100 314 262
101 413 661
102 756 147
103 381 139
104 421 100
105 930 522
106 440 792
107 862 962
108 668 720
109 493 72
110 573 541
111 668 884
112 380 646
113 24 44
114 457 991
115 511 272
116 960 171
117 150 61
118 721 754
119 56 633
120 389 853
121 700 137
122 823 958
123 422 111
124 727 12
125 203 178
126 548 744
127 677 999
128 610 239
129 396 478
130 509 773
131 347 219
132 754 887
133 717 223
134 650 718
135 909 845
136 451 575
137 806 992
138 740 770
139 291 583
140 74 690
141 8 248
142 877 132
143 379 284
144 574 881
145 871 854
146 987 529
147 509 440
148 976 565
149 644 554
150 325 696
151 969 681
152 888 425
153 782 490
154 974 885
155 502 280
156 992 909
157 440 691
158 342 364
159 806 649
160 552 728
161 980 576
162 671 918
163 26 841
164 463 459
165 526 344
166 268 49
167 979 559
168 156 39
169 303 960
170 85 110
171 760 825
172 28 910
173 725 93
174 987 998
175 827 937
176 253 53
177 342 592
178 933 328
179 833 437
180 705 344
181 35 318
182 839 857
183 7 132
184 462 46
185 511 649
186 72 981
187 660 595
188 306 313
189 806 978
190 954 238
191 679 664
192 223 692
193 783 211
194 258 807
195 29 943
196 901 617
197 634 276
198 711 6
199 253 301
200 229 917
201 379 611
202 494 796
203 804 306
204 366 672
205 739 275
206 390 64
207 421 896
208 773 430
209 33 185
210 780 36
211 583 683
212 102 872
213 999 222
214 991 56
215 687 500
216 381 463
217 982 321
218 52 296
219 188 834
220 373 15
221 240 295
222 379 73
223 94 905
224 291 368
225 365 875
226 281 949
227 222 763
228 487 965
229 525 52
230 276 873
231 217 975
232 767 889
233 966 590
234 584 689
235 52 118
236 513 513
237 626 630
238 528 291
239 61 262
240 67 613
241 528 819
242 776 606
243 453 584
244 113 947
245 619 771
246 751 689
247 680 978
248 207 338
249 930 890
250 740 183
251 313 231
252 487 874
253 695 972
254 857 247
255 376 774
256 168 409
257 855 702
258 543 56
259 846 172
260 43 62
261 548 157
262 153 638
263 987 721
264 619 306
265 31 683
266 681 520
267 445 533
268 117 505
269 860 428
270 265 809
271 947 417
272 791 3
273 305 771
274 697 637
275 599 555
276 595 439
277 952 464
278 217 775
279 585 895
280 185 344
281 710 275
282 22 136
283 668 648
284 423 637
285 318 490
286 763 274
287 686 796
288 870 128
289 845 405
290 37 883
291 59 581
292 292 22
293 182 838
294 905 295
295 285 15
296 159 409
297 556 616
298 370 988
299 436 374
300 143 772
301 15 88
302 897 75
303 667 699
304 621 485
305 942 616
306 900 816
307 707 297
308 170 312
309 541 76
310 244 104
311 367 241
312 71 908
313 349 361
314 754 980
315 32 869
316 812 318
317 731 882
318 701 119
319 170 285
320 577 478
321 377 59
322 312 343
323 823 859
324 760 716
325 809 837
326 269 109
327 112 726
328 454 247
329 873 167
330 205 18
331 738 287
DEMAND_SECTION
2 48
3 63
4 27
5 66
6 86
7 14
8 26
9 47
10 66
11 85
12 22
13 30
14 89
15 51
16 11
17 82
18 92
19 85
20 51
21 90
22 6
23 68
24 73
25 94
26 7
27 12
28 70
29 97
30 41
31 30
32 8
33 11
34 25
35 10
36 75
37 17
38 36
39 6
40 54
41 12
42 30
43 94
44 30
45 27
46 41
47 25
48 41
49 72
50 39
51 32
52 35
53 68
54 68
55 9
56 90
57 56
58 95
59 41
60 39
61 18
62 8
63 16
64 37
65 82
66 26
67 14
68 66
69 33
70 29
71 37
72 56
73 93
74 2
75 54
76 48
77 65
78 6
79 80
80 94
81 80
82 93
83 68
84 20
85 57
86 45
87 7
88 89
89 67
90 72
91 47
92 93
93 35
94 19
95 51
96 100
97 88
98 31
99 92
100 83
101 7
102 22
103 90
104 77
105 89
106 40
107 79
108 87
109 73
110 59
111 67
112 12
113 94
114 18
115 29
116 44
117 57
118 55
119 38
120 1
121 14
122 56
123 100
124 14
125 69
126 55
127 55
128 50
129 98
130 88
131 99
132 67
133 48
134 81
135 78
COVERAGE_SECTION
2 9 204 150 112 101 71 157 284 201 76 
3 9 125 97 170 77 319 209 235 88 239 
4 9 272 210 124 198 51 173 302 47 102 
5 9 266 215 304 149 61 42 79 83 275 
6 9 328 155 115 238 143 20 165 311 81 
7 9 69 285 93 139 64 177 216 129 201 
8 9 39 193 254 259 286 203 250 329 205 
9 9 318 121 67 173 78 309 258 198 124 
10 9 237 92 19 283 187 297 211 36 234 
11 9 166 176 295 292 330 95 18 310 56 
12 9 27 264 41 197 128 30 44 16 91 
13 9 228 114 207 75 252 32 298 144 279 
14 9 129 164 216 267 63 147 93 236 299 
15 9 206 222 321 104 123 184 220 57 103 
16 9 30 180 70 59 264 41 27 12 307 
17 9 256 296 24 268 37 43 73 69 7 
18 9 95 292 57 295 220 166 11 321 176 
19 9 36 297 275 79 110 10 237 149 92 
20 9 81 299 165 6 155 238 115 147 164 
21 9 144 279 72 241 25 96 252 111 162 
22 9 98 268 291 43 37 240 24 119 296 
23 9 126 160 234 245 211 130 25 82 134 
24 9 43 296 256 268 17 280 22 37 98 
25 9 241 130 202 126 23 21 160 144 245 
26 9 192 34 48 227 262 278 327 74 300 
27 9 12 264 41 197 128 30 44 16 91 
28 9 90 196 50 242 105 49 159 153 87 
29 9 171 138 325 118 323 132 182 232 287 
30 9 180 16 307 59 44 264 281 12 27 
31 9 38 116 329 142 45 288 259 190 86 
32 9 298 207 225 114 13 169 120 228 226 
33 9 300 74 327 293 212 219 140 94 278 
34 9 227 278 192 26 194 270 74 273 300 
35 9 55 244 223 312 212 186 94 66 290 
36 9 19 275 79 110 297 149 10 237 187 
37 9 268 291 262 240 98 48 22 17 119 
38 9 31 329 116 142 288 45 259 190 254 
39 9 8 254 193 259 286 203 329 316 205 
40 9 257 159 90 196 324 246 242 305 28 
41 9 264 27 12 197 70 16 165 238 30 
42 9 61 304 46 276 5 320 215 266 79 
43 9 24 268 296 256 22 98 17 37 280 
44 9 281 307 205 331 197 133 30 180 286 
45 9 116 213 31 38 86 190 329 142 288 
46 9 276 320 42 61 304 5 70 110 79 
47 9 302 214 288 142 4 272 38 116 51 
48 9 262 26 192 37 327 240 140 34 119 
49 9 305 233 85 196 161 148 167 105 146 
50 9 87 269 152 179 105 28 277 289 153 
51 9 210 102 173 288 142 4 259 272 318 
52 9 106 202 252 120 130 241 207 255 25 
53 9 107 122 175 189 137 54 249 314 145 
54 9 175 122 323 182 107 53 145 232 189 
55 9 223 35 244 312 212 66 290 186 172 
56 9 326 310 77 97 176 88 166 11 125 
57 9 95 18 292 321 220 222 295 206 166 
58 9 274 187 83 283 191 237 10 149 92 
59 9 180 30 16 208 307 331 205 281 316 
60 9 201 136 243 284 112 177 267 101 93 
61 9 304 42 46 320 5 276 79 215 266 
62 8 277 146 105 271 167 148 50 161 
63 9 236 267 164 14 136 147 243 129 110 
64 9 139 177 76 7 69 93 201 150 192 
65 9 248 280 221 308 199 319 73 224 256 
66 9 195 172 312 290 186 223 315 55 244 
67 9 198 9 124 78 84 258 173 309 318 
68 9 131 311 251 100 143 188 322 199 88 
69 9 7 285 93 139 177 64 216 129 17 
70 9 276 41 16 165 46 264 27 12 30 
71 9 157 101 284 112 2 204 82 185 201 
72 9 111 162 279 144 21 96 317 247 287 
73 9 224 322 158 188 313 65 248 199 221 
74 9 300 33 327 278 219 293 227 34 26 
75 9 228 96 13 114 279 144 21 127 247 
76 9 150 64 192 204 2 139 177 34 112 
77 9 97 310 56 326 88 125 176 166 11 
78 9 258 309 229 84 109 9 261 67 184 
79 9 275 110 36 149 19 61 304 5 320 
80 9 174 156 154 249 53 107 135 122 175 
81 9 20 299 165 147 164 14 155 6 238 
82 9 130 126 160 23 202 157 71 185 25 
83 9 187 58 149 266 274 5 215 283 237 
84 9 229 258 78 309 109 184 67 9 15 
85 9 233 305 49 161 148 167 151 196 99 
86 9 190 213 45 116 217 294 31 38 178 
87 8 179 269 50 152 289 153 208 105 
88 9 97 77 326 56 125 310 251 131 68 
89 9 263 99 151 306 257 135 85 305 40 
90 9 159 242 28 40 196 246 257 324 274 
91 9 128 197 261 12 27 115 238 264 155 
92 9 10 237 211 234 283 191 303 134 297 
93 9 69 285 7 177 129 216 139 60 201 
94 9 293 219 212 200 35 55 223 74 244 
95 9 18 57 292 295 166 220 11 321 176 
96 9 279 72 144 162 75 21 247 111 127 
97 9 77 125 88 310 56 326 3 176 166 
98 9 22 291 268 240 37 43 119 24 262 
99 9 151 263 89 85 305 49 196 233 257 
100 9 251 68 188 131 311 143 199 221 322 
101 9 284 71 112 157 204 2 201 60 243 
102 9 250 121 173 318 51 193 133 259 8 
103 9 123 104 222 206 15 321 131 311 57 
104 9 123 15 206 222 103 321 184 109 220 
105 9 62 146 167 277 148 50 161 233 49 
106 9 52 202 255 130 120 82 241 252 157 
107 9 53 122 175 54 189 137 249 182 145 
108 9 134 303 191 118 245 283 287 92 138 
109 9 229 184 309 258 78 104 84 123 15 
110 9 79 275 36 19 320 236 149 61 304 
111 9 72 162 317 279 132 287 96 253 21 
112 9 204 201 101 284 2 60 177 71 150 
113 9 260 301 235 170 183 282 117 168 209 
114 9 13 228 32 298 75 207 252 225 96 
115 9 155 238 6 328 165 91 20 41 128 
116 9 45 31 38 213 190 86 329 142 288 
117 9 168 330 170 176 310 260 77 11 97 
118 9 138 324 287 108 29 246 303 134 171 
119 9 240 291 265 140 262 98 327 37 48 
120 9 225 207 52 106 255 32 252 230 273 
121 9 318 173 102 250 9 133 51 193 124 
122 9 175 189 137 107 53 54 314 232 132 
123 9 104 15 103 206 222 321 184 109 220 
124 9 198 210 4 272 173 67 51 318 9 
125 9 97 77 3 88 310 56 326 319 251 
126 9 160 23 82 130 25 234 211 202 245 
127 9 247 253 314 162 96 111 72 137 317 
128 9 91 197 12 27 264 41 44 238 261 
129 9 216 14 93 164 267 285 63 69 7 
130 9 202 82 126 25 241 160 23 52 106 
131 9 68 311 251 100 143 103 88 188 328 
132 9 232 317 171 323 325 54 29 111 175 
133 9 250 281 205 44 193 331 286 307 102 
134 9 108 303 191 245 92 234 283 211 118 
135 9 306 145 249 182 154 323 325 54 156 
136 9 243 267 60 284 63 201 236 101 185 
137 9 189 122 314 175 53 107 54 232 253 
138 9 118 29 324 171 287 246 108 325 303 
139 9 64 177 7 69 93 76 201 285 112 
140 9 265 327 119 240 262 33 300 48 291 
141 8 239 218 209 181 282 183 235 3 
142 9 288 329 259 38 31 302 51 116 45 
143 9 311 68 100 131 188 6 313 328 251 
144 9 21 279 72 96 241 25 252 111 162 
145 9 182 135 306 323 325 54 249 175 107 
146 9 167 148 161 62 105 233 277 49 85 
147 9 164 236 63 81 320 276 14 46 165 
148 9 167 161 233 146 49 85 305 105 62 
149 9 79 187 275 5 266 83 36 215 58 
150 9 2 76 204 112 273 255 101 201 192 
151 9 99 263 89 85 305 49 233 196 161 
152 6 269 289 87 179 271 50 
153 9 208 179 87 50 215 269 28 266 289 
154 9 156 249 135 80 306 145 174 107 53 
155 9 115 238 6 328 165 20 91 81 41 
156 9 154 249 80 174 135 306 145 53 107 
157 9 71 101 284 82 2 112 204 185 106 
158 9 313 322 224 188 73 143 299 100 216 
159 9 90 242 40 246 257 324 28 196 274 
160 9 126 23 82 234 211 130 25 245 185 
161 9 148 167 233 85 49 146 305 105 196 
162 9 111 72 253 247 317 96 127 132 279 
163 9 315 290 172 312 212 66 223 195 33 
164 9 14 147 63 129 236 267 81 216 299 
165 9 238 155 20 81 115 41 70 299 147 
166 9 11 176 292 295 95 18 56 310 326 
167 9 148 161 146 233 49 85 105 305 62 
168 9 117 330 176 170 11 310 166 260 77 
169 9 226 298 200 231 32 230 225 207 120 
170 9 235 260 282 301 117 183 113 209 3 
171 9 29 325 138 132 232 317 323 287 118 
172 9 66 290 195 315 312 223 163 55 212 
173 9 318 121 102 51 210 124 9 198 250 
174 9 80 156 154 249 53 107 122 175 135 
175 9 122 54 107 189 53 137 232 323 182 
176 9 11 166 292 295 310 56 326 330 95 
177 9 201 139 64 60 93 112 7 69 204 
178 5 294 217 271 190 86 
179 7 269 87 289 152 208 50 153 
180 9 30 59 307 16 331 281 44 205 286 
181 8 218 239 141 209 308 43 319 24 
182 9 323 145 325 54 135 306 232 175 171 
183 9 282 301 235 209 260 170 113 141 239 
184 9 109 15 229 104 206 123 258 84 309 
185 9 297 82 211 71 157 234 243 160 284 
186 9 244 195 66 312 35 55 223 172 290 
187 9 58 83 149 237 283 274 10 191 275 
188 9 322 100 199 224 158 313 221 73 143 
189 9 137 122 175 314 107 53 54 232 132 
190 9 86 213 45 116 31 294 38 217 178 
191 9 283 274 303 58 108 134 237 92 10 
192 9 26 34 76 227 48 278 262 150 64 
193 9 8 39 250 286 133 102 259 205 254 
194 9 270 278 227 273 230 219 34 293 94 
195 9 66 172 312 186 290 315 223 55 244 
196 9 305 49 233 28 85 40 161 90 148 
197 9 12 27 264 128 44 41 91 281 307 
198 9 124 67 210 272 4 173 9 318 51 
199 9 221 65 188 248 100 322 224 280 73 
200 9 231 226 230 94 169 293 219 35 194 
201 9 60 112 177 284 101 204 2 243 136 
202 9 130 241 52 25 106 82 126 252 160 
203 9 316 286 331 205 39 8 254 193 307 
204 9 2 112 101 150 201 284 71 157 76 
205 9 331 286 281 307 44 133 203 180 193 
206 9 222 321 15 104 220 123 57 184 103 
207 9 120 225 32 252 13 52 228 114 298 
208 9 179 153 59 289 87 269 180 215 50 
209 9 282 183 141 235 239 170 301 3 218 
210 9 4 272 124 51 198 173 102 318 302 
211 9 234 92 160 23 10 237 126 297 134 
212 9 223 55 312 35 290 94 315 244 163 
213 9 86 190 45 116 31 38 217 294 178 
214 9 47 302 116 45 142 38 288 31 329 
215 9 266 5 42 304 149 61 83 153 79 
216 9 129 14 285 93 164 267 69 299 158 
217 6 178 86 294 190 213 271 
218 8 181 239 141 209 308 319 280 3 
219 9 293 94 278 74 194 300 227 270 33 
220 9 321 57 206 18 95 222 15 292 295 
221 9 199 65 248 188 319 308 280 100 322 
222 9 206 321 15 104 57 123 220 103 95 
223 9 55 312 35 212 244 290 66 172 315 
224 9 73 322 158 188 313 199 65 221 248 
225 9 120 207 32 230 255 52 169 106 226 
226 9 169 200 231 230 298 32 225 94 270 
227 9 278 34 194 270 74 192 26 219 300 
228 9 13 114 75 252 207 32 96 298 279 
229 9 258 309 109 78 84 184 261 104 123 
230 9 200 270 194 226 225 169 219 293 94 
231 9 200 226 169 244 35 94 230 55 293 
232 9 132 317 171 323 325 54 175 182 29 
233 9 161 49 148 85 167 305 146 196 105 
234 9 211 92 160 23 126 10 134 237 297 
235 9 170 282 183 301 260 209 113 3 117 
236 9 63 110 267 147 320 164 136 36 243 
237 9 10 92 283 187 58 191 19 211 274 
238 9 115 155 165 6 41 91 328 27 12 
239 8 218 141 181 209 319 3 308 282 
240 9 119 291 140 265 98 37 262 22 48 
241 9 25 202 130 252 21 52 144 126 23 
242 9 90 159 274 28 246 58 83 40 324 
243 9 136 60 267 284 63 201 101 185 236 
244 9 35 55 223 186 312 212 66 195 172 
245 9 23 134 108 287 126 160 25 303 234 
246 9 324 159 118 274 191 138 303 242 108 
247 9 253 127 162 314 96 111 72 317 132 
248 9 65 280 308 221 199 319 256 73 296 
249 9 154 135 156 145 306 182 54 107 53 
250 9 102 133 193 121 318 8 173 205 286 
251 9 68 100 131 311 188 88 143 199 221 
252 9 52 241 207 202 13 144 21 25 228 
253 9 247 127 162 314 111 96 317 132 72 
254 9 39 8 294 259 203 193 329 316 31 
255 9 106 273 120 2 52 150 204 225 157 
256 9 296 24 17 280 43 248 65 308 268 
257 9 40 159 90 324 196 246 99 151 89 
258 9 229 309 78 109 84 184 261 9 67 
259 9 329 288 142 39 8 38 31 193 254 
260 9 113 301 235 170 282 183 117 168 209 
261 9 91 309 78 109 258 128 229 9 115 
262 9 48 26 37 192 240 140 119 327 291 
263 9 89 99 151 85 305 49 306 233 257 
264 9 27 12 41 197 128 30 16 44 70 
265 9 140 119 240 327 291 33 262 300 48 
266 9 215 5 149 83 304 42 61 187 79 
267 9 136 63 243 14 60 236 129 164 216 
268 9 37 43 22 24 98 17 291 296 256 
269 6 289 152 179 87 50 208 
270 9 194 273 278 227 230 219 34 293 94 
271 5 277 152 62 269 178 
272 9 4 210 124 198 51 173 302 47 318 
273 9 270 194 255 150 227 34 278 2 230 
274 9 58 283 191 187 83 303 237 246 10 
275 9 79 36 110 19 149 187 304 5 61 
276 9 46 320 42 61 304 70 147 16 5 
277 7 62 271 105 146 152 50 87 
278 9 227 34 194 270 74 219 293 300 26 
279 9 144 21 72 96 111 162 241 25 252 
280 9 248 65 308 319 256 296 221 199 73 
281 9 44 307 205 331 133 286 180 30 197 
282 9 183 235 301 209 170 260 113 141 3 
283 9 191 274 58 237 303 92 187 10 108 
284 9 101 112 60 71 201 157 243 204 136 
285 9 69 7 93 216 129 139 177 14 64 
286 9 205 331 203 281 307 193 316 8 133 
287 9 118 138 245 108 171 29 134 111 317 
288 9 142 329 259 302 38 31 51 116 39 
289 6 269 179 152 87 208 50 
290 9 315 172 312 163 66 195 223 212 55 
291 9 240 119 98 22 37 268 265 140 262 
292 9 295 18 95 166 11 57 176 220 330 
293 9 219 94 74 278 300 194 227 212 270 
294 7 178 254 190 217 86 316 39 
295 9 292 18 11 166 95 176 57 330 220 
296 9 256 24 280 17 43 248 65 308 268 
297 9 19 36 185 10 92 237 211 275 110 
298 9 32 169 114 226 207 13 225 228 120 
299 9 81 20 313 164 158 165 147 14 216 
300 9 74 33 327 278 219 293 227 34 26 
301 9 260 113 183 235 282 170 209 117 168 
302 9 288 142 47 329 214 38 51 31 259 
303 9 108 134 191 283 92 274 118 237 234 
304 9 61 42 46 5 320 276 79 215 266 
305 9 49 85 233 196 161 148 167 151 99 
306 9 135 145 182 249 323 325 89 154 54 
307 9 281 44 331 205 180 30 286 133 197 
308 8 319 280 248 65 221 199 256 296 
309 9 258 78 229 109 84 261 184 9 67 
310 9 56 326 77 97 176 166 88 11 125 
311 9 68 131 143 251 100 328 188 6 103 
312 9 223 55 66 290 172 212 35 195 315 
313 9 158 322 224 188 73 143 299 100 216 
314 9 189 137 253 122 247 127 175 232 132 
315 9 290 163 172 312 66 212 223 195 55 
316 8 203 286 331 254 205 39 8 289 
317 9 132 232 111 171 162 29 325 72 323 
318 9 121 173 102 9 250 51 133 124 198 
319 8 308 280 65 248 221 199 3 239 
320 9 46 61 276 304 42 110 79 236 147 
321 9 206 222 15 220 57 104 95 123 18 
322 9 188 224 158 313 73 199 100 221 143 
323 9 182 325 145 54 232 171 132 29 175 
324 9 246 118 138 159 29 108 303 191 257 
325 9 323 182 29 171 145 232 132 54 317 
326 9 56 310 77 88 97 176 166 11 95 
327 9 140 300 33 74 26 265 262 48 119 
328 9 6 155 115 143 238 311 20 131 68 
329 9 259 142 38 288 31 39 254 8 116 
330 9 168 11 176 117 166 295 292 310 56 
331 9 205 286 281 307 44 180 133 203 316 
DEPOT_SECTION
   1
   -1
EOF
