NAME :  X-n303-kX-w120-c11.cctp
COMMENT : 	Adapted by Maziero, Usberti and Cavellucci from the Uchoa, Pecin, Pessoa, Poggi, Subramanian, and Vidal (2013)
TYPE :  CCTP
DIMENSION :    303
EDGE_WEIGHT_TYPE : 	EUC_2D	
CAPACITY : 	794
VERTICES_WITHIN_COVERAGE :  11
VERTICES_WITH_DEMAND : 	120
NODE_COORD_SECTION
1 500 500
2 205 638
3 893 161
4 191 775
5 444 871
6 225 445
7 368 543
8 120 270
9 612 902
10 45 323
11 707 182
12 125 720
13 442 388
14 79 759
15 904 76
16 379 849
17 213 595
18 164 686
19 404 947
20 331 615
21 842 156
22 272 297
23 957 227
24 274 481
25 287 544
26 152 403
27 873 146
28 267 415
29 188 727
30 594 742
31 198 429
32 810 797
33 383 602
34 459 786
35 50 183
36 395 836
37 600 866
38 192 744
39 12 705
40 869 99
41 233 811
42 235 638
43 423 904
44 220 619
45 236 713
46 960 141
47 128 321
48 160 230
49 200 650
50 104 544
51 375 638
52 540 726
53 635 790
54 512 597
55 643 517
56 327 750
57 198 412
58 375 558
59 123 259
60 365 859
61 545 700
62 242 431
63 140 412
64 316 413
65 145 764
66 892 246
67 331 828
68 231 342
69 676 810
70 211 378
71 197 538
72 808 113
73 129 655
74 84 714
75 416 784
76 151 243
77 275 442
78 46 355
79 182 746
80 158 717
81 198 648
82 137 763
83 206 872
84 30 301
85 979 214
86 384 855
87 212 794
88 35 779
89 108 640
90 186 930
91 623 977
92 231 796
93 402 932
94 166 237
95 341 803
96 559 851
97 883 143
98 524 909
99 387 463
100 395 327
101 382 787
102 341 784
103 180 530
104 81 261
105 379 700
106 721 333
107 312 756
108 424 573
109 596 878
110 273 514
111 281 417
112 125 528
113 464 893
114 140 413
115 256 250
116 206 384
117 204 563
118 202 159
119 347 420
120 283 520
121 214 494
122 854 142
123 502 839
124 599 889
125 485 898
126 339 73
127 396 959
128 192 533
129 234 702
130 811 101
131 840 272
132 266 346
133 867 211
134 185 436
135 61 374
136 843 188
137 156 795
138 387 889
139 724 952
140 622 16
141 235 894
142 327 991
143 867 172
144 329 496
145 930 115
146 728 950
147 371 317
148 416 575
149 408 744
150 98 434
151 468 990
152 239 775
153 231 748
154 251 398
155 311 725
156 913 135
157 928 399
158 444 596
159 337 519
160 294 981
161 625 824
162 153 530
163 124 342
164 615 881
165 534 826
166 454 888
167 639 789
168 48 353
169 200 704
170 50 483
171 269 610
172 477 953
173 54 300
174 346 588
175 617 832
176 867 63
177 304 240
178 129 675
179 293 547
180 110 597
181 868 126
182 190 760
183 894 162
184 209 696
185 400 495
186 283 657
187 536 991
188 649 872
189 198 370
190 824 202
191 275 889
192 904 169
193 511 600
194 224 441
195 674 949
196 627 952
197 7 213
198 155 218
199 593 802
200 817 211
201 212 351
202 843 191
203 616 902
204 230 561
205 459 554
206 585 595
207 204 614
208 698 970
209 425 539
210 430 850
211 498 758
212 437 622
213 107 483
214 119 764
215 265 615
216 547 481
217 324 762
218 723 745
219 163 928
220 308 513
221 339 599
222 314 814
223 316 598
224 183 159
225 325 348
226 163 480
227 595 727
228 303 866
229 350 700
230 920 82
231 105 238
232 111 18
233 437 482
234 88 300
235 464 929
236 544 846
237 201 233
238 353 729
239 302 404
240 708 855
241 739 843
242 198 250
243 55 143
244 257 410
245 26 411
246 832 234
247 207 344
248 212 757
249 277 453
250 274 472
251 272 828
252 875 101
253 434 975
254 510 975
255 709 932
256 647 943
257 349 428
258 317 866
259 391 393
260 612 815
261 217 666
262 229 740
263 630 918
264 125 704
265 545 898
266 184 757
267 492 930
268 985 201
269 448 998
270 117 784
271 359 490
272 292 715
273 365 531
274 503 795
275 21 220
276 225 872
277 387 551
278 895 120
279 476 868
280 281 586
281 609 944
282 868 164
283 148 748
284 168 463
285 364 550
286 844 163
287 465 614
288 214 637
289 189 582
290 94 186
291 863 190
292 676 800
293 175 686
294 393 400
295 172 614
296 320 504
297 35 206
298 182 671
299 356 599
300 88 215
301 608 775
302 481 721
303 449 751
DEMAND_SECTION
2 20
3 14
4 85
5 33
6 51
7 78
8 51
9 85
10 74
11 4
12 13
13 2
14 33
15 16
16 31
17 16
18 18
19 3
20 66
21 42
22 65
23 15
24 3
25 38
26 81
27 82
28 83
29 86
30 1
31 59
32 69
33 1
34 58
35 98
36 37
37 65
38 92
39 44
40 86
41 83
42 68
43 52
44 82
45 66
46 34
47 33
48 18
49 39
50 97
51 29
52 6
53 74
54 20
55 2
56 89
57 48
58 53
59 57
60 80
61 26
62 85
63 89
64 29
65 68
66 15
67 51
68 9
69 63
70 62
71 49
72 28
73 84
74 82
75 65
76 77
77 74
78 27
79 100
80 82
81 54
82 21
83 43
84 4
85 53
86 55
87 73
88 46
89 68
90 22
91 69
92 93
93 44
94 63
95 64
96 81
97 87
98 44
99 12
100 78
101 91
102 63
103 84
104 7
105 2
106 68
107 85
108 77
109 93
110 16
111 6
112 52
113 79
114 43
115 87
116 40
117 47
118 74
119 19
120 3
121 12
COVERAGE_SECTION
2 11 288 81 49 44 207 42 261 298 295 17 293 
3 11 183 192 97 27 282 143 156 278 291 122 181 
4 11 182 266 87 248 79 38 137 92 65 29 152 
5 11 166 210 113 279 43 125 36 138 235 86 123 
6 11 194 62 31 134 57 244 77 121 28 249 154 
7 11 285 273 58 277 159 174 271 209 299 148 185 
8 11 59 231 104 76 234 47 48 94 198 300 163 
9 11 203 124 164 263 109 37 281 188 196 256 265 
10 11 173 84 168 78 234 135 104 163 47 245 8 
11 11 200 190 72 130 246 136 202 21 286 106 122 
12 11 264 80 283 74 214 82 178 65 18 14 293 
13 11 294 259 100 99 233 119 147 257 185 225 64 
14 11 214 74 270 88 82 12 65 283 264 137 39 
15 11 230 252 176 40 278 145 156 181 97 27 122 
16 11 86 60 36 138 210 67 95 101 258 5 43 
17 11 207 44 289 117 204 288 2 295 42 81 215 
18 11 293 298 80 178 169 264 184 73 29 49 81 
19 11 127 93 253 43 138 235 269 172 151 166 113 
20 11 221 223 299 174 51 33 280 171 186 215 58 
21 11 286 122 282 143 136 27 202 181 291 97 190 
22 11 132 115 68 177 225 247 201 242 237 70 147 
23 11 85 268 66 192 46 133 183 3 291 156 143 
24 11 250 249 110 77 120 220 296 144 62 6 121 
25 11 179 120 110 220 280 296 159 204 223 24 144 
26 11 63 114 57 134 31 116 189 150 284 70 163 
27 11 97 122 282 181 3 183 143 21 278 286 192 
28 11 244 111 154 77 62 239 249 64 194 6 250 
29 11 38 79 169 266 80 182 184 248 262 293 283 
30 11 227 301 52 199 53 61 167 260 161 175 211 
31 11 134 57 194 6 62 284 116 26 70 189 63 
32 11 241 218 240 292 69 255 167 146 53 139 188 
33 11 299 51 174 148 221 58 108 277 20 285 212 
34 11 303 75 274 211 149 123 302 210 101 36 279 
35 11 297 243 290 275 300 197 231 104 59 198 8 
36 11 16 86 60 210 101 138 75 5 95 67 43 
37 11 109 164 124 9 175 203 96 161 188 260 236 
38 11 79 266 182 29 248 4 262 153 169 80 283 
39 11 74 88 14 264 12 89 178 214 73 270 82 
40 11 252 181 278 176 15 97 122 27 230 156 130 
41 11 92 87 152 251 4 248 276 153 83 182 262 
42 11 288 44 2 261 49 81 215 207 171 17 186 
43 11 93 166 5 138 113 19 235 210 127 125 86 
44 11 207 288 2 42 17 81 49 215 261 289 295 
45 11 129 262 184 153 169 29 248 261 38 272 152 
46 11 145 156 192 268 278 183 3 230 85 97 15 
47 11 163 234 8 59 104 173 76 247 10 26 135 
48 11 94 198 76 237 242 59 231 8 300 224 290 
49 11 81 2 288 261 298 207 42 44 293 295 184 
50 11 112 162 180 213 103 170 226 128 71 289 89 
51 11 33 299 20 221 174 105 212 229 223 148 58 
52 11 61 211 227 30 302 274 301 199 303 165 34 
53 11 167 301 260 161 292 199 69 175 30 227 188 
54 11 193 287 158 205 206 212 108 148 209 61 216 
55 11 206 216 54 193 205 106 287 61 233 158 227 
56 11 217 107 155 238 102 272 95 229 222 101 105 
57 11 31 134 116 70 194 189 6 26 62 154 63 
58 11 277 285 7 273 174 148 33 299 108 209 159 
59 11 8 231 76 104 48 94 198 234 300 47 242 
60 11 16 86 138 36 67 258 95 228 210 222 43 
61 11 52 227 30 302 211 301 274 193 54 303 206 
62 11 194 6 244 28 154 77 111 249 31 57 250 
63 11 114 26 150 134 57 284 31 116 163 189 226 
64 11 239 119 111 257 28 77 249 244 225 154 250 
65 11 82 283 214 137 270 266 79 182 4 12 80 
66 11 133 131 246 291 23 202 136 143 192 190 200 
67 11 222 95 258 102 60 228 16 86 251 36 101 
68 11 201 247 132 70 189 116 154 22 244 57 28 
69 11 292 167 53 161 240 175 260 188 241 301 218 
70 11 116 189 201 247 57 68 154 31 244 62 26 
71 11 128 103 117 204 162 289 121 17 226 112 207 
72 11 130 122 21 181 286 40 252 27 176 282 97 
73 11 178 89 18 264 293 298 295 180 12 80 81 
74 11 12 264 14 178 214 82 283 39 73 80 270 
75 11 101 149 34 303 36 210 16 102 95 86 238 
76 11 48 94 198 59 8 231 242 237 300 104 47 
77 11 249 111 28 250 62 244 24 239 6 64 154 
78 11 168 135 10 84 173 245 234 163 47 150 104 
79 11 38 266 182 29 4 248 283 80 65 169 262 
80 11 18 29 12 283 264 293 79 38 169 266 65 
81 11 49 2 288 261 298 207 44 42 295 293 184 
82 11 65 214 283 270 137 12 266 79 80 182 4 
83 11 276 141 90 41 191 219 87 251 92 137 228 
84 11 173 10 168 78 234 104 135 275 197 8 297 
85 11 268 23 46 192 66 183 3 156 145 133 291 
86 11 16 60 36 138 210 67 5 43 95 101 258 
87 11 92 41 4 152 248 182 266 153 38 137 79 
88 11 14 39 74 270 214 82 12 65 264 283 137 
89 11 73 178 180 264 295 18 74 298 293 12 81 
90 11 219 83 141 276 191 160 41 228 251 87 137 
91 11 196 281 256 195 263 203 208 9 187 124 164 
92 11 41 87 152 248 4 153 251 182 262 266 38 
93 11 19 127 43 138 253 235 166 113 5 172 86 
94 11 48 76 198 237 242 59 8 231 224 300 118 
95 11 102 67 222 101 217 56 107 16 60 36 86 
96 11 236 165 37 109 265 124 123 199 175 164 260 
97 11 27 3 183 181 278 282 122 156 143 192 21 
98 11 265 267 125 113 235 279 172 236 254 96 123 
99 11 185 271 257 233 119 294 144 259 273 159 296 
100 11 147 259 225 294 13 119 257 64 239 177 22 
101 11 75 102 95 149 36 16 217 67 238 56 86 
102 11 95 217 56 107 222 101 67 238 155 16 36 
103 11 128 71 162 117 121 226 289 112 204 284 17 
104 11 231 8 234 59 173 300 84 10 76 297 275 
105 11 229 238 149 51 56 155 217 101 107 303 272 
106 11 131 246 11 200 190 202 136 133 66 55 291 
107 11 217 56 155 102 272 238 95 222 229 67 152 
108 11 148 158 209 205 277 33 58 212 287 7 285 
109 11 124 37 164 9 203 96 175 263 188 265 161 
110 11 120 24 25 220 179 250 296 144 249 121 159 
111 11 28 239 244 77 64 154 249 62 250 194 6 
112 11 50 162 213 103 226 128 180 71 284 289 117 
113 11 166 125 279 5 235 43 267 210 172 98 123 
114 11 63 26 150 134 284 57 31 226 116 189 163 
115 11 177 22 237 242 94 68 132 48 76 118 198 
116 11 70 189 57 201 247 31 154 68 134 26 244 
117 11 289 71 204 128 17 103 207 44 295 162 121 
118 11 224 237 198 48 94 242 76 115 290 231 59 
119 11 257 64 239 294 259 99 111 271 77 225 249 
120 11 110 25 220 179 24 296 250 144 159 280 204 
121 11 128 71 6 103 226 194 284 24 110 250 134 
122 11 21 27 181 286 282 97 143 3 183 40 252 
123 11 165 279 236 274 96 125 5 113 34 166 98 
124 11 109 9 164 203 37 263 188 96 265 281 175 
125 11 113 279 166 267 235 98 5 172 265 123 43 
126 11 118 177 224 115 237 242 22 198 232 48 94 
127 11 19 93 253 43 269 138 235 142 151 172 166 
128 11 71 103 117 162 121 204 289 226 17 112 284 
129 11 45 184 169 262 261 153 29 38 248 272 293 
130 11 72 40 122 181 21 252 176 286 27 97 282 
131 11 246 66 200 133 190 202 136 291 143 286 282 
132 11 68 22 154 201 225 247 70 244 239 28 116 
133 11 291 202 136 143 246 66 190 282 200 286 3 
134 11 31 57 284 194 6 26 226 63 114 116 62 
135 11 78 168 245 10 150 163 173 84 234 47 63 
136 11 202 291 190 286 143 21 133 200 282 122 246 
137 11 65 82 4 270 266 214 283 182 79 87 38 
138 11 86 60 43 16 93 36 210 5 19 166 127 
139 11 146 255 208 195 256 196 240 263 91 188 241 
140 11 11 130 72 176 21 40 122 286 252 181 190 
141 11 276 83 191 90 228 251 219 41 258 92 87 
142 11 160 127 19 93 253 191 138 269 258 228 43 
143 11 282 291 286 27 3 136 183 21 202 97 122 
144 11 296 159 220 271 273 120 24 110 250 7 179 
145 11 156 230 278 46 15 97 252 3 183 192 40 
146 11 139 255 208 195 256 240 196 263 91 241 188 
147 11 100 225 259 294 13 22 177 119 132 64 239 
148 11 108 158 209 277 33 58 205 212 7 285 287 
149 11 75 303 101 105 238 34 229 302 102 56 217 
150 11 63 114 213 26 170 135 245 284 226 134 78 
151 11 269 253 172 254 235 267 187 19 127 93 125 
152 11 92 153 248 87 41 262 4 182 38 266 45 
153 11 262 248 152 45 38 182 129 4 29 92 266 
154 11 244 28 62 111 70 116 77 194 239 6 132 
155 11 272 56 107 217 238 229 102 105 186 45 129 
156 11 278 145 97 3 183 192 27 181 46 252 230 
157 11 131 66 23 246 85 133 268 106 200 291 190 
158 11 212 287 108 148 205 209 33 193 54 277 58 
159 11 296 144 220 273 271 7 285 179 58 120 25 
160 11 142 191 127 141 19 228 258 90 93 276 138 
161 11 175 260 53 167 199 37 301 69 188 292 164 
162 11 103 112 128 71 50 226 117 289 213 284 121 
163 11 47 234 26 135 8 63 114 168 78 189 10 
164 11 124 109 9 37 203 188 263 175 161 281 96 
165 11 236 96 123 274 199 279 265 37 211 260 109 
166 11 113 5 279 125 43 235 210 267 138 93 123 
167 11 53 301 260 161 292 69 175 199 30 227 188 
168 11 78 135 10 173 84 245 234 163 47 150 104 
169 11 184 29 293 129 45 298 18 38 261 80 79 
170 11 213 150 245 50 112 135 162 226 114 63 284 
171 11 215 280 42 186 223 44 17 288 20 204 207 
172 11 235 267 151 254 253 269 125 113 98 166 187 
173 11 84 10 234 104 168 78 8 135 47 59 231 
174 11 221 299 20 223 33 58 285 7 277 51 273 
175 11 161 260 37 199 53 167 164 109 188 301 124 
176 11 40 15 252 230 181 278 130 72 122 97 145 
177 11 115 22 147 237 242 225 132 68 100 118 94 
178 11 73 264 18 89 12 293 80 298 74 81 49 
179 11 25 120 220 110 280 296 159 223 144 204 171 
180 11 89 50 73 295 112 162 178 289 207 103 117 
181 11 27 122 97 252 40 278 282 21 3 183 286 
182 11 266 4 38 79 248 29 87 153 262 283 65 
183 11 3 192 97 27 282 143 156 278 291 181 122 
184 11 169 129 261 45 293 29 298 18 49 262 81 
185 11 99 233 271 273 209 277 7 285 159 58 144 
186 11 215 171 42 272 20 129 261 223 280 288 45 
187 11 254 151 172 267 98 281 91 269 265 235 196 
188 11 164 203 9 37 263 175 109 124 161 240 69 
189 11 70 116 201 247 57 68 26 31 154 134 244 
190 11 200 202 136 246 291 133 286 21 143 282 122 
191 11 228 141 258 276 251 83 67 222 41 160 60 
192 11 183 3 97 156 282 143 27 291 278 133 181 
193 11 54 287 158 205 206 212 108 148 209 61 216 
194 11 6 62 31 57 134 244 28 77 154 121 249 
195 11 256 208 255 196 139 146 263 91 281 203 9 
196 11 281 256 91 263 195 203 9 124 164 208 109 
197 11 275 297 35 300 243 104 84 290 173 231 10 
198 11 48 94 76 237 59 231 242 8 224 300 290 
199 11 260 301 175 161 53 167 30 96 37 165 236 
200 11 190 246 202 136 133 291 286 21 143 131 282 
201 11 247 68 189 70 116 132 154 57 244 26 31 
202 11 136 291 190 286 133 143 200 21 282 246 122 
203 11 9 124 164 263 109 37 281 188 196 256 175 
204 11 117 17 71 289 128 280 25 44 103 207 171 
205 11 209 108 158 148 287 54 193 212 277 233 185 
206 11 54 193 55 61 216 287 227 205 52 158 30 
207 11 44 17 2 288 295 81 289 49 42 117 261 
208 11 139 195 146 255 256 196 91 263 281 203 9 
209 11 108 148 205 277 185 58 7 233 158 273 285 
210 11 5 36 166 86 279 16 43 113 138 60 75 
211 11 274 302 34 303 52 61 165 123 75 149 30 
212 11 158 287 108 148 33 51 205 193 54 209 299 
213 11 112 150 226 170 50 284 162 114 63 103 134 
214 11 82 270 65 283 14 12 137 264 74 80 266 
215 11 171 280 42 44 186 223 17 288 207 2 204 
216 11 55 233 205 206 54 193 209 13 185 108 158 
217 11 56 107 102 155 95 238 222 272 101 67 229 
218 11 292 69 167 53 241 32 240 301 161 30 227 
219 11 90 83 141 276 191 137 41 160 87 92 251 
220 11 296 120 144 159 110 25 179 24 250 271 273 
221 11 174 299 20 223 33 51 58 285 280 7 277 
222 11 67 95 102 251 258 217 228 107 56 60 101 
223 11 20 221 174 280 299 171 215 179 25 33 186 
224 11 118 198 48 237 94 76 242 290 300 231 59 
225 11 147 132 239 64 100 22 119 259 111 257 294 
226 11 284 134 162 103 121 213 128 112 31 71 6 
227 11 30 301 52 61 53 199 167 260 161 211 175 
228 11 258 191 67 251 222 60 95 141 16 276 86 
229 11 105 238 155 56 272 51 217 107 149 186 102 
230 11 15 145 278 252 156 40 176 181 46 97 27 
231 11 59 300 104 8 76 290 198 48 94 234 297 
232 11 243 224 118 290 35 300 297 198 48 231 197 
233 11 185 99 209 205 271 277 273 7 108 294 13 
234 11 173 104 8 47 10 59 163 84 231 168 78 
235 11 172 267 113 125 166 43 253 5 151 93 279 
236 11 96 165 123 265 37 109 274 98 199 124 279 
237 11 242 94 48 198 76 115 118 224 59 8 22 
238 11 229 56 105 155 217 107 102 149 272 101 95 
239 11 64 111 28 244 77 119 154 257 249 225 62 
240 11 241 69 188 292 255 161 175 167 146 164 53 
241 11 240 69 292 32 255 188 218 146 139 167 161 
242 11 237 94 48 76 198 115 59 8 22 118 224 
243 11 35 290 297 300 275 197 231 104 198 224 59 
244 11 28 154 111 62 77 194 239 6 249 70 116 
245 11 135 78 168 150 170 10 213 84 63 114 173 
246 11 200 190 131 133 202 136 291 66 143 286 21 
247 11 201 68 189 70 116 132 57 154 22 26 47 
248 11 153 182 38 262 4 266 79 152 87 29 92 
249 11 77 250 24 111 28 62 244 6 194 239 64 
250 11 24 249 77 110 120 62 220 111 6 296 28 
251 11 41 222 228 92 67 258 191 152 276 87 95 
252 11 40 181 278 15 176 97 27 122 230 156 145 
253 11 269 151 19 127 172 93 235 43 267 254 113 
254 11 187 172 151 267 235 269 98 253 125 265 113 
255 11 139 146 195 208 256 240 263 196 188 241 91 
256 11 196 195 263 281 91 203 9 208 255 164 188 
257 11 119 64 99 294 239 259 271 111 144 77 249 
258 11 228 67 191 60 222 251 16 95 86 138 36 
259 11 294 13 119 257 100 99 64 147 225 239 233 
260 11 161 175 199 53 167 301 37 69 96 109 164 
261 11 49 81 288 2 184 42 298 129 169 44 293 
262 11 153 248 45 152 38 129 29 182 169 79 184 
263 11 203 9 256 281 196 164 124 188 109 195 91 
264 11 12 178 80 74 18 73 283 293 82 214 65 
265 11 98 96 236 109 124 125 267 37 9 203 164 
266 11 182 79 38 4 248 29 283 65 87 82 137 
267 11 172 235 125 98 113 254 166 265 279 151 253 
268 11 85 23 46 192 156 183 3 145 66 97 133 
269 11 151 253 172 127 254 19 235 93 267 187 43 
270 11 214 82 65 137 14 283 12 266 4 79 74 
271 11 144 159 99 185 273 296 7 220 285 257 277 
272 11 155 107 56 45 217 129 186 229 238 262 153 
273 11 7 285 58 159 277 271 144 185 296 174 220 
274 11 211 123 165 34 236 303 302 52 279 96 75 
275 11 197 297 35 300 104 84 290 243 231 173 234 
276 11 83 141 191 41 251 90 92 228 87 219 258 
277 11 58 7 285 273 148 209 108 33 174 185 299 
278 11 156 97 181 252 40 27 145 3 183 15 230 
279 11 113 166 125 5 123 210 235 98 43 267 236 
280 11 171 215 223 179 25 204 20 221 174 120 17 
281 11 196 263 91 256 9 203 124 164 195 109 37 
282 11 143 27 286 3 97 122 183 291 21 136 192 
283 11 65 82 80 214 79 12 266 38 182 29 137 
284 11 226 134 31 121 114 63 57 6 194 26 213 
285 11 7 58 273 277 159 174 299 33 221 148 271 
286 11 21 122 282 136 143 202 291 27 97 181 190 
287 11 158 212 193 54 108 205 148 33 209 51 277 
288 11 2 44 49 81 42 207 261 17 298 295 215 
289 11 117 17 207 295 71 204 44 128 103 2 288 
290 11 300 35 231 243 297 198 104 48 59 76 275 
291 11 143 136 202 133 282 286 21 190 3 183 27 
292 11 69 167 53 161 240 260 175 218 301 241 188 
293 11 18 298 169 80 184 29 49 81 178 261 264 
294 11 259 13 119 257 99 100 64 147 225 239 233 
295 11 207 289 2 81 17 49 44 288 298 73 117 
296 11 144 220 159 120 271 110 24 179 25 273 250 
297 11 275 35 197 300 290 243 104 231 84 173 59 
298 11 293 18 49 81 261 184 169 2 288 80 178 
299 11 174 221 33 20 223 51 58 285 7 277 148 
300 11 231 290 104 35 297 59 8 198 275 76 48 
301 11 53 199 167 30 260 227 161 175 292 69 52 
302 11 211 303 52 61 34 149 274 75 105 212 287 
303 11 34 149 302 75 211 274 101 105 52 238 36 
DEPOT_SECTION
   1
   -1
EOF
