NAME :  X-n303-kX-w30-c9.cctp
COMMENT : 	Adapted by Maziero, Usberti and Cavellucci from the Uchoa, Pecin, Pessoa, Poggi, Subramanian, and Vidal (2013)
TYPE :  CCTP
DIMENSION :    225
EDGE_WEIGHT_TYPE : 	EUC_2D	
CAPACITY : 	794
VERTICES_WITHIN_COVERAGE :  9
VERTICES_WITH_DEMAND : 	30
NODE_COORD_SECTION
1 500 500
2 205 638
3 893 161
4 191 775
5 444 871
6 225 445
7 368 543
8 120 270
9 612 902
10 45 323
11 707 182
12 125 720
13 442 388
14 79 759
15 904 76
16 379 849
17 213 595
18 164 686
19 404 947
20 331 615
21 842 156
22 272 297
23 957 227
24 274 481
25 287 544
26 152 403
27 873 146
28 267 415
29 188 727
30 594 742
31 198 429
32 383 602
33 395 836
34 600 866
35 192 744
36 12 705
37 869 99
38 233 811
39 235 638
40 423 904
41 220 619
42 236 713
43 960 141
44 128 321
45 160 230
46 200 650
47 375 638
48 540 726
49 635 790
50 198 412
51 375 558
52 123 259
53 365 859
54 545 700
55 242 431
56 140 412
57 316 413
58 145 764
59 892 246
60 331 828
61 231 342
62 211 378
63 197 538
64 808 113
65 129 655
66 84 714
67 416 784
68 151 243
69 275 442
70 46 355
71 182 746
72 158 717
73 198 648
74 137 763
75 30 301
76 979 214
77 384 855
78 212 794
79 35 779
80 108 640
81 623 977
82 231 796
83 402 932
84 166 237
85 341 803
86 883 143
87 395 327
88 382 787
89 81 261
90 721 333
91 596 878
92 273 514
93 281 417
94 464 893
95 140 413
96 256 250
97 206 384
98 204 563
99 283 520
100 214 494
101 854 142
102 502 839
103 599 889
104 485 898
105 339 73
106 396 959
107 192 533
108 234 702
109 811 101
110 266 346
111 185 436
112 61 374
113 843 188
114 156 795
115 387 889
116 622 16
117 327 991
118 867 172
119 329 496
120 930 115
121 371 317
122 416 575
123 98 434
124 468 990
125 239 775
126 231 748
127 251 398
128 913 135
129 928 399
130 337 519
131 294 981
132 124 342
133 615 881
134 454 888
135 639 789
136 48 353
137 200 704
138 269 610
139 54 300
140 346 588
141 867 63
142 304 240
143 129 675
144 293 547
145 868 126
146 190 760
147 894 162
148 209 696
149 400 495
150 283 657
151 649 872
152 198 370
153 824 202
154 904 169
155 224 441
156 627 952
157 155 218
158 593 802
159 817 211
160 843 191
161 616 902
162 230 561
163 204 614
164 425 539
165 430 850
166 119 764
167 265 615
168 547 481
169 308 513
170 339 599
171 316 598
172 325 348
173 163 480
174 595 727
175 303 866
176 920 82
177 105 238
178 437 482
179 88 300
180 464 929
181 302 404
182 198 250
183 257 410
184 26 411
185 207 344
186 212 757
187 277 453
188 274 472
189 875 101
190 434 975
191 647 943
192 317 866
193 391 393
194 217 666
195 229 740
196 630 918
197 125 704
198 545 898
199 184 757
200 985 201
201 448 998
202 117 784
203 359 490
204 365 531
205 387 551
206 895 120
207 476 868
208 281 586
209 609 944
210 868 164
211 148 748
212 168 463
213 364 550
214 844 163
215 214 637
216 189 582
217 863 190
218 175 686
219 393 400
220 172 614
221 320 504
222 182 671
223 356 599
224 88 215
225 608 775
DEMAND_SECTION
2 20
3 14
4 85
5 33
6 51
7 78
8 51
9 85
10 74
11 4
12 13
13 2
14 33
15 16
16 31
17 16
18 18
19 3
20 66
21 42
22 65
23 15
24 3
25 38
26 81
27 82
28 83
29 86
30 1
31 59
COVERAGE_SECTION
2 9 215 73 46 41 163 39 194 222 220 
3 9 147 154 86 27 210 118 128 206 217 
4 9 146 199 78 186 71 35 114 82 58 
5 9 134 165 94 207 40 104 33 115 180 
6 9 155 55 31 111 50 183 69 100 28 
7 9 213 204 51 205 130 140 203 164 223 
8 9 52 177 89 68 179 44 45 84 157 
9 9 161 103 133 196 91 34 209 151 156 
10 9 139 75 136 70 179 112 89 132 44 
11 8 159 153 64 109 113 160 21 214 
12 9 197 72 211 66 166 74 143 58 18 
13 6 219 193 87 178 121 149 
14 9 166 66 202 79 74 12 58 211 197 
15 9 176 189 141 37 206 120 128 145 86 
16 9 77 53 33 115 165 60 85 88 192 
17 9 163 41 216 98 162 215 2 220 39 
18 9 218 222 72 143 137 197 148 65 29 
19 8 106 83 190 40 115 180 201 124 
20 9 170 171 223 140 47 32 208 138 150 
21 9 214 101 210 118 113 27 160 145 217 
22 7 110 96 61 142 172 185 182 
23 8 76 200 59 154 43 147 3 217 
24 9 188 187 92 69 99 169 221 119 55 
25 9 144 99 92 169 208 221 130 162 171 
26 9 56 95 50 111 31 97 152 123 212 
27 9 86 101 210 145 3 147 118 21 206 
28 9 183 93 127 69 55 181 187 57 155 
29 9 35 71 137 199 72 146 148 186 195 
30 7 174 225 48 158 49 54 135 
31 9 111 50 155 6 55 212 97 26 62 
32 8 223 47 140 122 170 51 205 20 
33 9 16 77 53 165 88 115 67 5 85 
34 6 91 133 103 9 161 151 
35 9 71 199 146 29 186 4 195 126 137 
36 9 66 79 14 197 12 80 143 166 65 
37 9 189 145 206 141 15 86 101 27 176 
38 6 82 78 125 4 186 126 
39 9 215 41 2 194 46 73 167 163 138 
40 9 83 134 5 115 94 19 180 165 106 
41 9 163 215 2 39 17 73 46 167 194 
42 9 108 195 148 126 137 29 186 194 35 
43 9 120 128 154 200 206 147 3 176 76 
44 9 132 179 8 52 89 139 68 185 10 
45 8 84 157 68 182 52 177 8 224 
46 9 73 2 215 194 222 163 39 41 218 
47 6 32 223 20 170 140 171 
48 5 54 174 30 225 158 
49 4 135 225 158 30 
50 9 31 111 97 62 155 152 6 26 55 
51 8 205 213 7 204 140 122 32 223 
52 9 8 177 68 89 45 84 157 179 224 
53 9 16 77 115 33 60 192 85 175 165 
54 4 48 174 30 225 
55 9 155 6 183 28 127 69 93 187 31 
56 9 95 26 123 111 50 212 31 97 132 
57 7 181 93 28 69 187 183 172 
58 9 74 211 166 114 202 199 71 146 4 
59 6 217 23 160 113 118 154 
60 6 85 192 53 175 16 77 
61 8 185 110 62 152 97 127 22 183 
62 8 97 152 185 50 61 127 31 183 
63 7 107 98 162 216 100 17 173 
64 9 109 101 21 145 214 37 189 27 141 
65 8 143 80 18 197 218 222 220 12 
66 9 12 197 14 143 166 74 211 36 65 
67 5 88 33 165 16 85 
68 8 45 84 157 52 8 177 182 224 
69 9 187 93 28 188 55 183 24 181 6 
70 9 136 112 10 75 139 184 179 132 44 
71 9 35 199 146 29 4 186 211 72 58 
72 9 18 29 12 211 197 218 71 35 137 
73 9 46 2 215 194 222 163 41 39 220 
74 9 58 166 211 202 114 12 199 71 72 
75 7 139 10 136 70 179 89 112 
76 9 200 23 43 154 59 147 3 128 120 
77 9 16 53 33 115 165 60 5 40 85 
78 9 82 38 4 125 186 146 199 126 35 
79 9 14 36 66 202 166 74 12 58 197 
80 8 65 143 197 220 18 66 222 218 
81 6 156 209 191 196 161 9 
82 8 38 78 125 186 4 126 146 195 
83 9 19 106 40 115 190 180 134 94 5 
84 7 45 68 157 182 52 8 177 
85 4 60 88 16 53 
86 9 27 3 147 145 206 210 101 128 118 
87 7 121 193 172 219 13 57 181 
88 5 67 85 33 16 60 
89 9 177 8 179 52 139 224 75 10 68 
90 6 11 159 153 160 113 59 
91 7 103 34 133 9 161 196 151 
92 9 99 24 25 169 144 188 221 119 187 
93 9 28 181 183 69 57 127 187 55 188 
94 7 134 104 207 5 180 40 165 
95 9 56 26 123 111 212 50 31 173 97 
96 8 142 22 182 84 61 110 45 68 
97 8 62 152 50 185 31 127 61 111 
98 8 216 63 162 107 17 163 41 220 
99 9 92 25 169 144 24 221 188 119 130 
100 8 107 63 6 173 155 212 24 92 
101 9 21 27 145 214 210 86 118 3 147 
102 4 207 104 5 94 
103 8 91 9 133 161 34 196 151 198 
104 6 94 207 134 180 5 198 
105 5 142 96 182 22 157 
106 9 19 83 190 40 201 115 180 117 124 
107 7 63 98 100 162 216 173 17 
108 9 42 148 137 195 194 126 29 35 186 
109 9 64 37 101 145 21 189 141 214 27 
110 8 61 22 127 172 185 62 183 181 
111 9 31 50 212 155 6 26 173 56 95 
112 9 70 136 184 10 123 132 139 75 179 
113 8 160 217 153 214 118 21 159 210 
114 9 58 74 4 202 199 166 211 146 71 
115 9 77 53 40 16 83 33 165 5 19 
116 9 11 109 64 141 21 37 101 214 189 
117 8 131 106 19 83 190 115 201 192 
118 9 210 217 214 27 3 113 147 21 160 
119 9 221 130 169 203 204 99 24 92 188 
120 9 128 176 206 43 15 86 189 3 147 
121 8 87 172 193 219 13 22 142 110 
122 5 164 205 32 51 7 
123 7 56 95 26 112 184 212 173 
124 5 201 190 180 19 106 
125 9 82 126 186 78 38 195 4 146 35 
126 9 195 186 125 42 35 146 108 4 29 
127 9 183 28 55 93 62 97 69 155 181 
128 9 206 120 86 3 147 154 27 145 43 
129 6 59 23 76 200 90 159 
130 9 221 119 169 204 203 7 213 144 51 
131 6 117 106 19 175 192 83 
132 9 44 179 26 112 8 56 95 136 70 
133 7 103 91 9 34 161 151 196 
134 8 94 5 207 104 40 180 165 115 
135 4 49 225 158 30 
136 9 70 112 10 139 75 184 179 132 44 
137 9 148 29 218 108 42 222 18 35 194 
138 9 167 208 39 150 171 41 17 215 20 
139 9 75 10 179 89 136 70 8 112 44 
140 9 170 223 20 171 32 51 213 7 205 
141 9 37 15 189 176 145 206 109 64 101 
142 8 96 22 121 182 172 110 61 87 
143 9 65 197 18 80 12 218 72 222 66 
144 9 25 99 169 92 208 221 130 171 119 
145 9 27 101 86 189 37 206 210 21 3 
146 9 199 4 35 71 186 29 78 126 195 
147 9 3 154 86 27 210 118 128 206 217 
148 9 137 108 194 42 218 29 222 18 46 
149 8 178 203 204 164 205 7 213 130 
150 8 167 138 39 20 108 194 171 208 
151 7 133 161 9 34 196 91 103 
152 8 62 97 185 50 61 26 31 127 
153 7 159 160 113 217 214 21 118 
154 9 147 3 86 128 210 118 27 217 206 
155 9 6 55 31 50 111 183 28 69 127 
156 8 209 191 81 196 161 9 103 133 
157 7 45 84 68 52 177 182 8 
158 5 225 49 135 30 34 
159 7 153 160 113 217 214 21 118 
160 8 113 217 153 214 118 159 21 210 
161 9 9 103 133 196 91 34 209 151 156 
162 8 98 17 63 216 107 208 25 41 
163 9 41 17 2 215 220 73 216 46 39 
164 6 122 205 149 51 7 178 
165 9 5 33 134 77 207 16 40 94 115 
166 9 74 202 58 211 14 12 114 197 66 
167 9 138 208 39 41 150 171 17 215 163 
168 4 178 164 13 149 
169 9 221 99 119 130 92 25 144 24 188 
170 9 140 223 20 171 32 47 51 213 208 
171 9 20 170 140 208 223 138 167 144 25 
172 8 121 110 181 57 87 22 193 93 
173 5 212 111 100 107 31 
174 7 30 225 48 54 49 158 135 
175 5 192 60 53 85 16 
176 9 15 120 206 189 128 37 141 145 43 
177 8 52 224 89 8 68 157 45 84 
178 6 149 164 203 205 204 7 
179 9 139 89 8 44 10 52 132 75 177 
180 7 94 104 134 40 190 5 124 
181 7 57 93 28 183 69 127 187 
182 8 84 45 68 157 96 52 8 22 
183 9 28 127 93 55 69 155 181 6 187 
184 7 112 70 136 123 10 75 56 
185 8 61 152 62 97 110 50 127 22 
186 9 126 146 35 195 4 199 71 125 78 
187 9 69 188 24 93 28 55 183 6 155 
188 9 24 187 69 92 99 55 169 93 6 
189 9 37 145 206 15 141 86 27 101 176 
190 7 201 124 19 106 83 180 40 
191 6 156 196 209 81 161 9 
192 6 175 60 53 16 85 77 
193 6 219 13 87 57 121 172 
194 9 46 73 215 2 148 39 222 108 137 
195 9 126 186 42 125 35 108 29 146 137 
196 9 161 9 191 209 156 133 103 151 91 
197 9 12 143 72 66 18 65 211 218 74 
198 5 91 103 104 34 9 
199 9 146 71 35 4 186 29 211 58 78 
200 9 76 23 43 154 128 147 3 120 59 
201 6 124 190 106 19 180 83 
202 9 166 74 58 114 14 211 12 199 4 
203 8 119 130 149 204 221 7 169 213 
204 9 7 213 51 130 205 203 119 149 221 
205 8 51 7 213 204 122 164 32 140 
206 9 128 86 145 189 37 27 120 3 147 
207 8 94 134 104 5 102 165 180 40 
208 9 138 167 171 144 25 162 20 170 140 
209 8 156 196 81 191 9 161 103 133 
210 9 118 27 214 3 86 101 147 217 21 
211 9 58 74 72 166 71 12 199 35 146 
212 9 173 111 31 100 95 56 50 6 155 
213 9 7 51 204 205 130 140 223 32 170 
214 9 21 101 210 113 118 160 217 27 86 
215 9 2 41 46 73 39 163 194 17 222 
216 8 98 17 163 220 63 162 41 107 
217 8 118 113 160 210 214 21 153 3 
218 9 18 222 137 72 148 29 46 73 143 
219 6 193 13 87 57 121 172 
220 9 163 216 2 73 17 46 41 215 222 
221 9 119 169 130 99 203 92 24 144 25 
222 9 218 18 46 73 194 148 137 2 215 
223 9 140 170 32 20 171 47 51 213 7 
224 5 177 89 52 8 157 
225 5 49 158 135 30 174 
DEPOT_SECTION
   1
   -1
EOF
