NAME :  X-n308-kX-w30-c7.cctp
COMMENT : 	Adapted by Maziero, Usberti and Cavellucci from the Uchoa, Pecin, Pessoa, Poggi, Subramanian, and Vidal (2013)
TYPE :  CCTP
DIMENSION :    178
EDGE_WEIGHT_TYPE : 	EUC_2D	
CAPACITY : 	246
VERTICES_WITHIN_COVERAGE :  7
VERTICES_WITH_DEMAND : 	30
NODE_COORD_SECTION
1 0 0
2 706 137
3 392 662
4 692 274
5 944 370
6 726 945
7 869 43
8 621 770
9 112 402
10 523 374
11 619 178
12 553 457
13 95 814
14 696 130
15 27 417
16 940 487
17 943 965
18 670 435
19 931 752
20 307 776
21 404 101
22 199 526
23 117 312
24 762 505
25 433 864
26 868 155
27 832 870
28 488 624
29 686 782
30 585 89
31 268 339
32 248 344
33 22 776
34 882 646
35 449 27
36 857 362
37 809 774
38 403 626
39 559 145
40 667 945
41 524 737
42 683 777
43 641 798
44 514 495
45 102 813
46 517 591
47 748 330
48 859 127
49 699 41
50 281 442
51 41 732
52 555 95
53 378 1
54 155 308
55 942 955
56 619 205
57 646 910
58 796 791
59 785 49
60 958 817
61 761 866
62 929 432
63 743 535
64 418 679
65 107 379
66 22 432
67 24 474
68 380 83
69 576 209
70 877 859
71 901 0
72 464 473
73 976 331
74 193 341
75 525 782
76 527 935
77 218 529
78 626 974
79 594 432
80 757 450
81 805 123
82 959 266
83 348 776
84 841 361
85 333 503
86 675 306
87 856 199
88 300 792
89 371 156
90 172 589
91 609 928
92 379 694
93 996 38
94 738 18
95 693 307
96 989 54
97 468 585
98 594 172
99 271 783
100 58 987
101 374 383
102 775 530
103 913 512
104 813 948
105 943 941
106 437 169
107 247 374
108 347 51
109 854 335
110 619 272
111 742 232
112 605 66
113 973 75
114 241 509
115 845 106
116 955 319
117 432 662
118 704 73
119 570 429
120 362 720
121 114 713
122 11 516
123 737 62
124 386 880
125 493 321
126 655 303
127 633 506
128 522 325
129 541 547
130 89 325
131 76 414
132 340 718
133 293 801
134 249 336
135 232 799
136 537 434
137 330 105
138 621 753
139 401 923
140 159 253
141 552 382
142 623 781
143 107 370
144 841 468
145 221 773
146 79 461
147 165 871
148 349 329
149 559 430
150 387 3
151 149 266
152 100 768
153 567 435
154 110 270
155 304 770
156 739 876
157 481 97
158 289 287
159 413 724
160 300 735
161 734 562
162 259 344
163 159 450
164 373 44
165 483 678
166 704 755
167 30 414
168 683 188
169 3 371
170 577 482
171 524 915
172 856 763
173 614 173
174 554 665
175 629 776
176 339 342
177 67 412
178 154 267
DEMAND_SECTION
2 80
3 94
4 87
5 77
6 77
7 50
8 79
9 86
10 75
11 84
12 88
13 94
14 74
15 95
16 89
17 83
18 55
19 77
20 1
21 7
22 3
23 7
24 5
25 2
26 2
27 2
28 5
29 2
30 7
31 1
COVERAGE_SECTION
2 7 14 168 118 123 11 49 173 
3 7 64 92 38 117 120 159 132 
4 7 95 86 126 111 110 47 168 
5 7 73 116 62 36 109 84 82 
6 7 40 156 61 57 104 78 91 
7 7 71 115 59 48 81 113 26 
8 7 175 142 138 43 42 29 166 
9 6 65 143 131 177 163 146 
10 5 141 128 125 136 149 
11 6 173 98 56 69 168 39 
12 7 153 136 149 119 170 79 44 
13 6 45 152 33 147 51 121 
14 7 2 118 168 123 49 11 173 
15 6 167 66 177 131 169 67 
16 7 103 62 144 5 36 73 84 
17 7 55 105 70 104 27 60 61 
18 2 79 127 
19 6 60 172 34 70 37 58 
20 6 155 88 133 99 83 160 
21 7 68 89 164 137 106 108 157 
22 6 77 114 90 163 50 85 
23 5 130 54 154 151 178 
24 6 102 63 80 161 144 18 
25 2 124 139 
26 7 48 87 115 81 7 113 59 
27 7 70 61 104 58 156 37 172 
28 7 46 97 165 117 174 38 64 
29 7 42 166 43 175 142 8 138 
30 7 112 52 39 98 173 11 157 
31 7 162 134 32 107 158 176 74 
32 7 134 162 31 107 74 158 176 
33 6 51 152 13 45 121 147 
34 2 19 172 
35 7 150 53 157 164 21 68 108 
36 7 84 109 5 62 116 144 47 
37 5 58 172 27 61 166 
38 7 3 117 64 92 97 28 165 
39 6 98 52 30 173 69 11 
40 7 57 78 6 91 156 61 76 
41 6 75 165 174 138 8 142 
42 7 29 166 43 175 142 8 138 
43 7 142 175 8 42 29 138 166 
44 7 12 72 129 170 136 149 153 
45 6 13 152 147 33 51 121 
46 7 28 97 129 174 165 44 117 
47 5 95 86 4 126 84 
48 7 115 26 81 87 7 59 113 
49 7 118 123 94 59 14 2 112 
50 7 107 114 85 162 32 31 77 
51 5 33 152 121 13 45 
52 7 30 39 112 157 98 173 11 
53 6 150 164 108 35 68 21 
54 7 23 178 151 74 140 154 130 
55 7 17 105 70 104 27 60 61 
56 6 11 173 98 69 168 110 
57 7 40 91 78 6 156 43 76 
58 5 37 172 61 27 166 
59 7 123 94 81 115 7 118 49 
60 7 19 70 172 105 27 55 17 
61 7 156 27 58 6 104 37 29 
62 7 16 5 103 144 36 73 84 
63 4 161 102 24 80 
64 7 117 3 92 159 38 165 120 
65 6 143 9 131 177 130 23 
66 7 15 167 67 177 131 146 169 
67 7 66 122 15 146 167 177 131 
68 7 21 164 108 137 89 150 53 
69 4 98 56 173 11 
70 7 27 60 172 105 58 37 104 
71 7 7 93 96 113 115 59 48 
72 6 44 136 12 149 129 153 
73 7 116 5 82 62 109 36 84 
74 7 54 32 134 107 162 31 23 
75 6 41 8 142 138 175 165 
76 5 171 91 78 25 57 
77 6 22 114 90 163 50 85 
78 7 91 40 57 6 76 171 156 
79 5 119 153 149 12 170 
80 6 24 102 63 144 18 161 
81 7 115 48 26 59 123 87 2 
82 7 116 73 5 87 109 36 26 
83 2 20 155 
84 7 36 109 47 5 144 62 116 
85 6 50 114 77 101 72 22 
86 3 95 126 4 
87 7 26 48 81 115 111 82 109 
88 5 133 20 155 99 83 
89 4 21 137 106 68 
90 3 22 77 114 
91 7 57 78 40 76 171 6 43 
92 6 120 3 64 159 132 117 
93 7 96 113 71 7 48 115 26 
94 7 123 49 59 118 14 2 81 
95 4 86 4 126 47 
96 7 93 113 71 7 48 115 26 
97 7 28 46 38 129 117 165 44 
98 6 173 11 56 69 39 30 
99 7 133 88 155 20 135 145 160 
100 4 147 13 45 33 
101 4 176 148 50 31 
102 5 24 63 161 80 144 
103 7 16 62 144 34 102 5 24 
104 7 27 6 61 156 70 55 105 
105 7 55 17 70 60 104 27 19 
106 2 89 21 
107 7 32 162 134 31 74 50 158 
108 6 164 68 137 53 150 21 
109 7 36 84 5 116 47 73 62 
110 4 126 86 56 4 
111 7 4 168 95 47 86 2 14 
112 7 30 52 39 49 118 98 173 
113 7 96 93 71 7 48 26 115 
114 7 77 22 50 85 163 90 107 
115 7 48 81 26 7 59 87 123 
116 7 73 5 82 109 36 62 84 
117 7 64 3 38 165 92 159 28 
118 7 49 123 14 2 94 59 112 
119 6 153 149 79 12 136 141 
120 6 132 92 159 83 160 3 
121 5 152 51 45 13 33 
122 5 67 66 146 15 167 
123 7 118 49 94 59 14 2 81 
124 2 139 25 
125 2 128 10 
126 4 86 95 4 110 
127 7 170 18 79 12 153 119 129 
128 2 125 10 
129 7 46 44 170 97 12 28 127 
130 2 23 143 
131 7 177 9 167 65 146 15 143 
132 6 120 160 92 83 155 20 
133 4 88 99 20 155 
134 7 32 162 31 107 74 158 176 
135 5 145 99 133 88 20 
136 7 149 12 153 119 141 79 10 
137 5 68 108 89 21 164 
138 7 8 175 142 43 42 29 166 
139 2 124 25 
140 5 178 151 154 54 23 
141 5 10 149 119 136 153 
142 7 175 8 43 138 42 29 166 
143 6 65 9 130 131 177 23 
144 7 103 80 24 102 62 16 36 
145 6 135 99 133 88 155 20 
146 7 131 177 67 66 9 15 167 
147 4 45 13 135 145 
148 4 176 101 158 31 
149 7 153 119 136 12 79 141 170 
150 6 53 164 108 35 68 21 
151 5 178 140 154 54 23 
152 6 45 13 121 51 33 145 
153 7 119 149 12 79 136 170 141 
154 4 151 23 178 140 
155 6 20 88 133 99 160 83 
156 7 61 6 27 57 40 58 104 
157 6 52 21 35 106 39 68 
158 4 31 134 162 32 
159 5 64 92 120 3 117 
160 7 155 20 132 99 88 83 120 
161 3 63 102 24 
162 7 31 32 134 107 158 74 176 
163 6 9 146 22 65 131 143 
164 7 108 68 53 150 21 137 35 
165 7 117 28 64 41 174 159 3 
166 7 42 29 43 175 138 8 142 
167 6 15 66 177 131 169 67 
168 7 2 14 11 56 173 111 4 
169 2 167 15 
170 7 12 153 79 119 149 127 136 
171 5 76 91 25 78 57 
172 5 37 58 19 70 27 
173 6 11 98 56 69 39 168 
174 7 165 28 41 46 138 97 129 
175 7 142 8 138 43 42 29 166 
176 5 148 101 31 158 162 
177 7 131 167 15 9 66 146 65 
178 5 151 140 54 154 23 
DEPOT_SECTION
   1
   -1
EOF
