NAME :  X-n344-kX-w137-c9.cctp
COMMENT : 	Adapted by Maziero, Usberti and Cavellucci from the Uchoa, Pecin, Pessoa, Poggi, Subramanian, and Vidal (2013)
TYPE :  CCTP
DIMENSION :    318
EDGE_WEIGHT_TYPE : 	EUC_2D	
CAPACITY : 	61
VERTICES_WITHIN_COVERAGE :  9
VERTICES_WITH_DEMAND : 	137
NODE_COORD_SECTION
1 500 500
2 615 190
3 890 200
4 983 684
5 874 112
6 906 186
7 801 278
8 823 446
9 242 544
10 505 210
11 767 766
12 698 305
13 707 511
14 10 968
15 172 13
16 57 414
17 317 373
18 849 680
19 854 12
20 429 688
21 822 378
22 774 584
23 601 895
24 921 309
25 176 165
26 368 432
27 656 430
28 715 225
29 35 264
30 544 994
31 214 533
32 573 650
33 259 595
34 38 550
35 925 755
36 337 562
37 412 969
38 919 402
39 391 792
40 424 206
41 259 588
42 79 364
43 667 978
44 332 593
45 270 544
46 745 267
47 760 786
48 134 998
49 117 320
50 966 458
51 133 334
52 986 462
53 176 290
54 120 296
55 201 878
56 615 293
57 24 217
58 418 662
59 831 314
60 832 564
61 945 758
62 394 446
63 843 680
64 24 613
65 422 956
66 411 58
67 512 655
68 657 544
69 644 748
70 162 924
71 64 57
72 773 727
73 1 461
74 167 981
75 180 346
76 495 295
77 589 311
78 273 186
79 493 121
80 522 653
81 704 909
82 157 9
83 90 625
84 632 964
85 347 750
86 825 940
87 9 237
88 181 662
89 722 724
90 106 978
91 746 981
92 603 944
93 734 612
94 163 142
95 743 16
96 910 272
97 495 584
98 985 968
99 901 149
100 192 878
101 817 700
102 888 1
103 70 323
104 119 255
105 716 413
106 17 309
107 558 122
108 436 663
109 912 64
110 846 973
111 622 271
112 469 629
113 326 388
114 675 587
115 974 135
116 620 443
117 585 6
118 134 764
119 276 222
120 869 663
121 517 935
122 681 631
123 650 679
124 277 612
125 654 76
126 101 332
127 162 792
128 480 878
129 730 728
130 8 525
131 340 489
132 194 815
133 183 75
134 345 884
135 660 841
136 712 42
137 655 695
138 880 600
139 50 555
140 406 946
141 490 53
142 712 878
143 396 484
144 225 176
145 235 9
146 768 438
147 33 116
148 197 149
149 141 312
150 301 18
151 251 83
152 930 549
153 662 99
154 394 872
155 793 659
156 104 821
157 953 401
158 459 264
159 353 254
160 986 680
161 375 639
162 733 982
163 82 923
164 912 604
165 992 123
166 784 823
167 82 859
168 803 338
169 67 555
170 5 102
171 907 896
172 654 393
173 122 150
174 65 9
175 41 545
176 680 22
177 685 814
178 575 872
179 232 836
180 150 82
181 734 779
182 555 13
183 774 848
184 101 440
185 573 609
186 552 463
187 436 773
188 497 547
189 513 861
190 767 794
191 236 121
192 678 796
193 711 637
194 687 7
195 507 855
196 105 82
197 550 658
198 604 726
199 745 746
200 608 519
201 439 943
202 379 464
203 618 848
204 514 548
205 55 556
206 42 31
207 586 888
208 418 791
209 136 189
210 589 92
211 41 501
212 383 686
213 419 687
214 466 837
215 144 85
216 445 538
217 637 46
218 219 38
219 27 564
220 710 875
221 58 518
222 92 293
223 842 895
224 731 737
225 606 332
226 606 704
227 789 879
228 609 368
229 72 46
230 137 70
231 41 399
232 112 82
233 678 743
234 214 619
235 471 405
236 804 753
237 914 234
238 172 328
239 129 161
240 64 580
241 667 727
242 121 150
243 698 50
244 613 106
245 583 675
246 466 675
247 313 775
248 30 555
249 137 266
250 668 604
251 705 747
252 722 981
253 649 808
254 163 244
255 565 370
256 499 841
257 46 194
258 513 530
259 638 832
260 752 797
261 132 16
262 570 3
263 702 820
264 462 689
265 426 818
266 500 887
267 489 725
268 198 26
269 9 875
270 29 588
271 640 6
272 624 762
273 180 262
274 843 98
275 661 64
276 142 149
277 748 925
278 669 393
279 54 527
280 2 57
281 694 679
282 641 883
283 123 564
284 920 860
285 656 17
286 377 640
287 819 879
288 76 94
289 117 360
290 10 614
291 474 845
292 702 63
293 741 232
294 689 901
295 5 718
296 610 765
297 677 851
298 698 725
299 574 13
300 87 650
301 666 687
302 5 190
303 582 474
304 26 148
305 539 901
306 15 159
307 32 1
308 158 173
309 650 658
310 161 140
311 499 834
312 570 682
313 139 525
314 577 356
315 175 121
316 698 54
317 671 10
318 509 650
DEMAND_SECTION
2 7
3 10
4 7
5 8
6 9
7 8
8 5
9 7
10 7
11 5
12 10
13 8
14 6
15 7
16 7
17 5
18 9
19 10
20 10
21 7
22 5
23 9
24 10
25 10
26 8
27 5
28 9
29 7
30 6
31 8
32 5
33 8
34 7
35 6
36 6
37 10
38 10
39 9
40 6
41 8
42 9
43 9
44 7
45 10
46 5
47 10
48 6
49 5
50 7
51 9
52 10
53 7
54 10
55 5
56 10
57 8
58 9
59 5
60 8
61 10
62 6
63 8
64 5
65 7
66 5
67 5
68 10
69 5
70 8
71 7
72 9
73 5
74 6
75 10
76 6
77 7
78 10
79 10
80 6
81 6
82 10
83 9
84 6
85 10
86 6
87 9
88 10
89 8
90 8
91 9
92 9
93 9
94 10
95 7
96 6
97 9
98 8
99 7
100 6
101 8
102 10
103 7
104 10
105 9
106 8
107 10
108 8
109 6
110 9
111 10
112 9
113 6
114 9
115 8
116 8
117 6
118 7
119 8
120 7
121 8
122 8
123 5
124 6
125 10
126 5
127 7
128 6
129 7
130 5
131 7
132 6
133 7
134 6
135 10
136 6
137 6
138 8
COVERAGE_SECTION
2 9 111 244 107 210 153 56 28 10 125 
3 9 6 237 99 96 5 115 274 24 7 
4 9 160 61 35 164 120 138 18 63 152 
5 9 274 99 109 6 3 19 115 102 165 
6 9 3 99 237 5 115 96 165 274 109 
7 9 59 46 168 293 28 21 12 96 3 
8 9 146 21 38 168 105 60 59 13 157 
9 9 45 31 41 33 124 234 36 44 313 
10 9 158 40 76 79 107 2 77 111 56 
11 9 47 190 199 260 181 72 236 224 129 
12 9 46 28 111 56 293 278 225 172 7 
13 9 68 114 146 27 105 22 200 250 93 
14 9 163 269 90 48 167 70 74 156 100 
15 9 82 268 261 218 133 145 230 180 215 
16 8 231 184 42 73 289 211 103 126 
17 9 113 26 62 202 131 159 143 75 238 
18 9 63 120 101 155 138 236 72 164 35 
19 9 102 109 274 5 95 99 136 292 243 
20 9 213 108 58 264 246 212 267 112 286 
21 9 168 59 8 146 38 7 105 24 157 
22 9 93 60 155 193 13 114 122 138 250 
23 9 207 178 282 92 203 305 259 84 135 
24 9 96 237 59 38 157 3 21 168 6 
25 9 308 94 148 310 276 315 209 239 144 
26 9 62 202 143 113 131 17 235 216 36 
27 8 172 116 278 105 228 303 13 200 
28 9 293 46 12 7 111 2 56 153 168 
29 9 87 57 106 222 103 257 302 104 54 
30 9 121 92 84 305 23 207 266 201 43 
31 8 9 45 41 313 33 234 283 124 
32 9 197 245 312 185 80 67 226 318 309 
33 9 41 124 234 45 9 44 31 36 88 
34 9 175 248 139 205 219 279 169 221 130 
35 9 61 4 160 284 18 120 63 101 236 
36 9 44 45 131 124 41 33 161 286 9 
37 9 65 140 201 154 134 121 128 266 30 
38 9 157 50 52 24 21 8 59 96 168 
39 7 208 265 187 85 154 247 214 
40 9 158 10 159 79 76 66 119 78 107 
41 9 33 124 45 9 234 31 44 36 88 
42 9 289 126 103 231 16 49 51 222 54 
43 9 84 252 162 92 81 91 294 277 282 
44 9 36 124 161 286 33 41 45 9 131 
45 9 9 41 33 31 124 36 44 131 234 
46 9 293 28 7 12 168 59 111 56 21 
47 9 190 260 11 181 199 166 236 224 72 
48 9 90 74 70 163 14 100 55 167 269 
49 9 126 51 54 149 222 289 103 238 42 
50 9 52 157 38 152 8 24 164 21 138 
51 9 49 149 289 126 238 54 75 222 42 
52 9 50 157 38 152 164 8 24 138 21 
53 9 273 238 149 249 254 54 75 51 49 
54 9 49 149 222 249 51 104 126 53 103 
55 9 100 179 70 132 127 74 156 167 163 
56 9 111 77 225 314 228 12 255 2 172 
57 6 87 257 302 29 306 304 
58 9 108 213 20 212 286 161 246 264 112 
59 9 168 7 21 96 24 46 237 293 38 
60 9 138 22 164 152 155 120 93 18 63 
61 9 35 4 160 284 120 18 63 101 236 
62 8 202 26 143 131 235 113 216 17 
63 9 18 120 101 155 236 72 138 164 35 
64 9 290 270 219 240 248 139 34 205 83 
65 9 37 140 201 154 121 128 266 134 291 
66 9 141 79 150 40 182 107 151 262 299 
67 9 318 80 197 112 246 264 32 312 97 
68 5 114 200 13 250 122 
69 9 272 241 233 296 198 137 226 192 298 
70 9 100 74 55 90 48 163 167 179 132 
71 9 229 206 288 174 196 232 280 307 147 
72 9 199 11 236 129 224 89 101 47 181 
73 8 211 130 16 231 221 279 175 34 
74 9 48 70 90 163 100 55 167 14 179 
75 9 238 51 149 53 289 49 54 126 273 
76 9 158 10 77 314 255 235 40 225 56 
77 9 225 56 314 111 228 255 76 172 12 
78 9 119 144 191 148 25 151 159 308 94 
79 9 107 141 10 210 66 40 244 182 299 
80 9 67 318 197 32 312 112 246 245 185 
81 9 294 142 220 277 297 282 252 43 162 
82 9 15 261 268 230 218 133 180 215 145 
83 9 300 240 64 283 270 169 205 139 290 
84 9 92 43 23 282 294 207 81 252 30 
85 9 247 39 212 208 187 213 20 265 58 
86 9 110 223 287 227 277 91 171 162 183 
87 8 57 29 302 257 106 306 304 222 
88 9 234 300 83 33 41 124 118 283 127 
89 9 129 224 298 251 199 233 72 281 241 
90 9 48 163 74 70 14 167 100 55 269 
91 9 162 252 277 43 81 86 294 110 142 
92 9 84 23 207 43 282 30 178 305 121 
93 9 193 22 122 114 250 155 281 309 301 
94 9 310 276 315 25 308 148 239 173 242 
95 9 136 243 194 316 292 176 317 285 275 
96 9 237 24 3 6 59 7 99 168 38 
97 8 188 204 112 258 318 216 67 80 
98 9 171 284 110 223 86 287 61 227 35 
99 9 6 5 3 115 274 109 237 165 96 
100 9 55 70 179 132 127 156 74 167 163 
101 9 63 18 155 72 236 120 11 199 129 
102 9 19 109 274 5 95 99 115 165 136 
103 9 126 222 42 49 106 54 289 51 29 
104 8 249 54 254 222 149 273 49 53 
105 9 278 146 27 172 13 116 12 8 21 
106 9 29 103 87 222 42 126 57 231 49 
107 9 210 244 79 2 141 10 125 153 182 
108 9 58 20 213 246 264 112 212 286 161 
109 9 5 102 274 19 99 115 165 6 3 
110 9 86 223 171 287 91 277 227 162 252 
111 9 56 77 225 2 12 314 228 28 255 
112 9 318 246 108 67 97 80 264 58 20 
113 9 17 26 62 202 131 143 159 235 75 
114 9 250 122 68 193 93 309 13 281 123 
115 9 165 99 6 109 5 3 237 274 96 
116 7 27 303 172 278 186 228 200 
117 9 299 262 182 271 217 285 210 317 176 
118 9 127 156 132 167 88 179 300 100 55 
119 9 78 144 159 273 148 191 25 254 53 
120 9 18 63 101 138 164 155 60 35 236 
121 9 305 266 30 128 189 201 195 207 92 
122 9 250 193 309 114 281 93 123 301 137 
123 9 137 301 309 281 226 241 122 198 298 
124 9 33 41 44 234 45 9 36 31 161 
125 9 275 153 217 316 292 243 244 285 176 
126 9 49 51 103 289 42 222 54 149 238 
127 9 132 118 156 179 100 55 167 88 70 
128 8 266 291 195 189 256 214 311 305 
129 9 89 224 199 251 298 72 181 11 233 
130 9 248 34 175 211 219 279 221 139 205 
131 9 202 143 26 62 36 45 113 44 9 
132 9 127 179 55 100 118 156 70 167 247 
133 9 180 215 230 315 268 218 15 151 310 
134 9 154 140 39 265 65 37 201 247 208 
135 9 297 259 253 177 203 282 263 192 220 
136 9 243 316 292 176 95 194 317 275 285 
137 9 301 123 241 309 281 226 298 233 69 
138 9 164 60 120 152 18 63 155 22 101 
139 9 205 34 175 169 248 219 279 240 221 
140 9 65 37 201 154 134 128 266 121 291 
141 9 79 182 66 299 262 107 117 210 244 
142 9 220 81 294 297 263 277 135 177 183 
143 9 202 62 131 26 216 36 235 113 188 
144 9 148 78 25 191 308 119 94 310 315 
145 9 218 268 15 150 151 82 133 261 180 
146 9 8 105 21 13 168 278 27 172 59 
147 7 170 304 306 288 71 280 257 
148 9 25 94 315 310 144 308 191 276 239 
149 9 51 49 54 238 53 126 249 75 222 
150 9 145 151 218 268 66 191 15 133 82 
151 9 191 218 133 145 268 150 148 315 144 
152 9 164 138 50 60 52 120 160 4 38 
153 9 125 275 244 292 316 217 243 210 136 
154 9 134 265 140 39 214 201 208 291 128 
155 9 101 63 18 72 93 120 22 193 129 
156 9 167 118 127 132 163 100 269 55 70 
157 9 38 50 52 24 21 96 8 59 152 
158 9 76 40 10 159 77 235 79 255 314 
159 9 119 40 78 158 17 113 76 144 10 
160 9 4 61 35 164 120 138 18 152 63 
161 9 286 212 58 44 213 108 20 36 112 
162 9 252 91 277 43 81 294 86 84 142 
163 9 90 167 70 14 269 48 74 156 100 
164 9 138 152 120 60 18 63 160 4 155 
165 9 115 99 109 6 5 3 237 274 102 
166 9 183 190 260 47 227 11 287 181 236 
167 9 156 163 269 70 127 118 100 132 55 
168 9 59 21 7 46 146 8 12 105 24 
169 9 205 139 240 175 34 279 248 221 219 
170 8 147 280 304 306 288 71 206 229 
171 9 284 223 287 86 110 98 227 183 35 
172 9 278 27 228 116 105 225 314 255 12 
173 6 242 239 276 310 209 94 
174 9 206 307 229 71 261 280 196 288 232 
175 9 34 139 248 205 279 219 169 221 130 
176 9 317 194 285 243 316 136 271 275 292 
177 9 263 192 253 135 297 259 181 220 142 
178 8 207 23 305 203 189 282 195 259 
179 9 132 55 100 127 247 70 118 134 156 
180 8 215 230 133 232 196 315 310 94 
181 9 260 47 11 199 190 224 251 129 263 
182 9 262 299 117 141 271 210 217 285 107 
183 9 166 227 190 287 260 47 142 220 263 
184 6 16 231 42 289 211 221 
185 7 32 197 80 245 312 67 318 
186 2 303 116 
187 5 208 265 39 214 267 
188 4 204 258 97 216 
189 7 195 256 266 311 128 291 305 
190 9 47 260 11 166 181 199 183 236 72 
191 9 151 148 144 315 133 25 78 94 310 
192 9 177 253 263 135 233 259 297 251 69 
193 9 122 93 281 250 114 309 301 123 137 
194 9 317 176 285 136 243 271 316 95 292 
195 7 189 256 311 266 291 128 214 
196 8 232 288 230 215 180 71 229 173 
197 9 32 80 312 245 67 318 185 226 112 
198 8 226 296 272 69 245 312 137 241 
199 9 224 129 11 89 72 181 251 47 260 
200 2 303 68 
201 9 65 140 37 128 121 266 154 291 305 
202 9 62 143 26 131 113 216 36 235 17 
203 9 259 282 135 178 23 207 253 297 177 
204 4 188 258 97 216 
205 9 139 169 34 175 248 240 219 279 221 
206 9 174 307 71 229 280 288 170 196 147 
207 9 23 178 305 203 282 92 259 189 121 
208 5 187 39 265 214 291 
209 6 308 239 276 173 242 25 
210 9 244 107 217 125 153 275 299 117 182 
211 8 221 279 130 175 34 139 248 73 
212 9 213 58 20 286 161 108 85 264 246 
213 9 20 58 108 212 264 246 286 161 112 
214 6 291 256 311 128 265 195 
215 8 180 230 232 196 133 315 310 94 
216 8 188 97 258 204 143 112 202 62 
217 9 275 125 285 271 176 317 153 243 316 
218 9 268 145 133 15 151 82 180 150 191 
219 9 248 34 175 270 139 205 240 169 130 
220 9 142 294 81 297 263 135 277 177 183 
221 7 279 211 175 34 139 169 205 
222 9 54 49 103 126 104 249 149 51 29 
223 9 287 86 227 171 110 183 284 166 277 
224 9 129 89 199 251 298 181 72 11 233 
225 9 77 228 314 56 255 111 172 278 12 
226 9 198 245 312 137 123 69 272 296 301 
227 9 287 183 223 166 277 86 142 220 190 
228 9 314 225 255 172 77 278 56 116 27 
229 9 71 206 174 288 196 232 307 261 230 
230 8 215 180 232 196 133 261 82 315 
231 9 16 42 184 73 103 289 126 106 211 
232 8 196 230 215 180 288 71 229 173 
233 9 241 251 298 69 89 137 192 224 129 
234 9 33 88 41 124 9 31 45 283 313 
235 8 62 186 255 26 143 202 76 314 
236 9 11 72 47 101 190 199 260 166 181 
237 9 96 3 6 24 99 59 115 7 5 
238 9 75 149 53 51 49 54 289 273 126 
239 7 173 242 276 209 308 310 94 
240 9 169 205 139 270 34 219 175 248 64 
241 9 233 69 298 137 301 251 123 89 272 
242 6 173 239 276 310 209 94 
243 9 316 292 136 176 275 194 317 125 285 
244 9 210 153 125 107 275 217 2 285 292 
245 9 312 32 197 226 198 80 123 185 309 
246 9 264 108 20 112 213 58 67 318 267 
247 9 85 39 179 208 212 134 265 187 132 
248 9 34 219 175 139 205 270 130 169 279 
249 9 104 54 254 273 53 149 222 49 51 
250 9 114 122 193 309 68 93 123 281 301 
251 9 298 233 224 89 129 199 181 241 192 
252 9 162 91 43 277 81 294 84 142 220 
253 9 259 192 135 177 203 297 272 263 296 
254 9 273 249 104 53 209 54 149 308 25 
255 8 314 228 225 77 116 56 172 186 
256 6 311 195 189 291 214 128 
257 6 57 302 306 304 87 29 
258 3 204 188 97 
259 9 135 203 253 297 177 282 192 263 272 
260 9 47 190 181 11 166 199 263 183 224 
261 9 82 15 230 174 229 268 180 232 215 
262 9 299 117 182 271 217 285 210 141 317 
263 9 177 192 297 135 181 253 260 220 142 
264 9 246 20 108 213 267 58 67 112 318 
265 6 208 39 214 187 291 154 
266 9 128 189 195 305 256 291 121 311 214 
267 5 264 246 20 187 67 
268 9 218 15 145 82 133 261 180 230 151 
269 9 167 163 14 156 90 295 70 118 127 
270 9 219 64 290 248 240 34 139 205 175 
271 9 285 317 217 176 194 117 275 299 262 
272 8 296 69 198 253 241 233 226 192 
273 9 254 53 249 104 149 238 54 75 209 
274 9 5 99 109 19 102 6 3 95 115 
275 9 125 217 153 316 243 292 176 285 317 
276 8 239 173 242 310 94 308 25 209 
277 9 81 91 142 162 227 252 220 294 86 
278 9 172 27 105 228 116 225 12 314 255 
279 8 221 175 34 139 205 211 169 248 
280 8 170 206 71 307 147 229 174 288 
281 9 301 137 123 193 298 309 122 89 241 
282 9 23 203 135 297 259 294 207 178 81 
283 6 313 169 240 205 83 139 
284 9 171 223 287 35 61 86 98 227 110 
285 9 317 271 176 194 217 275 243 316 125 
286 9 161 212 58 108 213 44 20 36 112 
287 9 223 227 183 86 166 277 171 110 190 
288 7 196 232 71 147 229 230 215 
289 9 51 126 42 49 149 103 54 238 75 
290 9 64 270 219 248 240 34 139 205 175 
291 6 214 256 311 128 195 189 
292 9 316 243 136 275 176 125 153 194 317 
293 9 28 46 7 12 59 168 111 2 56 
294 9 81 142 220 282 297 277 135 43 263 
295 9 290 64 300 83 270 118 156 240 219 
296 6 272 69 198 253 226 241 
297 9 135 177 263 220 259 142 282 253 294 
298 9 251 89 233 241 129 224 281 301 199 
299 9 262 117 182 271 217 210 285 141 317 
300 9 83 64 240 270 290 283 88 169 205 
301 9 137 123 281 309 241 298 233 122 226 
302 8 57 306 257 87 304 147 29 170 
303 3 186 116 200 
304 7 306 147 302 257 170 57 288 
305 9 121 266 178 189 207 195 23 128 256 
306 7 304 302 147 257 170 57 87 
307 9 206 174 229 71 280 261 288 170 196 
308 9 25 209 276 94 239 310 173 242 148 
309 9 123 301 137 122 281 250 226 193 245 
310 9 94 276 315 25 308 148 239 173 242 
311 6 256 195 291 189 214 128 
312 8 245 197 32 226 80 198 67 318 
313 6 283 31 169 221 279 205 
314 9 255 228 225 77 56 172 111 116 278 
315 9 94 310 148 276 25 180 133 215 308 
316 9 243 292 136 176 275 194 125 317 285 
317 9 176 194 285 271 243 217 136 316 275 
318 9 67 80 197 112 246 264 32 97 312 
DEPOT_SECTION
   1
   -1
EOF
