NAME :  X-n376-kX-w75-c11.cctp
COMMENT : 	Adapted by Maziero, Usberti and Cavellucci from the Uchoa, Pecin, Pessoa, Poggi, Subramanian, and Vidal (2013)
TYPE :  CCTP
DIMENSION :    359
EDGE_WEIGHT_TYPE : 	EUC_2D	
CAPACITY : 	4
VERTICES_WITHIN_COVERAGE :  11
VERTICES_WITH_DEMAND : 	75
NODE_COORD_SECTION
1 0 0
2 989 944
3 5 730
4 769 200
5 698 515
6 72 561
7 52 397
8 839 271
9 140 724
10 339 580
11 30 850
12 820 815
13 555 844
14 388 709
15 323 438
16 159 983
17 989 233
18 644 167
19 766 151
20 387 690
21 193 140
22 863 192
23 149 123
24 609 119
25 121 204
26 625 537
27 716 123
28 8 219
29 429 956
30 844 970
31 661 66
32 347 202
33 979 314
34 255 772
35 634 504
36 466 48
37 330 90
38 929 245
39 236 130
40 785 0
41 251 486
42 758 203
43 524 280
44 798 71
45 212 595
46 967 478
47 504 429
48 581 534
49 883 899
50 605 414
51 640 692
52 287 432
53 641 771
54 53 374
55 344 325
56 647 72
57 63 976
58 519 235
59 485 226
60 469 527
61 433 168
62 538 891
63 884 433
64 142 134
65 234 394
66 473 750
67 815 622
68 130 999
69 655 588
70 16 235
71 503 614
72 477 489
73 87 78
74 689 289
75 631 868
76 304 743
77 624 81
78 831 984
79 312 157
80 563 205
81 641 435
82 189 201
83 906 949
84 601 486
85 746 904
86 557 409
87 854 201
88 50 20
89 994 111
90 584 875
91 316 741
92 150 56
93 377 988
94 371 762
95 401 741
96 890 126
97 797 335
98 9 301
99 923 259
100 586 782
101 103 99
102 166 987
103 896 750
104 383 86
105 603 863
106 590 78
107 40 554
108 755 120
109 554 351
110 603 102
111 279 404
112 1 481
113 667 931
114 609 350
115 237 925
116 755 779
117 607 107
118 589 379
119 744 130
120 469 142
121 491 28
122 602 512
123 391 982
124 285 336
125 730 604
126 758 153
127 831 894
128 355 206
129 382 353
130 887 133
131 286 835
132 103 743
133 89 845
134 689 515
135 903 330
136 713 261
137 465 494
138 703 619
139 282 745
140 320 130
141 531 25
142 887 949
143 765 502
144 174 187
145 993 233
146 25 851
147 228 228
148 774 690
149 722 969
150 133 115
151 175 663
152 134 106
153 469 233
154 325 78
155 166 547
156 416 965
157 284 119
158 169 541
159 302 72
160 537 7
161 434 329
162 59 816
163 139 74
164 495 746
165 890 453
166 719 235
167 184 528
168 863 957
169 821 476
170 700 645
171 400 49
172 293 179
173 104 271
174 882 906
175 701 394
176 18 221
177 819 101
178 971 397
179 454 960
180 348 657
181 745 122
182 3 510
183 981 283
184 167 323
185 869 880
186 844 154
187 53 544
188 443 825
189 879 809
190 683 254
191 402 59
192 719 31
193 664 737
194 541 249
195 204 791
196 615 578
197 821 381
198 767 595
199 594 837
200 331 365
201 537 263
202 157 938
203 147 59
204 138 140
205 354 240
206 435 976
207 917 593
208 504 643
209 552 29
210 420 473
211 576 665
212 648 637
213 792 147
214 55 92
215 635 236
216 180 793
217 561 629
218 743 136
219 686 38
220 415 672
221 678 523
222 834 48
223 897 63
224 868 224
225 786 394
226 132 915
227 513 74
228 757 295
229 859 823
230 398 959
231 360 94
232 506 114
233 699 907
234 842 46
235 240 808
236 434 756
237 628 184
238 938 599
239 22 999
240 374 19
241 707 963
242 681 762
243 750 278
244 652 340
245 788 95
246 653 222
247 730 753
248 484 573
249 144 957
250 404 597
251 849 288
252 321 355
253 294 41
254 43 501
255 175 695
256 439 486
257 949 443
258 245 169
259 848 143
260 198 396
261 153 521
262 436 824
263 703 624
264 126 2
265 659 523
266 370 702
267 528 268
268 330 488
269 420 88
270 630 555
271 568 848
272 92 747
273 126 152
274 18 275
275 875 151
276 537 418
277 598 777
278 819 522
279 112 727
280 697 29
281 243 155
282 195 437
283 563 820
284 583 383
285 645 62
286 645 77
287 193 643
288 96 519
289 336 319
290 998 266
291 990 922
292 753 566
293 646 537
294 412 328
295 386 478
296 344 512
297 151 492
298 625 949
299 251 208
300 680 428
301 135 843
302 171 19
303 405 150
304 146 654
305 82 631
306 417 950
307 121 982
308 209 292
309 180 796
310 51 162
311 628 521
312 820 662
313 596 600
314 605 229
315 378 53
316 95 447
317 899 216
318 685 705
319 304 713
320 305 760
321 636 482
322 954 189
323 470 857
324 450 97
325 811 886
326 453 64
327 230 919
328 732 350
329 258 429
330 674 351
331 20 95
332 57 298
333 136 129
334 62 213
335 852 852
336 538 110
337 435 522
338 518 452
339 816 415
340 987 849
341 472 154
342 893 13
343 579 281
344 418 966
345 391 92
346 490 482
347 890 711
348 552 802
349 667 416
350 571 581
351 71 227
352 311 90
353 598 723
354 845 677
355 528 124
356 321 456
357 817 624
358 978 276
359 239 960
DEMAND_SECTION
2 1
3 1
4 1
5 1
6 1
7 1
8 1
9 1
10 1
11 1
12 1
13 1
14 1
15 1
16 1
17 1
18 1
19 1
20 1
21 1
22 1
23 1
24 1
25 1
26 1
27 1
28 1
29 1
30 1
31 1
32 1
33 1
34 1
35 1
36 1
37 1
38 1
39 1
40 1
41 1
42 1
43 1
44 1
45 1
46 1
47 1
48 1
49 1
50 1
51 1
52 1
53 1
54 1
55 1
56 1
57 1
58 1
59 1
60 1
61 1
62 1
63 1
64 1
65 1
66 1
67 1
68 1
69 1
70 1
71 1
72 1
73 1
74 1
75 1
76 1
COVERAGE_SECTION
2 9 291 83 340 142 174 49 168 185 30 
3 11 272 132 162 279 11 146 305 9 133 304 301 
4 11 42 126 19 213 166 218 119 243 108 181 136 
5 11 134 221 265 293 35 143 311 321 292 26 270 
6 11 187 107 288 254 305 182 261 155 158 297 112 
7 11 54 316 112 332 254 98 182 274 288 173 184 
8 11 251 224 87 97 317 22 99 228 135 243 38 
9 11 279 132 255 272 151 304 216 309 195 287 305 
10 11 250 296 180 268 295 337 220 20 356 266 45 
11 10 146 162 133 301 272 226 3 57 132 279 
12 10 229 335 189 325 116 127 185 103 49 247 
13 11 271 283 199 90 348 62 105 100 75 277 323 
14 11 20 266 95 220 94 180 236 91 319 76 66 
15 11 356 52 268 111 329 200 295 296 252 41 65 
16 10 102 249 68 307 202 226 359 57 327 115 
17 11 145 290 358 183 322 38 99 33 317 224 89 
18 11 237 246 24 117 215 314 110 27 77 80 286 
19 11 126 213 218 119 108 181 4 42 27 245 177 
20 11 14 266 220 180 95 94 236 319 91 250 76 
21 11 39 23 64 144 281 204 333 258 82 150 152 
22 11 87 224 186 275 317 259 130 96 8 213 38 
23 11 64 333 150 204 152 273 21 163 101 203 92 
24 11 117 110 77 106 286 18 56 285 237 336 31 
25 11 273 351 144 334 204 82 173 64 333 310 23 
26 11 311 270 293 35 122 265 196 48 221 84 321 
27 11 119 181 218 108 126 19 245 31 213 18 286 
28 11 176 70 334 274 351 310 98 332 173 25 331 
29 9 306 344 156 206 179 230 123 93 323 
30 11 78 168 142 83 174 127 49 325 185 85 335 
31 11 56 285 286 219 77 280 110 117 192 106 24 
32 11 128 205 79 172 140 303 61 299 157 258 231 
33 11 183 358 290 99 135 17 145 178 38 317 322 
34 11 139 235 320 195 76 91 131 319 216 309 255 
35 11 311 321 265 122 26 293 84 221 270 134 48 
36 10 326 121 324 227 269 191 171 141 232 160 
37 11 154 352 231 159 140 104 157 253 315 345 79 
38 11 99 317 358 17 322 183 145 224 290 22 33 
39 11 281 258 21 157 172 299 79 140 144 82 352 
40 11 222 44 192 234 280 245 219 177 342 108 181 
41 11 329 52 282 356 167 268 15 111 65 296 158 
42 11 4 126 166 19 213 218 136 119 243 181 108 
43 11 267 201 194 58 343 59 153 109 80 314 161 
44 11 245 177 222 234 108 40 181 213 119 218 19 
45 11 287 155 158 167 151 304 261 255 41 297 10 
46 11 257 165 178 63 238 207 169 278 135 33 339 
47 11 338 276 346 86 72 137 256 284 109 210 118 
48 11 122 26 350 311 84 270 196 35 293 313 321 
49 11 174 185 142 127 83 335 168 325 229 30 189 
50 11 118 284 81 86 349 114 276 84 321 300 109 
51 11 318 193 353 212 211 170 53 242 263 277 138 
52 11 111 329 15 356 41 65 268 200 252 282 124 
53 11 193 242 277 100 353 51 318 199 247 283 348 
54 11 7 332 316 98 274 173 112 184 254 70 182 
55 11 289 252 200 129 124 294 205 161 111 15 128 
56 11 286 285 31 77 219 110 117 106 24 280 192 
57 11 239 307 68 249 226 16 202 102 11 146 133 
58 11 194 201 267 59 43 153 80 343 314 341 120 
59 11 153 58 267 194 201 43 341 61 80 120 343 
60 11 137 337 72 248 346 256 210 338 71 250 295 
61 11 303 341 120 324 153 59 269 128 345 232 32 
62 11 90 13 271 105 283 323 199 348 75 298 179 
63 11 165 257 339 169 197 46 178 135 225 278 97 
64 11 204 333 23 150 273 152 21 101 163 144 25 
65 11 260 329 111 282 52 124 41 252 184 15 200 
66 11 164 236 95 188 262 14 348 220 94 20 323 
67 11 357 312 198 354 148 292 125 278 207 138 263 
68 10 307 16 102 249 202 57 226 239 359 327 
69 11 196 270 212 293 138 26 263 313 265 221 311 
70 11 176 28 274 334 351 98 332 310 173 25 273 
71 11 208 248 217 350 211 60 313 250 220 48 337 
72 11 137 346 256 60 337 338 210 47 248 295 276 
73 11 101 214 163 152 150 203 92 88 331 333 23 
74 11 190 136 166 243 244 330 228 328 215 246 114 
75 11 105 90 199 271 113 233 13 298 283 62 100 
76 11 91 320 139 319 34 94 266 14 235 131 95 
77 11 286 56 285 110 117 106 31 24 219 18 209 
78 11 30 168 142 83 127 174 49 325 149 185 85 
79 11 140 172 157 32 128 352 258 37 281 231 154 
80 11 314 194 58 201 237 267 215 343 59 43 355 
81 11 349 300 50 321 84 35 175 118 284 122 311 
82 11 144 147 21 299 258 25 281 204 273 64 39 
83 11 142 168 174 49 30 185 2 78 291 127 335 
84 11 122 321 35 311 48 26 81 293 265 50 270 
85 11 233 325 149 241 113 127 12 78 30 335 75 
86 11 276 284 118 50 47 109 338 114 81 84 346 
87 11 22 224 317 186 275 259 8 130 213 96 4 
88 11 73 214 264 331 101 163 203 92 152 302 150 
89 10 322 96 223 130 17 145 275 342 317 38 
90 11 105 271 199 13 75 62 283 348 298 100 277 
91 11 76 320 319 139 94 266 34 14 95 20 180 
92 11 203 163 302 152 264 150 101 23 73 333 64 
93 8 123 230 156 344 306 206 29 179 
94 11 95 14 91 266 236 320 76 20 319 262 139 
95 11 14 236 94 266 20 220 66 91 262 164 188 
96 11 130 275 259 186 223 22 177 87 317 322 234 
97 11 197 228 225 328 251 243 8 339 135 136 175 
98 11 274 332 70 176 28 54 351 173 334 7 310 
99 11 38 317 358 183 224 17 135 145 290 322 33 
100 11 277 348 283 53 199 353 271 13 105 193 90 
101 11 73 152 150 163 333 214 23 64 204 273 203 
102 10 16 249 68 307 202 359 226 327 115 57 
103 5 347 189 229 354 12 
104 11 345 231 191 315 269 171 37 154 240 303 324 
105 11 90 75 199 271 13 283 62 348 100 277 298 
106 10 110 77 117 24 286 56 285 336 209 31 
107 11 187 6 254 182 288 112 305 261 316 155 297 
108 11 181 119 218 19 126 27 245 213 44 177 4 
109 11 284 118 114 86 276 343 43 50 267 201 47 
110 10 117 24 106 77 286 56 285 336 31 18 
111 11 52 329 65 15 200 252 356 124 260 41 282 
112 11 182 254 187 107 7 316 288 6 54 297 261 
113 11 233 298 241 149 75 85 105 90 199 271 62 
114 11 118 284 244 109 50 330 343 86 349 81 276 
115 6 327 359 202 102 16 249 
116 11 247 12 242 148 193 318 229 53 325 335 85 
117 11 110 24 77 106 286 56 285 31 336 18 237 
118 11 284 114 50 86 109 276 244 81 349 330 47 
119 11 218 181 108 126 27 19 213 245 4 42 44 
120 10 341 61 232 324 355 303 269 336 326 227 
121 10 36 141 160 227 326 209 324 232 171 269 
122 11 84 311 48 35 26 321 270 293 265 196 350 
123 8 93 230 156 344 306 206 29 179 
124 11 252 200 289 55 111 65 308 52 329 129 260 
125 11 138 263 198 292 170 69 67 212 357 5 221 
126 11 19 218 119 108 181 213 4 42 27 245 177 
127 11 325 185 335 49 174 168 229 30 142 12 85 
128 11 32 205 79 172 303 140 61 299 157 231 289 
129 11 294 55 200 161 289 252 124 15 111 205 356 
130 11 96 275 259 186 22 223 177 87 317 322 224 
131 7 235 34 320 139 195 76 91 
132 11 272 279 9 162 255 216 309 3 304 133 301 
133 9 162 301 11 146 226 272 132 309 216 
134 11 5 221 265 293 35 311 321 26 270 143 69 
135 11 251 99 33 8 38 183 358 178 197 63 97 
136 11 166 190 74 243 228 246 42 215 4 328 330 
137 11 72 256 346 60 337 210 338 47 248 295 276 
138 11 263 170 125 69 212 198 292 318 51 196 270 
139 11 76 320 91 34 319 235 131 94 195 266 180 
140 11 79 157 37 352 154 231 172 159 32 104 281 
141 10 160 209 121 227 36 106 336 326 232 355 
142 11 83 168 174 30 49 78 185 127 325 2 335 
143 11 278 169 292 5 134 221 198 339 125 265 225 
144 11 82 21 25 204 273 64 147 23 333 258 281 
145 11 17 290 358 183 322 38 99 33 317 89 224 
146 10 11 162 133 301 3 272 226 57 132 239 
147 11 299 82 258 308 144 281 172 21 39 25 79 
148 11 312 354 247 67 357 170 318 116 198 125 263 
149 11 241 233 113 85 298 78 30 325 127 75 168 
150 11 152 333 23 64 204 101 273 163 203 73 92 
151 11 287 304 255 9 45 279 305 132 155 272 158 
152 11 150 23 333 64 101 163 204 273 203 92 73 
153 11 59 58 267 43 61 194 201 341 120 80 161 
154 11 37 352 159 231 253 140 157 104 315 345 240 
155 11 158 167 261 297 45 288 6 287 41 304 187 
156 8 344 306 29 230 206 123 179 93 
157 11 140 352 79 39 159 37 281 154 172 258 253 
158 11 155 167 261 297 45 288 6 41 287 282 304 
159 11 352 154 253 37 157 140 231 315 104 79 39 
160 10 141 209 121 227 36 106 326 336 232 77 
161 11 294 129 55 289 43 153 200 267 59 252 205 
162 10 133 11 146 272 301 132 3 279 9 216 
163 11 203 92 152 150 101 23 73 333 64 302 204 
164 11 66 236 348 95 188 100 262 283 208 353 277 
165 11 63 257 169 46 339 178 278 197 225 135 143 
166 11 136 190 42 243 4 74 246 228 215 126 19 
167 11 158 155 261 297 45 41 288 282 287 6 316 
168 11 30 142 78 83 174 49 127 185 325 335 2 
169 11 278 339 143 165 63 225 197 292 5 198 257 
170 11 263 138 125 212 318 69 51 198 148 292 193 
171 11 191 315 240 104 269 345 326 231 36 324 154 
172 11 79 258 299 281 140 32 157 128 39 147 205 
173 11 332 351 25 334 184 274 70 176 98 308 28 
174 11 49 185 142 83 127 168 335 30 325 229 78 
175 11 300 349 330 328 81 244 225 50 114 74 321 
176 11 28 70 334 351 274 310 98 332 173 25 331 
177 11 245 44 259 213 222 186 234 108 19 96 130 
178 11 257 46 33 63 135 165 183 358 290 99 197 
179 10 29 206 344 156 306 230 123 93 323 62 
180 11 266 20 14 220 319 10 250 91 76 95 94 
181 11 119 108 218 27 126 19 245 213 44 177 4 
182 11 112 254 107 187 6 288 316 7 54 305 297 
183 11 358 290 33 17 145 99 38 135 322 317 178 
184 11 308 260 173 65 147 332 282 124 82 54 25 
185 11 49 174 335 127 229 325 142 189 168 83 12 
186 11 259 275 22 87 130 213 96 177 224 19 245 
187 11 107 6 254 288 182 112 305 261 316 297 155 
188 9 262 323 236 66 95 164 94 348 13 
189 8 229 335 12 103 185 49 174 127 
190 11 136 74 166 246 215 243 314 228 237 42 244 
191 11 171 315 104 269 345 240 326 231 324 36 37 
192 11 280 219 31 40 285 56 286 44 27 245 181 
193 11 242 318 53 51 353 247 277 100 170 116 212 
194 11 201 267 58 43 80 343 59 314 153 215 109 
195 9 216 309 235 34 301 139 9 131 255 
196 11 270 313 69 26 350 293 48 311 122 212 265 
197 11 339 225 97 63 328 169 135 251 165 228 8 
198 11 292 125 67 357 138 263 170 312 278 143 148 
199 11 105 271 283 90 13 75 348 100 277 62 53 
200 11 252 55 289 129 124 111 15 52 294 356 329 
201 11 267 194 43 58 343 59 80 153 314 109 215 
202 9 249 226 16 102 307 68 327 115 359 
203 11 92 163 302 152 150 101 264 73 23 333 64 
204 11 64 333 273 23 150 152 101 21 144 25 163 
205 11 128 32 289 55 172 79 303 294 61 299 140 
206 9 344 29 156 179 306 230 123 93 323 
207 9 238 357 67 354 312 278 347 46 165 
208 11 71 217 248 211 350 220 313 164 250 66 60 
209 10 141 160 227 121 106 336 36 77 110 117 
210 11 256 295 137 337 72 346 60 296 268 47 338 
211 11 217 353 313 51 208 212 350 71 196 69 193 
212 11 69 170 51 263 138 313 196 211 318 270 217 
213 11 19 126 108 218 119 186 245 177 181 259 4 
214 11 73 331 101 310 88 152 150 163 333 273 204 
215 11 246 314 190 237 18 343 74 80 136 166 194 
216 9 309 195 235 301 34 9 132 279 255 
217 11 211 313 350 208 71 196 212 248 48 51 270 
218 11 119 181 108 126 19 27 213 245 4 42 177 
219 11 280 192 31 285 56 286 77 27 181 106 110 
220 11 20 14 266 180 95 250 236 208 66 94 71 
221 11 134 265 5 293 35 311 26 270 321 69 122 
222 11 234 44 177 223 245 40 342 96 259 130 186 
223 10 342 234 96 222 130 177 275 259 44 186 
224 11 87 22 317 8 38 99 251 275 186 259 130 
225 11 197 339 97 328 175 169 228 63 143 300 165 
226 9 202 249 307 301 16 102 133 68 57 
227 10 232 336 121 141 355 36 209 326 324 160 
228 11 243 136 97 328 74 166 8 190 42 251 4 
229 9 189 335 12 185 127 325 49 103 174 
230 8 156 306 344 123 29 93 206 179 
231 11 104 37 345 154 315 352 140 191 171 269 159 
232 10 355 336 227 120 341 324 326 36 121 269 
233 11 113 85 241 149 75 298 105 325 90 199 127 
234 11 222 44 223 177 342 40 245 96 259 130 186 
235 9 34 195 131 309 216 139 320 76 91 
236 10 95 66 164 94 14 262 188 20 266 220 
237 11 18 246 314 215 24 80 117 110 190 77 166 
238 8 207 354 347 46 357 67 312 278 
239 11 57 307 68 249 16 226 102 146 202 11 133 
240 11 315 171 191 104 345 231 154 253 269 37 159 
241 11 149 113 233 85 298 75 78 325 30 127 105 
242 11 193 53 247 318 116 51 277 353 100 199 75 
243 11 228 136 166 74 190 97 328 42 4 8 251 
244 11 330 114 74 175 118 349 284 328 50 190 300 
245 11 44 177 108 181 213 119 19 218 126 222 234 
246 11 215 190 237 314 18 166 136 74 80 343 42 
247 11 116 242 318 193 148 53 12 51 170 312 263 
248 11 71 60 337 208 137 72 250 350 346 217 256 
249 10 202 16 307 102 68 226 57 327 359 115 
250 11 10 220 337 180 248 20 60 71 296 208 266 
251 11 8 224 135 97 99 87 317 38 228 22 197 
252 11 200 55 289 124 129 111 15 52 65 294 329 
253 11 159 154 352 37 157 240 231 315 140 104 39 
254 11 182 187 112 107 288 6 316 7 297 261 54 
255 11 151 9 304 287 279 132 216 272 195 309 45 
256 11 210 137 337 72 60 346 295 47 338 248 296 
257 11 46 178 165 63 135 33 169 339 197 278 207 
258 11 281 299 39 172 21 147 157 82 79 144 140 
259 11 186 275 130 96 22 177 213 87 245 19 224 
260 11 65 282 329 184 111 52 41 308 124 297 316 
261 11 158 155 297 167 288 6 282 316 45 187 41 
262 9 188 323 236 66 94 95 164 348 13 
263 11 138 170 125 212 69 198 292 318 51 148 196 
264 11 302 92 203 163 88 73 101 152 150 214 23 
265 11 221 293 35 134 311 26 5 270 321 122 69 
266 11 14 20 95 180 220 94 91 319 76 236 320 
267 11 201 43 194 58 343 59 153 80 314 109 161 
268 11 296 356 15 295 52 41 210 10 329 111 256 
269 11 345 324 191 104 326 171 315 231 36 303 120 
270 11 26 293 196 311 69 265 35 122 48 313 221 
271 11 13 199 283 90 105 348 62 75 100 277 323 
272 11 132 279 9 162 3 133 255 216 309 301 304 
273 11 204 64 333 23 150 152 25 101 144 21 310 
274 11 98 70 332 176 28 351 334 173 54 310 25 
275 11 130 259 96 186 22 87 317 224 177 213 322 
276 11 86 47 338 284 118 50 109 346 72 84 114 
277 11 100 53 348 353 283 199 193 271 13 242 105 
278 11 169 143 292 198 165 67 357 339 63 5 125 
279 11 132 9 272 255 304 151 216 309 305 162 3 
280 11 219 192 31 285 56 286 77 40 27 181 108 
281 11 258 39 21 299 157 172 79 82 147 144 140 
282 11 260 65 329 297 41 111 52 167 261 316 158 
283 11 348 13 271 199 100 277 90 105 62 75 53 
284 11 118 86 50 114 109 276 81 244 349 47 338 
285 11 56 286 31 77 219 106 110 117 280 24 192 
286 11 56 285 31 77 117 110 24 106 219 280 27 
287 11 151 304 45 255 9 155 158 305 167 279 261 
288 11 6 187 254 261 297 107 316 155 158 167 182 
289 11 55 252 200 124 129 294 205 161 111 128 32 
290 11 358 183 145 17 33 38 99 322 317 135 178 
291 9 2 340 83 142 49 174 185 168 30 
292 11 198 125 143 138 5 263 278 134 67 221 357 
293 11 265 26 270 311 35 221 134 122 196 69 5 
294 11 161 129 55 289 200 252 205 153 43 59 124 
295 11 210 256 296 268 337 356 15 137 72 60 346 
296 11 268 295 356 10 15 210 337 41 52 256 250 
297 11 261 167 158 155 288 282 316 41 6 260 254 
298 11 113 75 241 90 233 105 149 62 199 271 13 
299 11 147 258 172 281 82 39 79 144 21 308 157 
300 11 349 81 175 321 50 330 134 5 35 244 328 
301 9 133 309 216 226 162 195 202 11 132 
302 11 92 203 264 163 152 73 150 101 23 333 64 
303 11 61 345 120 269 341 104 324 231 128 32 140 
304 11 151 287 255 305 9 279 45 132 272 155 158 
305 11 304 6 107 187 151 279 9 287 255 288 132 
306 8 29 156 344 230 206 179 123 93 
307 10 68 249 16 102 202 57 226 239 359 327 
308 11 184 147 124 82 299 65 260 173 144 25 258 
309 9 216 195 235 301 34 9 132 279 255 
310 11 334 176 351 214 28 331 273 70 25 101 204 
311 11 26 35 293 122 265 270 321 84 48 221 196 
312 10 354 357 67 148 198 347 125 103 292 207 
313 11 196 350 217 270 69 212 48 211 26 293 311 
314 11 215 80 246 237 343 194 18 201 190 58 267 
315 11 171 191 104 240 345 231 269 154 37 326 352 
316 11 7 288 297 254 54 261 112 282 187 182 260 
317 11 224 38 22 87 99 322 275 8 186 130 251 
318 11 193 51 242 170 247 212 53 263 138 353 148 
319 11 76 91 139 320 266 180 34 94 14 20 95 
320 11 76 91 139 319 34 94 131 235 266 14 95 
321 11 35 84 311 122 81 265 26 293 221 134 5 
322 11 17 145 38 317 99 130 89 275 290 96 358 
323 10 188 262 62 13 271 348 283 179 29 66 
324 11 269 326 120 36 232 345 191 341 227 104 171 
325 11 127 335 185 85 12 49 174 229 168 30 142 
326 11 36 324 269 191 121 171 227 345 104 232 315 
327 7 115 359 202 102 249 16 226 
328 11 175 330 228 97 225 243 74 244 136 349 197 
329 11 52 111 65 41 282 15 260 356 268 124 200 
330 11 244 175 328 74 114 349 300 118 81 50 284 
331 11 214 73 310 88 101 150 152 273 163 333 28 
332 11 274 98 173 351 70 54 334 176 28 7 184 
333 11 64 204 23 150 152 273 101 163 21 144 73 
334 11 351 176 70 310 28 25 173 274 332 273 98 
335 9 229 185 127 12 189 325 49 174 142 
336 10 355 232 227 106 110 117 24 120 341 209 
337 11 60 256 137 210 72 295 346 248 250 296 338 
338 11 47 276 346 72 86 137 256 60 84 50 284 
339 11 197 225 169 63 97 165 143 328 278 175 135 
340 7 291 2 49 189 174 185 83 
341 10 120 61 232 324 355 303 59 153 336 269 
342 10 223 234 222 40 44 96 177 130 245 259 
343 11 201 194 267 43 314 215 109 114 58 80 244 
344 8 156 29 306 206 230 123 179 93 
345 11 104 269 231 191 315 171 324 303 37 154 326 
346 11 72 137 338 60 256 47 337 210 276 248 86 
347 6 103 354 312 189 357 67 
348 11 283 100 13 271 277 199 90 105 164 62 353 
349 11 300 81 175 50 330 321 244 118 114 284 328 
350 11 313 196 48 217 270 26 71 122 311 69 211 
351 11 334 176 25 173 70 28 310 274 332 273 98 
352 11 154 37 159 157 140 231 253 79 104 315 345 
353 11 51 277 100 211 53 193 318 348 242 212 217 
354 8 312 347 357 67 148 103 207 198 
355 10 336 232 227 120 341 106 110 24 117 324 
356 11 15 268 52 296 111 295 329 41 200 210 252 
357 11 67 312 198 354 148 292 125 278 207 138 263 
358 11 183 290 33 17 145 38 99 322 135 317 178 
359 6 115 327 102 16 202 249 
DEPOT_SECTION
   1
   -1
EOF
