NAME :  X-n376-kX-w150-c9.cctp
COMMENT : 	Adapted by Maziero, Usberti and Cavellucci from the Uchoa, Pecin, Pessoa, Poggi, Subramanian, and Vidal (2013)
TYPE :  CCTP
DIMENSION :    376
EDGE_WEIGHT_TYPE : 	EUC_2D	
CAPACITY : 	4
VERTICES_WITHIN_COVERAGE :  9
VERTICES_WITH_DEMAND : 	150
NODE_COORD_SECTION
1 0 0
2 989 944
3 5 730
4 769 200
5 698 515
6 72 561
7 52 397
8 839 271
9 140 724
10 339 580
11 30 850
12 820 815
13 555 844
14 388 709
15 323 438
16 159 983
17 989 233
18 644 167
19 766 151
20 387 690
21 193 140
22 863 192
23 149 123
24 609 119
25 121 204
26 625 537
27 716 123
28 8 219
29 429 956
30 844 970
31 661 66
32 347 202
33 979 314
34 255 772
35 634 504
36 466 48
37 330 90
38 929 245
39 236 130
40 785 0
41 251 486
42 758 203
43 524 280
44 798 71
45 212 595
46 967 478
47 504 429
48 581 534
49 883 899
50 605 414
51 640 692
52 287 432
53 641 771
54 53 374
55 344 325
56 647 72
57 63 976
58 519 235
59 485 226
60 469 527
61 433 168
62 538 891
63 884 433
64 142 134
65 234 394
66 473 750
67 815 622
68 130 999
69 655 588
70 16 235
71 503 614
72 477 489
73 87 78
74 689 289
75 631 868
76 304 743
77 624 81
78 338 865
79 831 984
80 312 157
81 563 205
82 641 435
83 189 201
84 277 903
85 906 949
86 601 486
87 746 904
88 557 409
89 854 201
90 50 20
91 994 111
92 584 875
93 316 741
94 150 56
95 377 988
96 371 762
97 401 741
98 890 126
99 797 335
100 9 301
101 923 259
102 586 782
103 103 99
104 166 987
105 896 750
106 383 86
107 603 863
108 590 78
109 40 554
110 755 120
111 554 351
112 603 102
113 279 404
114 1 481
115 667 931
116 609 350
117 237 925
118 755 779
119 607 107
120 589 379
121 744 130
122 469 142
123 491 28
124 602 512
125 329 925
126 933 714
127 391 982
128 285 336
129 730 604
130 758 153
131 831 894
132 355 206
133 382 353
134 887 133
135 286 835
136 103 743
137 929 750
138 89 845
139 689 515
140 903 330
141 713 261
142 465 494
143 922 783
144 703 619
145 282 745
146 939 801
147 320 130
148 531 25
149 887 949
150 765 502
151 174 187
152 993 233
153 982 13
154 25 851
155 228 228
156 774 690
157 722 969
158 133 115
159 175 663
160 134 106
161 469 233
162 325 78
163 166 547
164 416 965
165 284 119
166 169 541
167 302 72
168 537 7
169 434 329
170 59 816
171 139 74
172 495 746
173 890 453
174 719 235
175 184 528
176 863 957
177 821 476
178 700 645
179 400 49
180 293 179
181 104 271
182 882 906
183 701 394
184 18 221
185 819 101
186 971 397
187 454 960
188 348 657
189 745 122
190 3 510
191 981 283
192 167 323
193 869 880
194 844 154
195 53 544
196 443 825
197 879 809
198 683 254
199 402 59
200 719 31
201 664 737
202 541 249
203 204 791
204 615 578
205 821 381
206 767 595
207 594 837
208 331 365
209 145 850
210 537 263
211 157 938
212 147 59
213 138 140
214 354 240
215 435 976
216 917 593
217 504 643
218 552 29
219 420 473
220 576 665
221 648 637
222 792 147
223 55 92
224 635 236
225 180 793
226 561 629
227 743 136
228 686 38
229 415 672
230 678 523
231 834 48
232 897 63
233 868 224
234 786 394
235 132 915
236 513 74
237 757 295
238 859 823
239 398 959
240 360 94
241 506 114
242 699 907
243 842 46
244 341 918
245 240 808
246 434 756
247 628 184
248 938 599
249 287 889
250 22 999
251 374 19
252 707 963
253 681 762
254 750 278
255 652 340
256 788 95
257 653 222
258 730 753
259 484 573
260 395 854
261 144 957
262 404 597
263 849 288
264 321 355
265 294 41
266 43 501
267 175 695
268 439 486
269 949 443
270 245 169
271 848 143
272 198 396
273 153 521
274 436 824
275 703 624
276 126 2
277 659 523
278 370 702
279 528 268
280 330 488
281 420 88
282 630 555
283 568 848
284 992 800
285 92 747
286 126 152
287 18 275
288 875 151
289 537 418
290 598 777
291 527 104
292 819 522
293 316 915
294 112 727
295 697 29
296 243 155
297 195 437
298 563 820
299 583 383
300 645 62
301 645 77
302 174 884
303 193 643
304 96 519
305 336 319
306 998 266
307 990 922
308 753 566
309 646 537
310 412 328
311 386 478
312 344 512
313 151 492
314 625 949
315 251 208
316 680 428
317 135 843
318 171 19
319 405 150
320 146 654
321 82 631
322 417 950
323 121 982
324 209 292
325 180 796
326 51 162
327 628 521
328 913 714
329 820 662
330 596 600
331 605 229
332 378 53
333 95 447
334 899 216
335 685 705
336 304 713
337 305 760
338 636 482
339 954 189
340 470 857
341 450 97
342 811 886
343 453 64
344 230 919
345 732 350
346 258 429
347 674 351
348 20 95
349 57 298
350 136 129
351 62 213
352 852 852
353 538 110
354 435 522
355 518 452
356 816 415
357 987 849
358 472 154
359 893 13
360 579 281
361 418 966
362 391 92
363 490 482
364 890 711
365 552 802
366 667 416
367 571 581
368 71 227
369 311 90
370 598 723
371 845 677
372 528 124
373 321 456
374 817 624
375 978 276
376 239 960
DEMAND_SECTION
2 1
3 1
4 1
5 1
6 1
7 1
8 1
9 1
10 1
11 1
12 1
13 1
14 1
15 1
16 1
17 1
18 1
19 1
20 1
21 1
22 1
23 1
24 1
25 1
26 1
27 1
28 1
29 1
30 1
31 1
32 1
33 1
34 1
35 1
36 1
37 1
38 1
39 1
40 1
41 1
42 1
43 1
44 1
45 1
46 1
47 1
48 1
49 1
50 1
51 1
52 1
53 1
54 1
55 1
56 1
57 1
58 1
59 1
60 1
61 1
62 1
63 1
64 1
65 1
66 1
67 1
68 1
69 1
70 1
71 1
72 1
73 1
74 1
75 1
76 1
77 1
78 1
79 1
80 1
81 1
82 1
83 1
84 1
85 1
86 1
87 1
88 1
89 1
90 1
91 1
92 1
93 1
94 1
95 1
96 1
97 1
98 1
99 1
100 1
101 1
102 1
103 1
104 1
105 1
106 1
107 1
108 1
109 1
110 1
111 1
112 1
113 1
114 1
115 1
116 1
117 1
118 1
119 1
120 1
121 1
122 1
123 1
124 1
125 1
126 1
127 1
128 1
129 1
130 1
131 1
132 1
133 1
134 1
135 1
136 1
137 1
138 1
139 1
140 1
141 1
142 1
143 1
144 1
145 1
146 1
147 1
148 1
149 1
150 1
151 1
COVERAGE_SECTION
2 9 307 85 357 149 182 49 176 193 284 
3 9 285 136 170 294 11 154 321 9 138 
4 9 42 130 19 222 174 227 121 254 110 
5 9 139 230 277 309 35 150 327 338 308 
6 9 195 109 304 266 321 190 273 163 166 
7 9 54 333 114 349 266 100 190 287 304 
8 9 263 233 89 99 334 22 101 237 140 
9 9 294 136 267 285 159 320 225 325 203 
10 9 262 312 188 280 311 354 229 20 373 
11 9 154 170 138 317 209 285 235 3 57 
12 9 238 352 197 342 118 131 193 105 49 
13 9 283 298 207 92 365 62 107 102 75 
14 9 20 278 97 229 96 188 246 93 336 
15 9 373 52 280 113 346 208 311 312 264 
16 9 104 261 68 323 211 235 376 57 344 
17 9 152 306 375 191 339 38 101 33 334 
18 9 247 257 24 119 224 331 112 27 77 
19 9 130 222 227 121 110 189 4 42 27 
20 9 14 278 229 188 97 96 246 336 93 
21 9 39 23 64 151 296 213 350 270 83 
22 9 89 233 194 288 334 271 134 98 8 
23 9 64 350 158 213 160 286 21 171 103 
24 9 119 112 77 108 301 18 56 300 247 
25 9 286 368 151 351 213 83 181 64 350 
26 9 327 282 309 35 124 277 204 48 230 
27 9 121 189 227 110 130 19 256 31 222 
28 9 184 70 351 287 368 326 100 349 181 
29 9 322 361 164 215 187 239 127 95 244 
30 9 79 176 149 85 182 131 49 342 193 
31 9 56 300 301 228 77 295 112 119 200 
32 9 132 214 80 180 147 319 61 315 165 
33 9 191 375 306 101 140 17 152 186 38 
34 9 145 245 337 203 76 93 135 336 225 
35 9 327 338 277 124 26 309 86 230 282 
36 9 343 123 341 236 281 199 179 148 241 
37 9 162 369 240 167 147 106 165 265 332 
38 9 101 334 375 17 339 191 152 233 306 
39 9 296 270 21 165 180 315 80 147 151 
40 9 231 44 200 243 295 256 228 185 359 
41 9 346 52 297 373 175 280 15 113 65 
42 9 4 130 174 19 222 227 141 121 254 
43 9 279 210 202 58 360 59 161 111 81 
44 9 256 185 231 243 110 40 189 222 121 
45 9 303 163 166 175 159 320 273 267 41 
46 9 269 173 186 63 248 216 177 292 140 
47 9 355 289 363 88 72 142 268 299 111 
48 9 124 26 367 327 86 282 204 35 309 
49 9 182 193 149 131 85 352 176 342 238 
50 9 120 299 82 88 366 116 289 86 338 
51 9 335 201 370 221 220 178 53 253 275 
52 9 113 346 15 373 41 65 280 208 264 
53 9 201 253 290 102 370 51 335 207 258 
54 9 7 349 333 100 287 181 114 192 266 
55 9 305 264 208 133 128 310 214 169 113 
56 9 301 300 31 77 228 112 119 108 24 
57 9 250 323 68 261 235 16 211 104 11 
58 9 202 210 279 59 43 161 81 360 331 
59 9 161 58 279 202 210 43 358 61 81 
60 9 142 354 72 259 363 268 219 355 71 
61 9 319 358 122 341 161 59 281 132 362 
62 9 92 13 283 107 298 340 207 365 75 
63 9 173 269 356 177 205 46 186 140 234 
64 9 213 350 23 158 286 160 21 103 171 
65 9 272 346 113 297 52 128 41 264 192 
66 9 172 246 97 196 274 14 365 229 96 
67 9 374 329 206 371 156 308 129 292 216 
68 9 323 16 104 261 211 57 235 250 376 
69 9 204 282 221 309 144 26 275 330 277 
70 9 184 28 287 351 368 100 349 326 181 
71 9 217 259 226 367 220 60 330 262 229 
72 9 142 363 268 60 354 355 219 47 259 
73 9 103 223 171 160 158 212 94 90 348 
74 9 198 141 174 254 255 347 237 345 224 
75 9 107 92 207 283 115 242 13 314 298 
76 9 93 337 145 336 34 96 278 14 245 
77 9 301 56 300 112 119 108 31 24 228 
78 9 244 293 249 260 135 125 84 274 96 
79 9 30 176 149 85 131 182 49 342 157 
80 9 147 180 165 32 132 369 270 37 296 
81 9 331 202 58 210 247 279 224 360 59 
82 9 366 316 50 338 86 35 183 120 299 
83 9 151 155 21 315 270 25 296 213 286 
84 9 249 293 117 344 125 244 135 376 78 
85 9 149 176 182 49 30 193 2 79 307 
86 9 124 338 35 327 48 26 82 309 277 
87 9 242 342 157 252 115 131 12 79 30 
88 9 289 299 120 50 47 111 355 116 82 
89 9 22 233 334 194 288 271 8 134 222 
90 9 73 223 276 348 103 171 212 94 160 
91 9 339 153 98 232 134 17 152 288 359 
92 9 107 283 207 13 75 62 298 365 314 
93 9 76 337 336 145 96 278 34 14 97 
94 9 212 171 318 160 276 158 103 23 73 
95 9 127 239 164 361 322 215 29 125 244 
96 9 97 14 93 278 246 337 76 20 336 
97 9 14 246 96 278 20 229 66 93 274 
98 9 134 288 271 194 232 22 185 89 334 
99 9 205 237 234 345 263 254 8 356 140 
100 9 287 349 70 184 28 54 368 181 351 
101 9 38 334 375 191 233 17 140 152 306 
102 9 290 365 298 53 207 370 283 13 107 
103 9 73 160 158 171 350 223 23 64 213 
104 9 16 261 68 323 211 376 235 344 117 
105 9 137 364 328 143 126 197 146 238 371 
106 9 362 240 199 332 281 179 37 162 251 
107 9 92 75 207 283 13 298 62 365 102 
108 9 112 77 119 24 301 56 300 353 218 
109 9 195 6 266 190 304 114 321 273 333 
110 9 189 121 227 19 130 27 256 222 44 
111 9 299 120 116 88 289 360 43 50 279 
112 9 119 24 108 77 301 56 300 353 31 
113 9 52 346 65 15 208 264 373 128 272 
114 9 190 266 195 109 7 333 304 6 54 
115 9 242 314 252 157 75 87 107 92 207 
116 9 120 299 255 111 50 347 360 88 366 
117 9 344 376 84 249 302 293 211 125 104 
118 9 258 12 253 156 201 335 238 53 342 
119 9 112 24 77 108 301 56 300 31 353 
120 9 299 116 50 88 111 289 255 82 366 
121 9 227 189 110 130 27 19 222 256 4 
122 9 358 61 241 341 372 319 291 281 353 
123 9 36 148 168 236 343 218 341 291 241 
124 9 86 327 48 35 26 338 282 309 277 
125 9 244 293 249 84 78 239 95 127 322 
126 9 328 137 364 105 143 146 371 284 197 
127 9 95 239 164 361 322 215 29 187 244 
128 9 264 208 305 55 113 65 324 52 346 
129 9 144 275 206 308 178 69 67 221 374 
130 9 19 227 121 110 189 222 4 42 27 
131 9 342 193 352 49 182 176 238 30 149 
132 9 32 214 80 180 319 147 61 315 165 
133 9 310 55 208 169 305 264 128 15 113 
134 9 98 288 271 194 22 232 185 89 334 
135 9 245 249 78 84 34 337 293 145 203 
136 9 285 294 9 170 267 225 325 3 320 
137 9 105 143 126 328 146 364 197 284 238 
138 9 170 317 209 11 154 235 302 285 136 
139 9 5 230 277 309 35 327 338 26 282 
140 9 263 101 33 8 38 191 375 186 205 
141 9 174 198 74 254 237 257 42 224 4 
142 9 72 268 363 60 354 219 355 47 259 
143 9 146 137 105 197 126 328 284 238 364 
144 9 275 178 129 69 221 206 308 335 51 
145 9 76 337 93 34 336 245 135 96 203 
146 9 143 137 284 197 105 357 238 126 328 
147 9 80 165 37 369 162 240 180 167 32 
148 9 168 218 123 236 36 108 291 353 343 
149 9 85 176 182 30 49 79 193 131 342 
150 9 292 177 308 5 139 230 206 356 129 
151 9 83 21 25 213 286 64 155 23 350 
152 9 17 306 375 191 339 38 101 33 334 
153 9 359 91 232 243 98 231 134 288 339 
154 9 11 170 138 317 209 3 285 235 57 
155 9 315 83 270 324 151 296 180 21 39 
156 9 329 371 258 67 374 178 335 118 206 
157 9 252 242 115 87 314 79 30 342 131 
158 9 160 350 23 64 213 103 286 171 212 
159 9 303 320 267 9 45 294 321 136 163 
160 9 158 23 350 64 103 171 213 286 212 
161 9 59 58 279 43 61 202 210 358 122 
162 9 37 369 167 240 265 147 165 106 332 
163 9 166 175 273 313 45 304 6 303 41 
164 9 361 322 29 239 215 127 187 95 244 
165 9 147 369 80 39 167 37 296 162 180 
166 9 163 175 273 313 45 304 6 41 303 
167 9 369 162 265 37 165 147 240 332 106 
168 9 148 218 123 236 36 108 291 343 353 
169 9 310 133 55 305 43 161 208 279 59 
170 9 138 11 154 285 317 136 209 3 294 
171 9 212 94 160 158 103 23 73 350 64 
172 9 66 246 365 97 196 102 274 298 217 
173 9 63 269 177 46 356 186 292 205 234 
174 9 141 198 42 254 4 74 257 237 224 
175 9 166 163 273 313 45 41 304 297 303 
176 9 30 149 79 85 182 49 131 193 342 
177 9 292 356 150 173 63 234 205 308 5 
178 9 275 144 129 221 335 69 51 206 156 
179 9 199 332 251 106 281 362 343 240 36 
180 9 80 270 315 296 147 32 165 132 39 
181 9 349 368 25 351 192 287 70 184 100 
182 9 49 193 149 85 131 176 352 30 342 
183 9 316 366 347 345 82 255 234 50 116 
184 9 28 70 351 368 287 326 100 349 181 
185 9 256 44 271 222 231 194 243 110 19 
186 9 269 46 33 63 140 173 191 375 306 
187 9 29 215 361 164 322 239 127 95 340 
188 9 278 20 14 229 336 10 262 93 76 
189 9 121 110 227 27 130 19 256 222 44 
190 9 114 266 109 195 6 304 333 7 54 
191 9 375 306 33 17 152 101 38 140 339 
192 9 324 272 181 65 155 349 297 128 83 
193 9 49 182 352 131 238 342 149 197 176 
194 9 271 288 22 89 134 222 98 185 233 
195 9 109 6 266 304 190 114 321 273 333 
196 9 274 340 260 246 66 97 172 96 365 
197 9 238 143 352 12 105 146 193 137 49 
198 9 141 74 174 257 224 254 331 237 247 
199 9 179 332 106 281 362 251 343 240 341 
200 9 295 228 31 40 300 56 301 44 27 
201 9 253 335 53 51 370 258 290 102 178 
202 9 210 279 58 43 81 360 59 331 161 
203 9 225 325 245 34 209 317 145 9 135 
204 9 282 330 69 26 367 309 48 327 124 
205 9 356 234 99 63 345 177 140 263 173 
206 9 308 129 67 374 144 275 178 329 292 
207 9 107 283 298 92 13 75 365 102 290 
208 9 264 55 305 133 128 113 15 52 310 
209 9 317 302 138 325 235 225 203 211 170 
210 9 279 202 43 58 360 59 81 161 331 
211 9 261 235 16 104 302 323 68 344 117 
212 9 94 171 318 160 158 103 276 73 23 
213 9 64 350 286 23 158 160 103 21 151 
214 9 132 32 305 55 180 80 319 310 61 
215 9 361 29 164 187 322 239 127 95 244 
216 9 248 374 67 371 329 292 328 364 126 
217 9 71 226 259 220 367 229 330 172 262 
218 9 148 168 236 123 108 291 353 36 77 
219 9 268 311 142 354 72 363 60 312 280 
220 9 226 370 330 51 217 221 367 71 204 
221 9 69 178 51 275 144 330 204 220 335 
222 9 19 130 110 227 121 194 256 185 189 
223 9 73 348 103 326 90 160 158 171 350 
224 9 257 331 198 247 18 360 74 81 141 
225 9 325 203 245 209 317 34 9 302 136 
226 9 220 330 367 217 71 204 221 259 48 
227 9 121 189 110 130 19 27 222 256 4 
228 9 295 200 31 300 56 301 77 27 189 
229 9 20 14 278 188 97 262 246 217 66 
230 9 139 277 5 309 35 327 26 282 338 
231 9 243 44 185 232 256 40 359 98 271 
232 9 359 243 98 231 134 185 288 271 44 
233 9 89 22 334 8 38 101 263 288 194 
234 9 205 356 99 345 183 177 237 63 150 
235 9 211 261 302 209 323 317 16 104 138 
236 9 291 241 353 123 148 372 36 218 343 
237 9 254 141 99 345 74 174 8 198 42 
238 9 197 352 12 193 143 131 342 49 105 
239 9 164 322 361 127 29 95 215 187 244 
240 9 106 37 362 162 332 369 147 199 179 
241 9 291 372 353 236 122 358 341 343 36 
242 9 115 87 252 157 75 314 107 342 92 
243 9 231 44 232 185 359 40 256 98 271 
244 9 125 293 78 249 84 239 95 127 322 
245 9 34 203 135 325 225 145 337 76 249 
246 9 97 66 172 96 14 274 196 20 278 
247 9 18 257 331 224 24 81 119 112 198 
248 9 216 126 328 371 364 46 374 67 329 
249 9 84 293 135 125 78 244 117 344 376 
250 9 57 323 68 261 16 235 104 154 211 
251 9 332 179 199 106 362 240 162 265 281 
252 9 157 115 242 87 314 75 79 342 30 
253 9 201 53 258 335 118 51 290 370 102 
254 9 237 141 174 74 198 99 345 42 4 
255 9 347 116 74 183 120 366 299 345 50 
256 9 44 185 110 189 222 121 19 227 130 
257 9 224 198 247 331 18 174 141 74 81 
258 9 118 253 335 201 156 53 12 51 178 
259 9 71 60 354 217 142 72 262 367 363 
260 9 274 196 78 340 244 96 125 322 293 
261 9 211 16 323 104 68 235 302 57 344 
262 9 10 229 354 188 259 20 60 71 312 
263 9 8 233 140 99 101 89 334 38 237 
264 9 208 55 305 128 133 113 15 52 65 
265 9 167 162 369 37 165 251 240 332 147 
266 9 190 195 114 109 304 6 333 7 313 
267 9 159 9 320 303 294 136 225 285 203 
268 9 219 142 354 72 60 363 311 47 355 
269 9 46 186 173 63 140 33 177 356 205 
270 9 296 315 39 180 21 155 165 83 80 
271 9 194 288 134 98 22 185 222 89 256 
272 9 65 297 346 192 113 52 41 324 128 
273 9 166 163 313 175 304 6 297 333 45 
274 9 196 340 260 246 66 96 97 172 78 
275 9 144 178 129 221 69 206 308 335 51 
276 9 318 94 212 171 90 73 103 160 158 
277 9 230 309 35 139 327 26 5 282 338 
278 9 14 20 97 188 229 96 93 336 76 
279 9 210 43 202 58 360 59 161 81 331 
280 9 312 373 15 311 52 41 219 10 346 
281 9 362 341 199 106 343 179 332 240 36 
282 9 26 309 204 327 69 277 35 124 48 
283 9 13 207 298 92 107 365 62 75 102 
284 9 357 146 143 137 126 105 197 328 307 
285 9 136 294 9 170 3 138 267 225 325 
286 9 213 64 350 23 158 160 25 103 151 
287 9 100 70 349 184 28 368 351 181 54 
288 9 134 271 98 194 22 89 334 233 185 
289 9 88 47 355 299 120 50 111 363 72 
290 9 102 53 365 370 298 207 201 283 13 
291 9 353 372 241 236 108 122 358 112 341 
292 9 177 150 308 206 173 67 374 356 63 
293 9 125 244 249 84 78 117 135 344 376 
294 9 136 9 285 267 320 159 225 325 321 
295 9 228 200 31 300 56 301 77 40 27 
296 9 270 39 21 315 165 180 80 83 155 
297 9 272 65 346 313 41 113 52 175 273 
298 9 365 13 283 207 102 290 92 107 62 
299 9 120 88 50 116 111 289 82 255 366 
300 9 56 301 31 77 228 108 112 119 295 
301 9 56 300 31 77 119 112 24 108 228 
302 9 209 235 211 317 344 117 261 325 225 
303 9 159 320 45 267 9 163 166 321 175 
304 9 6 195 266 273 313 109 333 163 166 
305 9 55 264 208 128 133 310 214 169 113 
306 9 375 191 152 17 33 38 101 339 334 
307 9 2 357 85 149 49 182 284 193 146 
308 9 206 129 150 144 5 275 292 139 67 
309 9 277 26 282 327 35 230 139 124 204 
310 9 169 133 55 305 208 264 214 161 43 
311 9 219 268 312 280 354 373 15 142 72 
312 9 280 311 373 10 15 219 354 41 52 
313 9 273 175 166 163 304 297 333 41 6 
314 9 115 75 252 92 242 107 157 62 207 
315 9 155 270 180 296 83 39 80 151 21 
316 9 366 82 183 338 50 347 139 5 35 
317 9 209 138 302 325 225 235 170 203 211 
318 9 94 212 276 171 160 73 158 103 23 
319 9 61 362 122 281 358 106 341 240 132 
320 9 159 303 267 321 9 294 45 136 285 
321 9 320 6 109 195 159 294 9 303 267 
322 9 29 164 361 239 215 187 127 95 244 
323 9 68 261 16 104 211 57 235 250 302 
324 9 192 155 128 83 315 65 272 181 151 
325 9 225 203 245 209 317 34 9 302 136 
326 9 351 184 368 223 28 348 286 70 25 
327 9 26 35 309 124 277 282 338 86 48 
328 9 126 364 137 105 143 371 146 197 329 
329 9 371 374 67 156 206 364 129 328 105 
330 9 204 367 226 282 69 221 48 220 26 
331 9 224 81 257 247 360 202 18 210 198 
332 9 179 199 106 251 362 240 281 162 37 
333 9 7 304 313 266 54 273 114 297 195 
334 9 233 38 22 89 101 339 288 8 194 
335 9 201 51 253 178 258 221 53 275 144 
336 9 76 93 145 337 278 188 34 96 14 
337 9 76 93 145 336 34 96 135 245 278 
338 9 35 86 327 124 82 277 26 309 230 
339 9 17 152 38 334 101 134 91 288 306 
340 9 196 274 260 62 13 283 365 298 187 
341 9 281 343 122 36 241 362 199 358 236 
342 9 131 352 193 87 12 49 182 238 176 
343 9 36 341 281 199 123 179 236 362 106 
344 9 117 376 84 249 302 211 293 104 261 
345 9 183 347 237 99 234 254 74 255 141 
346 9 52 113 65 41 297 15 272 373 280 
347 9 255 183 345 74 116 366 316 120 82 
348 9 223 73 326 90 103 158 160 286 171 
349 9 287 100 181 368 70 54 351 184 28 
350 9 64 213 23 158 160 286 103 171 21 
351 9 368 184 70 326 28 25 181 287 349 
352 9 238 193 131 12 197 342 49 182 143 
353 9 291 372 241 236 108 112 119 24 122 
354 9 60 268 142 219 72 311 363 259 262 
355 9 47 289 363 72 88 142 268 60 86 
356 9 205 234 177 63 99 173 150 345 292 
357 9 284 146 307 143 2 49 137 197 182 
358 9 122 61 241 341 372 319 59 291 161 
359 9 232 243 231 153 40 44 98 185 134 
360 9 210 202 279 43 331 224 111 116 58 
361 9 164 29 322 215 239 127 187 95 244 
362 9 106 281 240 199 332 179 341 319 37 
363 9 72 142 355 60 268 47 354 219 289 
364 9 328 105 126 137 371 143 329 197 146 
365 9 298 102 13 283 290 207 92 107 172 
366 9 316 82 183 50 347 338 255 120 116 
367 9 330 204 48 226 282 26 71 124 327 
368 9 351 184 25 181 70 28 326 287 349 
369 9 162 37 167 165 147 240 265 80 106 
370 9 51 290 102 220 53 201 335 365 253 
371 9 329 364 374 67 156 328 105 126 137 
372 9 353 291 241 236 122 358 108 112 24 
373 9 15 280 52 312 113 311 346 41 208 
374 9 67 329 206 371 156 308 129 292 216 
375 9 191 306 33 17 152 38 101 339 140 
376 9 117 344 84 104 16 211 249 293 261 
DEPOT_SECTION
   1
   -1
EOF
