NAME :  X-n336-kX-w67-c7.cctp
COMMENT : 	Adapted by Maziero, Usberti and Cavellucci from the Uchoa, Pecin, Pessoa, Poggi, Subramanian, and Vidal (2013)
TYPE :  CCTP
DIMENSION :    284
EDGE_WEIGHT_TYPE : 	EUC_2D	
CAPACITY : 	203
VERTICES_WITHIN_COVERAGE :  7
VERTICES_WITH_DEMAND : 	67
NODE_COORD_SECTION
1 0 0
2 365 689
3 146 180
4 792 5
5 658 510
6 461 270
7 299 531
8 812 228
9 643 90
10 615 630
11 258 42
12 616 299
13 475 957
14 425 473
15 406 64
16 656 369
17 202 467
18 318 21
19 579 587
20 458 354
21 575 871
22 47 512
23 568 742
24 128 436
25 546 806
26 197 696
27 615 300
28 852 563
29 772 803
30 678 342
31 916 176
32 390 949
33 113 782
34 226 736
35 119 923
36 584 572
37 134 554
38 912 173
39 827 233
40 851 677
41 598 322
42 627 472
43 94 442
44 688 274
45 977 176
46 597 461
47 931 23
48 170 640
49 941 601
50 873 487
51 797 95
52 451 816
53 866 970
54 833 912
55 106 913
56 260 107
57 332 45
58 685 613
59 728 372
60 407 590
61 619 484
62 966 483
63 482 512
64 278 599
65 213 330
66 37 932
67 643 10
68 341 241
69 302 521
70 593 382
71 438 686
72 637 885
73 277 382
74 152 776
75 546 999
76 288 665
77 232 131
78 563 66
79 602 547
80 996 983
81 464 377
82 502 727
83 691 574
84 535 4
85 975 616
86 974 242
87 853 459
88 263 163
89 810 617
90 580 226
91 615 656
92 346 526
93 172 867
94 319 35
95 602 946
96 224 146
97 48 527
98 970 693
99 314 262
100 413 661
101 756 147
102 381 139
103 421 100
104 930 522
105 440 792
106 862 962
107 573 541
108 380 646
109 457 991
110 511 272
111 960 171
112 721 754
113 389 853
114 700 137
115 823 958
116 422 111
117 727 12
118 203 178
119 548 744
120 610 239
121 396 478
122 509 773
123 347 219
124 754 887
125 717 223
126 451 575
127 806 992
128 740 770
129 291 583
130 74 690
131 877 132
132 379 284
133 574 881
134 871 854
135 987 529
136 509 440
137 976 565
138 644 554
139 325 696
140 969 681
141 782 490
142 502 280
143 440 691
144 806 649
145 552 728
146 980 576
147 26 841
148 463 459
149 526 344
150 268 49
151 979 559
152 156 39
153 303 960
154 760 825
155 28 910
156 725 93
157 987 998
158 827 937
159 253 53
160 342 592
161 833 437
162 705 344
163 35 318
164 839 857
165 462 46
166 72 981
167 660 595
168 806 978
169 954 238
170 679 664
171 223 692
172 783 211
173 258 807
174 29 943
175 901 617
176 634 276
177 711 6
178 253 301
179 379 611
180 494 796
181 804 306
182 366 672
183 739 275
184 390 64
185 421 896
186 773 430
187 780 36
188 583 683
189 102 872
190 999 222
191 991 56
192 687 500
193 381 463
194 373 15
195 240 295
196 379 73
197 94 905
198 291 368
199 365 875
200 281 949
201 222 763
202 487 965
203 217 975
204 767 889
205 966 590
206 584 689
207 513 513
208 626 630
209 528 291
210 61 262
211 67 613
212 528 819
213 776 606
214 453 584
215 113 947
216 619 771
217 207 338
218 930 890
219 740 183
220 313 231
221 487 874
222 857 247
223 376 774
224 168 409
225 855 702
226 846 172
227 153 638
228 987 721
229 619 306
230 31 683
231 681 520
232 445 533
233 117 505
234 860 428
235 265 809
236 947 417
237 791 3
238 305 771
239 697 637
240 599 555
241 595 439
242 952 464
243 217 775
244 585 895
245 185 344
246 710 275
247 668 648
248 423 637
249 318 490
250 686 796
251 870 128
252 37 883
253 59 581
254 292 22
255 285 15
256 159 409
257 556 616
258 370 988
259 436 374
260 143 772
261 897 75
262 621 485
263 942 616
264 707 297
265 170 312
266 244 104
267 367 241
268 71 908
269 32 869
270 812 318
271 731 882
272 701 119
273 170 285
274 577 478
275 377 59
276 823 859
277 760 716
278 809 837
279 269 109
280 112 726
281 454 247
282 873 167
283 205 18
284 738 287
DEMAND_SECTION
2 48
3 63
4 27
5 66
6 86
7 14
8 26
9 47
10 66
11 85
12 22
13 30
14 89
15 51
16 11
17 82
18 92
19 85
20 51
21 90
22 6
23 68
24 73
25 94
26 7
27 12
28 70
29 97
30 41
31 30
32 8
33 11
34 25
35 10
36 75
37 17
38 36
39 6
40 54
41 12
42 30
43 94
44 30
45 27
46 41
47 25
48 41
49 72
50 39
51 32
52 35
53 68
54 68
55 9
56 90
57 56
58 95
59 41
60 39
61 18
62 8
63 16
64 37
65 82
66 26
67 14
68 66
COVERAGE_SECTION
2 7 182 139 108 100 71 143 248 
3 4 118 96 77 273 
4 7 237 187 117 177 51 156 261 
5 7 231 192 262 138 61 42 79 
6 7 281 142 110 209 132 20 149 
7 7 69 249 92 129 64 160 193 
8 6 39 172 222 226 181 219 
9 5 272 114 67 156 78 
10 7 208 91 19 247 167 257 188 
11 7 150 159 255 254 283 94 18 
12 7 27 229 41 176 120 30 44 
13 7 202 109 185 75 221 32 258 
14 7 121 148 193 232 63 136 92 
15 7 184 196 275 103 116 165 194 
16 7 30 162 70 59 229 41 27 
17 7 224 256 24 233 37 43 73 
18 7 94 254 57 255 194 150 11 
19 7 36 257 240 79 107 10 208 
20 7 81 259 149 6 142 209 110 
21 7 133 244 72 212 25 95 221 
22 7 97 233 253 43 37 211 24 
23 7 119 145 206 216 188 122 25 
24 7 43 256 224 233 17 245 22 
25 7 212 122 180 119 23 21 145 
26 7 171 34 48 201 227 243 280 
27 7 12 229 41 176 120 30 44 
28 7 89 175 50 213 104 49 144 
29 7 154 128 278 112 276 124 164 
30 7 162 16 264 59 44 229 246 
31 7 38 111 282 131 45 251 226 
32 7 258 185 199 109 13 153 113 
33 5 260 74 280 189 130 
34 7 201 243 171 26 173 235 74 
35 7 55 215 197 268 189 166 93 
36 7 19 240 79 107 257 138 10 
37 7 233 253 227 211 97 48 22 
38 7 31 282 111 131 251 45 226 
39 6 8 222 172 226 181 282 
40 6 225 144 89 175 277 213 
41 7 229 27 12 176 70 16 149 
42 7 61 262 46 241 5 274 192 
43 7 24 233 256 224 22 97 17 
44 7 246 264 183 284 176 125 30 
45 7 111 190 31 38 86 169 282 
46 7 241 274 42 61 262 5 70 
47 7 261 191 251 131 4 237 38 
48 7 227 26 171 37 280 211 130 
49 7 263 205 85 175 146 137 151 
50 6 87 234 161 104 28 242 
51 7 187 101 156 251 131 4 226 
52 7 105 180 221 113 122 212 185 
53 7 106 115 158 168 127 54 218 
54 7 158 115 276 164 106 53 134 
55 7 197 35 215 268 189 66 252 
56 7 279 266 77 96 159 88 150 
57 7 94 18 254 275 194 196 255 
58 7 239 167 83 247 170 208 10 
59 7 162 30 16 186 264 284 183 
60 7 179 126 214 248 108 160 232 
61 7 262 42 46 274 5 241 79 
62 6 242 135 104 236 151 137 
63 7 207 232 148 14 126 136 214 
64 7 129 160 76 7 69 92 179 
65 7 217 245 195 265 178 273 73 
66 7 174 155 268 252 166 197 269 
67 6 177 9 117 78 84 156 
68 5 123 267 220 99 132 
69 7 7 249 92 129 160 64 193 
70 7 241 41 16 149 46 229 27 
71 7 143 100 248 108 2 182 82 
72 5 244 133 21 95 271 
73 3 198 65 217 
74 5 260 33 280 243 201 
75 7 202 95 13 109 244 133 21 
76 7 139 64 171 182 2 129 160 
77 7 96 266 56 279 88 118 159 
78 2 84 9 
79 7 240 107 36 138 19 61 262 
80 4 157 218 53 106 
81 7 20 259 149 136 148 14 142 
82 7 122 119 145 23 180 143 71 
83 7 167 58 138 231 239 5 192 
84 3 78 165 67 
85 7 205 263 49 146 137 151 140 
86 5 169 190 45 111 31 
87 4 161 234 50 141 
88 7 96 77 279 56 118 266 220 
89 6 144 213 28 40 175 225 
90 6 120 176 12 27 110 209 
91 6 10 208 188 206 247 170 
92 7 69 249 7 160 121 193 129 
93 4 189 35 55 197 
94 7 18 57 254 255 150 194 11 
95 5 244 72 133 75 21 
96 7 77 118 88 266 56 279 3 
97 6 22 253 233 211 37 43 
98 6 140 228 85 263 49 175 
99 6 220 68 123 267 132 178 
100 7 248 71 108 143 182 2 179 
101 7 219 114 156 272 51 172 125 
102 7 116 103 196 184 15 275 123 
103 7 116 15 184 196 102 275 165 
104 7 62 135 151 242 137 50 146 
105 7 52 180 223 122 113 82 212 
106 7 53 115 158 54 168 127 218 
107 7 79 240 36 19 274 207 138 
108 7 182 179 100 248 2 60 160 
109 7 13 202 32 258 75 185 221 
110 7 142 209 6 281 149 90 20 
111 7 45 31 38 190 169 86 282 
112 4 128 277 250 29 
113 7 199 185 52 105 223 32 221 
114 7 272 156 101 219 9 125 51 
115 6 158 168 127 106 53 54 
116 7 103 15 102 184 196 275 165 
117 7 177 187 4 237 156 67 51 
118 7 96 77 3 88 266 56 279 
119 7 145 23 82 122 25 206 188 
120 7 90 176 12 27 229 41 44 
121 7 193 14 92 148 232 249 63 
122 7 180 82 119 25 212 145 23 
123 7 68 267 220 99 132 102 88 
124 7 204 271 154 276 278 54 29 
125 6 219 246 183 44 172 284 
126 7 214 232 60 248 63 179 207 
127 6 168 115 158 53 106 54 
128 5 112 29 277 154 250 
129 7 64 160 7 69 92 76 179 
130 6 230 280 211 227 33 260 
131 7 251 282 226 38 31 261 51 
132 5 267 68 99 123 6 
133 7 21 244 72 95 212 25 221 
134 5 164 276 278 54 218 
135 7 151 137 146 62 104 205 242 
136 7 148 207 63 81 274 241 14 
137 7 151 146 205 135 49 85 263 
138 7 79 167 240 5 231 83 36 
139 7 2 76 182 108 238 223 100 
140 6 98 228 85 263 49 205 
141 7 186 161 87 50 192 234 28 
142 7 110 209 6 281 149 20 90 
143 7 71 100 248 82 2 108 182 
144 6 89 213 40 225 277 28 
145 7 119 23 82 206 188 122 25 
146 7 137 151 205 85 49 135 263 
147 7 269 252 155 268 189 66 197 
148 7 14 136 63 121 207 232 81 
149 7 209 142 20 81 110 41 70 
150 7 11 159 254 255 94 18 56 
151 7 137 146 135 205 49 85 104 
152 5 283 159 11 266 150 
153 5 200 258 203 32 199 
154 7 29 278 128 124 204 271 276 
155 7 66 252 174 269 268 197 147 
156 7 272 114 101 51 187 117 9 
157 5 80 218 53 106 115 
158 7 115 54 106 168 53 127 204 
159 7 11 150 254 255 266 56 279 
160 7 179 129 64 60 92 108 7 
161 5 234 87 186 50 141 
162 7 30 59 264 16 284 246 44 
163 3 210 265 43 
164 5 276 134 278 54 204 
165 4 15 103 184 116 
166 7 215 174 66 268 35 55 197 
167 7 58 83 138 208 247 239 10 
168 6 127 115 158 106 53 54 
169 6 86 190 45 111 31 38 
170 4 247 239 58 208 
171 7 26 34 76 201 48 243 227 
172 6 8 39 219 125 101 226 
173 5 235 243 201 238 34 
174 7 66 155 268 166 252 269 197 
175 7 263 49 205 28 85 40 146 
176 7 12 27 229 120 44 41 90 
177 7 117 67 187 237 4 156 9 
178 5 195 65 217 99 198 
179 7 60 108 160 248 100 182 2 
180 7 122 212 52 25 105 82 119 
181 6 270 284 183 39 8 222 
182 7 2 108 100 139 179 248 71 
183 6 284 246 264 44 125 181 
184 7 196 275 15 103 194 116 57 
185 7 113 199 32 221 13 52 202 
186 6 161 141 59 87 234 162 
187 7 4 237 117 51 177 156 101 
188 7 206 91 145 23 10 208 119 
189 7 197 55 268 35 252 93 269 
190 6 86 169 45 111 31 38 
191 7 47 261 111 45 131 38 251 
192 7 231 5 42 262 138 61 83 
193 7 121 14 249 92 148 232 69 
194 7 275 57 184 18 94 196 15 
195 6 178 65 217 273 265 245 
196 7 184 275 15 103 57 116 194 
197 7 55 268 35 189 215 252 66 
198 3 73 178 65 
199 6 113 185 32 223 52 153 
200 5 153 203 258 32 199 
201 7 243 34 173 235 74 171 26 
202 7 13 109 75 221 185 32 95 
203 5 200 153 215 35 93 
204 7 124 271 154 276 278 54 158 
205 7 146 49 137 85 151 263 135 
206 6 188 91 145 23 119 10 
207 7 63 107 232 136 274 148 126 
208 7 10 91 247 167 58 170 19 
209 7 110 142 149 6 41 90 281 
210 3 163 273 3 
211 6 253 130 230 97 37 227 
212 7 25 180 122 221 21 52 133 
213 6 89 144 239 28 58 83 
214 7 126 60 232 248 63 179 100 
215 7 35 55 197 166 268 189 66 
216 5 23 250 119 145 25 
217 7 65 245 265 195 178 273 224 
218 3 134 164 54 
219 7 101 125 172 114 272 8 156 
220 6 68 99 123 267 88 132 
221 7 52 212 185 180 13 133 21 
222 6 39 8 226 181 172 282 
223 7 105 238 113 2 52 139 182 
224 7 256 24 17 245 43 217 65 
225 6 40 144 89 277 175 98 
226 7 282 251 131 39 8 38 31 
227 6 48 26 37 171 211 130 
228 5 98 140 85 263 49 
229 7 27 12 41 176 120 30 16 
230 6 130 211 280 253 33 227 
231 7 192 5 138 83 262 42 61 
232 7 126 63 214 14 60 207 121 
233 7 37 43 22 24 97 17 253 
234 3 161 87 50 
235 5 173 238 243 201 34 
236 2 242 62 
237 7 4 187 117 177 51 156 261 
238 7 235 173 223 139 201 34 243 
239 6 58 247 170 167 83 208 
240 7 79 36 107 19 138 167 262 
241 7 46 274 42 61 262 70 136 
242 5 62 236 104 135 50 
243 5 201 34 173 235 74 
244 5 133 21 72 95 212 
245 7 217 65 265 273 224 256 195 
246 6 44 264 183 284 125 162 
247 6 170 239 58 208 91 167 
248 7 100 108 60 71 179 143 214 
249 7 69 7 92 193 121 129 160 
250 5 112 128 216 154 29 
251 7 131 282 226 261 38 31 51 
252 7 269 155 268 147 66 174 197 
253 6 211 97 22 37 233 230 
254 7 255 18 94 150 11 57 159 
255 7 254 18 11 150 94 159 57 
256 7 224 24 245 17 43 217 65 
257 6 19 36 10 91 208 188 
258 7 32 153 109 200 185 13 199 
259 5 81 20 148 149 136 
260 5 74 33 280 243 201 
261 7 251 131 47 282 191 38 51 
262 7 61 42 46 5 274 241 79 
263 7 49 85 205 175 146 137 151 
264 6 246 44 284 183 162 30 
265 7 273 245 217 65 195 178 224 
266 7 56 279 77 96 159 150 88 
267 6 68 123 132 220 99 281 
268 7 197 55 66 252 155 189 35 
269 7 252 147 155 268 66 189 197 
270 6 181 284 222 183 39 8 
271 5 124 204 154 29 278 
272 7 114 156 101 9 219 51 125 
273 6 265 245 65 217 195 178 
274 7 46 61 241 262 42 107 79 
275 7 184 196 15 194 57 103 94 
276 7 164 278 134 54 204 154 124 
277 4 112 128 144 29 
278 7 276 164 29 154 134 204 124 
279 7 56 266 77 88 96 159 150 
280 7 130 260 33 74 26 230 227 
281 7 6 142 110 132 209 267 20 
282 7 226 131 38 251 31 39 222 
283 6 152 11 159 150 255 254 
284 6 183 246 264 44 162 125 
DEPOT_SECTION
   1
   -1
EOF
