NAME :  X-n303-kX-w120-c7.cctp
COMMENT : 	Adapted by Maziero, Usberti and Cavellucci from the Uchoa, Pecin, Pessoa, Poggi, Subramanian, and Vidal (2013)
TYPE :  CCTP
DIMENSION :    293
EDGE_WEIGHT_TYPE : 	EUC_2D	
CAPACITY : 	794
VERTICES_WITHIN_COVERAGE :  7
VERTICES_WITH_DEMAND : 	120
NODE_COORD_SECTION
1 500 500
2 205 638
3 893 161
4 191 775
5 444 871
6 225 445
7 368 543
8 120 270
9 612 902
10 45 323
11 707 182
12 125 720
13 442 388
14 79 759
15 904 76
16 379 849
17 213 595
18 164 686
19 404 947
20 331 615
21 842 156
22 272 297
23 957 227
24 274 481
25 287 544
26 152 403
27 873 146
28 267 415
29 188 727
30 594 742
31 198 429
32 810 797
33 383 602
34 459 786
35 50 183
36 395 836
37 600 866
38 192 744
39 12 705
40 869 99
41 233 811
42 235 638
43 423 904
44 220 619
45 236 713
46 960 141
47 128 321
48 160 230
49 200 650
50 104 544
51 375 638
52 540 726
53 635 790
54 512 597
55 643 517
56 327 750
57 198 412
58 375 558
59 123 259
60 365 859
61 545 700
62 242 431
63 140 412
64 316 413
65 145 764
66 892 246
67 331 828
68 231 342
69 676 810
70 211 378
71 197 538
72 808 113
73 129 655
74 84 714
75 416 784
76 151 243
77 275 442
78 46 355
79 182 746
80 158 717
81 198 648
82 137 763
83 206 872
84 30 301
85 979 214
86 384 855
87 212 794
88 35 779
89 108 640
90 186 930
91 623 977
92 231 796
93 402 932
94 166 237
95 341 803
96 559 851
97 883 143
98 524 909
99 387 463
100 395 327
101 382 787
102 341 784
103 180 530
104 81 261
105 379 700
106 721 333
107 312 756
108 424 573
109 596 878
110 273 514
111 281 417
112 125 528
113 464 893
114 140 413
115 256 250
116 206 384
117 204 563
118 202 159
119 347 420
120 283 520
121 214 494
122 854 142
123 502 839
124 599 889
125 485 898
126 339 73
127 396 959
128 192 533
129 234 702
130 811 101
131 840 272
132 266 346
133 867 211
134 185 436
135 61 374
136 843 188
137 156 795
138 387 889
139 622 16
140 235 894
141 327 991
142 867 172
143 329 496
144 930 115
145 371 317
146 416 575
147 408 744
148 98 434
149 239 775
150 231 748
151 251 398
152 311 725
153 913 135
154 928 399
155 444 596
156 337 519
157 294 981
158 625 824
159 153 530
160 124 342
161 615 881
162 534 826
163 454 888
164 639 789
165 48 353
166 200 704
167 50 483
168 269 610
169 54 300
170 346 588
171 617 832
172 867 63
173 304 240
174 129 675
175 293 547
176 110 597
177 868 126
178 190 760
179 894 162
180 209 696
181 400 495
182 283 657
183 536 991
184 649 872
185 198 370
186 275 889
187 904 169
188 511 600
189 224 441
190 627 952
191 7 213
192 155 218
193 593 802
194 212 351
195 616 902
196 230 561
197 459 554
198 585 595
199 204 614
200 698 970
201 425 539
202 430 850
203 498 758
204 437 622
205 107 483
206 119 764
207 265 615
208 547 481
209 324 762
210 723 745
211 163 928
212 308 513
213 339 599
214 314 814
215 316 598
216 183 159
217 325 348
218 163 480
219 595 727
220 303 866
221 350 700
222 920 82
223 105 238
224 111 18
225 437 482
226 88 300
227 464 929
228 544 846
229 201 233
230 353 729
231 302 404
232 708 855
233 739 843
234 198 250
235 55 143
236 257 410
237 26 411
238 207 344
239 212 757
240 277 453
241 274 472
242 272 828
243 875 101
244 434 975
245 510 975
246 647 943
247 349 428
248 317 866
249 391 393
250 612 815
251 217 666
252 229 740
253 630 918
254 125 704
255 545 898
256 184 757
257 492 930
258 985 201
259 448 998
260 117 784
261 359 490
262 292 715
263 365 531
264 503 795
265 21 220
266 225 872
267 387 551
268 895 120
269 476 868
270 281 586
271 609 944
272 868 164
273 148 748
274 168 463
275 364 550
276 844 163
277 465 614
278 214 637
279 189 582
280 94 186
281 863 190
282 676 800
283 175 686
284 393 400
285 172 614
286 320 504
287 35 206
288 182 671
289 356 599
290 88 215
291 608 775
292 481 721
293 449 751
DEMAND_SECTION
2 20
3 14
4 85
5 33
6 51
7 78
8 51
9 85
10 74
11 4
12 13
13 2
14 33
15 16
16 31
17 16
18 18
19 3
20 66
21 42
22 65
23 15
24 3
25 38
26 81
27 82
28 83
29 86
30 1
31 59
32 69
33 1
34 58
35 98
36 37
37 65
38 92
39 44
40 86
41 83
42 68
43 52
44 82
45 66
46 34
47 33
48 18
49 39
50 97
51 29
52 6
53 74
54 20
55 2
56 89
57 48
58 53
59 57
60 80
61 26
62 85
63 89
64 29
65 68
66 15
67 51
68 9
69 63
70 62
71 49
72 28
73 84
74 82
75 65
76 77
77 74
78 27
79 100
80 82
81 54
82 21
83 43
84 4
85 53
86 55
87 73
88 46
89 68
90 22
91 69
92 93
93 44
94 63
95 64
96 81
97 87
98 44
99 12
100 78
101 91
102 63
103 84
104 7
105 2
106 68
107 85
108 77
109 93
110 16
111 6
112 52
113 79
114 43
115 87
116 40
117 47
118 74
119 19
120 3
121 12
COVERAGE_SECTION
2 7 278 81 49 44 199 42 251 
3 7 179 187 97 27 272 142 153 
4 7 178 256 87 239 79 38 137 
5 7 163 202 113 269 43 125 36 
6 7 189 62 31 134 57 236 77 
7 7 275 263 58 267 156 170 261 
8 7 59 223 104 76 226 47 48 
9 7 195 124 161 253 109 37 271 
10 7 169 84 165 78 226 135 104 
11 3 72 130 136 
12 7 254 80 273 74 206 82 174 
13 7 284 249 100 99 225 119 145 
14 7 206 74 260 88 82 12 65 
15 7 222 243 172 40 268 144 153 
16 7 86 60 36 138 202 67 95 
17 7 199 44 279 117 196 278 2 
18 7 283 288 80 174 166 254 180 
19 7 127 93 244 43 138 227 259 
20 7 213 215 289 170 51 33 270 
21 6 276 122 272 142 136 27 
22 7 132 115 68 173 217 238 194 
23 7 85 258 66 187 46 133 179 
24 7 241 240 110 77 120 212 286 
25 7 175 120 110 212 270 286 156 
26 7 63 114 57 134 31 116 185 
27 7 97 122 272 177 3 179 142 
28 7 236 111 151 77 62 231 240 
29 7 38 79 166 256 80 178 180 
30 7 219 291 52 193 53 61 164 
31 7 134 57 189 6 62 274 116 
32 6 233 210 232 282 69 164 
33 7 289 51 170 146 213 58 108 
34 7 293 75 264 203 147 123 292 
35 7 287 235 280 265 290 191 223 
36 7 16 86 60 202 101 138 75 
37 7 109 161 124 9 171 195 96 
38 7 79 256 178 29 239 4 252 
39 7 74 88 14 254 12 89 174 
40 7 243 177 268 172 15 97 122 
41 7 92 87 149 242 4 239 266 
42 7 278 44 2 251 49 81 207 
43 7 93 163 5 138 113 19 227 
44 7 199 278 2 42 17 81 49 
45 7 129 252 180 150 166 29 239 
46 7 144 153 187 258 268 179 3 
47 7 160 226 8 59 104 169 76 
48 7 94 192 76 229 234 59 223 
49 7 81 2 278 251 288 199 42 
50 7 112 159 176 205 103 167 218 
51 7 33 289 20 213 170 105 204 
52 7 61 203 219 30 292 264 291 
53 7 164 291 250 158 282 193 69 
54 7 188 277 155 197 198 204 108 
55 7 198 208 54 188 197 106 277 
56 7 209 107 152 230 102 262 95 
57 7 31 134 116 70 189 185 6 
58 7 267 275 7 263 170 146 33 
59 7 8 223 76 104 48 94 192 
60 7 16 86 138 36 67 248 95 
61 7 52 219 30 292 203 291 264 
62 7 189 6 236 28 151 77 111 
63 7 114 26 148 134 57 274 31 
64 7 231 119 111 247 28 77 240 
65 7 82 273 206 137 260 256 79 
66 5 133 131 281 23 136 
67 7 214 95 248 102 60 220 16 
68 7 194 238 132 70 185 116 151 
69 7 282 164 53 158 232 171 250 
70 7 116 185 194 238 57 68 151 
71 7 128 103 117 196 159 279 121 
72 7 130 122 21 177 276 40 243 
73 7 174 89 18 254 283 288 285 
74 7 12 254 14 174 206 82 273 
75 7 101 147 34 293 36 202 16 
76 7 48 94 192 59 8 223 234 
77 7 240 111 28 241 62 236 24 
78 7 165 135 10 84 169 237 226 
79 7 38 256 178 29 4 239 273 
80 7 18 29 12 273 254 283 79 
81 7 49 2 278 251 288 199 44 
82 7 65 206 273 260 137 12 256 
83 7 266 140 90 41 186 211 87 
84 7 169 10 165 78 226 104 135 
85 7 258 23 46 187 66 179 3 
86 7 16 60 36 138 202 67 5 
87 7 92 41 4 149 239 178 256 
88 7 14 39 74 260 206 82 12 
89 7 73 174 176 254 285 18 74 
90 7 211 83 140 266 186 157 41 
91 6 190 271 246 253 195 200 
92 7 41 87 149 239 4 150 242 
93 7 19 127 43 138 244 227 163 
94 7 48 76 192 229 234 59 8 
95 7 102 67 214 101 209 56 107 
96 7 228 162 37 109 255 124 123 
97 7 27 3 179 177 268 272 122 
98 6 255 257 125 113 227 269 
99 7 181 261 247 225 119 284 143 
100 7 145 249 217 284 13 119 247 
101 7 75 102 95 147 36 16 209 
102 7 95 209 56 107 214 101 67 
103 7 128 71 159 117 121 218 279 
104 7 223 8 226 59 169 290 84 
105 7 221 230 147 51 56 152 209 
106 3 131 11 136 
107 7 209 56 152 102 262 230 95 
108 7 146 155 201 197 267 33 58 
109 7 124 37 161 9 195 96 171 
110 7 120 24 25 212 175 241 286 
111 7 28 231 236 77 64 151 240 
112 7 50 159 205 103 218 128 176 
113 7 163 125 269 5 227 43 257 
114 7 63 26 148 134 274 57 31 
115 7 173 22 229 234 94 68 132 
116 7 70 185 57 194 238 31 151 
117 7 279 71 196 128 17 103 199 
118 7 216 229 192 48 94 234 76 
119 7 247 64 231 284 249 99 111 
120 7 110 25 212 175 24 286 241 
121 7 128 71 6 103 218 189 274 
122 7 21 27 177 276 272 97 142 
123 7 162 269 228 264 96 125 5 
124 7 109 9 161 195 37 253 184 
125 7 113 269 163 257 227 98 5 
126 7 118 173 216 115 229 234 22 
127 7 19 93 244 43 259 138 227 
128 7 71 103 117 159 121 196 279 
129 7 45 180 166 252 251 150 29 
130 7 72 40 122 177 21 243 172 
131 3 66 133 136 
132 7 68 22 151 194 217 238 70 
133 4 281 136 142 66 
134 7 31 57 274 189 6 26 218 
135 7 78 165 237 10 148 160 169 
136 5 281 276 142 21 133 
137 7 65 82 4 260 256 206 273 
138 7 86 60 43 16 93 36 202 
139 7 11 130 72 172 21 40 122 
140 7 266 83 186 90 220 242 211 
141 7 157 127 19 93 244 186 138 
142 7 272 281 276 27 3 136 179 
143 7 286 156 212 261 263 120 24 
144 7 153 222 268 46 15 97 243 
145 7 100 217 249 284 13 22 173 
146 7 108 155 201 267 33 58 197 
147 7 75 293 101 105 230 34 221 
148 7 63 114 205 26 167 135 237 
149 7 92 150 239 87 41 252 4 
150 7 252 239 149 45 38 178 129 
151 7 236 28 62 111 70 116 77 
152 7 262 56 107 209 230 221 102 
153 7 268 144 97 3 179 187 27 
154 6 131 66 23 85 133 258 
155 7 204 277 108 146 197 201 33 
156 7 286 143 212 263 261 7 275 
157 7 141 186 127 140 19 220 248 
158 7 171 250 53 164 193 37 291 
159 7 103 112 128 71 50 218 117 
160 7 47 226 26 135 8 63 114 
161 7 124 109 9 37 195 184 253 
162 7 228 96 123 264 193 269 255 
163 7 113 5 269 125 43 227 202 
164 7 53 291 250 158 282 69 171 
165 7 78 135 10 169 84 237 226 
166 7 180 29 283 129 45 288 18 
167 7 205 148 237 50 112 135 159 
168 7 207 270 42 182 215 44 17 
169 7 84 10 226 104 165 78 8 
170 7 213 289 20 215 33 58 275 
171 7 158 250 37 193 53 164 161 
172 7 40 15 243 222 177 268 130 
173 7 115 22 145 229 234 217 132 
174 7 73 254 18 89 12 283 80 
175 7 25 120 212 110 270 286 156 
176 7 89 50 73 285 112 159 174 
177 7 27 122 97 243 40 268 272 
178 7 256 4 38 79 239 29 87 
179 7 3 187 97 27 272 142 153 
180 7 166 129 251 45 283 29 288 
181 7 99 225 261 263 201 267 7 
182 7 207 168 42 262 20 129 251 
183 5 245 257 98 271 91 
184 7 161 195 9 37 253 171 109 
185 7 70 116 194 238 57 68 26 
186 7 220 140 248 266 242 83 67 
187 7 179 3 97 153 272 142 27 
188 7 54 277 155 197 198 204 108 
189 7 6 62 31 57 134 236 28 
190 6 271 246 91 253 195 9 
191 7 265 287 35 290 235 104 84 
192 7 48 94 76 229 59 223 234 
193 7 250 291 171 158 53 164 30 
194 7 238 68 185 70 116 132 151 
195 7 9 124 161 253 109 37 271 
196 7 117 17 71 279 128 270 25 
197 7 201 108 155 146 277 54 188 
198 7 54 188 55 61 208 277 219 
199 7 44 17 2 278 285 81 279 
200 3 246 190 91 
201 7 108 146 197 267 181 58 7 
202 7 5 36 163 86 269 16 43 
203 7 264 292 34 293 52 61 162 
204 7 155 277 108 146 33 51 197 
205 7 112 148 218 167 50 274 159 
206 7 82 260 65 273 14 12 137 
207 7 168 270 42 44 182 215 17 
208 7 55 225 197 198 54 188 201 
209 7 56 107 102 152 95 230 214 
210 7 282 69 164 53 233 32 232 
211 7 90 83 140 266 186 137 41 
212 7 286 120 143 156 110 25 175 
213 7 170 289 20 215 33 51 58 
214 7 67 95 102 242 248 209 220 
215 7 20 213 170 270 289 168 207 
216 7 118 192 48 229 94 76 234 
217 7 145 132 231 64 100 22 119 
218 7 274 134 159 103 121 205 128 
219 7 30 291 52 61 53 193 164 
220 7 248 186 67 242 214 60 95 
221 7 105 230 152 56 262 51 209 
222 7 15 144 268 243 153 40 172 
223 7 59 290 104 8 76 280 192 
224 7 235 216 118 280 35 290 287 
225 7 181 99 201 197 261 267 263 
226 7 169 104 8 47 10 59 160 
227 6 257 113 125 163 43 244 
228 7 96 162 123 255 37 109 264 
229 7 234 94 48 192 76 115 118 
230 7 221 56 105 152 209 107 102 
231 7 64 111 28 236 77 119 151 
232 6 233 69 184 282 158 171 
233 6 232 69 282 32 184 210 
234 7 229 94 48 76 192 115 59 
235 7 35 280 287 290 265 191 223 
236 7 28 151 111 62 77 189 231 
237 7 135 78 165 148 167 10 205 
238 7 194 68 185 70 116 132 57 
239 7 150 178 38 252 4 256 79 
240 7 77 241 24 111 28 62 236 
241 7 24 240 77 110 120 62 212 
242 7 41 214 220 92 67 248 186 
243 7 40 177 268 15 172 97 27 
244 5 259 19 127 93 227 
245 5 183 257 227 259 98 
246 6 190 253 271 91 195 9 
247 7 119 64 99 284 231 249 261 
248 7 220 67 186 60 214 242 16 
249 7 284 13 119 247 100 99 64 
250 7 158 171 193 53 164 291 37 
251 7 49 81 278 2 180 42 288 
252 7 150 239 45 149 38 129 29 
253 7 195 9 246 271 190 161 124 
254 7 12 174 80 74 18 73 273 
255 7 98 96 228 109 124 125 257 
256 7 178 79 38 4 239 29 273 
257 6 227 125 98 113 245 163 
258 7 85 23 46 187 153 179 3 
259 5 244 127 245 19 227 
260 7 206 82 65 137 14 273 12 
261 7 143 156 99 181 263 286 7 
262 7 152 107 56 45 209 129 182 
263 7 7 275 58 156 267 261 143 
264 7 203 123 162 34 228 293 292 
265 7 191 287 35 290 104 84 280 
266 7 83 140 186 41 242 90 92 
267 7 58 7 275 263 146 201 108 
268 7 153 97 177 243 40 27 144 
269 7 113 163 125 5 123 202 227 
270 7 168 207 215 175 25 196 20 
271 7 190 253 91 246 9 195 124 
272 7 142 27 276 3 97 122 179 
273 7 65 82 80 206 79 12 256 
274 7 218 134 31 121 114 63 57 
275 7 7 58 263 267 156 170 289 
276 6 21 122 272 136 142 281 
277 7 155 204 188 54 108 197 146 
278 7 2 44 49 81 42 199 251 
279 7 117 17 199 285 71 196 44 
280 7 290 35 223 235 287 192 104 
281 6 142 136 133 272 276 21 
282 7 69 164 53 158 232 250 171 
283 7 18 288 166 80 180 29 49 
284 7 249 13 119 247 99 100 64 
285 7 199 279 2 81 17 49 44 
286 7 143 212 156 120 261 110 24 
287 7 265 35 191 290 280 235 104 
288 7 283 18 49 81 251 180 166 
289 7 170 213 33 20 215 51 58 
290 7 223 280 104 35 287 59 8 
291 7 53 193 164 30 250 219 158 
292 7 203 293 52 61 34 147 264 
293 7 34 147 292 75 203 264 101 
DEPOT_SECTION
   1
   -1
EOF
