NAME :  X-n359-kX-w71-c7.cctp
COMMENT : 	Adapted by Maziero, Usberti and Cavellucci from the Uchoa, Pecin, Pessoa, Poggi, Subramanian, and Vidal (2013)
TYPE :  CCTP
DIMENSION :    269
EDGE_WEIGHT_TYPE : 	EUC_2D	
CAPACITY : 	68
VERTICES_WITHIN_COVERAGE :  7
VERTICES_WITH_DEMAND : 	71
NODE_COORD_SECTION
1 0 0
2 865 693
3 633 220
4 173 361
5 89 714
6 350 102
7 301 24
8 834 663
9 841 997
10 394 790
11 276 488
12 779 312
13 939 66
14 595 462
15 940 964
16 459 459
17 432 280
18 379 338
19 128 439
20 401 22
21 69 887
22 499 657
23 633 46
24 713 182
25 806 525
26 540 169
27 696 559
28 577 888
29 298 725
30 410 644
31 512 889
32 756 352
33 405 407
34 850 365
35 731 588
36 90 553
37 691 383
38 926 631
39 955 351
40 998 736
41 921 854
42 532 257
43 238 513
44 976 912
45 565 912
46 893 74
47 590 548
48 99 355
49 294 39
50 58 429
51 471 573
52 520 109
53 486 611
54 409 682
55 296 843
56 970 479
57 717 390
58 152 711
59 934 255
60 257 539
61 270 31
62 823 409
63 203 849
64 770 627
65 630 581
66 786 186
67 380 300
68 973 847
69 985 975
70 732 465
71 690 428
72 910 568
73 725 539
74 814 694
75 702 927
76 946 492
77 984 305
78 385 696
79 48 323
80 944 440
81 813 293
82 490 676
83 729 923
84 675 637
85 476 709
86 402 339
87 911 734
88 590 230
89 122 698
90 154 418
91 165 998
92 217 599
93 766 21
94 922 407
95 831 607
96 70 494
97 220 740
98 19 855
99 759 507
100 818 409
101 595 827
102 254 282
103 205 607
104 331 57
105 118 404
106 576 658
107 558 611
108 893 182
109 279 715
110 20 953
111 496 813
112 349 474
113 335 732
114 878 245
115 827 211
116 104 976
117 656 920
118 648 585
119 350 517
120 62 979
121 508 277
122 334 759
123 649 927
124 411 837
125 974 509
126 19 430
127 810 528
128 737 202
129 972 859
130 547 622
131 413 683
132 600 166
133 419 734
134 639 70
135 276 341
136 534 486
137 972 672
138 542 709
139 816 858
140 217 733
141 466 112
142 575 165
143 902 861
144 418 631
145 771 702
146 795 46
147 915 845
148 40 301
149 896 668
150 979 70
151 708 244
152 729 682
153 548 962
154 520 207
155 107 992
156 107 305
157 401 230
158 112 589
159 529 286
160 216 3
161 778 364
162 28 601
163 214 579
164 113 474
165 627 244
166 231 754
167 177 670
168 65 564
169 901 548
170 87 556
171 808 521
172 469 118
173 295 874
174 56 693
175 216 871
176 535 245
177 308 837
178 961 296
179 826 569
180 174 696
181 43 500
182 205 604
183 331 845
184 432 273
185 855 178
186 873 388
187 424 751
188 542 285
189 488 909
190 762 518
191 789 357
192 345 822
193 747 371
194 713 446
195 369 251
196 698 450
197 3 588
198 506 201
199 757 309
200 704 231
201 464 803
202 421 108
203 365 678
204 906 598
205 629 171
206 825 513
207 698 501
208 388 234
209 439 423
210 459 289
211 604 395
212 572 247
213 558 240
214 944 585
215 910 401
216 792 316
217 810 560
218 382 413
219 192 713
220 685 290
221 10 689
222 922 524
223 853 524
224 213 1
225 134 686
226 339 114
227 589 389
228 230 921
229 925 326
230 711 580
231 783 347
232 937 179
233 827 338
234 609 272
235 252 100
236 418 326
237 310 884
238 736 184
239 813 324
240 512 606
241 585 237
242 563 124
243 776 365
244 366 809
245 227 41
246 809 407
247 708 477
248 603 175
249 810 671
250 912 508
251 298 510
252 520 274
253 745 382
254 840 409
255 802 428
256 620 904
257 105 482
258 488 418
259 727 551
260 103 669
261 802 408
262 467 119
263 210 439
264 121 700
265 714 401
266 436 316
267 243 453
268 630 277
269 379 644
DEMAND_SECTION
2 10
3 8
4 9
5 7
6 9
7 1
8 3
9 1
10 8
11 10
12 8
13 10
14 2
15 4
16 9
17 2
18 3
19 10
20 3
21 1
22 4
23 3
24 8
25 3
26 5
27 6
28 7
29 9
30 1
31 1
32 8
33 3
34 10
35 2
36 4
37 10
38 2
39 8
40 5
41 10
42 9
43 9
44 2
45 10
46 3
47 7
48 7
49 6
50 1
51 7
52 1
53 4
54 6
55 7
56 8
57 2
58 9
59 3
60 1
61 6
62 4
63 1
64 5
65 3
66 3
67 1
68 6
69 6
70 8
71 10
72 3
COVERAGE_SECTION
2 7 149 8 74 249 87 38 95 
3 7 165 88 205 241 248 234 268 
4 7 90 105 48 263 156 19 135 
5 6 264 89 174 260 225 58 
6 6 226 104 202 49 7 20 
7 7 49 61 104 245 160 235 224 
8 7 249 74 2 95 149 64 145 
9 7 15 83 139 69 143 75 44 
10 7 244 187 124 192 133 122 201 
11 7 251 43 267 60 112 119 263 
12 7 216 199 231 239 81 32 191 
13 7 150 46 232 108 185 146 93 
14 7 136 211 227 47 71 196 207 
15 7 69 44 9 129 143 41 68 
16 5 209 258 33 136 218 
17 4 184 210 266 236 
18 6 86 67 236 266 33 218 
19 7 90 105 164 257 50 96 263 
20 7 104 202 6 7 49 141 226 
21 7 98 110 120 116 155 63 91 
22 7 82 53 240 85 130 138 107 
23 5 134 242 132 205 52 
24 7 238 128 200 151 66 205 3 
25 5 171 127 206 217 190 
26 7 142 154 198 242 132 52 248 
27 7 230 259 73 35 118 207 65 
28 7 45 256 101 31 153 123 117 
29 7 109 113 122 166 97 140 203 
30 7 144 269 54 131 203 78 53 
31 5 189 45 28 111 153 
32 6 193 243 161 231 253 191 
33 5 218 209 86 18 16 
34 7 186 233 254 62 100 239 246 
35 7 230 259 27 73 64 84 190 
36 7 170 168 158 96 181 257 162 
37 7 57 265 71 253 193 194 196 
38 7 204 149 214 137 72 2 169 
39 7 229 77 178 94 215 80 186 
40 7 137 87 68 149 129 38 147 
41 7 147 143 129 68 44 139 15 
42 7 176 252 159 188 121 213 212 
43 7 60 11 251 267 163 263 92 
44 7 129 15 69 68 41 143 147 
45 7 28 153 256 31 189 123 101 
46 7 13 150 146 108 185 232 93 
47 7 65 118 107 136 14 130 240 
48 7 156 105 79 4 148 90 50 
49 7 7 61 104 245 235 6 160 
50 7 126 105 96 19 164 257 181 
51 7 53 240 144 22 130 30 107 
52 6 242 172 141 262 26 142 
53 7 240 51 22 130 82 144 107 
54 7 131 78 30 203 269 144 133 
55 6 177 173 183 237 192 244 
56 6 76 125 80 250 222 94 
57 5 265 37 253 193 71 
58 7 180 225 89 264 219 167 5 
59 7 178 114 77 229 232 108 39 
60 7 43 251 11 163 92 182 103 
61 7 49 7 245 160 224 104 235 
62 5 100 246 254 261 255 
63 7 175 228 55 173 166 177 97 
64 7 35 249 95 152 8 145 230 
65 7 118 47 27 84 107 230 130 
66 7 115 238 128 185 24 200 151 
67 7 18 86 236 195 17 266 184 
68 7 129 41 147 44 143 40 15 
69 7 15 44 129 68 41 143 9 
70 6 194 247 196 99 207 71 
71 7 196 194 265 37 57 247 70 
72 7 169 204 214 222 250 38 223 
73 7 259 27 190 230 99 207 35 
74 7 249 8 145 2 64 149 152 
75 6 83 117 123 256 28 139 
76 5 56 125 250 222 80 
77 7 178 39 229 59 94 215 114 
78 7 203 54 131 133 269 30 113 
79 7 148 48 156 50 105 126 4 
80 5 94 56 76 215 125 
81 7 216 239 12 233 199 231 191 
82 7 22 85 138 53 240 131 130 
83 6 75 117 123 139 256 9 
84 7 118 230 152 65 35 27 64 
85 7 82 22 133 138 187 131 54 
86 5 236 18 266 67 17 
87 7 2 149 40 137 38 8 74 
88 7 241 212 213 165 3 234 176 
89 6 264 225 58 260 5 180 
90 7 19 105 4 263 164 257 48 
91 7 155 116 228 120 175 21 110 
92 6 182 103 163 60 167 43 
93 7 146 23 134 46 66 238 24 
94 5 215 80 186 39 229 
95 7 179 217 8 64 249 204 127 
96 7 181 257 164 36 170 50 168 
97 7 140 166 219 109 180 58 29 
98 7 21 110 120 116 5 155 174 
99 7 190 73 25 70 171 259 127 
100 5 62 246 261 254 255 
101 3 28 256 45 
102 4 135 4 195 67 
103 6 182 92 163 167 60 180 
104 7 49 7 6 226 61 20 235 
105 7 19 90 48 50 4 164 257 
106 6 130 107 138 22 240 82 
107 7 130 240 106 47 53 22 65 
108 7 185 232 114 115 59 66 46 
109 7 29 113 166 97 140 122 219 
110 7 120 21 116 155 98 91 63 
111 3 201 31 124 
112 7 119 251 218 11 33 209 267 
113 7 122 29 109 78 203 10 244 
114 7 59 115 108 185 81 232 229 
115 7 185 66 114 108 81 128 238 
116 7 155 120 91 110 21 228 98 
117 6 123 256 75 83 28 45 
118 7 65 27 84 230 47 35 259 
119 7 112 251 11 60 218 43 16 
120 7 116 155 110 21 91 98 228 
121 4 252 159 42 188 
122 7 113 29 244 192 10 109 78 
123 6 117 256 75 83 28 45 
124 4 10 244 201 192 
125 6 56 76 222 250 80 214 
126 7 50 181 96 257 105 164 19 
127 5 25 171 206 217 223 
128 7 238 24 200 151 66 115 220 
129 7 68 41 44 147 143 15 69 
130 7 107 240 106 22 53 82 47 
131 7 54 78 30 203 133 144 269 
132 5 248 142 205 242 26 
133 7 187 78 131 54 10 85 203 
134 5 23 242 205 132 248 
135 7 102 18 4 67 267 263 86 
136 6 14 16 258 47 51 227 
137 7 38 40 149 87 214 204 2 
138 4 106 82 85 22 
139 6 143 147 41 83 75 9 
140 7 97 166 219 180 109 58 167 
141 4 172 262 202 52 
142 6 132 248 26 242 205 88 
143 7 41 147 129 68 139 44 15 
144 7 30 269 54 131 53 203 78 
145 7 74 152 249 8 64 2 95 
146 7 93 46 66 13 185 238 134 
147 7 41 143 68 129 44 139 87 
148 7 79 156 48 50 105 126 4 
149 7 2 38 8 87 204 137 74 
150 7 13 46 232 108 185 146 59 
151 7 200 128 220 24 238 3 165 
152 7 145 64 84 249 74 35 230 
153 6 45 28 189 31 256 123 
154 4 198 176 26 213 
155 7 116 120 91 110 21 228 98 
156 7 48 79 148 4 105 90 50 
157 4 208 195 184 17 
158 3 170 36 168 
159 4 188 252 121 42 
160 3 224 245 61 
161 6 243 191 231 32 193 253 
162 5 197 168 170 36 158 
163 6 92 182 103 60 43 167 
164 7 257 19 96 90 105 50 181 
165 7 3 234 268 88 241 212 213 
166 7 97 140 219 109 29 180 58 
167 5 180 219 225 58 89 
168 7 170 36 162 158 197 181 96 
169 7 72 222 250 204 223 214 76 
170 7 36 168 158 96 181 162 257 
171 4 25 127 206 217 
172 4 262 141 202 52 
173 5 237 55 177 183 192 
174 5 5 221 260 264 89 
175 7 63 228 173 55 237 177 166 
176 7 42 213 252 212 154 159 188 
177 6 55 183 173 192 237 244 
178 7 77 229 59 39 114 215 94 
179 7 217 95 127 25 171 223 206 
180 7 219 167 58 225 89 264 140 
181 7 96 257 168 36 170 50 126 
182 6 103 92 163 167 60 158 
183 6 177 192 55 237 173 244 
184 4 17 210 266 157 
185 7 108 115 66 114 232 59 46 
186 7 34 215 254 94 62 100 246 
187 7 133 10 201 78 85 131 54 
188 5 159 252 42 121 176 
189 5 31 45 153 28 111 
190 7 99 73 25 171 259 127 70 
191 6 231 161 243 32 216 239 
192 7 244 183 177 55 10 122 124 
193 5 253 32 243 161 57 
194 6 196 70 71 247 265 57 
195 7 208 157 67 184 17 18 236 
196 7 194 71 247 70 207 265 57 
197 5 162 168 170 36 181 
198 2 154 26 
199 7 12 216 32 231 81 191 239 
200 7 151 128 24 238 220 3 165 
201 5 111 124 187 10 133 
202 4 141 262 172 6 
203 7 78 269 54 131 30 113 144 
204 7 72 38 214 169 149 95 222 
205 5 248 132 3 142 88 
206 4 171 127 25 223 
207 7 247 73 70 196 194 27 259 
208 5 157 195 184 17 67 
209 4 33 16 258 218 
210 3 17 184 266 
211 3 227 14 37 
212 7 213 241 88 176 42 234 188 
213 7 212 176 241 42 88 188 154 
214 7 72 204 38 169 222 125 250 
215 6 94 186 80 39 34 254 
216 7 12 239 81 231 199 191 233 
217 7 179 127 25 171 206 95 223 
218 6 33 209 112 18 86 16 
219 7 180 140 97 58 167 166 225 
220 7 151 268 200 165 199 234 3 
221 5 174 5 162 260 197 
222 6 250 169 76 72 125 214 
223 4 206 127 171 25 
224 3 160 245 61 
225 6 89 264 58 260 180 167 
226 5 6 104 202 49 235 
227 2 211 14 
228 6 175 63 173 237 91 55 
229 7 39 178 77 59 215 94 186 
230 7 35 27 259 73 118 84 64 
231 6 191 161 243 32 216 12 
232 7 108 59 185 114 13 46 115 
233 7 239 34 216 191 231 81 12 
234 7 268 165 241 212 88 3 213 
235 3 245 61 49 
236 5 86 266 18 67 17 
237 4 173 55 183 177 
238 7 128 24 66 200 151 115 205 
239 7 233 216 81 12 231 191 161 
240 7 53 130 107 22 51 82 106 
241 7 88 212 213 234 165 3 176 
242 5 142 52 26 132 248 
243 6 161 191 231 32 193 253 
244 6 192 10 183 124 122 177 
245 4 160 224 61 235 
246 5 261 100 62 255 254 
247 7 207 70 196 194 71 99 73 
248 5 132 205 142 3 88 
249 7 74 8 145 2 64 95 152 
250 5 222 76 169 72 223 
251 7 11 60 119 43 112 267 163 
252 5 121 159 42 188 176 
253 5 193 57 32 243 265 
254 7 62 100 246 261 186 255 34 
255 5 261 246 100 62 254 
256 7 123 117 28 45 101 75 153 
257 7 164 96 19 181 50 36 170 
258 2 209 16 
259 7 73 27 230 35 190 99 207 
260 4 89 225 264 5 
261 5 246 100 255 62 254 
262 4 172 141 202 52 
263 7 267 90 43 11 19 4 105 
264 6 89 225 58 5 260 180 
265 6 57 37 71 253 193 194 
266 3 236 210 17 
267 7 263 11 43 251 60 90 112 
268 7 234 165 3 220 241 88 212 
269 7 30 203 144 54 78 131 113 
DEPOT_SECTION
   1
   -1
EOF
