NAME :  X-n351-kX-w35-c7.cctp
COMMENT : 	Adapted by Maziero, Usberti and Cavellucci from the Uchoa, Pecin, Pessoa, Poggi, Subramanian, and Vidal (2013)
TYPE :  CCTP
DIMENSION :    218
EDGE_WEIGHT_TYPE : 	EUC_2D	
CAPACITY : 	436
VERTICES_WITHIN_COVERAGE :  7
VERTICES_WITH_DEMAND : 	35
NODE_COORD_SECTION
1 500 500
2 740 442
3 261 710
4 578 522
5 562 509
6 795 425
7 636 463
8 645 617
9 595 524
10 649 599
11 745 252
12 180 757
13 590 598
14 332 775
15 544 551
16 1000 444
17 581 521
18 240 609
19 700 468
20 735 579
21 403 569
22 352 905
23 733 352
24 289 705
25 598 249
26 565 570
27 711 336
28 816 497
29 769 411
30 409 651
31 231 742
32 575 555
33 567 477
34 693 537
35 521 534
36 457 414
37 638 617
38 245 744
39 311 717
40 753 427
41 547 493
42 732 382
43 664 511
44 945 316
45 598 493
46 568 558
47 395 796
48 685 327
49 260 910
50 747 398
51 686 543
52 184 776
53 177 770
54 802 446
55 605 544
56 287 671
57 615 511
58 293 693
59 375 671
60 383 614
61 834 417
62 255 696
63 799 172
64 740 456
65 661 582
66 659 461
67 630 290
68 267 721
69 682 474
70 540 550
71 370 733
72 546 587
73 724 572
74 416 688
75 714 478
76 313 770
77 464 361
78 356 921
79 733 447
80 348 505
81 595 628
82 227 720
83 582 503
84 716 440
85 826 476
86 676 446
87 388 669
88 465 690
89 675 544
90 770 613
91 434 594
92 468 405
93 0 863
94 663 582
95 209 755
96 966 516
97 580 593
98 221 558
99 230 594
100 329 768
101 786 523
102 704 474
103 565 501
104 404 589
105 253 708
106 269 730
107 823 519
108 739 421
109 706 519
110 726 423
111 614 525
112 793 426
113 221 731
114 290 732
115 709 310
116 745 370
117 459 639
118 618 570
119 613 528
120 722 421
121 535 578
122 242 624
123 371 387
124 764 425
125 242 763
126 670 520
127 580 482
128 292 823
129 547 443
130 555 484
131 747 340
132 760 446
133 734 451
134 604 277
135 790 405
136 680 445
137 741 460
138 244 758
139 600 503
140 562 518
141 852 489
142 577 553
143 235 755
144 187 725
145 724 328
146 195 572
147 205 739
148 733 341
149 434 452
150 716 458
151 495 573
152 579 545
153 228 725
154 555 449
155 551 554
156 177 983
157 794 430
158 771 573
159 789 477
160 677 456
161 505 327
162 321 753
163 509 497
164 749 451
165 796 429
166 797 485
167 750 412
168 752 393
169 170 716
170 605 549
171 201 625
172 300 676
173 548 478
174 637 450
175 706 463
176 611 574
177 176 761
178 404 508
179 257 707
180 780 394
181 547 462
182 379 817
183 539 556
184 498 909
185 275 706
186 726 426
187 780 439
188 832 405
189 623 445
190 755 418
191 320 745
192 289 737
193 636 260
194 679 590
195 256 618
196 229 729
197 553 266
198 519 526
199 692 552
200 709 509
201 794 421
202 189 728
203 687 334
204 298 705
205 582 478
206 737 579
207 458 895
208 394 639
209 352 782
210 621 303
211 748 593
212 400 547
213 268 721
214 578 616
215 446 574
216 502 571
217 574 593
218 459 466
DEMAND_SECTION
2 43
3 82
4 57
5 51
6 29
7 55
8 71
9 35
10 28
11 36
12 18
13 42
14 79
15 88
16 68
17 99
18 10
19 11
20 77
21 68
22 44
23 17
24 60
25 33
26 30
27 37
28 87
29 18
30 6
31 42
32 1
33 22
34 78
35 94
36 65
COVERAGE_SECTION
2 7 79 133 164 64 137 40 132 
3 7 179 105 68 213 62 185 106 
4 7 17 140 9 83 5 152 103 
5 7 103 140 4 83 17 41 130 
6 7 112 165 201 157 135 187 54 
7 3 174 189 66 
8 6 37 10 65 94 194 81 
9 7 17 4 119 111 55 139 57 
10 6 8 37 65 94 194 118 
11 7 115 145 131 148 27 48 63 
12 7 177 53 52 95 202 147 144 
13 7 97 217 214 81 176 26 118 
14 7 100 76 209 162 191 71 192 
15 7 70 183 155 46 26 121 35 
16 2 96 44 
17 7 4 9 83 140 5 152 103 
18 3 122 99 195 
19 6 102 175 75 69 150 160 
20 6 206 73 211 158 90 199 
21 7 104 212 91 215 60 178 208 
22 6 78 49 182 128 207 47 
23 6 148 131 116 145 27 42 
24 7 204 58 185 39 213 68 114 
25 5 134 193 197 67 210 
26 7 46 32 142 155 72 217 97 
27 7 145 148 203 115 23 48 131 
28 5 166 85 107 159 141 
29 7 124 190 167 180 135 40 168 
30 7 208 87 74 59 60 117 91 
31 7 196 38 143 113 153 138 82 
32 7 142 46 152 26 155 15 170 
33 7 127 130 205 173 103 181 41 
34 6 51 199 89 109 126 200 
35 7 198 70 183 15 155 163 216 
36 4 92 149 218 77 
37 7 8 10 65 94 81 194 118 
38 6 31 138 143 125 196 153 
39 7 204 24 114 191 58 192 162 
40 7 190 124 108 167 2 132 29 
41 6 130 173 103 5 33 140 
42 5 116 50 168 23 167 
43 3 126 89 34 
44 1 16 
45 6 139 83 127 205 57 9 
46 7 32 142 26 152 155 15 70 
47 5 182 209 14 71 100 
48 5 203 27 115 145 148 
49 4 22 128 78 156 
50 7 168 167 42 190 108 29 116 
51 5 34 89 199 126 109 
52 7 53 177 12 95 147 202 144 
53 7 52 177 12 95 147 202 144 
54 5 157 165 6 112 187 
55 6 170 119 111 9 152 118 
56 3 172 58 24 
57 5 111 119 139 9 45 
58 6 24 204 172 185 56 39 
59 4 87 208 30 74 
60 6 208 104 30 21 87 91 
61 3 188 6 165 
62 4 179 105 3 185 
63 5 11 115 145 131 148 
64 5 137 133 164 79 2 
65 4 94 194 10 8 
66 6 160 7 86 174 69 136 
67 5 210 134 193 25 48 
68 7 213 106 3 179 185 105 114 
69 7 19 160 102 66 175 86 136 
70 7 15 183 155 35 121 46 26 
71 6 191 209 162 100 14 39 
72 7 121 26 217 183 155 97 15 
73 7 20 206 211 199 34 158 51 
74 6 87 30 59 88 208 71 
75 3 102 19 175 
76 7 100 162 14 191 192 209 114 
77 5 92 36 161 149 123 
78 6 22 49 207 182 128 47 
79 7 133 2 64 137 164 84 150 
80 3 178 212 21 
81 4 214 13 97 217 
82 4 153 196 113 31 
83 7 103 17 139 4 45 5 127 
84 7 186 79 150 110 120 133 2 
85 3 28 141 166 
86 5 136 160 66 69 19 
87 5 59 30 208 74 60 
88 3 74 117 30 
89 4 51 34 199 126 
90 4 211 158 206 20 
91 7 215 104 21 117 60 212 208 
92 4 36 77 149 218 
93 5 53 177 52 12 156 
94 4 65 194 10 8 
95 7 147 31 143 113 12 52 196 
96 2 16 141 
97 7 217 13 214 26 72 176 46 
98 6 146 99 18 122 195 171 
99 6 18 122 195 98 146 171 
100 7 14 76 162 191 209 192 114 
101 4 107 28 166 159 
102 5 19 75 175 150 69 
103 7 5 83 140 41 130 33 127 
104 7 21 91 60 212 215 208 30 
105 6 179 3 62 68 213 185 
106 6 68 213 114 192 3 185 
107 6 28 101 141 85 166 159 
108 7 110 167 186 40 190 120 2 
109 5 200 34 51 126 199 
110 6 186 120 108 84 2 79 
111 5 119 57 9 55 139 
112 7 6 157 165 201 187 135 54 
113 7 196 153 82 31 147 38 95 
114 6 192 106 68 213 39 24 
115 7 145 27 48 203 148 23 131 
116 6 42 23 168 50 131 148 
117 6 30 88 91 74 208 215 
118 5 176 170 55 13 10 
119 5 111 57 9 55 170 
120 6 110 186 108 84 2 79 
121 6 72 183 15 70 155 26 
122 2 18 195 
123 6 36 149 77 92 218 80 
124 7 40 190 29 167 132 187 108 
125 4 138 143 38 31 
126 4 43 89 51 34 
127 7 205 33 45 83 103 130 139 
128 3 76 14 100 
129 4 154 181 173 33 
130 7 173 41 33 103 181 127 5 
131 7 148 23 145 116 27 42 115 
132 6 164 2 40 124 187 64 
133 7 79 64 2 137 164 150 84 
134 5 25 67 210 193 197 
135 7 180 201 6 112 29 157 165 
136 5 86 160 66 69 19 
137 5 64 133 164 79 2 
138 4 125 143 38 31 
139 6 45 57 83 9 17 111 
140 7 5 4 103 17 83 41 152 
141 3 85 28 107 
142 7 32 152 46 26 155 170 55 
143 6 138 125 31 38 95 196 
144 7 202 169 147 12 113 95 177 
145 7 27 148 115 23 131 203 48 
146 6 98 99 171 18 122 195 
147 7 95 113 202 144 31 196 153 
148 7 23 131 145 27 116 115 42 
149 4 218 36 92 178 
150 5 175 84 19 133 75 
151 6 216 121 35 183 215 70 
152 7 142 32 46 4 17 9 55 
153 5 196 82 113 31 38 
154 5 129 181 33 173 130 
155 7 15 70 183 46 26 32 142 
156 4 49 78 22 128 
157 7 165 112 6 201 187 54 135 
158 3 211 206 20 
159 2 166 28 
160 6 86 136 66 69 19 175 
161 4 77 197 92 36 
162 7 191 100 76 14 192 39 114 
163 4 198 41 35 173 
164 7 64 132 137 2 133 79 40 
165 7 157 6 112 201 54 187 135 
166 3 159 28 85 
167 7 190 50 108 40 29 124 168 
168 7 50 167 42 116 29 190 180 
169 5 144 202 12 147 177 
170 7 55 119 118 111 152 176 9 
171 4 122 18 99 146 
172 4 56 58 204 24 
173 6 130 41 181 33 103 154 
174 3 7 189 66 
175 5 19 102 150 75 84 
176 7 118 170 55 13 97 142 32 
177 7 12 53 52 95 202 147 144 
178 7 212 80 21 149 218 215 104 
179 6 105 3 62 68 185 213 
180 7 135 29 168 201 50 6 112 
181 6 154 173 129 130 33 41 
182 6 47 209 14 100 76 71 
183 7 70 15 155 121 35 46 26 
184 5 207 78 22 182 47 
185 7 24 3 68 213 179 58 62 
186 6 110 120 108 84 2 79 
187 6 157 112 165 6 124 132 
188 4 61 201 6 135 
189 2 174 7 
190 7 167 40 124 29 108 50 168 
191 7 162 100 76 39 14 192 114 
192 6 114 106 213 68 39 24 
193 6 67 134 25 210 48 197 
194 5 94 65 10 199 8 
195 2 122 18 
196 7 153 113 82 31 38 147 143 
197 6 25 134 210 161 67 193 
198 7 35 163 70 15 183 41 155 
199 5 51 34 89 109 73 
200 4 109 75 34 102 
201 7 6 112 165 157 135 187 54 
202 7 144 147 169 12 113 95 177 
203 5 48 27 115 145 148 
204 7 24 58 39 185 114 172 192 
205 7 127 33 45 83 130 103 139 
206 5 20 73 211 158 90 
207 5 184 78 22 182 47 
208 6 30 60 87 59 104 74 
209 7 14 100 76 162 182 47 191 
210 5 67 134 193 25 48 
211 5 206 20 90 158 73 
212 7 21 178 104 215 91 80 60 
213 7 68 106 3 185 179 105 114 
214 4 81 13 97 217 
215 6 91 21 104 151 212 216 
216 6 151 121 183 35 70 15 
217 7 97 13 214 26 72 46 32 
218 4 149 36 163 92 
DEPOT_SECTION
   1
   -1
EOF
