NAME :  X-n308-kX-w61-c7.cctp
COMMENT : 	Adapted by Maziero, Usberti and Cavellucci from the Uchoa, Pecin, Pessoa, Poggi, Subramanian, and Vidal (2013)
TYPE :  CCTP
DIMENSION :    213
EDGE_WEIGHT_TYPE : 	EUC_2D	
CAPACITY : 	246
VERTICES_WITHIN_COVERAGE :  7
VERTICES_WITH_DEMAND : 	61
NODE_COORD_SECTION
1 0 0
2 706 137
3 392 662
4 692 274
5 944 370
6 726 945
7 869 43
8 621 770
9 112 402
10 523 374
11 619 178
12 553 457
13 95 814
14 696 130
15 27 417
16 940 487
17 943 965
18 670 435
19 931 752
20 307 776
21 404 101
22 199 526
23 117 312
24 762 505
25 433 864
26 868 155
27 832 870
28 488 624
29 686 782
30 585 89
31 268 339
32 248 344
33 22 776
34 89 614
35 75 271
36 882 646
37 6 656
38 449 27
39 857 362
40 809 774
41 403 626
42 559 145
43 667 945
44 524 737
45 683 777
46 641 798
47 514 495
48 102 813
49 517 591
50 748 330
51 859 127
52 699 41
53 281 442
54 257 106
55 116 99
56 41 732
57 555 95
58 378 1
59 155 308
60 942 955
61 619 205
62 646 910
63 796 791
64 785 49
65 958 817
66 37 119
67 761 866
68 929 432
69 743 535
70 418 679
71 107 379
72 22 432
73 24 474
74 380 83
75 145 135
76 576 209
77 877 859
78 901 0
79 464 473
80 181 35
81 976 331
82 193 341
83 525 782
84 527 935
85 218 529
86 626 974
87 594 432
88 757 450
89 805 123
90 959 266
91 348 776
92 841 361
93 333 503
94 675 306
95 856 199
96 300 792
97 371 156
98 172 589
99 609 928
100 273 18
101 379 694
102 996 38
103 4 6
104 738 18
105 693 307
106 989 54
107 468 585
108 594 172
109 563 205
110 271 783
111 58 987
112 374 383
113 775 530
114 913 512
115 813 948
116 943 941
117 437 169
118 247 374
119 347 51
120 8 111
121 854 335
122 619 272
123 742 232
124 496 187
125 605 66
126 973 75
127 241 509
128 845 106
129 955 319
130 432 662
131 704 73
132 817 754
133 570 429
134 362 720
135 114 713
136 11 516
137 737 62
138 386 880
139 493 321
140 655 303
141 633 506
142 522 325
143 541 547
144 89 325
145 76 414
146 233 59
147 118 33
148 340 718
149 682 361
150 82 210
151 293 801
152 249 336
153 232 799
154 102 526
155 87 148
156 537 434
157 330 105
158 621 753
159 401 923
160 159 253
161 552 382
162 271 72
163 804 650
164 243 144
165 623 781
166 107 370
167 62 608
168 55 270
169 841 468
170 221 773
171 79 461
172 186 665
173 165 871
174 349 329
175 227 136
176 559 430
177 387 3
178 149 266
179 100 768
180 567 435
181 110 270
182 304 770
183 739 876
184 71 260
185 215 125
186 481 97
187 289 287
188 413 724
189 107 111
190 300 735
191 734 562
192 259 344
193 783 708
194 159 450
195 373 44
196 483 678
197 704 755
198 30 414
199 683 188
200 163 27
201 3 371
202 138 120
203 577 482
204 524 915
205 856 763
206 216 95
207 256 24
208 614 173
209 554 665
210 629 776
211 339 342
212 67 412
213 154 267
DEMAND_SECTION
2 80
3 94
4 87
5 77
6 77
7 50
8 79
9 86
10 75
11 84
12 88
13 94
14 74
15 95
16 89
17 83
18 55
19 77
20 1
21 7
22 3
23 7
24 5
25 2
26 2
27 2
28 5
29 2
30 7
31 1
32 5
33 5
34 8
35 4
36 2
37 8
38 9
39 1
40 10
41 3
42 10
43 3
44 2
45 3
46 2
47 1
48 5
49 4
50 3
51 4
52 3
53 5
54 3
55 5
56 6
57 9
58 6
59 4
60 2
61 7
62 10
COVERAGE_SECTION
2 7 14 199 131 137 11 52 208 
3 7 70 101 41 130 134 188 148 
4 7 105 94 140 123 122 50 199 
5 7 81 129 68 39 121 92 90 
6 7 43 183 67 62 115 86 99 
7 7 78 128 64 51 89 126 26 
8 7 210 165 158 46 45 29 197 
9 6 71 166 145 212 194 171 
10 5 161 142 139 156 176 
11 7 208 108 61 76 109 199 42 
12 7 180 156 176 133 203 87 47 
13 6 48 179 33 173 56 135 
14 7 2 131 199 137 52 11 208 
15 6 198 72 212 145 201 73 
16 7 114 68 169 5 39 81 92 
17 7 60 116 77 115 27 65 67 
18 3 149 87 141 
19 7 65 205 132 36 77 40 63 
20 6 182 96 151 110 91 190 
21 7 74 97 195 157 117 119 186 
22 7 85 127 98 194 154 53 93 
23 6 144 59 181 178 213 35 
24 6 113 69 88 191 169 18 
25 2 138 159 
26 7 51 95 128 89 7 126 64 
27 7 77 67 115 63 183 40 205 
28 7 49 107 196 130 209 41 70 
29 7 45 197 46 210 165 8 158 
30 7 125 57 42 108 208 11 186 
31 7 192 152 32 118 187 211 82 
32 7 152 192 31 118 82 187 211 
33 7 56 179 13 48 135 37 173 
34 7 167 98 154 37 135 172 136 
35 4 184 168 181 144 
36 5 163 19 193 205 132 
37 7 167 56 34 33 135 136 179 
38 7 177 58 186 195 21 74 119 
39 7 92 121 5 68 129 169 50 
40 7 63 132 205 193 27 67 197 
41 7 3 130 70 101 107 28 196 
42 7 108 57 109 30 208 76 11 
43 7 62 86 6 99 183 67 84 
44 6 83 196 209 158 8 165 
45 7 29 197 46 210 165 8 158 
46 7 165 210 8 45 29 158 197 
47 7 12 79 143 203 156 176 180 
48 6 13 179 173 33 56 135 
49 7 28 107 143 209 196 47 130 
50 6 105 149 94 4 140 92 
51 7 128 26 89 95 7 64 126 
52 7 131 137 104 64 14 2 125 
53 7 118 127 93 192 32 31 85 
54 5 162 164 175 206 185 
55 7 189 202 75 155 147 66 200 
56 7 33 179 135 37 13 48 167 
57 7 30 42 125 186 108 208 11 
58 7 177 195 119 38 74 21 100 
59 7 23 213 178 82 160 181 144 
60 7 17 116 77 115 27 65 67 
61 7 11 208 108 76 109 199 122 
62 7 43 99 86 6 183 46 84 
63 7 40 132 205 67 193 27 197 
64 7 137 104 89 128 7 131 52 
65 7 19 77 205 116 27 60 17 
66 6 120 155 189 55 202 150 
67 7 183 27 63 6 115 40 29 
68 7 16 5 114 169 39 81 92 
69 4 191 113 24 88 
70 7 130 3 101 188 41 196 134 
71 6 166 9 145 212 144 23 
72 7 15 198 73 212 145 171 201 
73 7 72 136 15 171 198 212 145 
74 7 21 195 119 157 97 177 58 
75 5 202 189 55 155 185 
76 5 109 108 61 208 11 
77 7 27 65 205 116 63 40 115 
78 7 7 102 106 126 128 64 51 
79 6 47 156 12 176 143 180 
80 6 200 146 147 206 207 55 
81 7 129 5 90 68 121 39 92 
82 7 59 32 152 118 192 31 23 
83 6 44 8 165 158 210 196 
84 5 204 99 86 25 62 
85 7 22 127 98 194 53 154 93 
86 7 99 43 62 6 84 204 183 
87 5 133 180 176 12 203 
88 7 24 113 69 169 18 191 149 
89 7 128 51 26 64 137 95 2 
90 7 129 81 5 95 121 39 26 
91 2 20 182 
92 7 39 121 50 5 169 68 129 
93 6 53 127 85 112 79 22 
94 4 105 140 4 149 
95 7 26 51 89 128 123 90 121 
96 5 151 20 182 110 91 
97 4 21 157 117 74 
98 7 22 85 172 34 154 127 167 
99 7 62 86 43 84 204 6 46 
100 6 207 162 146 119 54 80 
101 6 134 3 70 188 148 130 
102 7 106 126 78 7 51 128 26 
103 7 120 147 66 55 189 200 155 
104 7 137 52 64 131 14 2 89 
105 5 94 4 140 149 50 
106 7 102 126 78 7 51 128 26 
107 7 28 49 41 143 130 196 47 
108 7 208 11 61 76 42 109 30 
109 5 76 108 61 42 208 
110 7 151 96 182 20 153 170 190 
111 4 173 13 48 33 
112 4 211 174 53 31 
113 5 24 69 191 88 169 
114 7 16 68 169 36 113 5 24 
115 7 27 6 67 183 77 60 116 
116 7 60 17 77 65 115 27 19 
117 3 124 97 21 
118 7 32 192 152 31 82 53 187 
119 7 195 74 157 58 177 21 162 
120 5 66 155 189 103 55 
121 7 39 92 5 129 50 81 68 
122 4 140 94 61 4 
123 7 4 199 105 50 94 2 14 
124 3 117 109 42 
125 7 30 57 42 52 131 108 208 
126 7 106 102 78 7 51 26 128 
127 7 85 22 53 93 194 98 118 
128 7 51 89 26 7 64 95 137 
129 7 81 5 90 121 39 68 92 
130 7 70 3 41 196 101 188 28 
131 7 52 137 14 2 104 64 125 
132 6 40 205 63 193 163 197 
133 6 180 176 87 12 156 161 
134 6 148 101 188 91 190 3 
135 7 179 56 172 48 34 13 33 
136 7 73 72 171 154 15 198 167 
137 7 131 52 104 64 14 2 89 
138 2 159 25 
139 2 142 10 
140 4 94 105 4 122 
141 7 203 18 87 12 180 133 143 
142 2 139 10 
143 7 49 47 203 107 12 28 141 
144 2 23 166 
145 7 212 9 198 71 171 15 166 
146 6 162 206 207 54 80 100 
147 6 200 80 55 189 202 75 
148 6 134 190 101 91 182 20 
149 4 94 105 140 50 
150 5 184 35 155 168 181 
151 4 96 110 20 182 
152 7 32 192 31 118 82 187 211 
153 5 170 110 151 96 20 
154 7 171 34 167 136 73 98 194 
155 6 189 55 66 202 75 150 
156 7 176 12 180 133 161 87 10 
157 7 74 119 97 162 54 21 195 
158 7 8 210 165 46 45 29 197 
159 2 138 25 
160 5 213 178 181 59 23 
161 5 10 176 133 156 180 
162 7 54 146 207 100 206 157 164 
163 2 193 36 
164 3 175 185 54 
165 7 210 8 46 158 45 29 197 
166 6 71 9 144 145 212 23 
167 7 34 37 154 136 98 135 56 
168 2 184 35 
169 7 114 88 24 113 68 16 39 
170 6 153 110 151 96 182 20 
171 7 145 212 73 72 9 15 198 
172 7 98 135 34 170 179 190 167 
173 4 48 13 153 170 
174 4 211 112 187 31 
175 3 185 164 54 
176 7 180 133 156 12 87 161 203 
177 7 58 195 119 38 74 21 100 
178 5 213 160 181 59 23 
179 6 48 13 135 56 33 170 
180 7 133 176 12 87 156 203 161 
181 7 35 178 184 23 213 160 168 
182 6 20 96 151 110 190 91 
183 7 67 6 27 62 43 63 115 
184 4 35 168 181 150 
185 4 175 206 164 54 
186 7 57 21 38 117 124 42 74 
187 4 31 152 192 32 
188 5 70 101 134 3 130 
189 6 55 202 155 75 66 147 
190 7 182 20 148 110 96 91 134 
191 3 69 113 24 
192 7 31 32 152 118 187 82 211 
193 3 132 163 40 
194 7 9 171 22 71 145 154 166 
195 7 119 74 58 177 21 157 38 
196 7 130 28 70 44 209 188 3 
197 7 45 29 46 210 158 8 165 
198 6 15 72 212 145 201 73 
199 7 2 14 11 61 208 123 4 
200 6 80 147 146 55 206 207 
201 2 198 15 
202 5 75 55 189 155 185 
203 7 12 180 87 133 176 141 156 
204 5 84 99 25 86 62 
205 7 132 40 63 19 193 77 27 
206 5 185 146 54 175 164 
207 6 100 146 162 80 206 54 
208 7 11 108 61 76 109 42 199 
209 7 196 28 44 49 158 107 143 
210 7 165 8 158 46 45 29 197 
211 5 174 112 31 187 192 
212 7 145 198 15 9 72 171 71 
213 5 178 160 59 181 23 
DEPOT_SECTION
   1
   -1
EOF
