NAME :  X-n322-kX-w32-c7.cctp
COMMENT : 	Adapted by Maziero, Usberti and Cavellucci from the Uchoa, Pecin, Pessoa, Poggi, Subramanian, and Vidal (2013)
TYPE :  CCTP
DIMENSION :    204
EDGE_WEIGHT_TYPE : 	EUC_2D	
CAPACITY : 	868
VERTICES_WITHIN_COVERAGE :  7
VERTICES_WITH_DEMAND : 	32
NODE_COORD_SECTION
1 500 500
2 737 450
3 235 789
4 340 234
5 346 320
6 406 309
7 556 636
8 872 923
9 937 83
10 9 321
11 558 18
12 63 833
13 250 509
14 143 192
15 624 286
16 364 117
17 332 953
18 235 142
19 590 430
20 303 692
21 936 665
22 39 410
23 247 581
24 986 739
25 11 283
26 138 747
27 837 511
28 596 206
29 218 339
30 443 922
31 555 133
32 896 306
33 415 752
34 166 333
35 951 932
36 928 807
37 505 590
38 236 284
39 115 882
40 94 697
41 409 899
42 993 715
43 473 607
44 414 55
45 884 327
46 651 407
47 891 372
48 919 529
49 629 220
50 720 382
51 745 451
52 409 990
53 966 938
54 378 175
55 859 269
56 596 131
57 77 908
58 679 268
59 382 728
60 885 15
61 258 313
62 533 912
63 924 636
64 281 800
65 607 285
66 388 354
67 22 348
68 218 236
69 308 904
70 119 154
71 939 105
72 480 1000
73 295 741
74 213 53
75 701 446
76 983 343
77 262 450
78 896 910
79 298 531
80 573 416
81 870 50
82 656 268
83 587 165
84 995 809
85 27 812
86 196 522
87 45 164
88 174 729
89 252 311
90 594 478
91 848 361
92 897 253
93 255 410
94 811 703
95 781 909
96 971 632
97 475 860
98 897 98
99 971 727
100 375 214
101 280 526
102 196 779
103 379 223
104 692 470
105 22 395
106 289 811
107 98 365
108 261 101
109 820 480
110 433 961
111 656 421
112 334 794
113 426 686
114 870 112
115 941 978
116 744 498
117 7 346
118 166 244
119 604 430
120 101 383
121 784 983
122 833 529
123 646 367
124 922 294
125 373 331
126 471 694
127 39 149
128 813 538
129 153 115
130 244 505
131 409 228
132 652 239
133 30 924
134 877 307
135 336 615
136 856 584
137 19 309
138 614 194
139 106 841
140 5 289
141 288 276
142 562 646
143 75 785
144 309 966
145 121 698
146 286 258
147 824 834
148 650 350
149 977 647
150 268 698
151 973 145
152 569 655
153 427 869
154 11 869
155 377 793
156 294 395
157 126 782
158 490 30
159 348 771
160 808 469
161 161 793
162 859 469
163 148 763
164 403 723
165 978 760
166 214 132
167 467 387
168 292 262
169 238 846
170 855 506
171 213 742
172 203 364
173 183 3
174 501 152
175 904 31
176 997 741
177 26 402
178 543 506
179 902 548
180 47 419
181 125 226
182 206 608
183 811 668
184 643 265
185 189 736
186 79 287
187 225 604
188 924 756
189 474 356
190 445 101
191 464 243
192 420 998
193 798 490
194 118 804
195 489 91
196 367 977
197 501 137
198 777 984
199 730 509
200 326 596
201 612 163
202 987 154
203 207 6
204 39 831
DEMAND_SECTION
2 61
3 71
4 83
5 85
6 85
7 99
8 63
9 64
10 50
11 56
12 91
13 87
14 75
15 70
16 57
17 86
18 50
19 89
20 75
21 72
22 83
23 74
24 76
25 53
26 93
27 97
28 69
29 61
30 76
31 93
32 55
33 92
COVERAGE_SECTION
2 7 51 75 104 116 199 50 160 
3 7 102 64 171 169 106 185 161 
4 7 100 103 168 146 141 131 54 
5 7 125 66 6 141 168 4 146 
6 7 125 66 5 131 189 191 103 
7 4 142 152 37 43 
8 7 78 35 115 95 53 147 121 
9 6 71 98 175 151 114 81 
10 7 137 117 67 140 25 105 186 
11 5 158 195 31 56 197 
12 7 204 85 139 143 194 154 39 
13 6 130 101 79 86 77 23 
14 7 181 70 118 129 68 166 87 
15 7 65 184 82 132 58 49 148 
16 7 54 44 190 100 108 103 4 
17 6 144 196 69 52 41 192 
18 7 166 108 129 74 68 14 70 
19 6 119 80 90 46 111 123 
20 6 150 73 135 59 159 200 
21 7 63 149 96 99 42 24 188 
22 6 180 177 105 67 120 117 
23 7 187 182 101 79 13 130 86 
24 7 176 99 165 42 188 84 21 
25 7 140 137 10 117 67 186 105 
26 7 163 157 88 161 145 185 194 
27 7 122 170 109 128 193 162 160 
28 7 138 49 83 201 132 56 184 
29 6 172 89 61 34 38 93 
30 6 110 41 153 97 52 192 
31 7 56 83 197 174 201 195 28 
32 7 134 45 124 55 92 47 91 
33 6 164 59 155 113 159 126 
34 6 172 29 107 120 38 89 
35 7 53 115 78 8 36 84 147 
36 6 188 84 165 24 99 176 
37 4 43 7 142 152 
38 7 89 61 68 141 146 29 168 
39 3 139 57 12 
40 2 145 26 
41 4 153 30 110 97 
42 7 24 99 176 165 149 21 188 
43 3 37 126 7 
44 7 190 16 158 195 197 54 174 
45 7 134 32 47 91 124 55 92 
46 7 111 123 119 148 75 19 50 
47 4 91 45 32 134 
48 6 179 170 27 136 162 122 
49 6 132 138 28 184 82 201 
50 5 75 2 46 51 111 
51 7 2 75 116 104 199 160 193 
52 7 192 110 196 72 30 17 41 
53 7 35 115 78 8 84 36 147 
54 6 100 103 16 131 4 190 
55 5 92 134 32 45 124 
56 5 83 201 31 138 28 
57 5 39 133 139 12 154 
58 4 82 184 132 15 
59 7 164 33 159 113 155 112 20 
60 4 175 81 98 9 
61 7 89 38 29 141 168 146 172 
62 2 97 30 
63 6 21 96 149 136 179 99 
64 6 106 3 112 73 169 159 
65 7 15 184 82 132 49 58 148 
66 6 125 6 5 167 189 156 
67 7 117 10 137 105 177 140 22 
68 7 38 118 146 168 141 89 14 
69 4 17 144 169 196 
70 7 14 129 181 87 127 166 118 
71 5 9 98 151 114 202 
72 6 192 110 52 30 62 196 
73 7 20 150 64 159 112 106 3 
74 7 203 173 108 166 129 18 70 
75 6 104 2 51 111 46 50 
76 2 124 32 
77 5 93 130 13 156 101 
78 7 8 35 53 115 147 36 95 
79 6 101 13 130 23 200 77 
80 6 19 119 90 46 111 123 
81 5 60 175 98 114 9 
82 6 184 58 132 15 65 49 
83 6 201 56 138 28 31 49 
84 7 165 36 176 24 99 188 42 
85 7 204 12 143 154 139 194 157 
86 2 130 13 
87 7 127 70 181 14 129 25 186 
88 5 185 26 171 163 102 
89 7 61 38 29 141 146 168 172 
90 4 19 119 178 80 
91 6 47 45 134 32 55 124 
92 5 55 124 32 134 45 
93 4 77 156 172 29 
94 4 183 188 136 21 
95 4 121 198 147 8 
96 6 149 63 21 42 99 24 
97 2 153 30 
98 5 114 9 71 81 175 
99 7 24 42 176 165 188 21 149 
100 6 103 131 54 4 191 168 
101 7 79 13 130 23 77 86 200 
102 7 161 3 171 185 163 88 26 
103 6 100 131 4 54 191 6 
104 4 75 2 199 51 
105 7 177 22 180 67 117 10 120 
106 5 64 112 3 169 73 
107 5 120 22 180 34 67 
108 7 18 166 74 16 129 203 173 
109 7 160 193 27 162 170 122 128 
110 7 52 192 30 72 41 196 153 
111 6 46 75 119 123 104 19 
112 7 159 155 106 64 73 59 33 
113 5 164 126 59 33 43 
114 4 98 81 71 9 
115 7 35 53 78 8 121 198 36 
116 7 199 51 2 193 104 75 160 
117 7 67 10 137 105 140 177 25 
118 7 181 68 14 38 34 186 70 
119 6 19 80 90 46 111 123 
120 4 107 180 22 177 
121 4 198 95 8 78 
122 7 27 128 170 109 193 136 160 
123 6 148 46 111 50 119 15 
124 7 32 134 92 45 55 76 47 
125 7 66 5 6 141 4 156 189 
126 4 113 164 33 43 
127 7 87 70 14 181 129 25 140 
128 7 122 27 193 170 109 136 160 
129 7 70 166 14 18 74 108 181 
130 6 13 101 86 77 79 23 
131 6 103 100 191 54 4 6 
132 6 184 82 49 58 15 138 
133 5 57 154 204 39 12 
134 7 32 45 55 124 92 91 47 
135 4 200 20 79 23 
136 6 179 122 128 27 170 48 
137 7 10 140 25 67 117 186 105 
138 6 28 49 201 83 132 56 
139 6 194 39 12 157 143 204 
140 7 25 137 10 117 67 186 105 
141 7 168 146 61 89 38 4 5 
142 3 152 7 37 
143 7 194 12 157 85 204 139 26 
144 4 17 196 69 52 
145 3 40 26 88 
146 7 168 141 38 4 61 89 68 
147 4 95 8 78 36 
148 6 123 46 15 111 50 65 
149 7 96 21 63 42 99 24 176 
150 6 20 73 171 185 3 88 
151 3 202 71 9 
152 2 142 7 
153 3 41 97 30 
154 7 204 133 85 12 57 139 39 
155 5 159 112 33 59 164 
156 6 93 77 61 5 29 89 
157 7 194 163 26 161 143 139 102 
158 7 195 11 44 190 197 31 174 
159 7 112 155 59 73 33 106 64 
160 7 109 193 27 162 170 122 51 
161 7 163 157 102 194 26 185 88 
162 6 170 109 27 160 122 193 
163 7 26 157 161 88 185 102 194 
164 6 59 33 113 159 126 155 
165 7 24 176 99 42 84 188 36 
166 7 18 108 129 74 14 70 68 
167 3 189 66 6 
168 7 146 141 4 38 61 89 68 
169 3 3 106 64 
170 7 27 122 162 109 128 193 160 
171 6 185 88 102 3 163 150 
172 4 29 34 93 89 
173 6 203 74 129 108 166 18 
174 6 197 31 195 190 83 56 
175 5 60 81 9 98 71 
176 7 24 42 165 99 84 188 36 
177 7 105 22 180 67 117 120 107 
178 5 90 19 37 80 119 
179 6 48 136 170 122 27 128 
180 4 22 177 105 120 
181 7 14 118 70 186 68 87 129 
182 2 187 23 
183 4 94 136 63 21 
184 6 82 15 132 58 65 49 
185 6 88 171 102 163 26 161 
186 7 137 25 140 181 10 107 67 
187 3 182 23 86 
188 7 36 165 99 24 176 42 84 
189 2 167 6 
190 7 195 44 197 174 16 158 54 
191 3 131 103 6 
192 7 52 110 196 72 30 17 41 
193 7 160 109 27 128 122 116 170 
194 7 157 139 161 143 163 26 12 
195 7 190 197 158 174 31 44 11 
196 7 17 52 192 144 110 41 30 
197 6 174 195 31 190 83 56 
198 3 121 95 8 
199 6 116 104 2 51 75 193 
200 5 135 79 23 101 20 
201 5 83 138 56 28 49 
202 3 151 71 9 
203 6 173 74 108 129 166 18 
204 7 85 12 154 143 139 194 57 
DEPOT_SECTION
   1
   -1
EOF
