NAME :  X-n317-kX-w63-c11.cctp
COMMENT : 	Adapted by Maziero, Usberti and Cavellucci from the Uchoa, Pecin, Pessoa, Poggi, Subramanian, and Vidal (2013)
TYPE :  CCTP
DIMENSION :    294
EDGE_WEIGHT_TYPE : 	EUC_2D	
CAPACITY : 	6
VERTICES_WITHIN_COVERAGE :  11
VERTICES_WITH_DEMAND : 	63
NODE_COORD_SECTION
1 0 0
2 971 544
3 564 976
4 266 4
5 395 95
6 379 271
7 936 538
8 980 578
9 242 92
10 476 74
11 247 159
12 359 108
13 473 941
14 490 947
15 548 950
16 389 864
17 916 664
18 212 91
19 415 182
20 961 553
21 423 232
22 596 931
23 955 566
24 534 93
25 252 6
26 950 580
27 517 950
28 942 618
29 636 981
30 629 809
31 508 35
32 108 130
33 391 19
34 208 183
35 991 680
36 428 48
37 272 220
38 931 581
39 327 128
40 966 514
41 313 202
42 267 1
43 404 925
44 985 594
45 895 429
46 348 12
47 316 258
48 238 20
49 970 490
50 854 586
51 293 104
52 628 919
53 880 597
54 353 241
55 753 728
56 291 93
57 993 439
58 382 125
59 230 36
60 984 471
61 489 23
62 277 137
63 593 171
64 378 204
65 411 87
66 207 85
67 906 631
68 445 68
69 673 268
70 576 951
71 953 504
72 434 145
73 530 11
74 632 879
75 541 968
76 353 851
77 629 868
78 593 896
79 936 411
80 276 93
81 359 894
82 548 998
83 52 69
84 507 145
85 451 162
86 646 996
87 532 906
88 220 126
89 536 831
90 482 212
91 137 53
92 978 506
93 300 111
94 907 711
95 908 488
96 222 137
97 423 67
98 268 125
99 434 25
100 548 982
101 511 888
102 371 256
103 440 179
104 331 82
105 965 439
106 545 968
107 447 40
108 785 664
109 915 669
110 468 98
111 247 6
112 271 70
113 260 110
114 902 679
115 926 874
116 587 988
117 368 419
118 351 158
119 967 685
120 559 968
121 877 507
122 353 164
123 984 540
124 380 89
125 886 376
126 943 408
127 420 204
128 386 78
129 219 18
130 497 961
131 542 965
132 718 869
133 414 69
134 606 959
135 575 99
136 330 101
137 257 22
138 600 994
139 951 536
140 534 896
141 297 96
142 438 917
143 385 883
144 233 239
145 481 945
146 414 128
147 602 752
148 592 151
149 267 82
150 587 946
151 728 991
152 242 136
153 292 9
154 494 918
155 2 149
156 24 105
157 933 577
158 227 49
159 651 947
160 991 512
161 805 704
162 253 66
163 628 824
164 199 18
165 833 534
166 633 864
167 343 42
168 565 991
169 603 996
170 404 30
171 434 92
172 822 465
173 393 81
174 351 78
175 536 967
176 553 985
177 652 868
178 472 900
179 824 545
180 370 189
181 196 21
182 524 974
183 590 878
184 551 951
185 480 48
186 384 185
187 327 228
188 567 966
189 537 964
190 929 577
191 491 141
192 336 12
193 496 953
194 149 57
195 250 252
196 238 63
197 245 222
198 231 37
199 512 13
200 868 481
201 994 635
202 697 87
203 989 535
204 462 954
205 355 240
206 335 89
207 817 544
208 196 66
209 389 36
210 413 62
211 277 111
212 245 95
213 878 469
214 407 109
215 999 601
216 974 433
217 578 969
218 548 784
219 519 21
220 986 436
221 483 19
222 420 197
223 417 122
224 825 609
225 347 96
226 967 530
227 749 542
228 271 20
229 307 72
230 420 130
231 821 398
232 147 97
233 950 512
234 394 190
235 962 584
236 934 530
237 611 926
238 323 185
239 966 530
240 378 189
241 334 189
242 265 136
243 303 315
244 562 977
245 995 477
246 862 649
247 379 190
248 935 565
249 178 11
250 465 237
251 214 179
252 479 913
253 903 530
254 379 102
255 268 8
256 922 511
257 403 33
258 289 71
259 474 196
260 374 90
261 557 25
262 957 581
263 134 103
264 554 116
265 392 111
266 200 392
267 929 514
268 521 905
269 341 210
270 394 77
271 339 130
272 938 635
273 315 258
274 970 710
275 376 48
276 402 128
277 954 450
278 528 302
279 353 113
280 611 991
281 235 12
282 544 988
283 958 520
284 521 76
285 334 23
286 264 63
287 591 913
288 532 972
289 589 956
290 568 972
291 983 621
292 418 817
293 312 39
294 334 176
DEMAND_SECTION
2 1
3 1
4 1
5 1
6 1
7 1
8 1
9 1
10 1
11 1
12 1
13 1
14 1
15 1
16 1
17 1
18 1
19 1
20 1
21 1
22 1
23 1
24 1
25 1
26 1
27 1
28 1
29 1
30 1
31 1
32 1
33 1
34 1
35 1
36 1
37 1
38 1
39 1
40 1
41 1
42 1
43 1
44 1
45 1
46 1
47 1
48 1
49 1
50 1
51 1
52 1
53 1
54 1
55 1
56 1
57 1
58 1
59 1
60 1
61 1
62 1
63 1
64 1
COVERAGE_SECTION
2 11 20 123 226 239 203 139 23 283 40 8 7 
3 11 244 290 120 188 176 168 217 100 106 282 75 
4 9 42 255 25 228 111 137 153 48 281 
5 10 173 124 265 254 65 214 270 128 260 133 
6 11 102 205 54 21 47 273 64 187 269 127 247 
7 11 236 139 267 248 283 20 233 256 239 226 23 
8 11 44 235 262 23 26 215 20 2 123 291 203 
9 11 212 113 149 162 196 18 80 66 112 286 88 
10 11 110 185 68 107 284 171 31 61 97 36 221 
11 11 152 242 96 62 251 98 88 34 113 211 197 
12 11 279 225 254 260 124 58 136 271 174 206 265 
13 11 145 204 14 193 252 130 154 178 142 27 268 
14 10 193 145 130 13 27 154 204 252 182 288 
15 11 184 131 106 189 75 120 175 188 288 70 244 
16 11 143 76 81 292 43 142 178 252 13 204 154 
17 11 109 114 67 272 94 28 119 246 274 53 35 
18 11 66 9 208 212 88 196 158 96 162 113 152 
19 11 222 234 127 103 186 247 240 85 72 64 180 
20 11 2 23 139 226 239 123 262 7 26 248 8 
21 11 127 222 250 19 234 64 103 102 6 186 247 
22 11 237 150 287 289 70 134 52 78 217 188 184 
23 11 20 26 262 235 248 157 2 8 38 190 139 
24 10 284 264 135 84 10 31 191 110 185 261 
25 11 111 4 42 255 137 281 48 228 129 59 198 
26 11 262 235 23 157 38 190 248 20 8 44 28 
27 11 193 130 189 175 182 14 288 131 75 15 106 
28 11 272 67 26 38 235 262 291 157 190 44 17 
29 11 86 280 169 134 159 138 116 289 217 150 237 
30 10 163 166 77 147 177 74 183 218 78 89 
31 11 219 61 199 221 185 73 284 10 261 107 24 
32 11 263 232 91 83 194 156 155 66 208 18 88 
33 7 170 209 257 275 99 46 36 
34 11 251 11 96 197 88 152 144 37 242 195 62 
35 11 119 274 201 291 272 17 109 28 215 44 114 
36 8 97 107 210 99 133 68 257 170 
37 11 197 195 144 41 187 273 47 238 11 241 269 
38 11 157 190 248 26 262 23 235 28 20 7 8 
39 11 271 136 279 93 12 118 225 206 51 122 141 
40 11 283 92 71 226 233 239 49 160 139 2 203 
41 11 238 241 269 187 294 37 122 47 54 273 205 
42 9 4 255 25 228 111 137 153 281 48 
43 11 142 143 81 16 204 13 178 252 145 14 76 
44 11 215 8 235 291 262 26 23 201 20 28 2 
45 10 213 79 126 125 200 95 277 105 216 121 
46 9 192 285 167 33 293 275 209 153 170 
47 11 273 187 54 205 269 102 41 37 243 6 195 
48 11 281 111 59 198 129 137 25 158 4 255 228 
49 11 92 71 40 60 245 160 233 283 226 239 277 
50 11 53 224 179 165 207 246 67 253 190 38 157 
51 11 141 93 56 211 80 98 258 113 149 229 62 
52 11 237 22 159 287 74 78 134 150 77 289 166 
53 11 50 67 38 190 246 224 157 248 28 272 253 
54 11 205 102 187 269 6 47 273 64 180 241 41 
55 11 161 108 246 224 132 30 147 94 114 163 109 
56 11 141 51 80 93 258 211 149 229 112 113 98 
57 11 220 216 105 60 245 277 49 126 79 92 160 
58 11 265 276 254 12 214 279 146 5 223 124 260 
59 10 198 158 48 129 281 196 137 111 164 25 
60 11 245 49 57 220 92 105 277 216 160 71 40 
61 11 221 31 199 185 219 73 107 10 99 284 68 
62 11 242 98 211 113 93 152 11 51 80 56 141 
63 9 148 264 135 84 24 191 90 284 259 
64 11 247 240 180 186 234 269 127 19 205 222 54 
65 9 5 133 173 270 214 97 171 210 128 
66 11 18 208 9 196 212 158 88 162 59 96 198 
67 11 272 17 28 109 53 114 246 38 190 157 26 
68 11 97 36 171 107 133 10 210 110 65 185 99 
69 10 63 148 278 202 264 135 231 90 84 250 
70 11 150 289 188 217 290 120 184 3 15 22 244 
71 11 233 40 283 49 92 267 239 226 139 236 256 
72 7 230 85 146 223 103 276 19 
73 11 219 199 261 31 61 221 185 284 24 10 107 
74 11 77 166 177 52 183 78 237 287 163 22 30 
75 11 131 106 175 189 288 100 120 182 15 184 282 
76 11 16 81 143 292 43 142 178 252 13 204 154 
77 11 166 74 177 183 163 78 52 30 287 237 22 
78 11 287 183 22 237 52 74 77 150 166 70 140 
79 10 126 105 277 216 45 220 125 57 60 95 
80 11 149 56 211 51 141 113 112 258 93 212 286 
81 11 143 16 76 43 142 292 178 204 252 13 145 
82 10 282 176 100 168 244 3 106 75 288 120 
83 11 156 32 91 263 155 194 232 249 208 181 66 
84 8 191 264 24 85 110 259 284 90 
85 7 103 72 19 259 191 230 222 
86 11 29 280 169 138 159 134 116 289 217 150 237 
87 10 140 268 101 154 27 15 184 252 189 14 
88 11 96 152 18 9 212 11 66 113 242 98 251 
89 10 218 101 140 183 87 268 78 163 178 30 
90 8 259 250 103 85 21 127 222 84 
91 11 194 232 263 249 208 181 164 66 32 18 83 
92 11 40 160 49 283 71 226 239 233 203 245 123 
93 11 51 141 56 211 80 39 136 62 98 113 229 
94 11 114 109 17 274 119 246 67 272 35 28 161 
95 10 256 267 121 213 200 253 71 233 236 7 
96 11 88 152 11 242 251 18 113 34 98 212 9 
97 8 133 210 36 68 65 171 270 173 
98 11 242 62 113 211 152 51 80 93 212 56 11 
99 11 107 36 170 257 33 97 210 68 209 133 221 
100 10 176 282 106 244 75 82 3 120 131 168 
101 10 268 140 87 154 178 252 27 89 14 145 
102 11 6 54 205 64 187 47 269 273 21 247 180 
103 7 85 19 222 127 72 259 234 
104 7 206 136 174 225 229 141 12 
105 10 216 277 220 57 60 126 79 245 49 71 
106 11 75 131 175 189 100 120 288 15 184 176 244 
107 11 99 36 68 185 97 210 221 133 170 10 61 
108 11 161 224 55 246 50 53 114 207 67 179 227 
109 11 17 114 67 272 94 119 246 28 274 35 53 
110 8 10 171 68 191 185 97 223 284 
111 11 25 281 48 4 137 42 255 228 129 59 198 
112 7 286 149 162 258 80 56 196 
113 11 98 211 212 80 9 242 149 62 152 51 56 
114 11 109 17 94 67 246 272 119 28 274 53 35 
115 11 94 274 119 114 35 109 132 161 17 55 151 
116 11 138 169 217 168 280 290 3 244 188 289 120 
117 11 243 6 102 47 273 266 54 205 21 187 278 
118 11 122 294 271 241 180 39 238 240 186 247 58 
119 11 35 274 109 17 201 272 94 114 291 28 67 
120 11 188 3 244 290 106 131 75 100 176 184 217 
121 10 200 253 95 213 256 165 267 236 179 7 
122 11 118 294 180 241 240 186 238 247 271 39 64 
123 11 203 2 226 239 20 160 40 139 283 92 8 
124 8 260 128 254 173 5 270 265 12 
125 10 45 79 126 231 213 277 105 216 200 172 
126 10 79 105 216 277 220 45 57 125 60 49 
127 11 222 19 21 234 103 186 64 247 240 85 180 
128 5 173 270 124 260 5 
129 11 281 48 164 59 198 181 111 158 25 137 249 
130 10 193 14 27 145 182 13 204 288 175 189 
131 11 75 106 189 175 288 15 120 184 100 182 176 
132 11 177 166 74 77 163 52 159 30 237 151 78 
133 7 210 97 65 270 173 36 128 
134 11 289 150 22 217 70 280 237 116 138 29 169 
135 10 264 24 148 284 63 261 84 31 191 219 
136 9 206 225 104 279 39 12 271 174 93 
137 8 228 25 255 48 111 4 42 281 
138 11 169 280 116 217 168 134 29 290 3 289 244 
139 11 7 239 226 283 236 20 2 233 40 23 267 
140 10 87 268 101 154 15 27 184 252 78 183 
141 11 56 51 93 80 211 229 258 136 149 104 112 
142 11 43 178 252 13 204 145 154 14 143 193 16 
143 11 16 81 76 43 142 292 178 252 13 204 145 
144 11 195 197 37 34 251 11 273 47 41 187 96 
145 11 13 14 193 204 130 154 252 27 178 142 182 
146 9 230 223 276 214 72 265 58 5 65 
147 10 30 218 163 89 166 77 177 183 74 78 
148 8 63 264 135 24 84 191 284 202 
149 10 112 80 286 162 258 56 212 9 113 211 
150 11 289 70 22 134 217 188 237 290 287 120 184 
151 11 86 159 29 280 132 52 169 134 138 237 116 
152 11 96 242 11 88 98 113 62 212 211 9 251 
153 9 228 255 4 42 293 137 25 192 285 
154 11 252 178 14 145 268 13 101 193 27 87 130 
155 11 156 83 32 263 232 91 194 34 208 251 66 
156 11 83 155 32 263 232 91 194 208 249 66 18 
157 11 38 190 248 26 262 23 235 20 7 28 139 
158 9 59 198 196 48 162 129 208 281 137 
159 11 52 29 237 134 86 22 280 289 150 138 169 
160 11 92 203 40 123 49 226 239 283 245 2 71 
161 11 108 55 246 224 114 94 109 17 67 50 53 
162 7 286 196 112 149 9 212 158 
163 11 30 166 77 177 74 183 147 78 218 89 52 
164 11 181 129 249 59 281 198 48 158 208 111 25 
165 11 179 207 121 50 200 172 253 224 53 213 227 
166 11 77 74 177 163 183 78 30 52 287 237 22 
167 6 285 46 192 293 275 174 
168 11 176 244 3 82 100 290 282 116 120 188 217 
169 11 138 280 116 29 134 217 168 289 290 86 3 
170 7 257 209 33 36 99 210 275 
171 11 65 68 97 133 214 223 110 210 5 230 146 
172 10 200 213 231 121 165 207 179 45 95 253 
173 7 270 128 5 124 65 260 133 
174 7 225 206 104 260 12 124 136 
175 11 189 75 131 288 106 182 100 15 184 282 120 
176 10 100 282 244 168 3 82 120 106 290 75 
177 11 166 74 77 163 52 30 183 78 132 237 287 
178 11 252 154 142 13 101 145 268 14 204 193 87 
179 11 207 165 50 224 121 227 53 200 172 253 213 
180 11 240 247 186 64 234 122 118 241 269 294 19 
181 11 164 249 129 59 198 281 48 158 208 111 25 
182 9 288 175 189 75 131 106 282 27 100 
183 10 78 287 77 74 166 237 22 52 140 177 
184 11 15 131 106 120 189 75 175 188 70 290 3 
185 11 10 61 221 31 107 68 199 219 284 99 110 
186 11 240 247 234 180 64 19 122 222 127 118 241 
187 11 269 54 41 205 47 273 241 238 102 294 37 
188 11 290 120 3 217 244 70 106 184 176 289 15 
189 11 175 131 75 106 288 182 15 184 100 120 27 
190 11 38 157 248 26 23 262 235 7 20 28 139 
191 6 84 85 110 72 259 24 
192 8 285 46 167 293 153 275 33 209 
193 10 14 130 145 27 13 204 154 182 288 175 
194 11 91 232 208 263 249 181 164 66 18 158 129 
195 11 144 197 37 273 47 41 34 187 251 243 11 
196 9 162 158 286 198 59 9 212 112 149 
197 11 144 37 195 251 34 11 41 273 47 187 152 
198 10 59 158 48 129 281 196 137 111 162 25 
199 11 219 73 31 61 221 185 261 284 107 10 99 
200 10 213 121 95 172 45 253 256 165 267 179 
201 11 291 215 44 35 28 272 119 8 235 262 26 
202 11 135 148 63 264 261 24 284 69 73 219 31 
203 11 123 2 160 226 239 40 92 20 283 139 8 
204 10 13 145 14 193 130 142 252 154 27 178 
205 11 54 102 187 269 6 47 64 273 180 241 247 
206 7 104 136 225 174 279 12 229 
207 11 179 165 50 224 227 121 172 200 53 253 213 
208 11 66 18 158 196 59 181 198 164 194 9 129 
209 6 257 170 33 275 210 36 
210 7 133 97 36 270 65 173 128 
211 11 51 98 113 80 56 93 141 62 242 149 212 
212 11 9 113 149 162 80 18 196 112 211 286 98 
213 10 200 95 121 45 172 256 253 267 277 165 
214 11 265 223 5 146 276 65 230 254 58 173 171 
215 11 44 291 8 201 235 262 26 23 28 20 123 
216 11 105 220 57 277 60 126 79 245 49 92 71 
217 11 290 188 3 289 70 244 120 116 150 168 134 
218 10 89 147 30 163 183 101 140 77 166 78 
219 11 199 73 31 61 221 261 185 284 10 24 107 
220 11 57 216 105 60 277 245 126 49 79 92 71 
221 11 61 185 31 199 219 107 73 99 10 36 68 
222 11 127 19 103 234 21 186 247 64 240 85 180 
223 9 146 230 214 276 265 72 171 5 58 
224 11 50 246 53 179 207 108 165 67 161 227 114 
225 8 206 12 136 174 279 104 260 254 
226 11 239 283 2 40 139 123 203 20 233 92 71 
227 11 207 179 165 224 172 50 108 121 200 53 213 
228 8 255 137 4 42 25 153 111 48 
229 7 258 56 104 141 206 293 51 
230 9 146 223 276 72 214 265 58 171 5 
231 10 172 125 45 213 200 79 126 121 95 165 
232 11 263 194 91 32 208 66 18 88 96 181 249 
233 11 71 283 40 267 139 236 239 226 256 92 7 
234 11 186 247 240 64 19 180 222 127 103 122 21 
235 11 262 26 8 23 44 157 20 38 248 190 28 
236 11 7 267 139 256 233 283 253 71 239 226 20 
237 11 22 52 287 150 134 78 289 70 159 74 183 
238 11 241 294 41 269 122 118 187 180 240 247 39 
239 11 226 283 2 40 139 123 20 203 233 92 71 
240 11 247 186 180 64 234 122 19 118 222 269 241 
241 11 238 294 269 41 122 118 180 187 240 247 64 
242 11 98 62 152 113 211 11 51 93 96 80 88 
243 11 47 273 195 6 54 102 187 205 37 144 197 
244 11 3 290 120 176 188 168 100 217 106 282 75 
245 11 60 49 92 160 57 220 40 105 216 277 71 
246 11 67 114 224 53 17 109 50 94 272 108 161 
247 11 240 186 180 64 234 19 122 222 118 127 269 
248 11 157 190 38 23 26 7 262 20 139 235 236 
249 11 181 164 129 194 281 59 208 91 198 48 158 
250 9 90 21 259 127 222 103 19 85 234 
251 11 34 11 96 152 88 197 144 242 37 62 98 
252 11 178 154 13 145 14 101 142 193 268 204 130 
253 10 256 236 267 7 121 95 248 139 233 190 
254 11 124 260 265 5 12 58 128 173 279 214 270 
255 9 4 42 228 25 137 111 153 48 281 
256 10 267 236 95 253 233 7 71 283 139 40 
257 7 170 209 33 36 210 275 99 
258 8 112 229 56 149 80 141 286 51 
259 8 90 103 85 250 222 127 191 19 
260 8 124 254 128 173 5 12 270 174 
261 11 73 219 199 31 284 61 24 221 135 185 264 
262 11 235 26 23 8 157 38 248 20 190 44 2 
263 11 232 32 194 91 208 66 18 83 88 96 249 
264 10 135 24 148 284 84 63 191 110 10 261 
265 11 214 5 254 58 276 124 223 146 260 173 65 
266 11 243 195 144 117 197 47 273 37 187 34 251 
267 10 256 236 233 7 71 283 139 253 95 40 
268 10 87 140 101 154 252 27 178 14 15 193 
269 11 241 187 41 238 54 205 294 180 64 240 247 
270 7 173 128 5 124 65 133 210 
271 11 39 279 12 118 136 225 122 206 58 93 294 
272 11 28 67 17 109 291 38 26 201 235 114 262 
273 11 47 187 54 205 269 41 102 37 243 6 195 
274 11 119 35 94 109 17 114 201 272 291 28 67 
275 5 209 257 128 33 170 
276 9 146 223 230 58 214 265 5 254 72 
277 10 105 216 220 60 57 49 79 126 245 71 
278 9 250 90 259 21 63 127 69 103 222 
279 11 12 225 271 136 254 39 206 58 260 174 124 
280 11 169 138 116 29 134 86 217 289 168 290 3 
281 11 48 111 129 25 137 59 198 4 255 42 164 
282 10 100 176 82 75 106 288 168 244 175 3 
283 11 40 233 226 239 71 139 92 236 2 7 267 
284 11 24 31 10 185 264 219 110 135 61 261 199 
285 6 192 46 167 293 153 275 
286 7 112 162 149 196 258 80 9 
287 11 78 22 237 150 183 52 70 289 134 74 184 
288 10 175 182 189 75 131 106 100 282 176 15 
289 11 150 70 134 217 188 22 290 3 116 120 244 
290 11 3 188 244 120 217 168 176 70 100 106 116 
291 11 201 215 44 28 8 235 272 262 26 35 23 
292 10 16 76 143 81 178 142 43 252 101 89 
293 7 285 167 229 153 192 258 46 
294 11 241 238 122 118 41 269 180 240 271 247 39 
DEPOT_SECTION
   1
   -1
EOF
