NAME :  X-n393-kX-w78-c9.cctp
COMMENT : 	Adapted by Maziero, Usberti and Cavellucci from the Uchoa, Pecin, Pessoa, Poggi, Subramanian, and Vidal (2013)
TYPE :  CCTP
DIMENSION :    285
EDGE_WEIGHT_TYPE : 	EUC_2D	
CAPACITY : 	78
VERTICES_WITHIN_COVERAGE :  9
VERTICES_WITH_DEMAND : 	78
NODE_COORD_SECTION
1 500 500
2 113 195
3 377 239
4 364 39
5 306 316
6 795 18
7 803 771
8 845 880
9 440 450
10 284 370
11 785 211
12 860 318
13 170 621
14 180 957
15 707 913
16 861 505
17 546 186
18 910 997
19 403 865
20 373 357
21 317 394
22 225 729
23 666 199
24 505 56
25 436 885
26 711 906
27 736 688
28 439 550
29 561 186
30 276 294
31 810 244
32 939 53
33 551 220
34 662 179
35 537 420
36 843 543
37 970 798
38 933 860
39 518 910
40 571 265
41 583 119
42 985 150
43 810 48
44 620 230
45 859 278
46 40 882
47 419 310
48 63 713
49 471 758
50 151 399
51 808 811
52 54 756
53 796 931
54 698 66
55 391 808
56 324 665
57 409 562
58 886 760
59 36 197
60 682 514
61 596 305
62 252 372
63 564 16
64 515 641
65 839 206
66 160 313
67 248 945
68 288 150
69 326 201
70 301 6
71 316 800
72 45 410
73 449 618
74 196 391
75 448 41
76 908 558
77 302 672
78 694 425
79 277 270
80 575 993
81 183 972
82 469 577
83 890 727
84 826 883
85 91 15
86 526 335
87 325 793
88 15 658
89 231 693
90 698 701
91 76 488
92 510 785
93 589 978
94 526 926
95 36 459
96 859 847
97 762 64
98 949 109
99 624 779
100 448 691
101 289 195
102 172 345
103 952 443
104 974 550
105 751 49
106 391 837
107 531 44
108 647 594
109 931 76
110 898 863
111 939 987
112 455 898
113 961 784
114 717 403
115 829 284
116 377 812
117 554 874
118 134 378
119 221 155
120 396 228
121 7 29
122 327 28
123 75 671
124 734 216
125 234 977
126 353 101
127 159 260
128 569 501
129 68 458
130 453 663
131 382 366
132 430 883
133 528 767
134 965 322
135 328 254
136 82 468
137 642 318
138 252 663
139 816 889
140 13 795
141 422 318
142 373 417
143 329 646
144 979 824
145 692 65
146 450 466
147 851 582
148 857 111
149 194 87
150 918 84
151 48 452
152 297 780
153 710 476
154 449 898
155 891 587
156 410 387
157 550 467
158 441 531
159 661 762
160 918 264
161 224 33
162 469 760
163 534 961
164 371 255
165 694 794
166 185 127
167 384 56
168 650 223
169 874 501
170 822 439
171 289 312
172 462 546
173 686 269
174 32 885
175 843 617
176 786 493
177 665 455
178 598 317
179 655 343
180 613 491
181 726 602
182 674 47
183 411 577
184 173 977
185 94 672
186 311 839
187 385 729
188 370 870
189 357 692
190 407 548
191 443 554
192 30 771
193 405 435
194 410 744
195 190 760
196 231 907
197 237 968
198 7 685
199 376 577
200 313 598
201 223 937
202 478 633
203 459 720
204 461 450
205 486 905
206 90 715
207 540 632
208 411 631
209 231 915
210 371 748
211 221 739
212 131 657
213 402 893
214 176 632
215 60 851
216 152 947
217 176 969
218 182 936
219 348 466
220 301 850
221 23 856
222 104 694
223 293 819
224 195 586
225 309 835
226 237 919
227 193 757
228 477 756
229 409 613
230 393 593
231 287 981
232 190 940
233 378 861
234 182 951
235 426 810
236 87 697
237 405 632
238 459 591
239 61 921
240 216 656
241 302 631
242 441 599
243 249 700
244 418 772
245 262 426
246 208 752
247 222 603
248 488 798
249 8 895
250 179 574
251 419 649
252 459 337
253 416 849
254 19 788
255 262 763
256 154 594
257 362 575
258 402 509
259 429 876
260 103 756
261 513 819
262 452 633
263 292 683
264 466 341
265 32 909
266 567 639
267 230 947
268 149 943
269 295 460
270 578 423
271 522 601
272 105 726
273 413 893
274 180 989
275 223 699
276 399 829
277 361 401
278 195 922
279 283 760
280 140 631
281 431 871
282 175 491
283 293 729
284 334 809
285 383 878
DEMAND_SECTION
2 5
3 5
4 7
5 9
6 7
7 8
8 5
9 7
10 8
11 7
12 9
13 9
14 10
15 6
16 7
17 9
18 8
19 7
20 6
21 9
22 5
23 5
24 10
25 6
26 6
27 9
28 6
29 6
30 7
31 9
32 6
33 6
34 9
35 5
36 7
37 5
38 8
39 8
40 6
41 5
42 9
43 7
44 10
45 9
46 7
47 10
48 9
49 7
50 9
51 9
52 8
53 8
54 9
55 5
56 8
57 8
58 6
59 9
60 10
61 9
62 10
63 7
64 7
65 7
66 10
67 9
68 8
69 6
70 5
71 5
72 6
73 8
74 5
75 7
76 6
77 9
78 9
79 6
COVERAGE_SECTION
2 9 59 127 166 119 66 149 102 101 79 
3 9 164 120 135 69 47 141 101 5 79 
4 9 167 122 126 70 75 68 161 24 69 
5 9 171 30 79 10 135 62 20 21 164 
6 9 43 105 97 54 148 145 182 150 32 
7 9 51 58 96 83 27 165 84 8 139 
8 9 84 139 96 110 53 51 38 7 58 
9 9 146 204 193 156 258 142 158 219 277 
10 9 62 21 5 171 245 30 277 20 74 
11 9 31 124 65 115 45 173 23 148 34 
12 9 45 115 160 31 134 65 170 11 103 
13 8 214 256 280 224 250 212 247 240 
14 8 234 217 81 232 184 218 216 274 
15 9 26 53 139 165 84 93 8 51 80 
16 9 169 36 76 176 170 147 155 103 175 
17 9 29 33 41 40 44 168 34 23 61 
18 9 111 53 8 110 38 84 139 96 144 
19 9 253 285 233 213 259 281 106 273 132 
20 9 131 277 156 142 141 47 21 5 193 
21 9 10 277 142 245 20 62 269 131 219 
22 9 211 246 275 89 243 227 195 255 279 
23 9 34 168 44 124 173 29 41 40 33 
24 9 107 75 63 41 167 17 4 29 126 
25 9 132 259 281 154 112 273 213 19 253 
26 9 15 53 139 165 84 8 51 93 159 
27 9 90 181 159 7 165 175 108 51 99 
28 9 191 158 172 57 190 183 82 238 242 
29 9 17 33 41 44 40 168 34 23 61 
30 9 171 79 5 135 10 62 101 164 69 
31 9 11 115 65 45 124 12 160 173 148 
32 9 109 150 98 148 42 43 6 97 65 
33 9 17 29 40 44 61 168 41 178 23 
34 9 23 168 44 124 173 41 29 17 33 
35 8 270 157 204 86 128 146 9 180 
36 9 147 16 169 155 76 175 176 170 104 
37 9 113 144 38 58 110 83 96 8 51 
38 9 110 144 37 96 113 8 84 58 139 
39 9 94 205 117 163 112 154 25 261 132 
40 9 61 33 178 44 29 17 86 137 168 
41 9 29 17 107 34 24 63 33 23 182 
42 9 98 109 150 32 160 148 65 134 45 
43 9 6 97 105 148 54 150 145 109 32 
44 9 168 23 40 34 33 29 173 61 17 
45 9 115 12 31 160 65 11 134 124 170 
46 6 174 265 221 249 215 239 
47 9 141 252 264 20 131 164 156 3 120 
48 9 206 236 52 123 272 222 185 260 198 
49 9 162 228 203 248 92 244 133 194 235 
50 9 118 74 102 66 282 136 129 62 72 
51 9 7 96 84 8 139 58 110 165 83 
52 7 192 48 254 260 206 140 272 
53 9 139 84 8 26 15 96 51 110 18 
54 9 145 182 105 97 6 43 34 41 23 
55 8 116 276 106 235 244 253 233 284 
56 8 143 77 263 241 189 200 283 138 
57 9 190 183 28 191 230 199 158 242 257 
58 9 83 113 7 96 37 51 110 38 144 
59 9 2 127 166 66 121 85 119 149 102 
60 8 153 177 180 108 78 181 176 128 
61 9 178 40 137 179 86 44 33 173 168 
62 9 10 245 74 21 171 5 30 102 269 
63 9 107 24 41 182 75 145 54 29 17 
64 8 207 202 271 266 262 130 73 238 
65 9 31 11 45 115 148 160 124 12 150 
66 9 102 127 118 50 74 62 30 79 2 
67 8 267 197 201 226 209 125 196 231 
68 9 101 69 119 126 166 135 149 79 3 
69 9 101 135 3 68 164 120 79 126 30 
70 9 122 4 161 167 126 149 68 75 166 
71 8 87 284 152 223 225 186 220 279 
72 7 151 95 129 136 91 118 50 
73 9 262 242 238 202 208 229 251 130 82 
74 8 50 102 62 118 245 66 10 282 
75 9 24 167 107 4 126 63 122 70 41 
76 9 155 147 104 169 36 16 175 103 176 
77 9 263 56 143 241 138 283 189 243 89 
78 9 114 177 153 60 179 180 176 270 137 
79 9 30 171 135 5 101 69 164 10 3 
80 9 93 163 94 39 117 205 112 15 154 
81 6 217 184 14 274 234 232 
82 7 238 172 191 242 28 73 158 
83 9 58 113 7 37 51 175 96 144 110 
84 9 139 8 96 53 51 110 38 7 26 
85 9 121 149 161 166 2 59 119 70 122 
86 9 264 252 178 61 40 35 270 141 47 
87 8 71 284 152 223 225 186 279 116 
88 5 198 123 48 185 236 
89 9 275 243 22 138 240 211 263 246 283 
90 9 27 159 165 181 99 108 7 266 51 
91 5 136 129 151 95 72 
92 9 133 248 261 228 49 162 203 235 244 
93 9 80 163 94 39 117 205 15 26 112 
94 9 39 163 205 117 112 93 154 80 25 
95 5 151 129 136 91 72 
96 9 8 110 84 139 51 38 58 7 53 
97 9 105 43 6 54 145 182 148 11 34 
98 9 109 150 42 32 148 65 43 160 6 
99 9 159 165 133 90 92 117 261 248 27 
100 9 130 203 251 262 194 202 208 49 228 
101 9 69 68 135 79 119 3 30 164 120 
102 9 66 118 74 50 62 127 10 30 245 
103 9 169 104 16 134 76 170 36 12 155 
104 9 76 155 103 169 16 147 36 175 170 
105 9 97 6 54 43 145 182 148 34 11 
106 8 276 233 253 55 116 19 188 285 
107 9 24 63 75 41 17 182 29 167 145 
108 7 181 60 266 180 207 90 128 
109 9 150 32 98 148 42 43 6 65 97 
110 9 38 96 8 84 139 144 37 113 51 
111 9 18 38 110 8 53 84 139 96 144 
112 9 154 25 132 205 259 281 273 213 19 
113 9 37 144 58 38 83 110 96 8 51 
114 9 78 153 177 179 170 137 176 60 180 
115 9 45 31 12 65 11 160 124 134 173 
116 8 55 276 106 284 233 235 253 87 
117 9 39 94 261 205 163 92 248 112 154 
118 9 50 102 74 66 72 129 136 151 62 
119 9 166 68 149 101 2 69 127 161 79 
120 9 3 164 135 69 47 141 101 5 79 
121 9 85 59 149 2 166 161 119 127 70 
122 9 70 4 167 126 161 75 68 149 119 
123 5 185 236 222 48 206 
124 9 11 23 173 31 34 168 65 44 115 
125 7 197 267 67 201 81 231 274 
126 9 167 4 122 68 69 70 75 101 120 
127 9 66 2 102 79 118 30 119 74 166 
128 4 157 180 270 35 
129 7 136 151 91 95 72 50 118 
130 9 100 262 251 202 73 208 203 237 242 
131 9 20 156 277 142 141 47 21 193 252 
132 9 25 259 281 273 154 112 213 19 253 
133 9 92 248 228 261 49 162 203 99 100 
134 9 160 12 45 103 115 65 42 31 170 
135 9 164 3 69 79 5 30 171 101 120 
136 5 129 91 151 95 72 
137 9 179 178 61 173 40 44 168 114 86 
138 9 89 240 243 263 275 77 241 247 22 
139 9 84 8 53 96 51 110 26 15 7 
140 7 254 192 52 221 215 46 174 
141 9 47 252 264 131 20 156 164 3 120 
142 9 277 193 156 131 219 20 21 9 269 
143 8 56 241 77 200 263 189 237 257 
144 9 37 113 38 110 58 96 83 8 84 
145 9 54 182 105 97 6 34 43 41 23 
146 9 9 204 193 258 158 172 28 191 156 
147 9 175 36 155 76 16 169 176 104 181 
148 9 150 43 109 98 65 32 97 6 11 
149 9 166 161 119 68 85 70 2 101 122 
150 9 109 32 98 148 42 43 6 65 97 
151 6 95 129 136 72 91 118 
152 9 279 71 87 223 255 284 283 225 186 
153 9 60 177 78 114 176 180 170 181 108 
154 9 112 25 132 259 281 273 205 213 19 
155 9 76 147 175 36 16 169 104 83 176 
156 9 131 20 142 193 277 9 141 252 264 
157 6 128 35 270 180 204 146 
158 9 28 191 172 190 57 258 82 183 238 
159 9 99 165 90 27 133 7 26 92 51 
160 9 45 134 12 115 65 31 42 11 98 
161 9 149 70 166 122 119 68 85 4 126 
162 9 49 228 203 248 92 244 133 194 235 
163 9 94 80 39 93 205 117 112 154 25 
164 9 3 120 135 69 47 141 5 79 171 
165 9 159 99 90 7 26 27 51 15 139 
166 9 149 119 2 161 68 101 127 85 69 
167 9 4 126 122 75 70 24 68 107 69 
168 9 23 44 34 173 124 40 137 29 61 
169 9 16 36 76 170 147 155 176 103 104 
170 9 176 16 169 36 114 153 12 78 103 
171 9 5 30 79 10 62 135 21 20 164 
172 7 191 28 158 82 238 57 190 
173 9 168 137 124 23 44 179 34 61 178 
174 6 46 265 249 221 215 239 
175 9 147 155 36 76 16 181 83 169 27 
176 9 170 16 36 153 169 60 147 114 78 
177 8 78 153 60 180 114 270 128 179 
178 9 61 137 40 179 86 44 173 168 33 
179 9 137 178 61 173 114 78 270 177 40 
180 6 128 177 157 60 270 153 
181 9 108 27 60 90 175 176 147 153 36 
182 9 145 54 105 97 63 41 6 34 43 
183 9 57 230 190 199 229 242 28 191 257 
184 5 217 81 274 14 234 
185 6 123 222 236 212 206 48 
186 6 225 220 223 284 71 87 
187 9 210 194 189 244 100 203 55 116 251 
188 5 233 285 19 106 213 
189 9 56 187 143 210 77 263 194 283 251 
190 9 57 183 28 191 158 258 199 230 257 
191 9 28 172 158 57 82 190 183 238 242 
192 6 254 52 140 48 260 206 
193 9 142 9 156 146 277 204 219 131 258 
194 9 187 244 210 203 162 49 100 55 228 
195 4 227 246 211 22 
196 6 209 226 201 278 267 67 
197 7 125 267 67 201 226 231 209 
198 6 88 48 123 236 52 185 
199 7 257 230 183 57 190 229 237 
200 5 241 143 257 199 56 
201 8 267 209 226 67 196 278 232 197 
202 9 262 73 64 130 238 242 271 82 251 
203 9 100 49 228 162 194 130 244 187 251 
204 9 146 9 193 156 35 158 258 157 142 
205 9 39 112 154 94 25 132 259 281 163 
206 8 236 272 222 48 185 260 123 52 
207 7 64 266 271 202 262 82 238 
208 9 237 229 251 73 262 230 242 130 183 
209 6 226 196 201 267 67 278 
210 9 187 194 244 189 55 87 116 284 71 
211 8 22 246 227 195 275 89 243 255 
212 5 280 185 222 214 13 
213 9 273 285 19 132 259 25 281 188 233 
214 8 13 280 256 240 224 212 247 250 
215 4 46 221 174 265 
216 3 268 14 234 
217 6 81 184 14 234 274 232 
218 7 232 234 278 14 216 217 268 
219 6 269 142 193 277 258 21 
220 4 186 225 223 71 
221 7 174 46 215 249 265 140 254 
222 6 236 185 206 272 123 48 
223 7 225 186 71 220 152 87 284 
224 6 250 247 256 13 214 280 
225 6 186 220 223 71 284 87 
226 6 209 196 201 67 267 278 
227 4 195 246 211 22 
228 9 49 162 203 248 92 133 244 194 100 
229 9 208 237 230 242 183 251 73 262 199 
230 9 199 183 229 57 257 237 208 190 242 
231 5 197 67 125 267 201 
232 7 218 234 278 14 217 81 201 
233 6 188 285 19 106 276 213 
234 8 14 232 218 217 81 184 216 278 
235 9 276 55 244 253 106 116 19 281 248 
236 6 222 206 185 48 123 272 
237 9 208 229 251 230 73 262 242 183 130 
238 8 82 242 73 191 262 172 28 202 
239 4 265 46 174 249 
240 9 138 89 275 214 247 243 13 224 22 
241 8 143 200 56 77 263 138 189 257 
242 9 238 73 229 82 262 183 208 191 230 
243 9 89 275 138 22 263 211 283 240 77 
244 9 194 235 55 162 210 187 49 116 276 
245 8 269 62 10 21 74 219 277 282 
246 5 227 211 195 22 255 
247 8 224 250 240 214 13 138 256 241 
248 9 92 261 162 49 228 133 235 244 203 
249 6 174 265 46 221 239 215 
250 5 224 256 13 247 214 
251 9 208 237 130 229 262 73 100 242 202 
252 9 264 141 47 86 156 131 20 193 204 
253 9 19 276 281 106 259 132 233 235 25 
254 7 140 192 52 221 215 48 260 
255 9 279 152 283 211 22 246 223 243 71 
256 6 13 250 280 224 214 212 
257 6 199 230 57 183 190 200 
258 8 190 158 57 28 191 146 183 219 
259 9 281 132 25 273 19 154 253 213 112 
260 5 272 206 52 48 236 
261 9 248 92 133 117 228 49 162 235 205 
262 9 73 202 130 242 251 208 238 229 237 
263 9 77 56 138 243 283 143 241 89 189 
264 9 252 141 47 86 156 131 20 35 204 
265 6 174 46 249 239 221 215 
266 6 207 64 271 202 108 262 
267 9 201 67 197 226 125 209 196 232 278 
268 2 216 14 
269 5 245 219 21 142 277 
270 8 35 157 180 128 177 86 178 179 
271 7 207 64 202 82 266 238 73 
272 5 206 260 222 236 48 
273 9 213 132 259 25 281 19 285 154 112 
274 4 184 81 217 14 
275 9 89 243 22 211 240 138 246 227 195 
276 8 106 55 253 116 235 19 233 188 
277 9 142 131 21 20 156 193 219 10 269 
278 6 218 232 201 234 209 14 
279 9 255 152 283 71 87 223 211 22 243 
280 5 212 13 214 256 185 
281 9 259 132 25 253 273 19 154 112 213 
282 3 250 50 136 
283 9 279 255 263 152 243 77 22 56 87 
284 7 87 71 225 186 223 116 152 
285 6 188 233 19 213 273 106 
DEPOT_SECTION
   1
   -1
EOF
