NAME :  X-n359-kX-w35-c9.cctp
COMMENT : 	Adapted by Maziero, Usberti and Cavellucci from the Uchoa, Pecin, Pessoa, Poggi, Subramanian, and Vidal (2013)
TYPE :  CCTP
DIMENSION :    230
EDGE_WEIGHT_TYPE : 	EUC_2D	
CAPACITY : 	68
VERTICES_WITHIN_COVERAGE :  9
VERTICES_WITH_DEMAND : 	35
NODE_COORD_SECTION
1 0 0
2 865 693
3 633 220
4 173 361
5 89 714
6 350 102
7 301 24
8 834 663
9 841 997
10 394 790
11 276 488
12 779 312
13 939 66
14 595 462
15 940 964
16 459 459
17 432 280
18 379 338
19 128 439
20 401 22
21 69 887
22 499 657
23 633 46
24 713 182
25 806 525
26 540 169
27 696 559
28 577 888
29 298 725
30 410 644
31 512 889
32 756 352
33 405 407
34 850 365
35 731 588
36 90 553
37 691 383
38 926 631
39 955 351
40 998 736
41 921 854
42 238 513
43 976 912
44 565 912
45 893 74
46 590 548
47 99 355
48 294 39
49 58 429
50 471 573
51 520 109
52 486 611
53 409 682
54 717 390
55 152 711
56 257 539
57 270 31
58 823 409
59 770 627
60 630 581
61 786 186
62 380 300
63 973 847
64 985 975
65 725 539
66 814 694
67 702 927
68 385 696
69 48 323
70 813 293
71 490 676
72 729 923
73 719 883
74 675 637
75 476 709
76 402 339
77 911 734
78 590 230
79 122 698
80 154 418
81 165 998
82 766 21
83 922 407
84 831 607
85 70 494
86 220 740
87 19 855
88 759 507
89 818 409
90 595 827
91 254 282
92 331 57
93 118 404
94 576 658
95 558 611
96 893 182
97 279 715
98 20 953
99 496 813
100 349 474
101 335 732
102 827 211
103 104 976
104 656 920
105 648 585
106 350 517
107 62 979
108 334 759
109 649 927
110 411 837
111 504 398
112 19 430
113 810 528
114 737 202
115 972 859
116 547 622
117 413 683
118 600 166
119 419 734
120 639 70
121 276 341
122 534 486
123 972 672
124 542 709
125 816 858
126 217 733
127 575 165
128 902 861
129 418 631
130 771 702
131 795 46
132 915 845
133 520 788
134 40 301
135 896 668
136 626 118
137 979 70
138 708 244
139 729 682
140 548 962
141 520 207
142 255 152
143 107 992
144 107 305
145 401 230
146 824 486
147 112 589
148 778 364
149 28 601
150 113 474
151 627 244
152 231 754
153 65 564
154 87 556
155 808 521
156 56 693
157 826 569
158 43 500
159 432 273
160 873 388
161 424 751
162 488 909
163 762 518
164 463 263
165 789 357
166 345 822
167 747 371
168 369 251
169 3 588
170 506 201
171 757 309
172 704 231
173 464 803
174 421 108
175 365 678
176 629 171
177 825 513
178 698 501
179 388 234
180 439 423
181 459 289
182 604 395
183 910 401
184 792 316
185 810 560
186 382 413
187 613 136
188 685 290
189 10 689
190 853 524
191 134 686
192 339 114
193 589 389
194 925 326
195 711 580
196 783 347
197 469 295
198 937 179
199 827 338
200 609 272
201 418 326
202 534 795
203 736 184
204 813 324
205 512 606
206 585 237
207 563 124
208 776 365
209 366 809
210 603 175
211 810 671
212 298 510
213 780 382
214 745 382
215 840 409
216 620 904
217 105 482
218 488 418
219 727 551
220 103 669
221 210 439
222 121 700
223 120 657
224 436 316
225 243 453
226 630 277
227 257 149
228 438 350
229 294 195
230 379 644
DEMAND_SECTION
2 10
3 8
4 9
5 7
6 9
7 1
8 3
9 1
10 8
11 10
12 8
13 10
14 2
15 4
16 9
17 2
18 3
19 10
20 3
21 1
22 4
23 3
24 8
25 3
26 5
27 6
28 7
29 9
30 1
31 1
32 8
33 3
34 10
35 2
36 4
COVERAGE_SECTION
2 8 135 8 66 211 77 38 84 130 
3 8 151 78 176 206 210 200 226 118 
4 9 80 93 47 221 144 19 121 91 225 
5 8 222 79 156 220 191 55 223 189 
6 6 192 92 174 48 7 20 
7 5 48 57 92 6 192 
8 9 211 66 2 84 135 59 130 157 38 
9 9 15 72 125 64 128 67 43 41 73 
10 8 209 161 110 166 119 108 173 101 
11 7 212 42 225 56 100 106 221 
12 9 184 171 196 204 70 32 165 148 208 
13 7 137 45 198 96 131 82 102 
14 6 122 182 193 46 178 111 
15 9 64 43 9 115 128 41 63 132 125 
16 6 180 218 33 111 122 186 
17 7 159 181 164 224 197 201 62 
18 8 76 62 201 228 224 33 186 17 
19 9 80 93 150 217 49 85 221 47 4 
20 6 92 174 6 7 48 192 
21 6 87 98 107 103 143 81 
22 9 71 52 205 75 116 124 95 94 129 
23 9 120 136 187 207 118 176 51 127 210 
24 9 203 114 172 138 61 176 3 151 136 
25 8 155 113 177 185 146 163 190 157 
26 7 127 141 170 207 118 51 210 
27 9 195 219 65 35 105 178 60 163 74 
28 8 44 216 90 31 140 109 104 162 
29 8 97 101 108 152 86 126 175 68 
30 9 129 230 53 117 175 68 52 71 22 
31 8 162 44 28 99 140 202 173 133 
32 9 167 208 148 196 214 165 213 171 12 
33 8 186 180 228 76 18 16 201 218 
34 7 160 199 215 58 89 204 165 
35 9 195 219 27 65 59 74 163 105 185 
36 8 154 153 147 85 158 217 149 150 
37 4 54 214 167 32 
38 5 135 123 2 8 84 
39 5 194 83 183 160 34 
40 9 123 77 63 135 115 38 132 2 41 
41 9 132 128 115 63 43 125 15 77 64 
42 5 56 11 212 225 221 
43 9 115 15 64 63 41 128 132 9 125 
44 8 28 140 216 31 162 109 90 104 
45 8 13 137 131 96 198 82 102 61 
46 9 60 105 95 122 14 116 205 27 94 
47 9 144 93 69 4 134 80 49 19 112 
48 5 7 57 92 6 192 
49 9 112 93 85 19 150 217 158 47 80 
50 9 52 205 129 22 116 30 95 71 122 
51 3 207 26 127 
52 9 205 50 22 116 71 129 95 30 75 
53 9 117 68 30 175 230 129 119 161 75 
54 4 37 214 167 32 
55 6 191 79 222 5 223 220 
56 5 42 212 11 225 106 
57 3 48 7 92 
58 5 89 215 213 34 160 
59 9 35 211 84 139 8 130 195 185 66 
60 9 105 46 27 74 95 195 116 94 35 
61 7 102 203 114 24 172 138 96 
62 9 18 76 201 168 17 224 159 179 145 
63 9 115 41 132 43 128 40 15 64 77 
64 9 15 43 115 63 41 128 9 132 125 
65 7 219 27 163 195 88 178 35 
66 9 211 8 130 2 59 135 139 84 77 
67 9 72 73 104 109 216 28 125 44 90 
68 9 175 53 117 119 230 30 101 161 129 
69 9 134 47 144 49 93 112 4 19 80 
70 9 184 204 12 199 171 196 165 148 34 
71 9 22 75 124 52 205 117 116 53 129 
72 9 67 73 104 109 125 216 9 28 44 
73 9 72 67 104 109 125 216 90 28 44 
74 9 105 195 139 60 35 27 59 219 94 
75 9 71 22 119 124 161 117 53 133 68 
76 7 201 18 228 224 62 17 33 
77 9 2 135 40 123 38 8 66 132 211 
78 6 206 151 3 200 210 226 
79 7 222 191 55 220 5 223 156 
80 9 19 93 4 221 150 217 47 225 49 
81 5 143 103 107 21 98 
82 9 131 23 120 45 61 203 24 136 13 
83 6 183 160 39 194 215 34 
84 8 157 185 8 59 211 113 25 190 
85 9 158 217 150 36 154 49 153 19 112 
86 6 126 152 97 55 29 191 
87 8 21 98 107 103 5 143 156 189 
88 7 163 65 25 155 219 113 178 
89 4 58 215 213 34 
90 6 28 202 216 133 44 99 
91 8 121 229 4 168 62 142 227 18 
92 7 48 7 6 192 57 20 174 
93 9 19 80 47 49 4 150 217 221 144 
94 8 116 95 124 22 205 71 60 74 
95 9 116 205 94 46 52 22 60 71 105 
96 5 198 102 61 45 13 
97 7 29 101 152 86 126 108 175 
98 6 107 21 103 143 87 81 
99 7 173 133 202 31 110 161 162 
100 9 106 212 186 11 33 180 225 16 56 
101 9 108 29 97 68 175 10 209 119 53 
102 7 61 96 70 114 203 184 12 
103 6 143 107 81 98 21 87 
104 9 109 216 67 72 73 28 44 90 140 
105 9 60 27 74 195 46 35 219 65 95 
106 9 100 212 11 56 186 42 16 33 225 
107 6 103 143 98 21 81 87 
108 7 101 29 209 166 10 97 68 
109 9 104 216 67 72 28 73 44 140 90 
110 4 10 209 173 166 
111 3 218 180 16 
112 9 49 158 85 217 93 150 19 47 69 
113 8 25 155 177 185 190 146 157 163 
114 9 203 24 172 138 61 102 188 3 171 
115 9 63 41 43 132 128 15 64 40 77 
116 9 95 205 94 22 52 71 46 124 50 
117 9 53 68 30 175 119 129 230 75 161 
118 9 210 127 176 187 136 207 26 3 78 
119 9 161 68 117 53 10 75 175 173 101 
120 9 23 136 187 207 176 118 210 127 51 
121 9 91 18 4 62 225 221 76 186 168 
122 8 14 16 218 46 111 50 193 180 
123 6 38 40 135 77 2 8 
124 7 94 71 75 22 133 202 116 
125 9 128 73 132 41 72 67 9 77 115 
126 6 86 152 97 55 29 191 
127 9 118 210 26 207 187 176 78 136 141 
128 9 41 132 115 63 125 43 15 77 64 
129 9 30 230 53 117 52 175 68 50 22 
130 9 66 139 211 8 59 2 84 74 35 
131 8 82 45 61 13 203 120 24 23 
132 9 41 128 63 115 43 125 77 15 40 
133 7 202 99 173 124 90 75 31 
134 8 69 144 47 49 93 112 4 80 
135 8 2 38 8 77 123 66 211 84 
136 9 187 120 176 118 210 207 127 23 26 
137 6 13 45 198 96 131 102 
138 9 172 114 188 24 203 3 151 171 226 
139 8 130 59 74 211 66 35 195 8 
140 7 44 28 162 31 216 109 104 
141 2 170 26 
142 4 227 229 192 6 
143 6 103 107 81 98 21 87 
144 8 47 69 134 4 93 80 49 19 
145 6 179 168 159 17 164 62 
146 3 177 155 25 
147 6 154 36 153 223 220 149 
148 8 208 165 196 213 32 167 214 184 
149 6 169 153 154 36 147 189 
150 9 217 19 85 80 93 49 158 36 154 
151 7 3 200 226 78 206 176 210 
152 5 86 126 97 29 55 
153 7 154 36 149 147 169 158 85 
154 7 36 153 147 85 158 149 217 
155 7 25 113 177 146 185 190 163 
156 7 5 189 220 222 79 223 191 
157 7 185 84 113 25 155 190 177 
158 9 85 217 153 36 154 49 112 150 169 
159 6 17 181 164 197 224 145 
160 7 34 183 215 83 58 89 199 
161 9 119 10 173 68 75 117 53 209 110 
162 5 31 44 140 28 99 
163 8 88 65 25 155 219 113 177 185 
164 4 181 159 197 17 
165 9 196 148 208 213 32 184 204 199 167 
166 4 209 10 108 110 
167 8 214 32 208 148 213 54 196 165 
168 8 179 145 62 159 17 18 201 224 
169 7 149 153 154 36 158 189 147 
170 2 141 26 
171 9 12 184 32 196 70 165 204 148 208 
172 9 138 114 24 203 188 3 151 226 61 
173 8 99 133 110 161 202 10 119 75 
174 2 6 192 
175 9 68 230 53 117 30 101 129 119 29 
176 9 210 118 187 3 136 127 78 151 206 
177 5 155 113 25 146 190 
178 5 65 27 219 88 163 
179 6 145 168 159 17 62 164 
180 6 33 16 218 186 111 228 
181 5 197 164 17 159 224 
182 4 193 14 37 111 
183 6 83 160 39 34 215 194 
184 9 12 204 70 196 171 165 199 148 32 
185 8 157 113 25 155 177 84 190 163 
186 8 33 180 100 18 76 228 16 201 
187 9 136 118 176 210 127 207 120 26 3 
188 9 138 226 172 151 171 200 3 37 32 
189 7 156 5 149 220 169 79 222 
190 6 177 113 155 25 146 157 
191 6 79 222 55 223 220 5 
192 7 6 92 174 48 227 142 229 
193 3 182 14 111 
194 5 39 183 83 160 34 
195 9 35 27 219 65 105 74 59 163 178 
196 9 165 148 208 32 184 12 213 204 167 
197 4 181 164 224 17 
198 5 96 13 45 102 137 
199 9 204 34 184 165 196 70 12 148 208 
200 5 226 151 206 78 3 
201 7 76 224 228 18 62 17 159 
202 7 133 99 90 173 124 31 28 
203 9 114 24 61 172 138 102 176 3 188 
204 9 199 184 70 12 196 165 148 34 208 
205 9 52 116 95 22 50 71 94 46 129 
206 5 78 200 151 3 226 
207 9 127 51 26 187 118 136 210 176 120 
208 7 148 165 213 196 32 167 214 
209 5 166 10 110 108 161 
210 9 118 176 127 187 3 78 136 26 206 
211 9 66 8 130 2 59 84 139 135 157 
212 7 11 56 106 42 100 225 221 
213 7 208 148 165 167 196 214 32 
214 6 167 54 32 208 213 148 
215 4 58 89 160 34 
216 9 109 104 28 44 90 67 140 73 31 
217 9 150 85 19 158 49 36 154 93 80 
218 5 111 180 16 122 33 
219 8 65 27 195 35 163 88 178 25 
220 6 223 79 191 222 5 156 
221 9 225 80 42 11 19 4 93 150 56 
222 7 79 191 55 5 220 223 156 
223 6 220 191 79 222 55 5 
224 7 201 228 181 17 197 76 159 
225 9 221 11 42 212 56 80 100 4 19 
226 6 200 151 3 188 206 78 
227 4 142 229 192 6 
228 5 201 224 76 18 197 
229 7 142 227 192 168 91 179 6 
230 9 30 175 129 53 68 117 101 119 52 
DEPOT_SECTION
   1
   -1
EOF
