NAME :  X-n317-kX-w63-c7.cctp
COMMENT : 	Adapted by Maziero, Usberti and Cavellucci from the Uchoa, Pecin, Pessoa, Poggi, Subramanian, and Vidal (2013)
TYPE :  CCTP
DIMENSION :    262
EDGE_WEIGHT_TYPE : 	EUC_2D	
CAPACITY : 	6
VERTICES_WITHIN_COVERAGE :  7
VERTICES_WITH_DEMAND : 	63
NODE_COORD_SECTION
1 0 0
2 971 544
3 564 976
4 266 4
5 395 95
6 379 271
7 936 538
8 980 578
9 242 92
10 476 74
11 247 159
12 359 108
13 473 941
14 490 947
15 548 950
16 389 864
17 916 664
18 212 91
19 415 182
20 961 553
21 423 232
22 596 931
23 955 566
24 534 93
25 252 6
26 950 580
27 517 950
28 942 618
29 636 981
30 629 809
31 508 35
32 108 130
33 391 19
34 208 183
35 991 680
36 428 48
37 272 220
38 931 581
39 327 128
40 966 514
41 313 202
42 267 1
43 404 925
44 985 594
45 895 429
46 348 12
47 316 258
48 238 20
49 970 490
50 854 586
51 293 104
52 628 919
53 880 597
54 353 241
55 753 728
56 291 93
57 993 439
58 382 125
59 230 36
60 984 471
61 489 23
62 277 137
63 593 171
64 378 204
65 411 87
66 207 85
67 906 631
68 445 68
69 673 268
70 953 504
71 530 11
72 632 879
73 353 851
74 629 868
75 593 896
76 936 411
77 276 93
78 359 894
79 548 998
80 52 69
81 507 145
82 451 162
83 646 996
84 532 906
85 220 126
86 482 212
87 978 506
88 300 111
89 907 711
90 222 137
91 423 67
92 268 125
93 434 25
94 371 256
95 440 179
96 965 439
97 447 40
98 785 664
99 915 669
100 468 98
101 247 6
102 260 110
103 902 679
104 926 874
105 587 988
106 368 419
107 351 158
108 967 685
109 559 968
110 984 540
111 380 89
112 886 376
113 943 408
114 420 204
115 386 78
116 219 18
117 497 961
118 542 965
119 718 869
120 606 959
121 575 99
122 330 101
123 257 22
124 600 994
125 951 536
126 534 896
127 297 96
128 438 917
129 385 883
130 233 239
131 481 945
132 602 752
133 592 151
134 267 82
135 587 946
136 728 991
137 242 136
138 292 9
139 494 918
140 2 149
141 24 105
142 933 577
143 227 49
144 651 947
145 991 512
146 805 704
147 628 824
148 199 18
149 833 534
150 633 864
151 343 42
152 565 991
153 603 996
154 404 30
155 393 81
156 553 985
157 652 868
158 472 900
159 824 545
160 370 189
161 196 21
162 590 878
163 551 951
164 480 48
165 384 185
166 327 228
167 567 966
168 537 964
169 929 577
170 336 12
171 496 953
172 250 252
173 238 63
174 245 222
175 231 37
176 512 13
177 868 481
178 994 635
179 697 87
180 989 535
181 462 954
182 355 240
183 817 544
184 196 66
185 389 36
186 413 62
187 277 111
188 245 95
189 878 469
190 407 109
191 999 601
192 974 433
193 578 969
194 548 784
195 519 21
196 986 436
197 483 19
198 420 197
199 825 609
200 347 96
201 967 530
202 749 542
203 271 20
204 307 72
205 821 398
206 147 97
207 950 512
208 394 190
209 962 584
210 934 530
211 611 926
212 323 185
213 966 530
214 378 189
215 334 189
216 265 136
217 303 315
218 562 977
219 995 477
220 862 649
221 379 190
222 935 565
223 178 11
224 465 237
225 214 179
226 479 913
227 903 530
228 379 102
229 268 8
230 922 511
231 403 33
232 289 71
233 374 90
234 557 25
235 957 581
236 134 103
237 554 116
238 392 111
239 200 392
240 929 514
241 521 905
242 341 210
243 394 77
244 339 130
245 938 635
246 315 258
247 970 710
248 402 128
249 954 450
250 528 302
251 353 113
252 611 991
253 235 12
254 958 520
255 521 76
256 334 23
257 591 913
258 589 956
259 568 972
260 983 621
261 418 817
262 334 176
DEMAND_SECTION
2 1
3 1
4 1
5 1
6 1
7 1
8 1
9 1
10 1
11 1
12 1
13 1
14 1
15 1
16 1
17 1
18 1
19 1
20 1
21 1
22 1
23 1
24 1
25 1
26 1
27 1
28 1
29 1
30 1
31 1
32 1
33 1
34 1
35 1
36 1
37 1
38 1
39 1
40 1
41 1
42 1
43 1
44 1
45 1
46 1
47 1
48 1
49 1
50 1
51 1
52 1
53 1
54 1
55 1
56 1
57 1
58 1
59 1
60 1
61 1
62 1
63 1
64 1
COVERAGE_SECTION
2 7 20 110 201 213 180 125 23 
3 7 218 259 109 167 156 152 193 
4 7 42 229 25 203 101 123 138 
5 7 155 111 238 228 65 190 243 
6 7 94 182 54 21 47 246 64 
7 7 210 125 240 222 254 20 207 
8 7 44 209 235 23 26 191 20 
9 6 188 102 134 173 18 77 
10 6 100 164 68 97 255 31 
11 7 137 216 90 62 225 92 85 
12 7 251 200 228 233 111 58 122 
13 7 131 181 14 171 226 117 139 
14 7 171 131 117 13 27 139 181 
15 4 163 118 168 109 
16 7 129 73 78 261 43 128 158 
17 7 99 103 67 245 89 28 108 
18 7 66 9 184 188 85 173 143 
19 7 198 208 114 95 165 221 214 
20 7 2 23 125 201 213 110 235 
21 7 114 198 224 19 208 64 95 
22 6 211 135 257 258 120 52 
23 7 20 26 235 209 222 142 2 
24 6 255 237 121 81 10 31 
25 7 101 4 42 229 123 253 48 
26 7 235 209 23 142 38 169 222 
27 4 171 117 168 14 
28 7 245 67 26 38 209 235 260 
29 7 83 252 153 120 144 124 105 
30 7 147 150 74 132 157 72 162 
31 7 195 61 176 197 164 71 255 
32 5 236 206 80 141 140 
33 4 154 185 231 93 
34 7 225 11 90 174 85 137 130 
35 7 108 247 178 260 245 17 99 
36 6 91 97 186 93 68 231 
37 7 174 172 130 41 166 246 47 
38 7 142 169 222 26 235 23 209 
39 7 244 122 251 88 12 107 200 
40 7 254 87 70 201 207 213 49 
41 6 212 215 242 166 262 37 
42 7 4 229 25 203 101 123 138 
43 7 128 129 78 16 181 13 158 
44 7 191 8 209 260 235 26 23 
45 5 189 76 113 112 177 
46 4 170 256 151 33 
47 7 246 166 54 182 242 94 41 
48 7 253 101 59 175 116 123 25 
49 7 87 70 40 60 219 145 207 
50 7 53 199 159 149 183 220 67 
51 7 127 88 56 187 77 92 232 
52 7 211 22 144 257 72 75 120 
53 7 50 67 38 169 220 199 142 
54 7 182 94 166 242 6 47 246 
55 7 146 98 220 199 119 30 132 
56 7 127 51 77 88 232 187 134 
57 7 196 192 96 60 219 249 49 
58 6 238 248 228 12 190 251 
59 7 175 143 48 116 253 173 123 
60 7 219 49 57 196 87 96 249 
61 7 197 31 176 164 195 71 97 
62 7 216 92 187 102 88 137 11 
63 5 133 237 121 81 24 
64 7 221 214 160 165 208 242 114 
65 5 5 155 243 190 91 
66 7 18 184 9 173 188 143 85 
67 7 245 17 28 99 53 103 220 
68 5 91 36 97 10 186 
69 7 63 133 250 179 237 121 205 
70 7 207 40 254 49 87 240 213 
71 7 195 176 234 31 61 197 164 
72 7 74 150 157 52 162 75 211 
73 7 16 78 129 261 43 128 158 
74 7 150 72 157 162 147 75 52 
75 7 257 162 22 211 52 72 74 
76 7 113 96 249 192 45 196 112 
77 6 134 56 187 51 127 102 
78 7 129 16 73 43 128 261 158 
79 4 156 152 218 3 
80 5 141 32 236 140 206 
81 3 237 24 82 
82 2 95 19 
83 7 29 252 153 124 144 120 105 
84 6 126 241 139 27 15 163 
85 7 90 137 18 9 188 11 66 
86 4 224 95 82 21 
87 7 40 145 49 254 70 201 213 
88 7 51 127 56 187 77 39 122 
89 7 103 99 17 247 108 220 67 
90 7 85 137 11 216 225 18 102 
91 4 186 36 68 65 
92 7 216 62 102 187 137 51 77 
93 7 97 36 154 231 33 91 186 
94 7 6 54 182 64 166 47 242 
95 4 82 19 198 114 
96 7 192 249 196 57 60 113 76 
97 7 93 36 68 164 91 186 197 
98 7 146 199 55 220 50 53 103 
99 7 17 103 67 245 89 108 220 
100 3 10 68 164 
101 7 25 253 48 4 123 42 229 
102 7 92 187 188 77 9 216 134 
103 7 99 17 89 67 220 245 108 
104 7 89 247 108 103 35 99 119 
105 7 124 153 193 152 252 259 3 
106 7 217 6 94 47 246 239 54 
107 6 262 244 215 160 39 212 
108 7 35 247 99 17 178 245 89 
109 5 167 3 218 259 118 
110 7 180 2 201 213 20 145 40 
111 6 233 115 228 155 5 243 
112 7 45 76 113 205 189 249 96 
113 7 76 96 192 249 196 45 57 
114 7 198 19 21 208 95 165 64 
115 5 155 243 111 233 5 
116 7 253 48 148 59 175 161 101 
117 5 171 14 27 131 13 
118 3 168 15 109 
119 7 157 150 72 74 147 52 144 
120 6 258 135 22 193 252 211 
121 7 237 24 133 255 63 234 81 
122 4 200 251 39 12 
123 7 203 25 229 48 101 4 42 
124 7 153 252 105 193 152 120 29 
125 7 7 213 201 254 210 20 2 
126 5 84 241 139 15 27 
127 7 56 51 88 77 187 204 232 
128 7 43 158 226 13 181 131 139 
129 7 16 78 73 43 128 261 158 
130 7 172 174 37 34 225 11 246 
131 7 13 14 171 181 117 139 226 
132 5 30 194 147 150 74 
133 5 63 237 121 24 81 
134 4 77 232 56 188 
135 6 258 22 120 193 167 211 
136 7 83 144 29 252 119 52 153 
137 7 90 216 11 85 92 102 62 
138 4 203 229 4 42 
139 6 226 158 14 131 241 13 
140 5 141 80 32 236 206 
141 5 80 140 32 236 206 
142 7 38 169 222 26 235 23 209 
143 6 59 175 173 48 116 184 
144 7 52 29 211 120 83 22 252 
145 7 87 180 40 110 49 201 213 
146 7 98 55 220 199 103 89 99 
147 7 30 150 74 157 72 162 132 
148 7 161 116 223 59 253 175 48 
149 5 159 183 50 177 227 
150 7 74 72 157 147 162 75 30 
151 3 256 46 170 
152 5 156 218 3 79 259 
153 7 124 252 105 29 120 193 152 
154 5 231 185 33 36 93 
155 5 243 115 5 111 65 
156 4 218 152 3 79 
157 7 150 72 74 147 52 30 162 
158 6 226 139 128 13 131 241 
159 6 183 149 50 199 202 53 
160 6 214 221 165 64 208 107 
161 7 148 223 116 59 175 253 48 
162 7 75 257 74 72 150 211 22 
163 4 15 118 109 168 
164 7 10 61 197 31 97 68 176 
165 6 214 221 208 160 64 19 
166 7 242 54 41 182 47 246 215 
167 5 259 109 3 193 218 
168 2 118 15 
169 7 38 142 222 26 23 235 209 
170 4 256 46 151 138 
171 7 14 117 131 27 13 181 139 
172 7 130 174 37 246 47 41 34 
173 4 143 175 59 9 
174 7 130 37 172 225 34 11 41 
175 7 59 143 48 116 253 173 123 
176 7 195 71 31 61 197 164 234 
177 3 189 45 227 
178 7 260 191 44 35 28 245 108 
179 7 121 133 63 237 234 24 255 
180 7 110 2 145 201 213 40 87 
181 7 13 131 14 171 117 128 226 
182 7 54 94 166 242 6 47 64 
183 5 159 149 50 199 202 
184 7 66 18 143 173 59 161 175 
185 3 231 154 33 
186 3 91 36 243 
187 7 51 92 102 77 56 88 127 
188 6 9 102 134 77 18 173 
189 3 177 45 230 
190 4 238 5 248 65 
191 7 44 260 8 178 209 235 26 
192 7 96 196 57 249 60 113 76 
193 6 259 167 3 258 218 109 
194 4 132 30 147 162 
195 7 176 71 31 61 197 234 164 
196 7 57 192 96 60 249 219 113 
197 7 61 164 31 176 195 97 71 
198 7 114 19 95 208 21 165 221 
199 7 50 220 53 159 183 98 149 
200 3 12 122 251 
201 7 213 254 2 40 125 110 180 
202 6 183 159 149 199 50 98 
203 6 229 123 4 42 25 138 
204 3 232 56 127 
205 6 112 45 189 177 76 113 
206 5 236 32 184 66 18 
207 7 70 254 40 240 125 210 213 
208 7 165 221 214 64 19 160 198 
209 7 235 26 8 23 44 142 20 
210 7 7 240 125 230 207 254 227 
211 7 22 52 257 135 120 75 258 
212 6 215 262 41 242 107 166 
213 7 201 254 2 40 125 110 20 
214 6 221 165 160 64 208 19 
215 6 212 262 242 41 107 160 
216 7 92 62 137 102 187 11 51 
217 7 47 246 172 6 54 94 166 
218 6 3 259 109 156 167 152 
219 7 60 49 87 145 57 196 40 
220 7 67 103 199 53 17 99 50 
221 6 214 165 160 64 208 19 
222 7 142 169 38 23 26 7 235 
223 6 161 148 116 253 59 184 
224 5 86 21 114 198 95 
225 7 34 11 90 137 85 174 130 
226 6 158 139 13 131 14 128 
227 5 230 210 240 7 222 
228 7 111 233 238 5 12 58 115 
229 7 4 42 203 25 123 101 138 
230 6 240 210 227 207 7 70 
231 4 154 185 33 36 
232 5 204 56 134 77 127 
233 6 111 228 115 155 5 12 
234 7 71 195 176 31 255 61 24 
235 7 209 26 23 8 142 38 222 
236 5 206 32 184 66 18 
237 6 121 24 133 255 81 63 
238 6 190 5 228 58 248 111 
239 7 217 172 130 106 174 47 246 
240 7 230 210 207 7 70 254 125 
241 6 84 126 139 226 27 158 
242 7 215 166 41 212 54 182 262 
243 4 155 115 5 111 
244 6 39 251 12 107 122 200 
245 7 28 67 17 99 260 38 26 
246 7 47 166 54 182 242 41 94 
247 7 108 35 89 99 17 103 178 
248 3 58 190 238 
249 7 96 192 196 60 57 49 76 
250 5 224 86 21 63 114 
251 6 12 200 244 122 228 39 
252 7 153 124 105 29 120 83 193 
253 7 48 101 116 25 123 59 175 
254 7 40 207 201 213 70 125 87 
255 7 24 31 10 164 237 195 100 
256 4 170 46 151 138 
257 6 75 22 211 135 162 52 
258 6 135 120 193 167 22 259 
259 7 3 167 218 109 193 152 156 
260 7 178 191 44 28 8 209 245 
261 7 16 73 129 78 158 128 43 
262 6 215 212 107 41 242 160 
DEPOT_SECTION
   1
   -1
EOF
