NAME :  X-n351-kX-w70-c7.cctp
COMMENT : 	Adapted by Maziero, Usberti and Cavellucci from the Uchoa, Pecin, Pessoa, Poggi, Subramanian, and Vidal (2013)
TYPE :  CCTP
DIMENSION :    298
EDGE_WEIGHT_TYPE : 	EUC_2D	
CAPACITY : 	436
VERTICES_WITHIN_COVERAGE :  7
VERTICES_WITH_DEMAND : 	70
NODE_COORD_SECTION
1 500 500
2 740 442
3 261 710
4 578 522
5 562 509
6 795 425
7 636 463
8 645 617
9 595 524
10 649 599
11 745 252
12 180 757
13 590 598
14 332 775
15 544 551
16 1000 444
17 581 521
18 240 609
19 700 468
20 735 579
21 403 569
22 352 905
23 733 352
24 289 705
25 598 249
26 565 570
27 711 336
28 816 497
29 769 411
30 409 651
31 231 742
32 575 555
33 567 477
34 693 537
35 521 534
36 457 414
37 826 450
38 638 617
39 245 744
40 235 859
41 233 821
42 863 455
43 739 480
44 311 717
45 567 373
46 753 427
47 547 493
48 732 382
49 664 511
50 945 316
51 250 770
52 598 493
53 262 653
54 568 558
55 877 808
56 395 796
57 467 732
58 685 327
59 260 910
60 571 648
61 747 398
62 571 650
63 541 442
64 841 466
65 744 725
66 662 349
67 686 543
68 184 776
69 177 770
70 664 559
71 802 446
72 662 566
73 605 544
74 287 671
75 556 738
76 615 511
77 293 693
78 375 671
79 383 614
80 834 417
81 704 397
82 255 696
83 708 388
84 799 172
85 740 456
86 661 582
87 659 461
88 630 290
89 267 721
90 682 474
91 269 639
92 577 361
93 540 550
94 370 733
95 546 587
96 724 572
97 416 688
98 544 794
99 714 478
100 916 502
101 313 770
102 464 361
103 356 921
104 477 721
105 733 447
106 724 495
107 272 792
108 348 505
109 595 628
110 227 720
111 582 503
112 235 788
113 716 440
114 826 476
115 738 475
116 676 446
117 388 669
118 465 690
119 543 422
120 675 544
121 770 613
122 434 594
123 647 551
124 468 405
125 0 863
126 663 582
127 209 755
128 966 516
129 580 593
130 221 558
131 230 594
132 329 768
133 786 523
134 636 512
135 704 474
136 516 472
137 724 505
138 565 501
139 404 589
140 663 527
141 901 693
142 254 640
143 726 813
144 253 708
145 269 730
146 823 519
147 586 689
148 739 421
149 706 519
150 726 423
151 614 525
152 643 328
153 793 426
154 221 731
155 290 732
156 709 310
157 654 492
158 745 370
159 459 639
160 618 570
161 613 528
162 258 637
163 722 421
164 535 578
165 242 624
166 371 387
167 835 757
168 764 425
169 771 480
170 242 763
171 670 520
172 580 482
173 292 823
174 547 443
175 807 780
176 520 622
177 555 484
178 747 340
179 228 846
180 760 446
181 734 451
182 604 277
183 790 405
184 680 445
185 741 460
186 244 758
187 600 503
188 562 518
189 852 489
190 577 553
191 235 755
192 187 725
193 724 328
194 775 451
195 283 660
196 195 572
197 830 457
198 205 739
199 733 341
200 884 418
201 434 452
202 716 458
203 495 573
204 579 545
205 228 725
206 420 730
207 626 499
208 555 449
209 551 554
210 177 983
211 794 430
212 771 573
213 487 291
214 789 477
215 273 752
216 521 478
217 677 456
218 505 327
219 453 744
220 321 753
221 509 497
222 749 451
223 633 815
224 796 429
225 341 677
226 797 485
227 571 649
228 857 439
229 587 776
230 750 412
231 752 393
232 170 716
233 831 441
234 591 407
235 605 549
236 201 625
237 300 676
238 548 478
239 637 450
240 706 463
241 611 574
242 176 761
243 404 508
244 257 707
245 780 394
246 729 472
247 547 462
248 379 817
249 539 556
250 498 909
251 275 706
252 726 426
253 269 637
254 780 439
255 724 478
256 832 405
257 512 428
258 623 445
259 763 481
260 817 463
261 755 418
262 655 522
263 286 645
264 320 745
265 289 737
266 636 260
267 679 590
268 256 618
269 264 677
270 326 681
271 229 729
272 553 266
273 519 526
274 692 552
275 709 509
276 547 655
277 794 421
278 189 728
279 565 676
280 687 334
281 298 705
282 582 478
283 737 579
284 458 895
285 663 391
286 394 639
287 352 782
288 621 303
289 440 831
290 748 593
291 400 547
292 268 721
293 578 616
294 648 377
295 446 574
296 502 571
297 574 593
298 459 466
DEMAND_SECTION
2 43
3 82
4 57
5 51
6 29
7 55
8 71
9 35
10 28
11 36
12 18
13 42
14 79
15 88
16 68
17 99
18 10
19 11
20 77
21 68
22 44
23 17
24 60
25 33
26 30
27 37
28 87
29 18
30 6
31 42
32 1
33 22
34 78
35 94
36 65
37 88
38 28
39 29
40 34
41 87
42 47
43 53
44 44
45 34
46 94
47 70
48 41
49 28
50 80
51 32
52 20
53 16
54 70
55 22
56 96
57 81
58 23
59 46
60 2
61 56
62 45
63 66
64 7
65 64
66 73
67 51
68 64
69 81
70 86
71 52
COVERAGE_SECTION
2 7 105 181 222 85 185 46 180 
3 7 244 144 89 292 82 251 145 
4 7 17 188 9 111 5 204 138 
5 7 138 188 4 111 17 47 177 
6 7 153 224 277 211 183 254 71 
7 5 239 258 87 157 207 
8 7 38 10 86 126 267 109 72 
9 7 17 4 161 151 73 187 76 
10 7 8 38 86 126 267 72 160 
11 7 156 193 178 199 27 58 84 
12 7 242 69 68 127 278 198 192 
13 7 129 297 293 109 241 26 160 
14 7 132 101 287 220 264 94 265 
15 7 93 249 209 54 26 164 35 
16 6 128 100 200 42 50 228 
17 7 4 9 111 188 5 204 138 
18 6 165 131 268 162 142 253 
19 6 135 240 99 90 202 217 
20 6 283 96 290 212 121 274 
21 7 139 291 122 295 79 243 286 
22 7 103 59 248 173 284 289 56 
23 7 199 178 158 193 27 48 83 
24 7 281 77 251 44 292 89 155 
25 7 182 266 272 88 288 152 92 
26 7 54 32 190 209 95 297 129 
27 7 193 199 280 156 23 58 178 
28 7 226 114 146 214 260 189 64 
29 7 168 261 230 245 183 46 231 
30 7 286 117 97 78 79 159 122 
31 7 271 39 191 154 205 186 110 
32 7 190 54 204 26 209 15 235 
33 7 172 177 282 238 138 247 47 
34 7 67 274 120 149 171 140 275 
35 7 273 93 249 15 209 221 296 
36 6 124 201 298 102 257 136 
37 7 197 233 260 64 71 114 228 
38 7 8 10 86 126 109 267 160 
39 7 31 186 191 170 271 205 51 
40 7 179 41 59 173 112 107 51 
41 7 179 112 40 107 51 170 173 
42 7 228 64 197 233 189 37 114 
43 6 115 246 255 185 106 85 
44 7 281 24 155 264 77 265 220 
45 5 92 234 119 174 63 
46 7 261 168 148 230 2 180 29 
47 7 177 238 138 5 33 188 216 
48 7 158 61 231 83 23 81 230 
49 7 171 262 140 157 134 120 34 
50 2 200 16 
51 7 170 186 191 112 39 215 107 
52 7 187 111 172 282 76 207 9 
53 7 142 91 162 253 195 269 263 
54 7 32 190 26 204 209 15 93 
55 6 167 175 141 143 65 121 
56 7 248 287 289 14 94 206 132 
57 7 104 219 118 206 97 75 159 
58 7 280 27 156 66 193 152 199 
59 7 40 179 22 41 173 103 210 
60 7 227 62 276 279 109 293 147 
61 7 231 230 48 261 148 29 158 
62 7 227 60 276 279 109 293 147 
63 7 174 208 119 247 257 238 136 
64 7 197 114 37 260 42 189 233 
65 6 175 143 167 121 290 223 
66 5 152 280 294 58 285 
67 7 34 120 274 70 140 171 149 
68 7 69 242 12 127 198 278 192 
69 7 68 242 12 127 198 278 192 
70 7 72 120 123 86 126 67 274 
71 7 211 224 6 153 254 260 37 
72 7 70 86 126 123 120 267 67 
73 6 235 161 151 9 204 160 
74 7 195 237 77 269 263 53 24 
75 7 229 98 147 279 104 276 57 
76 7 151 207 161 187 134 9 52 
77 7 24 281 237 251 74 44 269 
78 6 117 225 286 30 97 270 
79 6 286 139 30 21 117 122 
80 7 256 233 228 37 6 197 224 
81 5 83 163 48 150 252 
82 5 244 144 3 269 251 
83 5 81 48 163 150 61 
84 5 11 156 193 178 199 
85 7 185 181 222 105 2 115 246 
86 7 126 72 267 10 70 123 8 
87 6 217 7 116 239 90 184 
88 7 288 182 266 152 25 58 66 
89 7 292 145 3 244 251 144 155 
90 7 19 217 135 87 240 116 184 
91 5 253 162 142 53 263 
92 5 45 234 119 288 294 
93 7 15 249 209 35 164 54 26 
94 7 206 264 287 220 132 14 44 
95 7 164 26 297 249 209 129 15 
96 7 20 283 290 274 34 212 67 
97 7 117 30 206 78 118 286 94 
98 7 229 75 223 57 104 219 289 
99 6 255 135 246 19 240 106 
100 7 128 189 42 64 228 200 114 
101 7 132 220 14 264 265 287 155 
102 7 124 36 218 213 257 201 166 
103 7 22 59 284 248 173 289 56 
104 7 57 118 219 206 97 75 159 
105 7 181 2 85 185 222 113 202 
106 7 137 255 99 43 275 115 246 
107 7 51 112 173 215 170 186 101 
108 3 243 291 21 
109 7 293 13 60 227 62 129 297 
110 4 205 271 154 31 
111 7 138 17 187 4 52 5 172 
112 7 51 170 186 41 191 107 127 
113 7 252 105 202 150 163 181 2 
114 7 260 64 197 28 37 189 226 
115 6 43 246 255 185 85 99 
116 5 184 217 87 90 19 
117 6 78 30 286 97 225 79 
118 7 104 57 97 159 219 206 30 
119 7 63 174 208 257 247 234 45 
120 7 67 34 70 274 140 171 72 
121 4 290 212 283 20 
122 7 295 139 21 159 79 291 286 
123 6 70 72 120 140 262 86 
124 6 36 102 257 201 298 119 
125 5 69 242 68 12 210 
126 7 86 72 267 10 70 123 8 
127 7 198 31 191 154 12 68 271 
128 7 100 16 189 42 200 228 64 
129 7 297 13 293 26 95 241 54 
130 6 196 131 18 165 268 236 
131 7 18 165 268 130 196 236 162 
132 7 14 101 220 264 287 265 155 
133 6 146 28 226 169 214 259 
134 6 207 76 262 151 157 49 
135 6 19 99 240 202 255 90 
136 6 216 221 238 247 47 63 
137 7 106 275 149 255 43 99 115 
138 7 5 111 188 47 177 33 172 
139 7 21 122 79 291 295 286 30 
140 7 262 171 49 120 67 123 134 
141 4 167 55 175 121 
142 6 162 53 91 253 165 268 
143 7 175 65 223 167 229 55 98 
144 6 244 3 82 89 292 251 
145 7 89 292 155 265 3 215 251 
146 6 28 133 189 114 226 214 
147 7 279 62 227 60 276 75 109 
148 7 150 230 252 46 261 163 2 
149 7 275 34 137 106 67 171 274 
150 6 252 163 148 113 2 105 
151 6 161 76 9 73 134 187 
152 7 66 288 88 58 280 294 182 
153 7 6 211 224 277 254 183 71 
154 7 271 205 110 31 198 39 127 
155 7 265 145 89 292 44 215 24 
156 7 193 27 58 280 199 23 178 
157 7 49 134 207 262 87 171 90 
158 7 48 23 231 61 178 199 83 
159 7 30 118 122 176 97 286 295 
160 6 241 235 73 123 13 10 
161 6 151 76 9 73 235 134 
162 5 142 91 253 53 268 
163 6 150 252 148 113 2 105 
164 6 95 249 15 93 209 26 
165 5 18 268 142 162 253 
166 6 36 201 102 124 298 108 
167 6 175 55 141 65 143 121 
168 7 46 261 29 230 180 254 148 
169 6 259 214 226 194 43 115 
170 7 186 51 191 39 31 112 215 
171 7 140 49 262 120 67 34 157 
172 7 282 33 52 111 138 177 187 
173 7 107 101 41 14 132 40 112 
174 7 63 208 247 119 238 257 33 
175 7 167 55 65 143 141 121 223 
176 6 276 95 164 296 203 60 
177 7 238 47 33 138 247 172 5 
178 7 199 23 193 158 27 48 156 
179 7 40 41 112 173 107 59 51 
180 7 222 194 2 46 168 254 85 
181 7 105 85 2 185 222 202 113 
182 7 25 88 288 266 272 152 92 
183 7 245 277 6 153 29 211 224 
184 5 116 217 87 90 19 
185 7 85 181 222 105 115 246 2 
186 7 170 191 51 39 31 215 112 
187 7 52 76 111 9 17 151 207 
188 7 5 4 138 17 111 47 204 
189 7 64 114 42 28 197 146 260 
190 7 32 204 54 26 209 235 73 
191 7 186 170 31 39 51 127 271 
192 7 278 232 198 12 154 127 242 
193 7 27 199 156 23 178 280 58 
194 6 254 180 222 71 168 211 
195 7 74 263 53 237 91 269 253 
196 6 130 131 236 18 165 268 
197 7 37 64 260 233 114 71 228 
198 7 127 154 278 192 31 271 205 
199 7 23 178 193 27 158 156 48 
200 6 228 42 80 256 233 64 
201 6 298 36 124 243 257 136 
202 6 240 113 19 181 246 99 
203 6 296 164 35 249 295 93 
204 7 190 32 54 4 17 9 73 
205 5 271 110 154 31 39 
206 7 219 97 57 94 104 118 117 
207 7 76 134 187 52 151 157 161 
208 7 174 247 63 33 119 238 177 
209 7 15 93 249 54 26 32 190 
210 7 59 40 179 41 103 22 173 
211 7 224 153 6 277 254 71 183 
212 3 290 283 20 
213 7 218 272 102 92 45 124 182 
214 6 226 169 259 194 260 28 
215 7 145 265 155 39 51 186 292 
216 6 136 221 238 47 247 177 
217 6 116 184 87 90 19 240 
218 7 213 102 45 272 92 124 36 
219 7 57 104 206 118 97 56 94 
220 7 264 132 101 14 265 44 155 
221 6 216 136 273 47 35 238 
222 7 85 180 185 2 181 105 46 
223 7 229 98 143 75 147 65 279 
224 7 211 6 153 277 71 254 183 
225 6 270 78 237 117 44 77 
226 6 214 28 169 114 260 259 
227 7 60 62 276 279 109 293 147 
228 7 42 233 64 80 197 37 200 
229 7 98 75 223 147 279 104 62 
230 7 261 61 148 46 29 168 231 
231 7 61 230 48 158 29 261 245 
232 5 192 278 12 198 242 
233 7 37 197 80 228 260 64 71 
234 3 45 92 119 
235 7 73 161 160 151 204 241 9 
236 4 165 18 131 196 
237 7 74 77 195 270 281 24 263 
238 7 177 47 247 33 216 138 208 
239 3 7 258 87 
240 6 19 135 202 99 255 113 
241 7 160 235 73 13 129 190 32 
242 7 12 69 68 127 278 198 192 
243 7 291 108 21 201 298 295 139 
244 6 144 3 82 89 251 292 
245 7 183 29 231 277 61 6 153 
246 6 255 115 43 99 185 85 
247 7 208 238 174 63 177 33 47 
248 7 56 287 14 289 132 101 94 
249 7 93 15 209 164 35 54 26 
250 7 284 289 98 103 22 248 56 
251 7 24 3 89 292 244 77 82 
252 6 150 163 148 113 2 105 
253 5 91 162 142 53 263 
254 7 194 211 153 224 6 168 180 
255 6 246 99 115 43 106 135 
256 6 80 233 277 6 183 228 
257 6 63 119 174 136 208 247 
258 2 239 7 
259 6 169 43 115 214 185 194 
260 7 197 37 114 71 64 233 226 
261 7 230 46 168 29 148 61 231 
262 6 140 49 171 134 120 123 
263 5 195 91 253 53 74 
264 7 220 132 101 44 14 265 155 
265 7 155 145 215 292 89 44 24 
266 7 88 182 25 288 152 58 272 
267 7 126 86 72 10 70 274 8 
268 5 165 18 162 142 253 
269 6 82 53 74 195 244 251 
270 6 225 237 77 281 44 74 
271 7 205 154 110 31 39 198 191 
272 7 25 182 213 288 218 88 266 
273 7 35 221 93 15 249 47 209 
274 7 67 34 120 70 72 149 96 
275 7 149 137 106 99 34 255 135 
276 7 60 62 227 279 176 293 147 
277 7 6 153 224 211 183 254 71 
278 7 192 198 232 12 154 127 242 
279 7 147 62 227 276 60 109 293 
280 7 58 27 66 156 193 152 199 
281 7 24 77 44 251 155 237 265 
282 7 172 33 52 111 177 138 187 
283 5 20 96 290 212 121 
284 7 250 289 103 22 248 56 98 
285 3 294 81 66 
286 6 30 79 117 78 139 97 
287 7 14 132 101 220 248 56 264 
288 7 88 182 152 266 25 66 58 
289 7 56 248 284 219 250 287 57 
290 5 283 20 121 212 96 
291 7 21 243 139 295 122 108 79 
292 7 89 145 3 251 244 144 155 
293 7 109 13 129 297 60 227 62 
294 3 285 66 152 
295 6 122 21 139 203 291 296 
296 6 203 164 249 35 93 15 
297 7 129 13 293 26 95 54 32 
298 6 201 36 136 221 124 216 
DEPOT_SECTION
   1
   -1
EOF
