NAME :  X-n313-kX-w62-c9.cctp
COMMENT : 	Adapted by Maziero, Usberti and Cavellucci from the Uchoa, Pecin, Pessoa, Poggi, Subramanian, and Vidal (2013)
TYPE :  CCTP
DIMENSION :    227
EDGE_WEIGHT_TYPE : 	EUC_2D	
CAPACITY : 	248
VERTICES_WITHIN_COVERAGE :  9
VERTICES_WITH_DEMAND : 	62
NODE_COORD_SECTION
1 471 44
2 63 475
3 766 504
4 895 595
5 816 377
6 462 590
7 997 596
8 775 993
9 16 97
10 839 348
11 558 896
12 423 912
13 169 411
14 75 602
15 402 52
16 388 208
17 202 39
18 510 841
19 555 484
20 920 633
21 369 718
22 432 696
23 624 872
24 472 323
25 753 701
26 584 440
27 292 665
28 202 310
29 764 255
30 662 486
31 822 575
32 469 13
33 640 165
34 814 886
35 554 82
36 336 745
37 950 229
38 142 835
39 407 932
40 69 205
41 86 764
42 202 165
43 376 632
44 639 987
45 775 98
46 503 855
47 38 960
48 215 73
49 566 78
50 4 517
51 44 457
52 676 337
53 338 568
54 623 911
55 626 931
56 97 43
57 799 942
58 725 430
59 93 953
60 264 347
61 986 595
62 631 614
63 331 362
64 158 793
65 760 436
66 115 641
67 307 764
68 469 817
69 315 388
70 906 830
71 564 25
72 88 246
73 671 892
74 181 139
75 174 403
76 76 671
77 984 939
78 830 579
79 3 893
80 176 164
81 625 158
82 249 590
83 663 347
84 21 500
85 501 372
86 572 218
87 483 270
88 604 201
89 548 281
90 205 745
91 870 931
92 759 839
93 79 105
94 218 992
95 277 797
96 545 62
97 1 827
98 719 128
99 80 366
100 16 732
101 24 521
102 848 600
103 585 594
104 618 577
105 489 239
106 768 731
107 274 30
108 546 837
109 890 640
110 594 308
111 498 448
112 54 935
113 473 5
114 906 899
115 277 752
116 435 254
117 905 275
118 521 401
119 850 425
120 374 186
121 712 433
122 814 730
123 681 74
124 120 490
125 376 534
126 982 560
127 1 332
128 815 625
129 356 868
130 659 994
131 804 110
132 415 517
133 106 844
134 549 366
135 57 742
136 381 700
137 867 408
138 67 930
139 763 186
140 581 91
141 416 56
142 163 73
143 314 748
144 580 852
145 758 736
146 110 40
147 279 995
148 181 234
149 49 83
150 285 233
151 440 768
152 205 96
153 505 113
154 491 864
155 168 63
156 1 235
157 733 735
158 449 717
159 241 173
160 222 115
161 433 647
162 425 754
163 393 883
164 247 104
165 673 627
166 811 550
167 60 207
168 477 879
169 814 654
170 717 660
171 247 178
172 635 947
173 335 108
174 16 241
175 539 903
176 511 845
177 637 586
178 196 132
179 113 192
180 655 666
181 35 140
182 845 818
183 124 65
184 320 660
185 881 701
186 417 880
187 629 972
188 58 45
189 212 89
190 499 821
191 80 162
192 412 963
193 637 812
194 689 881
195 518 897
196 516 903
197 51 208
198 481 843
199 737 665
200 448 906
201 210 251
202 490 816
203 624 845
204 558 674
205 843 646
206 454 855
207 536 845
208 450 944
209 484 809
210 778 845
211 118 296
212 416 911
213 656 825
214 244 245
215 378 177
216 585 960
217 348 762
218 302 277
219 244 146
220 672 914
221 381 465
222 484 875
223 565 560
224 681 611
225 65 87
226 193 132
227 77 212
DEMAND_SECTION
2 94
3 56
4 73
5 25
6 4
7 97
8 82
9 57
10 41
11 98
12 45
13 86
14 5
15 83
16 99
17 78
18 64
19 44
20 69
21 25
22 44
23 64
24 59
25 72
26 10
27 26
28 56
29 1
30 41
31 69
32 62
33 29
34 77
35 20
36 46
37 47
38 19
39 48
40 95
41 21
42 56
43 13
44 79
45 21
46 66
47 2
48 61
49 2
50 21
51 51
52 33
53 43
54 55
55 89
56 54
57 62
58 41
59 49
60 71
61 100
62 67
63 64
COVERAGE_SECTION
2 9 51 84 124 101 50 99 13 14 75 
3 8 166 65 58 121 31 78 30 119 
4 9 20 109 102 78 205 31 128 61 126 
5 9 10 119 137 65 58 121 29 117 3 
6 9 161 132 43 125 223 22 103 53 158 
7 9 61 126 20 4 109 102 185 205 78 
8 8 57 91 34 130 220 44 194 73 
9 9 149 181 225 93 188 191 56 146 183 
10 9 5 137 119 117 65 29 58 121 37 
11 7 175 195 196 144 207 108 54 
12 7 212 39 200 186 163 208 192 
13 9 75 124 99 28 60 2 211 51 69 
14 9 66 76 101 50 84 124 2 135 100 
15 9 141 32 113 173 153 215 107 120 96 
16 9 120 215 116 105 150 218 87 173 24 
17 7 48 155 189 142 152 107 160 
18 9 176 46 190 207 198 154 202 108 209 
19 9 26 111 223 118 30 104 103 134 85 
20 8 109 4 61 185 205 102 7 126 
21 9 136 36 217 143 22 162 184 67 158 
22 8 158 161 136 162 21 151 43 217 
23 9 203 54 144 73 213 55 193 220 194 
24 9 87 85 116 105 89 134 118 110 111 
25 5 106 145 157 199 170 
26 9 19 118 134 111 30 85 223 83 121 
27 9 184 82 143 115 43 36 21 136 67 
28 8 201 60 214 148 211 75 218 13 
29 9 139 10 52 5 98 83 117 131 33 
30 9 121 58 26 104 177 3 19 65 223 
31 7 78 166 102 128 205 4 169 
32 9 113 141 15 96 71 153 35 49 140 
33 9 81 88 86 98 140 123 49 35 139 
34 6 210 57 91 92 182 114 
35 9 49 96 140 71 153 81 32 113 33 
36 8 217 143 67 21 115 136 95 184 
37 9 117 10 29 131 139 137 5 45 119 
38 8 133 64 41 90 138 135 59 112 
39 7 212 12 192 208 200 163 186 
40 6 167 227 197 191 72 179 
41 9 135 100 64 133 38 76 97 90 66 
42 7 80 74 178 226 159 219 171 
43 9 161 184 136 53 22 21 27 6 125 
44 8 187 130 172 55 216 54 220 73 
45 9 131 98 139 123 33 29 81 140 88 
46 8 176 154 18 198 222 190 207 168 
47 9 112 138 59 79 133 97 38 94 41 
48 7 189 152 17 160 164 155 142 
49 9 35 140 96 71 153 81 33 123 32 
50 9 101 84 2 51 14 124 66 99 76 
51 9 2 84 101 50 124 99 127 13 75 
52 9 83 110 121 58 29 65 134 26 89 
53 9 125 43 82 132 184 27 221 161 6 
54 9 55 172 23 220 73 187 216 203 11 
55 9 172 54 187 220 216 44 23 73 130 
56 6 146 183 188 225 149 93 
57 7 8 34 91 210 92 114 194 
58 9 121 65 30 3 83 5 52 119 10 
59 9 138 112 47 79 133 38 94 97 64 
60 9 69 63 28 218 214 75 201 13 150 
61 9 7 126 20 4 109 102 185 205 78 
62 6 177 104 165 103 224 180 
63 9 69 60 218 221 150 28 24 214 116 
64 7 38 90 133 41 135 95 115 
65 9 58 121 3 5 119 30 137 10 166 
66 9 76 14 135 41 100 90 82 101 124 
67 6 143 115 36 217 95 21 
68 7 209 202 198 190 206 18 176 
69 9 63 60 221 218 28 75 13 125 150 
70 4 182 114 91 34 
71 9 96 49 35 140 113 32 153 123 81 
72 7 227 40 167 197 211 179 174 
73 7 194 220 23 54 55 172 203 
74 4 226 178 80 42 
75 9 13 28 99 124 60 211 2 51 69 
76 9 66 14 135 100 41 64 90 101 50 
77 7 114 91 70 34 182 57 8 
78 8 31 102 166 128 4 205 169 109 
79 9 97 112 138 47 59 133 38 41 135 
80 3 74 42 226 
81 9 33 88 86 140 49 98 123 35 96 
82 9 27 53 184 43 125 66 90 124 115 
83 9 52 110 121 58 134 26 65 89 29 
84 9 101 50 2 51 124 14 99 66 127 
85 9 118 134 24 111 89 87 26 110 19 
86 9 88 89 81 33 105 110 87 153 140 
87 9 105 116 24 89 86 85 16 134 110 
88 9 86 81 33 89 110 140 105 35 49 
89 9 110 87 86 105 134 24 88 85 116 
90 8 64 115 95 67 143 38 27 41 
91 8 114 34 57 70 8 77 182 210 
92 2 210 34 
93 8 225 149 181 191 183 9 188 56 
94 7 147 59 138 38 112 47 129 
95 5 67 115 143 36 217 
96 9 35 49 71 140 153 32 113 81 141 
97 9 79 100 135 41 133 112 138 47 38 
98 9 45 123 139 33 131 81 29 88 140 
99 8 211 127 51 13 75 2 72 124 
100 9 135 41 76 97 66 14 133 64 79 
101 9 50 84 2 51 14 124 66 76 99 
102 9 78 31 128 205 4 109 166 169 20 
103 8 104 223 62 177 204 165 224 180 
104 8 177 103 62 223 224 165 180 30 
105 9 87 116 89 24 86 16 88 110 120 
106 4 145 25 157 122 
107 9 17 48 164 189 152 173 160 155 142 
108 6 207 18 176 144 46 190 
109 8 20 4 205 102 185 128 169 78 
110 9 89 134 83 52 86 88 85 87 118 
111 9 118 19 85 26 134 132 221 24 223 
112 9 138 47 59 79 133 97 38 41 94 
113 9 32 141 15 96 71 35 153 49 140 
114 6 91 70 77 34 182 57 
115 7 67 143 95 36 90 217 27 
116 9 87 105 16 24 120 215 89 85 218 
117 9 37 10 5 137 29 119 139 131 65 
118 9 85 134 111 26 19 24 110 89 87 
119 9 137 5 10 65 3 58 166 121 31 
120 9 215 16 173 116 150 218 105 171 159 
121 9 58 65 30 3 83 52 5 26 119 
122 4 106 145 25 185 
123 9 98 45 33 81 140 49 35 71 131 
124 9 2 51 13 84 101 75 50 14 99 
125 9 132 53 221 43 6 161 184 82 111 
126 9 61 7 4 20 109 102 78 31 205 
127 8 99 174 156 72 211 51 197 167 
128 7 169 205 102 78 31 166 109 
129 4 163 186 212 12 
130 9 44 187 172 55 216 220 54 73 8 
131 9 45 139 98 123 29 33 81 37 117 
132 9 125 221 6 53 111 43 161 19 223 
133 9 38 64 41 138 112 97 59 135 79 
134 9 118 85 110 26 89 24 111 83 87 
135 9 41 100 76 97 64 133 66 38 14 
136 9 21 22 36 43 158 162 217 184 161 
137 9 119 5 10 65 117 3 58 166 121 
138 9 112 59 47 79 133 38 97 94 64 
139 9 29 98 131 45 33 123 81 88 117 
140 9 49 35 96 71 153 81 33 123 88 
141 9 15 32 113 173 153 215 96 120 35 
142 5 155 183 152 17 48 
143 8 67 36 115 217 95 21 136 27 
144 5 108 203 207 23 11 
145 4 106 157 25 122 
146 6 56 183 188 142 155 225 
147 6 94 192 39 129 163 212 
148 5 201 214 80 42 28 
149 9 225 9 93 188 181 56 146 183 191 
150 9 214 218 171 159 201 219 120 148 16 
151 6 162 158 68 209 202 22 
152 7 189 48 160 178 226 164 142 
153 9 35 96 49 140 32 71 141 113 15 
154 6 222 46 168 198 176 18 
155 5 142 17 183 48 152 
156 8 174 197 167 40 227 72 127 181 
157 3 145 106 25 
158 7 22 162 151 136 161 21 209 
159 9 171 219 42 160 178 226 80 74 164 
160 8 152 164 189 178 226 219 48 74 
161 9 22 43 6 158 136 21 162 184 151 
162 6 151 158 22 21 136 68 
163 6 186 212 129 12 39 200 
164 8 160 189 219 152 48 178 226 159 
165 5 224 180 62 170 177 
166 6 31 78 102 3 128 4 
167 8 40 197 227 72 191 179 174 156 
168 4 222 154 206 46 
169 8 128 205 102 122 25 78 109 199 
170 3 199 25 165 
171 9 159 219 42 150 214 160 178 226 80 
172 9 55 187 54 44 220 216 130 73 23 
173 9 215 15 120 164 141 107 219 171 16 
174 8 156 197 167 40 227 72 127 191 
175 5 11 195 196 207 46 
176 9 18 46 207 190 154 198 108 202 222 
177 7 104 62 224 103 165 223 180 
178 6 226 74 160 42 152 80 
179 3 227 191 40 
180 2 165 62 
181 9 9 191 93 149 225 197 167 40 227 
182 3 70 210 34 
183 5 146 56 142 155 93 
184 9 27 43 136 21 36 143 53 82 115 
185 5 109 205 122 20 169 
186 7 163 212 12 200 206 39 168 
187 8 44 172 130 55 216 54 220 73 
188 7 56 149 225 146 93 9 183 
189 8 152 48 160 164 178 226 17 155 
190 9 202 209 18 176 198 68 46 154 207 
191 6 40 179 167 181 227 197 
192 5 39 208 12 212 200 
193 4 213 203 23 144 
194 7 73 220 213 23 54 203 55 
195 5 196 175 11 222 154 
196 4 195 175 11 222 
197 9 167 40 227 174 72 191 156 179 181 
198 9 154 46 190 202 18 68 176 206 222 
199 2 170 25 
200 5 12 212 208 168 186 
201 7 148 214 28 150 171 159 42 
202 8 209 190 68 198 18 176 46 154 
203 6 23 193 213 144 54 73 
204 2 103 62 
205 9 169 128 102 109 185 78 4 31 20 
206 7 198 168 222 154 68 186 46 
207 8 108 176 18 46 190 144 154 202 
208 4 200 12 192 39 
209 7 202 68 190 198 18 176 46 
210 3 92 34 182 
211 7 72 99 28 148 227 201 40 
212 7 12 39 186 200 163 208 192 
213 4 193 203 23 194 
214 8 201 150 148 218 171 159 28 42 
215 9 120 16 173 116 150 218 15 105 141 
216 8 187 55 172 44 54 11 175 130 
217 7 36 143 67 21 136 115 162 
218 9 150 214 60 63 201 28 16 69 171 
219 9 159 171 160 164 42 178 226 74 152 
220 7 73 194 54 55 172 23 187 
221 9 132 125 69 53 63 111 6 85 118 
222 4 168 154 46 198 
223 9 103 104 19 177 62 6 204 26 30 
224 4 165 62 177 170 
225 8 149 93 188 9 56 181 183 146 
226 6 178 74 42 160 80 152 
227 6 40 167 197 72 179 191 
DEPOT_SECTION
   1
   -1
EOF
