NAME :  X-n327-kX-w32-c9.cctp
COMMENT : 	Adapted by Maziero, Usberti and Cavellucci from the Uchoa, Pecin, Pessoa, Poggi, Subramanian, and Vidal (2013)
TYPE :  CCTP
DIMENSION :    207
EDGE_WEIGHT_TYPE : 	EUC_2D	
CAPACITY : 	128
VERTICES_WITHIN_COVERAGE :  9
VERTICES_WITH_DEMAND : 	32
NODE_COORD_SECTION
1 236 951
2 735 289
3 841 735
4 846 821
5 907 810
6 55 136
7 372 422
8 437 584
9 509 822
10 57 519
11 563 333
12 750 8
13 644 692
14 123 787
15 865 618
16 833 453
17 736 643
18 90 930
19 804 192
20 435 164
21 540 911
22 747 80
23 486 239
24 511 784
25 639 247
26 337 11
27 95 706
28 719 839
29 943 421
30 55 633
31 396 807
32 916 252
33 191 716
34 666 833
35 427 307
36 4 89
37 594 197
38 910 398
39 492 214
40 974 107
41 914 556
42 384 827
43 390 873
44 70 232
45 418 29
46 128 721
47 211 129
48 910 489
49 879 676
50 359 770
51 95 631
52 920 56
53 577 407
54 178 769
55 882 228
56 759 814
57 33 412
58 423 135
59 194 121
60 970 723
61 6 206
62 392 669
63 782 300
64 107 786
65 889 855
66 68 280
67 522 848
68 653 78
69 809 404
70 620 655
71 439 605
72 990 874
73 46 236
74 980 500
75 146 430
76 795 241
77 714 554
78 89 207
79 144 648
80 482 843
81 670 150
82 615 139
83 396 409
84 799 30
85 72 916
86 917 12
87 156 769
88 86 666
89 42 261
90 494 309
91 528 311
92 697 21
93 545 665
94 675 228
95 752 812
96 180 120
97 94 979
98 348 861
99 397 753
100 311 203
101 177 491
102 280 408
103 470 132
104 386 644
105 975 360
106 466 934
107 397 598
108 658 175
109 470 227
110 157 4
111 876 714
112 780 25
113 394 658
114 697 278
115 879 723
116 522 896
117 620 103
118 790 311
119 599 866
120 761 602
121 983 317
122 933 461
123 10 773
124 834 293
125 926 186
126 370 613
127 508 847
128 103 931
129 54 978
130 753 305
131 109 937
132 602 738
133 632 674
134 40 982
135 464 945
136 408 367
137 530 770
138 924 692
139 428 765
140 358 485
141 565 728
142 443 295
143 66 938
144 495 763
145 36 884
146 74 958
147 719 301
148 698 823
149 816 412
150 292 364
151 565 958
152 429 532
153 79 947
154 559 938
155 496 961
156 135 944
157 133 940
158 531 327
159 656 685
160 552 995
161 689 723
162 615 185
163 461 850
164 447 815
165 643 652
166 544 649
167 681 805
168 592 381
169 749 816
170 49 965
171 705 802
172 858 374
173 107 882
174 44 884
175 587 702
176 520 846
177 367 393
178 457 261
179 613 339
180 670 272
181 720 840
182 81 862
183 443 557
184 365 855
185 527 416
186 524 758
187 115 966
188 391 446
189 554 866
190 464 857
191 547 966
192 721 823
193 415 525
194 632 720
195 481 524
196 603 286
197 774 753
198 527 935
199 846 221
200 732 271
201 76 975
202 564 787
203 310 420
204 406 463
205 880 364
206 559 849
207 397 449
DEMAND_SECTION
2 6
3 10
4 8
5 5
6 6
7 9
8 8
9 6
10 7
11 10
12 8
13 6
14 10
15 6
16 7
17 6
18 9
19 8
20 10
21 10
22 9
23 9
24 9
25 7
26 7
27 8
28 7
29 5
30 5
31 7
32 9
33 6
COVERAGE_SECTION
2 7 200 147 130 114 63 118 180 
3 8 115 111 197 49 4 138 5 56 
4 9 65 5 3 56 95 169 197 115 111 
5 9 65 4 115 3 111 72 60 138 49 
6 9 36 78 61 44 73 89 96 59 66 
7 8 83 177 188 207 204 203 140 136 
8 8 71 183 107 152 193 126 195 104 
9 9 127 176 67 80 24 137 163 190 206 
10 7 57 30 51 101 75 88 79 
11 7 158 91 179 168 196 90 53 
12 9 112 84 92 22 68 117 81 86 52 
13 8 159 133 194 165 70 161 175 132 
14 7 64 87 54 46 27 182 173 
15 9 49 41 138 111 120 115 3 17 48 
16 8 149 69 172 48 38 122 205 29 
17 7 120 159 77 161 165 13 133 
18 9 128 131 153 85 143 146 157 187 156 
19 9 76 199 55 124 200 63 2 118 125 
20 9 58 103 109 39 23 178 100 142 45 
21 9 116 198 154 189 151 191 206 67 155 
22 9 112 12 84 92 68 81 19 117 108 
23 9 109 39 178 90 142 91 35 20 158 
24 9 137 144 186 9 202 127 176 67 80 
25 9 180 94 196 114 162 37 108 179 200 
26 9 45 58 47 59 103 110 20 96 100 
27 9 46 88 51 79 64 30 14 87 33 
28 8 181 192 148 169 171 95 56 167 
29 9 38 122 105 48 205 74 172 121 16 
30 9 51 88 27 79 10 46 123 33 64 
31 9 42 50 164 139 99 184 43 98 163 
32 9 55 125 199 124 121 205 76 105 19 
33 8 54 46 87 79 27 14 64 88 
34 6 167 148 171 28 181 192 
35 8 142 178 136 90 23 109 91 177 
36 9 6 61 78 73 44 110 89 96 59 
37 9 162 82 25 108 94 81 196 117 39 
38 9 29 205 172 122 105 48 16 149 69 
39 9 23 109 178 20 103 90 142 37 91 
40 9 52 125 86 55 32 199 19 84 121 
41 9 48 15 74 122 49 16 138 29 38 
42 9 31 184 43 98 50 164 99 139 163 
43 7 184 98 42 31 163 190 164 
44 7 73 78 89 66 61 6 36 
45 8 26 58 103 20 39 100 109 117 
46 9 27 87 33 14 64 54 88 79 51 
47 8 59 96 100 110 78 6 26 44 
48 9 122 41 74 29 16 38 149 172 205 
49 9 111 115 138 15 3 60 41 197 5 
50 8 99 31 42 139 184 98 164 62 
51 9 88 30 79 27 46 10 33 87 64 
52 9 86 40 84 125 112 22 55 12 19 
53 4 168 185 11 179 
54 5 87 33 14 46 64 
55 9 199 32 125 124 19 76 63 118 121 
56 8 95 169 192 28 181 171 148 197 
57 7 10 75 66 89 101 73 44 
58 9 20 103 109 39 45 23 100 178 26 
59 9 96 47 110 78 6 100 44 26 73 
60 9 138 115 111 49 5 3 15 72 65 
61 7 73 89 44 78 6 66 36 
62 8 113 104 126 107 71 99 8 139 
63 7 118 130 2 124 200 76 147 
64 8 14 87 46 54 182 27 173 123 
65 8 5 4 72 3 115 56 111 95 
66 7 89 44 73 78 61 57 6 
67 8 176 127 9 189 206 80 116 190 
68 8 117 82 92 81 22 108 162 12 
69 6 149 16 172 205 118 38 
70 9 133 165 13 159 175 194 93 166 132 
71 9 8 107 183 104 126 113 152 62 193 
72 8 65 5 60 4 115 138 111 3 
73 7 44 89 66 61 78 6 36 
74 9 122 48 29 41 38 105 16 15 205 
75 3 101 57 10 
76 9 19 199 63 124 118 200 2 130 55 
77 3 120 17 165 
78 8 44 73 89 66 6 61 96 59 
79 9 51 88 46 27 33 30 87 54 14 
80 8 163 190 127 9 176 67 164 24 
81 9 108 82 162 117 68 94 37 25 22 
82 8 117 162 81 108 37 68 94 25 
83 6 7 177 188 207 136 204 
84 9 112 12 22 92 86 52 68 19 81 
85 9 18 143 153 128 146 131 174 145 173 
86 9 52 40 84 112 12 125 22 19 55 
87 6 54 14 64 46 33 27 
88 9 51 27 30 79 46 33 64 87 14 
89 7 73 66 44 61 78 6 57 
90 8 91 158 142 178 35 23 11 109 
91 8 158 90 11 196 23 142 178 179 
92 8 12 68 22 112 84 117 81 82 
93 9 166 175 141 70 133 132 186 165 13 
94 9 25 180 114 108 200 162 81 147 2 
95 8 169 56 192 28 181 171 148 197 
96 9 59 47 110 6 78 100 44 73 36 
97 9 201 187 146 153 129 131 170 18 128 
98 5 184 43 42 31 50 
99 9 139 50 31 42 164 62 113 144 184 
100 8 47 20 58 59 96 35 178 109 
101 3 75 10 102 
102 6 203 150 177 7 140 83 
103 8 20 58 39 109 23 45 178 37 
104 6 113 62 126 107 71 8 
105 9 121 29 38 205 122 172 32 74 48 
106 5 135 155 198 116 21 
107 7 126 8 71 104 113 183 62 
108 9 81 162 82 94 37 25 117 68 180 
109 9 23 39 178 20 142 90 35 103 91 
110 9 96 59 47 6 36 26 78 44 61 
111 9 115 49 3 138 60 15 5 197 4 
112 9 84 12 22 92 68 86 52 81 19 
113 7 62 104 126 107 71 8 99 
114 7 180 147 200 2 94 130 25 
115 9 111 3 49 138 5 60 4 15 197 
116 8 21 198 189 67 176 127 154 206 
117 8 82 68 81 108 162 37 92 22 
118 7 63 130 124 2 76 200 147 
119 3 206 189 21 
120 7 17 77 15 165 159 49 161 
121 9 105 32 38 29 205 55 172 125 124 
122 9 48 29 74 38 41 16 105 205 172 
123 8 64 27 14 145 182 174 46 88 
124 9 118 63 76 199 55 130 172 205 32 
125 9 55 32 199 40 19 52 124 76 121 
126 6 107 104 113 62 71 8 
127 8 176 67 9 80 190 163 189 116 
128 9 131 18 153 157 85 156 187 143 146 
129 8 170 134 201 146 97 153 143 18 
130 6 2 63 147 118 200 114 
131 9 128 18 157 156 187 153 146 85 143 
132 5 194 141 175 13 202 
133 8 13 70 165 159 194 175 132 161 
134 8 129 170 201 146 143 153 97 18 
135 5 106 155 198 116 21 
136 6 83 177 35 7 142 188 
137 8 186 24 144 202 141 9 176 67 
138 9 49 111 60 115 3 15 5 41 4 
139 9 99 31 164 144 50 42 24 163 80 
140 5 188 204 207 7 193 
141 8 175 132 186 137 202 93 194 24 
142 8 35 178 90 23 109 136 91 158 
143 9 153 146 85 18 170 128 201 129 131 
144 9 24 186 137 9 139 164 202 141 80 
145 7 174 85 182 143 18 173 153 
146 9 153 201 143 170 129 97 18 128 131 
147 6 2 114 200 130 180 63 
148 7 171 192 167 28 181 34 169 
149 6 69 16 172 205 38 118 
150 6 102 203 177 7 83 136 
151 7 191 154 160 198 21 155 116 
152 4 193 183 8 195 
153 9 146 143 18 201 128 85 131 97 170 
154 7 151 191 198 21 116 160 155 
155 7 135 106 198 191 160 21 154 
156 6 157 131 187 128 18 97 
157 6 156 131 128 187 18 153 
158 8 91 11 90 168 179 196 185 53 
159 7 13 133 165 194 70 161 175 
160 6 191 151 154 198 155 21 
161 3 159 13 194 
162 9 37 108 82 81 25 94 117 196 180 
163 8 190 80 164 127 9 176 67 43 
164 9 163 80 190 31 139 9 42 127 24 
165 9 70 133 159 13 194 175 161 17 132 
166 9 93 175 70 141 133 165 132 13 186 
167 5 171 148 34 192 28 
168 4 53 179 11 185 
169 7 95 56 192 28 181 171 148 
170 8 129 134 146 201 143 153 97 18 
171 5 148 167 192 28 181 
172 8 205 38 69 149 16 124 118 29 
173 7 182 85 128 18 131 174 157 
174 7 145 85 182 143 173 18 153 
175 9 141 132 194 133 93 70 13 166 159 
176 9 67 127 9 80 189 206 116 190 163 
177 8 7 83 136 188 203 207 150 204 
178 8 23 109 142 35 39 90 91 20 
179 4 168 11 196 53 
180 7 114 25 94 147 200 2 196 
181 8 28 192 148 169 171 95 56 167 
182 8 173 174 145 85 18 128 143 64 
183 6 8 152 193 71 195 107 
184 6 98 43 42 31 50 164 
185 4 53 168 158 11 
186 8 137 24 144 202 141 9 132 175 
187 9 97 131 156 157 128 201 153 146 18 
188 5 207 204 7 83 140 
189 7 206 67 176 116 119 21 127 
190 8 163 80 127 164 9 176 67 116 
191 7 151 160 154 198 155 21 116 
192 7 28 181 148 171 169 95 56 
193 5 152 183 8 204 195 
194 6 13 132 159 133 175 161 
195 4 183 152 193 8 
196 9 25 179 11 180 91 158 37 94 114 
197 6 56 95 169 3 171 192 
198 9 21 154 191 116 155 151 106 135 160 
199 9 55 19 76 124 32 125 63 118 200 
200 9 2 147 114 130 63 180 76 118 94 
201 9 146 97 129 153 170 134 143 187 18 
202 6 137 186 24 141 132 206 
203 8 102 150 7 177 140 188 83 207 
204 4 207 188 7 140 
205 9 172 38 149 69 29 124 105 16 118 
206 7 189 67 176 119 127 9 116 
207 5 188 204 7 83 140 
DEPOT_SECTION
   1
   -1
EOF
