NAME :  X-n359-kX-w35-c11.cctp
COMMENT : 	Adapted by Maziero, Usberti and Cavellucci from the Uchoa, Pecin, Pessoa, Poggi, Subramanian, and Vidal (2013)
TYPE :  CCTP
DIMENSION :    253
EDGE_WEIGHT_TYPE : 	EUC_2D	
CAPACITY : 	68
VERTICES_WITHIN_COVERAGE :  11
VERTICES_WITH_DEMAND : 	35
NODE_COORD_SECTION
1 0 0
2 865 693
3 633 220
4 173 361
5 89 714
6 350 102
7 301 24
8 834 663
9 841 997
10 394 790
11 276 488
12 779 312
13 939 66
14 595 462
15 940 964
16 459 459
17 432 280
18 379 338
19 128 439
20 401 22
21 69 887
22 499 657
23 633 46
24 713 182
25 806 525
26 540 169
27 696 559
28 577 888
29 298 725
30 410 644
31 512 889
32 756 352
33 405 407
34 850 365
35 731 588
36 90 553
37 691 383
38 926 631
39 955 351
40 998 736
41 921 854
42 238 513
43 976 912
44 565 912
45 893 74
46 590 548
47 99 355
48 294 39
49 58 429
50 471 573
51 520 109
52 486 611
53 409 682
54 717 390
55 152 711
56 257 539
57 270 31
58 823 409
59 770 627
60 630 581
61 786 186
62 380 300
63 973 847
64 985 975
65 725 539
66 814 694
67 702 927
68 984 305
69 385 696
70 48 323
71 813 293
72 490 676
73 729 923
74 719 883
75 675 637
76 476 709
77 402 339
78 911 734
79 590 230
80 122 698
81 154 418
82 165 998
83 766 21
84 922 407
85 831 607
86 70 494
87 220 740
88 19 855
89 759 507
90 818 409
91 595 827
92 254 282
93 331 57
94 118 404
95 576 658
96 558 611
97 893 182
98 279 715
99 20 953
100 496 813
101 349 474
102 335 732
103 827 211
104 104 976
105 656 920
106 648 585
107 350 517
108 62 979
109 334 759
110 649 927
111 411 837
112 504 398
113 19 430
114 810 528
115 737 202
116 972 859
117 547 622
118 413 683
119 600 166
120 558 792
121 419 734
122 639 70
123 276 341
124 534 486
125 972 672
126 542 709
127 816 858
128 217 733
129 466 112
130 575 165
131 902 861
132 418 631
133 771 702
134 795 46
135 915 845
136 520 788
137 40 301
138 896 668
139 626 118
140 979 70
141 708 244
142 729 682
143 548 962
144 520 207
145 255 152
146 107 992
147 107 305
148 401 230
149 824 486
150 112 589
151 216 3
152 778 364
153 28 601
154 82 639
155 214 579
156 113 474
157 627 244
158 231 754
159 65 564
160 87 556
161 808 521
162 469 118
163 56 693
164 961 296
165 826 569
166 43 500
167 432 273
168 52 637
169 855 178
170 873 388
171 839 496
172 424 751
173 488 909
174 762 518
175 463 263
176 789 357
177 459 327
178 345 822
179 747 371
180 369 251
181 3 588
182 506 201
183 757 309
184 704 231
185 254 123
186 473 390
187 464 803
188 421 108
189 365 678
190 906 598
191 629 171
192 825 513
193 698 501
194 388 234
195 439 423
196 459 289
197 604 395
198 910 401
199 792 316
200 810 560
201 382 413
202 613 136
203 685 290
204 10 689
205 853 524
206 213 1
207 134 686
208 339 114
209 589 389
210 925 326
211 711 580
212 783 347
213 469 295
214 937 179
215 827 338
216 609 272
217 834 485
218 252 100
219 418 326
220 534 795
221 736 184
222 813 324
223 512 606
224 585 237
225 563 124
226 776 365
227 366 809
228 227 41
229 603 175
230 810 671
231 298 510
232 780 382
233 745 382
234 840 409
235 447 976
236 828 472
237 620 904
238 105 482
239 488 418
240 727 551
241 103 669
242 467 119
243 210 439
244 121 700
245 714 401
246 120 657
247 436 316
248 243 453
249 630 277
250 257 149
251 438 350
252 294 195
253 379 644
DEMAND_SECTION
2 10
3 8
4 9
5 7
6 9
7 1
8 3
9 1
10 8
11 10
12 8
13 10
14 2
15 4
16 9
17 2
18 3
19 10
20 3
21 1
22 4
23 3
24 8
25 3
26 5
27 6
28 7
29 9
30 1
31 1
32 8
33 3
34 10
35 2
36 4
COVERAGE_SECTION
2 11 138 8 66 230 78 38 85 133 190 125 59 
3 9 157 79 191 224 229 216 249 119 184 
4 11 81 94 47 243 147 19 123 92 248 156 70 
5 10 244 80 163 241 207 55 246 154 204 168 
6 10 208 93 188 48 7 20 185 218 250 57 
7 11 48 57 93 228 151 218 206 6 208 20 185 
8 11 230 66 2 85 138 59 133 165 38 190 78 
9 11 15 73 127 64 131 67 43 41 74 135 116 
10 9 227 172 111 178 121 109 187 102 69 
11 9 231 42 248 56 101 107 243 155 201 
12 11 199 183 212 222 71 32 176 152 226 215 179 
13 9 140 45 214 97 169 134 83 103 61 
14 7 124 197 209 46 193 112 239 
15 11 64 43 9 116 131 41 63 135 127 73 78 
16 8 195 239 186 33 112 124 201 101 
17 9 167 196 175 247 213 219 177 62 148 
18 11 77 62 219 251 247 33 201 17 177 167 180 
19 11 81 94 156 238 49 86 243 47 4 166 113 
20 10 93 188 6 7 48 129 208 242 162 57 
21 8 88 99 108 104 146 82 5 163 
22 11 72 52 223 76 117 126 96 95 132 50 30 
23 11 122 139 202 225 119 191 51 130 229 83 26 
24 11 221 115 184 141 61 191 3 157 139 202 229 
25 11 161 114 192 200 149 171 174 205 165 217 89 
26 7 130 144 182 225 119 51 229 
27 10 211 240 65 35 106 193 60 174 75 89 
28 11 44 237 91 31 143 110 105 173 120 220 100 
29 10 98 102 109 158 87 128 189 69 178 227 
30 11 132 253 53 118 189 69 52 72 22 121 76 
31 10 173 44 28 100 143 220 187 136 91 120 
32 11 179 226 152 212 233 176 232 183 12 199 54 
33 10 201 195 251 77 186 18 16 219 239 101 
34 9 170 215 234 58 90 222 176 212 198 
35 11 211 240 27 65 59 75 174 106 200 89 193 
36 10 160 159 150 86 166 238 153 156 154 168 
37 6 54 245 233 179 32 226 
38 7 190 138 125 2 8 85 78 
39 7 210 68 164 84 198 170 34 
40 10 125 78 63 138 116 38 135 2 41 131 
41 11 135 131 116 63 43 127 15 78 64 40 9 
42 7 56 11 231 248 155 243 107 
43 11 116 15 64 63 41 131 135 9 127 40 78 
44 11 28 143 237 31 173 110 91 105 120 100 220 
45 9 13 140 134 97 169 214 83 103 61 
46 11 60 106 96 124 14 117 223 27 95 193 50 
47 11 147 94 70 4 137 81 49 19 113 156 238 
48 10 7 57 93 228 218 6 151 208 206 185 
49 11 113 94 86 19 156 238 166 47 81 70 36 
50 11 52 223 132 22 117 30 96 72 124 16 253 
51 7 225 162 129 242 26 130 182 
52 11 223 50 22 117 72 132 96 30 76 95 118 
53 11 118 69 30 189 253 132 121 172 76 72 102 
54 6 245 37 233 179 32 226 
55 8 207 80 244 5 246 241 128 87 
56 7 42 231 11 155 248 107 243 
57 8 48 7 228 151 206 93 218 185 
58 6 90 234 232 34 170 176 
59 11 35 230 85 142 8 133 211 200 66 165 240 
60 11 106 46 27 75 96 211 117 95 35 240 65 
61 10 103 221 115 169 24 184 141 97 71 12 
62 11 18 77 219 180 17 247 167 194 148 251 196 
63 11 116 41 135 43 131 40 15 64 78 127 125 
64 11 15 43 116 63 41 131 9 135 127 40 78 
65 9 240 27 174 211 89 193 35 25 161 
66 11 230 8 133 2 59 138 142 85 78 165 38 
67 11 73 74 105 110 237 28 127 44 91 9 143 
68 8 164 39 210 84 198 214 170 34 
69 11 189 53 118 121 253 30 102 172 132 109 29 
70 11 137 47 147 49 94 113 4 19 81 156 238 
71 10 199 222 12 215 183 212 176 152 34 226 
72 11 22 76 126 52 223 118 117 53 132 30 95 
73 11 67 74 105 110 127 237 9 28 44 91 131 
74 10 73 67 105 110 127 237 91 28 44 9 
75 10 106 211 142 60 35 27 59 240 95 65 
76 11 72 22 121 126 172 118 53 136 69 30 187 
77 10 219 18 251 247 62 177 17 33 167 196 
78 11 2 138 40 125 38 8 66 135 230 41 131 
79 7 224 157 3 216 229 249 119 
80 8 244 207 55 241 5 246 163 154 
81 11 19 94 4 243 156 238 47 248 49 86 147 
82 5 146 104 108 21 99 
83 11 134 23 122 45 61 221 24 139 13 169 115 
84 6 198 170 39 210 234 34 
85 10 165 200 8 59 230 190 114 25 205 66 
86 11 166 238 156 36 160 49 159 19 113 94 150 
87 8 128 158 98 55 29 207 80 244 
88 10 21 99 108 104 5 146 163 204 244 80 
89 9 174 65 25 161 240 114 193 192 149 
90 5 58 234 232 34 170 
91 8 120 28 220 237 136 44 100 31 
92 10 123 252 4 180 62 145 250 18 194 147 
93 11 48 7 6 208 57 20 218 185 188 228 250 
94 11 19 81 47 49 4 156 238 243 147 86 113 
95 10 117 96 126 22 223 72 60 75 52 106 
96 11 117 223 95 46 52 22 60 72 106 50 126 
97 9 169 214 103 61 45 13 164 71 140 
98 8 29 102 158 87 128 109 189 69 
99 8 108 21 104 146 88 82 5 163 
100 10 187 136 220 120 31 111 172 173 91 10 
101 11 107 231 201 11 33 195 248 16 56 42 18 
102 11 109 29 98 69 189 10 227 121 53 172 178 
103 10 169 61 97 71 115 221 199 12 222 214 
104 6 146 108 82 99 21 88 
105 11 110 237 67 73 74 28 44 91 143 31 120 
106 11 60 27 75 211 46 35 240 65 96 193 95 
107 11 101 231 11 56 201 42 16 33 248 195 253 
108 6 104 146 99 21 82 88 
109 9 102 29 227 178 10 98 69 189 121 
110 11 105 237 67 73 28 74 44 143 91 31 173 
111 5 10 227 187 178 172 
112 4 239 186 195 16 
113 11 49 166 86 238 94 156 19 47 70 137 81 
114 11 25 161 192 200 171 205 149 165 174 217 89 
115 11 221 24 184 141 61 103 203 3 183 191 12 
116 11 63 41 43 135 131 15 64 40 78 127 125 
117 11 96 223 95 22 52 72 46 126 50 60 106 
118 11 53 69 30 189 121 132 253 76 172 72 22 
119 11 229 130 191 202 139 225 26 3 79 224 157 
120 8 220 136 91 100 126 187 28 31 
121 11 172 69 118 53 10 76 189 187 102 109 30 
122 11 23 139 202 225 191 119 229 130 51 24 83 
123 11 92 18 4 62 248 243 77 201 180 219 81 
124 10 14 16 239 46 112 50 209 186 195 197 
125 8 38 40 138 78 190 2 8 85 
126 9 95 72 76 22 136 120 220 117 96 
127 11 131 74 135 41 73 67 9 78 116 63 133 
128 8 87 158 98 55 29 207 80 244 
129 5 162 242 188 51 26 
130 10 119 229 26 225 202 191 79 139 144 224 
131 11 41 135 116 63 127 43 15 78 64 9 40 
132 11 30 253 53 118 52 189 69 50 22 72 76 
133 11 66 142 230 8 59 2 85 75 35 138 211 
134 11 83 45 61 13 169 221 122 24 23 115 97 
135 11 41 131 63 116 43 127 78 15 40 64 2 
136 10 220 100 120 187 126 91 76 31 172 28 
137 9 70 147 47 49 94 113 4 81 19 
138 9 2 38 8 78 190 125 66 230 85 
139 11 202 122 191 119 229 225 130 23 26 3 51 
140 9 13 45 214 97 169 134 103 83 61 
141 11 184 115 203 24 221 3 157 183 249 61 12 
142 9 133 59 75 230 66 35 211 8 106 
143 9 44 28 173 31 237 235 110 105 91 
144 2 182 26 
145 8 250 185 218 252 208 6 228 48 
146 6 104 108 82 99 21 88 
147 9 47 70 137 4 94 81 49 19 92 
148 6 194 180 167 17 175 62 
149 8 217 236 171 192 161 25 114 205 
150 8 160 36 159 154 246 168 241 153 
151 5 206 228 57 48 7 
152 9 226 176 212 232 32 179 233 199 12 
153 10 181 168 159 154 160 36 150 204 163 241 
154 10 168 241 246 150 163 153 207 80 244 5 
155 5 56 42 150 231 11 
156 11 238 19 86 81 94 49 166 36 160 159 243 
157 9 3 216 249 79 224 191 229 203 184 
158 7 87 128 98 29 55 109 102 
159 10 160 36 153 150 181 166 86 168 154 238 
160 10 36 159 150 86 166 153 238 154 156 168 
161 11 25 114 192 149 200 171 217 205 174 89 165 
162 5 242 129 188 51 26 
163 10 5 204 241 168 154 244 80 246 207 153 
164 9 68 210 39 198 84 214 170 34 97 
165 10 200 85 114 25 161 205 192 171 59 174 
166 11 86 238 159 36 160 49 113 156 181 153 19 
167 7 17 196 175 213 247 148 219 
168 10 154 153 163 241 204 181 246 159 150 5 
169 9 97 103 61 214 45 221 115 71 13 
170 8 34 198 234 84 58 90 215 210 
171 8 217 149 192 236 205 161 114 25 
172 11 121 10 187 69 76 118 53 227 111 109 102 
173 7 31 44 235 143 28 100 111 
174 9 89 65 25 161 240 114 192 200 193 
175 4 196 167 213 17 
176 11 212 152 226 232 32 199 222 215 179 12 233 
177 6 247 251 213 196 219 17 
178 4 227 10 109 111 
179 9 233 32 226 152 232 54 212 176 245 
180 10 194 148 62 167 17 18 219 247 77 252 
181 10 153 159 168 160 36 154 166 204 150 86 
182 2 144 26 
183 11 12 199 32 212 71 176 222 152 226 179 203 
184 11 141 115 24 221 203 3 157 249 61 183 191 
185 9 218 250 145 252 208 228 48 57 6 
186 7 112 239 195 251 177 16 33 
187 10 100 136 111 172 220 10 121 76 120 31 
188 7 129 242 162 6 208 20 51 
189 11 69 253 53 118 30 102 132 121 29 109 98 
190 6 38 138 85 165 205 8 
191 11 229 119 202 3 139 130 79 157 224 225 24 
192 9 161 114 25 171 149 217 205 236 200 
193 6 65 27 240 89 174 211 
194 7 148 180 167 17 62 175 196 
195 8 33 16 186 239 201 112 251 77 
196 6 213 175 17 167 247 177 
197 4 209 14 37 112 
198 8 84 170 39 34 234 210 58 90 
199 11 12 222 71 212 183 176 215 152 32 226 232 
200 11 165 114 25 161 192 85 205 174 171 89 149 
201 11 33 195 101 18 77 251 16 186 219 239 107 
202 11 139 119 191 229 130 225 122 26 3 23 51 
203 11 141 249 184 157 183 216 3 37 32 12 115 
204 10 163 168 5 154 153 241 181 80 244 246 
205 9 192 171 114 217 161 25 149 165 200 
206 5 151 228 57 48 7 
207 7 80 244 55 246 241 5 154 
208 10 6 93 188 185 48 218 250 145 252 7 
209 3 197 14 112 
210 9 39 164 68 198 84 170 34 215 222 
211 11 35 27 240 65 106 75 59 174 193 60 89 
212 11 176 152 226 32 199 12 232 222 179 215 183 
213 6 196 175 177 247 17 167 
214 9 97 169 13 45 103 140 164 68 210 
215 11 222 34 199 176 212 71 12 152 226 232 170 
216 5 249 157 224 79 3 
217 7 149 171 236 192 205 161 25 
218 9 185 250 145 228 57 48 208 7 93 
219 10 77 247 251 18 177 62 17 167 196 213 
220 9 136 120 100 91 187 126 31 28 76 
221 11 115 24 61 184 141 103 191 3 203 169 157 
222 11 215 199 71 12 212 176 152 34 226 183 32 
223 11 52 117 96 22 50 72 95 46 132 126 30 
224 6 79 216 157 3 249 229 
225 11 130 51 26 202 119 139 229 191 122 144 162 
226 9 152 176 232 212 32 179 233 199 12 
227 6 178 10 111 109 172 102 
228 6 151 206 57 218 48 7 
229 11 119 191 130 202 3 79 139 26 224 225 157 
230 11 66 8 133 2 59 85 142 138 165 200 35 
231 9 11 56 107 42 101 248 155 243 201 
232 7 226 152 176 179 212 233 32 
233 9 179 54 32 226 232 245 152 176 212 
234 5 58 90 170 34 236 
235 3 173 143 31 
236 6 217 149 171 192 161 25 
237 11 110 105 28 44 91 67 143 74 31 73 120 
238 11 156 86 19 166 49 36 160 94 81 159 113 
239 7 112 186 195 16 124 33 251 
240 9 65 27 211 35 174 89 193 25 200 
241 9 246 80 207 244 154 5 163 168 55 
242 5 162 129 188 51 26 
243 11 248 81 42 11 19 4 94 156 56 231 238 
244 8 80 207 55 5 241 246 163 154 
245 5 54 37 233 179 32 
246 8 241 207 80 154 244 55 5 150 
247 10 219 177 251 196 17 213 77 167 62 175 
248 11 243 11 42 231 56 81 101 4 19 123 107 
249 7 216 157 3 203 224 79 141 
250 9 145 185 218 252 208 6 228 48 93 
251 8 177 219 247 77 186 18 213 196 
252 10 145 250 185 208 180 92 194 218 6 148 
253 11 30 189 132 53 69 118 102 121 52 29 50 
DEPOT_SECTION
   1
   -1
EOF
