NAME :  X-n327-kX-w65-c9.cctp
COMMENT : 	Adapted by Maziero, Usberti and Cavellucci from the Uchoa, Pecin, Pessoa, Poggi, Subramanian, and Vidal (2013)
TYPE :  CCTP
DIMENSION :    284
EDGE_WEIGHT_TYPE : 	EUC_2D	
CAPACITY : 	128
VERTICES_WITHIN_COVERAGE :  9
VERTICES_WITH_DEMAND : 	65
NODE_COORD_SECTION
1 236 951
2 735 289
3 841 735
4 846 821
5 907 810
6 55 136
7 372 422
8 437 584
9 509 822
10 57 519
11 563 333
12 750 8
13 644 692
14 123 787
15 865 618
16 833 453
17 736 643
18 90 930
19 804 192
20 435 164
21 540 911
22 747 80
23 486 239
24 511 784
25 639 247
26 337 11
27 95 706
28 719 839
29 943 421
30 55 633
31 396 807
32 916 252
33 191 716
34 552 500
35 226 520
36 666 833
37 450 431
38 427 307
39 4 89
40 736 784
41 615 382
42 739 386
43 229 527
44 594 197
45 910 398
46 492 214
47 974 107
48 914 556
49 384 827
50 151 908
51 390 873
52 70 232
53 418 29
54 128 721
55 211 129
56 641 993
57 220 883
58 293 551
59 244 952
60 910 489
61 324 280
62 466 437
63 879 676
64 359 770
65 95 631
66 920 56
67 577 407
68 178 769
69 225 359
70 882 228
71 759 814
72 234 405
73 33 412
74 423 135
75 194 121
76 970 723
77 6 206
78 392 669
79 782 300
80 107 786
81 889 855
82 68 280
83 522 848
84 653 78
85 719 736
86 809 404
87 620 655
88 439 605
89 990 874
90 46 236
91 980 500
92 625 383
93 146 430
94 795 241
95 714 554
96 200 946
97 89 207
98 144 648
99 633 877
100 482 843
101 670 150
102 615 139
103 192 844
104 396 409
105 799 30
106 72 916
107 917 12
108 156 769
109 553 21
110 86 666
111 42 261
112 494 309
113 767 378
114 528 311
115 697 21
116 545 665
117 675 228
118 752 812
119 180 120
120 94 979
121 348 861
122 397 753
123 229 855
124 311 203
125 177 491
126 280 408
127 470 132
128 40 324
129 386 644
130 975 360
131 466 934
132 397 598
133 658 175
134 470 227
135 157 4
136 876 714
137 780 25
138 394 658
139 697 278
140 879 723
141 522 896
142 620 103
143 122 342
144 790 311
145 599 866
146 761 602
147 983 317
148 320 981
149 933 461
150 156 922
151 10 773
152 834 293
153 926 186
154 370 613
155 440 477
156 243 999
157 508 847
158 669 376
159 103 931
160 676 953
161 54 978
162 687 958
163 490 478
164 753 305
165 109 937
166 602 738
167 348 565
168 688 798
169 632 674
170 40 982
171 223 946
172 464 945
173 408 367
174 530 770
175 924 692
176 428 765
177 358 485
178 565 728
179 443 295
180 66 938
181 716 347
182 495 763
183 36 884
184 74 958
185 719 301
186 698 823
187 816 412
188 292 364
189 565 958
190 429 532
191 79 947
192 664 939
193 328 988
194 742 358
195 659 374
196 622 546
197 230 964
198 195 917
199 559 938
200 496 961
201 469 485
202 135 944
203 338 907
204 700 752
205 176 858
206 457 356
207 133 940
208 531 327
209 656 685
210 215 828
211 257 995
212 308 625
213 552 995
214 689 723
215 244 517
216 615 185
217 174 911
218 645 998
219 461 850
220 605 496
221 447 815
222 643 652
223 281 970
224 544 649
225 681 805
226 237 976
227 592 381
228 239 911
229 749 816
230 446 458
231 49 965
232 705 802
233 644 796
234 249 978
235 858 374
236 107 882
237 221 974
238 44 884
239 341 985
240 587 702
241 408 941
242 689 379
243 520 846
244 367 393
245 457 261
246 613 339
247 299 819
248 670 272
249 205 968
250 720 840
251 81 862
252 437 430
253 443 557
254 228 890
255 707 458
256 365 855
257 527 416
258 224 929
259 298 869
260 524 758
261 115 966
262 235 882
263 391 446
264 554 866
265 464 857
266 547 966
267 721 823
268 415 525
269 632 720
270 481 524
271 603 286
272 774 753
273 527 935
274 584 437
275 846 221
276 732 271
277 76 975
278 564 787
279 310 420
280 406 463
281 880 364
282 559 849
283 706 472
284 397 449
DEMAND_SECTION
2 6
3 10
4 8
5 5
6 6
7 9
8 8
9 6
10 7
11 10
12 8
13 6
14 10
15 6
16 7
17 6
18 9
19 8
20 10
21 10
22 9
23 9
24 9
25 7
26 7
27 8
28 7
29 5
30 5
31 7
32 9
33 6
34 9
35 10
36 9
37 8
38 8
39 5
40 5
41 8
42 5
43 10
44 7
45 8
46 7
47 6
48 5
49 9
50 8
51 10
52 5
53 5
54 7
55 5
56 8
57 10
58 8
59 9
60 9
61 5
62 6
63 6
64 5
65 9
66 9
COVERAGE_SECTION
2 9 276 185 164 139 79 144 181 248 194 
3 9 140 136 272 63 4 175 5 71 40 
4 9 81 5 3 71 118 229 272 140 136 
5 9 81 4 140 3 136 89 76 175 63 
6 9 39 97 77 52 90 111 119 75 82 
7 9 104 244 263 284 280 279 177 252 173 
8 8 88 253 132 190 268 154 270 129 
9 9 157 243 83 100 24 174 219 265 282 
10 9 73 30 65 125 93 110 98 35 43 
11 9 208 114 246 227 271 41 112 67 92 
12 9 137 105 115 22 84 142 101 107 66 
13 8 209 169 269 222 87 214 240 166 
14 9 80 108 68 54 27 251 103 205 236 
15 9 63 48 175 136 146 140 3 17 60 
16 9 187 86 235 60 45 113 149 281 29 
17 9 146 209 95 214 222 85 13 169 204 
18 9 159 165 191 106 180 184 207 261 202 
19 9 94 275 70 152 276 79 2 144 153 
20 9 74 127 134 46 23 245 124 179 53 
21 9 141 273 199 264 189 266 282 83 200 
22 9 137 12 105 115 84 101 19 142 133 
23 9 134 46 245 112 179 114 38 20 208 
24 9 174 182 260 9 278 157 243 83 100 
25 9 248 117 271 139 216 44 133 246 276 
26 9 53 74 55 75 127 135 20 119 124 
27 9 54 110 65 98 80 30 14 108 33 
28 9 250 267 186 229 232 118 71 168 225 
29 9 45 149 130 60 281 91 235 147 16 
30 9 65 110 27 98 10 54 151 33 80 
31 9 49 64 221 176 122 256 51 121 219 
32 9 70 153 275 152 147 281 94 130 19 
33 9 68 54 108 98 27 14 80 210 110 
34 9 220 163 274 270 196 201 257 67 62 
35 9 43 215 125 58 72 93 126 167 279 
36 9 225 186 168 233 232 28 250 99 267 
37 9 252 62 230 155 280 284 201 104 263 
38 9 179 245 206 173 112 23 134 114 244 
39 9 6 77 97 90 52 135 111 119 75 
40 8 118 229 232 71 267 204 272 168 
41 7 92 227 246 67 195 158 274 
42 6 194 113 181 242 158 86 
43 9 35 215 125 58 72 167 212 93 126 
44 9 216 102 25 133 117 101 271 142 46 
45 9 29 281 235 149 130 60 16 187 86 
46 9 23 134 245 20 127 112 179 44 114 
47 9 66 153 107 70 32 275 19 105 147 
48 9 60 15 91 149 63 16 175 29 45 
49 9 31 256 51 121 64 221 122 176 219 
50 9 150 217 207 202 198 165 236 159 205 
51 9 256 121 49 203 31 241 219 265 221 
52 9 90 97 111 82 77 6 128 143 39 
53 9 26 74 127 109 20 46 124 134 142 
54 9 27 108 33 14 80 68 110 98 65 
55 9 75 119 124 135 97 6 26 52 61 
56 5 218 160 162 192 189 
57 9 254 262 123 228 198 258 103 205 217 
58 7 167 215 43 35 212 177 154 
59 9 197 171 226 234 258 237 223 228 249 
60 9 149 48 91 29 16 45 187 235 281 
61 9 124 188 38 179 173 244 69 245 126 
62 9 37 230 252 155 163 201 257 280 284 
63 9 136 140 175 15 3 76 48 272 5 
64 9 122 31 49 176 247 256 121 221 78 
65 9 110 30 98 27 54 10 33 108 80 
66 9 107 47 105 153 137 22 70 12 19 
67 8 227 274 41 257 92 11 246 195 
68 9 108 33 14 54 210 80 103 205 123 
69 9 72 188 126 143 279 93 61 125 244 
70 9 275 32 153 152 19 94 79 144 147 
71 9 118 229 40 267 28 250 232 186 272 
72 9 126 69 188 279 93 125 215 35 43 
73 9 128 10 143 93 82 111 125 90 52 
74 9 20 127 134 46 53 23 124 245 26 
75 9 119 55 135 97 6 124 52 26 90 
76 9 175 140 136 63 5 3 15 89 81 
77 9 90 111 52 97 6 82 39 128 143 
78 9 138 129 154 132 88 122 212 8 176 
79 9 144 164 2 152 276 94 185 194 113 
80 9 14 108 54 68 251 27 236 151 205 
81 8 5 4 89 3 140 71 136 118 
82 9 111 52 90 128 97 143 77 73 6 
83 8 243 157 9 264 282 100 141 265 
84 9 142 102 115 101 22 133 216 109 12 
85 5 204 214 40 272 232 
86 9 187 113 16 235 42 194 281 144 45 
87 9 169 222 13 209 240 269 116 224 166 
88 9 8 132 253 129 154 138 190 78 268 
89 8 81 5 76 4 140 175 136 3 
90 9 52 111 82 77 97 128 6 143 39 
91 9 149 60 29 48 45 130 16 15 281 
92 6 41 227 195 158 246 67 
93 9 125 72 143 69 73 35 10 43 215 
94 9 19 275 79 152 144 276 2 164 70 
95 7 146 283 17 196 255 222 220 
96 8 171 249 198 258 197 237 59 217 
97 9 52 90 111 82 6 77 119 128 75 
98 9 65 110 54 27 33 30 108 68 14 
99 3 145 36 192 
100 8 219 265 157 9 243 83 221 24 
101 9 133 102 216 142 84 117 44 25 22 
102 9 142 216 101 133 44 84 117 25 109 
103 9 205 210 123 57 262 254 217 198 50 
104 9 7 244 263 284 173 252 280 37 230 
105 9 137 12 22 115 107 66 84 19 101 
106 9 18 180 191 159 184 165 238 183 236 
107 9 66 47 105 137 12 153 22 19 70 
108 9 68 14 80 54 33 103 210 27 205 
109 9 142 84 102 53 127 115 74 101 216 
110 9 65 27 30 98 54 33 80 108 14 
111 9 90 82 52 128 77 97 143 6 73 
112 9 114 208 179 206 245 38 23 11 134 
113 9 42 194 86 181 187 144 164 242 79 
114 9 208 112 11 271 23 206 179 245 246 
115 9 12 84 22 137 105 142 101 102 109 
116 9 224 240 178 87 169 166 260 222 13 
117 9 25 248 139 133 276 216 101 185 2 
118 9 229 71 40 267 28 250 232 186 272 
119 9 75 55 135 6 97 124 52 90 39 
120 9 277 261 184 191 161 165 231 18 159 
121 9 256 51 203 49 259 247 31 64 241 
122 9 176 64 31 49 221 78 138 182 256 
123 9 262 57 210 254 103 205 228 259 198 
124 9 61 55 20 74 75 119 38 245 134 
125 9 35 43 93 215 72 10 58 126 69 
126 9 279 72 188 69 244 7 177 215 104 
127 9 20 74 46 134 23 53 245 109 44 
128 9 82 111 143 73 90 52 77 97 93 
129 8 138 78 154 132 88 8 212 167 
130 9 147 29 45 281 149 235 32 91 60 
131 6 172 200 241 273 141 21 
132 8 154 8 88 129 167 138 253 78 
133 9 101 216 102 117 44 25 142 84 248 
134 9 23 46 245 20 179 112 38 127 114 
135 9 119 75 55 6 39 26 97 52 77 
136 9 140 63 3 175 76 15 5 272 4 
137 9 105 12 22 115 84 107 66 101 19 
138 9 78 129 154 132 88 8 212 122 167 
139 8 248 185 276 2 117 164 25 181 
140 9 136 3 63 175 5 76 4 15 272 
141 8 21 273 264 83 243 157 199 282 
142 9 102 84 101 133 216 44 109 115 22 
143 9 82 128 93 69 73 111 52 72 90 
144 9 79 164 152 2 194 94 276 113 185 
145 4 99 282 264 21 
146 9 17 95 15 222 209 63 85 214 283 
147 9 130 32 45 29 281 70 235 153 152 
148 9 193 239 223 211 234 203 156 59 226 
149 9 60 29 91 45 48 16 130 281 235 
150 8 50 217 207 202 198 165 96 159 
151 8 80 27 14 183 251 238 54 110 
152 9 144 79 94 275 70 164 235 281 32 
153 9 70 32 275 47 19 66 152 94 147 
154 8 132 129 138 167 78 212 88 8 
155 8 230 201 280 37 252 62 163 284 
156 7 211 234 226 237 197 59 223 
157 8 243 83 9 100 265 219 264 141 
158 4 195 242 92 41 
159 9 165 18 191 207 106 202 261 180 184 
160 4 162 192 56 218 
161 8 231 170 277 184 120 191 180 18 
162 4 160 192 56 218 
163 9 201 270 62 230 155 37 34 252 257 
164 9 2 79 185 144 276 194 181 139 113 
165 9 159 18 207 202 261 191 184 106 180 
166 5 269 178 240 13 278 
167 7 154 58 132 212 268 177 190 
168 6 225 232 186 36 267 233 
169 8 13 87 222 209 269 240 166 214 
170 8 161 231 277 184 180 191 120 18 
171 8 258 197 59 96 237 249 226 228 
172 6 131 200 241 273 141 21 
173 9 104 244 206 38 7 252 37 179 263 
174 8 260 24 182 278 178 9 243 83 
175 9 63 136 76 140 3 15 5 48 4 
176 9 122 31 221 182 64 49 24 219 100 
177 6 263 280 284 7 268 167 
178 8 240 166 260 174 278 116 269 24 
179 9 38 245 112 206 23 134 173 114 208 
180 9 191 184 106 18 231 159 277 161 165 
181 6 194 242 42 185 158 164 
182 9 24 260 174 9 176 221 278 178 100 
183 7 238 106 251 180 18 236 191 
184 9 191 277 180 231 161 120 18 159 165 
185 8 2 139 276 164 181 248 194 79 
186 8 232 267 225 28 168 250 36 229 
187 9 86 16 235 113 281 42 194 45 144 
188 9 126 279 69 72 244 61 7 104 173 
189 7 266 199 213 273 21 200 141 
190 6 268 253 8 270 155 201 
191 9 184 180 18 277 159 106 165 120 231 
192 4 160 162 56 218 
193 9 148 239 223 211 234 203 156 59 226 
194 7 42 181 113 164 242 185 144 
195 4 158 242 92 41 
196 8 220 34 95 222 87 283 274 255 
197 7 237 226 59 171 234 249 96 
198 9 217 96 258 150 171 57 254 228 50 
199 7 189 266 273 21 141 213 200 
200 7 172 131 273 266 213 21 199 
201 8 163 155 230 270 62 37 190 252 
202 9 207 165 150 261 159 50 18 217 120 
203 9 121 259 256 51 148 239 241 193 223 
204 5 85 214 40 168 232 
205 9 103 210 57 123 217 50 254 198 262 
206 9 173 38 112 179 37 252 208 62 104 
207 9 202 165 150 159 261 50 18 217 191 
208 9 114 11 112 206 227 246 271 257 67 
209 7 13 169 222 269 87 214 240 
210 9 103 123 205 57 262 254 68 108 247 
211 7 156 234 226 223 197 237 59 
212 8 154 167 58 129 138 132 78 43 
213 7 266 189 199 273 200 21 56 
214 5 204 85 209 13 269 
215 9 35 43 58 125 72 126 167 279 177 
216 9 44 133 102 101 25 117 142 271 248 
217 9 150 198 50 96 207 202 205 258 57 
218 4 56 160 162 192 
219 8 265 100 221 157 9 243 83 51 
220 5 34 196 274 67 283 
221 9 219 100 265 31 176 9 49 157 24 
222 9 87 169 209 13 269 240 214 17 166 
223 9 234 211 59 148 226 156 193 197 237 
224 9 116 240 87 178 169 222 166 13 260 
225 7 168 232 186 36 233 267 28 
226 7 234 197 237 156 59 211 171 
227 9 41 67 92 246 11 274 195 257 158 
228 9 258 254 262 57 171 59 198 96 197 
229 9 118 71 267 40 28 250 232 186 168 
230 8 155 37 62 252 201 280 163 284 
231 8 161 170 184 277 180 191 120 18 
232 7 168 186 225 267 40 28 250 
233 3 225 36 168 
234 7 226 211 156 197 59 237 223 
235 9 281 45 86 187 16 152 113 144 29 
236 9 251 106 159 18 50 165 150 238 207 
237 6 197 226 249 171 234 59 
238 7 183 106 251 180 236 18 191 
239 9 193 148 223 203 241 211 234 156 59 
240 9 178 166 269 169 116 87 13 224 209 
241 6 172 131 51 203 239 200 
242 4 158 195 181 42 
243 9 83 157 9 100 264 282 141 265 219 
244 9 7 104 173 263 279 284 252 188 280 
245 9 23 134 179 38 46 112 114 206 20 
246 8 41 92 227 11 271 195 158 67 
247 9 259 121 256 64 123 210 49 262 203 
248 8 139 25 117 185 276 2 271 181 
249 6 237 96 197 171 226 59 
250 9 28 267 186 229 232 118 71 225 168 
251 8 236 238 183 106 18 159 180 80 
252 9 37 230 62 284 280 104 155 263 201 
253 7 8 190 268 88 270 132 201 
254 9 57 262 228 123 258 198 171 103 217 
255 3 283 42 242 
256 9 121 51 49 31 203 259 247 64 221 
257 9 67 274 62 163 227 37 34 208 11 
258 9 171 228 96 59 198 197 254 249 237 
259 9 247 121 203 262 256 123 228 254 57 
260 8 174 24 182 278 178 9 166 240 
261 9 120 165 202 207 159 277 191 184 18 
262 9 254 57 123 228 258 198 103 210 205 
263 8 284 280 7 104 252 177 230 155 
264 7 282 83 243 141 145 21 157 
265 8 219 100 157 221 9 243 83 141 
266 7 189 213 199 273 200 21 141 
267 9 28 250 186 232 229 118 71 168 40 
268 6 190 253 155 8 280 270 
269 6 13 166 209 169 240 214 
270 9 201 163 253 190 155 268 8 34 230 
271 9 25 246 11 248 114 208 44 117 139 
272 9 40 85 71 118 229 3 204 232 267 
273 9 21 199 266 141 200 189 131 172 213 
274 7 67 227 257 41 220 92 34 
275 9 70 19 94 152 32 153 79 144 276 
276 9 2 185 139 164 79 248 94 144 117 
277 9 184 120 161 191 231 170 180 261 18 
278 6 174 260 24 178 166 282 
279 9 126 188 7 244 72 177 263 104 284 
280 8 284 263 155 230 252 7 177 37 
281 9 235 45 187 86 29 152 130 16 144 
282 7 264 83 243 145 157 9 141 
283 3 255 95 42 
284 8 263 280 7 104 252 230 155 177 
DEPOT_SECTION
   1
   -1
EOF
