NAME :  X-n344-kX-w34-c11.cctp
COMMENT : 	Adapted by Maziero, Usberti and Cavellucci from the Uchoa, Pecin, Pessoa, Poggi, Subramanian, and Vidal (2013)
TYPE :  CCTP
DIMENSION :    199
EDGE_WEIGHT_TYPE : 	EUC_2D	
CAPACITY : 	61
VERTICES_WITHIN_COVERAGE :  11
VERTICES_WITH_DEMAND : 	34
NODE_COORD_SECTION
1 500 500
2 615 190
3 890 200
4 983 684
5 874 112
6 906 186
7 801 278
8 823 446
9 242 544
10 505 210
11 767 766
12 698 305
13 707 511
14 10 968
15 172 13
16 57 414
17 317 373
18 849 680
19 854 12
20 429 688
21 822 378
22 774 584
23 601 895
24 921 309
25 176 165
26 368 432
27 656 430
28 715 225
29 35 264
30 544 994
31 214 533
32 573 650
33 259 595
34 38 550
35 925 755
36 337 562
37 412 969
38 919 402
39 424 206
40 259 588
41 79 364
42 667 978
43 332 593
44 270 544
45 745 267
46 760 786
47 134 998
48 966 458
49 986 462
50 615 293
51 24 217
52 418 662
53 831 314
54 832 564
55 945 758
56 394 446
57 843 680
58 24 613
59 422 956
60 411 58
61 512 655
62 657 544
63 773 727
64 1 461
65 167 981
66 495 295
67 589 311
68 273 186
69 493 121
70 522 653
71 157 9
72 90 625
73 632 964
74 347 750
75 9 237
76 181 662
77 722 724
78 106 978
79 603 944
80 734 612
81 163 142
82 910 272
83 985 968
84 901 149
85 817 700
86 888 1
87 70 323
88 716 413
89 17 309
90 558 122
91 436 663
92 912 64
93 622 271
94 469 629
95 326 388
96 675 587
97 974 135
98 620 443
99 276 222
100 869 663
101 517 935
102 277 612
103 730 728
104 8 525
105 340 489
106 183 75
107 880 600
108 50 555
109 396 484
110 225 176
111 235 9
112 768 438
113 197 149
114 301 18
115 930 549
116 793 659
117 953 401
118 459 264
119 353 254
120 986 680
121 375 639
122 82 923
123 912 604
124 992 123
125 784 823
126 82 859
127 803 338
128 67 555
129 907 896
130 654 393
131 41 545
132 575 872
133 734 779
134 101 440
135 573 609
136 436 773
137 767 794
138 236 121
139 711 637
140 550 658
141 745 746
142 379 464
143 618 848
144 55 556
145 586 888
146 136 189
147 41 501
148 383 686
149 419 687
150 219 38
151 27 564
152 58 518
153 92 293
154 731 737
155 606 332
156 606 704
157 609 368
158 137 70
159 41 399
160 214 619
161 471 405
162 804 753
163 914 234
164 129 161
165 64 580
166 613 106
167 583 675
168 466 675
169 30 555
170 705 747
171 163 244
172 46 194
173 638 832
174 752 797
175 132 16
176 462 689
177 489 725
178 198 26
179 9 875
180 29 588
181 843 98
182 142 149
183 669 393
184 54 527
185 641 883
186 920 860
187 77 506
188 377 640
189 117 360
190 10 614
191 741 232
192 5 190
193 539 901
194 158 173
195 161 140
196 570 682
197 139 525
198 175 121
199 509 650
DEMAND_SECTION
2 7
3 10
4 7
5 8
6 9
7 8
8 5
9 7
10 7
11 5
12 10
13 8
14 6
15 7
16 7
17 5
18 9
19 10
20 10
21 7
22 5
23 9
24 10
25 10
26 8
27 5
28 9
29 7
30 6
31 8
32 5
33 8
34 7
35 6
COVERAGE_SECTION
2 8 93 166 90 50 28 10 67 191 
3 11 6 163 84 82 5 97 181 24 7 53 124 
4 11 120 55 35 123 100 107 18 57 115 85 186 
5 10 181 84 92 6 3 19 97 86 124 163 
6 11 3 84 163 5 97 82 124 181 92 24 7 
7 11 53 45 127 191 28 21 12 82 3 163 24 
8 11 112 21 38 127 88 54 53 13 117 48 22 
9 10 44 31 40 33 102 160 36 43 197 105 
10 10 118 39 66 69 90 2 67 93 50 166 
11 11 46 137 141 174 133 63 162 154 103 125 77 
12 11 45 28 93 50 191 183 155 130 7 67 88 
13 8 62 96 112 27 88 22 80 98 
14 6 122 179 78 47 126 65 
15 7 71 178 175 150 106 111 158 
16 9 159 134 41 64 189 147 87 187 152 
17 9 95 26 56 142 105 119 109 99 161 
18 11 57 100 85 116 107 162 63 123 35 54 11 
19 5 86 92 181 5 84 
20 11 149 91 52 176 168 148 177 94 188 121 136 
21 11 127 53 8 112 38 7 88 24 117 45 82 
22 9 80 54 116 139 13 96 107 57 18 
23 8 145 132 185 79 143 193 173 73 
24 11 82 163 53 38 117 3 21 127 6 7 48 
25 9 194 81 113 195 182 198 146 164 110 
26 9 56 142 109 95 105 17 161 36 44 
27 6 130 98 183 88 157 13 
28 10 191 45 12 7 93 2 50 127 53 67 
29 7 75 51 89 153 87 172 192 
30 9 101 79 73 193 23 145 42 132 59 
31 8 9 44 40 197 33 160 102 36 
32 8 140 167 196 135 70 61 156 199 
33 11 40 102 160 44 9 43 31 36 76 121 188 
34 11 131 169 108 144 151 184 128 152 104 180 165 
35 11 55 4 120 186 18 100 57 85 162 129 123 
36 11 43 44 105 102 40 33 121 188 9 109 142 
37 3 59 101 30 
38 11 117 48 49 24 21 8 53 82 127 115 112 
39 10 118 10 119 69 66 60 99 68 90 2 
40 11 33 102 44 9 160 31 43 36 76 121 105 
41 6 189 87 159 16 153 134 
42 4 73 79 185 23 
43 11 36 102 121 188 33 40 44 9 105 148 52 
44 11 9 40 33 31 102 36 43 105 160 197 142 
45 11 191 28 7 12 127 53 93 50 21 183 88 
46 10 137 174 11 133 141 125 162 154 63 103 
47 6 78 65 122 14 126 179 
48 11 49 117 38 115 8 24 123 21 107 54 82 
49 11 48 117 38 115 123 8 24 107 21 54 82 
50 9 93 67 155 157 12 2 130 183 66 
51 5 75 172 192 29 89 
52 11 91 149 20 148 188 121 168 176 94 199 61 
53 11 127 7 21 82 24 45 163 191 38 3 8 
54 11 107 22 123 115 116 100 80 18 57 8 13 
55 11 35 4 120 186 100 18 57 85 162 129 123 
56 8 142 26 109 105 161 95 17 36 
57 11 18 100 85 116 162 63 107 123 35 11 54 
58 11 190 180 151 165 169 108 34 144 72 131 128 
59 3 37 101 30 
60 5 69 114 39 90 10 
61 10 199 70 140 94 168 176 32 196 167 177 
62 2 96 13 
63 11 141 11 162 103 154 77 85 46 133 137 116 
64 11 147 104 16 159 152 184 187 131 34 169 134 
65 5 47 78 122 126 14 
66 9 118 10 67 161 39 155 50 93 157 
67 9 155 50 93 157 66 130 12 183 2 
68 9 99 110 138 113 25 119 194 81 198 
69 6 90 10 60 39 166 2 
70 10 61 199 140 32 196 94 168 167 135 176 
71 7 15 175 178 158 150 106 111 
72 9 165 58 180 128 144 108 190 151 34 
73 7 79 42 23 185 145 30 132 
74 7 148 136 149 20 52 121 188 
75 7 51 29 192 172 89 153 87 
76 7 160 72 33 40 102 9 31 
77 7 103 154 170 141 63 133 11 
78 6 47 122 65 14 126 179 
79 10 73 23 145 42 185 30 132 193 101 143 
80 6 139 22 96 116 62 13 
81 8 195 182 198 25 194 113 164 146 
82 11 163 24 3 6 53 7 84 127 38 117 21 
83 4 129 186 55 35 
84 11 6 5 3 97 181 92 163 124 82 19 86 
85 11 57 18 116 63 162 100 11 141 103 154 77 
86 8 19 92 181 5 84 97 124 6 
87 6 153 41 89 189 29 159 
88 11 183 112 27 130 13 98 12 8 21 127 157 
89 8 29 87 75 153 41 51 159 16 
90 4 166 69 2 10 
91 11 52 20 149 168 176 94 148 188 121 199 61 
92 10 5 86 181 19 84 97 124 6 3 163 
93 9 50 67 155 2 12 157 28 45 191 
94 10 199 168 91 61 70 176 52 20 149 140 
95 9 17 26 56 142 105 109 119 161 44 
96 5 62 139 80 13 22 
97 11 124 84 6 92 5 3 163 181 82 86 19 
98 4 27 130 183 157 
99 9 68 110 119 113 138 25 171 194 81 
100 11 18 57 85 107 123 116 54 35 162 63 4 
101 6 193 30 145 79 132 23 
102 11 33 40 43 160 44 9 36 31 121 188 76 
103 7 77 154 141 170 63 133 11 
104 11 169 34 131 147 151 184 152 108 144 64 128 
105 10 142 109 26 56 36 44 95 43 9 17 
106 8 158 198 178 150 15 195 81 138 
107 11 123 54 100 115 18 57 116 22 85 4 120 
108 11 144 34 131 128 169 151 184 165 152 180 104 
109 8 142 56 105 26 36 161 95 43 
110 11 113 68 25 138 194 99 81 195 198 182 146 
111 9 150 178 15 114 71 106 175 138 158 
112 11 8 88 21 13 127 183 27 130 53 54 22 
113 11 25 81 198 195 110 194 138 182 164 146 106 
114 9 111 150 178 60 138 15 106 71 198 
115 11 123 107 48 54 49 100 120 4 38 8 117 
116 11 85 57 18 63 80 100 22 139 103 162 77 
117 11 38 48 49 24 21 82 8 53 115 127 163 
118 9 66 39 10 119 67 161 69 50 155 
119 10 99 39 68 118 17 95 66 110 10 138 
120 11 4 55 35 123 100 107 18 115 57 85 186 
121 11 188 148 52 43 149 91 20 36 94 168 176 
122 6 78 126 14 179 47 65 
123 11 107 115 100 54 18 57 120 4 116 85 22 
124 11 97 84 92 6 5 3 163 181 86 82 19 
125 7 137 174 46 11 133 162 141 
126 4 122 179 78 14 
127 11 53 21 7 45 112 8 12 88 24 191 82 
128 9 144 108 165 131 34 184 169 152 151 
129 5 186 83 35 55 125 
130 9 183 27 157 98 88 155 12 67 50 
131 11 34 108 169 144 184 151 128 152 104 165 147 
132 7 145 23 193 143 185 173 79 
133 9 174 46 11 141 137 154 170 103 77 
134 9 16 187 159 41 189 147 152 197 184 
135 7 32 140 70 167 196 61 199 
136 2 177 20 
137 9 46 174 11 125 133 141 162 63 154 
138 9 113 110 198 106 25 68 81 195 150 
139 4 80 96 22 116 
140 10 32 70 196 167 61 199 135 156 94 168 
141 10 154 103 11 77 63 133 170 46 174 137 
142 9 56 109 26 105 95 36 161 17 44 
143 5 173 185 132 23 145 
144 11 108 128 34 131 169 165 151 184 152 180 187 
145 8 23 132 193 143 185 79 173 101 
146 6 194 164 182 25 81 195 
147 10 152 184 187 104 131 34 108 169 64 144 
148 11 149 52 20 188 121 91 74 176 168 136 94 
149 11 20 52 91 148 176 168 188 121 94 177 136 
150 8 178 111 106 15 71 114 138 158 
151 11 169 34 131 180 108 144 165 128 104 184 58 
152 9 184 187 147 131 34 108 128 144 169 
153 4 87 29 41 189 
154 9 103 77 141 170 133 63 11 46 174 
155 9 67 157 50 93 130 183 12 27 98 
156 3 167 196 32 
157 9 155 130 67 183 50 98 27 93 12 
158 5 106 175 71 198 15 
159 8 16 41 134 64 87 189 89 147 
160 10 33 76 40 102 9 31 44 197 43 72 
161 5 56 26 109 142 66 
162 11 11 63 46 85 137 141 174 125 133 154 103 
163 11 82 3 6 24 84 53 97 7 5 124 127 
164 6 182 146 194 195 81 25 
165 11 128 144 108 180 34 151 131 169 58 72 184 
166 2 90 2 
167 7 196 32 140 156 70 135 61 
168 11 176 91 20 94 149 52 61 199 177 70 148 
169 11 34 151 131 108 144 180 104 128 184 165 152 
170 6 154 77 103 141 133 11 
171 3 146 194 25 
172 4 51 192 75 29 
173 3 143 185 23 
174 8 46 137 133 11 125 141 154 162 
175 5 71 15 158 178 106 
176 10 168 20 91 149 177 52 61 94 199 70 
177 7 176 168 20 136 61 199 70 
178 8 150 15 111 71 106 175 158 198 
179 5 126 122 14 78 47 
180 11 151 58 190 169 165 34 108 144 131 128 104 
181 8 5 84 92 19 86 6 3 97 
182 7 164 195 81 194 25 146 198 
183 9 130 27 88 157 98 155 12 112 50 
184 10 152 131 34 108 144 147 128 187 169 104 
185 5 23 143 173 145 132 
186 5 129 35 55 83 125 
187 9 152 184 147 128 131 144 108 34 197 
188 11 121 148 52 91 149 43 20 36 94 168 176 
189 4 41 87 153 16 
190 11 58 180 151 169 165 34 108 144 131 72 128 
191 10 28 45 7 12 53 127 93 2 50 3 
192 4 51 172 75 29 
193 5 101 132 145 23 79 
194 8 25 146 182 81 164 195 113 198 
195 8 81 182 198 25 194 113 164 146 
196 8 167 140 32 156 70 61 199 135 
197 8 187 31 128 152 184 144 134 165 
198 8 81 195 113 182 25 106 194 138 
199 10 61 70 140 94 168 176 32 196 91 135 
DEPOT_SECTION
   1
   -1
EOF
