NAME :  X-n376-kX-w75-c9.cctp
COMMENT : 	Adapted by Maziero, Usberti and Cavellucci from the Uchoa, Pecin, Pessoa, Poggi, Subramanian, and Vidal (2013)
TYPE :  CCTP
DIMENSION :    352
EDGE_WEIGHT_TYPE : 	EUC_2D	
CAPACITY : 	4
VERTICES_WITHIN_COVERAGE :  9
VERTICES_WITH_DEMAND : 	75
NODE_COORD_SECTION
1 0 0
2 989 944
3 5 730
4 769 200
5 698 515
6 72 561
7 52 397
8 839 271
9 140 724
10 339 580
11 30 850
12 820 815
13 555 844
14 388 709
15 323 438
16 159 983
17 989 233
18 644 167
19 766 151
20 387 690
21 193 140
22 863 192
23 149 123
24 609 119
25 121 204
26 625 537
27 716 123
28 8 219
29 429 956
30 844 970
31 661 66
32 347 202
33 979 314
34 255 772
35 634 504
36 466 48
37 330 90
38 929 245
39 236 130
40 785 0
41 251 486
42 758 203
43 524 280
44 798 71
45 212 595
46 967 478
47 504 429
48 581 534
49 883 899
50 605 414
51 640 692
52 287 432
53 641 771
54 53 374
55 344 325
56 647 72
57 63 976
58 519 235
59 485 226
60 469 527
61 433 168
62 538 891
63 884 433
64 142 134
65 234 394
66 473 750
67 815 622
68 130 999
69 655 588
70 16 235
71 503 614
72 477 489
73 87 78
74 689 289
75 631 868
76 304 743
77 624 81
78 831 984
79 312 157
80 563 205
81 641 435
82 189 201
83 906 949
84 601 486
85 746 904
86 557 409
87 854 201
88 50 20
89 994 111
90 584 875
91 316 741
92 150 56
93 377 988
94 371 762
95 401 741
96 890 126
97 797 335
98 9 301
99 923 259
100 586 782
101 103 99
102 166 987
103 383 86
104 603 863
105 590 78
106 40 554
107 755 120
108 554 351
109 603 102
110 279 404
111 1 481
112 667 931
113 609 350
114 755 779
115 607 107
116 589 379
117 744 130
118 469 142
119 491 28
120 602 512
121 391 982
122 285 336
123 730 604
124 758 153
125 831 894
126 355 206
127 382 353
128 887 133
129 286 835
130 103 743
131 89 845
132 689 515
133 903 330
134 713 261
135 465 494
136 703 619
137 282 745
138 320 130
139 531 25
140 887 949
141 765 502
142 174 187
143 993 233
144 25 851
145 228 228
146 774 690
147 722 969
148 133 115
149 175 663
150 134 106
151 469 233
152 325 78
153 166 547
154 416 965
155 284 119
156 169 541
157 302 72
158 537 7
159 434 329
160 59 816
161 139 74
162 495 746
163 890 453
164 719 235
165 184 528
166 863 957
167 821 476
168 700 645
169 400 49
170 293 179
171 104 271
172 882 906
173 701 394
174 18 221
175 819 101
176 971 397
177 454 960
178 348 657
179 745 122
180 3 510
181 981 283
182 167 323
183 869 880
184 844 154
185 53 544
186 443 825
187 879 809
188 683 254
189 719 31
190 664 737
191 541 249
192 204 791
193 615 578
194 821 381
195 767 595
196 594 837
197 331 365
198 537 263
199 157 938
200 147 59
201 138 140
202 354 240
203 435 976
204 917 593
205 504 643
206 552 29
207 420 473
208 576 665
209 648 637
210 792 147
211 55 92
212 635 236
213 180 793
214 561 629
215 743 136
216 686 38
217 415 672
218 678 523
219 834 48
220 897 63
221 868 224
222 786 394
223 132 915
224 513 74
225 757 295
226 859 823
227 398 959
228 360 94
229 506 114
230 699 907
231 842 46
232 240 808
233 434 756
234 628 184
235 938 599
236 22 999
237 707 963
238 681 762
239 750 278
240 652 340
241 788 95
242 653 222
243 730 753
244 484 573
245 144 957
246 404 597
247 849 288
248 321 355
249 294 41
250 43 501
251 175 695
252 439 486
253 949 443
254 245 169
255 848 143
256 198 396
257 153 521
258 436 824
259 703 624
260 126 2
261 659 523
262 370 702
263 528 268
264 330 488
265 420 88
266 630 555
267 568 848
268 92 747
269 126 152
270 18 275
271 875 151
272 537 418
273 598 777
274 819 522
275 112 727
276 697 29
277 243 155
278 195 437
279 563 820
280 583 383
281 645 62
282 645 77
283 193 643
284 96 519
285 336 319
286 998 266
287 990 922
288 753 566
289 646 537
290 412 328
291 386 478
292 344 512
293 151 492
294 625 949
295 251 208
296 680 428
297 171 19
298 405 150
299 146 654
300 82 631
301 417 950
302 121 982
303 209 292
304 180 796
305 51 162
306 628 521
307 820 662
308 596 600
309 605 229
310 378 53
311 95 447
312 899 216
313 685 705
314 304 713
315 305 760
316 636 482
317 954 189
318 470 857
319 450 97
320 811 886
321 453 64
322 732 350
323 258 429
324 674 351
325 20 95
326 57 298
327 136 129
328 62 213
329 852 852
330 538 110
331 435 522
332 518 452
333 816 415
334 987 849
335 472 154
336 893 13
337 579 281
338 418 966
339 391 92
340 490 482
341 552 802
342 667 416
343 571 581
344 71 227
345 311 90
346 598 723
347 845 677
348 528 124
349 321 456
350 817 624
351 978 276
352 239 960
DEMAND_SECTION
2 1
3 1
4 1
5 1
6 1
7 1
8 1
9 1
10 1
11 1
12 1
13 1
14 1
15 1
16 1
17 1
18 1
19 1
20 1
21 1
22 1
23 1
24 1
25 1
26 1
27 1
28 1
29 1
30 1
31 1
32 1
33 1
34 1
35 1
36 1
37 1
38 1
39 1
40 1
41 1
42 1
43 1
44 1
45 1
46 1
47 1
48 1
49 1
50 1
51 1
52 1
53 1
54 1
55 1
56 1
57 1
58 1
59 1
60 1
61 1
62 1
63 1
64 1
65 1
66 1
67 1
68 1
69 1
70 1
71 1
72 1
73 1
74 1
75 1
76 1
COVERAGE_SECTION
2 8 287 83 334 140 172 49 166 183 
3 9 268 130 160 275 11 144 300 9 131 
4 9 42 124 19 210 164 215 117 239 107 
5 9 132 218 261 289 35 141 306 316 288 
6 9 185 106 284 250 300 180 257 153 156 
7 9 54 311 111 326 250 98 180 270 284 
8 9 247 221 87 97 312 22 99 225 133 
9 9 275 130 251 268 149 299 213 304 192 
10 9 246 292 178 264 291 331 217 20 349 
11 7 144 160 131 268 223 3 57 
12 8 226 329 187 320 114 125 183 49 
13 9 267 279 196 90 341 62 104 100 75 
14 9 20 262 95 217 94 178 233 91 314 
15 9 349 52 264 110 323 197 291 292 248 
16 8 102 245 68 302 199 223 352 57 
17 9 143 286 351 181 317 38 99 33 312 
18 9 234 242 24 115 212 309 109 27 77 
19 9 124 210 215 117 107 179 4 42 27 
20 9 14 262 217 178 95 94 233 314 91 
21 9 39 23 64 142 277 201 327 254 82 
22 9 87 221 184 271 312 255 128 96 8 
23 9 64 327 148 201 150 269 21 161 101 
24 9 115 109 77 105 282 18 56 281 234 
25 9 269 344 142 328 201 82 171 64 327 
26 9 306 266 289 35 120 261 193 48 218 
27 9 117 179 215 107 124 19 241 31 210 
28 9 174 70 328 270 344 305 98 326 171 
29 8 301 338 154 203 177 227 121 93 
30 9 78 166 140 83 172 125 49 320 183 
31 9 56 281 282 216 77 276 109 115 189 
32 9 126 202 79 170 138 298 61 295 155 
33 9 181 351 286 99 133 17 143 176 38 
34 9 137 232 315 192 76 91 129 314 213 
35 9 306 316 261 120 26 289 84 218 266 
36 8 321 119 319 224 265 169 139 229 
37 9 152 345 228 157 138 103 155 249 310 
38 9 99 312 351 17 317 181 143 221 286 
39 9 277 254 21 155 170 295 79 138 142 
40 9 219 44 189 231 276 241 216 175 336 
41 9 323 52 278 349 165 264 15 110 65 
42 9 4 124 164 19 210 215 134 117 239 
43 9 263 198 191 58 337 59 151 108 80 
44 9 241 175 219 231 107 40 179 210 117 
45 9 283 153 156 165 149 299 257 251 41 
46 9 253 163 176 63 235 204 167 274 133 
47 9 332 272 340 86 72 135 252 280 108 
48 9 120 26 343 306 84 266 193 35 289 
49 9 172 183 140 125 83 329 166 320 226 
50 9 116 280 81 86 342 113 272 84 316 
51 9 313 190 346 209 208 168 53 238 259 
52 9 110 323 15 349 41 65 264 197 248 
53 9 190 238 273 100 346 51 313 196 243 
54 9 7 326 311 98 270 171 111 182 250 
55 9 285 248 197 127 122 290 202 159 110 
56 9 282 281 31 77 216 109 115 105 24 
57 9 236 302 68 245 223 16 199 102 11 
58 9 191 198 263 59 43 151 80 337 309 
59 9 151 58 263 191 198 43 335 61 80 
60 9 135 331 72 244 340 252 207 332 71 
61 9 298 335 118 319 151 59 265 126 339 
62 9 90 13 267 104 279 318 196 341 75 
63 9 163 253 333 167 194 46 176 133 222 
64 9 201 327 23 148 269 150 21 101 161 
65 9 256 323 110 278 52 122 41 248 182 
66 9 162 233 95 186 258 14 341 217 94 
67 9 350 307 195 347 146 288 123 274 204 
68 9 302 16 102 245 199 57 223 236 352 
69 9 193 266 209 289 136 26 259 308 261 
70 9 174 28 270 328 344 98 326 305 171 
71 9 205 244 214 343 208 60 308 246 217 
72 9 135 340 252 60 331 332 207 47 244 
73 9 101 211 161 150 148 200 92 88 325 
74 9 188 134 164 239 240 324 225 322 212 
75 9 104 90 196 267 112 230 13 294 279 
76 9 91 315 137 314 34 94 262 14 232 
77 9 282 56 281 109 115 105 31 24 216 
78 9 30 166 140 83 125 172 49 320 147 
79 9 138 170 155 32 126 345 254 37 277 
80 9 309 191 58 198 234 263 212 337 59 
81 9 342 296 50 316 84 35 173 116 280 
82 9 142 145 21 295 254 25 277 201 269 
83 9 140 166 172 49 30 183 2 78 287 
84 9 120 316 35 306 48 26 81 289 261 
85 9 230 320 147 237 112 125 12 78 30 
86 9 272 280 116 50 47 108 332 113 81 
87 9 22 221 312 184 271 255 8 128 210 
88 9 73 211 260 325 101 161 200 92 150 
89 8 317 96 220 128 17 143 271 336 
90 9 104 267 196 13 75 62 279 341 294 
91 9 76 315 314 137 94 262 34 14 95 
92 9 200 161 297 150 260 148 101 23 73 
93 7 121 227 154 338 301 203 29 
94 9 95 14 91 262 233 315 76 20 314 
95 9 14 233 94 262 20 217 66 91 258 
96 9 128 271 255 184 220 22 175 87 312 
97 9 194 225 222 322 247 239 8 333 133 
98 9 270 326 70 174 28 54 344 171 328 
99 9 38 312 351 181 221 17 133 143 286 
100 9 273 341 279 53 196 346 267 13 104 
101 9 73 150 148 161 327 211 23 64 201 
102 7 16 245 68 302 199 352 223 
103 7 339 228 310 265 169 37 152 
104 9 90 75 196 267 13 279 62 341 100 
105 9 109 77 115 24 282 56 281 330 206 
106 9 185 6 250 180 284 111 300 257 311 
107 9 179 117 215 19 124 27 241 210 44 
108 9 280 116 113 86 272 337 43 50 263 
109 9 115 24 105 77 282 56 281 330 31 
110 9 52 323 65 15 197 248 349 122 256 
111 9 180 250 185 106 7 311 284 6 54 
112 9 230 294 237 147 75 85 104 90 196 
113 9 116 280 240 108 50 324 337 86 342 
114 9 243 12 238 146 190 313 226 53 320 
115 9 109 24 77 105 282 56 281 31 330 
116 9 280 113 50 86 108 272 240 81 342 
117 9 215 179 107 124 27 19 210 241 4 
118 8 335 61 229 319 348 298 265 330 
119 8 36 139 158 224 321 206 319 229 
120 9 84 306 48 35 26 316 266 289 261 
121 8 93 227 154 338 301 203 29 177 
122 9 248 197 285 55 110 65 303 52 323 
123 9 136 259 195 288 168 69 67 209 350 
124 9 19 215 117 107 179 210 4 42 27 
125 9 320 183 329 49 172 166 226 30 140 
126 9 32 202 79 170 298 138 61 295 155 
127 9 290 55 197 159 285 248 122 15 110 
128 9 96 271 255 184 22 220 175 87 312 
129 5 232 34 315 137 192 
130 9 268 275 9 160 251 213 304 3 299 
131 6 160 11 144 223 268 130 
132 9 5 218 261 289 35 306 316 26 266 
133 9 247 99 33 8 38 181 351 176 194 
134 9 164 188 74 239 225 242 42 212 4 
135 9 72 252 340 60 331 207 332 47 244 
136 9 259 168 123 69 209 195 288 313 51 
137 9 76 315 91 34 314 232 129 94 192 
138 9 79 155 37 345 152 228 170 157 32 
139 8 158 206 119 224 36 105 330 321 
140 9 83 166 172 30 49 78 183 125 320 
141 9 274 167 288 5 132 218 195 333 123 
142 9 82 21 25 201 269 64 145 23 327 
143 9 17 286 351 181 317 38 99 33 312 
144 7 11 160 131 3 268 223 57 
145 9 295 82 254 303 142 277 170 21 39 
146 9 307 347 243 67 350 168 313 114 195 
147 9 237 230 112 85 294 78 30 320 125 
148 9 150 327 23 64 201 101 269 161 200 
149 9 283 299 251 9 45 275 300 130 153 
150 9 148 23 327 64 101 161 201 269 200 
151 9 59 58 263 43 61 191 198 335 118 
152 9 37 345 157 228 249 138 155 103 310 
153 9 156 165 257 293 45 284 6 283 41 
154 8 338 301 29 227 203 121 177 93 
155 9 138 345 79 39 157 37 277 152 170 
156 9 153 165 257 293 45 284 6 41 283 
157 9 345 152 249 37 155 138 228 310 103 
158 8 139 206 119 224 36 105 321 330 
159 9 290 127 55 285 43 151 197 263 59 
160 7 131 11 144 268 130 3 275 
161 9 200 92 150 148 101 23 73 327 64 
162 9 66 233 341 95 186 100 258 279 205 
163 9 63 253 167 46 333 176 274 194 222 
164 9 134 188 42 239 4 74 242 225 212 
165 9 156 153 257 293 45 41 284 278 283 
166 9 30 140 78 83 172 49 125 183 320 
167 9 274 333 141 163 63 222 194 288 5 
168 9 259 136 123 209 313 69 51 195 146 
169 7 310 103 265 339 321 228 36 
170 9 79 254 295 277 138 32 155 126 39 
171 9 326 344 25 328 182 270 70 174 98 
172 9 49 183 140 83 125 166 329 30 320 
173 9 296 342 324 322 81 240 222 50 113 
174 9 28 70 328 344 270 305 98 326 171 
175 9 241 44 255 210 219 184 231 107 19 
176 9 253 46 33 63 133 163 181 351 286 
177 9 29 203 338 154 301 227 121 93 318 
178 9 262 20 14 217 314 10 246 91 76 
179 9 117 107 215 27 124 19 241 210 44 
180 9 111 250 106 185 6 284 311 7 54 
181 9 351 286 33 17 143 99 38 133 317 
182 9 303 256 171 65 145 326 278 122 82 
183 9 49 172 329 125 226 320 140 187 166 
184 9 255 271 22 87 128 210 96 175 221 
185 9 106 6 250 284 180 111 300 257 311 
186 8 258 318 233 66 95 162 94 341 
187 5 226 329 12 183 49 
188 9 134 74 164 242 212 239 309 225 234 
189 9 276 216 31 40 281 56 282 44 27 
190 9 238 313 53 51 346 243 273 100 168 
191 9 198 263 58 43 80 337 59 309 151 
192 7 213 304 232 34 137 9 129 
193 9 266 308 69 26 343 289 48 306 120 
194 9 333 222 97 63 322 167 133 247 163 
195 9 288 123 67 350 136 259 168 307 274 
196 9 104 267 279 90 13 75 341 100 273 
197 9 248 55 285 127 122 110 15 52 290 
198 9 263 191 43 58 337 59 80 151 309 
199 6 245 223 16 102 302 68 
200 9 92 161 297 150 148 101 260 73 23 
201 9 64 327 269 23 148 150 101 21 142 
202 9 126 32 285 55 170 79 298 290 61 
203 8 338 29 154 177 301 227 121 93 
204 6 235 350 67 347 307 274 
205 9 71 214 244 208 343 217 308 162 246 
206 8 139 158 224 119 105 330 36 77 
207 9 252 291 135 331 72 340 60 292 264 
208 9 214 346 308 51 205 209 343 71 193 
209 9 69 168 51 259 136 308 193 208 313 
210 9 19 124 107 215 117 184 241 175 179 
211 9 73 325 101 305 88 150 148 161 327 
212 9 242 309 188 234 18 337 74 80 134 
213 6 304 192 232 34 9 130 
214 9 208 308 343 205 71 193 209 244 48 
215 9 117 179 107 124 19 27 210 241 4 
216 9 276 189 31 281 56 282 77 27 179 
217 9 20 14 262 178 95 246 233 205 66 
218 9 132 261 5 289 35 306 26 266 316 
219 9 231 44 175 220 241 40 336 96 255 
220 9 336 231 96 219 128 175 271 255 44 
221 9 87 22 312 8 38 99 247 271 184 
222 9 194 333 97 322 173 167 225 63 141 
223 6 199 245 302 16 102 131 
224 8 229 330 119 139 348 36 206 321 
225 9 239 134 97 322 74 164 8 188 42 
226 7 187 329 12 183 125 320 49 
227 8 154 301 338 121 29 93 203 177 
228 8 103 37 339 152 310 345 138 169 
229 8 348 330 224 118 335 319 321 36 
230 9 112 85 237 147 75 294 104 320 90 
231 9 219 44 220 175 336 40 241 96 255 
232 8 34 192 129 304 213 137 315 76 
233 9 95 66 162 94 14 258 186 20 262 
234 9 18 242 309 212 24 80 115 109 188 
235 6 204 347 46 350 67 307 
236 9 57 302 68 245 16 223 102 144 199 
237 9 147 112 230 85 294 75 78 320 30 
238 9 190 53 243 313 114 51 273 346 100 
239 9 225 134 164 74 188 97 322 42 4 
240 9 324 113 74 173 116 342 280 322 50 
241 9 44 175 107 179 210 117 19 215 124 
242 9 212 188 234 309 18 164 134 74 80 
243 9 114 238 313 190 146 53 12 51 168 
244 9 71 60 331 205 135 72 246 343 340 
245 7 199 16 302 102 68 223 57 
246 9 10 217 331 178 244 20 60 71 292 
247 9 8 221 133 97 99 87 312 38 225 
248 9 197 55 285 122 127 110 15 52 65 
249 8 157 152 345 37 155 228 310 138 
250 9 180 185 111 106 284 6 311 7 293 
251 9 149 9 299 283 275 130 213 268 192 
252 9 207 135 331 72 60 340 291 47 332 
253 9 46 176 163 63 133 33 167 333 194 
254 9 277 295 39 170 21 145 155 82 79 
255 9 184 271 128 96 22 175 210 87 241 
256 9 65 278 323 182 110 52 41 303 122 
257 9 156 153 293 165 284 6 278 311 45 
258 7 186 318 233 66 94 95 162 
259 9 136 168 123 209 69 195 288 313 51 
260 9 297 92 200 161 88 73 101 150 148 
261 9 218 289 35 132 306 26 5 266 316 
262 9 14 20 95 178 217 94 91 314 76 
263 9 198 43 191 58 337 59 151 80 309 
264 9 292 349 15 291 52 41 207 10 323 
265 8 339 319 103 321 169 310 228 36 
266 9 26 289 193 306 69 261 35 120 48 
267 9 13 196 279 90 104 341 62 75 100 
268 9 130 275 9 160 3 131 251 213 304 
269 9 201 64 327 23 148 150 25 101 142 
270 9 98 70 326 174 28 344 328 171 54 
271 9 128 255 96 184 22 87 312 221 175 
272 9 86 47 332 280 116 50 108 340 72 
273 9 100 53 341 346 279 196 190 267 13 
274 9 167 141 288 195 163 67 350 333 63 
275 9 130 9 268 251 299 149 213 304 300 
276 9 216 189 31 281 56 282 77 40 27 
277 9 254 39 21 295 155 170 79 82 145 
278 9 256 65 323 293 41 110 52 165 257 
279 9 341 13 267 196 100 273 90 104 62 
280 9 116 86 50 113 108 272 81 240 342 
281 9 56 282 31 77 216 105 109 115 276 
282 9 56 281 31 77 115 109 24 105 216 
283 9 149 299 45 251 9 153 156 300 165 
284 9 6 185 250 257 293 106 311 153 156 
285 9 55 248 197 122 127 290 202 159 110 
286 9 351 181 143 17 33 38 99 317 312 
287 7 2 334 83 140 49 172 183 
288 9 195 123 141 136 5 259 274 132 67 
289 9 261 26 266 306 35 218 132 120 193 
290 9 159 127 55 285 197 248 202 151 43 
291 9 207 252 292 264 331 349 15 135 72 
292 9 264 291 349 10 15 207 331 41 52 
293 9 257 165 156 153 284 278 311 41 6 
294 9 112 75 237 90 230 104 147 62 196 
295 9 145 254 170 277 82 39 79 142 21 
296 9 342 81 173 316 50 324 132 5 35 
297 9 92 200 260 161 150 73 148 101 23 
298 9 61 339 118 265 335 103 319 228 126 
299 9 149 283 251 300 9 275 45 130 268 
300 9 299 6 106 185 149 275 9 283 251 
301 8 29 154 338 227 203 177 121 93 
302 8 68 245 16 102 199 57 223 236 
303 9 182 145 122 82 295 65 256 171 142 
304 6 213 192 232 34 9 130 
305 9 328 174 344 211 28 325 269 70 25 
306 9 26 35 289 120 261 266 316 84 48 
307 6 347 350 67 146 195 123 
308 9 193 343 214 266 69 209 48 208 26 
309 9 212 80 242 234 337 191 18 198 188 
310 7 169 103 339 228 265 152 37 
311 9 7 284 293 250 54 257 111 278 185 
312 9 221 38 22 87 99 317 271 8 184 
313 9 190 51 238 168 243 209 53 259 136 
314 9 76 91 137 315 262 178 34 94 14 
315 9 76 91 137 314 34 94 129 232 262 
316 9 35 84 306 120 81 261 26 289 218 
317 9 17 143 38 312 99 128 89 271 286 
318 8 186 258 62 13 267 341 279 177 
319 8 265 321 118 36 229 339 335 224 
320 9 125 329 183 85 12 49 172 226 166 
321 8 36 319 265 119 169 224 339 103 
322 9 173 324 225 97 222 239 74 240 134 
323 9 52 110 65 41 278 15 256 349 264 
324 9 240 173 322 74 113 342 296 116 81 
325 9 211 73 305 88 101 148 150 269 161 
326 9 270 98 171 344 70 54 328 174 28 
327 9 64 201 23 148 150 269 101 161 21 
328 9 344 174 70 305 28 25 171 270 326 
329 8 226 183 125 12 187 320 49 172 
330 8 348 229 224 105 109 115 24 118 
331 9 60 252 135 207 72 291 340 244 246 
332 9 47 272 340 72 86 135 252 60 84 
333 9 194 222 167 63 97 163 141 322 274 
334 5 287 2 49 187 172 
335 8 118 61 229 319 348 298 59 151 
336 8 220 231 219 40 44 96 175 128 
337 9 198 191 263 43 309 212 108 113 58 
338 8 154 29 301 203 227 121 177 93 
339 8 103 265 228 310 169 319 298 37 
340 9 72 135 332 60 252 47 331 207 272 
341 9 279 100 13 267 273 196 90 104 162 
342 9 296 81 173 50 324 316 240 116 113 
343 9 308 193 48 214 266 26 71 120 306 
344 9 328 174 25 171 70 28 305 270 326 
345 9 152 37 157 155 138 228 249 79 103 
346 9 51 273 100 208 53 190 313 341 238 
347 4 307 350 67 146 
348 8 330 229 224 118 335 105 109 24 
349 9 15 264 52 292 110 291 323 41 197 
350 9 67 307 195 347 146 288 123 274 204 
351 9 181 286 33 17 143 38 99 317 133 
352 4 102 16 199 245 
DEPOT_SECTION
   1
   -1
EOF
