NAME :  X-n313-kX-w124-c9.cctp
COMMENT : 	Adapted by Maziero, Usberti and Cavellucci from the Uchoa, Pecin, Pessoa, Poggi, Subramanian, and Vidal (2013)
TYPE :  CCTP
DIMENSION :    281
EDGE_WEIGHT_TYPE : 	EUC_2D	
CAPACITY : 	248
VERTICES_WITHIN_COVERAGE :  9
VERTICES_WITH_DEMAND : 	124
NODE_COORD_SECTION
1 471 44
2 63 475
3 766 504
4 895 595
5 816 377
6 462 590
7 997 596
8 775 993
9 16 97
10 839 348
11 558 896
12 423 912
13 169 411
14 75 602
15 402 52
16 388 208
17 202 39
18 510 841
19 555 484
20 920 633
21 369 718
22 432 696
23 624 872
24 472 323
25 753 701
26 584 440
27 292 665
28 202 310
29 764 255
30 662 486
31 822 575
32 469 13
33 640 165
34 814 886
35 554 82
36 336 745
37 950 229
38 142 835
39 407 932
40 69 205
41 86 764
42 202 165
43 376 632
44 639 987
45 775 98
46 503 855
47 38 960
48 215 73
49 566 78
50 4 517
51 44 457
52 676 337
53 338 568
54 623 911
55 626 931
56 97 43
57 799 942
58 725 430
59 93 953
60 264 347
61 986 595
62 631 614
63 331 362
64 158 793
65 760 436
66 115 641
67 307 764
68 469 817
69 315 388
70 906 830
71 564 25
72 88 246
73 671 892
74 181 139
75 723 784
76 609 798
77 174 403
78 76 671
79 984 939
80 830 579
81 3 893
82 176 164
83 625 158
84 249 590
85 663 347
86 21 500
87 501 372
88 572 218
89 483 270
90 604 201
91 548 281
92 205 745
93 125 178
94 870 931
95 276 846
96 759 839
97 79 105
98 218 992
99 277 797
100 545 62
101 161 102
102 1 827
103 719 128
104 80 366
105 16 732
106 24 521
107 848 600
108 585 594
109 618 577
110 44 300
111 489 239
112 479 978
113 768 731
114 274 30
115 546 837
116 890 640
117 594 308
118 878 716
119 498 448
120 145 96
121 54 935
122 473 5
123 906 899
124 277 752
125 435 254
126 905 275
127 521 401
128 850 425
129 374 186
130 712 433
131 814 730
132 681 74
133 120 490
134 297 816
135 376 534
136 982 560
137 1 332
138 815 625
139 356 868
140 659 994
141 804 110
142 415 517
143 106 844
144 549 366
145 57 742
146 848 739
147 381 700
148 442 808
149 867 408
150 67 930
151 763 186
152 581 91
153 416 56
154 163 73
155 160 129
156 314 748
157 580 852
158 464 768
159 718 885
160 758 736
161 110 40
162 279 995
163 184 123
164 181 234
165 49 83
166 869 742
167 708 854
168 945 830
169 285 233
170 440 768
171 205 96
172 505 113
173 154 171
174 574 757
175 491 864
176 168 63
177 1 235
178 173 235
179 733 735
180 449 717
181 241 173
182 466 981
183 222 115
184 433 647
185 425 754
186 145 188
187 393 883
188 150 145
189 247 104
190 673 627
191 811 550
192 60 207
193 477 879
194 530 970
195 814 654
196 717 660
197 247 178
198 173 134
199 635 947
200 335 108
201 16 241
202 539 903
203 511 845
204 732 749
205 637 586
206 482 945
207 196 132
208 829 787
209 113 192
210 655 666
211 35 140
212 136 192
213 845 818
214 482 936
215 341 846
216 124 65
217 115 177
218 320 660
219 599 809
220 881 701
221 417 880
222 629 972
223 149 77
224 58 45
225 212 89
226 411 820
227 499 821
228 80 162
229 412 963
230 637 812
231 689 881
232 518 897
233 718 798
234 516 903
235 156 148
236 51 208
237 481 843
238 737 665
239 566 790
240 448 906
241 713 800
242 210 251
243 115 168
244 490 816
245 624 845
246 558 674
247 843 646
248 797 784
249 454 855
250 536 845
251 450 944
252 484 809
253 137 91
254 904 772
255 773 790
256 778 845
257 118 296
258 416 911
259 656 825
260 244 245
261 378 177
262 585 960
263 348 762
264 302 277
265 244 146
266 672 914
267 381 465
268 484 875
269 293 866
270 565 560
271 681 611
272 575 804
273 65 87
274 193 132
275 77 212
276 142 150
277 148 142
278 485 993
279 495 988
280 569 802
281 702 785
DEMAND_SECTION
2 94
3 56
4 73
5 25
6 4
7 97
8 82
9 57
10 41
11 98
12 45
13 86
14 5
15 83
16 99
17 78
18 64
19 44
20 69
21 25
22 44
23 64
24 59
25 72
26 10
27 26
28 56
29 1
30 41
31 69
32 62
33 29
34 77
35 20
36 46
37 47
38 19
39 48
40 95
41 21
42 56
43 13
44 79
45 21
46 66
47 2
48 61
49 2
50 21
51 51
52 33
53 43
54 55
55 89
56 54
57 62
58 41
59 49
60 71
61 100
62 67
63 64
64 40
65 50
66 40
67 4
68 19
69 86
70 76
71 34
72 82
73 90
74 68
75 79
76 80
77 75
78 38
79 87
80 69
81 48
82 78
83 4
84 11
85 43
86 9
87 9
88 14
89 57
90 5
91 9
92 14
93 93
94 72
95 8
96 96
97 82
98 8
99 3
100 11
101 58
102 7
103 50
104 76
105 2
106 35
107 81
108 54
109 72
110 87
111 82
112 47
113 70
114 56
115 74
116 79
117 33
118 92
119 55
120 72
121 40
122 57
123 76
124 47
125 88
COVERAGE_SECTION
2 9 51 86 133 106 50 104 13 14 77 
3 8 191 65 58 130 31 80 30 128 
4 9 20 116 107 80 247 31 138 61 136 
5 9 10 128 149 65 58 130 29 126 3 
6 9 184 142 43 135 270 22 108 53 180 
7 9 61 136 20 4 116 107 220 247 80 
8 9 57 94 34 140 159 266 44 231 73 
9 9 165 211 273 97 224 228 56 161 216 
10 9 5 149 128 126 65 29 58 130 37 
11 7 202 232 234 157 250 115 54 
12 7 258 39 240 221 187 251 229 
13 9 77 133 104 28 60 2 257 51 69 
14 9 66 78 106 50 86 133 2 145 105 
15 9 153 32 122 200 172 261 114 129 100 
16 9 129 261 125 111 169 264 89 200 24 
17 9 48 176 225 154 171 223 114 101 183 
18 9 203 46 227 250 237 175 244 115 252 
19 9 26 119 270 127 30 109 108 144 87 
20 9 116 4 61 220 247 107 7 118 136 
21 9 147 36 263 156 22 185 218 67 180 
22 9 180 184 147 185 21 170 158 43 263 
23 9 245 54 157 73 259 55 230 266 231 
24 9 89 87 125 111 91 144 127 117 119 
25 6 113 160 179 238 204 196 
26 9 19 127 144 119 30 87 270 85 130 
27 9 218 84 156 124 43 36 21 147 67 
28 9 242 60 260 164 178 257 77 264 13 
29 9 151 10 52 5 103 85 126 141 33 
30 9 130 58 26 109 205 3 19 65 270 
31 7 80 191 107 138 247 4 195 
32 9 122 153 15 100 71 172 35 49 152 
33 9 83 90 88 103 152 132 49 35 151 
34 9 256 57 94 96 213 123 159 208 248 
35 9 49 100 152 71 172 83 32 122 33 
36 9 263 156 67 21 124 147 99 134 218 
37 9 126 10 29 141 151 149 5 45 128 
38 9 143 64 41 92 150 145 59 121 95 
39 7 258 12 229 251 240 187 221 
40 9 192 275 236 228 72 209 217 243 93 
41 9 145 105 64 143 38 78 102 92 66 
42 9 82 74 207 274 181 198 163 265 197 
43 9 184 218 147 53 22 21 27 6 135 
44 9 222 140 199 55 262 54 266 73 194 
45 9 141 103 151 132 33 29 83 152 90 
46 8 203 175 18 237 268 227 250 193 
47 9 121 150 59 81 143 102 38 98 41 
48 9 225 171 17 183 189 176 154 163 101 
49 9 35 152 100 71 172 83 33 132 32 
50 9 106 86 2 51 14 133 66 104 78 
51 9 2 86 106 50 133 104 137 13 77 
52 9 85 117 130 58 29 65 144 26 91 
53 9 135 43 84 142 218 27 267 184 6 
54 9 55 199 23 266 73 222 262 245 11 
55 9 199 54 222 266 262 44 23 73 140 
56 9 161 216 224 273 165 223 253 97 120 
57 9 8 34 94 159 256 96 123 231 167 
58 9 130 65 30 3 85 5 52 128 10 
59 9 150 121 47 81 143 38 98 102 64 
60 9 69 63 28 264 260 77 242 13 169 
61 9 7 136 20 4 116 107 220 247 80 
62 6 205 109 190 108 271 210 
63 9 69 60 264 267 169 28 24 260 125 
64 9 38 92 143 41 145 99 124 95 134 
65 9 58 130 3 5 128 30 149 10 191 
66 9 78 14 145 41 105 92 84 106 133 
67 9 156 124 36 263 99 134 21 95 215 
68 9 252 244 148 237 227 249 18 158 203 
69 9 63 60 267 264 28 77 13 135 169 
70 9 168 254 213 123 208 166 94 34 146 
71 9 100 49 35 152 122 32 172 132 83 
72 9 275 40 192 236 257 209 110 201 212 
73 9 231 266 159 23 54 167 55 199 245 
74 9 198 274 163 207 155 82 235 188 42 
75 6 233 241 281 204 179 255 
76 9 219 230 272 280 239 245 174 259 157 
77 9 13 28 104 133 60 257 2 51 69 
78 9 66 14 145 105 41 64 92 106 50 
79 9 123 94 168 70 34 213 57 254 8 
80 8 31 107 191 138 4 247 195 116 
81 9 102 121 150 47 59 143 38 41 145 
82 9 173 74 42 235 198 188 274 277 276 
83 9 33 90 88 152 49 103 132 35 100 
84 9 27 53 218 43 135 66 92 133 124 
85 9 52 117 130 58 144 26 65 91 29 
86 9 106 50 2 51 133 14 104 66 137 
87 9 127 144 24 119 91 89 26 117 19 
88 9 90 91 83 33 111 117 89 172 152 
89 9 111 125 24 91 88 87 16 144 117 
90 9 88 83 33 91 117 152 111 35 49 
91 9 117 89 88 111 144 24 90 87 125 
92 9 64 124 99 67 156 38 134 27 41 
93 9 217 243 209 212 186 173 276 188 235 
94 9 123 34 57 70 8 79 213 168 256 
95 8 269 134 99 215 139 67 124 156 
96 9 256 255 167 233 241 159 75 248 34 
97 9 273 165 211 228 216 253 9 224 56 
98 9 162 59 269 95 150 38 121 47 139 
99 9 134 67 124 95 156 269 36 263 215 
100 9 35 49 71 152 172 32 122 83 153 
101 9 120 253 155 223 154 163 198 176 74 
102 9 81 105 145 41 143 121 150 47 38 
103 9 45 132 151 33 141 83 29 90 152 
104 9 110 257 137 51 13 77 2 72 133 
105 9 145 41 78 102 66 14 143 64 81 
106 9 50 86 2 51 14 133 66 78 104 
107 9 80 31 138 247 4 116 191 195 20 
108 8 109 270 62 205 246 190 271 210 
109 8 205 108 62 270 271 190 210 30 
110 9 137 201 72 257 104 177 236 192 275 
111 9 89 125 91 24 88 16 90 117 129 
112 7 182 278 279 206 214 251 194 
113 7 160 25 179 204 131 255 248 
114 9 17 48 189 225 171 200 183 176 154 
115 9 250 18 203 157 280 272 46 227 239 
116 9 20 4 247 107 220 138 118 195 80 
117 9 91 144 85 52 88 90 87 89 127 
118 9 220 166 146 254 131 116 247 208 195 
119 9 127 19 87 26 144 142 267 24 270 
120 9 253 101 223 154 155 216 176 277 163 
121 9 150 47 59 81 143 102 38 41 98 
122 9 32 153 15 100 71 35 172 49 152 
123 9 94 70 168 79 34 213 57 254 208 
124 9 67 156 99 36 134 92 263 27 95 
125 9 89 111 16 24 129 261 91 87 264 
126 9 37 10 5 149 29 128 151 141 65 
127 9 87 144 119 26 19 24 117 91 89 
128 9 149 5 10 65 3 58 191 130 31 
129 9 261 16 200 125 169 264 111 197 181 
130 9 58 65 30 3 85 52 5 26 128 
131 9 146 113 160 166 248 208 118 25 220 
132 9 103 45 33 83 152 49 35 71 141 
133 9 2 51 13 86 106 77 50 14 104 
134 9 99 95 269 67 215 124 156 263 139 
135 9 142 53 267 43 6 184 218 84 119 
136 9 61 7 4 20 116 107 80 31 247 
137 9 110 104 201 177 72 257 51 236 192 
138 7 195 247 107 80 31 191 116 
139 8 215 187 221 269 226 258 134 12 
140 9 44 222 199 55 262 266 54 73 8 
141 9 45 151 103 132 29 33 83 37 126 
142 9 135 267 6 53 119 43 184 19 270 
143 9 38 64 41 150 121 102 59 145 81 
144 9 127 87 117 26 91 24 119 85 89 
145 9 41 105 78 102 64 143 66 38 14 
146 9 166 131 118 220 208 254 248 213 113 
147 9 21 22 36 43 180 185 263 218 184 
148 9 68 226 170 252 158 244 249 237 185 
149 9 128 5 10 65 126 3 58 191 130 
150 9 121 59 47 81 143 38 102 98 64 
151 9 29 103 141 45 33 132 83 90 126 
152 9 49 35 100 71 172 83 33 132 90 
153 9 15 32 122 200 172 261 100 129 35 
154 9 176 223 101 120 253 216 171 17 48 
155 9 198 277 188 235 74 163 101 276 274 
156 9 67 36 124 263 99 21 134 147 27 
157 9 115 245 250 219 23 272 11 280 76 
158 9 170 185 148 252 68 180 244 227 226 
159 9 231 167 73 266 96 256 241 259 233 
160 7 113 179 204 25 131 255 75 
161 9 56 216 224 223 253 154 176 273 120 
162 9 98 269 229 39 95 139 187 215 258 
163 9 274 207 74 198 155 101 171 235 183 
164 9 178 242 186 212 260 173 82 42 28 
165 9 273 9 97 224 211 56 161 216 228 
166 9 146 118 220 254 131 208 213 248 70 
167 9 159 231 73 96 241 233 259 281 266 
168 9 70 254 123 213 79 166 208 94 118 
169 9 260 264 197 181 242 265 129 164 16 
170 9 185 158 148 180 68 226 252 244 22 
171 9 225 48 183 163 207 274 189 101 154 
172 9 35 100 49 152 32 71 153 122 15 
173 9 186 82 235 276 188 212 93 277 217 
174 5 239 280 272 76 219 
175 6 268 46 193 237 203 18 
176 9 154 223 101 120 17 253 216 48 171 
177 9 201 236 192 40 110 275 72 137 211 
178 9 164 242 186 212 173 82 260 209 93 
179 4 204 160 113 25 
180 9 22 185 170 158 147 184 21 148 252 
181 9 197 265 42 183 207 274 82 74 189 
182 8 112 278 279 206 251 214 229 194 
183 9 171 189 225 207 274 265 163 48 74 
184 9 22 43 6 180 147 21 185 218 170 
185 9 170 158 180 148 22 21 226 147 68 
186 9 212 173 93 209 217 243 276 82 235 
187 7 221 258 139 12 39 240 215 
188 9 277 235 276 155 198 173 74 82 163 
189 9 183 225 265 171 48 207 274 163 181 
190 5 271 210 62 196 205 
191 6 31 80 107 3 138 4 
192 9 40 236 275 72 228 209 201 217 177 
193 4 268 175 249 46 
194 7 279 278 112 206 262 214 182 
195 8 138 247 107 131 25 80 116 238 
196 3 238 25 190 
197 9 181 265 42 169 260 183 207 274 82 
198 9 74 155 163 274 235 207 188 277 82 
199 9 55 222 54 44 266 262 140 73 23 
200 9 261 15 129 189 153 114 265 197 16 
201 9 177 236 192 40 110 275 72 137 228 
202 5 11 232 234 250 46 
203 9 18 46 250 227 175 237 115 244 268 
204 4 179 160 75 113 
205 7 109 62 271 108 190 270 210 
206 5 214 251 112 182 279 
207 9 274 163 74 198 183 42 155 171 82 
208 9 248 213 146 255 131 166 254 256 113 
209 9 217 93 212 243 186 275 228 40 173 
210 2 190 62 
211 9 9 228 97 165 273 236 192 40 275 
212 9 186 93 209 217 173 243 276 235 82 
213 9 208 248 70 256 34 254 255 146 166 
214 4 206 251 112 240 
215 8 139 269 134 187 95 226 99 221 
216 9 223 161 253 56 120 154 176 101 97 
217 9 243 93 209 212 186 228 276 173 188 
218 9 27 43 147 21 36 156 53 84 124 
219 9 76 272 280 230 239 245 157 174 259 
220 9 118 166 146 116 247 131 254 20 195 
221 7 187 258 12 240 249 39 193 
222 9 44 199 140 55 262 54 266 73 194 
223 9 154 253 120 176 101 216 155 161 163 
224 9 56 165 273 161 97 9 216 253 223 
225 9 171 48 183 189 163 207 274 17 176 
226 7 148 249 68 170 221 187 185 
227 9 244 252 18 203 237 68 46 175 250 
228 9 243 217 40 209 93 192 211 275 236 
229 9 39 251 12 258 182 240 112 206 214 
230 9 259 76 245 219 23 272 280 157 281 
231 9 73 159 167 266 259 23 54 245 55 
232 5 234 202 11 268 175 
233 7 241 75 281 204 255 167 96 
234 4 232 202 11 268 
235 9 188 277 276 155 198 173 82 74 163 
236 9 192 40 275 201 72 228 177 209 211 
237 9 175 46 227 244 18 68 203 249 268 
238 2 196 25 
239 9 280 272 174 219 76 115 250 157 227 
240 5 12 258 251 193 221 
241 8 233 75 281 167 204 96 255 259 
242 9 164 260 178 28 169 197 181 42 186 
243 9 217 93 209 212 276 186 228 173 188 
244 9 252 227 68 237 18 203 46 175 148 
245 9 23 230 259 219 157 76 272 54 73 
246 3 108 174 62 
247 9 195 138 107 116 220 80 4 31 20 
248 9 255 208 131 213 113 160 256 96 146 
249 7 237 193 268 175 68 221 46 
250 9 115 203 18 46 227 157 175 244 280 
251 8 206 214 240 182 12 229 39 112 
252 9 244 68 227 237 18 148 203 158 46 
253 9 120 223 101 216 154 176 155 277 188 
254 9 166 70 118 146 168 213 220 208 131 
255 9 248 75 96 256 160 208 233 204 113 
256 9 96 34 255 248 167 159 213 233 208 
257 9 72 110 104 178 28 164 275 242 40 
258 7 12 39 221 240 187 251 229 
259 9 230 245 76 23 219 167 281 241 231 
260 9 242 169 164 264 197 178 181 28 42 
261 9 129 16 200 125 169 264 15 111 153 
262 9 222 55 199 194 44 54 11 202 140 
263 8 36 156 67 21 147 124 134 185 
264 9 169 260 60 63 242 28 16 69 197 
265 9 181 197 183 189 42 207 274 74 171 
266 9 73 231 54 55 199 159 23 167 222 
267 9 142 135 69 53 63 119 6 87 127 
268 4 193 175 46 237 
269 8 95 134 215 139 99 187 67 124 
270 9 108 109 19 205 62 6 246 26 30 
271 4 190 62 205 196 
272 9 280 239 219 76 115 174 157 250 230 
273 9 165 97 224 9 56 211 216 161 253 
274 9 207 163 74 198 155 42 183 82 171 
275 9 40 192 236 72 209 228 217 243 93 
276 9 188 277 235 173 155 243 93 198 82 
277 9 188 235 276 155 198 173 74 82 163 
278 8 279 112 182 206 194 214 251 229 
279 7 278 112 182 194 206 214 251 
280 9 272 239 219 76 115 174 157 250 230 
281 5 241 75 233 204 179 
DEPOT_SECTION
   1
   -1
EOF
