NAME :  X-n327-kX-w130-c11.cctp
COMMENT : 	Adapted by Maziero, Usberti and Cavellucci from the Uchoa, Pecin, Pessoa, Poggi, Subramanian, and Vidal (2013)
TYPE :  CCTP
DIMENSION :    324
EDGE_WEIGHT_TYPE : 	EUC_2D	
CAPACITY : 	128
VERTICES_WITHIN_COVERAGE :  11
VERTICES_WITH_DEMAND : 	130
NODE_COORD_SECTION
1 236 951
2 735 289
3 841 735
4 846 821
5 907 810
6 55 136
7 372 422
8 437 584
9 509 822
10 57 519
11 563 333
12 750 8
13 644 692
14 123 787
15 865 618
16 833 453
17 736 643
18 90 930
19 804 192
20 435 164
21 540 911
22 747 80
23 486 239
24 511 784
25 639 247
26 337 11
27 95 706
28 719 839
29 943 421
30 55 633
31 396 807
32 916 252
33 191 716
34 552 500
35 226 520
36 666 833
37 450 431
38 427 307
39 4 89
40 736 784
41 615 382
42 739 386
43 229 527
44 594 197
45 910 398
46 492 214
47 974 107
48 914 556
49 384 827
50 151 908
51 390 873
52 70 232
53 418 29
54 128 721
55 211 129
56 641 993
57 220 883
58 293 551
59 244 952
60 910 489
61 324 280
62 466 437
63 879 676
64 359 770
65 95 631
66 920 56
67 577 407
68 178 769
69 225 359
70 882 228
71 385 516
72 759 814
73 234 405
74 33 412
75 423 135
76 194 121
77 970 723
78 6 206
79 392 669
80 782 300
81 107 786
82 889 855
83 68 280
84 522 848
85 653 78
86 719 736
87 809 404
88 620 655
89 439 605
90 990 874
91 46 236
92 980 500
93 625 383
94 146 430
95 795 241
96 714 554
97 200 946
98 89 207
99 144 648
100 633 877
101 482 843
102 670 150
103 763 951
104 755 922
105 615 139
106 192 844
107 396 409
108 799 30
109 72 916
110 917 12
111 370 551
112 686 937
113 156 769
114 553 21
115 86 666
116 42 261
117 494 309
118 767 378
119 528 311
120 697 21
121 545 665
122 675 228
123 752 812
124 180 120
125 94 979
126 348 861
127 397 753
128 229 855
129 756 910
130 311 203
131 177 491
132 280 408
133 470 132
134 40 324
135 386 644
136 975 360
137 9 836
138 466 934
139 397 598
140 658 175
141 470 227
142 472 882
143 157 4
144 876 714
145 780 25
146 394 658
147 697 278
148 879 723
149 192 970
150 522 896
151 620 103
152 122 342
153 790 311
154 599 866
155 611 927
156 761 602
157 983 317
158 320 981
159 933 461
160 156 922
161 10 773
162 834 293
163 926 186
164 370 613
165 440 477
166 243 999
167 508 847
168 669 376
169 666 745
170 103 931
171 676 953
172 54 978
173 687 958
174 490 478
175 739 920
176 753 305
177 109 937
178 15 915
179 404 490
180 602 738
181 724 965
182 348 565
183 688 798
184 632 674
185 40 982
186 223 946
187 464 945
188 408 367
189 530 770
190 924 692
191 428 765
192 358 485
193 565 728
194 443 295
195 66 938
196 222 992
197 716 347
198 495 763
199 683 452
200 36 884
201 74 958
202 719 301
203 698 823
204 816 412
205 292 364
206 565 958
207 429 532
208 79 947
209 609 887
210 664 939
211 17 996
212 328 988
213 680 383
214 742 358
215 659 374
216 622 546
217 850 978
218 230 964
219 663 425
220 622 900
221 195 917
222 559 938
223 496 961
224 469 485
225 688 780
226 135 944
227 338 907
228 700 752
229 176 858
230 457 356
231 133 940
232 531 327
233 656 685
234 215 828
235 257 995
236 224 999
237 308 625
238 552 995
239 689 723
240 244 517
241 615 185
242 174 911
243 645 998
244 668 409
245 461 850
246 605 496
247 447 815
248 643 652
249 281 970
250 544 649
251 681 805
252 237 976
253 592 381
254 239 911
255 577 793
256 749 816
257 446 458
258 49 965
259 705 802
260 644 796
261 461 958
262 249 978
263 858 374
264 681 387
265 676 925
266 107 882
267 221 974
268 44 884
269 341 985
270 587 702
271 408 941
272 689 379
273 520 846
274 367 393
275 457 261
276 613 339
277 299 819
278 680 431
279 670 272
280 584 832
281 205 968
282 720 840
283 81 862
284 437 430
285 443 557
286 228 890
287 707 458
288 365 855
289 677 345
290 527 416
291 224 929
292 298 869
293 524 758
294 624 918
295 115 966
296 235 882
297 391 446
298 554 866
299 756 921
300 464 857
301 547 966
302 464 969
303 721 823
304 415 525
305 632 720
306 481 524
307 603 286
308 774 753
309 527 935
310 726 979
311 584 437
312 846 221
313 683 751
314 732 271
315 753 935
316 76 975
317 564 787
318 310 420
319 615 788
320 406 463
321 880 364
322 559 849
323 706 472
324 397 449
DEMAND_SECTION
2 6
3 10
4 8
5 5
6 6
7 9
8 8
9 6
10 7
11 10
12 8
13 6
14 10
15 6
16 7
17 6
18 9
19 8
20 10
21 10
22 9
23 9
24 9
25 7
26 7
27 8
28 7
29 5
30 5
31 7
32 9
33 6
34 9
35 10
36 9
37 8
38 8
39 5
40 5
41 8
42 5
43 10
44 7
45 8
46 7
47 6
48 5
49 9
50 8
51 10
52 5
53 5
54 7
55 5
56 8
57 10
58 8
59 9
60 9
61 5
62 6
63 6
64 5
65 9
66 9
67 6
68 8
69 9
70 10
71 5
72 9
73 5
74 10
75 7
76 7
77 6
78 10
79 10
80 5
81 6
82 10
83 8
84 5
85 7
86 5
87 5
88 5
89 7
90 7
91 9
92 10
93 9
94 6
95 6
96 10
97 7
98 6
99 10
100 8
101 5
102 8
103 6
104 8
105 6
106 9
107 10
108 10
109 8
110 10
111 7
112 6
113 6
114 5
115 8
116 7
117 8
118 8
119 7
120 6
121 7
122 9
123 7
124 7
125 5
126 6
127 5
128 9
129 5
130 8
131 5
COVERAGE_SECTION
2 11 314 202 176 147 80 153 197 279 214 95 289 
3 11 148 144 308 63 4 190 5 72 40 123 15 
4 11 82 5 3 72 123 256 308 148 144 40 303 
5 11 82 4 148 3 144 90 77 190 63 308 72 
6 11 39 98 78 52 91 116 124 76 83 55 143 
7 11 107 274 297 324 320 318 192 284 188 179 37 
8 11 89 285 139 207 304 164 306 111 135 71 146 
9 11 167 273 84 101 24 189 245 300 322 198 247 
10 11 74 30 65 131 94 115 99 35 43 240 152 
11 11 232 119 276 253 307 41 117 67 93 290 215 
12 11 145 108 120 22 85 151 102 110 66 105 140 
13 11 233 184 305 248 88 239 169 270 180 313 228 
14 11 81 113 68 54 27 283 106 229 266 33 234 
15 11 63 48 190 144 156 148 3 17 60 77 308 
16 11 204 87 263 60 45 118 159 321 29 42 287 
17 11 156 233 96 239 248 86 13 184 228 308 88 
18 11 170 177 208 109 195 201 231 295 226 316 125 
19 11 95 312 70 162 314 80 2 153 163 176 22 
20 11 75 133 141 46 23 275 130 194 53 38 117 
21 11 150 309 222 298 206 301 322 84 223 273 167 
22 11 145 12 108 120 85 102 19 151 140 105 122 
23 11 141 46 275 117 194 119 38 20 232 133 44 
24 11 189 198 293 9 317 167 273 84 101 255 247 
25 11 279 122 307 147 241 44 140 276 314 202 102 
26 11 53 75 55 76 133 143 20 124 130 114 141 
27 11 54 115 65 99 81 30 14 113 33 68 161 
28 11 282 303 203 256 259 123 72 183 251 36 40 
29 11 45 159 136 60 321 92 263 157 16 204 87 
30 11 65 115 27 99 10 54 161 33 81 14 113 
31 11 49 64 247 191 127 288 51 126 245 300 101 
32 11 70 163 312 162 157 321 95 136 19 263 153 
33 11 68 54 113 99 27 14 81 234 115 65 106 
34 11 246 174 311 306 216 224 290 67 62 165 257 
35 11 43 240 131 58 73 94 132 182 318 237 192 
36 10 251 203 183 260 259 28 282 100 303 225 
37 11 284 62 257 165 320 324 224 107 297 174 179 
38 11 194 275 230 188 117 23 141 119 274 61 232 
39 11 6 78 98 91 52 143 116 124 76 83 55 
40 11 123 256 259 72 303 225 228 308 183 86 203 
41 11 93 253 276 67 215 168 244 311 219 213 264 
42 11 214 118 197 272 264 213 168 87 278 289 244 
43 11 35 240 131 58 73 182 237 94 132 318 192 
44 11 241 105 25 140 122 102 307 151 46 279 23 
45 11 29 321 263 159 136 60 16 204 87 157 92 
46 11 23 141 275 20 133 117 194 44 119 75 38 
47 11 66 163 110 70 32 312 19 108 157 145 95 
48 11 60 15 92 159 63 16 190 29 45 156 144 
49 11 31 288 51 126 64 247 127 191 245 277 300 
50 11 160 242 231 226 221 177 266 170 229 97 18 
51 11 288 126 49 227 31 271 245 300 247 142 292 
52 11 91 98 116 83 78 6 134 152 39 124 76 
53 11 26 75 133 114 20 46 130 141 151 23 105 
54 11 27 113 33 14 81 68 115 99 65 30 161 
55 11 76 124 130 143 98 6 26 52 61 91 83 
56 11 243 171 173 210 112 155 265 294 206 310 181 
57 11 286 296 128 254 221 291 106 229 242 234 186 
58 11 182 240 43 35 237 111 192 71 164 139 304 
59 11 218 186 252 262 291 267 249 254 281 97 235 
60 11 159 48 92 29 16 45 204 263 321 87 15 
61 11 130 205 38 194 188 274 69 275 132 318 107 
62 11 37 257 284 165 174 224 290 320 324 107 297 
63 11 144 148 190 15 3 77 48 308 5 156 17 
64 11 127 31 49 191 277 288 126 247 79 51 292 
65 11 115 30 99 27 54 10 33 113 81 14 68 
66 11 110 47 108 163 145 22 70 12 19 312 32 
67 11 253 311 41 290 93 11 276 215 219 244 232 
68 11 113 33 14 54 234 81 106 229 128 27 57 
69 11 73 205 132 152 318 94 61 131 274 240 7 
70 11 312 32 163 162 19 95 80 153 157 321 263 
71 11 304 179 111 192 207 320 182 165 324 297 285 
72 11 123 256 40 303 28 282 259 203 308 183 225 
73 11 132 69 205 318 94 131 240 35 43 152 274 
74 11 134 10 152 94 83 116 131 91 52 69 73 
75 11 20 133 141 46 53 23 130 275 26 194 38 
76 11 124 55 143 98 6 130 52 26 91 39 83 
77 11 190 148 144 63 5 3 15 90 82 4 48 
78 11 91 116 52 98 6 83 39 134 152 124 76 
79 11 146 135 164 139 89 127 237 8 191 64 182 
80 11 153 176 2 162 314 95 202 214 118 197 147 
81 11 14 113 54 68 283 27 266 161 229 106 33 
82 11 5 4 90 3 217 148 72 144 123 129 256 
83 11 116 52 91 134 98 152 78 74 6 94 69 
84 11 273 167 9 298 322 101 150 300 142 245 280 
85 11 151 105 120 102 22 140 241 114 12 44 145 
86 10 228 239 313 40 169 225 308 259 183 251 
87 11 204 118 16 263 42 214 321 153 45 80 197 
88 11 184 248 13 233 270 305 121 250 180 193 239 
89 11 8 139 285 135 164 146 207 79 304 111 306 
90 11 82 5 77 4 217 148 190 144 3 63 129 
91 11 52 116 83 78 98 134 6 152 39 74 124 
92 11 159 60 29 48 45 136 16 15 321 263 157 
93 11 41 253 215 168 276 244 67 213 264 219 272 
94 11 131 73 152 69 74 35 10 43 240 132 134 
95 11 19 312 80 162 153 314 2 176 70 202 147 
96 11 156 323 17 216 287 199 248 246 278 88 219 
97 11 186 281 149 221 291 218 267 59 242 252 160 
98 11 52 91 116 83 6 78 124 134 76 152 39 
99 11 65 115 54 27 33 30 113 68 14 81 43 
100 11 220 209 154 294 36 155 265 280 210 322 112 
101 11 245 300 167 9 273 84 142 247 24 150 298 
102 11 140 105 241 151 85 122 44 25 22 279 147 
103 11 315 104 299 175 181 129 310 173 112 171 217 
104 11 299 129 315 175 103 181 310 112 173 265 171 
105 11 151 241 102 140 44 85 122 25 114 46 120 
106 11 229 234 128 57 296 286 242 221 50 68 254 
107 11 7 274 297 324 188 284 320 37 257 62 165 
108 11 145 12 22 120 110 66 85 19 102 47 151 
109 11 18 195 208 170 201 177 268 200 266 258 283 
110 11 66 47 108 145 12 163 22 19 70 120 312 
111 11 182 71 304 139 164 207 192 179 285 8 58 
112 11 265 171 173 210 181 175 310 294 315 104 56 
113 11 68 14 81 54 33 106 234 27 229 128 283 
114 11 151 85 105 53 133 120 75 102 241 44 20 
115 11 65 27 30 99 54 33 81 113 14 161 68 
116 11 91 83 52 134 78 98 152 6 74 39 124 
117 11 119 232 194 230 275 38 23 11 141 46 188 
118 11 42 214 87 197 204 153 176 272 80 264 213 
119 11 232 117 11 307 23 230 194 275 276 253 38 
120 11 12 85 22 145 108 151 102 105 114 140 241 
121 11 250 270 193 88 184 180 293 248 13 305 189 
122 11 25 279 147 140 314 241 102 202 2 44 307 
123 11 256 72 40 303 28 282 259 203 308 183 251 
124 11 76 55 143 6 98 130 52 91 39 26 78 
125 11 316 295 201 208 172 177 258 18 170 195 185 
126 11 288 51 227 49 292 277 31 64 271 247 245 
127 11 191 64 31 49 247 79 146 198 288 135 245 
128 11 296 57 234 286 106 229 254 292 221 291 242 
129 11 299 104 175 315 103 181 112 310 282 28 265 
130 11 61 55 20 75 76 124 38 275 141 194 205 
131 11 35 43 94 240 73 10 58 132 69 318 152 
132 11 318 73 205 69 274 7 192 240 107 297 35 
133 11 20 75 46 141 23 53 275 114 44 105 151 
134 11 83 116 152 74 91 52 78 98 94 69 6 
135 11 146 79 164 139 89 8 237 182 111 285 127 
136 11 157 29 45 321 159 263 32 92 60 162 70 
137 11 200 268 161 283 178 109 266 81 195 14 18 
138 11 187 261 302 223 142 271 309 150 21 300 245 
139 11 164 8 89 135 111 182 146 285 79 207 304 
140 11 102 241 105 122 44 25 151 85 279 147 314 
141 11 23 46 275 20 194 117 38 133 119 75 232 
142 11 300 245 101 167 138 150 84 273 187 9 247 
143 11 124 76 55 6 39 26 98 52 78 130 91 
144 11 148 63 3 190 77 15 5 308 4 82 72 
145 11 108 12 22 120 85 110 66 102 19 151 140 
146 11 79 135 164 139 89 8 237 127 182 111 191 
147 11 279 202 314 2 122 176 25 289 197 80 214 
148 11 144 3 63 190 5 77 4 15 308 82 72 
149 11 281 97 267 196 218 186 236 252 291 221 59 
150 11 21 309 298 84 273 167 142 222 322 101 138 
151 11 105 85 102 140 241 44 114 120 22 122 25 
152 11 83 134 94 69 74 116 52 73 91 98 131 
153 11 80 176 162 2 214 95 314 118 202 197 42 
154 11 209 100 280 220 322 298 294 155 21 36 255 
155 11 294 220 209 222 210 100 206 154 265 171 56 
156 11 17 96 15 248 233 63 86 239 323 13 184 
157 11 136 32 45 29 321 70 263 163 162 159 312 
158 11 212 269 249 235 262 227 166 59 252 218 271 
159 11 60 29 92 45 48 16 136 321 263 204 87 
160 11 50 242 231 226 221 177 97 170 149 295 266 
161 11 137 81 27 14 200 283 268 54 115 178 113 
162 11 153 80 95 312 70 176 263 321 32 2 314 
163 11 70 32 312 47 19 66 162 95 157 110 136 
164 11 139 135 146 182 79 111 237 89 8 285 71 
165 11 257 224 320 179 37 284 62 174 324 304 207 
166 11 235 236 196 262 252 267 218 59 249 281 186 
167 11 273 84 9 101 300 245 142 298 150 322 24 
168 11 215 213 264 272 289 244 93 219 41 197 278 
169 8 313 239 228 225 305 86 260 13 
170 11 177 18 208 231 109 226 295 195 201 125 266 
171 11 173 210 112 265 181 56 243 310 294 155 175 
172 11 258 185 316 201 125 208 211 195 18 295 109 
173 11 171 112 210 265 181 310 56 243 175 315 294 
174 11 224 306 62 257 165 37 34 284 290 207 320 
175 11 104 299 129 315 103 181 112 310 265 173 171 
176 11 2 80 202 153 314 214 197 147 118 95 42 
177 11 170 18 231 226 295 208 201 109 195 125 160 
178 11 200 268 195 109 258 185 208 201 172 18 137 
179 11 320 71 304 165 324 192 297 207 257 224 284 
180 9 305 193 270 319 255 13 317 169 184 
181 11 310 173 103 315 112 175 171 104 299 265 129 
182 11 111 164 58 139 71 237 304 192 207 135 8 
183 10 251 259 225 203 36 303 260 313 228 40 
184 11 13 88 248 233 305 270 180 239 169 193 121 
185 11 172 258 211 316 201 195 208 125 18 178 109 
186 11 291 218 59 97 267 281 252 254 149 221 262 
187 11 138 261 302 223 271 142 309 150 21 301 300 
188 11 107 274 230 38 7 284 37 194 297 324 62 
189 11 293 24 198 317 255 193 9 273 84 180 167 
190 11 63 144 77 148 3 15 5 48 4 308 82 
191 11 127 31 247 198 64 49 24 245 101 293 9 
192 11 71 179 297 320 324 7 111 304 182 318 165 
193 11 270 180 293 189 317 121 255 305 24 198 319 
194 11 38 275 117 230 23 141 188 119 232 46 61 
195 11 208 201 109 18 258 170 316 172 177 125 185 
196 11 236 267 166 252 218 281 262 235 149 59 186 
197 11 214 289 272 42 202 213 264 168 176 118 2 
198 11 24 293 189 9 191 247 317 193 101 167 255 
199 11 278 287 323 219 244 264 213 272 168 215 42 
200 11 268 178 109 283 137 195 18 266 208 170 258 
201 11 208 316 195 258 172 125 18 170 177 109 185 
202 11 2 147 314 176 197 279 214 289 80 153 272 
203 11 259 303 251 28 183 282 36 225 256 40 123 
204 11 87 16 263 118 321 42 214 45 153 80 287 
205 11 132 318 69 73 274 61 7 107 188 297 324 
206 11 301 222 238 309 21 155 223 294 150 220 56 
207 11 304 285 71 179 8 306 165 111 224 139 320 
208 11 201 195 18 316 170 109 177 125 258 172 295 
209 11 220 154 100 294 155 298 280 322 222 21 210 
210 11 171 265 112 173 294 155 220 56 243 181 100 
211 11 185 172 258 316 201 195 125 208 178 109 18 
212 11 158 269 249 235 262 227 166 59 252 271 218 
213 11 264 272 168 215 244 289 219 278 197 93 42 
214 11 42 197 118 176 272 202 289 153 213 264 2 
215 11 168 213 264 272 289 93 244 41 219 276 278 
216 11 246 34 96 248 88 199 323 311 287 184 219 
217 11 103 315 104 299 129 310 175 181 82 4 173 
218 11 267 252 59 186 262 281 196 97 236 291 166 
219 11 244 278 199 264 213 168 215 272 287 93 41 
220 11 209 294 100 155 154 210 265 112 222 171 298 
221 11 242 97 291 160 186 57 286 254 50 281 149 
222 11 206 301 309 21 155 150 238 223 294 209 298 
223 11 302 261 187 138 309 301 238 21 222 206 150 
224 11 174 165 257 306 62 37 207 284 179 304 320 
225 10 183 251 259 313 228 169 203 260 40 86 
226 11 231 177 160 295 170 50 18 242 125 208 149 
227 11 126 292 288 51 158 269 271 212 249 49 277 
228 10 313 86 225 239 169 40 183 259 251 203 
229 11 106 234 57 128 242 50 286 221 296 160 266 
230 11 188 38 117 194 37 284 232 62 107 119 290 
231 11 226 177 160 170 295 50 18 242 208 125 201 
232 11 119 11 117 230 253 276 307 290 67 194 23 
233 11 13 184 248 305 88 239 169 270 313 180 228 
234 11 106 128 229 57 296 286 68 113 277 254 221 
235 11 166 262 252 236 196 249 218 267 59 281 186 
236 11 196 166 267 252 235 262 218 281 149 59 186 
237 11 164 182 58 135 146 139 79 111 43 240 35 
238 11 301 206 222 309 223 21 56 155 302 243 261 
239 10 313 228 169 86 233 13 225 305 183 184 
240 11 35 43 58 131 73 132 182 318 192 237 94 
241 11 44 140 105 102 25 122 151 307 279 85 147 
242 11 160 221 50 97 231 226 229 291 57 286 186 
243 11 56 171 173 210 112 155 265 294 310 181 206 
244 11 219 278 264 213 168 215 272 199 93 41 287 
245 11 300 101 142 247 167 9 273 84 51 150 31 
246 11 34 216 311 199 219 67 278 323 244 287 290 
247 11 245 101 300 31 191 9 49 167 24 198 142 
248 11 88 184 233 13 305 270 239 17 180 169 121 
249 11 262 235 59 158 252 166 212 218 267 269 186 
250 11 121 270 88 193 184 248 180 13 293 305 89 
251 10 183 259 203 225 36 260 303 28 282 313 
252 11 262 218 267 196 166 59 236 235 186 281 249 
253 11 41 67 93 276 11 311 215 290 168 232 244 
254 11 291 286 296 57 186 59 221 97 218 128 242 
255 9 317 319 280 189 322 180 293 193 24 
256 11 123 72 303 40 28 282 259 203 183 308 251 
257 11 165 37 62 284 224 320 174 324 179 297 107 
258 11 172 185 201 316 195 208 211 125 18 109 178 
259 10 183 203 251 303 225 40 28 282 256 123 
260 8 319 251 36 183 225 169 203 313 
261 11 302 187 138 223 271 309 142 301 150 21 238 
262 11 252 235 166 218 59 267 196 236 249 186 281 
263 11 321 45 87 204 16 162 118 153 29 80 159 
264 11 213 272 168 215 244 219 289 278 197 93 42 
265 11 112 210 171 173 294 220 181 175 100 155 310 
266 11 283 109 170 18 50 177 160 268 231 226 195 
267 11 218 252 281 196 236 186 262 149 59 166 97 
268 11 200 178 109 283 195 137 266 18 208 170 201 
269 11 212 158 249 227 271 235 262 166 59 252 218 
270 11 193 180 305 184 121 88 13 250 233 248 293 
271 11 187 261 138 302 51 227 269 142 223 212 288 
272 11 213 264 168 215 289 244 197 42 219 278 214 
273 11 84 167 9 101 298 322 150 300 245 142 24 
274 11 7 107 188 297 318 324 284 205 320 132 37 
275 11 23 141 194 38 46 117 119 230 20 232 188 
276 11 41 93 253 11 307 215 289 168 67 213 232 
277 11 292 126 288 64 128 234 49 296 227 31 286 
278 11 219 199 244 287 264 213 323 272 168 215 93 
279 11 147 25 122 202 314 2 307 289 197 276 176 
280 10 322 154 255 298 317 319 209 84 273 100 
281 11 149 267 97 218 186 196 252 236 59 291 262 
282 11 28 303 203 256 259 123 72 251 183 36 40 
283 11 266 268 200 109 18 170 137 195 81 177 50 
284 11 37 257 62 324 320 107 165 297 224 7 179 
285 11 8 207 304 89 306 139 71 111 224 179 165 
286 11 57 296 254 128 291 221 186 106 242 229 97 
287 11 323 199 278 219 244 264 42 213 272 168 96 
288 11 126 51 49 31 227 292 277 64 247 245 271 
289 11 168 215 272 213 197 264 202 93 276 244 214 
290 11 67 311 62 174 253 37 34 232 11 224 257 
291 11 186 254 97 59 221 218 286 281 267 57 296 
292 11 277 126 227 296 288 128 254 286 57 51 234 
293 11 189 24 198 317 193 255 9 180 270 273 84 
294 11 155 220 209 100 210 265 154 171 112 222 206 
295 11 125 177 226 231 170 316 208 201 18 195 160 
296 11 286 57 128 254 291 221 106 234 229 292 186 
297 11 324 320 7 107 179 284 192 257 165 274 37 
298 11 322 84 273 150 154 280 21 167 209 9 222 
299 11 104 129 315 175 103 181 310 112 173 265 171 
300 11 245 101 142 167 247 9 273 84 150 51 138 
301 11 206 238 222 309 223 21 150 155 302 187 261 
302 11 261 187 223 138 271 309 301 142 238 150 21 
303 11 28 282 203 259 256 123 72 183 40 251 225 
304 11 207 71 179 285 111 165 8 320 306 224 192 
305 9 13 180 169 233 184 270 239 313 88 
306 11 224 174 285 207 165 304 8 34 257 179 62 
307 11 25 276 11 279 119 232 44 122 147 289 253 
308 11 40 86 72 123 256 3 228 259 303 225 239 
309 11 21 222 301 150 223 206 138 187 238 261 302 
310 11 181 173 103 315 171 112 175 104 299 210 265 
311 11 67 253 290 41 246 93 34 219 244 278 215 
312 11 70 19 95 162 32 163 80 153 314 176 2 
313 10 228 169 225 239 86 183 251 259 260 305 
314 11 2 202 147 176 80 279 95 153 122 197 214 
315 11 104 299 103 175 129 181 310 112 173 265 171 
316 11 201 125 172 208 258 185 195 295 18 177 170 
317 9 255 189 280 293 319 24 193 180 322 
318 11 132 205 7 274 73 192 297 107 324 69 320 
319 8 260 255 317 180 280 169 36 251 
320 11 324 297 179 165 257 284 7 192 37 107 71 
321 11 263 45 204 87 29 162 136 16 153 159 157 
322 11 298 280 84 273 154 167 9 255 150 317 209 
323 11 287 199 278 219 244 96 264 42 213 272 168 
324 11 297 320 7 107 179 284 257 165 192 37 274 
DEPOT_SECTION
   1
   -1
EOF
