NAME :  X-n367-kX-w73-c7.cctp
COMMENT : 	Adapted by Maziero, Usberti and Cavellucci from the Uchoa, Pecin, Pessoa, Poggi, Subramanian, and Vidal (2013)
TYPE :  CCTP
DIMENSION :    313
EDGE_WEIGHT_TYPE : 	EUC_2D	
CAPACITY : 	218
VERTICES_WITHIN_COVERAGE :  7
VERTICES_WITH_DEMAND : 	73
NODE_COORD_SECTION
1 927 318
2 319 475
3 471 281
4 894 615
5 712 832
6 728 813
7 360 217
8 446 264
9 952 650
10 558 224
11 460 397
12 464 342
13 733 921
14 324 316
15 333 497
16 826 821
17 257 385
18 385 244
19 523 249
20 559 370
21 665 866
22 310 583
23 744 792
24 428 638
25 759 804
26 359 515
27 392 213
28 583 380
29 786 400
30 516 833
31 823 692
32 480 330
33 870 690
34 311 76
35 157 434
36 340 558
37 499 905
38 893 667
39 665 781
40 328 499
41 712 744
42 949 498
43 463 266
44 275 564
45 456 323
46 748 727
47 860 607
48 821 554
49 245 542
50 462 420
51 859 662
52 308 399
53 427 246
54 279 414
55 543 841
56 243 333
57 406 498
58 347 509
59 460 593
60 244 536
61 650 703
62 732 115
63 234 661
64 808 720
65 423 216
66 144 390
67 772 633
68 917 645
69 509 345
70 286 449
71 380 488
72 478 333
73 465 310
74 666 858
75 334 369
76 708 815
77 767 610
78 472 326
79 481 449
80 559 265
81 786 646
82 503 255
83 406 226
84 627 709
85 859 611
86 931 648
87 281 315
88 954 665
89 443 295
90 497 359
91 247 542
92 311 468
93 901 603
94 801 847
95 257 131
96 346 637
97 604 305
98 436 206
99 277 345
100 428 257
101 405 530
102 892 802
103 341 663
104 856 527
105 539 861
106 359 298
107 875 642
108 867 658
109 677 832
110 316 483
111 505 255
112 554 806
113 309 502
114 953 659
115 675 828
116 946 627
117 242 560
118 498 334
119 844 511
120 811 691
121 454 510
122 675 733
123 186 347
124 348 474
125 487 362
126 835 517
127 507 409
128 378 458
129 368 319
130 810 928
131 572 844
132 445 255
133 412 244
134 815 948
135 328 509
136 665 841
137 295 534
138 859 585
139 730 846
140 786 719
141 437 458
142 371 276
143 876 594
144 448 298
145 510 236
146 573 230
147 909 630
148 704 257
149 643 809
150 944 623
151 440 448
152 411 551
153 721 584
154 523 195
155 370 474
156 730 809
157 520 525
158 498 349
159 667 782
160 244 370
161 365 509
162 758 838
163 323 519
164 378 315
165 402 522
166 419 216
167 340 467
168 664 691
169 487 341
170 798 633
171 432 178
172 538 215
173 897 626
174 653 723
175 999 652
176 424 473
177 842 770
178 504 345
179 830 617
180 602 875
181 524 367
182 654 754
183 482 274
184 861 603
185 344 184
186 832 573
187 924 690
188 794 662
189 258 663
190 575 132
191 273 535
192 871 612
193 443 292
194 631 960
195 950 648
196 212 601
197 698 735
198 510 223
199 322 521
200 806 829
201 243 269
202 527 416
203 535 411
204 504 296
205 574 897
206 368 600
207 733 712
208 314 438
209 362 479
210 874 652
211 756 693
212 418 381
213 841 801
214 593 974
215 410 515
216 434 478
217 501 249
218 896 647
219 819 806
220 311 561
221 363 98
222 849 471
223 961 626
224 588 700
225 705 795
226 948 634
227 865 664
228 856 622
229 223 459
230 307 497
231 363 509
232 655 782
233 636 386
234 703 883
235 782 900
236 186 508
237 436 192
238 398 512
239 449 668
240 253 148
241 112 573
242 250 532
243 722 761
244 415 416
245 234 81
246 382 449
247 267 459
248 926 677
249 946 631
250 962 364
251 886 613
252 137 499
253 594 954
254 497 399
255 869 621
256 857 586
257 521 273
258 793 806
259 461 276
260 912 910
261 457 265
262 325 456
263 312 305
264 991 645
265 672 935
266 227 328
267 869 620
268 316 455
269 617 725
270 395 501
271 406 223
272 692 448
273 534 348
274 323 492
275 405 715
276 902 505
277 900 608
278 939 553
279 681 748
280 497 320
281 289 412
282 466 263
283 256 499
284 748 888
285 352 624
286 474 238
287 208 455
288 922 673
289 869 610
290 80 531
291 826 819
292 691 935
293 331 340
294 405 263
295 246 487
296 770 429
297 448 274
298 728 801
299 453 176
300 356 248
301 531 283
302 885 599
303 994 539
304 781 595
305 688 856
306 448 393
307 302 417
308 298 550
309 663 798
310 762 732
311 437 272
312 301 337
313 718 866
DEMAND_SECTION
2 67
3 87
4 73
5 59
6 88
7 58
8 53
9 53
10 97
11 59
12 52
13 83
14 88
15 83
16 95
17 95
18 93
19 63
20 50
21 94
22 56
23 57
24 69
25 68
26 3
27 3
28 1
29 3
30 2
31 1
32 4
33 10
34 6
35 9
36 1
37 3
38 4
39 2
40 10
41 5
42 4
43 6
44 3
45 10
46 5
47 2
48 5
49 9
50 6
51 8
52 2
53 3
54 6
55 5
56 5
57 3
58 3
59 6
60 5
61 8
62 9
63 4
64 8
65 4
66 10
67 5
68 1
69 9
70 9
71 6
72 6
73 7
74 4
COVERAGE_SECTION
2 7 110 92 274 262 268 167 230 
3 7 259 183 43 282 261 297 144 
4 7 251 277 173 93 302 147 192 
5 7 76 139 6 156 305 109 298 
6 7 156 298 76 5 23 225 25 
7 7 300 27 18 185 271 83 133 
8 7 132 297 261 311 43 100 259 
9 7 195 114 88 226 249 86 116 
10 7 146 172 80 19 154 198 145 
11 7 306 50 254 125 212 127 244 
12 7 72 78 32 45 169 125 73 
13 6 284 292 234 235 313 265 
14 7 263 293 312 106 87 129 75 
15 7 40 274 135 58 110 163 113 
16 6 291 219 200 213 94 258 
17 7 160 54 281 99 52 56 307 
18 7 133 83 294 300 271 27 142 
19 7 145 111 82 217 257 198 301 
20 7 28 273 181 203 69 202 178 
21 6 74 136 305 109 115 234 
22 7 220 308 36 44 137 285 206 
23 7 298 25 156 6 243 225 76 
24 7 239 59 206 285 275 96 152 
25 6 23 156 298 6 162 258 
26 7 231 161 58 15 135 71 40 
27 7 271 83 166 65 7 18 133 
28 7 20 233 203 273 181 202 97 
29 7 296 222 272 119 126 104 233 
30 6 55 105 112 131 37 205 
31 7 120 64 188 140 33 51 227 
32 7 72 78 169 118 12 280 45 
33 7 227 51 108 38 210 31 107 
34 7 221 95 245 240 185 7 171 
35 7 66 287 252 229 236 123 295 
36 7 220 22 199 163 308 26 58 
37 7 105 30 205 55 131 180 253 
38 7 218 210 108 227 288 107 33 
39 6 159 232 309 182 149 279 
40 7 15 274 135 113 110 58 163 
41 7 197 243 279 207 122 46 225 
42 3 276 278 303 
43 7 282 261 259 3 8 297 132 
44 7 308 191 117 91 137 220 49 
45 7 73 78 12 72 32 144 89 
46 7 310 207 211 140 41 243 197 
47 7 85 184 289 192 228 267 255 
48 6 186 126 104 256 119 138 
49 7 91 60 242 117 191 44 283 
50 7 11 306 79 151 254 141 127 
51 7 227 108 210 107 33 38 218 
52 6 307 281 54 208 75 17 
53 7 100 133 132 8 294 311 83 
54 7 281 307 52 17 70 208 247 
55 6 105 30 131 112 205 180 
56 7 266 99 160 87 17 312 123 
57 7 270 238 215 165 71 176 101 
58 7 26 231 15 161 135 40 163 
59 6 24 152 239 121 101 157 
60 7 49 91 242 117 191 283 44 
61 5 168 174 84 122 269 
62 4 148 190 146 10 
63 7 189 196 117 44 103 22 96 
64 7 140 120 31 310 211 46 177 
65 7 166 98 271 83 237 53 133 
66 7 35 123 287 160 266 229 252 
67 7 81 77 170 188 304 179 211 
68 7 86 147 218 173 288 249 38 
69 7 178 158 118 90 169 273 181 
70 6 247 208 92 268 54 307 
71 7 155 209 270 161 231 57 128 
72 7 32 78 169 12 118 280 45 
73 7 45 78 144 32 72 89 193 
74 5 21 136 305 109 115 
75 6 293 52 312 14 307 129 
76 7 5 6 225 156 298 109 115 
77 7 304 67 170 81 153 188 179 
78 7 32 72 45 73 12 169 280 
79 5 50 151 141 127 254 
80 5 301 146 19 257 10 
81 7 170 188 67 77 120 304 179 
82 7 111 217 145 19 257 183 198 
83 7 271 166 27 133 65 18 53 
84 5 269 61 174 224 168 
85 7 47 184 289 228 192 267 255 
86 7 68 195 9 226 249 114 116 
87 7 99 312 263 56 14 266 293 
88 7 114 9 195 86 248 226 288 
89 7 193 144 297 311 259 73 3 
90 7 125 158 178 69 169 118 181 
91 7 49 60 242 117 191 44 283 
92 5 2 268 110 262 274 
93 6 277 4 302 251 173 143 
94 3 200 16 291 
95 7 240 245 34 185 221 7 201 
96 7 285 103 206 22 36 24 220 
97 3 80 301 28 
98 7 237 65 166 171 271 299 83 
99 7 312 87 56 160 17 263 266 
100 7 53 132 311 8 133 294 297 
101 7 165 215 238 152 270 57 161 
102 4 213 177 291 16 
103 7 96 285 206 275 189 22 24 
104 5 119 126 48 276 186 
105 7 55 30 131 205 112 37 180 
106 7 129 142 164 14 263 293 300 
107 7 210 108 218 255 267 227 51 
108 7 227 51 210 107 38 218 33 
109 5 115 136 305 74 5 
110 7 2 274 92 230 40 113 15 
111 7 82 217 19 145 257 183 198 
112 4 55 131 30 105 
113 7 230 274 40 110 135 163 199 
114 7 88 9 195 86 226 249 248 
115 5 109 136 74 305 309 
116 7 150 249 226 223 195 9 86 
117 7 49 91 60 242 44 191 196 
118 7 169 178 280 158 69 32 72 
119 5 126 104 222 48 276 
120 7 31 64 188 140 81 211 51 
121 5 216 215 176 57 101 
122 6 279 197 174 182 41 61 
123 7 266 56 66 160 17 99 35 
124 5 167 209 155 15 2 
125 7 90 158 169 178 69 12 72 
126 5 119 104 48 222 186 
127 7 254 202 203 181 50 79 11 
128 4 246 155 209 71 
129 7 164 106 142 293 14 263 75 
130 4 134 235 284 13 
131 6 55 105 112 180 205 30 
132 7 8 261 100 297 311 53 43 
133 7 53 83 294 100 271 18 166 
134 4 130 235 13 284 
135 7 40 163 15 199 274 58 113 
136 5 109 115 74 21 305 
137 7 308 191 199 220 163 113 44 
138 6 256 184 143 47 85 289 
139 5 5 313 162 6 156 
140 7 64 310 120 46 211 31 207 
141 6 151 176 216 50 79 244 
142 7 106 300 18 294 164 129 133 
143 6 302 184 289 138 192 47 
144 7 89 193 73 297 45 259 311 
145 7 198 217 19 82 111 172 286 
146 6 10 80 172 19 154 145 
147 7 173 68 4 218 277 86 93 
148 4 97 146 62 80 
149 3 309 232 39 
150 6 116 249 226 223 195 9 
151 6 141 176 216 50 79 244 
152 7 101 165 215 238 270 57 121 
153 7 77 304 67 81 170 48 188 
154 4 172 198 145 10 
155 6 209 71 128 124 246 167 
156 7 6 298 23 76 5 25 225 
157 4 121 79 59 216 
158 7 178 90 69 169 118 125 32 
159 6 39 232 309 182 149 279 
160 7 17 56 99 266 54 123 281 
161 7 231 26 58 71 209 270 238 
162 2 139 25 
163 7 199 135 40 113 15 58 230 
164 7 129 106 142 293 14 294 263 
165 7 101 215 238 270 57 152 161 
166 7 65 271 83 98 27 133 237 
167 4 124 262 2 209 
168 7 61 174 84 122 197 269 279 
169 7 72 32 118 158 178 78 90 
170 7 81 67 188 179 77 304 120 
171 7 237 299 98 65 166 271 27 
172 6 10 154 198 145 19 146 
173 7 4 147 251 277 218 93 107 
174 5 61 122 84 182 168 
175 6 264 223 9 88 114 195 
176 7 216 141 151 57 270 215 71 
177 6 213 219 291 16 102 64 
178 7 69 158 118 90 169 125 280 
179 7 228 85 47 184 170 255 267 
180 5 205 131 21 105 74 
181 7 273 69 90 178 158 20 125 
182 6 232 279 39 122 159 174 
183 7 3 282 43 259 261 82 111 
184 7 47 85 289 192 143 256 138 
185 7 7 27 300 18 271 83 166 
186 6 48 256 138 184 47 179 
187 7 248 288 38 88 114 86 68 
188 7 81 170 120 67 31 211 140 
189 7 63 196 103 96 22 44 285 
190 4 154 172 10 146 
191 7 137 242 91 44 49 60 308 
192 7 289 267 255 47 85 184 251 
193 7 89 144 297 311 259 8 73 
194 7 253 214 265 292 205 180 21 
195 7 9 114 226 88 249 86 116 
196 7 117 63 49 91 60 44 189 
197 7 41 279 122 243 207 174 182 
198 6 145 217 19 172 154 111 
199 7 163 135 40 113 15 58 230 
200 5 94 16 291 219 258 
201 7 87 266 56 263 99 312 14 
202 6 203 127 254 181 20 79 
203 7 202 127 254 181 20 28 273 
204 6 280 257 301 183 3 118 
205 7 180 105 131 253 55 37 214 
206 7 285 96 36 22 152 103 220 
207 7 46 211 310 41 197 243 140 
208 5 268 262 307 70 92 
209 6 155 124 71 167 128 161 
210 7 108 107 227 51 218 38 255 
211 7 207 46 310 140 188 120 81 
212 5 306 244 11 50 12 
213 7 219 291 16 177 200 258 102 
214 7 253 194 205 265 180 292 37 
215 7 165 238 101 57 270 152 71 
216 6 176 141 151 57 121 215 
217 7 82 111 145 19 198 286 183 
218 7 38 68 147 173 107 210 108 
219 6 291 16 213 200 258 177 
220 7 308 22 36 137 44 199 163 
221 6 34 185 171 95 7 27 
222 6 119 126 104 276 48 296 
223 6 116 226 249 150 195 9 
224 4 269 84 61 174 
225 7 76 298 6 156 5 243 23 
226 7 249 116 150 195 223 9 86 
227 7 51 108 210 107 33 38 218 
228 7 85 255 267 47 192 289 184 
229 6 287 295 247 283 236 70 
230 6 113 110 274 40 135 2 
231 7 161 26 58 71 209 15 270 
232 5 39 159 309 182 149 
233 6 28 20 272 97 203 273 
234 6 313 305 21 74 284 139 
235 3 284 130 13 
236 7 252 287 229 60 295 49 242 
237 7 98 171 299 65 166 271 83 
238 7 165 270 215 57 101 71 161 
239 7 24 275 59 206 285 96 103 
240 7 95 245 34 185 201 221 7 
241 7 290 252 236 196 117 49 60 
242 7 60 91 49 191 117 283 44 
243 7 41 197 23 225 298 46 279 
244 5 212 306 151 50 141 
245 7 95 240 34 221 185 7 201 
246 4 128 155 209 71 
247 5 70 295 283 229 92 
248 7 288 187 86 88 114 68 38 
249 7 116 226 150 223 195 9 86 
250 6 42 276 222 303 29 119 
251 7 4 302 192 277 173 289 93 
252 7 236 290 35 241 287 229 66 
253 7 214 194 205 180 265 292 37 
254 7 127 202 11 125 90 203 50 
255 7 267 192 289 228 85 47 251 
256 6 138 184 47 143 85 289 
257 6 301 19 111 82 204 217 
258 6 200 219 25 291 16 94 
259 7 43 3 261 297 282 8 183 
260 6 130 134 102 16 291 94 
261 7 43 282 8 259 297 132 3 
262 4 268 92 167 2 
263 7 14 87 312 293 106 99 129 
264 6 175 223 9 114 195 88 
265 7 292 194 234 13 21 74 253 
266 7 56 123 160 99 87 201 17 
267 7 255 192 289 85 228 47 251 
268 4 262 92 208 2 
269 4 84 174 224 61 
270 7 57 238 71 215 165 101 161 
271 7 83 166 27 65 133 18 53 
272 7 296 233 29 28 153 20 126 
273 7 181 69 178 20 158 90 118 
274 7 40 15 110 2 113 230 135 
275 7 239 24 103 96 285 206 59 
276 5 42 104 119 278 222 
277 6 93 4 251 302 173 147 
278 1 42 
279 7 122 197 182 41 39 159 174 
280 7 118 32 72 169 204 78 178 
281 6 54 307 52 208 70 17 
282 7 43 261 259 3 183 8 297 
283 5 295 242 60 191 247 
284 3 13 235 313 
285 7 96 206 103 22 36 220 24 
286 6 282 217 43 261 82 132 
287 6 229 295 35 236 247 283 
288 7 248 187 86 68 38 88 114 
289 7 192 47 85 267 184 255 143 
290 7 241 252 236 35 196 287 66 
291 6 16 219 200 213 258 94 
292 7 265 13 234 194 21 284 313 
293 7 14 75 312 263 129 106 164 
294 7 133 100 18 53 311 142 83 
295 5 283 247 229 242 60 
296 7 29 272 222 126 119 104 48 
297 7 8 311 259 261 43 132 193 
298 7 156 6 23 76 225 25 5 
299 5 171 237 98 65 166 
300 7 18 7 142 27 106 294 83 
301 4 257 204 80 19 
302 6 143 251 93 277 4 192 
303 2 278 42 
304 7 77 67 170 81 179 186 48 
305 7 74 21 109 136 115 234 313 
306 7 11 50 212 244 254 125 12 
307 6 281 52 54 208 70 268 
308 7 137 220 44 191 22 199 163 
309 5 159 39 232 149 115 
310 7 46 140 207 211 64 243 41 
311 7 297 8 100 132 193 261 89 
312 7 99 87 293 14 263 75 56 
313 5 139 234 305 5 284 
DEPOT_SECTION
   1
   -1
EOF
