NAME :  X-n336-kX-w33-c11.cctp
COMMENT : 	Adapted by Maziero, Usberti and Cavellucci from the Uchoa, Pecin, Pessoa, Poggi, Subramanian, and Vidal (2013)
TYPE :  CCTP
DIMENSION :    253
EDGE_WEIGHT_TYPE : 	EUC_2D	
CAPACITY : 	203
VERTICES_WITHIN_COVERAGE :  11
VERTICES_WITH_DEMAND : 	33
NODE_COORD_SECTION
1 0 0
2 365 689
3 146 180
4 792 5
5 658 510
6 461 270
7 299 531
8 812 228
9 643 90
10 615 630
11 258 42
12 616 299
13 475 957
14 425 473
15 406 64
16 656 369
17 202 467
18 318 21
19 579 587
20 458 354
21 575 871
22 47 512
23 568 742
24 128 436
25 546 806
26 197 696
27 615 300
28 852 563
29 772 803
30 678 342
31 916 176
32 390 949
33 113 782
34 226 736
35 584 572
36 134 554
37 912 173
38 827 233
39 851 677
40 598 322
41 627 472
42 94 442
43 688 274
44 977 176
45 597 461
46 931 23
47 170 640
48 873 487
49 797 95
50 451 816
51 260 107
52 332 45
53 685 613
54 728 372
55 619 484
56 482 512
57 278 599
58 643 10
59 302 521
60 593 382
61 438 686
62 637 885
63 152 776
64 546 999
65 288 665
66 232 131
67 563 66
68 602 547
69 464 377
70 502 727
71 691 574
72 535 4
73 974 242
74 810 617
75 580 226
76 615 656
77 346 526
78 319 35
79 602 946
80 224 146
81 48 527
82 413 661
83 756 147
84 381 139
85 421 100
86 930 522
87 493 72
88 573 541
89 668 884
90 380 646
91 24 44
92 457 991
93 511 272
94 960 171
95 150 61
96 721 754
97 56 633
98 389 853
99 700 137
100 422 111
101 727 12
102 203 178
103 548 744
104 610 239
105 396 478
106 509 773
107 347 219
108 754 887
109 717 223
110 650 718
111 451 575
112 740 770
113 291 583
114 74 690
115 8 248
116 877 132
117 379 284
118 574 881
119 509 440
120 644 554
121 325 696
122 782 490
123 502 280
124 440 691
125 342 364
126 806 649
127 552 728
128 26 841
129 463 459
130 526 344
131 268 49
132 156 39
133 303 960
134 85 110
135 760 825
136 725 93
137 253 53
138 342 592
139 705 344
140 35 318
141 839 857
142 7 132
143 462 46
144 511 649
145 660 595
146 954 238
147 679 664
148 223 692
149 783 211
150 258 807
151 901 617
152 634 276
153 711 6
154 379 611
155 494 796
156 804 306
157 366 672
158 739 275
159 390 64
160 421 896
161 33 185
162 780 36
163 583 683
164 999 222
165 991 56
166 687 500
167 381 463
168 52 296
169 188 834
170 373 15
171 379 73
172 365 875
173 281 949
174 222 763
175 487 965
176 525 52
177 767 889
178 584 689
179 52 118
180 626 630
181 528 291
182 61 262
183 67 613
184 528 819
185 776 606
186 619 771
187 740 183
188 487 874
189 857 247
190 376 774
191 168 409
192 543 56
193 846 172
194 43 62
195 548 157
196 68 300
197 153 638
198 619 306
199 31 683
200 681 520
201 445 533
202 117 505
203 265 809
204 791 3
205 305 771
206 697 637
207 599 555
208 595 439
209 217 775
210 585 895
211 185 344
212 710 275
213 22 136
214 668 648
215 423 637
216 318 490
217 763 274
218 686 796
219 870 128
220 59 581
221 292 22
222 182 838
223 285 15
224 159 409
225 556 616
226 370 988
227 436 374
228 143 772
229 15 88
230 897 75
231 667 699
232 621 485
233 900 816
234 707 297
235 541 76
236 244 104
237 367 241
238 349 361
239 812 318
240 731 882
241 701 119
242 170 285
243 577 478
244 377 59
245 823 859
246 760 716
247 809 837
248 269 109
249 112 726
250 454 247
251 873 167
252 205 18
253 738 287
DEMAND_SECTION
2 48
3 63
4 27
5 66
6 86
7 14
8 26
9 47
10 66
11 85
12 22
13 30
14 89
15 51
16 11
17 82
18 92
19 85
20 51
21 90
22 6
23 68
24 73
25 94
26 7
27 12
28 70
29 97
30 41
31 30
32 8
33 11
34 25
COVERAGE_SECTION
2 11 157 121 90 82 61 124 215 154 65 190 138 
3 10 102 80 134 66 242 161 179 182 95 236 
4 11 204 162 101 153 49 136 230 46 83 219 241 
5 11 200 166 232 120 55 41 68 71 207 45 145 
6 10 250 123 93 181 117 20 130 237 69 227 
7 10 59 216 77 113 57 138 167 105 154 17 
8 11 38 149 189 193 217 156 187 251 158 239 109 
9 11 241 99 58 136 67 235 192 153 101 195 176 
10 11 180 76 19 214 145 225 163 35 178 53 147 
11 11 131 137 223 221 252 78 18 236 51 248 52 
12 11 27 198 40 152 104 30 43 16 75 60 181 
13 11 175 92 160 64 188 32 226 118 210 79 21 
14 10 105 129 167 201 56 119 77 227 69 111 
15 11 159 171 244 85 100 143 170 52 84 87 78 
16 11 30 139 60 54 198 40 27 12 234 208 152 
17 10 191 224 24 202 36 42 59 7 216 211 
18 11 78 221 52 223 170 131 11 244 137 171 159 
19 11 35 225 207 68 88 10 180 120 76 145 144 
20 11 69 227 130 6 123 181 93 119 129 117 250 
21 10 118 210 62 184 25 79 188 89 186 155 
22 11 81 202 220 42 36 183 24 97 224 191 17 
23 11 103 127 178 186 163 106 25 70 110 184 155 
24 9 42 224 191 202 17 211 22 36 81 
25 11 184 106 155 103 23 21 127 118 186 70 188 
26 11 148 34 47 174 197 209 249 63 228 65 33 
27 11 12 198 40 152 104 30 43 16 75 60 181 
28 8 74 151 48 185 86 126 122 39 
29 11 135 112 247 96 245 108 141 177 218 246 240 
30 11 139 16 234 54 43 198 212 12 27 152 253 
31 11 37 94 251 116 44 219 193 146 73 189 164 
32 10 226 160 172 92 13 133 98 175 173 188 
33 9 228 63 249 222 169 114 209 128 174 
34 11 174 209 148 26 150 203 63 205 228 65 169 
35 10 19 207 68 88 225 120 10 180 145 76 
36 11 202 220 197 183 81 47 22 17 97 24 42 
37 11 31 251 94 116 219 44 193 146 189 73 230 
38 10 8 189 149 193 217 156 251 239 158 187 
39 6 126 74 151 246 185 28 
40 11 198 27 12 152 60 16 130 181 30 104 75 
41 11 55 232 45 208 5 243 166 200 68 120 88 
42 11 24 202 224 191 22 81 17 36 211 140 220 
43 11 212 234 158 253 152 109 30 139 217 12 198 
44 11 94 164 31 37 73 146 251 116 219 165 230 
45 11 208 243 41 55 232 5 60 88 68 119 207 
46 11 230 165 219 116 4 204 37 94 49 162 31 
47 11 197 26 148 36 249 183 114 34 97 57 65 
48 3 86 28 122 
49 11 162 83 136 219 116 4 193 204 241 230 187 
50 10 155 188 98 106 184 160 190 25 70 172 
51 10 248 236 66 80 137 131 11 102 221 78 
52 11 78 18 221 244 170 171 223 159 131 11 15 
53 11 206 145 71 214 147 180 10 120 76 231 185 
54 10 139 30 16 234 253 158 212 239 156 217 
55 11 232 41 45 243 5 208 68 166 200 88 120 
56 8 201 129 14 111 119 105 88 243 
57 11 113 138 65 7 59 77 154 121 148 90 157 
58 11 153 9 101 67 72 192 136 235 241 176 99 
59 10 7 216 77 113 138 57 167 105 17 154 
60 11 208 40 16 130 45 198 27 12 30 41 243 
61 9 124 82 215 90 2 157 70 144 154 
62 8 89 210 118 21 79 240 218 186 
63 9 228 33 249 209 169 222 174 34 26 
64 9 175 79 13 92 210 118 21 188 62 
65 11 121 57 148 157 2 113 138 34 90 26 154 
66 10 80 236 51 248 102 137 131 11 3 95 
67 11 192 235 176 72 87 9 195 58 143 85 100 
68 11 207 88 35 120 19 55 232 5 243 145 41 
69 11 20 227 130 119 129 14 123 6 181 93 238 
70 10 106 103 127 23 155 124 61 144 25 178 
71 11 145 53 120 200 206 5 166 214 180 147 185 
72 11 176 192 67 235 87 143 58 9 15 85 195 
73 8 146 164 44 94 31 37 189 251 
74 9 126 185 28 39 151 246 206 53 71 
75 11 104 152 195 12 27 93 181 198 123 40 43 
76 11 10 180 163 178 214 147 231 110 225 145 19 
77 10 59 216 7 138 105 167 113 154 14 201 
78 11 18 52 221 223 131 170 11 244 137 171 159 
79 7 210 62 118 64 21 89 175 
80 10 66 102 236 51 248 3 137 131 11 95 
81 11 22 220 202 183 36 42 97 24 197 199 224 
82 9 215 61 90 124 157 2 154 111 121 
83 11 187 99 136 241 49 149 109 193 8 38 162 
84 9 100 85 171 159 15 244 107 237 52 
85 11 100 15 159 171 84 244 143 87 170 52 176 
86 2 48 28 
87 11 176 143 235 192 67 85 72 100 15 195 159 
88 10 68 207 35 19 243 120 55 232 225 45 
89 8 62 240 210 108 218 79 21 118 
90 10 157 154 82 215 2 138 61 121 124 65 
91 11 194 229 179 134 142 213 95 132 161 3 252 
92 11 13 175 32 226 64 160 188 172 79 98 133 
93 11 123 181 6 250 130 75 20 40 104 12 27 
94 11 44 31 37 164 146 73 251 116 219 193 230 
95 11 132 252 134 137 236 194 66 11 80 179 3 
96 9 112 246 218 29 231 110 135 147 186 
97 11 183 220 199 114 197 81 249 36 47 22 202 
98 9 172 160 50 190 32 188 205 155 203 
99 11 241 136 83 187 9 109 49 149 101 162 153 
100 11 85 15 84 159 171 244 143 87 170 52 176 
101 11 153 162 4 204 136 58 49 241 9 99 83 
102 8 80 66 3 236 51 248 242 95 
103 11 127 23 70 106 25 178 163 155 186 184 144 
104 11 75 152 12 27 198 40 43 181 195 93 212 
105 11 167 14 77 129 201 216 56 59 7 227 111 
106 10 155 70 103 25 184 127 23 50 188 124 
107 5 237 117 84 250 6 
108 8 177 240 135 245 247 29 89 141 
109 11 187 212 158 43 149 253 217 234 83 99 8 
110 10 231 147 186 76 178 214 163 96 23 218 
111 8 201 215 56 154 82 144 90 14 
112 9 96 29 246 135 218 247 231 110 240 
113 10 57 138 7 59 77 65 154 216 90 157 
114 11 199 249 97 183 197 33 228 47 220 63 26 
115 11 182 168 161 140 196 213 142 179 3 134 229 
116 11 219 251 193 37 31 230 49 94 44 38 8 
117 6 237 107 6 238 250 125 
118 10 21 210 62 79 184 25 188 89 155 186 
119 10 129 56 69 243 208 14 45 130 227 20 
120 11 68 145 207 5 200 71 35 166 53 88 19 
121 11 2 65 157 90 205 190 82 154 148 138 34 
122 6 48 166 28 200 185 71 
123 11 93 181 6 250 130 20 75 69 40 27 227 
124 10 61 82 215 70 2 90 157 144 154 190 
125 5 238 117 227 167 20 
126 9 74 185 39 246 28 151 206 53 147 
127 11 103 23 70 178 163 106 25 186 144 155 184 
128 1 33 
129 10 14 119 56 105 201 69 167 227 20 243 
130 11 181 123 20 69 93 40 60 227 119 6 27 
131 11 11 137 221 223 78 18 51 236 248 52 252 
132 11 95 252 137 134 11 236 131 194 66 51 80 
133 8 173 226 32 172 160 98 203 92 
134 11 179 194 213 229 95 142 91 161 3 132 102 
135 11 29 247 112 108 177 240 245 218 96 141 89 
136 11 241 99 83 49 162 101 9 153 187 4 204 
137 11 11 131 221 223 236 51 248 252 78 18 52 
138 10 154 113 57 77 90 7 59 157 65 215 
139 11 30 54 234 16 253 212 43 158 217 198 152 
140 10 168 196 182 115 161 42 242 24 211 224 
141 7 245 247 233 177 135 29 108 
142 11 213 229 179 161 194 134 91 115 182 3 95 
143 11 87 15 176 85 159 100 192 72 235 244 171 
144 10 225 70 163 61 124 178 127 215 19 111 
145 11 53 71 120 180 214 206 10 147 207 68 76 
146 8 73 164 44 94 31 37 189 251 
147 9 214 206 231 53 110 180 76 10 145 
148 11 26 34 65 174 47 209 197 121 57 63 228 
149 11 8 38 187 217 109 83 193 158 189 253 156 
150 8 203 209 174 205 169 34 222 63 
151 3 28 39 74 
152 11 12 27 198 104 43 40 75 212 234 30 16 
153 11 101 58 162 204 4 136 9 241 49 99 83 
154 9 90 138 215 82 157 2 111 77 113 
155 10 106 184 50 25 70 103 188 127 23 21 
156 11 239 217 253 158 38 8 189 149 234 212 54 
157 10 2 90 82 121 154 215 61 124 65 138 
158 11 253 217 212 234 43 109 156 139 149 239 8 
159 11 171 244 15 85 170 100 52 143 84 78 18 
160 10 98 172 32 188 13 50 175 92 226 155 
161 11 213 142 115 179 182 134 229 3 168 196 194 
162 11 4 204 101 49 153 136 83 241 230 99 219 
163 11 178 76 127 23 10 180 103 225 110 144 231 
164 8 73 146 44 94 31 37 251 189 
165 11 46 230 94 44 116 37 219 31 251 164 146 
166 11 200 5 41 232 120 55 71 122 68 45 145 
167 11 105 14 216 77 129 201 59 227 125 7 238 
168 10 196 140 182 115 161 242 211 3 42 224 
169 8 222 209 63 150 228 174 203 33 
170 11 244 52 159 18 78 171 15 221 223 143 85 
171 11 159 244 15 85 52 100 170 84 78 18 143 
172 9 98 160 32 190 50 133 173 226 203 
173 7 133 226 32 172 203 98 150 
174 11 209 34 150 203 63 148 26 169 228 205 222 
175 11 13 92 64 188 160 32 79 226 210 118 21 
176 11 192 235 87 67 72 143 195 85 100 15 9 
177 7 108 240 135 245 247 141 29 
178 11 163 76 127 23 103 10 110 180 225 144 231 
179 11 134 213 142 229 194 161 91 3 95 132 115 
180 11 10 76 214 145 53 147 19 163 206 225 35 
181 11 93 123 130 6 40 75 250 27 12 198 20 
182 10 168 196 115 140 161 242 3 213 142 179 
183 11 97 220 114 199 81 36 197 22 47 202 249 
184 10 25 155 106 188 21 50 118 103 23 127 
185 10 74 126 206 28 53 71 39 246 147 122 
186 10 23 110 218 103 127 25 231 178 163 96 
187 11 83 109 149 99 241 8 136 158 217 212 38 
188 10 50 184 160 155 13 118 21 25 175 98 
189 10 38 8 193 156 149 251 239 31 37 146 
190 10 205 98 2 50 121 157 172 124 61 203 
191 7 224 24 17 211 42 202 242 
192 11 176 235 67 87 72 143 195 9 58 85 100 
193 11 251 219 116 38 8 37 31 149 189 49 83 
194 11 91 229 179 134 213 142 95 132 161 3 252 
195 11 75 235 67 87 192 104 176 9 93 250 123 
196 10 168 140 182 115 242 161 211 224 3 42 
197 11 47 26 36 148 183 114 97 249 220 34 199 
198 11 27 12 40 152 104 30 16 43 60 234 75 
199 11 114 97 183 249 220 33 197 228 47 63 81 
200 11 166 5 120 71 232 41 55 145 68 207 53 
201 8 111 56 14 105 129 167 77 154 
202 11 36 42 22 24 81 17 220 224 191 183 197 
203 8 150 205 209 174 169 34 222 190 
204 11 4 162 101 153 49 136 230 46 241 58 83 
205 10 203 150 190 121 174 34 209 2 65 148 
206 10 53 214 147 145 71 231 180 10 76 185 
207 11 68 35 88 19 120 145 232 5 55 225 10 
208 11 45 243 41 55 232 60 119 16 5 88 68 
209 11 174 34 150 203 63 169 222 228 26 148 205 
210 10 118 21 62 79 89 184 25 188 64 175 
211 4 242 191 224 24 
212 11 43 234 158 253 109 217 139 30 152 198 12 
213 11 142 179 229 161 134 194 91 115 3 182 95 
214 10 147 206 53 180 231 76 145 10 110 71 
215 9 82 90 61 154 124 157 111 2 144 
216 10 59 7 77 167 105 113 138 14 57 17 
217 11 158 253 156 212 234 149 239 8 109 43 38 
218 10 96 112 186 135 29 110 89 240 231 62 
219 11 116 251 193 230 37 31 49 94 38 8 83 
220 11 183 97 81 22 36 202 199 114 197 47 42 
221 11 223 18 78 131 11 52 137 170 252 248 51 
222 8 169 63 209 228 150 174 203 33 
223 11 221 18 11 131 78 137 52 252 170 51 248 
224 7 191 24 211 17 42 202 242 
225 11 19 35 144 10 76 180 163 207 88 178 68 
226 9 32 133 92 173 160 13 172 175 98 
227 11 69 20 238 129 125 130 119 14 167 6 117 
228 10 63 33 249 209 169 222 174 34 26 114 
229 11 194 91 142 179 213 134 161 95 132 3 115 
230 11 219 116 46 251 165 37 49 31 193 94 162 
231 9 110 147 214 76 206 96 180 178 10 
232 11 55 41 45 5 243 208 68 166 200 120 207 
233 4 141 245 247 29 
234 11 212 43 253 158 139 30 217 109 152 54 16 
235 11 192 67 176 87 72 195 143 9 58 85 100 
236 10 51 248 66 80 137 131 11 102 252 221 
237 6 107 117 250 6 84 238 
238 5 125 117 227 167 20 
239 8 156 217 253 189 158 38 8 54 
240 9 108 177 89 135 29 247 62 245 218 
241 11 99 136 83 9 187 49 109 101 153 162 58 
242 6 211 196 3 182 102 168 
243 10 45 55 208 232 41 88 68 119 207 5 
244 11 159 171 15 170 52 85 78 100 18 84 143 
245 7 141 247 177 135 108 29 233 
246 8 96 112 126 29 231 147 39 206 
247 9 245 141 29 135 177 108 240 233 112 
248 10 51 236 66 80 137 131 11 78 52 221 
249 11 114 228 33 63 26 199 197 47 97 34 148 
250 10 6 123 93 117 181 237 20 107 130 75 
251 11 193 116 37 219 31 38 189 8 94 230 149 
252 11 132 11 137 95 131 223 221 236 51 248 18 
253 11 158 217 212 234 43 139 109 156 239 30 54 
DEPOT_SECTION
   1
   -1
EOF
