NAME :  X-n313-kX-w31-c11.cctp
COMMENT : 	Adapted by Maziero, Usberti and Cavellucci from the Uchoa, Pecin, Pessoa, Poggi, Subramanian, and Vidal (2013)
TYPE :  CCTP
DIMENSION :    183
EDGE_WEIGHT_TYPE : 	EUC_2D	
CAPACITY : 	248
VERTICES_WITHIN_COVERAGE :  11
VERTICES_WITH_DEMAND : 	31
NODE_COORD_SECTION
1 471 44
2 63 475
3 766 504
4 895 595
5 816 377
6 462 590
7 997 596
8 775 993
9 16 97
10 839 348
11 558 896
12 423 912
13 169 411
14 75 602
15 402 52
16 388 208
17 202 39
18 510 841
19 555 484
20 920 633
21 369 718
22 432 696
23 624 872
24 472 323
25 753 701
26 584 440
27 292 665
28 202 310
29 764 255
30 662 486
31 822 575
32 469 13
33 554 82
34 336 745
35 950 229
36 407 932
37 86 764
38 376 632
39 639 987
40 775 98
41 503 855
42 215 73
43 566 78
44 4 517
45 44 457
46 676 337
47 338 568
48 623 911
49 626 931
50 799 942
51 725 430
52 264 347
53 986 595
54 331 362
55 760 436
56 115 641
57 307 764
58 469 817
59 315 388
60 564 25
61 671 892
62 609 798
63 174 403
64 76 671
65 984 939
66 830 579
67 249 590
68 663 347
69 21 500
70 501 372
71 483 270
72 548 281
73 205 745
74 870 931
75 79 105
76 545 62
77 719 128
78 80 366
79 16 732
80 24 521
81 848 600
82 618 577
83 489 239
84 768 731
85 274 30
86 546 837
87 890 640
88 594 308
89 878 716
90 498 448
91 473 5
92 277 752
93 435 254
94 905 275
95 521 401
96 850 425
97 374 186
98 712 433
99 814 730
100 120 490
101 376 534
102 982 560
103 815 625
104 356 868
105 659 994
106 804 110
107 415 517
108 549 366
109 57 742
110 381 700
111 867 408
112 763 186
113 581 91
114 416 56
115 729 620
116 163 73
117 314 748
118 580 852
119 464 768
120 718 885
121 758 736
122 279 995
123 181 234
124 49 83
125 285 233
126 440 768
127 505 113
128 491 864
129 168 63
130 173 235
131 733 735
132 449 717
133 433 647
134 425 754
135 393 883
136 811 550
137 814 654
138 717 660
139 635 947
140 335 108
141 539 903
142 511 845
143 35 140
144 764 630
145 320 660
146 599 809
147 881 701
148 417 880
149 629 972
150 58 45
151 212 89
152 499 821
153 412 963
154 637 812
155 689 881
156 518 897
157 516 903
158 481 843
159 737 665
160 566 790
161 448 906
162 210 251
163 490 816
164 624 845
165 843 646
166 536 845
167 450 944
168 484 809
169 726 736
170 118 296
171 416 911
172 656 825
173 244 245
174 378 177
175 585 960
176 348 762
177 302 277
178 672 914
179 381 465
180 565 560
181 575 804
182 65 87
183 569 802
DEMAND_SECTION
2 94
3 56
4 73
5 25
6 4
7 97
8 82
9 57
10 41
11 98
12 45
13 86
14 5
15 83
16 99
17 78
18 64
19 44
20 69
21 25
22 44
23 64
24 59
25 72
26 10
27 26
28 56
29 1
30 41
31 69
32 62
COVERAGE_SECTION
2 10 45 69 100 80 44 78 13 14 63 56 
3 8 136 55 51 98 31 66 30 96 
4 11 20 87 81 66 165 31 103 53 102 136 137 
5 11 10 96 111 55 51 98 29 94 3 46 68 
6 9 133 107 38 101 180 22 47 132 110 
7 11 53 102 20 4 87 81 147 165 66 89 31 
8 10 50 74 105 120 178 39 155 61 139 149 
9 5 124 143 182 75 150 
10 11 5 111 96 94 55 29 51 98 35 46 3 
11 8 141 156 157 118 166 86 48 41 
12 7 171 36 161 148 135 167 153 
13 10 63 100 78 28 52 2 170 45 59 162 
14 11 56 64 80 44 69 100 2 109 79 45 37 
15 11 114 32 91 140 127 174 85 97 76 33 16 
16 10 97 174 93 83 125 177 71 140 24 173 
17 5 42 129 151 116 85 
18 10 142 41 152 166 158 128 163 86 168 58 
19 9 26 90 180 95 30 82 108 70 6 
20 11 87 4 53 147 165 81 7 89 102 66 103 
21 11 110 34 176 117 22 134 145 57 132 38 126 
22 11 132 133 110 134 21 126 119 38 176 34 6 
23 11 164 48 118 61 172 49 154 178 155 146 11 
24 10 71 70 93 83 72 108 95 88 90 16 
25 6 84 121 131 159 169 138 
26 11 19 95 108 90 30 70 180 68 98 88 46 
27 11 145 67 117 92 38 34 21 110 57 47 176 
28 10 162 52 173 123 130 170 63 177 13 125 
29 9 112 10 46 5 77 68 94 106 40 
30 8 98 51 26 82 3 19 55 180 
31 10 66 136 81 103 165 4 137 144 3 87 
32 11 91 114 15 76 60 127 33 43 113 140 174 
33 7 43 76 113 60 127 32 91 
34 9 176 117 57 21 92 110 145 134 27 
35 11 94 10 29 106 112 111 5 40 96 77 55 
36 7 171 12 153 167 161 135 148 
37 6 109 79 64 73 56 14 
38 11 133 145 110 47 22 21 27 6 101 132 34 
39 10 149 105 139 49 175 48 178 61 23 155 
40 7 106 77 112 29 113 43 35 
41 7 142 128 18 158 152 166 163 
42 4 151 17 129 116 
43 7 33 113 76 60 127 32 91 
44 10 80 69 2 45 14 100 56 78 64 13 
45 9 2 69 80 44 100 78 13 63 14 
46 11 68 88 98 51 29 55 108 26 72 5 30 
47 11 101 38 67 107 145 27 179 133 6 110 21 
48 11 49 139 23 178 61 149 175 164 11 155 118 
49 11 139 48 149 178 175 39 23 61 105 11 155 
50 5 8 74 120 155 178 
51 11 98 55 30 3 68 5 46 96 10 26 111 
52 11 59 54 28 177 173 63 162 13 125 123 130 
53 11 7 102 20 4 87 81 147 165 66 89 31 
54 11 59 52 177 179 125 28 24 173 93 63 16 
55 11 51 98 3 5 96 30 111 10 136 46 68 
56 10 64 14 109 37 79 73 67 80 100 44 
57 6 117 92 34 176 21 110 
58 9 168 163 158 152 18 119 142 41 128 
59 11 54 52 179 177 28 63 13 101 125 173 107 
60 8 76 43 33 113 91 32 127 114 
61 10 155 178 120 23 48 49 139 164 172 154 
62 10 146 154 181 183 160 164 172 118 86 23 
63 11 13 28 78 100 52 170 2 45 59 162 54 
64 8 56 14 109 79 37 73 80 44 
65 3 74 50 8 
66 10 31 81 136 103 4 165 137 144 87 3 
67 11 27 47 145 38 101 56 73 100 92 117 110 
68 11 46 88 98 51 108 26 55 72 29 30 95 
69 10 80 44 2 45 100 14 78 56 13 64 
70 11 95 108 24 90 72 71 26 88 19 83 93 
71 10 83 93 24 72 70 16 108 88 95 97 
72 9 88 71 83 108 24 70 93 95 68 
73 6 92 57 117 27 37 34 
74 3 50 8 65 
75 5 182 124 143 9 150 
76 8 33 43 60 113 127 32 91 114 
77 7 40 112 106 29 113 43 33 
78 7 170 45 13 63 2 100 28 
79 6 109 37 64 56 14 73 
80 10 44 69 2 45 14 100 56 64 78 13 
81 11 66 31 103 165 4 87 136 137 20 144 147 
82 2 180 30 
83 9 71 93 72 24 16 88 97 127 174 
84 5 121 25 131 169 99 
85 6 17 42 151 140 129 116 
86 11 166 18 142 118 183 181 41 152 160 11 146 
87 10 20 4 165 81 147 103 89 137 66 31 
88 9 72 108 68 46 70 71 95 24 83 
89 6 147 99 87 165 137 20 
90 11 95 19 70 26 108 107 179 24 180 6 101 
91 11 32 114 15 76 60 33 127 43 113 140 174 
92 8 57 117 34 73 176 27 21 145 
93 10 71 83 16 24 97 174 72 70 177 54 
94 11 35 10 5 111 29 96 112 106 55 40 46 
95 11 70 108 90 26 19 24 88 72 71 68 179 
96 11 111 5 10 55 3 51 136 98 31 66 94 
97 8 174 16 140 93 125 177 83 15 
98 11 51 55 30 3 68 46 5 26 96 10 136 
99 6 84 121 89 25 147 137 
100 11 2 45 13 69 80 63 44 14 78 56 67 
101 11 107 47 179 38 6 133 145 67 90 27 59 
102 11 53 7 4 20 87 81 66 31 165 136 147 
103 9 137 165 81 66 31 144 136 87 4 
104 5 135 148 171 12 36 
105 11 39 149 139 49 175 178 48 61 8 155 120 
106 7 40 112 77 29 35 94 113 
107 11 101 179 6 47 90 38 133 19 180 95 59 
108 11 95 70 88 26 72 24 90 68 71 19 46 
109 6 37 79 64 56 14 73 
110 11 21 22 34 38 132 134 176 145 133 117 126 
111 11 96 5 10 55 94 3 51 136 98 31 66 
112 7 29 77 106 40 94 46 10 
113 6 43 33 76 60 127 32 
114 11 15 32 91 140 127 174 76 97 33 85 60 
115 4 144 138 159 25 
116 4 129 17 42 151 
117 8 57 34 92 176 21 110 27 145 
118 11 86 164 166 146 23 181 11 183 62 160 141 
119 9 126 134 168 58 132 163 152 158 22 
120 5 155 61 178 172 23 
121 5 84 131 169 25 99 
122 7 153 36 104 135 171 12 167 
123 4 130 162 173 28 
124 5 182 9 75 150 143 
125 7 173 177 162 97 123 16 174 
126 9 134 119 132 58 168 163 22 152 158 
127 10 33 76 43 113 32 60 114 91 15 83 
128 4 41 158 142 18 
129 4 116 17 42 151 
130 4 123 162 173 28 
131 4 169 121 84 25 
132 9 22 134 126 119 110 133 21 168 58 
133 11 22 38 6 132 110 21 134 145 126 47 119 
134 9 126 119 132 22 21 110 58 176 168 
135 6 148 171 104 12 36 161 
136 9 31 66 81 3 103 144 4 165 137 
137 10 103 165 144 81 99 25 66 87 159 31 
138 4 159 115 25 144 
139 11 49 149 48 39 178 175 105 61 23 155 11 
140 6 174 15 97 114 85 16 
141 6 11 156 157 166 41 128 
142 9 18 41 166 152 128 158 86 163 168 
143 4 9 75 124 182 
144 7 115 159 103 137 138 25 31 
145 11 27 38 110 21 34 117 47 67 92 57 176 
146 10 62 181 183 154 160 164 118 172 86 23 
147 7 89 87 165 99 20 137 103 
148 5 135 171 12 161 36 
149 10 39 139 105 49 175 48 178 61 23 11 
150 5 124 182 75 9 143 
151 4 42 17 129 116 
152 10 163 168 18 142 158 58 41 128 166 86 
153 5 36 167 12 171 161 
154 9 172 62 164 146 23 181 183 118 160 
155 8 61 120 178 172 23 48 164 49 
156 5 157 141 11 128 41 
157 4 156 141 11 128 
158 8 128 41 152 163 18 58 142 168 
159 4 138 25 144 115 
160 10 183 181 146 62 86 166 118 152 154 18 
161 4 12 171 167 148 
162 5 123 173 130 28 125 
163 9 168 152 58 158 18 142 41 128 166 
164 11 23 154 172 146 118 62 181 48 61 183 155 
165 11 137 103 81 87 147 66 4 31 20 89 144 
166 11 86 142 18 41 152 118 128 163 183 156 158 
167 5 161 12 153 36 171 
168 9 163 58 152 158 18 142 119 41 128 
169 4 131 121 84 25 
170 5 78 130 28 123 162 
171 7 12 36 148 161 135 167 153 
172 7 154 164 62 23 146 155 61 
173 7 162 125 123 177 130 28 52 
174 9 97 16 140 93 125 177 15 83 114 
175 10 149 49 139 39 48 11 141 105 157 156 
176 7 34 117 57 21 110 92 134 
177 9 125 173 52 54 162 28 16 59 97 
178 10 61 155 48 49 139 120 23 149 39 105 
179 11 107 101 59 47 54 90 6 70 95 52 38 
180 5 82 19 6 26 30 
181 10 183 160 146 62 86 118 166 154 164 18 
182 5 124 75 150 9 143 
183 10 181 160 146 62 86 118 166 154 164 18 
DEPOT_SECTION
   1
   -1
EOF
