NAME :  X-n308-kX-w122-c9.cctp
COMMENT : 	Adapted by Maziero, Usberti and Cavellucci from the Uchoa, Pecin, Pessoa, Poggi, Subramanian, and Vidal (2013)
TYPE :  CCTP
DIMENSION :    280
EDGE_WEIGHT_TYPE : 	EUC_2D	
CAPACITY : 	246
VERTICES_WITHIN_COVERAGE :  9
VERTICES_WITH_DEMAND : 	122
NODE_COORD_SECTION
1 0 0
2 706 137
3 392 662
4 692 274
5 944 370
6 726 945
7 869 43
8 621 770
9 112 402
10 523 374
11 619 178
12 553 457
13 95 814
14 696 130
15 27 417
16 940 487
17 943 965
18 670 435
19 931 752
20 307 776
21 404 101
22 199 526
23 117 312
24 762 505
25 433 864
26 868 155
27 832 870
28 488 624
29 686 782
30 585 89
31 268 339
32 248 344
33 22 776
34 89 614
35 75 271
36 882 646
37 6 656
38 449 27
39 857 362
40 809 774
41 403 626
42 559 145
43 667 945
44 524 737
45 683 777
46 641 798
47 514 495
48 102 813
49 517 591
50 748 330
51 859 127
52 699 41
53 281 442
54 257 106
55 116 99
56 41 732
57 555 95
58 378 1
59 155 308
60 942 955
61 619 205
62 646 910
63 796 791
64 785 49
65 958 817
66 424 240
67 311 226
68 37 119
69 761 866
70 404 417
71 929 432
72 743 535
73 418 679
74 107 379
75 329 868
76 22 432
77 24 474
78 380 83
79 145 135
80 576 209
81 877 859
82 901 0
83 464 473
84 181 35
85 976 331
86 672 617
87 324 264
88 193 341
89 525 782
90 527 935
91 218 529
92 48 325
93 431 989
94 626 974
95 594 432
96 757 450
97 805 123
98 959 266
99 348 776
100 409 946
101 458 247
102 841 361
103 333 503
104 675 306
105 407 811
106 418 325
107 856 199
108 300 792
109 371 156
110 163 237
111 172 589
112 609 928
113 273 18
114 379 694
115 996 38
116 4 6
117 738 18
118 693 307
119 989 54
120 468 585
121 594 172
122 563 205
123 271 783
124 58 987
125 374 383
126 775 530
127 913 512
128 413 798
129 813 948
130 943 941
131 437 169
132 247 374
133 347 51
134 8 111
135 321 825
136 854 335
137 619 272
138 742 232
139 496 187
140 605 66
141 973 75
142 241 509
143 845 106
144 451 217
145 955 319
146 432 662
147 704 73
148 418 205
149 817 754
150 570 429
151 362 720
152 114 713
153 11 516
154 737 62
155 697 638
156 343 830
157 159 177
158 386 880
159 493 321
160 366 804
161 655 303
162 633 506
163 522 325
164 541 547
165 378 801
166 89 325
167 76 414
168 514 273
169 378 958
170 690 639
171 222 135
172 233 59
173 248 871
174 356 223
175 38 314
176 118 33
177 359 835
178 36 361
179 340 718
180 682 361
181 82 210
182 293 801
183 249 336
184 232 799
185 102 526
186 87 148
187 664 361
188 656 366
189 537 434
190 696 622
191 330 105
192 621 753
193 401 923
194 159 253
195 552 382
196 364 793
197 271 72
198 804 650
199 29 322
200 213 3
201 598 388
202 243 144
203 273 196
204 623 781
205 107 370
206 516 271
207 432 765
208 62 608
209 55 270
210 841 468
211 616 334
212 221 773
213 79 461
214 186 665
215 165 871
216 608 391
217 349 329
218 227 136
219 17 329
220 559 430
221 387 3
222 12 327
223 149 266
224 100 768
225 567 435
226 110 270
227 304 770
228 739 876
229 61 312
230 71 260
231 215 125
232 481 97
233 289 287
234 65 344
235 413 724
236 362 952
237 107 111
238 188 217
239 300 735
240 401 321
241 734 562
242 259 344
243 705 626
244 783 708
245 159 450
246 543 262
247 373 44
248 483 678
249 704 755
250 30 414
251 353 818
252 385 930
253 683 188
254 163 27
255 3 371
256 138 120
257 342 822
258 577 482
259 524 915
260 348 908
261 695 636
262 856 763
263 216 95
264 47 343
265 256 24
266 365 753
267 24 311
268 614 173
269 534 255
270 357 820
271 284 869
272 554 665
273 201 907
274 629 776
275 264 193
276 339 342
277 47 176
278 67 412
279 206 824
280 154 267
DEMAND_SECTION
2 80
3 94
4 87
5 77
6 77
7 50
8 79
9 86
10 75
11 84
12 88
13 94
14 74
15 95
16 89
17 83
18 55
19 77
20 1
21 7
22 3
23 7
24 5
25 2
26 2
27 2
28 5
29 2
30 7
31 1
32 5
33 5
34 8
35 4
36 2
37 8
38 9
39 1
40 10
41 3
42 10
43 3
44 2
45 3
46 2
47 1
48 5
49 4
50 3
51 4
52 3
53 5
54 3
55 5
56 6
57 9
58 6
59 4
60 2
61 7
62 10
63 2
64 3
65 10
66 8
67 10
68 10
69 4
70 4
71 10
72 7
73 4
74 1
75 4
76 9
77 3
78 10
79 4
80 3
81 10
82 10
83 1
84 6
85 3
86 2
87 8
88 8
89 7
90 3
91 7
92 8
93 6
94 1
95 10
96 10
97 9
98 10
99 10
100 6
101 7
102 6
103 10
104 1
105 3
106 2
107 2
108 2
109 3
110 2
111 1
112 7
113 6
114 5
115 8
116 3
117 3
118 4
119 8
120 2
121 9
122 6
123 3
COVERAGE_SECTION
2 9 14 253 147 154 11 52 268 97 138 
3 9 73 114 41 146 151 235 179 248 266 
4 9 118 104 161 138 137 50 253 180 187 
5 9 85 145 71 39 136 102 98 16 210 
6 9 43 228 69 62 129 94 112 27 29 
7 9 82 143 64 51 97 141 26 119 115 
8 9 274 204 192 46 45 29 249 89 44 
9 9 74 205 167 278 245 213 234 166 250 
10 7 195 163 159 189 220 150 225 
11 9 268 121 61 80 122 253 42 14 137 
12 9 225 189 220 150 258 95 47 195 201 
13 9 48 224 33 215 56 152 279 212 184 
14 9 2 147 253 154 52 11 268 61 97 
15 8 250 76 278 167 255 77 178 213 
16 9 127 71 210 5 39 85 102 36 145 
17 9 60 130 81 129 27 65 69 19 6 
18 9 188 187 180 95 216 162 201 96 150 
19 9 65 262 149 36 81 40 63 27 244 
20 9 227 108 182 123 99 239 135 257 196 
21 9 78 109 247 191 131 133 232 38 221 
22 9 91 142 111 245 185 53 103 213 214 
23 9 166 59 226 223 229 280 35 205 234 
24 7 126 72 96 241 210 18 162 
25 9 158 105 193 128 177 252 165 100 270 
26 9 51 107 143 97 7 141 64 98 138 
27 9 81 69 129 63 228 40 262 149 6 
28 9 49 120 248 146 272 41 73 164 3 
29 9 45 249 46 274 204 8 192 228 63 
30 9 140 57 42 121 268 11 232 14 122 
31 9 242 183 32 132 233 276 88 217 87 
32 8 183 242 31 132 88 233 276 59 
33 9 56 224 13 48 152 37 215 208 34 
34 9 208 111 185 37 152 214 153 56 22 
35 8 230 209 226 229 166 175 23 92 
36 6 198 19 244 262 149 127 
37 9 208 56 34 33 152 153 224 185 111 
38 9 221 58 232 247 21 78 133 57 191 
39 9 102 136 5 71 145 210 50 85 96 
40 9 63 149 262 244 27 69 249 81 29 
41 9 3 146 73 114 120 28 248 235 151 
42 9 121 57 122 30 268 80 11 139 61 
43 9 62 94 6 112 228 69 90 129 259 
44 9 89 248 272 207 192 8 204 235 274 
45 9 29 249 46 274 204 8 192 63 228 
46 9 204 274 8 45 29 192 249 62 89 
47 9 12 83 164 258 189 220 225 150 49 
48 9 13 224 215 33 56 152 279 212 184 
49 9 28 120 164 272 248 47 146 41 258 
50 9 118 180 104 4 187 161 102 138 188 
51 9 143 26 97 107 7 64 141 82 154 
52 9 147 154 117 64 14 2 140 30 97 
53 9 132 142 103 242 32 31 91 125 183 
54 8 197 202 218 263 171 231 172 191 
55 9 237 256 79 186 176 68 254 157 84 
56 9 33 224 152 37 13 48 208 34 214 
57 9 30 42 140 232 121 268 11 139 122 
58 9 221 247 133 38 78 21 113 191 265 
59 9 23 280 223 88 194 226 166 110 205 
60 9 17 130 81 129 27 65 69 19 262 
61 9 11 268 121 80 122 253 137 42 246 
62 9 43 112 94 6 228 46 90 259 69 
63 9 40 149 262 69 244 27 249 228 81 
64 9 154 117 97 143 7 147 52 51 2 
65 9 19 81 262 130 27 60 17 149 40 
66 9 101 144 148 174 131 240 106 139 168 
67 5 87 174 203 275 233 
68 8 134 186 277 237 55 256 181 79 
69 9 228 27 63 6 129 40 29 81 45 
70 9 125 83 106 240 276 217 103 53 10 
71 9 16 5 127 210 39 85 102 145 136 
72 6 241 126 24 96 190 243 
73 9 146 3 114 235 41 248 151 179 207 
74 9 205 9 167 278 234 166 23 264 178 
75 9 156 135 260 177 271 257 251 270 158 
76 9 15 250 77 278 167 213 255 178 153 
77 9 76 153 15 213 250 278 167 185 255 
78 9 21 247 133 191 109 221 58 38 232 
79 7 256 157 237 55 186 231 171 
80 9 122 121 61 268 11 246 269 42 137 
81 9 27 65 262 130 63 40 129 60 69 
82 9 7 115 119 141 143 64 51 97 26 
83 9 47 70 189 12 220 164 225 120 258 
84 9 254 200 172 176 263 265 55 113 256 
85 9 145 5 98 71 136 39 102 16 107 
86 5 190 170 261 155 243 
87 7 67 233 174 217 276 203 275 
88 9 59 32 183 132 242 31 23 280 223 
89 9 44 207 8 204 192 274 248 128 46 
90 9 259 112 94 93 25 100 62 193 43 
91 9 22 142 111 245 53 185 103 214 34 
92 9 175 229 264 199 234 267 219 222 178 
93 9 100 169 193 252 236 90 260 158 259 
94 9 112 43 62 6 90 259 228 69 46 
95 9 150 225 220 216 201 12 258 189 195 
96 9 24 126 72 210 18 241 180 50 102 
97 9 143 51 26 64 154 107 2 7 14 
98 9 145 85 5 107 136 39 26 102 71 
99 9 196 266 160 165 20 251 227 270 257 
100 9 193 252 169 236 93 158 260 25 75 
101 9 144 66 148 168 206 139 269 131 159 
102 9 39 136 50 5 210 71 145 96 85 
103 9 53 142 70 91 125 83 22 41 132 
104 9 118 161 4 180 187 188 211 137 50 
105 9 128 165 160 196 270 207 177 251 25 
106 8 240 217 125 159 276 66 101 70 
107 9 26 51 97 143 138 98 136 145 7 
108 9 182 20 227 123 135 99 257 156 239 
109 9 21 191 131 148 174 78 67 66 144 
110 7 194 280 223 238 157 226 59 
111 9 22 91 214 34 185 142 208 152 245 
112 9 62 94 43 90 259 6 46 228 204 
113 9 265 197 172 200 133 54 84 263 247 
114 9 151 3 73 235 179 266 146 41 99 
115 9 119 141 82 7 51 143 26 97 64 
116 9 134 176 68 55 237 254 186 277 256 
117 9 154 52 64 147 14 2 97 7 143 
118 9 104 4 161 180 50 187 188 137 211 
119 9 115 141 82 7 51 143 26 97 107 
120 9 28 49 41 164 146 248 47 73 3 
121 9 268 11 61 80 42 122 30 57 253 
122 9 80 121 61 269 42 246 268 11 139 
123 9 182 108 227 20 184 212 239 135 99 
124 9 215 273 13 48 33 279 173 224 271 
125 9 70 276 217 240 106 53 31 242 83 
126 6 24 72 241 96 210 243 
127 9 16 71 210 36 126 5 24 39 102 
128 9 105 165 207 160 196 270 251 177 266 
129 9 27 6 69 228 81 60 130 17 43 
130 9 60 17 81 65 129 27 19 69 262 
131 9 148 144 139 109 66 21 101 232 174 
132 9 32 242 183 31 88 53 233 276 217 
133 9 247 78 191 58 221 21 197 113 265 
134 8 68 277 186 237 116 55 181 256 
135 9 257 156 251 270 182 108 177 75 160 
136 9 39 102 5 145 50 85 71 98 210 
137 7 161 211 104 61 4 80 246 
138 9 4 253 118 50 104 2 14 161 107 
139 9 144 131 122 101 42 269 148 80 206 
140 9 30 57 42 52 147 121 268 14 11 
141 9 119 115 82 7 51 26 143 107 97 
142 9 91 22 53 103 245 111 132 185 32 
143 9 51 97 26 7 64 107 154 82 141 
144 9 101 66 148 131 139 168 206 269 174 
145 9 85 5 98 136 39 71 102 107 16 
146 9 73 3 41 248 114 235 28 120 151 
147 9 52 154 14 2 117 64 140 97 253 
148 9 144 66 131 101 174 109 139 21 67 
149 7 40 262 63 244 198 249 19 
150 9 225 220 95 12 189 195 201 258 216 
151 9 179 114 266 235 99 239 3 73 196 
152 9 224 56 214 48 34 13 33 208 37 
153 9 77 76 213 185 15 250 208 278 167 
154 9 147 52 117 64 14 2 97 143 140 
155 5 261 170 243 190 86 
156 9 257 251 177 270 135 160 75 196 165 
157 4 79 238 110 256 
158 9 193 260 25 252 177 75 156 270 100 
159 6 163 168 206 10 106 246 
160 9 196 165 270 251 257 177 99 156 105 
161 8 104 118 4 137 211 187 188 180 
162 9 258 18 95 12 225 150 164 220 72 
163 6 159 10 168 206 195 246 
164 9 49 47 258 120 12 28 162 83 189 
165 9 160 196 270 251 105 128 99 177 257 
166 9 23 229 234 92 264 205 175 35 74 
167 9 278 9 250 74 213 15 205 76 178 
168 6 206 269 246 159 163 101 
169 9 236 252 100 193 260 93 158 75 25 
170 5 261 155 190 243 86 
171 5 218 231 202 263 54 
172 9 197 263 265 54 84 113 200 231 171 
173 9 271 273 279 184 75 182 215 135 123 
174 9 67 87 148 109 66 203 233 144 131 
175 7 199 267 92 229 219 222 264 
176 9 254 84 55 237 256 200 79 263 116 
177 9 270 156 251 257 160 135 165 196 75 
178 7 264 234 255 219 92 199 222 
179 9 151 239 266 114 99 227 20 235 3 
180 9 187 188 104 118 161 211 50 18 216 
181 8 277 230 35 186 209 226 157 110 
182 9 108 123 20 227 135 257 156 99 184 
183 8 32 242 31 132 88 233 276 59 
184 9 212 279 123 182 108 173 20 227 271 
185 9 213 34 208 153 77 111 245 22 167 
186 9 237 277 55 68 256 79 181 157 134 
187 9 188 180 211 104 161 118 216 201 18 
188 9 187 180 211 216 201 104 161 18 118 
189 9 220 12 225 150 195 95 10 258 47 
190 5 243 261 155 170 86 
191 9 78 133 109 197 54 21 247 202 113 
192 9 8 274 204 46 45 29 249 44 89 
193 9 252 100 169 158 236 260 25 93 75 
194 8 280 110 223 238 226 59 23 157 
195 9 10 201 220 150 189 225 216 163 95 
196 9 160 165 99 251 270 257 266 177 156 
197 9 54 172 265 113 263 191 202 231 218 
198 3 244 36 243 
199 6 175 267 219 222 92 264 
200 9 84 265 254 172 113 197 263 176 54 
201 9 216 95 195 150 225 211 220 188 187 
202 4 218 171 231 54 
203 3 275 67 202 
204 9 274 8 46 192 45 29 249 89 44 
205 9 74 9 166 234 167 278 23 264 178 
206 6 168 269 246 163 159 101 
207 9 128 235 105 165 266 196 160 151 99 
208 9 34 37 185 153 111 152 56 214 77 
209 5 230 35 229 175 267 
210 9 127 96 24 126 71 16 39 102 72 
211 7 161 188 187 201 216 137 104 
212 9 184 123 279 182 108 227 20 239 173 
213 9 167 278 77 76 9 15 250 185 245 
214 9 111 152 34 212 224 239 208 22 91 
215 9 273 279 173 48 13 184 212 271 224 
216 9 201 95 150 188 195 211 225 220 187 
217 9 276 240 125 106 87 233 31 242 183 
218 5 171 231 202 54 263 
219 6 222 199 267 175 92 264 
220 9 225 150 189 12 95 195 258 201 216 
221 9 58 247 133 38 78 21 113 191 232 
222 6 219 199 267 175 92 264 
223 9 280 194 110 226 59 23 238 35 230 
224 9 48 13 152 56 33 279 212 215 214 
225 9 150 220 12 95 189 258 195 201 216 
226 9 35 223 230 23 280 194 209 59 166 
227 9 20 108 182 123 239 99 135 179 266 
228 9 69 6 27 62 43 63 129 29 45 
229 9 92 175 166 234 199 264 267 209 35 
230 6 35 209 226 181 229 175 
231 5 171 218 263 202 54 
232 9 57 21 38 131 139 42 78 30 247 
233 8 87 31 183 242 67 32 217 276 
234 9 264 92 166 229 178 175 199 205 219 
235 9 73 114 207 151 266 3 146 179 128 
236 9 169 252 260 100 193 158 93 75 25 
237 9 55 256 186 79 68 176 157 277 134 
238 3 110 194 157 
239 9 227 20 179 123 108 99 151 182 266 
240 9 106 217 276 125 66 159 101 70 87 
241 6 72 126 24 243 190 86 
242 9 31 32 183 132 233 88 276 217 53 
243 5 190 155 261 170 86 
244 4 149 198 40 63 
245 9 9 213 22 74 167 185 205 91 278 
246 5 269 206 168 122 80 
247 9 133 78 58 221 21 191 38 113 197 
248 9 146 28 73 44 272 235 3 49 120 
249 8 45 29 46 274 192 8 204 244 
250 9 15 76 278 167 255 178 77 213 264 
251 9 270 257 156 177 160 196 165 135 99 
252 9 193 100 169 236 260 158 93 25 75 
253 9 2 14 11 61 268 138 4 121 137 
254 9 84 176 200 172 55 263 265 256 237 
255 7 178 219 222 250 15 264 199 
256 8 79 55 237 186 157 231 263 171 
257 9 156 251 270 135 177 160 196 165 99 
258 9 12 225 95 150 220 162 189 47 164 
259 9 90 112 25 94 93 100 62 193 89 
260 9 252 75 236 158 193 169 100 177 271 
261 5 155 170 190 243 86 
262 9 149 40 63 19 244 81 27 65 36 
263 7 231 171 172 54 218 202 197 
264 8 92 234 178 199 175 219 229 222 
265 9 113 172 200 197 84 263 54 254 133 
266 9 99 151 196 179 165 160 235 114 20 
267 5 199 175 219 222 92 
268 9 11 121 61 80 122 42 253 30 14 
269 5 246 206 168 122 80 
270 9 251 177 257 156 160 165 196 135 99 
271 9 173 75 135 182 156 257 260 108 177 
272 9 248 28 44 49 192 120 164 89 146 
273 9 215 173 279 271 184 75 212 48 182 
274 9 204 8 192 46 45 29 249 89 44 
275 3 203 202 67 
276 9 217 125 240 31 233 87 242 106 183 
277 7 181 186 68 134 230 237 209 
278 9 167 250 15 9 76 213 74 205 178 
279 9 184 212 215 173 123 273 182 271 108 
280 9 223 194 110 59 226 23 238 35 230 
DEPOT_SECTION
   1
   -1
EOF
