NAME :  X-n313-kX-w62-c11.cctp
COMMENT : 	Adapted by Maziero, Usberti and Cavellucci from the Uchoa, Pecin, Pessoa, Poggi, Subramanian, and Vidal (2013)
TYPE :  CCTP
DIMENSION :    249
EDGE_WEIGHT_TYPE : 	EUC_2D	
CAPACITY : 	248
VERTICES_WITHIN_COVERAGE :  11
VERTICES_WITH_DEMAND : 	62
NODE_COORD_SECTION
1 471 44
2 63 475
3 766 504
4 895 595
5 816 377
6 462 590
7 997 596
8 775 993
9 16 97
10 839 348
11 558 896
12 423 912
13 169 411
14 75 602
15 402 52
16 388 208
17 202 39
18 510 841
19 555 484
20 920 633
21 369 718
22 432 696
23 624 872
24 472 323
25 753 701
26 584 440
27 292 665
28 202 310
29 764 255
30 662 486
31 822 575
32 469 13
33 640 165
34 814 886
35 554 82
36 336 745
37 950 229
38 142 835
39 407 932
40 69 205
41 86 764
42 202 165
43 376 632
44 639 987
45 775 98
46 503 855
47 38 960
48 215 73
49 566 78
50 4 517
51 44 457
52 676 337
53 338 568
54 623 911
55 626 931
56 97 43
57 799 942
58 725 430
59 93 953
60 264 347
61 986 595
62 631 614
63 331 362
64 158 793
65 760 436
66 115 641
67 307 764
68 469 817
69 315 388
70 906 830
71 564 25
72 88 246
73 671 892
74 181 139
75 609 798
76 174 403
77 76 671
78 984 939
79 830 579
80 3 893
81 176 164
82 625 158
83 249 590
84 663 347
85 21 500
86 501 372
87 572 218
88 483 270
89 604 201
90 548 281
91 205 745
92 870 931
93 276 846
94 759 839
95 79 105
96 218 992
97 277 797
98 545 62
99 1 827
100 719 128
101 80 366
102 16 732
103 24 521
104 848 600
105 585 594
106 618 577
107 44 300
108 489 239
109 768 731
110 274 30
111 546 837
112 890 640
113 594 308
114 878 716
115 498 448
116 54 935
117 473 5
118 906 899
119 277 752
120 435 254
121 630 686
122 905 275
123 521 401
124 850 425
125 374 186
126 712 433
127 814 730
128 681 74
129 120 490
130 297 816
131 376 534
132 982 560
133 1 332
134 815 625
135 356 868
136 659 994
137 804 110
138 415 517
139 106 844
140 549 366
141 57 742
142 381 700
143 867 408
144 67 930
145 763 186
146 581 91
147 416 56
148 729 620
149 163 73
150 314 748
151 580 852
152 464 768
153 718 885
154 758 736
155 489 891
156 110 40
157 279 995
158 181 234
159 49 83
160 945 830
161 285 233
162 440 768
163 205 96
164 505 113
165 491 864
166 168 63
167 1 235
168 173 235
169 733 735
170 449 717
171 241 173
172 466 981
173 222 115
174 433 647
175 425 754
176 393 883
177 247 104
178 673 627
179 811 550
180 60 207
181 477 879
182 814 654
183 717 660
184 247 178
185 635 947
186 335 108
187 16 241
188 539 903
189 511 845
190 637 586
191 196 132
192 491 886
193 113 192
194 655 666
195 35 140
196 845 818
197 764 630
198 124 65
199 320 660
200 599 809
201 881 701
202 417 880
203 629 972
204 149 77
205 58 45
206 212 89
207 499 821
208 80 162
209 412 963
210 637 812
211 689 881
212 518 897
213 516 903
214 51 208
215 481 843
216 737 665
217 566 790
218 448 906
219 210 251
220 490 816
221 624 845
222 558 674
223 843 646
224 454 855
225 536 845
226 450 944
227 484 809
228 726 736
229 778 845
230 118 296
231 416 911
232 656 825
233 244 245
234 378 177
235 585 960
236 348 762
237 302 277
238 453 867
239 244 146
240 672 914
241 381 465
242 484 875
243 565 560
244 681 611
245 575 804
246 65 87
247 193 132
248 77 212
249 569 802
DEMAND_SECTION
2 94
3 56
4 73
5 25
6 4
7 97
8 82
9 57
10 41
11 98
12 45
13 86
14 5
15 83
16 99
17 78
18 64
19 44
20 69
21 25
22 44
23 64
24 59
25 72
26 10
27 26
28 56
29 1
30 41
31 69
32 62
33 29
34 77
35 20
36 46
37 47
38 19
39 48
40 95
41 21
42 56
43 13
44 79
45 21
46 66
47 2
48 61
49 2
50 21
51 51
52 33
53 43
54 55
55 89
56 54
57 62
58 41
59 49
60 71
61 100
62 67
63 64
COVERAGE_SECTION
2 11 51 85 129 103 50 101 13 14 76 133 66 
3 8 179 65 58 126 31 79 30 124 
4 11 20 112 104 79 223 31 134 61 132 179 182 
5 11 10 124 143 65 58 126 29 122 3 52 84 
6 11 174 138 43 131 243 22 105 53 170 222 142 
7 11 61 132 20 4 112 104 201 223 79 114 31 
8 11 57 92 34 136 153 240 44 211 73 185 203 
9 11 159 195 246 95 205 208 56 156 198 214 180 
10 11 5 143 124 122 65 29 58 126 37 52 3 
11 9 188 212 213 151 225 111 54 192 46 
12 9 231 39 218 202 176 226 209 238 181 
13 11 76 129 101 28 60 2 230 51 69 219 107 
14 11 66 77 103 50 85 129 2 141 102 51 41 
15 11 147 32 117 186 164 234 110 125 98 35 16 
16 11 125 234 120 108 161 237 88 186 24 184 233 
17 9 48 166 206 149 163 204 110 173 177 
18 11 189 46 207 225 215 165 220 111 227 242 68 
19 11 26 115 243 123 30 106 105 140 86 190 6 
20 11 112 4 61 201 223 104 7 114 132 79 134 
21 11 142 36 236 150 22 175 199 67 170 43 162 
22 11 170 174 142 175 21 162 152 43 236 36 6 
23 11 221 54 151 73 232 55 210 240 211 200 11 
24 11 88 86 120 108 90 140 123 113 115 16 87 
25 6 109 154 169 216 228 183 
26 11 19 123 140 115 30 86 243 84 126 113 52 
27 11 199 83 150 119 43 36 21 142 67 53 236 
28 11 219 60 233 158 168 230 76 237 13 161 72 
29 11 145 10 52 5 100 84 122 137 33 45 82 
30 11 126 58 26 106 190 3 19 65 243 244 62 
31 10 79 179 104 134 223 4 182 197 3 112 
32 11 117 147 15 98 71 164 35 49 146 186 234 
33 11 82 89 87 100 146 128 49 35 145 98 164 
34 8 229 57 92 94 196 118 153 70 
35 11 49 98 146 71 164 82 32 117 33 128 89 
36 11 236 150 67 21 119 142 97 130 199 175 27 
37 11 122 10 29 137 145 143 5 45 124 100 65 
38 11 139 64 41 91 144 141 59 116 93 97 99 
39 7 231 12 209 226 218 176 202 
40 7 180 248 214 208 72 193 187 
41 11 141 102 64 139 38 77 99 91 66 80 14 
42 7 81 74 191 247 171 239 184 
43 11 174 199 142 53 22 21 27 6 131 170 36 
44 10 203 136 185 55 235 54 240 73 23 211 
45 11 137 100 145 128 33 29 82 146 89 49 37 
46 11 189 165 18 215 242 192 207 225 181 155 220 
47 11 116 144 59 80 139 99 38 96 41 64 141 
48 9 206 163 17 173 177 166 149 191 247 
49 11 35 146 98 71 164 82 33 128 32 117 89 
50 11 103 85 2 51 14 129 66 101 77 133 13 
51 11 2 85 103 50 129 101 133 13 76 14 107 
52 11 84 113 126 58 29 65 140 26 90 5 30 
53 11 131 43 83 138 199 27 241 174 6 142 21 
54 11 55 185 23 240 73 203 235 221 11 211 151 
55 11 185 54 203 240 235 44 23 73 136 11 211 
56 9 156 198 205 246 159 204 95 149 166 
57 10 8 34 92 153 229 94 118 211 240 196 
58 11 126 65 30 3 84 5 52 124 10 26 143 
59 11 144 116 47 80 139 38 96 99 64 41 157 
60 11 69 63 28 237 233 76 219 13 161 158 168 
61 11 7 132 20 4 112 104 201 223 79 114 31 
62 7 190 106 178 105 244 194 121 
63 11 69 60 237 241 161 28 24 233 120 76 16 
64 11 38 91 139 41 141 97 119 93 130 77 67 
65 11 58 126 3 5 124 30 143 10 179 52 84 
66 11 77 14 141 41 102 91 83 103 129 64 50 
67 9 150 119 36 236 97 130 21 93 142 
68 10 227 220 215 207 224 18 152 189 46 165 
69 11 63 60 241 237 28 76 13 131 161 233 138 
70 6 160 196 118 92 34 114 
71 11 98 49 35 146 117 32 164 128 82 147 33 
72 8 248 40 180 214 230 193 107 187 
73 10 211 240 153 23 54 55 185 221 232 210 
74 4 247 191 81 42 
75 10 200 210 245 249 217 221 232 151 111 23 
76 11 13 28 101 129 60 230 2 51 69 219 63 
77 11 66 14 141 102 41 64 91 103 50 99 139 
78 9 118 92 160 70 34 196 57 8 229 
79 10 31 104 179 134 4 223 182 197 112 3 
80 11 99 116 144 47 59 139 38 41 141 102 64 
81 4 74 42 247 191 
82 11 33 89 87 146 49 100 128 35 98 164 145 
83 11 27 53 199 43 131 66 91 129 119 150 142 
84 11 52 113 126 58 140 26 65 90 29 30 123 
85 11 103 50 2 51 129 14 101 66 133 13 77 
86 11 123 140 24 115 90 88 26 113 19 108 120 
87 11 89 90 82 33 108 113 88 164 146 35 49 
88 11 108 120 24 90 87 86 16 140 113 123 125 
89 11 87 82 33 90 113 146 108 35 49 164 100 
90 11 113 88 87 108 140 24 89 86 120 123 84 
91 11 64 119 97 67 150 38 130 27 41 93 36 
92 10 118 34 57 70 8 78 196 160 229 94 
93 8 130 97 135 67 119 150 236 36 
94 4 229 153 34 211 
95 9 246 159 195 208 198 9 205 56 156 
96 9 157 59 93 144 38 116 47 135 139 
97 9 130 67 119 93 150 36 236 91 135 
98 11 35 49 71 146 164 32 117 82 147 128 33 
99 11 80 102 141 41 139 116 144 47 38 59 64 
100 11 45 128 145 33 137 82 29 89 146 49 35 
101 11 107 230 133 51 13 76 2 72 129 28 187 
102 11 141 41 77 99 66 14 139 64 80 38 91 
103 11 50 85 2 51 14 129 66 77 101 13 133 
104 11 79 31 134 223 4 112 179 182 20 197 201 
105 9 106 243 62 190 222 178 244 194 121 
106 9 190 105 62 243 244 178 194 30 121 
107 11 133 187 72 230 101 167 214 180 248 40 193 
108 11 88 120 90 24 87 16 89 113 125 164 234 
109 5 154 25 169 228 127 
110 11 17 48 177 206 163 186 173 166 149 239 191 
111 11 225 18 189 151 249 245 46 207 217 11 200 
112 10 20 4 223 104 201 134 114 182 79 31 
113 11 90 140 84 52 87 89 86 88 123 24 108 
114 6 201 127 112 223 182 20 
115 11 123 19 86 26 140 138 241 24 243 6 131 
116 11 144 47 59 80 139 99 38 41 96 64 141 
117 11 32 147 15 98 71 35 164 49 146 186 234 
118 8 92 70 160 78 34 196 57 229 
119 11 67 150 97 36 130 91 236 27 93 21 199 
120 11 88 108 16 24 125 234 90 86 237 87 63 
121 2 194 62 
122 11 37 10 5 143 29 124 145 137 65 45 52 
123 11 86 140 115 26 19 24 113 90 88 84 241 
124 11 143 5 10 65 3 58 179 126 31 79 122 
125 11 234 16 186 120 161 237 108 184 171 239 15 
126 11 58 65 30 3 84 52 5 26 124 10 179 
127 6 109 154 114 25 201 182 
128 11 100 45 33 82 146 49 35 71 137 98 145 
129 11 2 51 13 85 103 76 50 14 101 66 83 
130 8 97 93 67 119 150 236 135 36 
131 11 138 53 241 43 6 174 199 83 115 27 69 
132 11 61 7 4 20 112 104 79 31 223 179 201 
133 11 107 101 187 167 72 230 51 214 180 248 40 
134 9 182 223 104 79 31 197 179 112 4 
135 7 176 202 231 130 12 39 93 
136 11 44 203 185 55 235 240 54 73 8 211 153 
137 11 45 145 100 128 29 33 82 37 122 89 146 
138 11 131 241 6 53 115 43 174 19 243 123 69 
139 11 38 64 41 144 116 99 59 141 80 47 91 
140 11 123 86 113 26 90 24 115 84 88 19 52 
141 11 41 102 77 99 64 139 66 38 14 91 80 
142 11 21 22 36 43 170 175 236 199 174 150 162 
143 11 124 5 10 65 122 3 58 179 126 31 79 
144 11 116 59 47 80 139 38 99 96 64 41 141 
145 11 29 100 137 45 33 128 82 89 122 52 10 
146 11 49 35 98 71 164 82 33 128 89 87 32 
147 11 15 32 117 186 164 234 98 125 35 110 71 
148 6 197 183 216 244 178 25 
149 7 166 204 198 163 17 48 206 
150 10 67 36 119 236 97 21 130 142 27 199 
151 11 111 221 225 200 23 245 11 249 75 217 188 
152 9 162 175 227 68 170 220 207 215 22 
153 8 211 73 240 94 229 232 23 34 
154 5 109 169 228 25 127 
155 7 192 181 242 165 212 213 46 
156 9 56 198 205 204 149 166 246 95 159 
157 9 96 209 39 93 135 176 231 12 226 
158 7 168 219 233 81 42 28 193 
159 9 246 9 95 205 195 56 156 198 208 
160 7 70 118 196 78 92 114 34 
161 11 233 237 184 171 219 239 125 158 16 42 234 
162 9 175 152 170 68 227 220 22 207 215 
163 9 206 48 173 191 247 177 149 74 166 
164 11 35 98 49 146 32 71 147 117 15 87 108 
165 10 242 46 181 192 215 155 189 18 224 238 
166 8 149 204 17 198 48 163 206 156 
167 11 187 214 180 40 107 248 72 133 195 208 193 
168 7 158 219 81 233 193 42 28 
169 4 228 154 109 25 
170 9 22 175 162 152 142 174 21 227 68 
171 11 184 239 42 173 191 247 81 74 177 233 161 
172 3 226 209 39 
173 9 163 177 206 191 247 239 48 74 42 
174 11 22 43 6 170 142 21 175 199 162 53 152 
175 9 162 152 170 22 21 142 68 236 227 
176 8 202 231 135 12 39 218 238 224 
177 10 173 206 239 163 48 191 247 171 184 74 
178 6 244 194 62 183 190 148 
179 9 31 79 104 3 134 197 4 223 182 
180 8 40 214 248 72 208 193 187 167 
181 9 242 192 155 165 238 224 46 215 218 
182 10 134 223 197 104 127 25 79 112 216 31 
183 5 216 148 25 178 197 
184 11 171 239 42 161 233 173 191 247 81 177 74 
185 11 55 203 54 44 240 235 136 73 23 211 11 
186 11 234 15 125 177 147 110 239 184 16 173 171 
187 11 167 214 180 40 107 248 72 133 208 195 193 
188 9 11 212 213 155 192 225 46 165 242 
189 11 18 46 225 207 165 215 111 220 242 227 192 
190 9 106 62 244 105 178 243 194 148 121 
191 6 247 74 173 42 163 81 
192 8 155 242 181 165 212 213 46 238 
193 4 248 208 40 180 
194 3 121 178 62 
195 9 9 208 95 159 246 214 180 40 248 
196 5 70 229 34 94 127 
197 7 148 216 134 182 183 25 31 
198 8 204 156 56 149 166 95 246 205 
199 11 27 43 142 21 36 150 53 83 119 67 236 
200 10 75 245 249 210 217 221 151 232 111 23 
201 7 114 112 223 127 20 182 134 
202 8 176 231 12 238 218 224 39 181 
203 10 44 185 136 55 235 54 240 73 23 11 
204 6 149 166 198 156 163 56 
205 9 56 159 246 156 95 9 198 204 195 
206 9 163 48 173 177 191 247 17 166 149 
207 11 220 227 18 189 215 68 46 165 225 111 224 
208 7 40 193 180 195 248 214 95 
209 6 39 226 12 231 172 218 
210 9 232 75 221 200 23 245 249 151 217 
211 9 73 153 240 232 23 54 221 55 94 
212 9 213 188 192 155 11 242 165 46 181 
213 8 212 188 155 192 11 242 165 181 
214 9 180 40 248 187 72 208 167 193 195 
215 11 165 46 207 220 18 68 189 224 242 227 181 
216 4 183 25 197 148 
217 10 249 245 200 75 111 225 151 207 210 18 
218 7 12 231 226 238 181 202 155 
219 9 158 233 168 28 161 184 171 42 81 
220 10 227 207 68 215 18 189 46 165 224 225 
221 11 23 210 232 200 151 75 245 54 73 249 211 
222 5 121 105 62 194 106 
223 11 182 134 104 112 201 79 4 31 20 114 197 
224 9 238 215 181 242 165 68 202 192 46 
225 11 111 189 18 46 207 151 165 220 249 212 215 
226 6 218 172 12 209 39 231 
227 10 220 68 207 215 18 189 152 46 165 224 
228 4 169 154 109 25 
229 4 94 34 153 196 
230 11 72 107 101 168 28 158 248 219 40 193 180 
231 9 12 39 202 218 176 226 209 238 224 
232 7 210 221 75 23 200 211 73 
233 11 219 161 158 237 184 168 171 28 42 239 60 
234 11 125 16 186 120 161 237 15 108 147 184 171 
235 10 203 55 185 44 54 11 188 136 213 212 
236 9 36 150 67 21 142 119 130 175 97 
237 11 161 233 60 63 219 28 16 69 184 125 171 
238 10 224 181 242 215 165 202 218 192 155 46 
239 10 171 184 173 177 42 191 247 74 163 206 
240 10 73 211 54 55 185 153 23 203 44 136 
241 11 138 131 69 53 63 115 6 86 123 60 43 
242 9 181 165 192 155 46 215 238 224 189 
243 11 105 106 19 190 62 6 222 26 30 178 244 
244 6 178 148 62 190 183 194 
245 10 249 217 200 75 111 151 225 210 221 18 
246 9 159 95 205 9 56 195 198 156 208 
247 6 191 74 42 173 81 163 
248 7 40 180 214 72 193 208 187 
249 10 245 217 200 75 111 151 225 210 221 18 
DEPOT_SECTION
   1
   -1
EOF
