NAME :  X-n327-kX-w130-c9.cctp
COMMENT : 	Adapted by Maziero, Usberti and Cavellucci from the Uchoa, Pecin, Pessoa, Poggi, Subramanian, and Vidal (2013)
TYPE :  CCTP
DIMENSION :    312
EDGE_WEIGHT_TYPE : 	EUC_2D	
CAPACITY : 	128
VERTICES_WITHIN_COVERAGE :  9
VERTICES_WITH_DEMAND : 	130
NODE_COORD_SECTION
1 236 951
2 735 289
3 841 735
4 846 821
5 907 810
6 55 136
7 372 422
8 437 584
9 509 822
10 57 519
11 563 333
12 750 8
13 644 692
14 123 787
15 865 618
16 833 453
17 736 643
18 90 930
19 804 192
20 435 164
21 540 911
22 747 80
23 486 239
24 511 784
25 639 247
26 337 11
27 95 706
28 719 839
29 943 421
30 55 633
31 396 807
32 916 252
33 191 716
34 552 500
35 226 520
36 666 833
37 450 431
38 427 307
39 4 89
40 736 784
41 615 382
42 739 386
43 229 527
44 594 197
45 910 398
46 492 214
47 974 107
48 914 556
49 384 827
50 151 908
51 390 873
52 70 232
53 418 29
54 128 721
55 211 129
56 641 993
57 220 883
58 293 551
59 244 952
60 910 489
61 324 280
62 466 437
63 879 676
64 359 770
65 95 631
66 920 56
67 577 407
68 178 769
69 225 359
70 882 228
71 385 516
72 759 814
73 234 405
74 33 412
75 423 135
76 194 121
77 970 723
78 6 206
79 392 669
80 782 300
81 107 786
82 889 855
83 68 280
84 522 848
85 653 78
86 719 736
87 809 404
88 620 655
89 439 605
90 990 874
91 46 236
92 980 500
93 625 383
94 146 430
95 795 241
96 714 554
97 200 946
98 89 207
99 144 648
100 633 877
101 482 843
102 670 150
103 763 951
104 755 922
105 615 139
106 192 844
107 396 409
108 799 30
109 72 916
110 917 12
111 370 551
112 686 937
113 156 769
114 553 21
115 86 666
116 42 261
117 494 309
118 767 378
119 528 311
120 697 21
121 545 665
122 675 228
123 752 812
124 180 120
125 94 979
126 348 861
127 397 753
128 229 855
129 756 910
130 311 203
131 177 491
132 280 408
133 470 132
134 40 324
135 386 644
136 975 360
137 9 836
138 466 934
139 397 598
140 658 175
141 470 227
142 472 882
143 157 4
144 876 714
145 780 25
146 394 658
147 697 278
148 879 723
149 192 970
150 522 896
151 620 103
152 122 342
153 790 311
154 599 866
155 611 927
156 761 602
157 983 317
158 320 981
159 933 461
160 156 922
161 10 773
162 834 293
163 926 186
164 370 613
165 440 477
166 243 999
167 508 847
168 669 376
169 666 745
170 103 931
171 676 953
172 54 978
173 687 958
174 490 478
175 739 920
176 753 305
177 109 937
178 15 915
179 404 490
180 602 738
181 724 965
182 348 565
183 688 798
184 632 674
185 40 982
186 223 946
187 464 945
188 408 367
189 530 770
190 924 692
191 428 765
192 358 485
193 565 728
194 443 295
195 66 938
196 716 347
197 495 763
198 36 884
199 74 958
200 719 301
201 698 823
202 816 412
203 292 364
204 565 958
205 429 532
206 79 947
207 609 887
208 664 939
209 17 996
210 328 988
211 742 358
212 659 374
213 622 546
214 850 978
215 230 964
216 622 900
217 195 917
218 559 938
219 496 961
220 469 485
221 135 944
222 338 907
223 700 752
224 176 858
225 457 356
226 133 940
227 531 327
228 656 685
229 215 828
230 257 995
231 308 625
232 552 995
233 689 723
234 244 517
235 615 185
236 174 911
237 645 998
238 668 409
239 461 850
240 605 496
241 447 815
242 643 652
243 281 970
244 544 649
245 681 805
246 237 976
247 592 381
248 239 911
249 749 816
250 446 458
251 49 965
252 705 802
253 644 796
254 249 978
255 858 374
256 676 925
257 107 882
258 221 974
259 44 884
260 341 985
261 587 702
262 408 941
263 689 379
264 520 846
265 367 393
266 457 261
267 613 339
268 299 819
269 670 272
270 584 832
271 205 968
272 720 840
273 81 862
274 437 430
275 443 557
276 228 890
277 707 458
278 365 855
279 677 345
280 527 416
281 224 929
282 298 869
283 524 758
284 624 918
285 115 966
286 235 882
287 391 446
288 554 866
289 756 921
290 464 857
291 547 966
292 721 823
293 415 525
294 632 720
295 481 524
296 603 286
297 774 753
298 527 935
299 726 979
300 584 437
301 846 221
302 683 751
303 732 271
304 753 935
305 76 975
306 564 787
307 310 420
308 406 463
309 880 364
310 559 849
311 706 472
312 397 449
DEMAND_SECTION
2 6
3 10
4 8
5 5
6 6
7 9
8 8
9 6
10 7
11 10
12 8
13 6
14 10
15 6
16 7
17 6
18 9
19 8
20 10
21 10
22 9
23 9
24 9
25 7
26 7
27 8
28 7
29 5
30 5
31 7
32 9
33 6
34 9
35 10
36 9
37 8
38 8
39 5
40 5
41 8
42 5
43 10
44 7
45 8
46 7
47 6
48 5
49 9
50 8
51 10
52 5
53 5
54 7
55 5
56 8
57 10
58 8
59 9
60 9
61 5
62 6
63 6
64 5
65 9
66 9
67 6
68 8
69 9
70 10
71 5
72 9
73 5
74 10
75 7
76 7
77 6
78 10
79 10
80 5
81 6
82 10
83 8
84 5
85 7
86 5
87 5
88 5
89 7
90 7
91 9
92 10
93 9
94 6
95 6
96 10
97 7
98 6
99 10
100 8
101 5
102 8
103 6
104 8
105 6
106 9
107 10
108 10
109 8
110 10
111 7
112 6
113 6
114 5
115 8
116 7
117 8
118 8
119 7
120 6
121 7
122 9
123 7
124 7
125 5
126 6
127 5
128 9
129 5
130 8
131 5
COVERAGE_SECTION
2 9 303 200 176 147 80 153 196 269 211 
3 9 148 144 297 63 4 190 5 72 40 
4 9 82 5 3 72 123 249 297 148 144 
5 9 82 4 148 3 144 90 77 190 63 
6 9 39 98 78 52 91 116 124 76 83 
7 9 107 265 287 312 308 307 192 274 188 
8 9 89 275 139 205 293 164 295 111 135 
9 9 167 264 84 101 24 189 239 290 310 
10 9 74 30 65 131 94 115 99 35 43 
11 9 227 119 267 247 296 41 117 67 93 
12 9 145 108 120 22 85 151 102 110 66 
13 9 228 184 294 242 88 233 169 261 180 
14 9 81 113 68 54 27 273 106 224 257 
15 9 63 48 190 144 156 148 3 17 60 
16 9 202 87 255 60 45 118 159 309 29 
17 9 156 228 96 233 242 86 13 184 223 
18 9 170 177 206 109 195 199 226 285 221 
19 9 95 301 70 162 303 80 2 153 163 
20 9 75 133 141 46 23 266 130 194 53 
21 9 150 298 218 288 204 291 310 84 219 
22 9 145 12 108 120 85 102 19 151 140 
23 9 141 46 266 117 194 119 38 20 227 
24 9 189 197 283 9 306 167 264 84 101 
25 9 269 122 296 147 235 44 140 267 303 
26 9 53 75 55 76 133 143 20 124 130 
27 9 54 115 65 99 81 30 14 113 33 
28 9 272 292 201 249 252 123 72 183 245 
29 9 45 159 136 60 309 92 255 157 16 
30 9 65 115 27 99 10 54 161 33 81 
31 9 49 64 241 191 127 278 51 126 239 
32 9 70 163 301 162 157 309 95 136 19 
33 9 68 54 113 99 27 14 81 229 115 
34 9 240 174 300 295 213 220 280 67 62 
35 9 43 234 131 58 73 94 132 182 307 
36 9 245 201 183 253 252 28 272 100 292 
37 9 274 62 250 165 308 312 220 107 287 
38 9 194 266 225 188 117 23 141 119 265 
39 9 6 78 98 91 52 143 116 124 76 
40 8 123 249 252 72 292 223 297 183 
41 8 93 247 267 67 212 168 238 300 
42 6 211 118 196 263 168 87 
43 9 35 234 131 58 73 182 231 94 132 
44 9 235 105 25 140 122 102 296 151 46 
45 9 29 309 255 159 136 60 16 202 87 
46 9 23 141 266 20 133 117 194 44 119 
47 9 66 163 110 70 32 301 19 108 157 
48 9 60 15 92 159 63 16 190 29 45 
49 9 31 278 51 126 64 241 127 191 239 
50 9 160 236 226 221 217 177 257 170 224 
51 9 278 126 49 222 31 262 239 290 241 
52 9 91 98 116 83 78 6 134 152 39 
53 9 26 75 133 114 20 46 130 141 151 
54 9 27 113 33 14 81 68 115 99 65 
55 9 76 124 130 143 98 6 26 52 61 
56 9 237 171 173 208 112 155 256 284 204 
57 9 276 286 128 248 217 281 106 224 236 
58 9 182 234 43 35 231 111 192 71 164 
59 9 215 186 246 254 281 258 243 248 271 
60 9 159 48 92 29 16 45 202 255 309 
61 9 130 203 38 194 188 265 69 266 132 
62 9 37 250 274 165 174 220 280 308 312 
63 9 144 148 190 15 3 77 48 297 5 
64 9 127 31 49 191 268 278 126 241 79 
65 9 115 30 99 27 54 10 33 113 81 
66 9 110 47 108 163 145 22 70 12 19 
67 8 247 300 41 280 93 11 267 212 
68 9 113 33 14 54 229 81 106 224 128 
69 9 73 203 132 152 307 94 61 131 265 
70 9 301 32 163 162 19 95 80 153 157 
71 9 293 179 111 192 205 308 182 165 312 
72 9 123 249 40 292 28 272 252 201 297 
73 9 132 69 203 307 94 131 234 35 43 
74 9 134 10 152 94 83 116 131 91 52 
75 9 20 133 141 46 53 23 130 266 26 
76 9 124 55 143 98 6 130 52 26 91 
77 9 190 148 144 63 5 3 15 90 82 
78 9 91 116 52 98 6 83 39 134 152 
79 9 146 135 164 139 89 127 231 8 191 
80 9 153 176 2 162 303 95 200 211 118 
81 9 14 113 54 68 273 27 257 161 224 
82 9 5 4 90 3 214 148 72 144 123 
83 9 116 52 91 134 98 152 78 74 6 
84 9 264 167 9 288 310 101 150 290 142 
85 9 151 105 120 102 22 140 235 114 12 
86 7 223 233 302 40 169 297 252 
87 9 202 118 16 255 42 211 309 153 45 
88 9 184 242 13 228 261 294 121 244 180 
89 9 8 139 275 135 164 146 205 79 293 
90 9 82 5 77 4 214 148 190 144 3 
91 9 52 116 83 78 98 134 6 152 39 
92 9 159 60 29 48 45 136 16 15 309 
93 7 41 247 212 168 267 238 67 
94 9 131 73 152 69 74 35 10 43 234 
95 9 19 301 80 162 153 303 2 176 70 
96 7 156 311 17 213 277 242 240 
97 9 186 271 149 217 281 215 258 59 236 
98 9 52 91 116 83 6 78 124 134 76 
99 9 65 115 54 27 33 30 113 68 14 
100 9 216 207 154 284 36 155 256 270 208 
101 9 239 290 167 9 264 84 142 241 24 
102 9 140 105 235 151 85 122 44 25 22 
103 9 304 104 289 175 181 129 299 173 112 
104 9 289 129 304 175 103 181 299 112 173 
105 9 151 235 102 140 44 85 122 25 114 
106 9 224 229 128 57 286 276 236 217 50 
107 9 7 265 287 312 188 274 308 37 250 
108 9 145 12 22 120 110 66 85 19 102 
109 9 18 195 206 170 199 177 259 198 257 
110 9 66 47 108 145 12 163 22 19 70 
111 9 182 71 293 139 164 205 192 179 275 
112 9 256 171 173 208 181 175 299 284 304 
113 9 68 14 81 54 33 106 229 27 224 
114 9 151 85 105 53 133 120 75 102 235 
115 9 65 27 30 99 54 33 81 113 14 
116 9 91 83 52 134 78 98 152 6 74 
117 9 119 227 194 225 266 38 23 11 141 
118 9 42 211 87 196 202 153 176 263 80 
119 9 227 117 11 296 23 225 194 266 267 
120 9 12 85 22 145 108 151 102 105 114 
121 9 244 261 193 88 184 180 283 242 13 
122 9 25 269 147 140 303 235 102 200 2 
123 9 249 72 40 292 28 272 252 201 297 
124 9 76 55 143 6 98 130 52 91 39 
125 9 305 285 199 206 172 177 251 18 170 
126 9 278 51 222 49 282 268 31 64 262 
127 9 191 64 31 49 241 79 146 197 278 
128 9 286 57 229 276 106 224 248 282 217 
129 9 289 104 175 304 103 181 112 299 272 
130 9 61 55 20 75 76 124 38 266 141 
131 9 35 43 94 234 73 10 58 132 69 
132 9 307 73 203 69 265 7 192 234 107 
133 9 20 75 46 141 23 53 266 114 44 
134 9 83 116 152 74 91 52 78 98 94 
135 9 146 79 164 139 89 8 231 182 111 
136 9 157 29 45 309 159 255 32 92 60 
137 9 198 259 161 273 178 109 257 81 195 
138 7 187 219 142 262 298 150 21 
139 9 164 8 89 135 111 182 146 275 79 
140 9 102 235 105 122 44 25 151 85 269 
141 9 23 46 266 20 194 117 38 133 119 
142 9 290 239 101 167 138 150 84 264 187 
143 9 124 76 55 6 39 26 98 52 78 
144 9 148 63 3 190 77 15 5 297 4 
145 9 108 12 22 120 85 110 66 102 19 
146 9 79 135 164 139 89 8 231 127 182 
147 9 269 200 303 2 122 176 25 279 196 
148 9 144 3 63 190 5 77 4 15 297 
149 7 271 97 258 215 186 246 281 
150 9 21 298 288 84 264 167 142 218 310 
151 9 105 85 102 140 235 44 114 120 22 
152 9 83 134 94 69 74 116 52 73 91 
153 9 80 176 162 2 211 95 303 118 200 
154 9 207 100 270 216 310 288 284 155 21 
155 9 284 216 207 218 208 100 204 154 256 
156 9 17 96 15 242 228 63 86 233 311 
157 9 136 32 45 29 309 70 255 163 162 
158 9 210 260 243 230 254 222 166 59 246 
159 9 60 29 92 45 48 16 136 309 255 
160 9 50 236 226 221 217 177 97 170 149 
161 9 137 81 27 14 198 273 259 54 115 
162 9 153 80 95 301 70 176 255 309 32 
163 9 70 32 301 47 19 66 162 95 157 
164 9 139 135 146 182 79 111 231 89 8 
165 9 250 220 308 179 37 274 62 174 312 
166 7 230 254 246 258 215 59 243 
167 9 264 84 9 101 290 239 142 288 150 
168 6 212 263 279 238 93 41 
169 5 302 233 223 294 86 
170 9 177 18 206 226 109 221 285 195 199 
171 9 173 208 112 256 181 56 237 299 284 
172 9 251 185 305 199 125 206 209 195 18 
173 9 171 112 208 256 181 299 56 237 175 
174 9 220 295 62 250 165 37 34 274 280 
175 9 104 289 129 304 103 181 112 299 256 
176 9 2 80 200 153 303 211 196 147 118 
177 9 170 18 226 221 285 206 199 109 195 
178 9 198 259 195 109 251 185 206 199 172 
179 9 308 71 293 165 312 192 287 205 250 
180 5 294 193 261 13 306 
181 9 299 173 103 304 112 175 171 104 289 
182 9 111 164 58 139 71 231 293 192 205 
183 7 245 252 201 36 292 253 302 
184 9 13 88 242 228 294 261 180 233 169 
185 9 172 251 209 305 199 195 206 125 18 
186 9 281 215 59 97 258 271 246 248 149 
187 7 138 219 262 142 298 150 21 
188 9 107 265 225 38 7 274 37 194 287 
189 8 283 24 197 306 193 9 264 84 
190 9 63 144 77 148 3 15 5 48 4 
191 9 127 31 241 197 64 49 24 239 101 
192 9 71 179 287 308 312 7 111 293 182 
193 8 261 180 283 189 306 121 294 24 
194 9 38 266 117 225 23 141 188 119 227 
195 9 206 199 109 18 251 170 305 172 177 
196 7 211 279 263 42 200 168 176 
197 9 24 283 189 9 191 241 306 193 101 
198 9 259 178 109 273 137 195 18 257 206 
199 9 206 305 195 251 172 125 18 170 177 
200 9 2 147 303 176 196 269 211 279 80 
201 8 252 292 245 28 183 272 36 249 
202 9 87 16 255 118 309 42 211 45 153 
203 9 132 307 69 73 265 61 7 107 188 
204 9 291 218 232 298 21 155 219 284 150 
205 9 293 275 71 179 8 295 165 111 220 
206 9 199 195 18 305 170 109 177 125 251 
207 9 216 154 100 284 155 288 270 310 218 
208 9 171 256 112 173 284 155 216 56 237 
209 9 185 172 251 305 199 195 125 206 178 
210 9 158 260 243 230 254 222 166 59 246 
211 8 42 196 118 176 263 200 279 153 
212 6 168 263 279 93 238 41 
213 8 240 34 96 242 88 311 300 277 
214 9 103 304 104 289 129 299 175 181 82 
215 7 258 246 59 186 254 271 97 
216 9 207 284 100 155 154 208 256 112 218 
217 9 236 97 281 160 186 57 276 248 50 
218 9 204 291 298 21 155 150 232 219 284 
219 7 187 138 298 291 232 21 218 
220 9 174 165 250 295 62 37 205 274 179 
221 9 226 177 160 285 170 50 18 236 125 
222 9 126 282 278 51 158 260 262 210 243 
223 7 302 86 233 169 40 183 252 
224 9 106 229 57 128 236 50 276 217 286 
225 9 188 38 117 194 37 274 227 62 107 
226 9 221 177 160 170 285 50 18 236 206 
227 9 119 11 117 225 247 267 296 280 67 
228 9 13 184 242 294 88 233 169 261 302 
229 9 106 128 224 57 286 276 68 113 268 
230 7 166 254 246 243 215 258 59 
231 9 164 182 58 135 146 139 79 111 43 
232 8 291 204 218 298 219 21 56 155 
233 7 302 223 169 86 228 13 294 
234 9 35 43 58 131 73 132 182 307 192 
235 9 44 140 105 102 25 122 151 296 269 
236 9 160 217 50 97 226 221 224 281 57 
237 9 56 171 173 208 112 155 256 284 299 
238 4 168 212 263 93 
239 9 290 101 142 241 167 9 264 84 51 
240 6 34 213 300 67 311 238 
241 9 239 101 290 31 191 9 49 167 24 
242 9 88 184 228 13 294 261 233 17 180 
243 9 254 230 59 158 246 166 210 215 258 
244 9 121 261 88 193 184 242 180 13 283 
245 7 183 252 201 36 253 292 28 
246 7 254 215 258 166 59 230 186 
247 9 41 67 93 267 11 300 212 280 168 
248 9 281 276 286 57 186 59 217 97 215 
249 9 123 72 292 40 28 272 252 201 183 
250 9 165 37 62 274 220 308 174 312 179 
251 9 172 185 199 305 195 206 209 125 18 
252 7 183 201 245 292 40 28 272 
253 4 245 36 183 169 
254 7 246 230 166 215 59 258 243 
255 9 309 45 87 202 16 162 118 153 29 
256 9 112 208 171 173 284 216 181 175 100 
257 9 273 109 170 18 50 177 160 259 226 
258 7 215 246 271 186 254 149 59 
259 9 198 178 109 273 195 137 257 18 206 
260 9 210 158 243 222 262 230 254 166 59 
261 9 193 180 294 184 121 88 13 244 228 
262 7 187 138 51 222 260 142 219 
263 6 168 212 279 238 196 42 
264 9 84 167 9 101 288 310 150 290 239 
265 9 7 107 188 287 307 312 274 203 308 
266 9 23 141 194 38 46 117 119 225 20 
267 9 41 93 247 11 296 212 279 168 67 
268 9 282 126 278 64 128 229 49 286 222 
269 9 147 25 122 200 303 2 296 279 196 
270 7 310 154 288 306 207 84 264 
271 7 149 258 97 215 186 246 59 
272 9 28 292 201 249 252 123 72 245 183 
273 9 257 259 198 109 18 170 137 195 81 
274 9 37 250 62 312 308 107 165 287 220 
275 9 8 205 293 89 295 139 71 111 220 
276 9 57 286 248 128 281 217 186 106 236 
277 4 311 238 42 263 
278 9 126 51 49 31 222 282 268 64 241 
279 7 168 212 263 196 200 93 267 
280 9 67 300 62 174 247 37 34 227 11 
281 9 186 248 97 59 217 215 276 271 258 
282 9 268 126 222 286 278 128 248 276 57 
283 8 189 24 197 306 193 9 180 261 
284 9 155 216 207 100 208 256 154 171 112 
285 9 125 177 221 226 170 305 206 199 18 
286 9 276 57 128 248 281 217 106 229 224 
287 9 312 308 7 107 179 274 192 250 165 
288 9 310 84 264 150 154 270 21 167 207 
289 9 104 129 304 175 103 181 299 112 173 
290 9 239 101 142 167 241 9 264 84 150 
291 8 204 232 218 298 219 21 150 155 
292 9 28 272 201 252 249 123 72 183 40 
293 9 205 71 179 275 111 165 8 308 295 
294 7 13 180 169 228 184 261 233 
295 9 220 174 275 205 165 293 8 34 250 
296 9 25 267 11 269 119 227 44 122 147 
297 9 40 86 72 123 249 3 223 252 292 
298 9 21 218 291 150 219 204 138 187 232 
299 9 181 173 103 304 171 112 175 104 289 
300 8 67 247 280 41 240 93 34 238 
301 9 70 19 95 162 32 163 80 153 303 
302 7 223 169 233 86 183 245 252 
303 9 2 200 147 176 80 269 95 153 122 
304 9 104 289 103 175 129 181 299 112 173 
305 9 199 125 172 206 251 185 195 285 18 
306 7 189 270 283 24 193 180 310 
307 9 132 203 7 265 73 192 287 107 312 
308 9 312 287 179 165 250 274 7 192 37 
309 9 255 45 202 87 29 162 136 16 153 
310 8 288 270 84 264 154 167 9 150 
311 4 277 238 96 42 
312 9 287 308 7 107 179 274 250 165 192 
DEPOT_SECTION
   1
   -1
EOF
