NAME :  X-n384-kX-w38-c11.cctp
COMMENT : 	Adapted by Maziero, Usberti and Cavellucci from the Uchoa, Pecin, Pessoa, Poggi, Subramanian, and Vidal (2013)
TYPE :  CCTP
DIMENSION :    300
EDGE_WEIGHT_TYPE : 	EUC_2D	
CAPACITY : 	564
VERTICES_WITHIN_COVERAGE :  11
VERTICES_WITH_DEMAND : 	38
NODE_COORD_SECTION
1 51 570
2 691 985
3 66 119
4 502 415
5 434 289
6 427 584
7 342 576
8 790 87
9 312 475
10 908 531
11 840 566
12 863 232
13 284 833
14 515 175
15 9 243
16 768 209
17 777 582
18 84 508
19 380 523
20 255 267
21 544 961
22 408 661
23 57 588
24 278 44
25 168 722
26 726 406
27 223 385
28 495 70
29 560 632
30 235 655
31 643 127
32 765 267
33 459 976
34 585 962
35 154 796
36 650 444
37 931 52
38 377 19
39 178 633
40 667 164
41 208 651
42 35 437
43 503 680
44 462 870
45 322 123
46 223 251
47 671 94
48 218 351
49 375 220
50 367 567
51 236 769
52 75 520
53 14 737
54 895 632
55 224 725
56 328 387
57 36 300
58 817 531
59 31 283
60 209 574
61 490 395
62 659 121
63 410 207
64 761 450
65 768 348
66 106 150
67 516 144
68 554 127
69 944 75
70 373 88
71 54 5
72 51 392
73 563 410
74 786 533
75 581 696
76 413 763
77 148 875
78 483 983
79 449 343
80 219 600
81 374 487
82 279 200
83 479 705
84 273 519
85 776 395
86 341 275
87 593 973
88 277 152
89 782 314
90 896 301
91 573 478
92 42 198
93 124 348
94 557 630
95 774 669
96 357 782
97 161 755
98 434 60
99 298 921
100 990 161
101 571 611
102 262 680
103 253 246
104 563 416
105 382 91
106 579 962
107 215 439
108 248 65
109 811 175
110 169 359
111 641 926
112 625 52
113 629 8
114 486 394
115 83 462
116 175 333
117 115 192
118 123 534
119 634 528
120 702 299
121 86 172
122 8 583
123 495 538
124 3 14
125 201 666
126 131 348
127 300 323
128 551 167
129 412 90
130 813 64
131 317 999
132 90 595
133 180 817
134 667 24
135 666 285
136 733 661
137 493 953
138 735 602
139 345 771
140 468 639
141 776 107
142 204 781
143 165 858
144 678 218
145 536 950
146 47 421
147 744 664
148 766 64
149 788 448
150 54 707
151 793 257
152 517 964
153 389 503
154 923 563
155 734 599
156 749 248
157 333 17
158 84 713
159 776 428
160 888 452
161 371 465
162 357 613
163 507 187
164 379 793
165 526 595
166 17 545
167 513 146
168 70 513
169 294 987
170 880 478
171 709 30
172 755 201
173 135 799
174 352 279
175 224 900
176 275 130
177 60 465
178 288 813
179 569 157
180 634 665
181 743 336
182 870 16
183 267 623
184 239 494
185 950 618
186 445 653
187 394 763
188 19 825
189 68 548
190 912 106
191 600 71
192 245 644
193 620 364
194 555 400
195 549 230
196 243 724
197 657 925
198 355 48
199 951 488
200 318 318
201 549 848
202 917 3
203 295 453
204 73 482
205 349 100
206 950 284
207 69 29
208 140 20
209 178 1
210 585 862
211 381 457
212 266 918
213 164 506
214 174 282
215 56 123
216 146 606
217 244 461
218 846 275
219 176 95
220 903 582
221 703 553
222 297 364
223 332 591
224 283 487
225 718 490
226 295 702
227 449 997
228 926 605
229 604 188
230 632 895
231 963 544
232 762 412
233 180 267
234 593 544
235 276 708
236 255 875
237 396 884
238 699 106
239 261 853
240 535 344
241 808 933
242 450 911
243 433 336
244 411 46
245 842 35
246 654 385
247 871 67
248 457 532
249 9 162
250 464 267
251 413 493
252 322 299
253 626 556
254 975 276
255 304 86
256 560 367
257 201 120
258 532 473
259 60 255
260 240 267
261 174 678
262 929 577
263 369 972
264 367 634
265 585 668
266 45 722
267 207 394
268 340 665
269 142 543
270 279 945
271 259 574
272 293 833
273 54 58
274 481 595
275 44 507
276 410 444
277 462 734
278 690 935
279 879 195
280 239 813
281 289 397
282 206 571
283 532 174
284 610 399
285 184 52
286 719 98
287 277 497
288 85 267
289 818 67
290 54 568
291 545 251
292 657 549
293 484 37
294 739 237
295 17 42
296 778 328
297 33 255
298 237 37
299 335 531
300 113 544
DEMAND_SECTION
2 83
3 65
4 92
5 73
6 94
7 100
8 99
9 83
10 84
11 81
12 65
13 69
14 84
15 67
16 53
17 70
18 93
19 69
20 78
21 75
22 56
23 99
24 88
25 61
26 65
27 90
28 74
29 85
30 59
31 76
32 79
33 99
34 98
35 80
36 71
37 71
38 93
39 69
COVERAGE_SECTION
2 8 278 197 111 87 34 230 106 241 
3 11 215 66 121 273 249 92 117 207 295 219 71 
4 11 61 114 194 73 104 258 256 240 79 91 276 
5 10 250 243 79 174 63 49 86 252 240 114 
6 11 274 248 50 140 186 162 19 264 22 123 7 
7 10 223 50 162 299 264 19 271 6 153 84 
8 11 141 130 148 289 286 245 247 109 238 171 182 
9 11 203 224 287 84 161 299 81 217 211 184 281 
10 10 154 220 262 231 170 199 11 228 160 58 
11 10 58 74 17 220 10 154 54 262 228 170 
12 10 279 218 151 90 109 16 206 32 172 89 
13 11 272 178 239 280 236 51 139 212 96 99 175 
14 11 163 283 167 67 128 179 68 195 291 229 250 
15 10 297 59 259 92 57 288 249 121 117 215 
16 11 172 294 156 151 109 32 144 12 141 218 89 
17 10 155 138 74 11 58 221 95 147 136 225 
18 11 52 168 204 275 189 115 300 118 177 290 269 
19 11 153 81 251 50 299 161 7 211 6 248 9 
20 11 260 103 46 82 127 252 233 200 214 86 48 
21 11 145 152 106 34 87 137 78 33 227 111 242 
22 10 186 264 140 268 162 6 83 277 43 274 
23 11 290 132 189 122 166 52 300 168 275 18 118 
24 11 108 298 255 157 198 176 45 205 285 38 70 
25 11 97 261 55 125 142 35 196 41 51 158 173 
26 10 232 85 159 64 65 181 149 246 225 36 
27 9 267 48 107 110 281 116 222 217 126 
28 11 293 98 67 167 68 129 244 191 14 283 128 
29 11 94 101 265 165 75 43 180 274 140 234 253 
30 11 192 41 125 102 183 80 39 261 235 196 55 
31 11 62 47 40 238 191 229 112 179 286 68 144 
32 11 156 151 294 89 16 296 172 120 181 65 218 
33 10 227 78 137 152 242 145 21 263 44 237 
34 11 106 87 21 145 111 152 197 230 137 210 78 
35 11 173 133 97 142 143 25 77 51 280 55 158 
36 11 246 284 225 91 26 193 119 104 73 194 292 
37 11 69 202 190 247 182 245 289 130 100 8 279 
38 11 198 244 157 70 98 105 129 205 255 24 293 
39 11 41 125 216 261 80 30 60 192 282 25 183 
40 10 31 62 144 238 229 47 286 172 179 294 
41 11 125 30 39 192 261 80 102 183 55 60 216 
42 11 146 177 72 115 204 275 168 18 52 166 189 
43 10 83 140 186 277 94 29 75 265 165 274 
44 5 242 237 137 201 33 
45 9 205 255 176 88 70 105 198 82 24 
46 8 260 103 20 233 214 82 116 48 
47 11 62 238 31 286 112 40 134 171 191 113 148 
48 11 27 267 116 110 222 214 281 126 127 260 107 
49 11 63 174 86 5 252 82 250 45 200 88 205 
50 11 7 223 19 162 299 6 264 153 81 251 248 
51 10 142 280 55 196 178 235 133 97 13 25 
52 11 168 18 189 275 204 300 118 290 177 115 166 
53 10 266 150 158 188 173 97 35 122 23 25 
54 7 228 220 185 262 154 11 10 
55 10 196 51 235 25 102 142 125 261 97 30 
56 10 222 281 127 200 203 211 252 9 161 276 
57 10 59 297 259 288 15 72 93 92 126 146 
58 9 74 11 17 170 149 10 64 220 160 
59 10 57 297 259 15 288 92 72 93 126 249 
60 10 282 80 271 39 216 269 183 41 192 213 
61 11 114 4 194 79 240 73 256 104 243 258 276 
62 11 31 47 238 40 286 112 191 229 134 179 144 
63 11 49 250 5 174 86 163 14 129 105 167 45 
64 7 149 159 232 26 85 225 74 
65 9 296 181 89 85 232 26 159 32 120 
66 9 121 117 3 215 92 219 249 257 273 
67 11 167 14 283 68 128 163 179 28 195 229 191 
68 11 179 128 67 167 283 14 191 163 229 28 31 
69 11 37 190 247 202 182 100 245 289 130 279 8 
70 11 105 205 129 198 244 45 98 38 255 157 24 
71 11 207 124 295 273 208 3 215 209 285 219 66 
72 11 146 42 177 115 93 126 57 204 59 275 18 
73 11 104 194 256 284 4 91 258 240 193 61 114 
74 9 58 17 11 225 155 149 221 138 64 
75 7 265 180 29 94 43 101 83 
76 8 187 164 277 96 139 83 22 186 
77 9 143 133 173 35 175 236 142 280 239 
78 11 33 137 227 152 145 21 242 106 34 87 44 
79 10 243 5 114 61 250 240 4 276 256 174 
80 10 60 282 271 192 41 39 183 30 125 216 
81 11 153 161 211 19 251 276 299 9 50 203 224 
82 9 88 103 176 20 46 260 45 86 49 
83 9 277 43 186 140 22 76 75 187 94 
84 8 287 224 184 271 9 299 217 203 
85 8 232 159 65 26 149 64 296 181 
86 11 174 252 200 127 49 20 103 5 63 82 222 
87 11 34 106 21 145 111 152 197 230 2 137 278 
88 9 176 82 45 255 257 205 108 103 24 
89 10 296 65 181 32 151 156 218 85 120 294 
90 4 218 206 12 254 
91 11 258 104 73 234 119 194 36 284 253 4 123 
92 10 249 121 15 297 259 117 215 66 288 3 
93 11 126 110 116 214 72 288 48 267 233 57 27 
94 11 29 101 165 265 75 43 274 180 140 234 253 
95 5 147 136 138 155 17 
96 8 139 164 187 76 178 272 13 226 
97 11 25 35 142 173 133 55 51 261 158 196 280 
98 11 244 129 293 105 28 70 38 198 205 157 67 
99 11 270 212 236 169 175 239 131 263 272 13 237 
100 10 190 69 254 279 37 206 12 247 90 202 
101 11 29 94 165 265 234 253 180 75 274 43 119 
102 10 235 30 192 226 196 183 55 41 125 268 
103 9 20 260 46 82 233 214 252 127 86 
104 11 73 194 256 284 4 91 258 61 193 240 114 
105 11 70 129 205 198 244 98 45 38 255 157 24 
106 11 34 87 21 145 152 111 230 137 197 78 210 
107 8 217 267 27 184 203 224 213 281 
108 9 298 24 255 285 176 257 219 88 45 
109 11 16 172 279 141 12 151 8 294 156 32 218 
110 10 116 126 93 48 267 27 214 107 233 260 
111 8 197 230 278 34 87 106 2 210 
112 11 191 113 134 47 31 62 171 238 68 286 179 
113 11 134 112 191 171 47 62 31 238 286 68 28 
114 11 61 4 79 194 240 73 243 256 104 258 276 
115 10 204 177 18 168 42 146 52 275 72 118 
116 11 110 126 48 214 93 233 267 27 260 46 20 
117 9 121 66 92 288 259 3 215 233 297 
118 11 300 269 18 52 213 168 189 132 204 216 290 
119 11 253 292 234 221 91 36 225 101 258 155 138 
120 9 135 181 156 32 294 89 296 65 144 
121 9 66 117 92 3 215 249 259 288 297 
122 11 166 290 23 189 132 275 52 168 18 300 204 
123 11 248 274 165 258 6 251 91 234 101 140 94 
124 11 295 71 273 207 215 3 208 249 66 209 121 
125 11 41 261 30 39 192 55 102 25 80 196 183 
126 11 93 110 116 214 48 267 72 288 233 27 57 
127 11 200 252 222 86 174 56 20 281 260 48 103 
128 11 283 179 14 68 67 167 163 229 195 291 31 
129 11 105 98 70 244 205 198 38 28 293 45 157 
130 11 289 8 245 148 141 247 182 286 190 171 109 
131 10 169 263 270 99 212 227 175 236 237 33 
132 11 23 290 189 300 216 118 269 52 122 168 18 
133 11 35 142 143 173 280 97 77 51 239 175 236 
134 11 113 171 112 47 191 238 286 62 31 148 141 
135 8 120 144 294 156 193 181 32 246 
136 6 147 95 138 155 17 180 
137 10 152 78 33 145 21 242 227 106 44 34 
138 9 155 17 136 221 147 95 74 292 58 
139 8 96 164 187 76 178 272 226 13 
140 11 186 274 43 22 83 6 165 94 29 277 264 
141 11 8 148 130 286 289 109 238 172 245 16 171 
142 11 51 133 280 97 35 55 25 196 173 143 178 
143 9 77 133 35 173 175 142 280 236 239 
144 10 40 294 135 156 172 229 120 16 31 62 
145 11 21 152 137 106 34 87 78 33 242 227 210 
146 11 42 72 177 115 204 275 18 168 52 93 126 
147 5 136 95 138 155 17 
148 11 8 141 130 289 286 171 238 245 47 247 134 
149 7 159 64 232 85 26 225 74 
150 11 266 158 53 25 97 132 23 173 188 261 122 
151 11 32 156 16 218 89 294 172 296 12 109 181 
152 10 145 137 21 78 33 106 34 227 87 242 
153 11 19 81 251 161 211 299 276 50 248 9 7 
154 11 262 220 10 228 231 185 54 199 11 170 58 
155 10 138 17 221 136 147 95 74 292 58 225 
156 11 294 32 16 151 172 120 89 144 296 181 135 
157 11 198 38 24 255 70 244 205 105 108 298 45 
158 11 150 266 53 25 97 261 173 35 132 39 216 
159 6 232 149 64 85 26 65 
160 3 170 199 10 
161 10 211 81 153 276 251 19 9 299 203 56 
162 11 264 223 7 50 268 22 6 299 183 19 186 
163 11 14 283 167 67 128 195 179 291 68 250 229 
164 9 96 187 139 76 178 237 272 277 13 
165 11 274 94 101 29 123 140 234 43 248 265 6 
166 11 122 290 275 189 23 168 52 18 204 132 177 
167 11 67 14 283 163 128 68 179 28 195 229 291 
168 11 52 18 275 204 189 177 115 300 118 290 166 
169 10 131 270 99 212 263 175 236 239 237 13 
170 5 160 10 199 58 154 
171 11 134 148 286 47 238 113 112 8 141 62 130 
172 11 16 294 156 109 32 151 144 40 141 286 238 
173 11 35 133 97 143 142 77 25 158 51 280 55 
174 11 86 252 200 49 127 5 63 20 243 222 103 
175 10 236 212 239 270 143 99 77 280 13 133 
176 9 88 45 255 82 108 257 205 24 298 
177 11 204 115 42 275 146 18 168 52 72 189 166 
178 10 13 272 239 280 51 236 139 96 142 164 
179 11 128 68 283 229 67 14 167 163 195 31 191 
180 8 265 75 29 101 94 136 253 147 
181 10 65 296 89 120 85 26 32 232 156 135 
182 11 245 202 247 37 289 130 69 190 8 148 141 
183 10 192 30 271 80 102 41 223 60 125 282 
184 8 217 287 84 224 107 203 9 213 
185 8 228 262 54 220 154 231 10 11 
186 11 140 22 83 43 274 6 264 277 162 165 268 
187 8 76 164 96 139 277 22 83 268 
188 7 53 266 173 150 158 35 77 
189 11 290 52 168 23 18 300 275 166 132 118 204 
190 11 69 37 247 100 279 182 245 289 202 130 109 
191 11 112 113 31 68 47 62 134 179 28 238 128 
192 11 30 183 41 102 125 80 39 235 271 226 60 
193 8 284 246 256 73 194 104 36 240 
194 11 73 104 256 4 284 240 61 114 193 258 91 
195 9 291 283 163 128 14 229 179 167 67 
196 10 55 235 51 102 226 30 142 125 25 192 
197 8 111 278 230 2 87 34 106 210 
198 11 38 157 70 105 205 244 255 129 24 98 45 
199 7 231 10 170 160 154 262 220 
200 10 127 252 86 222 174 56 20 281 260 103 
201 5 210 44 230 145 21 
202 11 182 37 69 247 245 190 289 130 8 148 100 
203 10 9 224 287 217 281 184 84 56 161 107 
204 11 177 115 18 168 52 275 42 146 189 118 300 
205 11 70 105 45 255 198 129 176 244 157 38 88 
206 3 254 90 12 
207 11 71 273 295 124 208 3 215 209 285 219 66 
208 11 209 285 207 219 71 273 298 108 257 3 295 
209 11 208 285 298 219 108 24 207 257 71 273 255 
210 5 201 230 111 197 34 
211 10 161 81 276 153 251 19 9 203 299 56 
212 10 270 99 236 175 239 169 13 272 131 178 
213 8 269 118 300 184 282 18 60 107 
214 9 233 116 46 260 110 126 20 48 93 
215 11 3 66 121 249 273 92 295 117 207 71 124 
216 11 39 132 269 282 300 60 80 118 41 261 125 
217 9 184 107 224 287 203 84 9 267 281 
218 7 12 90 151 89 32 296 279 
219 9 257 285 108 208 298 66 209 176 3 
220 9 262 154 228 10 54 185 11 231 58 
221 11 292 155 138 225 119 253 17 74 234 136 58 
222 10 281 56 127 200 252 27 48 203 267 86 
223 10 7 162 50 264 299 183 268 271 19 84 
224 8 287 9 84 203 184 217 299 107 
225 10 64 221 74 36 149 26 159 292 232 119 
226 9 235 102 196 268 55 30 192 183 139 
227 11 33 78 137 152 263 242 145 21 237 44 131 
228 9 185 262 220 54 154 231 10 11 199 
229 10 179 128 40 195 31 283 68 144 291 62 
230 7 111 197 210 278 34 106 87 
231 10 154 262 10 199 220 228 185 170 54 160 
232 7 159 85 26 64 149 65 181 
233 9 214 46 260 116 20 103 48 110 126 
234 11 253 119 292 91 101 165 94 29 258 123 221 
235 9 226 102 196 55 30 192 51 268 183 
236 11 239 175 212 13 272 99 280 178 270 143 133 
237 9 242 44 263 164 99 96 33 272 137 
238 11 286 47 62 31 40 141 171 148 134 112 8 
239 11 236 13 272 280 178 175 212 99 51 133 142 
240 9 256 194 61 114 73 104 4 79 193 
241 2 278 2 
242 9 44 137 237 33 78 152 227 145 263 
243 10 79 5 250 114 61 174 240 4 86 276 
244 11 98 38 129 105 198 70 293 205 157 28 255 
245 11 182 289 130 247 8 148 202 37 141 190 69 
246 9 193 284 36 26 73 104 256 120 194 
247 11 245 182 289 190 130 37 69 202 8 141 148 
248 11 123 251 6 274 153 19 165 81 258 50 276 
249 11 92 215 3 121 15 297 66 259 117 273 295 
250 10 5 243 79 63 291 163 195 49 14 240 
251 11 153 81 19 211 276 161 248 50 299 6 123 
252 11 200 86 127 174 222 20 103 56 260 49 281 
253 11 119 292 234 221 101 91 29 94 165 180 225 
254 4 206 90 100 12 
255 11 45 205 24 176 108 198 70 88 157 105 298 
256 9 194 240 73 104 284 193 4 61 114 
257 9 219 285 108 176 88 298 66 24 255 
258 11 91 4 104 73 123 194 61 114 234 248 284 
259 9 297 288 59 57 15 92 117 121 249 
260 11 20 46 103 233 214 82 127 48 252 116 200 
261 11 125 41 25 39 30 55 216 97 192 196 102 
262 10 154 220 228 185 231 10 54 11 199 170 
263 11 131 169 227 99 33 237 270 242 78 212 137 
264 11 162 268 22 223 7 50 6 186 226 140 183 
265 9 75 29 94 180 101 43 165 83 253 
266 11 150 53 158 188 173 97 25 35 23 132 261 
267 9 27 48 107 110 116 217 281 126 93 
268 9 264 162 226 22 223 235 102 183 7 
269 11 118 300 213 216 18 282 52 60 132 189 168 
270 10 212 99 169 131 175 236 239 263 13 272 
271 10 80 60 183 282 84 192 223 287 184 7 
272 11 13 178 239 236 280 139 96 51 99 212 164 
273 11 207 295 71 3 215 124 208 66 249 121 219 
274 11 165 140 6 123 248 186 94 29 43 101 22 
275 11 168 52 204 18 177 166 189 115 290 42 300 
276 10 211 161 251 81 153 19 114 61 4 56 
277 7 83 76 43 187 186 22 140 
278 5 197 2 111 230 87 
279 11 12 109 218 190 151 90 16 206 100 172 254 
280 11 51 239 142 13 178 272 133 236 35 143 175 
281 11 222 56 203 27 127 217 9 267 200 48 107 
282 10 60 80 271 39 216 269 213 41 183 192 
283 11 14 128 163 67 167 179 68 195 229 291 28 
284 9 193 246 73 104 194 256 36 91 240 
285 9 219 209 208 298 108 257 24 207 176 
286 11 238 47 141 148 62 171 8 31 40 134 130 
287 8 224 84 184 9 203 217 299 271 
288 9 259 297 59 57 15 92 117 93 214 
289 11 130 8 245 148 247 141 182 190 286 109 37 
290 11 23 189 166 132 122 52 168 275 300 18 118 
291 8 195 163 283 14 250 128 229 240 
292 11 119 253 221 234 225 155 138 36 101 91 180 
293 11 28 98 244 129 38 67 167 68 105 191 70 
294 11 156 172 16 32 151 144 120 135 89 109 181 
295 11 124 273 71 207 215 3 249 208 66 121 92 
296 9 89 65 181 32 85 151 120 156 218 
297 9 15 259 59 57 288 92 249 121 117 
298 10 108 24 285 209 255 219 257 157 208 176 
299 11 7 19 50 81 223 9 153 84 287 224 161 
300 11 118 269 52 189 18 168 132 213 290 216 23 
DEPOT_SECTION
   1
   -1
EOF
