NAME :  X-n393-kX-w39-c7.cctp
COMMENT : 	Adapted by Maziero, Usberti and Cavellucci from the Uchoa, Pecin, Pessoa, Poggi, Subramanian, and Vidal (2013)
TYPE :  CCTP
DIMENSION :    178
EDGE_WEIGHT_TYPE : 	EUC_2D	
CAPACITY : 	78
VERTICES_WITHIN_COVERAGE :  7
VERTICES_WITH_DEMAND : 	39
NODE_COORD_SECTION
1 500 500
2 113 195
3 377 239
4 364 39
5 306 316
6 795 18
7 803 771
8 845 880
9 440 450
10 284 370
11 785 211
12 860 318
13 170 621
14 180 957
15 707 913
16 861 505
17 546 186
18 910 997
19 403 865
20 373 357
21 317 394
22 225 729
23 666 199
24 505 56
25 436 885
26 711 906
27 736 688
28 439 550
29 561 186
30 276 294
31 810 244
32 939 53
33 551 220
34 662 179
35 537 420
36 843 543
37 970 798
38 933 860
39 518 910
40 571 265
41 583 119
42 985 150
43 810 48
44 620 230
45 859 278
46 419 310
47 808 811
48 796 931
49 698 66
50 409 562
51 886 760
52 36 197
53 596 305
54 252 372
55 564 16
56 839 206
57 160 313
58 326 201
59 301 6
60 196 391
61 448 41
62 908 558
63 277 270
64 575 993
65 183 972
66 469 577
67 890 727
68 826 883
69 91 15
70 526 335
71 231 693
72 698 701
73 589 978
74 526 926
75 859 847
76 762 64
77 949 109
78 289 195
79 172 345
80 952 443
81 974 550
82 751 49
83 391 837
84 531 44
85 931 76
86 898 863
87 939 987
88 455 898
89 961 784
90 829 284
91 554 874
92 221 155
93 396 228
94 7 29
95 327 28
96 734 216
97 353 101
98 159 260
99 382 366
100 430 883
101 965 322
102 328 254
103 642 318
104 816 889
105 422 318
106 373 417
107 979 824
108 692 65
109 450 466
110 851 582
111 857 111
112 194 87
113 918 84
114 449 898
115 891 587
116 410 387
117 550 467
118 441 531
119 661 762
120 918 264
121 534 961
122 371 255
123 694 794
124 185 127
125 384 56
126 650 223
127 874 501
128 822 439
129 289 312
130 462 546
131 686 269
132 843 617
133 786 493
134 598 317
135 726 602
136 674 47
137 411 577
138 173 977
139 370 870
140 407 548
141 443 554
142 405 435
143 461 450
144 486 905
145 221 739
146 402 893
147 176 632
148 176 969
149 182 936
150 195 586
151 193 757
152 190 940
153 378 861
154 182 951
155 426 810
156 216 656
157 249 700
158 262 426
159 208 752
160 222 603
161 179 574
162 459 337
163 416 849
164 262 763
165 154 594
166 402 509
167 429 876
168 466 341
169 295 460
170 578 423
171 413 893
172 223 699
173 399 829
174 361 401
175 140 631
176 431 871
177 293 729
178 383 878
DEMAND_SECTION
2 5
3 5
4 7
5 9
6 7
7 8
8 5
9 7
10 8
11 7
12 9
13 9
14 10
15 6
16 7
17 9
18 8
19 7
20 6
21 9
22 5
23 5
24 10
25 6
26 6
27 9
28 6
29 6
30 7
31 9
32 6
33 6
34 9
35 5
36 7
37 5
38 8
39 8
40 6
COVERAGE_SECTION
2 7 52 98 124 92 57 112 79 
3 7 122 93 102 58 46 105 78 
4 5 125 95 97 59 61 
5 7 129 30 63 10 102 54 20 
6 7 43 82 76 49 111 108 136 
7 7 47 51 75 67 27 123 68 
8 7 68 104 75 86 48 47 38 
9 7 109 143 142 116 166 106 118 
10 7 54 21 5 129 158 30 174 
11 7 31 96 56 90 45 131 23 
12 7 45 90 120 31 101 56 128 
13 6 147 165 175 150 161 160 
14 6 154 148 65 152 138 149 
15 7 26 48 104 123 68 73 8 
16 7 127 36 62 133 128 110 115 
17 7 29 33 41 40 44 126 34 
18 7 87 48 8 86 38 68 104 
19 7 163 178 153 146 167 176 83 
20 7 99 174 116 106 105 46 21 
21 7 10 174 106 158 20 54 169 
22 6 145 159 172 71 157 151 
23 7 34 126 44 96 131 29 41 
24 7 84 61 55 41 125 17 4 
25 7 100 167 176 114 88 171 146 
26 7 15 48 104 123 68 8 47 
27 6 72 135 119 7 123 132 
28 7 141 118 130 50 140 137 66 
29 7 17 33 41 44 40 126 34 
30 7 129 63 5 102 10 54 78 
31 7 11 90 56 45 96 12 120 
32 7 85 113 77 111 42 43 6 
33 7 17 29 40 44 53 126 41 
34 7 23 126 44 96 131 41 29 
35 5 170 117 143 70 109 
36 7 110 16 127 115 62 132 133 
37 7 89 107 38 51 86 67 75 
38 7 86 107 37 75 89 8 68 
39 7 74 144 91 121 88 114 25 
40 7 53 33 134 44 29 17 70 
41 7 29 17 84 34 24 55 33 
42 7 77 85 113 32 120 111 56 
43 7 6 76 82 111 49 113 108 
44 7 126 23 40 34 33 29 131 
45 7 90 12 31 120 56 11 101 
46 7 105 162 168 20 99 122 116 
47 7 7 75 68 8 104 51 86 
48 7 104 68 8 26 15 75 47 
49 7 108 136 82 76 6 43 34 
50 5 140 137 28 141 118 
51 7 67 89 7 75 37 47 86 
52 7 2 98 124 57 94 69 92 
53 6 134 40 103 70 44 33 
54 7 10 158 60 21 129 5 30 
55 7 84 24 41 136 61 108 49 
56 7 31 11 45 90 111 120 96 
57 5 79 98 60 54 30 
58 6 78 102 3 122 93 63 
59 5 95 4 125 97 112 
60 5 79 54 158 57 10 
61 7 24 125 84 4 97 55 95 
62 7 115 110 81 127 36 16 132 
63 7 30 129 102 5 78 58 122 
64 7 73 121 74 39 91 144 88 
65 4 148 138 14 154 
66 3 130 141 28 
67 7 51 89 7 37 47 132 75 
68 7 104 8 75 48 47 86 38 
69 6 94 112 124 2 52 92 
70 7 168 162 134 53 40 35 170 
71 5 172 157 22 156 145 
72 5 27 119 123 135 7 
73 7 64 121 74 39 91 144 15 
74 7 39 121 144 91 88 73 114 
75 7 8 86 68 104 47 38 51 
76 7 82 43 6 49 108 136 111 
77 7 85 113 42 32 111 56 43 
78 6 58 102 63 92 3 30 
79 5 57 60 54 98 10 
80 7 127 81 16 101 62 128 36 
81 7 62 115 80 127 16 110 36 
82 7 76 6 49 43 108 136 111 
83 4 173 153 163 19 
84 7 24 55 61 41 17 136 29 
85 7 113 32 77 111 42 43 6 
86 7 38 75 8 68 104 107 37 
87 7 18 38 86 8 48 68 104 
88 7 114 25 100 144 167 176 171 
89 7 37 107 51 38 67 86 75 
90 7 45 31 12 56 11 120 96 
91 4 39 74 144 121 
92 6 124 112 78 2 58 98 
93 7 3 122 102 58 46 105 78 
94 6 69 52 112 2 124 92 
95 5 59 4 125 97 61 
96 7 11 23 131 31 34 126 56 
97 6 125 4 95 58 59 61 
98 6 57 2 79 63 30 92 
99 7 20 116 174 106 105 46 21 
100 7 25 167 176 171 114 88 146 
101 7 120 12 45 80 90 56 42 
102 7 122 3 58 63 5 30 129 
103 6 134 53 131 40 44 126 
104 7 68 8 48 75 47 86 26 
105 7 46 162 168 99 20 116 122 
106 6 174 142 116 99 20 21 
107 7 37 89 38 86 51 75 67 
108 7 49 136 82 76 6 34 43 
109 7 9 143 142 166 118 130 28 
110 7 132 36 115 62 16 127 133 
111 7 113 43 85 77 56 32 76 
112 5 124 92 69 59 2 
113 7 85 32 77 111 42 43 6 
114 7 88 25 100 167 176 171 144 
115 7 62 110 132 36 16 127 81 
116 7 99 20 106 142 174 9 105 
117 2 35 170 
118 7 28 141 130 140 50 166 66 
119 5 123 72 27 7 26 
120 7 45 101 12 90 56 31 42 
121 7 74 64 39 73 144 91 88 
122 7 3 93 102 58 46 105 5 
123 6 119 72 7 26 27 47 
124 5 112 92 2 78 98 
125 6 4 97 95 61 59 24 
126 7 23 44 34 131 96 40 103 
127 7 16 36 62 128 110 115 133 
128 5 133 16 127 36 12 
129 7 5 30 63 10 54 102 21 
130 5 141 28 118 66 50 
131 6 126 103 96 23 44 34 
132 7 110 115 36 62 16 135 67 
133 5 128 16 36 127 110 
134 6 53 103 40 70 44 131 
135 5 27 72 132 133 110 
136 7 108 49 82 76 55 41 6 
137 3 50 140 28 
138 3 148 65 14 
139 3 153 178 19 
140 6 50 137 28 141 118 166 
141 7 28 130 118 50 66 140 137 
142 6 106 9 116 109 174 143 
143 7 109 9 142 116 35 118 166 
144 7 39 88 114 74 25 100 167 
145 6 22 159 151 172 71 157 
146 7 171 178 19 100 167 25 176 
147 6 13 175 165 156 150 160 
148 4 65 138 14 154 
149 3 152 154 14 
150 5 161 160 165 13 147 
151 3 159 145 22 
152 4 149 154 14 148 
153 5 139 178 19 83 173 
154 6 14 152 149 148 65 138 
155 4 173 163 83 19 
156 6 71 172 147 160 157 13 
157 5 71 172 22 145 177 
158 5 169 54 10 21 60 
159 3 151 145 22 
160 5 150 161 156 147 13 
161 4 150 165 13 160 
162 7 168 105 46 70 116 99 20 
163 7 19 173 176 83 167 100 153 
164 4 177 145 22 159 
165 5 13 161 175 150 147 
166 6 140 118 50 28 141 109 
167 7 176 100 25 171 19 114 163 
168 7 162 105 46 70 116 99 20 
169 2 158 21 
170 3 35 117 70 
171 7 146 100 167 25 176 19 178 
172 6 71 157 22 145 156 159 
173 5 83 163 155 19 153 
174 6 106 99 21 20 116 142 
175 3 13 147 165 
176 7 167 100 25 163 171 19 114 
177 3 164 157 22 
178 5 139 153 19 146 171 
DEPOT_SECTION
   1
   -1
EOF
