NAME :  X-n331-kX-w132-c7.cctp
COMMENT : 	Adapted by Maziero, Usberti and Cavellucci from the Uchoa, Pecin, Pessoa, Poggi, Subramanian, and Vidal (2013)
TYPE :  CCTP
DIMENSION :    326
EDGE_WEIGHT_TYPE : 	EUC_2D	
CAPACITY : 	23
VERTICES_WITHIN_COVERAGE :  7
VERTICES_WITH_DEMAND : 	132
NODE_COORD_SECTION
1 0 0
2 2 857
3 407 102
4 915 965
5 797 45
6 997 241
7 650 683
8 748 248
9 99 174
10 2 545
11 277 689
12 568 771
13 76 105
14 117 973
15 171 971
16 327 183
17 277 697
18 269 246
19 670 18
20 51 901
21 951 696
22 710 102
23 61 465
24 348 606
25 551 243
26 524 793
27 89 582
28 900 748
29 235 368
30 122 587
31 449 781
32 970 38
33 362 490
34 742 267
35 289 115
36 898 957
37 996 922
38 951 633
39 713 779
40 603 247
41 402 363
42 143 0
43 274 608
44 81 422
45 550 408
46 43 699
47 482 575
48 909 254
49 613 37
50 202 575
51 297 297
52 736 288
53 464 127
54 499 491
55 635 531
56 796 328
57 184 941
58 641 824
59 863 673
60 396 950
61 555 631
62 664 966
63 301 260
64 425 990
65 559 746
66 431 827
67 724 472
68 847 51
69 888 721
70 136 331
71 859 627
72 206 5
73 429 381
74 798 918
75 886 684
76 123 488
77 779 445
78 764 43
79 938 743
80 800 398
81 734 20
82 211 678
83 601 545
84 512 403
85 796 106
86 644 810
87 416 973
88 115 435
89 667 91
90 395 941
91 374 546
92 546 191
93 754 255
94 124 588
95 423 929
96 314 637
97 668 268
98 321 786
99 960 423
100 11 499
101 721 692
102 803 584
103 337 475
104 806 773
105 429 478
106 214 547
107 361 166
108 944 218
109 12 468
110 527 255
111 789 724
112 250 862
113 892 896
114 545 806
115 832 12
116 628 495
117 194 884
118 395 309
119 655 39
120 558 175
121 247 947
122 36 394
123 877 451
124 599 724
125 83 489
126 754 703
127 65 35
128 889 230
129 938 307
130 662 394
131 248 220
132 642 549
133 747 86
134 201 643
135 400 574
136 653 798
137 653 904
138 643 138
139 951 307
140 793 865
141 500 726
142 585 586
143 285 769
144 511 898
145 336 912
146 454 207
147 239 951
148 335 815
149 911 708
150 2 239
151 602 984
152 372 799
153 177 756
154 816 435
155 617 639
156 806 796
157 793 584
158 803 561
159 479 831
160 397 20
161 618 113
162 702 902
163 838 111
164 989 451
165 215 154
166 581 757
167 294 174
168 997 332
169 350 909
170 335 941
171 906 354
172 920 675
173 493 469
174 187 284
175 678 127
176 831 755
177 316 319
178 188 134
179 73 608
180 884 613
181 193 831
182 717 851
183 508 52
184 809 556
185 705 769
186 983 312
187 847 359
188 415 658
189 520 413
190 913 564
191 90 256
192 960 936
193 693 559
194 980 347
195 300 456
196 376 144
197 192 177
198 272 525
199 88 626
200 772 743
201 540 206
202 474 559
203 241 949
204 583 602
205 215 48
206 460 683
207 81 368
208 998 835
209 585 234
210 522 137
211 294 501
212 788 392
213 621 498
214 116 698
215 81 236
216 788 277
217 678 560
218 351 354
219 156 507
220 617 486
221 218 189
222 213 23
223 884 616
224 923 177
225 829 814
226 479 307
227 285 153
228 584 878
229 176 928
230 166 656
231 507 183
232 907 171
233 7 792
234 995 412
235 22 787
236 649 933
237 885 309
238 131 560
239 22 81
240 502 640
241 462 970
242 465 114
243 192 569
244 547 473
245 557 408
246 480 579
247 775 395
248 845 753
249 701 529
250 962 95
251 31 68
252 627 629
253 524 322
254 918 853
255 823 774
256 775 894
257 109 935
258 478 480
259 511 488
260 785 899
261 487 121
262 453 440
263 470 598
264 1 111
265 756 89
266 728 583
267 647 753
268 973 391
269 842 559
270 637 397
271 72 370
272 948 485
273 999 268
274 471 517
275 350 131
276 381 534
277 310 467
278 973 212
279 164 485
280 429 565
281 186 426
282 838 897
283 779 143
284 452 1
285 866 928
286 214 623
287 532 586
288 513 152
289 915 772
290 204 585
291 343 558
292 877 720
293 730 272
294 364 617
295 210 569
296 514 296
297 33 761
298 202 695
299 706 395
300 597 866
301 376 83
302 679 434
303 483 578
304 0 299
305 639 101
306 709 590
307 774 925
308 804 864
309 528 192
310 660 561
311 888 7
312 788 712
313 79 750
314 854 884
315 710 665
316 939 390
317 156 683
318 62 737
319 207 501
320 944 334
321 952 915
322 14 440
323 923 386
324 693 370
325 485 885
326 890 951
DEMAND_SECTION
2 1
3 1
4 1
5 1
6 1
7 1
8 1
9 1
10 1
11 1
12 1
13 1
14 1
15 1
16 1
17 1
18 1
19 1
20 1
21 1
22 1
23 1
24 1
25 1
26 1
27 1
28 1
29 1
30 1
31 1
32 1
33 1
34 1
35 1
36 1
37 1
38 1
39 1
40 1
41 1
42 1
43 1
44 1
45 1
46 1
47 1
48 1
49 1
50 1
51 1
52 1
53 1
54 1
55 1
56 1
57 1
58 1
59 1
60 1
61 1
62 1
63 1
64 1
65 1
66 1
67 1
68 1
69 1
70 1
71 1
72 1
73 1
74 1
75 1
76 1
77 1
78 1
79 1
80 1
81 1
82 1
83 1
84 1
85 1
86 1
87 1
88 1
89 1
90 1
91 1
92 1
93 1
94 1
95 1
96 1
97 1
98 1
99 1
100 1
101 1
102 1
103 1
104 1
105 1
106 1
107 1
108 1
109 1
110 1
111 1
112 1
113 1
114 1
115 1
116 1
117 1
118 1
119 1
120 1
121 1
122 1
123 1
124 1
125 1
126 1
127 1
128 1
129 1
130 1
131 1
132 1
133 1
COVERAGE_SECTION
2 7 233 20 235 297 257 313 318 
3 7 301 196 242 53 275 107 261 
4 7 36 326 192 285 321 113 37 
5 7 78 115 68 265 85 133 81 
6 7 273 278 108 186 139 48 129 
7 7 155 252 315 124 267 101 166 
8 7 93 34 293 52 216 97 56 
9 7 215 13 191 197 178 150 264 
10 7 100 109 27 179 125 23 322 
11 7 17 96 82 298 143 43 134 
12 7 166 65 114 26 124 267 141 
13 7 251 239 127 9 264 178 42 
14 7 257 15 57 229 20 117 147 
15 7 57 229 14 147 257 203 121 
16 7 167 107 227 275 196 35 63 
17 7 11 82 96 143 298 43 134 
18 7 131 63 51 167 221 16 177 
19 7 119 49 81 89 305 22 78 
20 6 2 257 14 233 235 229 
21 7 172 149 79 38 75 69 28 
22 7 133 175 89 265 305 138 78 
23 7 125 44 109 322 100 88 76 
24 7 294 96 291 135 91 43 276 
25 7 110 209 201 40 92 309 296 
26 7 114 12 65 159 166 141 31 
27 7 179 30 94 199 238 125 10 
28 7 289 69 292 79 149 248 75 
29 7 281 51 177 174 70 195 218 
30 7 94 238 27 199 179 243 50 
31 7 66 159 141 26 152 114 206 
32 7 250 311 68 115 224 232 163 
33 7 103 276 91 277 105 211 195 
34 7 293 93 8 52 216 97 56 
35 7 227 167 275 16 165 107 196 
36 7 326 4 285 113 192 321 282 
37 7 192 321 208 4 36 254 113 
38 7 172 21 223 180 190 75 149 
39 7 185 136 200 267 182 86 58 
40 7 209 25 97 201 110 92 120 
41 7 73 218 118 262 226 177 84 
42 7 72 222 127 205 13 251 178 
43 7 96 286 24 290 295 50 11 
44 7 88 23 122 271 207 125 322 
45 7 245 189 84 244 173 270 259 
46 7 318 313 297 214 199 235 179 
47 7 303 246 202 263 287 280 274 
48 7 128 108 129 237 139 278 224 
49 7 119 19 305 89 161 138 183 
50 7 290 295 243 106 286 134 238 
51 7 177 63 18 218 131 29 118 
52 7 293 34 93 8 216 97 56 
53 7 242 261 288 210 3 231 146 
54 7 259 173 258 274 244 262 105 
55 7 132 213 83 116 310 220 217 
56 7 216 187 212 80 247 52 34 
57 7 229 15 147 117 203 121 14 
58 7 86 136 300 267 228 137 182 
59 7 75 71 292 69 172 149 223 
60 7 90 87 95 64 169 170 241 
61 7 204 287 142 240 155 252 303 
62 6 236 137 151 162 307 228 
63 7 18 51 177 131 16 167 118 
64 7 87 241 60 90 95 170 169 
65 7 166 12 124 26 114 141 267 
66 7 159 31 152 325 148 26 95 
67 7 302 77 249 299 193 247 116 
68 7 115 5 311 163 85 78 265 
69 7 292 149 28 75 59 248 79 
70 7 207 174 271 191 29 44 88 
71 7 223 180 59 75 269 102 172 
72 7 222 205 42 178 35 127 165 
73 7 41 262 118 218 84 226 189 
74 6 260 307 256 282 140 308 
75 7 59 149 172 69 292 71 21 
76 7 219 125 279 88 23 238 44 
77 7 154 247 80 212 67 299 123 
78 7 5 81 133 265 85 115 22 
79 7 289 28 149 21 69 292 172 
80 7 212 247 154 77 187 56 123 
81 7 78 19 133 5 265 119 22 
82 7 298 134 230 286 317 11 17 
83 7 55 132 142 213 116 204 220 
84 7 189 45 245 173 262 244 253 
85 7 283 163 265 133 5 78 68 
86 7 58 136 267 185 300 39 166 
87 7 64 60 90 95 241 170 169 
88 7 44 76 23 125 279 281 207 
89 7 305 175 22 119 138 161 19 
90 7 60 95 87 169 64 170 145 
91 7 276 291 135 33 280 24 294 
92 7 201 309 120 231 288 25 209 
93 7 8 34 293 52 216 56 97 
94 7 30 238 27 199 179 243 50 
95 7 90 60 87 241 64 169 325 
96 7 24 43 294 11 17 291 286 
97 7 293 40 52 34 8 93 209 
98 7 148 143 152 17 112 11 66 
99 7 268 234 316 164 323 272 194 
100 7 109 10 322 23 125 44 122 
101 7 315 126 312 7 200 111 185 
102 7 157 158 184 269 71 266 180 
103 7 277 33 195 211 276 91 198 
104 7 255 156 176 248 200 225 111 
105 7 262 258 274 173 33 54 276 
106 7 295 50 243 290 319 198 219 
107 7 196 275 16 167 227 3 301 
108 7 278 224 48 128 6 232 273 
109 7 322 100 23 125 10 122 44 
110 7 25 296 201 209 309 92 253 
111 7 312 200 126 104 176 255 248 
112 7 117 181 121 203 147 148 143 
113 7 314 285 254 282 326 36 321 
114 7 26 12 166 65 159 300 228 
115 7 68 5 311 78 81 163 85 
116 7 213 220 55 132 83 310 302 
117 7 229 181 57 112 203 147 121 
118 7 41 218 73 177 226 51 63 
119 7 19 49 89 305 81 161 22 
120 7 92 309 201 288 210 231 209 
121 7 203 147 57 229 15 117 112 
122 7 271 322 207 44 23 109 88 
123 7 154 272 323 316 99 80 187 
124 7 166 65 12 267 7 155 136 
125 7 23 76 88 44 100 109 219 
126 7 101 312 111 200 315 185 39 
127 7 251 239 13 42 264 9 72 
128 7 48 108 232 224 237 278 129 
129 7 139 320 186 237 171 194 48 
130 7 270 324 302 299 67 220 245 
131 7 18 221 167 63 197 165 227 
132 7 55 310 217 83 193 213 116 
133 7 265 22 78 85 5 283 81 
134 7 286 82 230 298 290 317 50 
135 7 280 91 276 294 291 24 263 
136 7 86 58 267 185 39 166 182 
137 6 236 162 62 300 228 58 
138 7 161 175 305 89 22 120 119 
139 7 129 320 186 194 168 273 171 
140 5 308 256 260 74 282 
141 7 206 65 26 31 12 240 166 
142 7 204 83 287 61 252 155 132 
143 7 98 148 17 11 152 112 153 
144 6 325 159 228 241 300 95 
145 7 169 170 90 60 95 121 148 
146 7 231 309 53 288 201 110 261 
147 7 203 121 57 229 15 117 112 
148 7 98 152 143 169 66 112 145 
149 7 69 172 75 292 28 21 79 
150 7 304 215 191 9 264 271 207 
151 6 62 236 137 228 300 144 
152 7 148 98 66 31 143 159 169 
153 5 298 317 181 214 82 
154 7 77 80 212 247 123 187 67 
155 7 252 204 7 142 61 124 310 
156 6 104 255 225 176 248 200 
157 7 102 158 184 269 266 71 306 
158 7 184 102 157 269 266 71 180 
159 7 66 325 31 26 114 144 12 
160 7 284 301 3 183 242 275 53 
161 7 305 138 89 175 49 119 120 
162 7 137 182 236 256 62 307 260 
163 7 85 68 283 5 265 232 133 
164 7 234 99 272 268 316 323 194 
165 7 197 178 221 227 131 167 35 
166 7 12 65 124 114 267 26 86 
167 7 227 16 35 131 107 275 18 
168 7 194 186 139 320 129 268 273 
169 7 145 170 90 60 95 87 148 
170 7 145 169 90 60 87 121 95 
171 7 323 320 316 237 129 187 139 
172 7 149 75 21 38 69 59 292 
173 7 258 54 259 262 274 244 189 
174 7 70 131 18 29 221 191 197 
175 7 138 89 22 305 161 133 265 
176 7 248 255 104 156 111 292 225 
177 7 51 218 63 118 18 29 41 
178 7 165 197 221 205 9 227 35 
179 7 199 27 30 94 238 10 46 
180 7 223 71 190 59 269 38 75 
181 5 117 112 153 229 57 
182 7 162 39 256 140 58 136 137 
183 7 261 242 284 210 53 288 49 
184 7 158 102 157 269 266 71 180 
185 7 39 136 267 200 86 101 126 
186 7 168 139 194 129 320 273 6 
187 7 171 56 80 237 212 247 323 
188 7 206 294 263 24 135 240 280 
189 7 84 45 245 173 244 262 259 
190 7 180 223 269 38 71 272 184 
191 7 215 9 70 150 304 174 207 
192 7 321 37 4 36 326 113 254 
193 7 217 249 310 306 266 132 55 
194 7 168 186 320 268 139 129 316 
195 7 277 103 211 33 198 319 29 
196 7 107 275 3 301 16 167 53 
197 7 221 165 178 131 9 227 167 
198 7 211 106 277 319 195 295 291 
199 7 179 27 30 94 214 238 230 
200 7 111 312 126 104 176 255 156 
201 7 92 309 120 25 231 110 209 
202 7 47 246 303 263 274 280 287 
203 7 147 121 57 229 15 117 112 
204 7 142 61 155 252 287 83 132 
205 7 222 72 42 178 35 165 227 
206 7 188 141 240 263 31 246 303 
207 7 271 122 44 70 88 322 23 
208 7 254 37 321 289 192 79 113 
209 7 40 25 201 92 110 120 309 
210 7 288 261 231 120 309 53 92 
211 7 198 277 195 103 33 291 319 
212 7 80 247 154 77 56 187 299 
213 7 116 220 55 83 132 310 244 
214 7 317 313 230 318 46 199 153 
215 7 191 9 150 304 70 174 197 
216 7 93 34 8 56 52 293 187 
217 7 193 310 132 249 306 55 266 
218 7 177 41 118 51 73 63 195 
219 7 279 76 319 238 106 243 125 
220 7 213 116 55 83 132 244 302 
221 7 197 165 131 178 18 227 167 
222 7 72 205 42 178 35 165 127 
223 7 180 71 190 59 75 38 172 
224 7 232 108 278 128 48 250 6 
225 5 156 255 104 308 176 
226 7 296 253 110 118 73 41 25 
227 7 167 35 16 275 165 221 107 
228 6 300 137 144 58 114 236 
229 7 57 15 117 147 257 203 121 
230 7 317 134 82 298 286 214 94 
231 7 309 288 92 201 210 120 146 
232 7 224 108 128 278 48 163 250 
233 7 235 297 2 318 313 46 20 
234 7 268 99 164 316 194 323 168 
235 6 233 297 318 313 2 46 
236 6 137 62 162 151 228 300 
237 7 171 129 48 187 320 139 128 
238 7 30 94 27 219 243 76 50 
239 7 251 264 13 127 9 42 150 
240 7 263 61 206 287 246 303 47 
241 7 64 87 95 60 90 144 325 
242 7 53 261 3 210 288 183 231 
243 7 50 295 290 106 286 238 319 
244 7 259 54 173 45 189 245 258 
245 7 45 189 84 244 270 173 253 
246 7 303 47 202 263 287 280 274 
247 7 212 80 77 154 299 56 187 
248 7 176 255 104 292 69 28 156 
249 7 193 217 310 266 67 132 306 
250 7 32 224 232 311 278 68 108 
251 7 239 127 264 13 9 42 178 
252 7 155 204 7 142 61 310 132 
253 7 296 226 110 84 25 45 189 
254 6 113 314 321 289 208 282 
255 7 104 176 156 248 225 111 200 
256 6 260 307 74 140 308 282 
257 7 14 20 229 15 57 117 147 
258 7 173 54 259 274 262 105 244 
259 7 54 173 258 244 274 262 189 
260 6 256 74 307 140 308 282 
261 7 242 53 210 288 231 183 3 
262 7 105 258 173 73 54 84 189 
263 7 246 303 47 202 240 280 287 
264 7 239 251 13 127 9 150 215 
265 7 133 85 78 22 283 5 81 
266 7 306 193 217 249 157 310 102 
267 7 136 124 86 185 166 7 39 
268 7 234 316 99 194 323 164 168 
269 7 184 158 102 157 180 71 190 
270 7 130 302 324 299 245 45 220 
271 7 207 122 44 70 88 322 23 
272 7 164 99 123 190 234 316 268 
273 7 6 186 139 278 168 129 108 
274 7 54 258 202 259 173 105 47 
275 7 196 107 301 16 35 3 227 
276 7 91 135 291 33 280 103 105 
277 7 195 103 211 33 198 291 276 
278 7 108 6 224 273 48 232 128 
279 7 219 76 319 281 88 106 125 
280 7 135 202 246 263 47 303 276 
281 7 279 88 29 319 219 76 44 
282 5 314 285 74 308 260 
283 7 85 265 133 163 22 5 78 
284 7 160 183 3 301 242 261 53 
285 7 326 113 282 36 314 4 74 
286 7 134 290 50 295 82 230 243 
287 7 303 47 61 246 142 204 240 
288 7 210 231 261 309 92 120 53 
289 7 28 79 69 149 292 248 254 
290 7 50 295 243 106 286 134 43 
291 7 91 276 24 135 294 33 211 
292 7 69 28 149 75 248 59 176 
293 7 34 52 93 8 216 97 56 
294 7 24 96 135 291 188 91 280 
295 7 50 290 243 106 286 319 43 
296 7 253 226 110 25 201 209 40 
297 6 235 318 233 313 46 2 
298 7 82 317 134 230 153 286 11 
299 7 324 130 302 247 270 67 212 
300 6 228 58 137 86 114 236 
301 7 3 275 196 160 107 35 242 
302 7 130 299 270 67 324 116 220 
303 7 47 246 202 263 287 280 274 
304 7 150 191 271 122 215 207 70 
305 7 161 89 138 175 119 49 22 
306 7 266 193 217 310 249 315 132 
307 7 74 260 256 140 308 282 162 
308 5 140 260 256 282 74 
309 7 92 201 231 120 288 210 25 
310 7 217 132 193 55 249 306 83 
311 7 115 68 32 5 163 250 78 
312 7 111 126 200 176 104 101 248 
313 5 318 297 46 214 235 
314 5 282 113 285 308 140 
315 7 101 126 7 306 266 252 312 
316 7 323 268 99 171 320 194 234 
317 7 230 214 298 82 134 153 286 
318 6 313 297 46 235 214 233 
319 7 279 106 219 295 198 243 50 
320 7 129 139 194 171 186 168 316 
321 7 192 37 4 113 36 254 326 
322 7 109 122 23 100 44 125 271 
323 7 316 171 268 99 320 194 234 
324 7 299 130 270 302 247 52 212 
325 6 144 159 95 66 241 114 
326 7 36 4 285 113 192 321 282 
DEPOT_SECTION
   1
   -1
EOF
