NAME :  X-n344-kX-w68-c7.cctp
COMMENT : 	Adapted by Maziero, Usberti and Cavellucci from the Uchoa, Pecin, Pessoa, Poggi, Subramanian, and Vidal (2013)
TYPE :  CCTP
DIMENSION :    228
EDGE_WEIGHT_TYPE : 	EUC_2D	
CAPACITY : 	61
VERTICES_WITHIN_COVERAGE :  7
VERTICES_WITH_DEMAND : 	68
NODE_COORD_SECTION
1 500 500
2 615 190
3 890 200
4 983 684
5 874 112
6 906 186
7 801 278
8 823 446
9 242 544
10 505 210
11 767 766
12 698 305
13 707 511
14 10 968
15 172 13
16 57 414
17 317 373
18 849 680
19 854 12
20 429 688
21 822 378
22 774 584
23 601 895
24 921 309
25 176 165
26 368 432
27 656 430
28 715 225
29 35 264
30 544 994
31 214 533
32 573 650
33 259 595
34 38 550
35 925 755
36 337 562
37 412 969
38 919 402
39 391 792
40 424 206
41 259 588
42 79 364
43 667 978
44 332 593
45 270 544
46 745 267
47 760 786
48 134 998
49 117 320
50 966 458
51 133 334
52 986 462
53 176 290
54 120 296
55 201 878
56 615 293
57 24 217
58 418 662
59 831 314
60 832 564
61 945 758
62 394 446
63 843 680
64 24 613
65 422 956
66 411 58
67 512 655
68 657 544
69 644 748
70 162 924
71 773 727
72 1 461
73 167 981
74 180 346
75 495 295
76 589 311
77 273 186
78 493 121
79 522 653
80 157 9
81 90 625
82 632 964
83 347 750
84 9 237
85 181 662
86 106 978
87 746 981
88 603 944
89 734 612
90 163 142
91 910 272
92 985 968
93 901 149
94 192 878
95 817 700
96 888 1
97 70 323
98 119 255
99 716 413
100 17 309
101 558 122
102 436 663
103 912 64
104 622 271
105 469 629
106 326 388
107 675 587
108 974 135
109 620 443
110 276 222
111 869 663
112 517 935
113 277 612
114 101 332
115 162 792
116 8 525
117 340 489
118 194 815
119 183 75
120 345 884
121 880 600
122 50 555
123 406 946
124 490 53
125 396 484
126 225 176
127 235 9
128 768 438
129 197 149
130 141 312
131 301 18
132 930 549
133 394 872
134 793 659
135 953 401
136 459 264
137 353 254
138 986 680
139 375 639
140 733 982
141 82 923
142 912 604
143 992 123
144 784 823
145 803 338
146 67 555
147 654 393
148 41 545
149 575 872
150 232 836
151 734 779
152 774 848
153 101 440
154 573 609
155 436 773
156 767 794
157 236 121
158 550 658
159 604 726
160 745 746
161 439 943
162 379 464
163 618 848
164 55 556
165 586 888
166 418 791
167 41 501
168 383 686
169 419 687
170 219 38
171 27 564
172 58 518
173 92 293
174 606 332
175 606 704
176 609 368
177 41 399
178 678 743
179 214 619
180 471 405
181 804 753
182 914 234
183 172 328
184 64 580
185 667 727
186 613 106
187 583 675
188 466 675
189 313 775
190 30 555
191 137 266
192 668 604
193 722 981
194 163 244
195 565 370
196 46 194
197 752 797
198 132 16
199 462 689
200 426 818
201 489 725
202 198 26
203 9 875
204 29 588
205 624 762
206 180 262
207 843 98
208 669 393
209 54 527
210 641 883
211 920 860
212 377 640
213 117 360
214 10 614
215 741 232
216 5 718
217 610 765
218 87 650
219 5 190
220 539 901
221 15 159
222 158 173
223 161 140
224 570 682
225 139 525
226 577 356
227 175 121
228 509 650
DEMAND_SECTION
2 7
3 10
4 7
5 8
6 9
7 8
8 5
9 7
10 7
11 5
12 10
13 8
14 6
15 7
16 7
17 5
18 9
19 10
20 10
21 7
22 5
23 9
24 10
25 10
26 8
27 5
28 9
29 7
30 6
31 8
32 5
33 8
34 7
35 6
36 6
37 10
38 10
39 9
40 6
41 8
42 9
43 9
44 7
45 10
46 5
47 10
48 6
49 5
50 7
51 9
52 10
53 7
54 10
55 5
56 10
57 8
58 9
59 5
60 8
61 10
62 6
63 8
64 5
65 7
66 5
67 5
68 10
69 5
COVERAGE_SECTION
2 5 104 186 101 56 28 
3 7 6 182 93 91 5 108 207 
4 7 138 61 35 142 111 121 18 
5 7 207 93 103 6 3 19 108 
6 7 3 93 182 5 108 91 143 
7 7 59 46 145 215 28 21 12 
8 7 128 21 38 145 99 60 59 
9 7 45 31 41 33 113 179 36 
10 7 136 40 75 78 101 2 76 
11 7 47 156 160 197 151 71 181 
12 7 46 28 104 56 215 208 174 
13 6 68 107 128 27 99 22 
14 6 141 203 86 48 70 73 
15 6 80 202 198 170 119 127 
16 7 177 153 42 72 213 167 97 
17 7 106 26 62 162 117 137 125 
18 7 63 111 95 134 121 181 71 
19 5 96 103 207 5 93 
20 7 169 102 58 199 188 168 201 
21 7 145 59 8 128 38 7 99 
22 5 89 60 134 13 107 
23 6 165 149 210 88 163 220 
24 7 91 182 59 38 135 3 21 
25 5 222 90 129 223 227 
26 7 62 162 125 106 117 17 180 
27 6 147 109 208 99 176 13 
28 7 215 46 12 7 104 2 56 
29 7 84 57 100 173 97 196 219 
30 6 112 88 82 220 23 165 
31 6 9 45 41 225 33 179 
32 7 158 187 224 154 79 67 175 
33 7 41 113 179 45 9 44 31 
34 7 148 190 122 164 171 209 146 
35 7 61 4 138 211 18 111 63 
36 7 44 45 117 113 41 33 139 
37 6 65 123 161 133 120 112 
38 7 135 50 52 24 21 8 59 
39 5 166 200 155 83 133 
40 7 136 10 137 78 75 66 110 
41 7 33 113 45 9 179 31 44 
42 7 213 114 97 177 16 49 51 
43 5 82 193 140 88 87 
44 7 36 113 139 212 33 41 45 
45 7 9 41 33 31 113 36 44 
46 7 215 28 7 12 145 59 104 
47 7 156 197 11 151 160 144 181 
48 7 86 73 70 141 14 94 55 
49 7 114 51 54 130 173 213 97 
50 7 52 135 38 132 8 24 142 
51 7 49 130 213 114 183 54 74 
52 7 50 135 38 132 142 8 24 
53 7 206 183 130 191 194 54 74 
54 7 49 130 173 191 51 98 114 
55 6 94 150 70 118 115 73 
56 7 104 76 174 226 176 12 195 
57 5 84 196 219 29 221 
58 7 102 169 20 168 212 139 188 
59 7 145 7 21 91 24 46 182 
60 7 121 22 142 132 134 111 89 
61 7 35 4 138 211 111 18 63 
62 6 162 26 125 117 180 106 
63 7 18 111 95 134 181 71 121 
64 7 214 204 171 184 190 122 34 
65 5 37 123 161 133 112 
66 5 124 78 131 40 101 
67 7 228 79 158 105 188 199 32 
68 3 107 13 192 
69 6 205 185 178 217 159 175 
70 6 94 73 55 86 48 141 
71 4 160 11 181 95 
72 6 167 116 16 177 172 209 
73 6 48 70 86 141 94 55 
74 7 183 51 130 53 213 49 54 
75 7 136 10 76 226 195 180 40 
76 7 174 56 226 104 176 195 75 
77 6 110 126 157 129 25 137 
78 6 101 124 10 66 40 186 
79 7 67 228 158 32 224 105 188 
80 5 15 198 202 170 119 
81 6 218 184 64 204 146 164 
82 5 88 43 23 210 165 
83 7 189 39 168 166 155 169 20 
84 6 57 29 219 196 100 221 
85 6 179 218 81 33 41 113 
86 6 48 141 73 70 14 94 
87 3 140 193 43 
88 7 82 23 165 43 210 30 149 
89 4 22 107 192 134 
90 5 223 227 25 222 129 
91 7 182 24 3 6 59 7 93 
92 2 211 61 
93 7 6 5 3 108 207 103 182 
94 6 55 70 150 118 115 73 
95 7 63 18 134 71 181 111 11 
96 6 19 103 207 5 93 108 
97 7 114 173 42 49 100 54 213 
98 7 191 54 194 173 130 206 49 
99 7 208 128 27 147 13 109 12 
100 7 29 97 84 173 42 114 57 
101 5 186 78 2 124 10 
102 7 58 20 169 188 199 105 168 
103 7 5 96 207 19 93 108 143 
104 7 56 76 174 2 12 226 176 
105 6 228 188 102 67 79 199 
106 7 17 26 62 162 117 125 137 
107 4 192 68 89 13 
108 7 143 93 6 103 5 3 182 
109 4 27 147 208 176 
110 7 77 126 137 206 129 157 25 
111 7 18 63 95 121 142 134 60 
112 3 220 30 161 
113 7 33 41 44 179 45 9 36 
114 7 49 51 97 213 42 173 54 
115 4 118 150 94 55 
116 7 190 34 148 167 171 209 172 
117 7 162 125 26 62 36 45 106 
118 5 115 150 55 94 70 
119 4 227 202 170 15 
120 7 133 123 39 200 65 37 161 
121 7 142 60 111 132 18 63 134 
122 7 164 34 148 146 190 171 209 
123 5 65 37 161 133 120 
124 3 78 66 101 
125 6 162 62 117 26 36 180 
126 7 129 77 25 157 222 110 90 
127 6 170 202 15 131 80 119 
128 7 8 99 21 13 145 208 27 
129 7 25 90 227 223 126 222 157 
130 7 51 49 54 183 53 114 191 
131 6 127 170 202 66 157 15 
132 7 142 121 50 60 52 111 138 
133 6 120 200 123 39 161 166 
134 7 95 63 18 71 89 111 22 
135 7 38 50 52 24 21 91 8 
136 7 75 40 10 137 76 180 78 
137 7 110 40 77 136 17 106 75 
138 7 4 61 35 142 111 121 18 
139 7 212 168 58 44 169 102 20 
140 3 193 87 43 
141 6 86 70 14 203 48 73 
142 7 121 132 111 60 18 63 138 
143 7 108 93 103 6 5 3 182 
144 5 152 156 197 47 11 
145 7 59 21 7 46 128 8 12 
146 7 164 122 184 148 34 209 190 
147 7 208 27 176 109 99 174 226 
148 7 34 122 190 164 209 171 146 
149 5 165 23 220 163 210 
150 6 118 55 94 115 189 70 
151 5 197 47 11 160 156 
152 4 144 156 197 47 
153 5 16 177 42 213 167 
154 5 32 158 79 187 224 
155 3 166 200 39 
156 7 47 197 11 144 151 160 152 
157 6 129 126 227 119 25 77 
158 7 32 79 224 187 67 228 154 
159 6 175 217 205 69 187 224 
160 3 11 71 151 
161 5 65 123 37 112 133 
162 6 62 125 26 117 106 36 
163 4 210 149 23 165 
164 7 122 146 34 148 190 184 171 
165 6 23 149 220 163 210 88 
166 3 155 39 200 
167 6 172 209 116 148 34 122 
168 7 169 58 20 212 139 102 83 
169 7 20 58 102 168 199 188 212 
170 5 202 127 119 15 80 
171 7 190 34 148 204 122 164 184 
172 6 209 167 148 34 122 146 
173 7 54 49 97 114 98 191 130 
174 7 76 176 226 56 195 104 147 
175 5 159 187 224 69 205 
176 7 226 174 195 147 76 208 56 
177 7 16 42 153 72 97 213 114 
178 2 185 69 
179 7 33 85 41 113 9 31 45 
180 5 62 195 26 125 162 
181 7 11 71 47 95 156 160 197 
182 7 91 3 6 24 93 59 108 
183 7 74 130 53 51 49 54 213 
184 7 146 164 122 204 34 171 148 
185 2 178 69 
186 2 101 2 
187 6 224 32 158 175 159 79 
188 7 199 102 20 105 169 58 67 
189 7 83 39 150 166 168 120 200 
190 7 34 171 148 122 164 204 116 
191 7 98 54 194 206 53 130 173 
192 3 107 68 89 
193 4 140 87 43 82 
194 6 206 191 98 53 54 130 
195 6 226 176 174 76 109 56 
196 3 57 219 221 
197 6 47 156 151 11 144 160 
198 3 80 15 202 
199 7 188 20 102 169 201 58 67 
200 3 166 39 155 
201 4 199 188 20 155 
202 6 170 15 127 80 119 198 
203 5 141 14 86 216 70 
204 7 171 64 214 190 184 34 122 
205 6 217 69 159 185 178 175 
206 7 194 53 191 98 130 183 54 
207 7 5 93 103 19 96 6 3 
208 7 147 27 99 176 109 174 12 
209 7 172 148 34 122 164 167 146 
210 3 23 163 165 
211 3 35 61 92 
212 7 139 168 58 102 169 44 20 
213 7 51 114 42 49 130 97 54 
214 7 64 204 171 190 184 34 122 
215 7 28 46 7 12 59 145 104 
216 5 214 64 218 81 204 
217 3 205 69 159 
218 6 81 64 184 204 214 85 
219 4 57 221 196 84 
220 4 112 149 165 23 
221 3 219 196 57 
222 3 25 90 223 
223 5 90 227 25 222 129 
224 7 187 158 32 175 79 159 67 
225 3 31 146 172 
226 7 195 176 174 76 56 147 104 
227 5 90 223 129 25 119 
228 7 67 79 158 105 188 199 32 
DEPOT_SECTION
   1
   -1
EOF
