NAME :  X-n303-kX-w60-c11.cctp
COMMENT : 	Adapted by Maziero, Usberti and Cavellucci from the Uchoa, Pecin, Pessoa, Poggi, Subramanian, and Vidal (2013)
TYPE :  CCTP
DIMENSION :    291
EDGE_WEIGHT_TYPE : 	EUC_2D	
CAPACITY : 	794
VERTICES_WITHIN_COVERAGE :  11
VERTICES_WITH_DEMAND : 	60
NODE_COORD_SECTION
1 500 500
2 205 638
3 893 161
4 191 775
5 444 871
6 225 445
7 368 543
8 120 270
9 612 902
10 45 323
11 707 182
12 125 720
13 442 388
14 79 759
15 904 76
16 379 849
17 213 595
18 164 686
19 404 947
20 331 615
21 842 156
22 272 297
23 957 227
24 274 481
25 287 544
26 152 403
27 873 146
28 267 415
29 188 727
30 594 742
31 198 429
32 810 797
33 383 602
34 459 786
35 50 183
36 395 836
37 600 866
38 192 744
39 12 705
40 869 99
41 233 811
42 235 638
43 423 904
44 220 619
45 236 713
46 960 141
47 128 321
48 160 230
49 200 650
50 104 544
51 375 638
52 540 726
53 635 790
54 512 597
55 643 517
56 327 750
57 198 412
58 375 558
59 123 259
60 365 859
61 545 700
62 242 431
63 140 412
64 316 413
65 145 764
66 892 246
67 331 828
68 231 342
69 676 810
70 211 378
71 197 538
72 808 113
73 129 655
74 84 714
75 416 784
76 151 243
77 275 442
78 46 355
79 182 746
80 158 717
81 198 648
82 137 763
83 206 872
84 30 301
85 979 214
86 384 855
87 212 794
88 35 779
89 108 640
90 186 930
91 623 977
92 231 796
93 402 932
94 166 237
95 341 803
96 559 851
97 883 143
98 395 327
99 382 787
100 341 784
101 180 530
102 81 261
103 379 700
104 721 333
105 312 756
106 424 573
107 596 878
108 273 514
109 281 417
110 125 528
111 464 893
112 140 413
113 256 250
114 206 384
115 204 563
116 202 159
117 283 520
118 214 494
119 854 142
120 502 839
121 599 889
122 485 898
123 339 73
124 396 959
125 192 533
126 234 702
127 811 101
128 266 346
129 867 211
130 185 436
131 61 374
132 843 188
133 156 795
134 387 889
135 622 16
136 235 894
137 327 991
138 867 172
139 329 496
140 930 115
141 371 317
142 416 575
143 408 744
144 98 434
145 468 990
146 239 775
147 231 748
148 251 398
149 311 725
150 913 135
151 928 399
152 444 596
153 337 519
154 294 981
155 625 824
156 153 530
157 124 342
158 615 881
159 534 826
160 454 888
161 639 789
162 48 353
163 200 704
164 50 483
165 269 610
166 54 300
167 346 588
168 617 832
169 867 63
170 304 240
171 129 675
172 293 547
173 110 597
174 868 126
175 190 760
176 894 162
177 209 696
178 400 495
179 283 657
180 649 872
181 198 370
182 824 202
183 275 889
184 904 169
185 511 600
186 224 441
187 674 949
188 627 952
189 7 213
190 155 218
191 593 802
192 817 211
193 212 351
194 843 191
195 616 902
196 230 561
197 459 554
198 585 595
199 204 614
200 698 970
201 425 539
202 430 850
203 498 758
204 437 622
205 107 483
206 119 764
207 265 615
208 547 481
209 324 762
210 723 745
211 163 928
212 308 513
213 339 599
214 314 814
215 316 598
216 183 159
217 325 348
218 163 480
219 595 727
220 303 866
221 350 700
222 920 82
223 105 238
224 111 18
225 437 482
226 88 300
227 464 929
228 544 846
229 201 233
230 353 729
231 302 404
232 708 855
233 739 843
234 198 250
235 55 143
236 257 410
237 26 411
238 832 234
239 207 344
240 212 757
241 277 453
242 274 472
243 272 828
244 875 101
245 434 975
246 647 943
247 317 866
248 391 393
249 612 815
250 217 666
251 229 740
252 630 918
253 125 704
254 545 898
255 184 757
256 985 201
257 448 998
258 117 784
259 359 490
260 292 715
261 365 531
262 503 795
263 21 220
264 225 872
265 387 551
266 895 120
267 476 868
268 281 586
269 609 944
270 868 164
271 148 748
272 168 463
273 364 550
274 844 163
275 465 614
276 214 637
277 189 582
278 94 186
279 863 190
280 676 800
281 175 686
282 393 400
283 172 614
284 320 504
285 35 206
286 182 671
287 356 599
288 88 215
289 608 775
290 481 721
291 449 751
DEMAND_SECTION
2 20
3 14
4 85
5 33
6 51
7 78
8 51
9 85
10 74
11 4
12 13
13 2
14 33
15 16
16 31
17 16
18 18
19 3
20 66
21 42
22 65
23 15
24 3
25 38
26 81
27 82
28 83
29 86
30 1
31 59
32 69
33 1
34 58
35 98
36 37
37 65
38 92
39 44
40 86
41 83
42 68
43 52
44 82
45 66
46 34
47 33
48 18
49 39
50 97
51 29
52 6
53 74
54 20
55 2
56 89
57 48
58 53
59 57
60 80
61 26
COVERAGE_SECTION
2 11 276 81 49 44 199 42 250 286 283 17 281 
3 11 176 184 97 27 270 138 150 266 279 119 174 
4 11 175 255 87 240 79 38 133 92 65 29 146 
5 11 160 202 111 267 43 122 36 134 227 86 120 
6 11 186 62 31 130 57 236 77 118 28 241 148 
7 11 273 261 58 265 153 167 259 201 287 142 178 
8 11 59 223 102 76 226 47 48 94 190 288 157 
9 11 195 121 158 252 107 37 269 180 188 246 254 
10 11 166 84 162 78 226 131 102 157 47 237 8 
11 11 192 182 72 127 238 132 194 21 274 104 119 
12 11 253 80 271 74 206 82 171 65 18 14 281 
13 8 282 248 98 225 141 178 217 64 
14 11 206 74 258 88 82 12 65 271 253 133 39 
15 11 222 244 169 40 266 140 150 174 97 27 119 
16 11 86 60 36 134 202 67 95 99 247 5 43 
17 11 199 44 277 115 196 276 2 283 42 81 207 
18 11 281 286 80 171 163 253 177 73 29 49 81 
19 10 124 93 245 43 134 227 257 145 160 111 
20 11 213 215 287 167 51 33 268 165 179 207 58 
21 11 274 119 270 138 132 27 194 174 279 97 182 
22 11 128 113 68 170 217 239 193 234 229 70 141 
23 11 85 256 66 184 46 129 176 3 279 150 138 
24 11 242 241 108 77 117 212 284 139 62 6 118 
25 11 172 117 108 212 268 284 153 196 215 24 139 
26 11 63 112 57 130 31 114 181 144 272 70 157 
27 11 97 119 270 174 3 176 138 21 266 274 184 
28 11 236 109 148 77 62 231 241 64 186 6 242 
29 11 38 79 163 255 80 175 177 240 251 281 271 
30 11 219 289 52 191 53 61 161 249 155 168 203 
31 11 130 57 186 6 62 272 114 26 70 181 63 
32 8 233 210 232 280 69 161 53 180 
33 11 287 51 167 142 213 58 106 265 20 273 204 
34 11 291 75 262 203 143 120 290 202 99 36 267 
35 11 285 235 278 263 288 189 223 102 59 190 8 
36 11 16 86 60 202 99 134 75 5 95 67 43 
37 11 107 158 121 9 168 195 96 155 180 249 228 
38 11 79 255 175 29 240 4 251 147 163 80 271 
39 11 74 88 14 253 12 89 171 206 73 258 82 
40 11 244 174 266 169 15 97 119 27 222 150 127 
41 11 92 87 146 243 4 240 264 147 83 175 251 
42 11 276 44 2 250 49 81 207 199 165 17 179 
43 11 93 160 5 134 111 19 227 202 124 122 86 
44 11 199 276 2 42 17 81 49 207 250 277 283 
45 11 126 251 177 147 163 29 240 250 38 260 146 
46 11 140 150 184 256 266 176 3 222 85 97 15 
47 11 157 226 8 59 102 166 76 239 10 26 131 
48 11 94 190 76 229 234 59 223 8 288 216 278 
49 11 81 2 276 250 286 199 42 44 281 283 177 
50 11 110 156 173 205 101 164 218 125 71 277 89 
51 11 33 287 20 213 167 103 204 221 215 142 58 
52 11 61 203 219 30 290 262 289 191 291 159 34 
53 11 161 289 249 155 280 191 69 168 30 219 180 
54 11 185 275 152 197 198 204 106 142 201 61 208 
55 11 198 208 54 185 197 104 275 61 225 152 219 
56 11 209 105 149 230 100 260 95 221 214 99 103 
57 11 31 130 114 70 186 181 6 26 62 148 63 
58 11 265 273 7 261 167 142 33 287 106 201 153 
59 11 8 223 76 102 48 94 190 226 288 47 234 
60 11 16 86 134 36 67 247 95 220 202 214 43 
61 11 52 219 30 290 203 289 262 185 54 291 198 
62 11 186 6 236 28 148 77 109 241 31 57 242 
63 11 112 26 144 130 57 272 31 114 157 181 218 
64 9 231 109 28 77 241 236 217 148 242 
65 11 82 271 206 133 258 255 79 175 4 12 80 
66 10 129 238 279 23 194 132 138 184 182 192 
67 11 214 95 247 100 60 220 16 86 243 36 99 
68 11 193 239 128 70 181 114 148 22 236 57 28 
69 11 280 161 53 155 232 168 249 180 233 289 210 
70 11 114 181 193 239 57 68 148 31 236 62 26 
71 11 125 101 115 196 156 277 118 17 218 110 199 
72 11 127 119 21 174 274 40 244 27 169 270 97 
73 11 171 89 18 253 281 286 283 173 12 80 81 
74 11 12 253 14 171 206 82 271 39 73 80 258 
75 11 99 143 34 291 36 202 16 100 95 86 230 
76 11 48 94 190 59 8 223 234 229 288 102 47 
77 11 241 109 28 242 62 236 24 231 6 64 148 
78 11 162 131 10 84 166 237 226 157 47 144 102 
79 11 38 255 175 29 4 240 271 80 65 163 251 
80 11 18 29 12 271 253 281 79 38 163 255 65 
81 11 49 2 276 250 286 199 44 42 283 281 177 
82 11 65 206 271 258 133 12 255 79 80 175 4 
83 11 264 136 90 41 183 211 87 243 92 133 220 
84 11 166 10 162 78 226 102 131 263 189 8 285 
85 11 256 23 46 184 66 176 3 150 140 129 279 
86 11 16 60 36 134 202 67 5 43 95 99 247 
87 11 92 41 4 146 240 175 255 147 38 133 79 
88 11 14 39 74 258 206 82 12 65 253 271 133 
89 11 73 171 173 253 283 18 74 286 281 12 81 
90 11 211 83 136 264 183 154 41 220 243 87 133 
91 10 188 269 246 187 252 195 200 9 121 158 
92 11 41 87 146 240 4 147 243 175 251 255 38 
93 10 19 124 43 134 245 227 160 111 5 86 
94 11 48 76 190 229 234 59 8 223 216 288 116 
95 11 100 67 214 99 209 56 105 16 60 36 86 
96 11 228 159 37 107 254 121 120 191 168 158 249 
97 11 27 3 176 174 266 270 119 150 138 184 21 
98 9 141 248 217 282 13 64 231 170 22 
99 11 75 100 95 143 36 16 209 67 230 56 86 
100 11 95 209 56 105 214 99 67 230 149 16 36 
101 11 125 71 156 115 118 218 277 110 196 272 17 
102 11 223 8 226 59 166 288 84 10 76 285 263 
103 11 221 230 143 51 56 149 209 99 105 291 260 
104 10 238 11 192 182 194 132 129 66 55 279 
105 11 209 56 149 100 260 230 95 214 221 67 146 
106 11 142 152 201 197 265 33 58 204 275 7 273 
107 11 121 37 158 9 195 96 168 252 180 254 155 
108 11 117 24 25 212 172 242 284 139 241 118 153 
109 11 28 231 236 77 64 148 241 62 242 186 6 
110 11 50 156 205 101 218 125 173 71 272 277 115 
111 8 160 122 267 5 227 43 202 120 
112 11 63 26 144 130 272 57 31 218 114 181 157 
113 11 170 22 229 234 94 68 128 48 76 116 190 
114 11 70 181 57 193 239 31 148 68 130 26 236 
115 11 277 71 196 125 17 101 199 44 283 156 118 
116 11 216 229 190 48 94 234 76 113 278 223 59 
117 11 108 25 212 172 24 284 242 139 153 268 196 
118 11 125 71 6 101 218 186 272 24 108 242 130 
119 11 21 27 174 274 270 97 138 3 176 40 244 
120 10 159 267 228 262 96 122 5 111 34 160 
121 11 107 9 158 195 37 252 180 96 254 269 168 
122 8 111 267 160 227 5 254 120 43 
123 11 116 170 216 113 229 234 22 190 224 48 94 
124 10 19 93 245 43 257 134 227 137 145 160 
125 11 71 101 115 156 118 196 277 218 17 110 272 
126 11 45 177 163 251 250 147 29 38 240 260 281 
127 11 72 40 119 174 21 244 169 274 27 97 270 
128 11 68 22 148 193 217 239 70 236 231 28 114 
129 11 279 194 132 138 238 66 182 270 192 274 3 
130 11 31 57 272 186 6 26 218 63 112 114 62 
131 11 78 162 237 10 144 157 166 84 226 47 63 
132 11 194 279 182 274 138 21 129 192 270 119 238 
133 11 65 82 4 258 255 206 271 175 79 87 38 
134 11 86 60 43 16 93 36 202 5 19 160 124 
135 11 11 127 72 169 21 40 119 274 244 174 182 
136 11 264 83 183 90 220 243 211 41 247 92 87 
137 11 154 124 19 93 245 183 134 257 247 220 43 
138 11 270 279 274 27 3 132 176 21 194 97 119 
139 11 284 153 212 259 261 117 24 108 242 7 172 
140 11 150 222 266 46 15 97 244 3 176 184 40 
141 10 98 217 248 282 13 22 170 128 64 231 
142 11 106 152 201 265 33 58 197 204 7 273 275 
143 11 75 291 99 103 230 34 221 290 100 56 209 
144 11 63 112 205 26 164 131 237 272 218 130 78 
145 7 257 245 227 19 124 93 122 
146 11 92 147 240 87 41 251 4 175 38 255 45 
147 11 251 240 146 45 38 175 126 4 29 92 255 
148 11 236 28 62 109 70 114 77 186 231 6 128 
149 11 260 56 105 209 230 221 100 103 179 45 126 
150 11 266 140 97 3 176 184 27 174 46 244 222 
151 10 66 23 238 85 129 256 104 192 279 182 
152 11 204 275 106 142 197 201 33 185 54 265 58 
153 11 284 139 212 261 259 7 273 172 58 117 25 
154 11 137 183 124 136 19 220 247 90 93 264 134 
155 11 168 249 53 161 191 37 289 69 180 280 158 
156 11 101 110 125 71 50 218 115 277 205 272 118 
157 11 47 226 26 131 8 63 112 162 78 181 10 
158 11 121 107 9 37 195 180 252 168 155 269 96 
159 11 228 96 120 262 191 267 254 37 203 249 107 
160 10 111 5 267 122 43 227 202 134 93 120 
161 11 53 289 249 155 280 69 168 191 30 219 180 
162 11 78 131 10 166 84 237 226 157 47 144 102 
163 11 177 29 281 126 45 286 18 38 250 80 79 
164 11 205 144 237 50 110 131 156 218 112 63 272 
165 11 207 268 42 179 215 44 17 276 20 196 199 
166 11 84 10 226 102 162 78 8 131 47 59 223 
167 11 213 287 20 215 33 58 273 7 265 51 261 
168 11 155 249 37 191 53 161 158 107 180 289 121 
169 11 40 15 244 222 174 266 127 72 119 97 140 
170 11 113 22 141 229 234 217 128 68 98 116 94 
171 11 73 253 18 89 12 281 80 286 74 81 49 
172 11 25 117 212 108 268 284 153 215 139 196 165 
173 11 89 50 73 283 110 156 171 277 199 101 115 
174 11 27 119 97 244 40 266 270 21 3 176 274 
175 11 255 4 38 79 240 29 87 147 251 271 65 
176 11 3 184 97 27 270 138 150 266 279 174 119 
177 11 163 126 250 45 281 29 286 18 49 251 81 
178 10 225 259 261 201 265 7 273 153 58 139 
179 11 207 165 42 260 20 126 250 215 268 276 45 
180 11 158 195 9 37 252 168 107 121 155 232 69 
181 11 70 114 193 239 57 68 26 31 148 130 236 
182 11 192 194 132 238 279 129 274 21 138 270 119 
183 11 220 136 247 264 243 83 67 214 41 154 60 
184 11 176 3 97 150 270 138 27 279 266 129 174 
185 11 54 275 152 197 198 204 106 142 201 61 208 
186 11 6 62 31 57 130 236 28 77 148 118 241 
187 8 246 200 188 252 91 269 195 9 
188 11 269 246 91 252 187 195 9 121 158 200 107 
189 11 263 285 35 288 235 102 84 278 166 223 10 
190 11 48 94 76 229 59 223 234 8 216 288 278 
191 11 249 289 168 155 53 161 30 96 37 159 228 
192 10 182 238 194 132 129 279 274 21 138 270 
193 11 239 68 181 70 114 128 148 57 236 26 31 
194 11 132 279 182 274 129 138 192 21 270 238 119 
195 11 9 121 158 252 107 37 269 180 188 246 168 
196 11 115 17 71 277 125 268 25 44 101 199 165 
197 11 201 106 152 142 275 54 185 204 265 225 178 
198 11 54 185 55 61 208 275 219 197 52 152 30 
199 11 44 17 2 276 283 81 277 49 42 115 250 
200 8 187 246 188 91 252 269 195 9 
201 11 106 142 197 265 178 58 7 225 152 261 273 
202 11 5 36 160 86 267 16 43 111 134 60 75 
203 11 262 290 34 291 52 61 159 120 75 143 30 
204 11 152 275 106 142 33 51 197 185 54 201 287 
205 11 110 144 218 164 50 272 156 112 63 101 130 
206 11 82 258 65 271 14 12 133 253 74 80 255 
207 11 165 268 42 44 179 215 17 276 199 2 196 
208 11 55 225 197 198 54 185 201 13 178 106 152 
209 11 56 105 100 149 95 230 214 260 99 67 221 
210 11 280 69 161 53 233 32 232 289 155 30 219 
211 11 90 83 136 264 183 133 41 154 87 92 243 
212 11 284 117 139 153 108 25 172 24 242 259 261 
213 11 167 287 20 215 33 51 58 273 268 7 265 
214 11 67 95 100 243 247 209 220 105 56 60 99 
215 11 20 213 167 268 287 165 207 172 25 33 179 
216 11 116 190 48 229 94 76 234 278 288 223 59 
217 9 141 128 231 64 98 22 248 109 282 
218 11 272 130 156 101 118 205 125 110 31 71 6 
219 11 30 289 52 61 53 191 161 249 155 203 168 
220 11 247 183 67 243 214 60 95 136 16 264 86 
221 11 103 230 149 56 260 51 209 105 143 179 100 
222 11 15 140 266 244 150 40 169 174 46 97 27 
223 11 59 288 102 8 76 278 190 48 94 226 285 
224 11 235 216 116 278 35 288 285 190 48 223 189 
225 10 178 201 197 259 265 261 7 106 282 13 
226 11 166 102 8 47 10 59 157 84 223 162 78 
227 9 111 122 160 43 245 5 145 93 267 
228 10 96 159 120 254 37 107 262 191 121 267 
229 11 234 94 48 190 76 113 116 216 59 8 22 
230 11 221 56 103 149 209 105 100 143 260 99 95 
231 9 64 109 28 236 77 148 241 217 62 
232 9 233 69 180 280 155 168 161 158 53 
233 8 232 69 280 32 180 210 161 155 
234 11 229 94 48 76 190 113 59 8 22 116 216 
235 11 35 278 285 288 263 189 223 102 190 216 59 
236 11 28 148 109 62 77 186 231 6 241 70 114 
237 11 131 78 162 144 164 10 205 84 63 112 166 
238 10 192 182 129 194 132 279 66 138 274 21 
239 11 193 68 181 70 114 128 57 148 22 26 47 
240 11 147 175 38 251 4 255 79 146 87 29 92 
241 11 77 242 24 109 28 62 236 6 186 231 64 
242 11 24 241 77 108 117 62 212 109 6 284 28 
243 11 41 214 220 92 67 247 183 146 264 87 95 
244 11 40 174 266 15 169 97 27 119 222 150 140 
245 8 257 145 19 124 93 227 43 111 
246 10 188 187 252 269 91 195 9 200 158 180 
247 11 220 67 183 60 214 243 16 95 86 134 36 
248 8 282 13 98 64 141 217 231 225 
249 11 155 168 191 53 161 289 37 69 96 107 158 
250 11 49 81 276 2 177 42 286 126 163 44 281 
251 11 147 240 45 146 38 126 29 175 163 79 177 
252 11 195 9 246 269 188 158 121 180 107 187 91 
253 11 12 171 80 74 18 73 271 281 82 206 65 
254 9 96 228 107 121 122 37 9 195 158 
255 11 175 79 38 4 240 29 271 65 87 82 133 
256 11 85 23 46 184 150 176 3 140 66 97 129 
257 7 145 245 124 19 227 93 43 
258 11 206 82 65 133 14 271 12 255 4 79 74 
259 9 139 153 178 261 284 7 212 273 265 
260 11 149 105 56 45 209 126 179 221 230 251 147 
261 11 7 273 58 153 265 259 139 178 284 167 212 
262 11 203 120 159 34 228 291 290 52 267 96 75 
263 11 189 285 35 288 102 84 278 235 223 166 226 
264 11 83 136 183 41 243 90 92 220 87 211 247 
265 11 58 7 273 261 142 201 106 33 167 178 287 
266 11 150 97 174 244 40 27 140 3 176 15 222 
267 9 111 160 122 5 120 202 227 43 228 
268 11 165 207 215 172 25 196 20 213 167 117 17 
269 11 188 252 91 246 9 195 121 158 187 107 37 
270 11 138 27 274 3 97 119 176 279 21 132 184 
271 11 65 82 80 206 79 12 255 38 175 29 133 
272 11 218 130 31 118 112 63 57 6 186 26 205 
273 11 7 58 261 265 153 167 287 33 213 142 259 
274 11 21 119 270 132 138 194 279 27 97 174 182 
275 11 152 204 185 54 106 197 142 33 201 51 265 
276 11 2 44 49 81 42 199 250 17 286 283 207 
277 11 115 17 199 283 71 196 44 125 101 2 276 
278 11 288 35 223 235 285 190 102 48 59 76 263 
279 11 138 132 194 129 270 274 21 182 3 176 27 
280 11 69 161 53 155 232 249 168 210 289 233 180 
281 11 18 286 163 80 177 29 49 81 171 250 253 
282 8 248 13 98 64 141 217 231 225 
283 11 199 277 2 81 17 49 44 276 286 73 115 
284 11 139 212 153 117 259 108 24 172 25 261 242 
285 11 263 35 189 288 278 235 102 223 84 166 59 
286 11 281 18 49 81 250 177 163 2 276 80 171 
287 11 167 213 33 20 215 51 58 273 7 265 142 
288 11 223 278 102 35 285 59 8 190 263 76 48 
289 11 53 191 161 30 249 219 155 168 280 69 52 
290 11 203 291 52 61 34 143 262 75 103 204 275 
291 11 34 143 290 75 203 262 99 103 52 230 36 
DEPOT_SECTION
   1
   -1
EOF
