NAME :  X-n359-kX-w143-c7.cctp
COMMENT : 	Adapted by Maziero, Usberti and Cavellucci from the Uchoa, Pecin, Pessoa, Poggi, Subramanian, and Vidal (2013)
TYPE :  CCTP
DIMENSION :    324
EDGE_WEIGHT_TYPE : 	EUC_2D	
CAPACITY : 	68
VERTICES_WITHIN_COVERAGE :  7
VERTICES_WITH_DEMAND : 	143
NODE_COORD_SECTION
1 0 0
2 865 693
3 633 220
4 173 361
5 89 714
6 350 102
7 301 24
8 834 663
9 841 997
10 394 790
11 276 488
12 779 312
13 939 66
14 595 462
15 940 964
16 459 459
17 432 280
18 379 338
19 128 439
20 401 22
21 69 887
22 499 657
23 633 46
24 713 182
25 806 525
26 540 169
27 696 559
28 577 888
29 298 725
30 410 644
31 512 889
32 756 352
33 405 407
34 850 365
35 731 588
36 90 553
37 691 383
38 926 631
39 955 351
40 998 736
41 921 854
42 532 257
43 238 513
44 976 912
45 565 912
46 893 74
47 590 548
48 99 355
49 294 39
50 58 429
51 471 573
52 520 109
53 486 611
54 409 682
55 296 843
56 970 479
57 717 390
58 152 711
59 934 255
60 257 539
61 270 31
62 823 409
63 203 849
64 770 627
65 630 581
66 786 186
67 380 300
68 973 847
69 985 975
70 732 465
71 690 428
72 910 568
73 725 539
74 181 186
75 814 694
76 702 927
77 946 492
78 984 305
79 385 696
80 48 323
81 944 440
82 813 293
83 490 676
84 729 923
85 719 883
86 675 637
87 167 14
88 98 159
89 476 709
90 402 339
91 911 734
92 590 230
93 122 698
94 154 418
95 165 998
96 217 599
97 766 21
98 922 407
99 831 607
100 70 494
101 220 740
102 19 855
103 759 507
104 818 409
105 503 304
106 595 827
107 254 282
108 205 607
109 331 57
110 118 404
111 576 658
112 558 611
113 629 732
114 893 182
115 435 1000
116 279 715
117 20 953
118 548 774
119 496 813
120 349 474
121 335 732
122 540 305
123 878 245
124 827 211
125 104 976
126 656 920
127 648 585
128 350 517
129 62 979
130 508 277
131 334 759
132 635 743
133 649 927
134 39 50
135 411 837
136 974 509
137 504 398
138 19 430
139 810 528
140 737 202
141 972 859
142 547 622
143 413 683
144 877 471
145 600 166
146 548 346
147 558 792
148 419 734
149 639 70
150 276 341
151 534 486
152 972 672
153 542 709
154 816 858
155 82 38
156 217 733
157 466 112
158 575 165
159 902 861
160 418 631
161 771 702
162 795 46
163 138 5
164 915 845
165 520 788
166 40 301
167 896 668
168 979 70
169 708 244
170 729 682
171 548 962
172 117 144
173 520 207
174 145 21
175 255 152
176 107 992
177 28 34
178 107 305
179 401 230
180 112 589
181 529 286
182 216 3
183 778 364
184 28 601
185 391 879
186 202 620
187 426 897
188 214 579
189 113 474
190 627 244
191 231 754
192 177 670
193 65 564
194 901 548
195 487 364
196 551 304
197 199 82
198 87 556
199 121 56
200 533 339
201 808 521
202 469 118
203 295 874
204 56 693
205 216 871
206 535 245
207 842 471
208 503 305
209 308 837
210 961 296
211 826 569
212 174 696
213 43 500
214 205 604
215 331 845
216 432 273
217 855 178
218 873 388
219 424 751
220 542 285
221 488 909
222 762 518
223 789 357
224 345 822
225 747 371
226 713 446
227 369 251
228 698 450
229 3 588
230 506 201
231 757 309
232 704 231
233 473 390
234 464 803
235 421 108
236 365 678
237 906 598
238 629 171
239 825 513
240 698 501
241 388 234
242 439 423
243 459 289
244 471 327
245 604 395
246 572 247
247 558 240
248 545 331
249 506 369
250 944 585
251 910 401
252 394 969
253 792 316
254 810 560
255 382 413
256 192 713
257 496 377
258 685 290
259 10 689
260 922 524
261 853 524
262 213 1
263 134 686
264 339 114
265 589 389
266 230 921
267 925 326
268 711 580
269 783 347
270 469 295
271 937 179
272 484 277
273 827 338
274 609 272
275 252 100
276 139 153
277 163 74
278 418 326
279 310 884
280 534 795
281 107 632
282 736 184
283 813 324
284 905 465
285 512 606
286 585 237
287 563 124
288 776 365
289 74 70
290 366 809
291 227 41
292 809 407
293 708 477
294 603 175
295 810 671
296 912 508
297 386 964
298 298 510
299 811 456
300 520 274
301 745 382
302 840 409
303 447 976
304 802 428
305 620 904
306 105 482
307 488 418
308 727 551
309 103 669
310 802 408
311 467 119
312 210 439
313 121 700
314 187 40
315 714 401
316 120 657
317 436 316
318 243 453
319 630 277
320 257 149
321 438 350
322 294 195
323 573 339
324 379 644
DEMAND_SECTION
2 10
3 8
4 9
5 7
6 9
7 1
8 3
9 1
10 8
11 10
12 8
13 10
14 2
15 4
16 9
17 2
18 3
19 10
20 3
21 1
22 4
23 3
24 8
25 3
26 5
27 6
28 7
29 9
30 1
31 1
32 8
33 3
34 10
35 2
36 4
37 10
38 2
39 8
40 5
41 10
42 9
43 9
44 2
45 10
46 3
47 7
48 7
49 6
50 1
51 7
52 1
53 4
54 6
55 7
56 8
57 2
58 9
59 3
60 1
61 6
62 4
63 1
64 5
65 3
66 3
67 1
68 6
69 6
70 8
71 10
72 3
73 2
74 6
75 4
76 1
77 8
78 5
79 7
80 6
81 7
82 1
83 2
84 5
85 10
86 3
87 2
88 8
89 5
90 3
91 3
92 5
93 4
94 6
95 9
96 3
97 6
98 5
99 2
100 5
101 5
102 9
103 9
104 3
105 10
106 6
107 2
108 6
109 1
110 1
111 6
112 3
113 9
114 9
115 3
116 6
117 9
118 6
119 10
120 2
121 7
122 3
123 5
124 10
125 2
126 8
127 7
128 5
129 8
130 6
131 1
132 1
133 5
134 7
135 7
136 1
137 8
138 7
139 8
140 7
141 10
142 6
143 5
144 2
COVERAGE_SECTION
2 7 167 8 75 295 91 38 99 
3 7 190 92 238 286 294 274 319 
4 7 94 110 48 312 178 19 150 
5 7 313 93 204 309 263 58 316 
6 6 264 109 235 49 7 20 
7 7 49 61 109 291 182 275 262 
8 7 295 75 2 99 167 64 161 
9 7 15 84 154 69 159 76 44 
10 7 290 219 135 224 148 131 234 
11 7 298 43 318 60 120 128 312 
12 7 253 231 269 283 82 32 223 
13 7 168 46 271 114 217 162 97 
14 7 151 245 265 47 71 228 240 
15 7 69 44 9 141 159 41 68 
16 7 242 307 233 33 137 151 255 
17 6 216 243 317 270 278 272 
18 7 90 67 278 321 317 33 255 
19 7 94 110 189 306 50 100 312 
20 7 109 235 6 7 49 157 264 
21 7 102 117 129 125 176 63 95 
22 7 83 53 285 89 142 153 112 
23 5 149 287 145 238 52 
24 7 282 140 232 169 66 238 3 
25 5 201 139 239 254 222 
26 7 158 173 230 287 145 52 294 
27 7 268 308 73 35 127 240 65 
28 7 45 305 106 31 171 133 126 
29 7 116 121 131 191 101 156 236 
30 7 160 324 54 143 236 79 53 
31 7 221 45 28 119 171 187 280 
32 6 225 288 183 269 301 223 
33 7 255 242 321 90 233 18 16 
34 7 218 273 302 62 104 283 292 
35 7 268 308 27 73 64 86 222 
36 7 198 193 180 100 213 306 184 
37 7 57 315 71 301 225 226 228 
38 7 237 167 250 152 72 2 194 
39 7 267 78 210 98 251 81 218 
40 7 152 91 68 167 141 38 164 
41 7 164 159 141 68 44 154 15 
42 7 206 300 181 220 130 247 246 
43 7 60 11 298 318 188 312 96 
44 7 141 15 69 68 41 159 164 
45 7 28 171 305 31 221 133 106 
46 7 13 168 162 114 217 271 97 
47 7 65 127 112 151 14 142 285 
48 7 178 110 80 4 166 94 50 
49 7 7 61 109 291 275 6 182 
50 7 138 110 100 19 189 306 213 
51 7 53 285 160 22 142 30 112 
52 6 287 202 157 311 26 158 
53 7 285 51 22 142 83 160 112 
54 7 143 79 30 236 324 160 148 
55 6 209 203 215 279 224 290 
56 7 77 136 81 296 260 284 98 
57 5 315 37 301 225 71 
58 7 212 263 93 313 256 192 5 
59 7 210 123 78 267 271 114 39 
60 7 43 298 11 188 96 214 108 
61 7 49 7 291 182 262 109 275 
62 6 104 292 302 310 304 299 
63 7 205 266 55 203 191 209 101 
64 7 35 295 99 170 8 161 268 
65 7 127 47 27 86 112 268 142 
66 7 124 282 140 217 24 232 169 
67 7 18 90 278 227 17 317 216 
68 7 141 41 164 44 159 40 15 
69 7 15 44 141 68 41 159 9 
70 6 226 293 228 103 240 71 
71 7 228 226 315 37 57 293 70 
72 7 194 237 250 260 296 38 261 
73 7 308 27 222 268 103 240 35 
74 6 276 172 175 320 88 197 
75 7 295 8 161 2 64 167 170 
76 7 84 85 126 133 305 28 154 
77 7 56 136 296 260 284 81 144 
78 7 210 39 267 59 98 251 123 
79 7 236 54 143 148 324 30 121 
80 7 166 48 178 50 110 138 4 
81 7 98 284 56 77 251 144 136 
82 7 253 283 12 273 231 269 223 
83 7 22 89 153 53 285 143 142 
84 7 76 85 126 133 154 305 9 
85 7 84 76 126 133 154 305 106 
86 7 127 268 170 65 35 27 64 
87 7 174 163 314 262 182 277 199 
88 7 172 276 74 289 199 277 155 
89 7 83 22 148 153 219 143 54 
90 6 278 18 321 317 67 17 
91 7 2 167 40 152 38 8 75 
92 7 286 246 247 190 3 274 206 
93 7 313 263 58 309 5 316 212 
94 7 19 110 4 312 189 306 48 
95 7 176 125 266 129 205 21 117 
96 7 214 108 188 186 60 192 43 
97 7 162 23 149 46 66 282 24 
98 7 251 81 218 284 39 144 267 
99 7 211 254 8 64 295 237 139 
100 7 213 306 189 36 198 50 193 
101 7 156 191 256 116 212 58 29 
102 7 21 117 129 125 5 176 204 
103 7 222 73 25 70 201 308 139 
104 6 62 292 310 302 304 299 
105 7 208 130 181 272 300 270 122 
106 7 147 28 280 118 305 165 45 
107 7 150 322 4 227 74 67 175 
108 7 214 186 96 188 192 60 212 
109 7 49 7 6 264 61 20 275 
110 7 19 94 48 50 4 189 306 
111 7 142 112 153 22 285 83 113 
112 7 142 285 111 47 53 22 65 
113 7 132 153 111 118 147 106 86 
114 7 217 271 123 124 59 66 46 
115 5 303 252 297 187 221 
116 7 29 121 191 101 156 131 256 
117 7 129 21 125 176 102 95 63 
118 7 147 280 165 119 153 106 234 
119 7 234 165 280 118 147 31 135 
120 7 128 298 255 11 33 242 318 
121 7 131 29 116 79 236 10 290 
122 7 196 220 181 248 200 105 208 
123 7 59 124 114 217 82 271 267 
124 7 217 66 123 114 82 140 282 
125 7 176 129 95 117 21 266 102 
126 7 133 305 76 84 85 28 45 
127 7 65 27 86 268 47 35 308 
128 7 120 298 11 60 255 43 16 
129 7 125 176 117 21 95 102 266 
130 7 300 181 272 105 208 42 220 
131 7 121 29 290 224 10 116 79 
132 7 113 147 118 106 153 111 170 
133 7 126 305 76 84 28 85 45 
134 7 177 289 155 199 163 174 172 
135 6 185 10 290 187 234 224 
136 7 56 77 260 296 81 250 284 
137 7 257 307 249 233 195 200 146 
138 7 50 213 100 306 110 189 19 
139 5 25 201 239 254 261 
140 7 282 24 232 169 66 124 258 
141 7 68 41 44 164 159 15 69 
142 7 112 285 111 22 53 83 47 
143 7 54 79 30 236 148 160 324 
144 3 284 207 296 
145 5 294 158 238 287 26 
146 7 248 200 323 122 196 249 265 
147 7 118 280 165 106 119 153 132 
148 7 219 79 143 54 10 89 236 
149 5 23 287 238 145 294 
150 7 107 18 4 67 318 312 90 
151 7 14 16 307 47 137 51 265 
152 7 38 40 167 91 250 237 2 
153 7 111 83 118 89 22 165 147 
154 7 159 85 164 41 84 76 9 
155 7 289 199 134 177 163 174 87 
156 7 101 191 256 212 116 58 192 
157 4 202 311 235 52 
158 6 145 294 26 287 238 92 
159 7 41 164 141 68 154 44 15 
160 7 30 324 54 143 53 236 79 
161 7 75 170 295 8 64 2 99 
162 7 97 46 66 13 217 282 149 
163 7 174 87 199 314 155 277 262 
164 7 41 159 68 141 44 154 91 
165 7 280 118 119 147 234 153 106 
166 7 80 178 48 50 110 138 4 
167 7 2 38 8 91 237 152 75 
168 7 13 46 271 114 217 162 59 
169 7 232 140 258 24 282 3 190 
170 7 161 64 86 295 75 35 268 
171 7 45 28 221 31 305 303 133 
172 7 88 276 74 277 289 199 197 
173 4 230 206 26 247 
174 7 163 87 199 314 277 155 262 
175 6 320 275 322 74 197 264 
176 7 125 129 95 117 21 266 102 
177 7 134 155 289 199 163 174 87 
178 7 48 80 166 4 110 94 50 
179 4 241 227 216 17 
180 5 198 36 281 193 316 
181 7 220 300 122 130 196 42 105 
182 7 262 291 314 87 61 174 163 
183 6 288 223 269 32 225 301 
184 5 229 193 198 36 180 
185 2 187 135 
186 7 108 214 96 188 192 212 316 
187 3 185 135 221 
188 7 96 214 108 186 60 43 192 
189 7 306 19 100 94 110 50 213 
190 7 3 274 319 92 286 246 247 
191 7 101 156 256 116 29 212 58 
192 7 212 256 263 58 186 316 93 
193 7 198 36 184 180 229 213 100 
194 7 72 260 296 237 261 250 77 
195 6 257 249 233 137 244 321 
196 7 122 220 181 248 200 323 146 
197 6 277 314 291 275 87 174 
198 7 36 193 180 100 213 184 306 
199 7 174 155 277 289 163 87 314 
200 7 248 146 122 196 249 323 208 
201 4 25 139 239 254 
202 4 311 157 235 52 
203 5 279 55 209 215 224 
204 5 5 259 309 313 93 
205 7 63 266 203 55 279 209 191 
206 7 42 247 300 246 173 181 220 
207 2 299 144 
208 7 105 130 181 272 270 300 122 
209 6 55 215 203 224 279 290 
210 7 78 267 59 39 123 251 98 
211 7 254 99 139 25 201 261 239 
212 7 256 192 58 263 93 313 156 
213 7 100 306 193 36 198 50 138 
214 7 108 96 186 188 192 60 180 
215 6 209 224 55 279 203 290 
216 6 17 243 270 317 272 179 
217 7 114 124 66 123 271 59 46 
218 7 34 251 302 98 62 104 292 
219 7 148 10 234 79 89 143 54 
220 7 181 122 196 300 42 130 206 
221 7 31 187 45 303 171 28 119 
222 7 103 73 25 201 308 139 70 
223 6 269 183 288 32 253 283 
224 7 290 215 209 55 10 131 135 
225 5 301 32 288 183 57 
226 6 228 70 71 293 315 57 
227 7 241 179 67 216 17 18 278 
228 7 226 71 293 70 240 315 57 
229 5 184 193 198 36 213 
230 2 173 26 
231 7 12 253 32 269 82 223 283 
232 7 169 140 24 282 258 3 190 
233 7 257 195 137 307 249 242 321 
234 7 119 165 135 219 280 10 148 
235 4 157 311 202 6 
236 7 79 324 54 143 30 121 160 
237 7 72 38 250 194 167 99 260 
238 5 294 145 3 158 92 
239 4 201 139 25 261 
240 7 293 73 70 228 226 27 308 
241 5 179 227 216 17 67 
242 7 33 16 233 307 255 137 257 
243 5 270 17 272 216 317 
244 6 270 317 105 208 195 243 
245 7 265 323 14 146 248 37 200 
246 7 247 286 92 206 42 274 220 
247 7 246 206 286 42 92 220 173 
248 7 200 146 122 196 323 220 181 
249 7 257 195 137 233 200 146 307 
250 7 72 237 38 194 260 136 296 
251 7 98 218 81 284 39 34 302 
252 3 297 115 303 
253 7 12 283 82 269 231 223 273 
254 7 211 139 25 201 239 99 261 
255 7 33 242 120 18 90 321 16 
256 7 212 156 101 58 192 191 263 
257 7 249 195 137 233 307 200 244 
258 7 169 319 232 190 231 274 3 
259 5 204 5 184 309 229 
260 7 296 194 77 72 136 284 250 
261 4 239 139 201 25 
262 7 182 291 314 87 61 174 163 
263 7 93 313 58 316 309 212 192 
264 6 6 109 235 49 275 320 
265 7 245 323 146 14 248 200 137 
266 6 205 63 203 279 95 55 
267 7 39 210 78 59 251 98 218 
268 7 35 27 308 73 127 86 64 
269 6 223 183 288 32 253 12 
270 5 243 272 244 105 208 
271 7 114 59 217 123 13 46 124 
272 4 270 130 243 105 
273 7 283 34 253 223 269 82 12 
274 7 319 190 286 246 92 3 247 
275 6 320 175 197 291 61 49 
276 7 172 88 74 277 197 199 289 
277 7 197 314 199 174 87 291 163 
278 6 90 317 321 18 67 17 
279 4 203 55 215 209 
280 7 165 147 118 119 106 234 153 
281 5 316 309 180 263 93 
282 7 140 24 66 232 169 124 238 
283 7 273 253 82 12 269 223 183 
284 7 144 296 81 77 98 260 207 
285 7 53 142 112 22 51 83 111 
286 7 92 246 247 274 190 3 206 
287 5 158 52 26 145 294 
288 6 183 223 269 32 225 301 
289 7 155 134 199 177 172 174 277 
290 7 224 10 215 135 131 209 185 
291 7 182 314 262 61 197 275 87 
292 6 310 104 62 304 302 299 
293 7 240 70 228 226 71 103 73 
294 5 145 238 158 3 92 
295 7 75 8 161 2 64 99 170 
296 7 260 77 194 284 144 72 261 
297 3 252 115 303 
298 7 11 60 128 43 120 318 188 
299 3 304 207 104 
300 7 130 181 42 220 206 105 208 
301 5 225 57 32 288 315 
302 7 62 104 292 310 218 304 34 
303 6 115 252 297 221 187 171 
304 6 310 292 104 62 299 302 
305 7 133 126 28 45 106 76 171 
306 7 189 100 19 213 50 36 198 
307 7 137 233 257 242 16 249 195 
308 7 73 27 268 35 222 103 240 
309 6 316 93 263 313 281 5 
310 5 292 104 304 62 302 
311 4 202 157 235 52 
312 7 318 94 43 11 19 4 110 
313 7 93 263 58 5 309 316 212 
314 7 87 291 277 197 174 182 262 
315 6 57 37 71 301 225 226 
316 6 309 281 263 93 313 192 
317 6 278 321 243 17 244 270 
318 7 312 11 43 298 60 94 120 
319 7 274 190 3 258 286 92 246 
320 6 175 275 322 74 197 264 
321 6 278 317 90 244 195 233 
322 6 175 320 264 227 107 241 
323 7 146 248 200 196 122 265 220 
324 7 30 236 160 54 79 143 121 
DEPOT_SECTION
   1
   -1
EOF
