NAME :  X-n344-kX-w137-c11.cctp
COMMENT : 	Adapted by Maziero, Usberti and Cavellucci from the Uchoa, Pecin, Pessoa, Poggi, Subramanian, and Vidal (2013)
TYPE :  CCTP
DIMENSION :    323
EDGE_WEIGHT_TYPE : 	EUC_2D	
CAPACITY : 	61
VERTICES_WITHIN_COVERAGE :  11
VERTICES_WITH_DEMAND : 	137
NODE_COORD_SECTION
1 500 500
2 615 190
3 890 200
4 983 684
5 874 112
6 906 186
7 801 278
8 823 446
9 242 544
10 505 210
11 767 766
12 698 305
13 707 511
14 10 968
15 172 13
16 57 414
17 317 373
18 849 680
19 854 12
20 429 688
21 822 378
22 774 584
23 601 895
24 921 309
25 176 165
26 368 432
27 656 430
28 715 225
29 35 264
30 544 994
31 214 533
32 573 650
33 259 595
34 38 550
35 925 755
36 337 562
37 412 969
38 919 402
39 391 792
40 424 206
41 259 588
42 79 364
43 667 978
44 332 593
45 270 544
46 745 267
47 760 786
48 134 998
49 117 320
50 966 458
51 133 334
52 986 462
53 176 290
54 120 296
55 201 878
56 615 293
57 24 217
58 418 662
59 831 314
60 832 564
61 945 758
62 394 446
63 843 680
64 24 613
65 422 956
66 411 58
67 512 655
68 657 544
69 644 748
70 162 924
71 64 57
72 773 727
73 1 461
74 167 981
75 180 346
76 495 295
77 589 311
78 273 186
79 493 121
80 522 653
81 704 909
82 157 9
83 90 625
84 632 964
85 347 750
86 825 940
87 9 237
88 181 662
89 722 724
90 106 978
91 746 981
92 603 944
93 734 612
94 163 142
95 743 16
96 910 272
97 495 584
98 985 968
99 901 149
100 192 878
101 817 700
102 888 1
103 70 323
104 119 255
105 716 413
106 17 309
107 558 122
108 436 663
109 912 64
110 846 973
111 622 271
112 469 629
113 326 388
114 675 587
115 974 135
116 620 443
117 585 6
118 134 764
119 276 222
120 869 663
121 517 935
122 681 631
123 650 679
124 277 612
125 654 76
126 101 332
127 162 792
128 480 878
129 730 728
130 8 525
131 340 489
132 194 815
133 183 75
134 345 884
135 660 841
136 712 42
137 655 695
138 880 600
139 50 555
140 406 946
141 490 53
142 712 878
143 396 484
144 225 176
145 235 9
146 768 438
147 33 116
148 197 149
149 141 312
150 301 18
151 251 83
152 930 549
153 662 99
154 394 872
155 793 659
156 104 821
157 953 401
158 459 264
159 353 254
160 986 680
161 375 639
162 733 982
163 82 923
164 912 604
165 992 123
166 784 823
167 82 859
168 803 338
169 67 555
170 5 102
171 907 896
172 654 393
173 122 150
174 65 9
175 41 545
176 680 22
177 685 814
178 575 872
179 232 836
180 150 82
181 734 779
182 555 13
183 774 848
184 101 440
185 573 609
186 552 463
187 436 773
188 497 547
189 513 861
190 767 794
191 95 192
192 236 121
193 678 796
194 711 637
195 687 7
196 507 855
197 105 82
198 550 658
199 595 507
200 604 726
201 745 746
202 608 519
203 439 943
204 379 464
205 618 848
206 514 548
207 512 435
208 55 556
209 42 31
210 586 888
211 418 791
212 112 157
213 136 189
214 589 92
215 41 501
216 383 686
217 419 687
218 466 837
219 144 85
220 445 538
221 637 46
222 219 38
223 27 564
224 710 875
225 58 518
226 92 293
227 842 895
228 731 737
229 606 332
230 606 704
231 789 879
232 609 368
233 72 46
234 137 70
235 41 399
236 112 82
237 678 743
238 214 619
239 471 405
240 804 753
241 914 234
242 172 328
243 129 161
244 64 580
245 667 727
246 121 150
247 698 50
248 613 106
249 583 675
250 466 675
251 313 775
252 30 555
253 137 266
254 668 604
255 705 747
256 722 981
257 649 808
258 163 244
259 565 370
260 499 841
261 46 194
262 513 530
263 638 832
264 752 797
265 132 16
266 570 3
267 702 820
268 462 689
269 426 818
270 500 887
271 489 725
272 198 26
273 9 875
274 29 588
275 640 6
276 624 762
277 180 262
278 843 98
279 661 64
280 142 149
281 748 925
282 669 393
283 54 527
284 2 57
285 694 679
286 641 883
287 123 564
288 920 860
289 77 506
290 656 17
291 377 640
292 819 879
293 76 94
294 117 360
295 10 614
296 474 845
297 702 63
298 741 232
299 689 901
300 5 718
301 610 765
302 677 851
303 698 725
304 574 13
305 87 650
306 666 687
307 5 190
308 582 474
309 26 148
310 539 901
311 15 159
312 32 1
313 158 173
314 650 658
315 161 140
316 499 834
317 570 682
318 139 525
319 577 356
320 175 121
321 698 54
322 671 10
323 509 650
DEMAND_SECTION
2 7
3 10
4 7
5 8
6 9
7 8
8 5
9 7
10 7
11 5
12 10
13 8
14 6
15 7
16 7
17 5
18 9
19 10
20 10
21 7
22 5
23 9
24 10
25 10
26 8
27 5
28 9
29 7
30 6
31 8
32 5
33 8
34 7
35 6
36 6
37 10
38 10
39 9
40 6
41 8
42 9
43 9
44 7
45 10
46 5
47 10
48 6
49 5
50 7
51 9
52 10
53 7
54 10
55 5
56 10
57 8
58 9
59 5
60 8
61 10
62 6
63 8
64 5
65 7
66 5
67 5
68 10
69 5
70 8
71 7
72 9
73 5
74 6
75 10
76 6
77 7
78 10
79 10
80 6
81 6
82 10
83 9
84 6
85 10
86 6
87 9
88 10
89 8
90 8
91 9
92 9
93 9
94 10
95 7
96 6
97 9
98 8
99 7
100 6
101 8
102 10
103 7
104 10
105 9
106 8
107 10
108 8
109 6
110 9
111 10
112 9
113 6
114 9
115 8
116 8
117 6
118 7
119 8
120 7
121 8
122 8
123 5
124 6
125 10
126 5
127 7
128 6
129 7
130 5
131 7
132 6
133 7
134 6
135 10
136 6
137 6
138 8
COVERAGE_SECTION
2 11 111 248 107 214 153 56 28 10 125 77 298 
3 11 6 241 99 96 5 115 278 24 7 59 165 
4 11 160 61 35 164 120 138 18 63 152 101 288 
5 11 278 99 109 6 3 19 115 102 165 241 95 
6 11 3 99 241 5 115 96 165 278 109 24 7 
7 11 59 46 168 298 28 21 12 96 3 241 24 
8 11 146 21 38 168 105 60 59 13 157 50 22 
9 11 45 31 41 33 124 238 36 44 318 131 287 
10 11 158 40 76 79 107 2 77 111 56 214 248 
11 11 47 190 201 264 181 72 240 228 129 166 89 
12 11 46 28 111 56 298 282 229 172 7 77 105 
13 11 68 114 146 27 105 22 202 254 93 116 199 
14 11 163 273 90 48 167 70 74 156 100 55 127 
15 11 82 272 265 222 133 145 234 180 219 236 197 
16 11 235 184 42 73 294 215 103 126 289 225 51 
17 11 113 26 62 204 131 159 143 75 242 119 239 
18 11 63 120 101 155 138 240 72 164 35 60 11 
19 11 102 109 278 5 95 99 136 297 247 321 195 
20 11 217 108 58 268 250 216 271 112 291 161 187 
21 11 168 59 8 146 38 7 105 24 157 46 96 
22 11 93 60 155 194 13 114 122 138 254 63 18 
23 11 210 178 286 92 205 310 263 84 135 299 302 
24 11 96 241 59 38 157 3 21 168 6 7 50 
25 11 313 94 148 315 280 320 213 243 144 173 246 
26 11 62 204 143 113 131 17 239 220 36 207 45 
27 11 172 116 282 105 232 308 13 199 202 319 186 
28 11 298 46 12 7 111 2 56 153 168 59 77 
29 11 87 57 106 226 103 261 307 104 54 191 126 
30 11 121 92 84 310 23 210 270 203 43 178 65 
31 9 9 45 41 318 33 238 287 124 36 
32 11 198 249 317 185 80 67 230 323 314 123 200 
33 11 41 124 238 45 9 44 31 36 88 161 291 
34 11 175 252 139 208 223 283 169 225 130 274 244 
35 11 61 4 160 288 18 120 63 101 240 171 164 
36 11 44 45 131 124 41 33 161 291 9 143 204 
37 11 65 140 203 154 134 121 128 270 30 296 218 
38 11 157 50 52 24 21 8 59 96 168 152 146 
39 8 211 269 187 85 154 251 218 296 
40 11 158 10 159 79 76 66 119 78 107 141 2 
41 11 33 124 45 9 238 31 44 36 88 161 131 
42 11 294 126 103 235 16 49 51 226 54 184 149 
43 11 84 256 162 92 81 91 299 281 286 23 142 
44 11 36 124 161 291 33 41 45 9 131 216 58 
45 11 9 41 33 31 124 36 44 131 238 318 204 
46 11 298 28 7 12 168 59 111 56 21 282 105 
47 11 190 264 11 181 201 166 240 228 72 183 129 
48 11 90 74 70 163 14 100 55 167 273 156 179 
49 11 126 51 54 149 226 294 103 242 42 253 104 
50 11 52 157 38 152 8 24 164 21 138 60 96 
51 11 49 149 294 126 242 54 75 226 42 53 103 
52 11 50 157 38 152 164 8 24 138 21 60 96 
53 11 277 242 149 253 258 54 75 51 49 104 226 
54 11 49 149 226 253 51 104 126 53 103 242 294 
55 11 100 179 70 132 127 74 156 167 163 118 48 
56 11 111 77 229 319 232 12 259 2 172 282 76 
57 9 87 261 307 29 311 309 191 106 147 
58 11 108 217 20 216 291 161 250 268 112 323 67 
59 11 168 7 21 96 24 46 241 298 38 3 8 
60 11 138 22 164 152 155 120 93 18 63 8 13 
61 11 35 4 160 288 120 18 63 101 240 171 164 
62 11 204 26 143 131 239 113 220 17 207 36 188 
63 11 18 120 101 155 240 72 138 164 35 11 60 
64 11 295 274 223 244 252 139 34 208 83 175 169 
65 11 37 140 203 154 121 128 270 134 296 218 30 
66 11 141 79 150 40 182 107 151 266 304 10 214 
67 11 323 80 198 112 250 268 32 317 97 249 271 
68 6 114 202 13 254 199 122 
69 11 276 245 237 301 200 137 230 193 303 257 255 
70 11 100 74 55 90 48 163 167 179 132 156 127 
71 11 233 209 293 174 197 236 284 312 147 170 234 
72 11 201 11 240 129 228 89 101 47 181 190 155 
73 11 215 130 16 235 225 283 289 175 34 252 184 
74 11 48 70 90 163 100 55 167 14 179 132 156 
75 11 242 51 149 53 294 49 54 126 277 253 42 
76 11 158 10 77 319 259 239 40 229 56 111 232 
77 11 229 56 319 111 232 259 76 172 12 282 2 
78 11 119 144 192 148 25 151 159 313 94 320 277 
79 11 107 141 10 214 66 40 248 182 304 2 266 
80 11 67 323 198 32 317 112 250 249 185 268 97 
81 11 299 142 224 281 302 286 256 43 162 135 91 
82 11 15 265 272 234 222 133 180 219 145 236 197 
83 11 305 244 64 287 274 169 208 139 295 223 34 
84 11 92 43 23 286 299 210 81 256 30 162 178 
85 11 251 39 216 211 187 217 20 269 58 161 291 
86 11 110 227 292 231 281 91 171 162 183 256 166 
87 10 57 29 307 261 106 311 309 191 226 103 
88 11 238 305 83 33 41 124 118 287 127 9 31 
89 11 129 228 303 255 201 237 72 285 245 181 11 
90 11 48 163 74 70 14 167 100 55 273 156 132 
91 11 162 256 281 43 81 86 299 110 142 231 224 
92 11 84 23 210 43 286 30 178 310 121 299 205 
93 11 194 22 122 114 254 155 285 314 306 68 13 
94 11 315 280 320 25 313 148 243 173 246 212 213 
95 11 136 247 195 321 297 176 322 290 279 275 125 
96 11 241 24 3 6 59 7 99 168 38 157 21 
97 9 188 206 112 262 323 220 67 80 185 
98 11 171 288 110 227 86 292 61 231 35 91 281 
99 11 6 5 3 115 278 109 241 165 96 19 102 
100 11 55 70 179 132 127 156 74 167 163 118 90 
101 11 63 18 155 72 240 120 11 201 129 228 89 
102 11 19 109 278 5 95 99 115 165 136 6 247 
103 11 126 226 42 49 106 54 294 51 29 149 235 
104 11 253 54 258 226 149 277 49 53 191 213 126 
105 11 282 146 27 172 13 116 12 8 21 168 232 
106 11 29 103 87 226 42 126 57 235 49 54 16 
107 11 214 248 79 2 141 10 125 153 182 221 304 
108 11 58 20 217 250 268 112 216 291 161 323 67 
109 11 5 102 278 19 99 115 165 6 3 241 95 
110 11 86 227 171 292 91 281 231 162 256 288 98 
111 11 56 77 229 2 12 319 232 28 259 46 298 
112 11 323 250 108 67 97 80 268 58 20 217 198 
113 11 17 26 62 204 131 143 159 239 75 242 45 
114 11 254 122 68 194 93 314 13 285 123 202 22 
115 11 165 99 6 109 5 3 241 278 96 102 19 
116 8 27 308 172 199 282 186 232 202 
117 11 304 266 182 275 221 290 214 322 176 279 125 
118 11 127 156 132 167 88 179 305 100 55 300 83 
119 11 78 144 159 277 148 192 25 258 53 313 94 
120 11 18 63 101 138 164 155 60 35 240 72 4 
121 11 310 270 30 128 189 203 196 210 92 178 23 
122 11 254 194 314 114 285 93 123 306 137 68 303 
123 11 137 306 314 285 230 245 122 200 303 249 69 
124 11 33 41 44 238 45 9 36 31 161 291 88 
125 11 279 153 221 321 297 247 248 290 176 136 214 
126 11 49 51 103 294 42 226 54 149 242 253 104 
127 11 132 118 156 179 100 55 167 88 70 251 163 
128 9 270 296 196 189 260 218 316 310 121 
129 11 89 228 201 255 303 72 181 11 237 285 245 
130 11 252 34 175 215 223 283 225 139 208 73 169 
131 11 204 143 26 62 36 45 113 44 9 220 17 
132 11 127 179 55 100 118 156 70 167 251 88 163 
133 11 180 219 234 320 272 222 15 151 315 94 192 
134 11 154 140 39 269 65 37 203 251 211 179 218 
135 11 302 263 257 177 205 286 267 193 224 142 299 
136 11 247 321 297 176 95 195 322 279 290 125 221 
137 11 306 123 245 314 285 230 303 237 69 200 122 
138 11 164 60 120 152 18 63 155 22 101 4 160 
139 11 208 34 175 169 252 223 283 244 225 274 130 
140 11 65 37 203 154 134 128 270 121 296 218 269 
141 11 79 182 66 304 266 107 117 214 248 221 275 
142 11 224 81 299 302 267 281 135 177 183 286 231 
143 11 204 62 131 26 220 36 239 113 188 44 207 
144 11 148 78 25 192 313 119 94 315 320 280 213 
145 11 222 272 15 150 151 82 133 265 180 192 234 
146 11 8 105 21 13 168 282 27 172 59 60 22 
147 9 170 309 311 293 71 284 261 307 197 
148 11 25 94 320 315 144 313 192 280 243 213 133 
149 11 51 49 54 242 53 126 253 75 226 294 104 
150 11 145 151 222 272 66 192 15 133 82 320 180 
151 11 192 222 133 145 272 150 148 320 144 180 78 
152 11 164 138 50 60 52 120 160 4 38 8 157 
153 11 125 279 248 297 321 221 247 214 136 176 290 
154 10 134 269 140 39 218 203 211 296 128 65 
155 11 101 63 18 72 93 120 22 194 129 240 89 
156 11 167 118 127 132 163 100 273 55 70 179 300 
157 11 38 50 52 24 21 96 8 59 152 168 241 
158 11 76 40 10 159 77 239 79 259 319 56 229 
159 11 119 40 78 158 17 113 76 144 10 277 192 
160 11 4 61 35 164 120 138 18 152 63 101 288 
161 11 291 216 58 44 217 108 20 36 112 250 268 
162 11 256 91 281 43 81 299 86 84 142 224 110 
163 11 90 167 70 14 273 48 74 156 100 55 127 
164 11 138 152 120 60 18 63 160 4 155 101 22 
165 11 115 99 109 6 5 3 241 278 102 96 19 
166 11 183 190 264 47 231 11 292 181 240 267 201 
167 11 156 163 273 70 127 118 100 132 55 90 14 
168 11 59 21 7 46 146 8 12 105 24 298 96 
169 9 208 139 244 175 34 283 252 225 223 
170 10 147 284 309 311 293 71 209 233 307 261 
171 11 288 227 292 86 110 98 231 183 35 61 166 
172 11 282 27 232 116 105 229 319 259 12 77 56 
173 9 246 212 243 280 315 213 94 313 191 
174 11 209 312 233 71 265 284 197 293 236 82 234 
175 11 34 139 252 208 283 223 169 225 130 244 215 
176 11 322 195 290 247 321 136 275 279 297 221 125 
177 11 267 193 257 135 302 263 181 224 142 264 255 
178 10 210 23 310 205 189 286 196 263 270 92 
179 11 132 55 100 127 251 70 118 134 156 85 167 
180 10 219 234 133 236 197 320 315 94 280 265 
181 11 264 47 11 201 190 228 255 129 267 89 193 
182 11 266 304 117 141 275 214 221 290 107 248 322 
183 11 166 231 190 292 264 47 142 224 267 181 281 
184 9 16 289 235 42 294 215 225 318 283 
185 8 32 198 80 249 317 67 323 97 
186 6 308 207 199 116 262 202 
187 7 211 269 39 218 271 296 20 
188 5 206 262 97 220 112 
189 8 196 260 270 316 128 296 310 218 
190 11 47 264 11 166 181 201 183 240 72 228 267 
191 9 212 213 243 246 261 173 280 313 104 
192 11 151 148 144 320 133 25 78 94 315 222 180 
193 11 177 257 267 135 237 263 302 255 69 181 276 
194 11 122 93 285 254 114 314 306 123 137 22 155 
195 11 322 176 290 136 247 275 321 95 297 221 279 
196 8 189 260 316 270 296 128 218 310 
197 10 236 293 234 219 180 71 233 173 246 265 
198 11 32 80 317 249 67 323 185 230 112 250 200 
199 4 202 308 186 116 
200 9 230 301 276 69 249 317 137 245 123 
201 11 228 129 11 89 72 181 255 47 264 303 190 
202 4 199 308 68 116 
203 11 65 140 37 128 121 270 154 296 310 218 189 
204 11 62 143 26 131 113 220 36 239 17 45 207 
205 10 263 286 135 178 23 210 257 302 177 193 
206 4 188 262 97 220 
207 7 186 239 308 259 262 319 116 
208 11 139 169 34 175 252 244 223 283 225 274 289 
209 11 174 312 71 233 284 293 170 197 147 236 265 
210 11 23 178 310 205 286 92 263 189 121 196 270 
211 7 187 39 269 218 296 85 154 
212 9 246 173 243 280 191 213 313 315 94 
213 10 313 243 212 280 173 191 246 25 94 315 
214 11 248 107 221 125 153 279 304 117 182 266 79 
215 10 225 283 289 130 175 34 139 252 73 208 
216 11 217 58 20 291 161 108 85 268 250 187 112 
217 11 20 58 108 216 268 250 291 161 112 271 187 
218 7 296 260 316 128 269 196 189 
219 10 180 234 236 197 133 320 315 94 280 173 
220 10 188 97 262 206 143 112 204 62 36 131 
221 11 279 125 290 275 176 322 153 247 321 195 248 
222 11 272 145 133 15 151 82 180 150 192 234 219 
223 11 252 34 175 274 139 208 244 169 130 283 64 
224 11 142 299 81 302 267 135 281 177 183 286 231 
225 9 283 289 215 175 34 139 169 208 252 
226 11 54 49 103 126 104 253 149 51 29 42 294 
227 11 292 86 231 171 110 183 288 166 281 190 91 
228 11 129 89 201 255 303 181 72 11 237 47 264 
229 11 77 232 319 56 259 111 172 282 12 27 116 
230 11 200 249 317 137 123 69 276 301 306 32 314 
231 11 292 183 227 166 281 86 142 224 190 81 264 
232 11 319 229 259 172 77 282 56 116 27 111 12 
233 10 71 209 174 293 197 236 312 265 234 284 
234 10 219 180 236 197 133 265 82 320 293 15 
235 11 16 42 184 73 103 294 126 106 215 49 51 
236 10 197 234 219 180 293 71 233 173 246 265 
237 11 245 255 303 69 89 137 193 228 129 276 306 
238 11 33 88 41 124 9 31 45 287 318 44 83 
239 10 207 62 186 259 26 143 204 76 319 308 
240 11 11 72 47 101 190 201 264 166 181 228 129 
241 11 96 3 6 24 99 59 115 7 5 165 168 
242 11 75 149 53 51 49 54 294 277 126 253 258 
243 10 173 246 212 280 213 313 315 94 191 25 
244 11 169 208 139 274 34 223 175 252 64 83 283 
245 11 237 69 303 137 306 255 123 89 276 285 129 
246 9 173 212 243 280 315 213 94 313 191 
247 11 321 297 136 176 279 195 322 125 290 95 153 
248 11 214 153 125 107 279 221 2 290 297 321 304 
249 11 317 32 198 230 200 80 123 185 314 67 137 
250 11 268 108 20 112 217 58 67 323 271 80 216 
251 11 85 39 179 211 216 134 269 187 132 154 217 
252 11 34 223 175 139 208 274 130 169 283 244 225 
253 11 104 54 258 277 53 149 226 49 51 242 126 
254 11 114 122 194 314 68 93 123 285 306 137 185 
255 11 303 237 228 89 129 201 181 245 193 69 11 
256 11 162 91 43 281 81 299 84 142 224 86 231 
257 11 263 193 135 177 205 302 276 267 301 69 237 
258 11 277 253 104 53 213 54 149 313 25 242 191 
259 11 319 232 229 77 207 116 56 172 186 239 76 
260 7 316 196 189 296 218 128 270 
261 9 57 307 311 191 309 87 29 212 147 
262 4 206 188 97 220 
263 11 135 205 257 302 177 286 193 267 276 23 301 
264 11 47 190 181 11 166 201 267 183 228 240 177 
265 11 82 15 234 174 233 272 180 236 219 197 133 
266 11 304 117 182 275 221 290 214 141 322 279 125 
267 11 177 193 302 135 181 257 264 224 142 263 47 
268 10 250 20 108 217 271 58 67 112 323 80 
269 8 211 39 218 187 296 154 316 260 
270 9 128 189 196 310 260 296 121 316 218 
271 7 268 250 20 187 67 323 80 
272 11 222 15 145 82 133 265 180 234 151 219 320 
273 11 167 163 14 156 90 300 70 118 127 48 100 
274 11 223 64 295 252 244 34 139 208 175 169 130 
275 11 290 322 221 176 195 117 279 304 266 125 247 
276 9 301 69 200 257 245 237 230 193 263 
277 11 258 53 253 104 149 242 54 75 213 49 51 
278 11 5 99 109 19 102 6 3 95 115 136 297 
279 11 125 221 153 321 247 297 176 290 322 136 275 
280 10 243 173 246 315 94 313 212 25 213 320 
281 11 81 91 142 162 231 256 224 299 86 183 292 
282 11 172 27 105 232 116 229 12 319 259 146 56 
283 10 225 175 34 139 208 215 169 289 252 130 
284 10 170 209 71 312 147 233 174 293 309 311 
285 11 306 137 123 194 303 314 122 89 245 129 237 
286 11 23 205 135 302 263 299 210 178 81 224 142 
287 9 318 169 244 208 83 139 289 283 225 
288 11 171 227 292 35 61 86 98 231 110 166 183 
289 9 225 283 215 169 175 208 139 34 318 
290 11 322 275 176 195 221 279 247 321 125 136 297 
291 11 161 216 58 108 217 44 20 36 112 250 268 
292 11 227 231 183 86 166 281 171 110 190 288 264 
293 8 197 236 71 147 233 234 219 170 
294 11 51 126 42 49 149 103 54 242 75 226 16 
295 11 64 274 223 252 244 34 139 208 175 83 169 
296 7 218 260 316 128 196 189 270 
297 11 321 247 136 279 176 125 153 195 322 95 290 
298 11 28 46 7 12 59 168 111 2 56 3 153 
299 11 81 142 224 286 302 281 135 43 267 84 263 
300 11 295 64 305 83 274 118 156 244 223 273 167 
301 8 276 69 200 257 230 245 237 263 
302 11 135 177 267 224 263 142 286 257 299 193 205 
303 11 255 89 237 245 129 228 285 306 201 137 69 
304 11 266 117 182 275 221 214 290 141 322 248 279 
305 11 83 64 244 274 295 287 88 169 208 139 223 
306 11 137 123 285 314 245 303 237 122 230 69 89 
307 9 57 311 261 87 309 147 29 170 191 
308 4 186 199 116 202 
309 9 311 147 307 261 170 57 293 191 212 
310 11 121 270 178 189 210 196 23 128 260 92 316 
311 9 309 307 147 261 170 57 87 191 293 
312 11 209 174 233 71 284 265 293 170 197 236 147 
313 11 25 213 280 94 243 315 173 246 148 212 320 
314 11 123 306 137 122 285 254 230 194 249 245 114 
315 11 94 280 320 25 313 148 243 173 246 212 213 
316 7 260 196 296 189 218 128 270 
317 10 249 198 32 230 80 200 67 323 185 123 
318 9 287 289 31 169 225 283 208 184 244 
319 11 259 232 229 77 56 172 111 116 282 76 207 
320 11 94 315 148 280 25 180 133 219 313 173 192 
321 11 247 297 136 176 279 195 125 322 290 153 95 
322 11 176 195 290 275 247 221 136 321 279 297 125 
323 11 67 80 198 112 250 268 32 97 317 108 185 
DEPOT_SECTION
   1
   -1
EOF
