NAME :  X-n384-kX-w38-c9.cctp
COMMENT : 	Adapted by Maziero, Usberti and Cavellucci from the Uchoa, Pecin, Pessoa, Poggi, Subramanian, and Vidal (2013)
TYPE :  CCTP
DIMENSION :    271
EDGE_WEIGHT_TYPE : 	EUC_2D	
CAPACITY : 	564
VERTICES_WITHIN_COVERAGE :  9
VERTICES_WITH_DEMAND : 	38
NODE_COORD_SECTION
1 51 570
2 691 985
3 66 119
4 502 415
5 434 289
6 427 584
7 342 576
8 790 87
9 312 475
10 908 531
11 840 566
12 863 232
13 284 833
14 515 175
15 9 243
16 768 209
17 777 582
18 84 508
19 380 523
20 255 267
21 544 961
22 408 661
23 57 588
24 278 44
25 168 722
26 726 406
27 223 385
28 495 70
29 560 632
30 235 655
31 643 127
32 765 267
33 459 976
34 585 962
35 154 796
36 650 444
37 931 52
38 377 19
39 178 633
40 667 164
41 208 651
42 35 437
43 503 680
44 223 251
45 671 94
46 218 351
47 375 220
48 367 567
49 75 520
50 14 737
51 895 632
52 224 725
53 328 387
54 36 300
55 817 531
56 31 283
57 209 574
58 490 395
59 659 121
60 410 207
61 761 450
62 768 348
63 106 150
64 516 144
65 554 127
66 944 75
67 373 88
68 54 5
69 563 410
70 786 533
71 581 696
72 148 875
73 483 983
74 449 343
75 219 600
76 374 487
77 279 200
78 479 705
79 273 519
80 776 395
81 341 275
82 593 973
83 782 314
84 896 301
85 573 478
86 42 198
87 557 630
88 774 669
89 161 755
90 434 60
91 990 161
92 571 611
93 262 680
94 253 246
95 563 416
96 382 91
97 579 962
98 215 439
99 248 65
100 811 175
101 169 359
102 641 926
103 625 52
104 629 8
105 486 394
106 83 462
107 175 333
108 115 192
109 123 534
110 634 528
111 702 299
112 86 172
113 8 583
114 495 538
115 3 14
116 201 666
117 300 323
118 551 167
119 412 90
120 813 64
121 90 595
122 180 817
123 667 24
124 733 661
125 493 953
126 735 602
127 468 639
128 776 107
129 204 781
130 165 858
131 678 218
132 536 950
133 47 421
134 744 664
135 766 64
136 788 448
137 54 707
138 793 257
139 517 964
140 389 503
141 923 563
142 734 599
143 749 248
144 333 17
145 84 713
146 776 428
147 888 452
148 371 465
149 357 613
150 507 187
151 526 595
152 17 545
153 513 146
154 70 513
155 880 478
156 709 30
157 755 201
158 135 799
159 352 279
160 224 900
161 60 465
162 288 813
163 569 157
164 634 665
165 743 336
166 870 16
167 267 623
168 950 618
169 445 653
170 394 763
171 19 825
172 68 548
173 912 106
174 600 71
175 245 644
176 555 400
177 549 230
178 243 724
179 657 925
180 355 48
181 951 488
182 318 318
183 917 3
184 295 453
185 73 482
186 69 29
187 178 1
188 381 457
189 266 918
190 164 506
191 174 282
192 56 123
193 146 606
194 244 461
195 846 275
196 903 582
197 703 553
198 297 364
199 332 591
200 283 487
201 718 490
202 295 702
203 449 997
204 926 605
205 604 188
206 632 895
207 963 544
208 762 412
209 180 267
210 593 544
211 276 708
212 255 875
213 396 884
214 699 106
215 261 853
216 535 344
217 450 911
218 433 336
219 411 46
220 842 35
221 654 385
222 871 67
223 457 532
224 9 162
225 464 267
226 413 493
227 322 299
228 626 556
229 304 86
230 560 367
231 532 473
232 60 255
233 240 267
234 174 678
235 929 577
236 369 972
237 367 634
238 585 668
239 45 722
240 207 394
241 340 665
242 142 543
243 293 833
244 54 58
245 481 595
246 44 507
247 410 444
248 462 734
249 690 935
250 879 195
251 239 813
252 289 397
253 206 571
254 532 174
255 610 399
256 184 52
257 719 98
258 277 497
259 85 267
260 818 67
261 54 568
262 545 251
263 657 549
264 484 37
265 739 237
266 17 42
267 778 328
268 33 255
269 237 37
270 335 531
271 113 544
DEMAND_SECTION
2 83
3 65
4 92
5 73
6 94
7 100
8 99
9 83
10 84
11 81
12 65
13 69
14 84
15 67
16 53
17 70
18 93
19 69
20 78
21 75
22 56
23 99
24 88
25 61
26 65
27 90
28 74
29 85
30 59
31 76
32 79
33 99
34 98
35 80
36 71
37 71
38 93
39 69
COVERAGE_SECTION
2 7 249 179 102 82 34 206 97 
3 9 192 63 112 244 224 86 108 186 266 
4 9 58 105 176 69 95 231 230 216 74 
5 8 225 218 74 159 60 47 81 227 
6 9 245 223 48 127 169 149 19 237 22 
7 7 199 48 149 270 237 19 6 
8 9 128 120 135 260 257 220 222 100 214 
9 9 184 200 258 79 148 270 76 194 188 
10 9 141 196 235 207 155 181 11 204 147 
11 9 55 70 17 196 10 141 51 235 204 
12 8 250 195 138 84 100 16 32 157 
13 6 243 162 215 251 212 189 
14 9 150 254 153 64 118 163 65 177 262 
15 8 268 56 232 86 54 259 224 112 
16 9 157 265 143 138 100 32 131 12 128 
17 9 142 126 70 11 55 197 88 134 124 
18 9 49 154 185 246 172 106 271 109 161 
19 9 140 76 226 48 270 148 7 188 6 
20 9 233 94 44 77 117 227 209 182 191 
21 9 132 139 97 34 82 125 73 33 203 
22 9 169 237 127 241 149 6 78 248 43 
23 9 261 121 172 113 152 49 271 154 246 
24 6 99 269 229 144 180 256 
25 8 89 234 52 116 129 35 178 41 
26 9 208 80 146 61 62 165 136 221 201 
27 8 240 46 98 101 252 107 198 194 
28 9 264 90 64 153 65 119 219 174 14 
29 9 87 92 238 151 71 43 164 245 127 
30 9 175 41 116 93 167 75 39 234 211 
31 9 59 45 40 214 174 205 103 163 257 
32 9 143 138 265 83 16 267 157 111 165 
33 8 203 73 125 139 217 132 21 236 
34 9 97 82 21 132 102 139 179 206 125 
35 8 158 122 89 129 130 25 72 251 
36 8 221 255 201 85 26 110 95 69 
37 9 66 183 173 222 166 220 260 120 91 
38 8 180 219 144 67 90 96 119 229 
39 9 41 116 193 234 75 30 57 175 253 
40 9 31 59 131 214 205 45 257 157 163 
41 9 116 30 39 175 234 75 93 167 52 
42 8 133 161 106 185 246 154 18 49 
43 9 78 127 169 248 87 29 71 238 151 
44 7 233 94 20 209 191 77 107 
45 9 59 214 31 257 103 40 123 156 174 
46 8 27 240 107 101 198 191 252 117 
47 8 60 159 81 5 227 77 225 182 
48 9 7 199 19 149 270 6 237 140 76 
49 9 154 18 172 246 185 271 109 261 161 
50 8 239 137 145 171 158 89 35 113 
51 6 204 196 168 235 141 11 
52 7 178 211 25 93 129 116 234 
53 8 198 252 117 182 184 188 227 9 
54 6 56 268 232 259 15 86 
55 7 70 11 17 155 136 10 61 
56 6 54 268 232 15 259 86 
57 7 253 75 39 193 242 167 41 
58 9 105 4 176 74 216 69 230 95 218 
59 9 31 45 214 40 257 103 174 205 123 
60 9 47 225 5 159 81 150 14 119 96 
61 7 136 146 208 26 80 201 70 
62 7 267 165 83 80 208 26 146 
63 6 112 108 3 192 86 224 
64 9 153 14 254 65 118 150 163 28 177 
65 9 163 118 64 153 254 14 174 150 205 
66 9 37 173 222 183 166 91 220 260 120 
67 7 96 119 180 219 90 38 229 
68 8 186 115 266 244 3 192 187 256 
69 8 95 176 230 255 4 85 231 216 
70 8 55 17 11 201 142 136 197 126 
71 7 238 164 29 87 43 92 78 
72 7 130 122 158 35 160 212 129 
73 9 33 125 203 139 132 21 217 97 34 
74 8 218 5 105 58 225 216 4 247 
75 7 57 253 175 41 39 167 30 
76 9 140 148 188 19 226 247 270 9 48 
77 4 94 20 44 233 
78 7 248 43 169 127 22 71 170 
79 5 258 200 9 270 194 
80 7 208 146 62 26 136 61 267 
81 9 159 227 182 117 47 20 94 5 60 
82 9 34 97 21 132 102 139 179 206 2 
83 8 267 62 165 32 138 143 195 80 
84 2 195 12 
85 9 231 95 69 210 110 176 36 255 228 
86 8 224 112 15 268 232 108 192 63 
87 9 29 92 151 238 71 43 245 164 127 
88 5 134 124 126 142 17 
89 8 25 35 129 158 122 52 234 145 
90 8 219 119 264 96 28 67 38 180 
91 6 173 66 250 37 12 222 
92 9 29 87 151 238 210 228 164 71 245 
93 8 211 30 175 202 178 167 52 41 
94 8 20 233 44 77 209 191 227 117 
95 8 69 176 230 255 4 85 231 58 
96 7 67 119 180 219 90 38 229 
97 9 34 82 21 132 139 102 206 125 179 
98 5 194 240 27 184 200 
99 4 269 24 229 256 
100 9 16 157 250 128 12 138 8 265 143 
101 7 107 46 240 27 191 98 209 
102 7 179 206 249 34 82 97 2 
103 9 174 104 123 45 31 59 156 214 65 
104 9 123 103 174 156 45 59 31 214 257 
105 9 58 4 74 176 216 69 218 230 95 
106 8 185 161 18 154 42 133 49 246 
107 7 101 46 191 209 240 27 233 
108 7 112 63 86 259 232 3 192 
109 9 271 242 18 49 190 154 172 121 185 
110 9 228 263 210 197 85 36 201 92 231 
111 7 165 143 32 265 83 267 62 
112 7 63 108 86 3 192 224 232 
113 9 152 261 23 172 121 246 49 154 18 
114 9 223 245 151 231 6 226 85 210 92 
115 8 266 68 244 186 192 3 224 63 
116 9 41 234 30 39 175 52 93 25 75 
117 9 182 227 198 81 159 53 20 252 233 
118 9 254 163 14 65 64 153 150 205 177 
119 8 96 90 67 219 180 38 28 264 
120 9 260 8 220 135 128 222 166 257 173 
121 9 23 261 172 271 193 109 242 49 113 
122 8 35 129 130 158 251 89 72 215 
123 9 104 156 103 45 174 214 257 59 31 
124 5 134 88 126 142 17 
125 8 139 73 33 132 21 217 203 97 
126 8 142 17 124 197 134 88 70 263 
127 9 169 245 43 22 78 6 151 87 29 
128 9 8 135 120 257 260 100 214 157 220 
129 8 122 251 89 35 52 25 178 158 
130 8 72 122 35 158 160 129 251 212 
131 7 40 265 143 157 205 111 16 
132 9 21 139 125 97 34 82 73 33 217 
133 8 42 161 106 185 246 18 154 49 
134 5 124 88 126 142 17 
135 9 8 128 120 260 257 156 214 220 45 
136 5 146 61 208 80 26 
137 9 239 145 50 25 89 121 23 158 171 
138 9 32 143 16 195 83 265 157 267 12 
139 9 132 125 21 73 33 97 34 203 82 
140 9 19 76 226 148 188 270 247 48 223 
141 9 235 196 10 204 207 168 51 181 11 
142 9 126 17 197 124 134 88 70 263 55 
143 9 265 32 16 138 157 111 83 131 267 
144 8 180 38 24 229 67 219 96 99 
145 9 137 239 50 25 89 234 158 35 121 
146 5 208 136 61 80 26 
147 3 155 181 10 
148 9 188 76 140 247 226 19 9 270 184 
149 9 237 199 7 48 241 22 6 270 167 
150 9 14 254 153 64 118 177 163 262 65 
151 9 245 87 92 29 114 127 210 43 223 
152 9 113 261 246 172 23 154 49 18 185 
153 9 64 14 254 150 118 65 163 28 177 
154 9 49 18 246 185 172 161 106 271 109 
155 3 147 10 181 
156 9 123 135 257 45 214 104 103 8 128 
157 9 16 265 143 100 32 138 131 40 128 
158 8 35 122 89 130 129 72 25 145 
159 9 81 227 182 47 117 5 60 20 218 
160 7 212 189 215 130 72 251 13 
161 8 185 106 42 246 133 18 154 49 
162 5 13 243 215 251 212 
163 9 118 65 254 205 64 14 153 150 177 
164 6 238 71 29 92 87 124 
165 8 62 267 83 111 80 26 32 208 
166 9 220 183 222 37 260 120 66 173 8 
167 7 175 30 75 93 41 199 57 
168 7 204 235 51 196 141 207 10 
169 9 127 22 78 43 245 6 237 248 149 
170 3 248 22 78 
171 6 50 239 158 137 145 35 
172 9 261 49 154 23 18 271 246 152 121 
173 9 66 37 222 91 250 166 220 260 183 
174 9 103 104 31 65 45 59 123 163 28 
175 8 30 167 41 93 116 75 39 211 
176 8 69 95 230 4 255 216 58 105 
177 7 262 254 150 118 14 205 163 
178 7 52 211 93 202 30 129 116 
179 7 102 249 206 2 82 34 97 
180 8 38 144 67 96 219 229 119 24 
181 5 207 10 155 147 141 
182 9 117 227 81 198 159 53 20 252 233 
183 9 166 37 66 222 220 173 260 120 8 
184 8 9 200 258 194 252 79 53 148 
185 9 161 106 18 154 49 246 42 133 172 
186 8 68 244 266 115 3 192 187 256 
187 6 256 269 99 24 186 68 
188 8 148 76 247 140 226 19 9 184 
189 5 212 160 215 13 243 
190 5 242 109 271 253 18 
191 6 209 107 44 233 101 20 
192 9 3 63 112 224 244 86 266 108 186 
193 9 39 121 242 253 271 57 75 109 41 
194 6 98 200 258 184 79 9 
195 7 12 84 138 83 32 267 250 
196 8 235 141 204 10 51 168 11 207 
197 9 263 142 126 201 110 228 17 70 210 
198 8 252 53 117 182 227 27 46 184 
199 7 7 149 48 237 270 167 241 
200 6 258 9 79 184 194 270 
201 9 61 197 70 36 136 26 146 263 208 
202 7 211 93 178 241 52 30 175 
203 9 33 73 125 139 236 217 132 21 213 
204 7 168 235 196 51 141 207 10 
205 8 163 118 40 177 31 254 65 131 
206 4 102 179 249 34 
207 8 141 235 10 181 196 204 168 155 
208 6 146 80 26 61 136 62 
209 7 191 44 233 107 20 94 46 
210 9 228 110 263 85 92 151 87 29 231 
211 7 202 93 178 52 30 175 241 
212 7 215 160 189 13 243 251 162 
213 3 217 236 33 
214 9 257 45 59 31 40 128 156 135 123 
215 7 212 13 243 251 162 160 189 
216 7 230 176 58 105 69 95 4 
217 7 125 213 33 73 139 203 132 
218 8 74 5 225 105 58 159 216 4 
219 8 90 38 119 96 180 67 264 144 
220 9 166 260 120 222 8 135 183 37 128 
221 6 255 36 26 69 95 230 
222 9 220 166 260 173 120 37 66 183 8 
223 9 114 226 6 245 140 19 151 76 231 
224 9 86 192 3 112 15 268 63 232 108 
225 9 5 218 74 60 262 150 177 47 14 
226 9 140 76 19 188 247 148 223 48 270 
227 9 182 81 117 159 198 20 94 53 233 
228 9 110 263 210 197 92 85 29 87 151 
229 5 24 99 180 67 144 
230 7 176 216 69 95 255 4 58 
231 9 85 4 95 69 114 176 58 105 210 
232 7 268 259 56 54 15 86 108 
233 9 20 44 94 209 191 77 117 46 227 
234 9 116 41 25 39 30 52 193 89 175 
235 9 141 196 204 168 207 10 51 11 181 
236 5 203 33 213 217 73 
237 9 149 241 22 199 7 48 6 169 202 
238 7 71 29 87 164 92 43 151 
239 9 137 50 145 171 158 89 25 35 23 
240 7 27 46 98 101 107 194 252 
241 8 237 149 202 22 199 211 93 167 
242 9 109 271 190 193 18 253 49 57 121 
243 5 13 162 215 212 251 
244 8 186 266 68 3 192 115 63 224 
245 9 151 127 6 114 223 169 87 29 43 
246 9 154 49 185 18 161 152 172 106 261 
247 8 188 148 226 76 140 19 105 58 
248 6 78 43 170 169 22 127 
249 5 179 2 102 206 82 
250 8 12 100 195 173 138 84 16 91 
251 8 215 129 13 162 243 122 212 35 
252 9 198 53 184 27 117 194 9 240 182 
253 7 57 75 39 193 242 190 41 
254 9 14 118 150 64 153 163 65 177 205 
255 7 221 69 95 176 230 36 85 
256 5 187 269 99 24 186 
257 9 214 45 128 135 59 156 8 31 40 
258 5 200 79 9 184 194 
259 7 232 268 56 54 15 86 108 
260 9 120 8 220 135 222 128 166 173 257 
261 9 23 172 152 121 113 49 154 246 271 
262 6 177 150 254 14 225 118 
263 9 110 228 197 210 201 142 126 36 92 
264 9 28 90 219 119 38 64 153 65 96 
265 8 143 157 16 32 138 131 111 83 
266 8 115 244 68 186 192 3 224 63 
267 7 83 62 165 32 80 138 111 
268 8 15 232 56 54 259 86 224 112 
269 6 99 24 256 187 229 144 
270 9 7 19 48 76 199 9 140 79 258 
271 9 109 242 49 172 18 154 121 190 261 
DEPOT_SECTION
   1
   -1
EOF
