NAME :  X-n336-kX-w134-c11.cctp
COMMENT : 	Adapted by Maziero, Usberti and Cavellucci from the Uchoa, Pecin, Pessoa, Poggi, Subramanian, and Vidal (2013)
TYPE :  CCTP
DIMENSION :    334
EDGE_WEIGHT_TYPE : 	EUC_2D	
CAPACITY : 	203
VERTICES_WITHIN_COVERAGE :  11
VERTICES_WITH_DEMAND : 	134
NODE_COORD_SECTION
1 0 0
2 365 689
3 146 180
4 792 5
5 658 510
6 461 270
7 299 531
8 812 228
9 643 90
10 615 630
11 258 42
12 616 299
13 475 957
14 425 473
15 406 64
16 656 369
17 202 467
18 318 21
19 579 587
20 458 354
21 575 871
22 47 512
23 568 742
24 128 436
25 546 806
26 197 696
27 615 300
28 852 563
29 772 803
30 678 342
31 916 176
32 390 949
33 113 782
34 226 736
35 119 923
36 584 572
37 134 554
38 912 173
39 827 233
40 851 677
41 598 322
42 627 472
43 94 442
44 688 274
45 977 176
46 597 461
47 931 23
48 170 640
49 941 601
50 873 487
51 797 95
52 451 816
53 866 970
54 833 912
55 106 913
56 260 107
57 332 45
58 685 613
59 728 372
60 407 590
61 619 484
62 966 483
63 482 512
64 278 599
65 213 330
66 37 932
67 643 10
68 341 241
69 302 521
70 593 382
71 438 686
72 637 885
73 277 382
74 152 776
75 546 999
76 288 665
77 232 131
78 563 66
79 602 547
80 996 983
81 464 377
82 502 727
83 691 574
84 535 4
85 975 616
86 974 242
87 853 459
88 263 163
89 967 740
90 810 617
91 580 226
92 615 656
93 346 526
94 172 867
95 319 35
96 602 946
97 224 146
98 48 527
99 970 693
100 314 262
101 413 661
102 756 147
103 381 139
104 421 100
105 930 522
106 440 792
107 862 962
108 668 720
109 493 72
110 573 541
111 668 884
112 380 646
113 24 44
114 457 991
115 511 272
116 960 171
117 150 61
118 721 754
119 56 633
120 389 853
121 700 137
122 823 958
123 422 111
124 727 12
125 203 178
126 548 744
127 677 999
128 610 239
129 396 478
130 509 773
131 347 219
132 754 887
133 717 223
134 650 718
135 909 845
136 451 575
137 806 992
138 740 770
139 291 583
140 74 690
141 8 248
142 877 132
143 379 284
144 574 881
145 871 854
146 987 529
147 509 440
148 976 565
149 644 554
150 325 696
151 969 681
152 888 425
153 782 490
154 974 885
155 502 280
156 992 909
157 440 691
158 342 364
159 806 649
160 552 728
161 980 576
162 671 918
163 26 841
164 463 459
165 526 344
166 268 49
167 979 559
168 156 39
169 303 960
170 85 110
171 760 825
172 28 910
173 725 93
174 987 998
175 827 937
176 253 53
177 342 592
178 933 328
179 833 437
180 705 344
181 35 318
182 839 857
183 7 132
184 462 46
185 511 649
186 72 981
187 660 595
188 306 313
189 806 978
190 954 238
191 679 664
192 223 692
193 783 211
194 258 807
195 29 943
196 901 617
197 634 276
198 711 6
199 253 301
200 229 917
201 379 611
202 494 796
203 974 375
204 804 306
205 366 672
206 739 275
207 390 64
208 421 896
209 773 430
210 33 185
211 780 36
212 583 683
213 102 872
214 917 407
215 999 222
216 991 56
217 687 500
218 381 463
219 982 321
220 52 296
221 188 834
222 373 15
223 240 295
224 379 73
225 94 905
226 291 368
227 365 875
228 281 949
229 222 763
230 487 965
231 525 52
232 276 873
233 217 975
234 767 889
235 966 590
236 584 689
237 52 118
238 513 513
239 626 630
240 528 291
241 61 262
242 67 613
243 528 819
244 776 606
245 453 584
246 113 947
247 619 771
248 751 689
249 680 978
250 207 338
251 930 890
252 740 183
253 313 231
254 487 874
255 695 972
256 857 247
257 376 774
258 168 409
259 855 702
260 543 56
261 846 172
262 43 62
263 548 157
264 68 300
265 153 638
266 987 721
267 619 306
268 31 683
269 681 520
270 445 533
271 117 505
272 860 428
273 265 809
274 947 417
275 791 3
276 305 771
277 697 637
278 599 555
279 595 439
280 952 464
281 217 775
282 585 895
283 185 344
284 710 275
285 22 136
286 668 648
287 423 637
288 318 490
289 763 274
290 686 796
291 870 128
292 845 405
293 37 883
294 59 581
295 292 22
296 182 838
297 905 295
298 285 15
299 159 409
300 556 616
301 370 988
302 436 374
303 143 772
304 15 88
305 897 75
306 667 699
307 621 485
308 942 616
309 900 816
310 707 297
311 170 312
312 541 76
313 244 104
314 367 241
315 71 908
316 349 361
317 754 980
318 32 869
319 812 318
320 731 882
321 701 119
322 170 285
323 577 478
324 377 59
325 312 343
326 823 859
327 760 716
328 809 837
329 269 109
330 112 726
331 454 247
332 873 167
333 205 18
334 738 287
DEMAND_SECTION
2 48
3 63
4 27
5 66
6 86
7 14
8 26
9 47
10 66
11 85
12 22
13 30
14 89
15 51
16 11
17 82
18 92
19 85
20 51
21 90
22 6
23 68
24 73
25 94
26 7
27 12
28 70
29 97
30 41
31 30
32 8
33 11
34 25
35 10
36 75
37 17
38 36
39 6
40 54
41 12
42 30
43 94
44 30
45 27
46 41
47 25
48 41
49 72
50 39
51 32
52 35
53 68
54 68
55 9
56 90
57 56
58 95
59 41
60 39
61 18
62 8
63 16
64 37
65 82
66 26
67 14
68 66
69 33
70 29
71 37
72 56
73 93
74 2
75 54
76 48
77 65
78 6
79 80
80 94
81 80
82 93
83 68
84 20
85 57
86 45
87 7
88 89
89 67
90 72
91 47
92 93
93 35
94 19
95 51
96 100
97 88
98 31
99 92
100 83
101 7
102 22
103 90
104 77
105 89
106 40
107 79
108 87
109 73
110 59
111 67
112 12
113 94
114 18
115 29
116 44
117 57
118 55
119 38
120 1
121 14
122 56
123 100
124 14
125 69
126 55
127 55
128 50
129 98
130 88
131 99
132 67
133 48
134 81
135 78
COVERAGE_SECTION
2 11 205 150 112 101 71 157 287 201 76 257 177 
3 11 125 97 170 77 322 210 237 88 241 117 313 
4 11 275 211 124 198 51 173 305 47 102 291 321 
5 11 269 217 307 149 61 42 79 83 278 46 187 
6 11 331 155 115 240 143 20 165 314 81 302 68 
7 11 69 288 93 139 64 177 218 129 201 17 60 
8 11 39 193 256 261 289 204 252 332 206 319 133 
9 11 321 121 67 173 78 312 260 198 124 263 231 
10 11 239 92 19 286 187 300 212 36 236 58 191 
11 11 166 176 298 295 333 95 18 313 56 329 57 
12 11 27 267 41 197 128 30 44 16 91 70 240 
13 11 230 114 208 75 254 32 301 144 282 96 21 
14 11 129 164 218 270 63 147 93 238 302 81 136 
15 11 207 224 324 104 123 184 222 57 103 109 95 
16 11 30 180 70 59 267 41 27 12 310 279 197 
17 11 258 299 24 271 37 43 73 69 7 288 283 
18 11 95 295 57 298 222 166 11 324 176 224 207 
19 11 36 300 278 79 110 10 239 149 92 187 185 
20 11 81 302 165 6 155 240 115 147 164 143 331 
21 11 144 282 72 243 25 96 254 111 162 247 202 
22 11 98 271 294 43 37 242 24 119 299 258 17 
23 11 126 160 236 247 212 130 25 82 134 243 202 
24 11 43 299 258 271 17 283 22 37 98 250 311 
25 11 243 130 202 126 23 21 160 144 247 82 254 
26 11 192 34 48 229 265 281 330 74 303 76 33 
27 11 12 267 41 197 128 30 44 16 91 70 240 
28 11 90 196 50 244 105 49 159 153 87 308 40 
29 11 171 138 328 118 326 132 182 234 290 327 320 
30 11 180 16 310 59 44 267 284 12 27 197 334 
31 11 38 116 332 142 45 291 261 190 86 256 215 
32 11 301 208 227 114 13 169 120 230 228 254 232 
33 11 303 74 330 296 213 221 140 94 281 163 229 
34 11 229 281 192 26 194 273 74 276 303 76 221 
35 11 55 246 225 315 213 186 94 66 293 172 195 
36 11 19 278 79 110 300 149 10 239 187 92 238 
37 11 271 294 265 242 98 48 22 17 119 24 43 
38 11 31 332 116 142 291 45 261 190 256 86 305 
39 11 8 256 193 261 289 204 332 319 206 252 297 
40 11 259 159 90 196 327 248 244 308 28 49 151 
41 11 267 27 12 197 70 16 165 240 30 128 91 
42 11 61 307 46 279 5 323 217 269 79 149 110 
43 11 24 271 299 258 22 98 17 37 283 181 294 
44 11 284 310 206 334 197 133 30 180 289 12 267 
45 11 116 215 31 38 86 190 332 142 291 216 305 
46 11 279 323 42 61 307 5 70 110 79 147 278 
47 11 305 216 291 142 4 275 38 116 51 211 31 
48 11 265 26 192 37 330 242 140 34 119 64 76 
49 11 308 235 85 196 161 148 167 105 146 151 99 
50 11 87 272 152 179 105 28 280 292 153 214 62 
51 11 211 102 173 291 142 4 261 275 321 305 252 
52 11 106 202 254 120 130 243 208 257 25 82 227 
53 11 107 122 175 189 137 54 251 317 145 182 326 
54 11 175 122 326 182 107 53 145 234 189 328 132 
55 11 225 35 246 315 213 66 293 186 172 94 195 
56 11 329 313 77 97 176 88 166 11 125 295 95 
57 11 95 18 295 324 222 224 298 207 166 11 15 
58 11 277 187 83 286 191 239 10 149 92 306 244 
59 11 180 30 16 209 310 334 206 284 319 204 289 
60 11 201 136 245 287 112 177 270 101 93 205 71 
61 11 307 42 46 323 5 279 79 217 269 110 149 
62 11 280 146 105 274 167 148 214 50 161 152 235 
63 11 238 270 164 14 136 147 245 129 110 323 60 
64 11 139 177 76 7 69 93 201 150 192 112 205 
65 11 250 283 223 311 199 322 73 226 258 188 299 
66 11 195 172 315 293 186 225 318 55 246 35 213 
67 11 198 9 124 78 84 260 173 312 321 231 121 
68 11 131 314 253 100 143 188 325 199 88 103 331 
69 11 7 288 93 139 177 64 218 129 17 201 60 
70 11 279 41 16 165 46 267 27 12 30 42 323 
71 11 157 101 287 112 2 205 82 185 201 60 245 
72 11 111 162 282 144 21 96 320 249 290 255 247 
73 11 226 325 158 188 316 65 250 199 223 283 258 
74 11 303 33 330 281 221 296 229 34 26 94 213 
75 11 230 96 13 114 282 144 21 127 249 254 72 
76 11 150 64 192 205 2 139 177 34 112 26 201 
77 11 97 313 56 329 88 125 176 166 11 3 117 
78 11 260 312 231 84 109 9 263 67 184 104 123 
79 11 278 110 36 149 19 61 307 5 323 187 42 
80 11 174 156 154 251 53 107 135 122 175 54 145 
81 11 20 302 165 147 164 14 155 6 240 115 316 
82 11 130 126 160 23 202 157 71 185 25 106 236 
83 11 187 58 149 269 277 5 217 286 239 191 244 
84 11 231 260 78 312 109 184 67 9 15 104 263 
85 11 235 308 49 161 148 167 151 196 99 146 105 
86 11 190 215 45 116 219 297 31 38 178 256 332 
87 10 179 272 50 152 292 153 214 209 105 280 
88 11 97 77 329 56 125 313 253 131 68 176 100 
89 11 266 99 151 309 259 135 85 308 40 196 49 
90 11 159 244 28 40 196 248 259 327 277 58 83 
91 11 128 197 263 12 27 115 240 267 155 41 44 
92 11 10 239 212 236 286 191 306 134 300 187 19 
93 11 69 288 7 177 129 218 139 60 201 14 270 
94 11 296 221 213 200 35 55 225 74 246 303 281 
95 11 18 57 295 298 166 222 11 324 176 224 207 
96 11 282 72 144 162 75 21 249 111 127 255 230 
97 11 77 125 88 313 56 329 3 176 166 11 117 
98 11 22 294 271 242 37 43 119 24 265 268 299 
99 11 151 266 89 85 308 49 196 235 259 161 40 
100 11 253 68 188 131 314 143 199 223 325 316 158 
101 11 287 71 112 157 205 2 201 60 245 136 150 
102 11 252 121 173 321 51 193 133 261 8 39 211 
103 11 123 104 224 207 15 324 131 314 57 68 253 
104 11 123 15 207 224 103 324 184 109 222 57 231 
105 11 62 146 167 280 148 50 161 235 49 28 308 
106 11 52 202 257 130 120 82 243 254 157 71 208 
107 11 53 122 175 54 189 137 251 182 145 317 326 
108 11 134 306 191 118 247 286 290 92 138 277 248 
109 11 231 184 312 260 78 104 84 123 15 263 207 
110 11 79 278 36 19 323 238 149 61 307 300 46 
111 11 72 162 320 282 132 290 96 255 21 144 249 
112 11 205 201 101 287 2 60 177 71 150 157 76 
113 11 262 304 237 170 183 285 117 168 210 3 333 
114 11 13 230 32 301 75 208 254 227 96 120 169 
115 11 155 240 6 331 165 91 20 41 128 12 27 
116 11 45 31 38 215 190 86 332 142 291 261 305 
117 11 168 333 170 176 313 262 77 11 97 237 3 
118 11 138 327 290 108 29 248 306 134 171 191 247 
119 11 242 294 268 140 265 98 330 37 48 22 271 
120 11 227 208 52 106 257 32 254 232 276 202 273 
121 11 321 173 102 252 9 133 51 193 124 211 198 
122 11 175 189 137 107 53 54 317 234 132 326 182 
123 11 104 15 103 207 224 324 184 109 222 57 231 
124 11 198 211 4 275 173 67 51 321 9 121 102 
125 11 97 77 3 88 313 56 329 322 253 223 117 
126 11 160 23 82 130 25 236 212 202 247 243 185 
127 11 249 255 317 162 96 111 72 137 320 75 189 
128 11 91 197 12 27 267 41 44 240 263 115 284 
129 11 218 14 93 164 270 288 63 69 7 302 136 
130 11 202 82 126 25 243 160 23 52 106 254 157 
131 11 68 314 253 100 143 103 88 188 331 6 199 
132 11 234 320 171 326 328 54 29 111 175 162 182 
133 11 252 284 206 44 193 334 289 310 102 121 8 
134 11 108 306 191 247 92 236 286 212 118 23 290 
135 11 309 145 251 182 154 326 328 54 156 89 175 
136 11 245 270 60 287 63 201 238 101 185 112 14 
137 11 189 122 317 175 53 107 54 234 255 132 249 
138 11 118 29 327 171 290 248 108 328 306 134 320 
139 11 64 177 7 69 93 76 201 288 112 60 205 
140 11 268 330 119 242 265 33 303 48 294 74 26 
141 11 241 220 210 181 264 285 183 237 3 170 304 
142 11 291 332 261 38 31 305 51 116 45 39 8 
143 11 314 68 100 131 188 6 316 331 253 158 325 
144 11 21 282 72 96 243 25 254 111 162 202 247 
145 11 182 135 309 326 328 54 251 175 107 154 234 
146 11 167 148 161 62 105 235 280 49 85 308 274 
147 11 164 238 63 81 323 279 14 46 165 302 20 
148 11 167 161 235 146 49 85 308 105 62 196 280 
149 11 79 187 278 5 269 83 36 217 58 110 19 
150 11 2 76 205 112 276 257 101 201 192 177 34 
151 11 99 266 89 85 308 49 235 196 161 148 259 
152 9 272 214 292 87 179 274 50 280 62 
153 11 209 179 87 50 217 272 28 269 292 244 83 
154 11 156 251 135 80 309 145 174 107 53 182 54 
155 11 115 240 6 331 165 20 91 81 41 27 302 
156 11 154 251 80 174 135 309 145 53 107 54 182 
157 11 71 101 287 82 2 112 205 185 106 201 257 
158 11 316 325 226 188 73 143 302 100 218 199 20 
159 11 90 244 40 248 259 327 28 196 277 58 191 
160 11 126 23 82 236 212 130 25 247 185 202 243 
161 11 148 167 235 85 49 146 308 105 196 62 151 
162 11 111 72 255 249 320 96 127 132 282 234 144 
163 11 318 293 172 315 213 66 225 195 33 55 35 
164 11 14 147 63 129 238 270 81 218 302 20 323 
165 11 240 155 20 81 115 41 70 302 147 6 27 
166 11 11 176 295 298 95 18 56 313 329 57 333 
167 11 148 161 146 235 49 85 105 308 62 196 280 
168 11 117 333 176 170 11 313 166 262 77 56 97 
169 11 228 301 200 233 32 232 227 208 120 273 114 
170 11 237 262 285 304 117 183 113 210 3 168 125 
171 11 29 328 138 132 234 320 326 290 118 182 111 
172 11 66 293 195 318 315 225 163 55 213 186 35 
173 11 321 121 102 51 211 124 9 198 252 4 275 
174 11 80 156 154 251 53 107 122 175 135 54 137 
175 11 122 54 107 189 53 137 234 326 182 317 132 
176 11 11 166 295 298 313 56 329 333 95 18 57 
177 11 201 139 64 60 93 112 7 69 205 76 287 
178 9 297 219 203 214 274 190 86 152 256 
179 9 272 87 292 152 209 50 153 214 274 
180 11 30 59 310 16 334 284 44 206 289 267 197 
181 11 220 264 241 141 210 311 43 322 24 283 299 
182 11 326 145 328 54 135 309 234 175 171 29 132 
183 11 285 304 237 210 262 170 113 141 241 3 117 
184 11 109 15 231 104 207 123 260 84 312 324 224 
185 11 300 82 212 71 157 236 245 160 287 19 136 
186 11 246 195 66 315 35 55 225 172 293 213 318 
187 11 58 83 149 239 286 277 10 191 278 79 92 
188 11 325 100 199 226 158 316 223 73 143 68 253 
189 11 137 122 175 317 107 53 54 234 132 255 326 
190 11 86 215 45 116 31 297 38 219 178 256 332 
191 11 286 277 306 58 108 134 239 92 10 187 248 
192 11 26 34 76 229 48 281 265 150 64 74 303 
193 11 8 39 252 289 133 102 261 206 256 334 204 
194 11 273 281 229 276 232 221 34 296 94 74 200 
195 11 66 172 315 186 293 318 225 55 246 35 163 
196 11 308 49 235 28 85 40 161 90 148 151 167 
197 11 12 27 267 128 44 41 91 284 310 30 16 
198 11 124 67 211 275 4 173 9 321 51 121 102 
199 11 223 65 188 250 100 325 226 283 73 311 322 
200 11 233 228 232 94 169 296 221 35 194 273 246 
201 11 60 112 177 287 101 205 2 245 136 93 139 
202 11 130 243 52 25 106 82 126 254 160 23 21 
203 9 274 219 178 214 280 152 297 62 272 
204 11 319 289 334 206 39 8 256 193 310 284 59 
205 11 2 112 101 150 201 287 71 157 76 177 60 
206 11 334 289 284 310 44 133 204 180 193 319 8 
207 11 224 324 15 104 222 123 57 184 103 95 18 
208 11 120 227 32 254 13 52 230 114 301 106 202 
209 11 179 153 59 292 87 272 180 217 50 152 319 
210 11 285 183 141 237 241 170 304 3 220 264 262 
211 11 4 275 124 51 198 173 102 321 305 121 291 
212 11 236 92 160 23 10 239 126 300 134 185 306 
213 11 225 55 315 35 293 94 318 246 163 172 296 
214 9 274 152 272 203 280 292 178 87 179 
215 11 86 190 45 116 31 38 219 297 178 332 256 
216 11 47 305 116 45 142 38 291 31 332 215 190 
217 11 269 5 42 307 149 61 83 153 79 46 187 
218 11 129 14 288 93 164 270 69 302 158 7 316 
219 9 178 203 86 297 190 215 274 214 152 
220 11 264 181 241 141 210 311 322 283 3 43 299 
221 11 296 94 281 74 194 303 229 273 33 200 213 
222 11 324 57 207 18 95 224 15 295 298 184 104 
223 11 199 65 250 188 322 311 283 100 325 226 73 
224 11 207 324 15 104 57 123 222 103 95 18 184 
225 11 55 315 35 213 246 293 66 172 318 195 186 
226 11 73 325 158 188 316 199 65 223 250 100 283 
227 11 120 208 32 232 257 52 169 106 228 301 273 
228 11 169 200 233 232 301 32 227 94 273 120 194 
229 11 281 34 194 273 74 192 26 221 303 276 296 
230 11 13 114 75 254 208 32 96 301 282 144 21 
231 11 260 312 109 78 84 184 263 104 123 15 9 
232 11 200 273 194 228 227 169 221 296 94 276 281 
233 11 200 228 169 246 35 94 232 55 296 225 221 
234 11 132 320 171 326 328 54 175 182 29 122 317 
235 11 161 49 148 85 167 308 146 196 105 151 99 
236 11 212 92 160 23 126 10 134 239 300 185 306 
237 11 170 285 183 304 262 210 113 3 117 168 141 
238 11 63 110 270 147 323 164 136 36 245 79 278 
239 11 10 92 286 187 58 191 19 212 277 300 36 
240 11 115 155 165 6 41 91 331 27 12 267 20 
241 11 220 264 141 181 210 322 3 311 285 183 237 
242 11 119 294 140 268 98 37 265 22 48 271 330 
243 11 25 202 130 254 21 52 144 126 23 106 160 
244 11 90 159 277 28 248 58 83 40 327 191 153 
245 11 136 60 270 287 63 201 101 185 238 112 71 
246 11 35 55 225 186 315 213 66 195 172 94 293 
247 11 23 134 108 290 126 160 25 306 236 212 118 
248 11 327 159 118 277 191 138 306 244 108 90 286 
249 11 255 127 162 317 96 111 72 320 132 234 189 
250 11 65 283 311 223 199 322 258 73 299 226 188 
251 11 154 135 156 145 309 182 54 107 53 326 175 
252 11 102 133 193 121 321 8 173 206 289 284 39 
253 11 68 100 131 314 188 88 143 199 223 325 103 
254 11 52 243 208 202 13 144 21 25 230 106 120 
255 11 249 127 162 317 111 96 320 132 72 234 189 
256 11 39 8 297 261 204 193 332 319 31 38 190 
257 11 106 276 120 2 52 150 205 227 157 71 273 
258 11 299 24 17 283 43 250 65 311 271 73 322 
259 11 40 159 90 327 196 248 99 151 89 308 309 
260 11 231 312 78 109 84 184 263 9 67 104 123 
261 11 332 291 142 39 8 38 31 193 256 51 102 
262 11 113 304 237 170 285 183 117 168 210 3 333 
263 11 91 312 78 109 260 128 231 9 115 331 155 
264 11 220 181 241 141 311 322 210 283 299 3 43 
265 11 48 26 37 192 242 140 119 330 294 34 268 
266 11 89 99 151 85 308 49 309 235 259 196 40 
267 11 27 12 41 197 128 30 16 44 70 310 91 
268 11 140 119 242 330 294 33 265 303 48 74 98 
269 11 217 5 149 83 307 42 61 187 79 278 58 
270 11 136 63 245 14 60 238 129 164 218 93 201 
271 11 37 43 22 24 98 17 294 299 258 242 265 
272 9 292 152 179 87 50 214 209 274 280 
273 11 194 276 281 229 232 221 34 296 94 200 257 
274 9 214 280 203 152 62 272 178 50 219 
275 11 4 211 124 198 51 173 305 47 321 67 102 
276 11 273 194 257 150 229 34 281 2 232 76 192 
277 11 58 286 191 187 83 306 239 248 10 92 244 
278 11 79 36 110 19 149 187 307 5 61 300 10 
279 11 46 323 42 61 307 70 147 16 5 110 79 
280 11 62 274 105 214 146 152 50 203 87 167 272 
281 11 229 34 194 273 74 221 296 303 26 192 276 
282 11 144 21 72 96 111 162 243 25 254 75 230 
283 11 250 65 311 322 258 299 223 199 73 24 226 
284 11 44 310 206 334 133 289 180 30 197 267 12 
285 11 183 237 304 210 170 262 113 141 3 241 117 
286 11 191 277 58 239 306 92 187 10 108 134 83 
287 11 101 112 60 71 201 157 245 205 136 2 185 
288 11 69 7 93 218 129 139 177 14 64 73 17 
289 11 206 334 204 284 310 193 319 8 133 44 39 
290 11 118 138 247 108 171 29 134 111 320 306 72 
291 11 142 332 261 305 38 31 51 116 39 8 102 
292 9 272 179 152 87 214 209 50 319 274 
293 11 318 172 315 163 66 195 225 213 55 35 246 
294 11 242 119 98 22 37 271 268 140 265 48 43 
295 11 298 18 95 166 11 57 176 222 333 329 56 
296 11 221 94 74 281 303 194 229 213 273 33 200 
297 9 178 256 190 219 86 319 39 204 203 
298 11 295 18 11 166 95 176 57 333 222 56 329 
299 11 258 24 283 17 43 250 65 311 271 73 322 
300 11 19 36 185 10 92 239 212 278 110 236 79 
301 11 32 169 114 228 208 13 227 230 120 232 233 
302 11 81 20 316 164 158 165 147 14 218 6 143 
303 11 74 33 330 281 221 296 229 34 26 94 140 
304 11 262 113 183 237 285 170 210 117 168 3 141 
305 11 291 142 47 332 216 38 51 31 261 116 211 
306 11 108 134 191 286 92 277 118 239 236 248 10 
307 11 61 42 46 5 323 279 79 217 269 149 278 
308 11 49 85 235 196 161 148 167 151 99 105 146 
309 11 135 145 182 251 326 328 89 154 54 259 29 
310 11 284 44 334 206 180 30 289 133 197 59 16 
311 11 322 283 250 65 223 199 258 299 264 220 241 
312 11 260 78 231 109 84 263 184 9 67 104 123 
313 11 56 329 77 97 176 166 88 11 125 333 295 
314 11 68 131 143 253 100 331 188 6 103 325 316 
315 11 225 55 66 293 172 213 35 195 318 246 186 
316 11 158 325 226 188 73 143 302 100 218 20 199 
317 11 189 137 255 122 249 127 175 234 132 320 54 
318 11 293 163 172 315 66 213 225 195 55 35 246 
319 10 204 289 334 256 206 39 8 292 297 59 
320 11 132 234 111 171 162 29 328 72 326 255 290 
321 11 121 173 102 9 252 51 133 124 198 211 67 
322 11 311 283 65 250 223 199 264 3 241 125 220 
323 11 46 61 279 307 42 110 79 238 147 278 5 
324 11 207 224 15 222 57 104 95 123 18 103 184 
325 11 188 226 158 316 73 199 100 223 143 65 250 
326 11 182 328 145 54 234 171 132 29 175 135 309 
327 11 248 118 138 159 29 108 306 191 259 40 277 
328 11 326 182 29 171 145 234 132 54 320 309 138 
329 11 56 313 77 88 97 176 166 11 95 57 295 
330 11 140 303 33 74 26 268 265 48 119 34 192 
331 11 6 155 115 143 240 314 20 131 68 165 91 
332 11 261 142 38 291 31 39 256 8 116 305 193 
333 11 168 11 176 117 166 298 295 313 56 329 18 
334 11 206 289 284 310 44 180 133 204 319 30 59 
DEPOT_SECTION
   1
   -1
EOF
