NAME :  X-n351-kX-w70-c11.cctp
COMMENT : 	Adapted by Maziero, Usberti and Cavellucci from the Uchoa, Pecin, Pessoa, Poggi, Subramanian, and Vidal (2013)
TYPE :  CCTP
DIMENSION :    329
EDGE_WEIGHT_TYPE : 	EUC_2D	
CAPACITY : 	436
VERTICES_WITHIN_COVERAGE :  11
VERTICES_WITH_DEMAND : 	70
NODE_COORD_SECTION
1 500 500
2 740 442
3 261 710
4 578 522
5 562 509
6 795 425
7 636 463
8 645 617
9 595 524
10 649 599
11 745 252
12 180 757
13 590 598
14 332 775
15 544 551
16 1000 444
17 581 521
18 240 609
19 700 468
20 735 579
21 403 569
22 352 905
23 733 352
24 289 705
25 598 249
26 565 570
27 711 336
28 816 497
29 769 411
30 409 651
31 231 742
32 575 555
33 567 477
34 693 537
35 521 534
36 457 414
37 826 450
38 638 617
39 245 744
40 235 859
41 233 821
42 863 455
43 739 480
44 311 717
45 567 373
46 753 427
47 547 493
48 732 382
49 664 511
50 945 316
51 250 770
52 598 493
53 262 653
54 568 558
55 877 808
56 395 796
57 467 732
58 685 327
59 260 910
60 571 648
61 747 398
62 571 650
63 541 442
64 841 466
65 744 725
66 662 349
67 686 543
68 184 776
69 177 770
70 664 559
71 802 446
72 662 566
73 605 544
74 287 671
75 556 738
76 615 511
77 293 693
78 375 671
79 383 614
80 834 417
81 704 397
82 255 696
83 708 388
84 799 172
85 298 531
86 740 456
87 661 582
88 664 398
89 659 461
90 630 290
91 267 721
92 682 474
93 269 639
94 577 361
95 540 550
96 370 733
97 546 587
98 708 412
99 724 572
100 416 688
101 544 794
102 714 478
103 916 502
104 313 770
105 464 361
106 356 921
107 776 470
108 477 721
109 733 447
110 724 495
111 272 792
112 491 471
113 348 505
114 595 628
115 227 720
116 781 585
117 807 595
118 582 503
119 505 586
120 235 788
121 716 440
122 633 421
123 826 476
124 879 350
125 738 475
126 676 446
127 388 669
128 465 690
129 543 422
130 675 544
131 770 613
132 309 590
133 434 594
134 647 551
135 468 405
136 0 863
137 663 582
138 209 755
139 966 516
140 580 593
141 221 558
142 230 594
143 329 768
144 786 523
145 636 512
146 704 474
147 819 376
148 516 472
149 724 505
150 565 501
151 404 589
152 663 527
153 901 693
154 254 640
155 726 813
156 253 708
157 269 730
158 823 519
159 586 689
160 739 421
161 706 519
162 726 423
163 614 525
164 239 690
165 643 328
166 793 426
167 221 731
168 290 732
169 709 310
170 654 492
171 745 370
172 459 639
173 618 570
174 613 528
175 652 434
176 258 637
177 722 421
178 535 578
179 242 624
180 371 387
181 835 757
182 671 445
183 764 425
184 771 480
185 242 763
186 670 520
187 580 482
188 292 823
189 547 443
190 807 780
191 520 622
192 797 356
193 555 484
194 747 340
195 228 846
196 760 446
197 734 451
198 604 277
199 790 405
200 680 445
201 741 460
202 244 758
203 600 503
204 562 518
205 620 425
206 852 489
207 577 553
208 235 755
209 879 359
210 187 725
211 724 328
212 775 451
213 283 660
214 195 572
215 830 457
216 205 739
217 733 341
218 884 418
219 434 452
220 716 458
221 495 573
222 579 545
223 228 725
224 604 417
225 806 347
226 420 730
227 626 499
228 555 449
229 551 554
230 177 983
231 794 430
232 771 573
233 487 291
234 239 703
235 789 477
236 273 752
237 521 478
238 677 456
239 505 327
240 453 744
241 321 753
242 509 497
243 749 451
244 633 815
245 796 429
246 341 677
247 797 485
248 571 649
249 276 631
250 857 439
251 587 776
252 750 412
253 752 393
254 170 716
255 831 441
256 104 694
257 809 569
258 591 407
259 605 549
260 201 625
261 300 676
262 548 478
263 637 450
264 706 463
265 788 583
266 611 574
267 176 761
268 404 508
269 798 573
270 614 415
271 257 707
272 780 394
273 729 472
274 547 462
275 379 817
276 539 556
277 498 909
278 275 706
279 726 426
280 269 637
281 780 439
282 724 478
283 832 405
284 512 428
285 623 445
286 763 481
287 817 463
288 755 418
289 655 522
290 720 471
291 286 645
292 320 745
293 289 737
294 636 260
295 679 590
296 256 618
297 264 677
298 326 681
299 229 729
300 553 266
301 519 526
302 692 552
303 709 509
304 547 655
305 794 421
306 189 728
307 565 676
308 326 462
309 687 334
310 298 705
311 582 478
312 737 579
313 458 895
314 663 391
315 394 639
316 352 782
317 621 303
318 268 629
319 440 831
320 748 593
321 400 547
322 268 721
323 226 646
324 578 616
325 648 377
326 446 574
327 502 571
328 574 593
329 459 466
DEMAND_SECTION
2 43
3 82
4 57
5 51
6 29
7 55
8 71
9 35
10 28
11 36
12 18
13 42
14 79
15 88
16 68
17 99
18 10
19 11
20 77
21 68
22 44
23 17
24 60
25 33
26 30
27 37
28 87
29 18
30 6
31 42
32 1
33 22
34 78
35 94
36 65
37 88
38 28
39 29
40 34
41 87
42 47
43 53
44 44
45 34
46 94
47 70
48 41
49 28
50 80
51 32
52 20
53 16
54 70
55 22
56 96
57 81
58 23
59 46
60 2
61 56
62 45
63 66
64 7
65 64
66 73
67 51
68 64
69 81
70 86
71 52
COVERAGE_SECTION
2 11 109 197 243 86 201 46 196 160 279 121 162 
3 11 271 156 91 322 82 278 157 234 24 164 297 
4 11 17 204 9 118 5 222 150 203 207 32 52 
5 11 150 204 4 118 17 47 193 33 187 262 9 
6 11 166 245 305 231 199 281 71 29 183 212 272 
7 11 263 285 89 175 170 227 182 205 122 238 126 
8 11 38 10 87 137 295 114 72 173 266 13 70 
9 11 17 4 174 163 73 203 76 118 222 259 52 
10 11 8 38 87 137 295 72 173 70 266 134 13 
11 11 169 211 194 217 27 58 84 309 23 294 225 
12 11 267 69 68 138 306 216 210 254 167 31 208 
13 11 140 328 324 114 266 26 173 97 32 54 207 
14 11 143 104 316 241 292 96 293 168 44 111 188 
15 11 95 276 229 54 26 178 35 32 207 301 97 
16 11 139 103 218 42 50 250 209 124 206 64 80 
17 11 4 9 118 204 5 222 150 203 207 52 73 
18 11 179 142 296 176 154 318 280 323 93 249 260 
19 11 146 264 102 92 220 290 238 282 273 200 121 
20 11 312 99 320 232 116 131 302 265 295 34 67 
21 9 151 321 133 326 79 268 315 30 113 
22 11 106 59 275 188 313 319 56 316 40 14 195 
23 11 217 194 171 211 27 48 83 253 61 169 309 
24 11 310 77 278 44 322 91 168 3 261 157 271 
25 11 198 294 300 90 317 165 94 58 66 233 239 
26 11 54 32 207 229 97 328 140 15 222 276 178 
27 11 211 217 309 169 23 58 194 171 48 66 83 
28 11 247 123 158 235 287 206 64 144 215 37 107 
29 11 183 288 252 272 199 46 253 61 305 166 6 
30 10 315 127 100 78 79 172 133 151 128 246 
31 11 299 39 208 167 223 202 115 185 138 216 51 
32 11 207 54 222 26 229 15 259 73 4 17 95 
33 11 187 193 311 262 150 274 47 118 228 5 52 
34 11 67 302 130 161 186 152 303 70 49 289 72 
35 11 301 95 276 15 229 242 327 204 178 221 5 
36 11 135 219 329 105 284 112 148 129 63 180 237 
37 11 215 255 287 64 71 123 250 80 42 245 231 
38 11 8 10 87 137 114 295 173 266 13 72 324 
39 11 31 202 208 185 299 223 51 167 157 236 115 
40 11 195 41 59 188 120 111 51 185 68 202 208 
41 11 195 120 40 111 51 185 188 202 208 68 138 
42 11 250 64 215 255 206 37 123 218 287 80 283 
43 11 125 273 282 201 110 290 86 286 102 149 197 
44 11 310 24 168 292 77 293 241 278 298 261 322 
45 11 94 258 129 224 270 189 63 205 228 239 284 
46 11 288 183 160 252 2 196 29 243 162 279 109 
47 11 193 262 150 5 33 204 237 274 187 118 148 
48 11 171 61 253 83 23 81 252 98 160 177 162 
49 10 186 289 152 170 145 130 34 67 227 92 
50 9 124 209 218 16 147 225 283 80 250 
51 11 185 202 208 120 39 236 111 31 138 157 299 
52 11 203 118 187 311 76 227 9 17 150 4 33 
53 11 154 93 176 280 213 297 291 318 249 74 179 
54 11 32 207 26 222 229 15 95 276 97 328 4 
55 11 181 190 153 155 65 131 117 265 116 244 257 
56 11 275 316 319 14 96 226 143 240 104 241 292 
57 11 108 240 128 226 100 75 172 56 96 101 30 
58 11 309 27 169 66 211 165 217 23 325 194 83 
59 11 40 195 22 41 188 106 230 111 120 51 185 
60 11 248 62 304 307 114 324 159 13 328 140 191 
61 11 253 252 48 288 160 29 171 46 183 162 272 
62 11 248 60 304 307 114 324 159 13 328 140 191 
63 11 189 228 129 274 284 262 148 237 33 193 47 
64 11 215 123 37 287 42 206 255 250 28 71 247 
65 11 190 155 181 131 320 244 117 116 20 312 8 
66 10 165 309 325 58 314 88 27 83 169 317 
67 11 34 130 302 70 152 186 161 72 289 49 134 
68 11 69 267 12 138 216 306 210 120 208 31 167 
69 11 68 267 12 138 216 306 210 254 167 208 31 
70 11 72 130 134 87 137 67 302 152 295 34 289 
71 11 231 245 6 166 281 287 37 305 212 255 215 
72 11 70 87 137 134 130 295 67 302 10 152 34 
73 10 259 174 163 9 222 173 207 266 32 17 
74 11 213 261 77 297 291 53 24 310 93 278 280 
75 11 251 101 159 307 108 304 57 62 248 60 128 
76 10 163 227 174 203 145 9 52 73 118 17 
77 11 24 310 261 278 74 44 297 213 298 3 82 
78 10 127 246 315 30 100 298 79 96 226 261 
79 8 315 151 30 21 127 133 78 321 
80 11 283 255 250 37 6 215 245 305 166 231 71 
81 10 83 98 177 48 162 279 88 314 160 61 
82 9 271 156 3 164 234 297 278 91 322 
83 10 81 98 48 177 162 61 171 279 23 253 
84 9 11 169 211 225 194 217 192 294 27 
85 9 113 132 308 141 142 18 296 249 318 
86 11 201 197 243 109 2 125 273 196 43 220 290 
87 11 137 72 295 10 70 134 8 130 38 302 173 
88 10 314 325 175 122 81 83 98 182 66 126 
89 11 238 182 7 126 263 92 200 175 170 285 19 
90 11 317 198 294 165 25 58 66 309 169 300 94 
91 11 322 157 3 271 278 156 168 24 293 82 39 
92 11 19 238 146 89 264 126 200 182 102 170 220 
93 11 280 318 176 249 154 53 291 213 296 179 74 
94 11 45 258 224 270 129 317 325 165 205 239 122 
95 11 15 276 229 35 178 54 26 301 32 97 207 
96 11 226 292 316 241 143 14 44 78 246 100 127 
97 11 178 26 328 276 229 140 15 54 95 119 32 
98 10 81 177 162 279 83 121 160 48 61 252 
99 11 20 312 320 302 34 232 67 295 130 161 116 
100 11 127 30 226 78 128 315 96 172 57 240 108 
101 11 251 75 244 57 108 240 319 159 307 277 128 
102 11 290 282 146 273 19 264 110 220 125 43 149 
103 11 139 206 42 64 250 218 123 158 215 28 16 
104 11 143 241 14 292 293 316 168 236 111 44 188 
105 11 135 36 239 233 284 219 180 129 45 329 63 
106 11 22 59 313 275 188 319 56 40 316 277 14 
107 11 184 235 286 212 247 196 281 243 71 201 43 
108 11 57 128 240 226 100 75 172 304 30 101 307 
109 11 197 2 86 201 243 121 220 279 162 273 160 
110 11 149 282 102 43 303 125 273 290 146 161 19 
111 11 51 120 188 236 185 202 104 41 208 39 293 
112 11 148 237 242 329 284 262 274 63 47 219 301 
113 9 308 85 268 321 21 132 151 219 79 
114 11 324 13 60 248 62 140 328 38 8 304 266 
115 9 223 299 167 234 31 156 216 39 164 
116 11 265 232 269 117 131 257 320 312 20 99 144 
117 11 265 269 257 116 131 232 320 312 20 144 158 
118 11 150 17 203 4 52 5 187 9 204 311 33 
119 11 327 221 178 191 97 276 95 15 35 229 326 
120 11 51 185 202 41 208 111 138 39 31 68 236 
121 11 279 109 220 162 177 197 2 264 86 98 160 
122 11 205 270 175 285 224 263 88 7 314 258 182 
123 11 287 64 215 28 37 206 247 255 235 71 42 
124 9 209 147 218 283 225 50 80 192 250 
125 11 43 273 282 201 290 86 102 110 197 243 286 
126 11 200 182 238 89 175 92 19 264 263 121 146 
127 10 78 30 315 100 246 79 298 96 226 172 
128 11 108 57 100 172 240 226 30 127 191 315 304 
129 11 63 189 228 284 274 258 45 262 148 33 237 
130 11 67 34 70 302 152 186 72 134 289 49 87 
131 11 116 320 265 232 117 312 20 269 257 99 144 
132 9 249 318 85 291 296 280 93 176 18 
133 11 326 151 21 172 79 321 315 30 221 119 327 
134 10 70 72 130 152 289 87 137 173 186 67 
135 11 36 105 284 219 329 112 129 63 148 239 189 
136 9 256 69 267 68 12 230 254 195 210 
137 11 87 72 295 10 70 134 8 130 302 38 67 
138 11 216 31 208 167 12 68 299 185 267 306 69 
139 11 103 16 206 42 218 250 64 158 123 215 28 
140 11 328 13 324 26 97 266 54 32 114 207 173 
141 11 214 142 18 179 296 260 85 318 176 154 323 
142 11 18 179 296 141 214 260 176 154 318 323 280 
143 11 14 104 241 292 316 293 168 44 96 236 111 
144 11 158 28 247 184 235 286 257 269 232 107 265 
145 10 227 76 289 163 170 49 174 152 186 203 
146 11 19 102 264 290 220 282 92 273 110 238 125 
147 9 192 225 283 199 272 80 305 6 166 
148 11 237 112 242 262 274 47 63 193 189 284 228 
149 11 110 303 161 282 43 102 125 273 290 146 19 
150 11 5 118 204 47 193 33 187 4 17 262 311 
151 9 21 133 79 321 326 315 30 172 268 
152 10 289 186 49 130 67 134 145 34 70 170 
153 11 181 55 190 117 131 257 265 269 65 116 232 
154 11 176 53 93 280 318 179 296 249 323 291 18 
155 11 190 65 244 181 251 55 101 75 159 131 307 
156 10 271 3 82 234 91 322 278 164 157 115 
157 11 91 322 168 293 3 236 278 271 156 39 24 
158 11 28 144 206 123 247 257 235 64 287 269 215 
159 11 307 62 248 60 304 75 114 324 251 38 13 
160 11 162 252 279 46 288 177 2 61 183 109 121 
161 11 303 34 149 110 67 186 302 130 102 49 152 
162 11 279 177 160 121 98 2 109 252 46 197 288 
163 10 174 76 9 73 145 203 259 227 17 4 
164 7 234 82 156 271 297 3 115 
165 11 66 317 90 58 309 325 198 314 27 169 294 
166 11 6 231 245 305 281 199 71 29 183 212 272 
167 10 299 223 115 31 216 39 138 208 306 234 
168 11 293 157 91 322 44 236 24 310 278 292 3 
169 11 211 27 58 309 217 23 194 66 11 165 171 
170 11 49 145 227 289 89 186 92 7 152 76 238 
171 11 48 23 253 61 194 217 83 252 272 211 27 
172 11 30 128 133 191 100 315 326 119 151 221 127 
173 10 266 259 73 134 13 10 174 72 140 207 
174 10 163 76 9 73 259 145 203 227 17 4 
175 11 182 263 122 126 89 200 285 7 205 238 88 
176 11 154 93 280 318 53 249 296 179 291 18 323 
177 11 162 279 98 160 121 2 109 252 81 46 197 
178 11 97 276 15 95 229 26 119 327 54 221 328 
179 11 18 296 154 176 318 323 280 93 142 53 249 
180 11 308 36 219 105 135 329 113 268 112 239 284 
181 11 190 55 153 65 155 131 117 116 265 320 269 
182 11 126 200 238 89 175 92 263 19 7 264 146 
183 11 46 288 29 252 196 281 160 212 2 166 231 
184 11 286 107 235 247 212 43 125 196 201 243 86 
185 11 202 51 208 39 31 120 236 138 299 167 223 
186 11 152 49 289 130 67 34 170 145 161 70 134 
187 11 311 33 52 118 150 193 203 5 262 47 17 
188 11 111 104 41 14 143 40 120 51 195 236 316 
189 11 63 228 274 129 262 284 33 148 193 237 311 
190 11 181 55 65 155 153 131 244 117 320 116 265 
191 11 119 304 97 178 327 221 60 62 248 324 328 
192 9 225 147 272 199 194 171 253 283 29 
193 11 262 47 33 150 274 187 5 311 118 204 228 
194 11 217 23 211 171 27 48 169 192 253 61 225 
195 11 40 41 120 188 111 59 51 68 185 202 208 
196 11 243 212 2 46 183 281 86 201 197 109 288 
197 11 109 86 2 201 243 220 121 273 125 290 196 
198 11 25 90 317 294 300 165 94 66 58 309 45 
199 11 272 305 6 166 29 231 245 183 281 288 253 
200 11 126 182 238 89 92 19 175 264 121 146 220 
201 11 86 197 243 109 125 273 2 43 196 290 220 
202 11 185 208 51 39 31 236 120 299 138 167 223 
203 11 52 76 118 9 17 163 227 174 4 187 311 
204 11 5 4 150 17 118 47 222 9 193 15 207 
205 11 270 122 224 285 263 175 258 7 88 89 182 
206 11 64 123 42 28 215 158 287 37 250 255 247 
207 11 32 222 54 26 229 259 73 4 17 15 9 
208 11 202 185 31 39 51 138 299 167 223 120 216 
209 9 124 218 147 283 80 225 50 192 250 
210 10 306 254 216 12 167 138 267 115 223 299 
211 11 27 217 169 23 194 309 58 171 48 83 66 
212 11 281 196 107 243 71 183 231 184 235 245 166 
213 11 74 291 53 261 93 297 280 249 77 176 318 
214 9 141 142 260 18 179 296 323 154 176 
215 11 37 64 287 255 123 71 250 42 206 80 28 
216 11 138 167 306 210 31 299 223 115 12 208 267 
217 11 23 194 211 27 171 169 48 309 58 83 253 
218 11 250 42 80 283 255 209 64 37 215 124 147 
219 11 329 36 135 112 268 284 148 242 180 237 105 
220 11 264 290 121 19 197 273 102 109 146 282 86 
221 11 327 119 178 35 276 326 95 97 301 15 191 
222 11 207 32 54 4 17 9 73 259 26 229 204 
223 9 299 115 167 31 39 234 216 156 208 
224 11 270 258 205 122 285 263 175 7 45 228 325 
225 9 192 147 272 194 199 283 171 253 23 
226 11 240 100 57 96 108 128 127 56 78 30 316 
227 10 76 145 203 52 163 170 174 7 289 9 
228 11 189 274 63 33 129 262 193 311 187 47 148 
229 11 15 95 276 54 26 32 207 178 222 97 35 
230 11 59 40 195 41 106 22 188 120 68 69 111 
231 11 245 166 6 305 281 71 199 212 183 29 37 
232 11 116 265 269 320 312 20 257 131 117 99 144 
233 11 239 300 105 94 45 135 198 25 36 317 284 
234 8 164 156 82 271 115 3 223 299 
235 11 247 107 184 286 212 287 28 71 123 281 196 
236 11 157 293 168 39 51 202 322 91 185 208 111 
237 11 148 242 262 47 112 274 193 63 189 228 33 
238 11 126 200 182 89 92 19 264 146 175 220 263 
239 11 233 105 45 300 94 135 36 284 129 198 258 
240 11 57 108 226 128 100 56 96 319 127 30 75 
241 11 292 143 104 14 293 44 168 316 236 96 310 
242 11 237 148 301 112 47 35 262 193 274 5 150 
243 11 86 196 201 2 197 109 46 125 212 273 183 
244 11 251 101 155 75 159 65 307 277 62 190 248 
245 11 231 6 166 305 71 281 199 212 29 183 37 
246 10 298 78 261 127 44 77 310 74 24 213 
247 11 235 28 107 184 123 287 286 71 144 212 158 
248 11 60 62 304 307 114 324 159 13 328 140 191 
249 11 318 280 93 291 176 154 296 53 213 179 74 
250 11 42 255 64 80 215 37 218 283 287 123 206 
251 11 101 75 244 159 307 108 62 304 57 248 60 
252 11 288 61 160 46 29 183 253 162 279 177 2 
253 11 61 252 48 171 29 288 272 160 46 183 162 
254 7 210 306 12 216 267 167 69 
255 11 37 215 80 250 287 64 71 42 123 283 245 
256 5 254 210 306 267 12 
257 11 269 265 117 116 232 144 158 131 320 28 312 
258 11 224 270 205 45 122 94 129 285 228 189 63 
259 10 73 174 173 163 222 266 9 207 32 17 
260 8 323 179 18 142 214 154 296 176 
261 11 74 77 213 298 310 24 291 297 278 246 44 
262 11 193 47 274 33 237 150 228 187 148 5 311 
263 11 7 285 175 89 122 205 182 126 238 270 200 
264 11 19 146 220 290 102 282 121 273 92 197 238 
265 11 116 269 232 117 257 131 320 312 20 144 99 
266 10 173 259 73 13 140 207 32 328 134 222 
267 11 12 69 68 138 306 216 210 254 167 31 208 
268 11 321 113 21 219 329 326 151 133 308 112 242 
269 11 257 265 116 117 232 131 144 320 158 312 20 
270 11 224 205 122 258 285 175 263 325 7 88 314 
271 10 156 3 82 91 234 278 322 164 157 297 
272 11 199 29 253 305 61 6 166 183 252 288 245 
273 11 282 125 290 43 102 201 86 220 197 110 109 
274 11 228 262 189 63 193 33 47 237 148 311 187 
275 11 56 316 14 319 143 104 96 241 188 22 292 
276 11 95 15 229 178 35 54 26 97 32 301 207 
277 11 313 319 101 106 22 275 56 251 244 240 57 
278 11 24 3 91 322 271 77 82 156 310 157 168 
279 11 162 177 160 121 2 109 98 197 46 252 288 
280 11 93 318 249 176 154 53 291 296 213 179 74 
281 11 212 231 166 245 6 183 196 71 305 29 46 
282 11 273 290 102 125 43 110 146 220 264 201 19 
283 11 80 147 255 305 6 199 250 245 166 37 231 
284 11 63 129 189 148 112 228 274 135 237 36 262 
285 11 263 205 7 122 175 270 224 89 182 258 126 
286 11 184 107 43 125 235 201 212 243 86 247 196 
287 11 215 37 123 71 64 255 247 235 28 231 245 
288 11 252 46 183 29 160 61 253 2 196 162 279 
289 10 152 49 186 145 130 134 170 67 227 70 
290 11 282 102 273 220 146 264 125 19 43 110 197 
291 11 213 249 93 280 318 53 74 176 154 261 297 
292 11 241 143 104 44 14 293 168 310 236 316 24 
293 11 168 157 236 322 91 44 24 292 310 278 241 
294 11 90 198 25 317 165 58 300 169 309 66 27 
295 11 137 87 72 10 70 302 8 130 67 99 38 
296 11 179 318 18 176 154 280 249 93 142 53 291 
297 10 82 53 74 213 164 271 278 3 77 156 
298 10 246 261 77 310 44 74 24 213 78 291 
299 10 223 167 115 31 39 216 208 234 156 138 
300 11 25 198 233 317 239 90 294 94 45 165 105 
301 11 35 242 95 15 276 47 229 204 5 237 327 
302 11 67 34 130 70 72 161 99 152 186 295 137 
303 11 161 149 110 102 34 282 146 290 67 186 19 
304 11 60 62 248 307 191 324 159 114 97 328 140 
305 11 6 166 245 231 199 281 71 29 183 272 212 
306 10 210 216 254 12 167 138 267 115 223 299 
307 11 159 62 248 304 60 114 324 75 191 13 328 
308 10 113 85 180 268 219 321 132 21 329 36 
309 11 58 27 66 169 211 165 217 23 83 325 194 
310 11 24 77 44 278 168 261 293 322 91 74 3 
311 11 187 33 52 118 193 150 203 262 5 47 274 
312 11 20 99 320 232 116 131 265 302 295 34 269 
313 11 277 319 106 22 275 56 101 240 316 57 226 
314 10 88 325 81 66 122 175 83 98 182 205 
315 10 30 79 127 78 151 100 133 172 246 21 
316 11 14 143 104 241 275 56 292 96 188 44 293 
317 11 90 198 165 294 25 66 58 94 309 300 325 
318 11 249 280 93 176 296 154 291 53 179 18 213 
319 11 56 275 313 240 277 316 57 226 101 22 108 
320 11 312 20 131 232 99 116 265 269 117 257 295 
321 9 21 268 151 326 133 113 79 315 221 
322 11 91 157 3 278 271 156 168 24 293 82 236 
323 7 179 154 176 260 53 18 296 
324 11 114 13 140 328 60 248 62 97 26 304 266 
325 10 314 88 66 122 165 270 205 175 309 81 
326 11 133 21 151 221 321 327 119 172 79 268 315 
327 11 221 119 178 276 35 95 15 97 301 229 191 
328 11 140 13 324 26 97 54 32 207 114 178 266 
329 11 219 112 36 148 242 135 237 284 268 63 301 
DEPOT_SECTION
   1
   -1
EOF
