NAME :  X-n384-kX-w76-c9.cctp
COMMENT : 	Adapted by Maziero, Usberti and Cavellucci from the Uchoa, Pecin, Pessoa, Poggi, Subramanian, and Vidal (2013)
TYPE :  CCTP
DIMENSION :    359
EDGE_WEIGHT_TYPE : 	EUC_2D	
CAPACITY : 	564
VERTICES_WITHIN_COVERAGE :  9
VERTICES_WITH_DEMAND : 	76
NODE_COORD_SECTION
1 51 570
2 691 985
3 66 119
4 502 415
5 434 289
6 427 584
7 342 576
8 790 87
9 312 475
10 908 531
11 840 566
12 863 232
13 284 833
14 515 175
15 9 243
16 768 209
17 777 582
18 84 508
19 380 523
20 255 267
21 544 961
22 408 661
23 57 588
24 278 44
25 168 722
26 726 406
27 223 385
28 495 70
29 560 632
30 235 655
31 643 127
32 765 267
33 459 976
34 585 962
35 154 796
36 650 444
37 931 52
38 377 19
39 178 633
40 917 803
41 871 677
42 667 164
43 208 651
44 35 437
45 503 680
46 462 870
47 322 123
48 677 829
49 878 407
50 223 251
51 671 94
52 218 351
53 375 220
54 367 567
55 986 869
56 236 769
57 202 998
58 761 712
59 75 520
60 14 737
61 895 632
62 224 725
63 328 387
64 36 300
65 817 531
66 31 283
67 209 574
68 490 395
69 659 121
70 410 207
71 761 450
72 768 348
73 943 340
74 39 955
75 106 150
76 963 376
77 516 144
78 554 127
79 944 75
80 373 88
81 54 5
82 39 965
83 51 392
84 999 983
85 563 410
86 536 848
87 786 533
88 42 948
89 875 361
90 535 800
91 581 696
92 148 875
93 483 983
94 449 343
95 219 600
96 374 487
97 279 200
98 479 705
99 273 519
100 869 745
101 776 395
102 341 275
103 593 973
104 778 716
105 277 152
106 782 314
107 896 301
108 573 478
109 42 198
110 124 348
111 557 630
112 774 669
113 847 411
114 161 755
115 709 832
116 948 830
117 434 60
118 990 161
119 942 399
120 571 611
121 262 680
122 253 246
123 563 416
124 382 91
125 579 962
126 215 439
127 248 65
128 811 175
129 725 834
130 169 359
131 641 926
132 625 52
133 629 8
134 486 394
135 83 462
136 924 930
137 175 333
138 115 192
139 123 534
140 634 528
141 702 299
142 86 172
143 11 889
144 8 583
145 495 538
146 3 14
147 201 666
148 131 348
149 300 323
150 551 167
151 412 90
152 813 64
153 993 344
154 317 999
155 90 595
156 180 817
157 667 24
158 733 661
159 506 774
160 493 953
161 735 602
162 468 639
163 776 107
164 819 750
165 204 781
166 165 858
167 678 218
168 536 950
169 47 421
170 239 153
171 744 664
172 766 64
173 788 448
174 920 330
175 54 707
176 793 257
177 517 964
178 389 503
179 923 563
180 383 388
181 917 890
182 734 599
183 749 248
184 333 17
185 84 713
186 776 428
187 888 452
188 371 465
189 408 820
190 357 613
191 675 690
192 979 298
193 507 187
194 526 595
195 17 545
196 513 146
197 70 513
198 484 862
199 294 987
200 880 478
201 287 733
202 709 30
203 755 201
204 939 682
205 23 975
206 135 799
207 808 471
208 352 279
209 224 900
210 275 130
211 60 465
212 288 813
213 718 755
214 829 744
215 523 799
216 569 157
217 634 665
218 743 336
219 870 16
220 267 623
221 675 856
222 950 618
223 445 653
224 394 763
225 816 368
226 19 825
227 68 548
228 912 106
229 600 71
230 245 644
231 555 400
232 549 230
233 243 724
234 657 925
235 355 48
236 951 488
237 586 851
238 318 318
239 549 848
240 917 3
241 295 453
242 818 398
243 73 482
244 891 952
245 349 100
246 950 284
247 69 29
248 178 1
249 381 457
250 266 918
251 164 506
252 174 282
253 56 123
254 693 864
255 146 606
256 244 461
257 846 275
258 176 95
259 912 431
260 903 582
261 703 553
262 297 364
263 703 755
264 332 591
265 283 487
266 968 440
267 718 490
268 295 702
269 449 997
270 926 605
271 604 188
272 632 895
273 239 159
274 963 544
275 762 412
276 986 378
277 180 267
278 593 544
279 837 710
280 276 708
281 963 733
282 255 875
283 396 884
284 699 106
285 261 853
286 860 800
287 535 344
288 450 911
289 433 336
290 411 46
291 842 35
292 654 385
293 871 67
294 457 532
295 9 162
296 886 356
297 464 267
298 413 493
299 140 227
300 819 673
301 660 739
302 322 299
303 626 556
304 975 276
305 138 941
306 304 86
307 560 367
308 201 120
309 532 473
310 60 255
311 240 267
312 174 678
313 929 577
314 369 972
315 668 756
316 899 435
317 367 634
318 585 668
319 45 722
320 207 394
321 340 665
322 142 543
323 279 945
324 259 574
325 293 833
326 54 58
327 481 595
328 44 507
329 125 942
330 410 444
331 462 734
332 881 743
333 690 935
334 879 195
335 239 813
336 911 347
337 289 397
338 206 571
339 532 174
340 610 399
341 184 52
342 719 98
343 261 552
344 277 497
345 85 267
346 818 67
347 54 568
348 545 251
349 657 549
350 484 37
351 739 237
352 868 790
353 17 42
354 778 328
355 848 464
356 33 255
357 237 37
358 335 531
359 113 544
DEMAND_SECTION
2 83
3 65
4 92
5 73
6 94
7 100
8 99
9 83
10 84
11 81
12 65
13 69
14 84
15 67
16 53
17 70
18 93
19 69
20 78
21 75
22 56
23 99
24 88
25 61
26 65
27 90
28 74
29 85
30 59
31 76
32 79
33 99
34 98
35 80
36 71
37 71
38 93
39 69
40 88
41 71
42 52
43 75
44 83
45 67
46 88
47 64
48 89
49 86
50 84
51 89
52 97
53 85
54 78
55 83
56 90
57 93
58 61
59 84
60 98
61 97
62 78
63 60
64 58
65 63
66 99
67 50
68 93
69 53
70 52
71 70
72 97
73 63
74 72
75 77
76 88
77 66
COVERAGE_SECTION
2 8 333 234 131 103 34 272 125 254 
3 9 253 75 142 326 295 109 138 247 353 
4 9 68 134 231 85 123 309 307 287 94 
5 9 297 289 94 208 70 53 102 180 302 
6 9 327 294 54 162 223 190 19 317 22 
7 9 264 54 190 358 317 19 324 343 6 
8 9 163 152 172 346 342 291 293 128 284 
9 9 241 265 344 99 188 358 96 256 249 
10 9 179 260 313 274 200 236 11 270 187 
11 9 65 87 17 260 10 179 61 313 270 
12 9 334 257 176 107 128 16 246 32 203 
13 7 325 212 285 335 282 56 250 
14 9 193 339 196 77 150 216 78 232 348 
15 8 356 66 310 109 64 345 295 142 
16 9 203 351 183 176 128 32 167 12 163 
17 9 182 161 87 11 65 261 112 171 158 
18 9 59 197 243 328 227 135 359 139 211 
19 9 178 96 298 54 358 188 7 249 6 
20 9 311 122 50 97 149 302 277 238 252 
21 9 168 177 125 34 103 160 93 33 269 
22 9 223 317 162 321 190 6 98 331 45 
23 9 347 155 227 144 195 59 359 197 328 
24 9 127 357 306 184 235 210 47 245 341 
25 9 114 312 62 147 165 35 233 43 56 
26 9 275 101 186 71 72 218 173 292 267 
27 8 320 52 126 130 337 137 262 256 
28 9 350 117 77 196 78 151 290 229 14 
29 9 111 120 318 194 91 45 217 327 162 
30 9 230 43 147 121 220 95 39 312 280 
31 9 69 51 42 284 229 271 132 216 342 
32 9 183 176 351 106 16 354 203 141 218 
33 9 269 93 160 177 288 168 21 314 46 
34 9 125 103 21 168 131 177 234 272 160 
35 9 206 156 114 165 166 25 92 56 335 
36 8 292 340 267 108 26 140 123 85 
37 9 79 240 228 293 219 291 346 152 118 
38 9 235 290 184 80 117 124 151 245 306 
39 9 43 147 255 312 95 30 67 230 338 
40 9 116 352 286 332 100 281 181 55 214 
41 9 279 61 300 332 100 204 214 164 270 
42 9 31 69 167 284 271 51 342 203 216 
43 9 147 30 39 230 312 95 121 220 62 
44 9 169 211 83 135 243 328 197 18 59 
45 9 98 162 223 331 111 29 91 318 194 
46 9 198 288 283 189 86 160 239 215 90 
47 9 245 306 210 105 80 124 235 97 170 
48 9 221 115 254 129 315 263 272 213 301 
49 9 113 316 259 89 187 296 242 119 355 
50 9 311 122 20 277 252 97 299 273 137 
51 9 69 284 31 342 132 42 157 202 229 
52 9 27 320 137 130 262 252 337 148 149 
53 9 70 208 102 5 302 97 297 47 238 
54 9 7 264 19 190 358 6 317 178 96 
55 7 116 181 136 40 84 244 281 
56 9 165 335 62 233 201 212 280 156 114 
57 8 305 199 323 329 209 250 154 92 
58 9 104 112 171 158 213 164 300 263 214 
59 9 197 18 227 328 243 359 139 347 211 
60 9 319 175 185 226 206 114 35 143 144 
61 9 270 41 260 222 313 204 179 11 300 
62 9 233 56 280 25 121 165 147 201 312 
63 9 262 337 180 149 238 241 249 302 9 
64 8 66 356 310 345 15 83 110 109 
65 9 87 11 207 17 355 200 173 10 71 
66 8 64 356 310 15 345 109 83 110 
67 9 338 95 324 343 39 255 322 220 43 
68 9 134 4 231 94 287 85 307 123 289 
69 9 31 51 284 42 342 132 229 271 157 
70 9 53 297 5 208 102 193 14 151 124 
71 9 173 186 275 207 26 101 267 242 87 
72 9 354 218 106 101 225 275 242 26 186 
73 9 174 336 76 153 192 246 276 119 296 
74 9 88 82 205 143 329 305 226 92 166 
75 8 142 138 3 253 109 299 258 295 
76 9 276 119 73 153 336 174 266 259 192 
77 9 196 14 339 78 150 193 216 28 232 
78 9 216 150 77 196 339 14 229 193 271 
79 9 37 228 293 240 219 118 291 346 152 
80 9 124 245 151 235 290 47 117 38 306 
81 8 247 146 353 326 3 253 248 341 
82 9 74 88 205 143 329 305 92 226 166 
83 9 169 44 211 135 110 148 64 243 66 
84 6 136 244 55 181 116 40 
85 8 123 231 307 340 4 108 309 287 
86 8 239 90 237 215 198 46 159 168 
87 9 65 17 11 207 267 182 173 261 161 
88 9 74 82 205 143 329 305 226 92 166 
89 9 296 336 49 174 113 225 107 242 73 
90 8 215 159 86 239 237 198 331 46 
91 9 318 217 29 111 45 120 301 191 98 
92 9 166 156 305 329 206 35 209 282 165 
93 9 33 160 269 177 168 21 288 125 34 
94 9 289 5 134 68 297 180 287 4 330 
95 9 67 338 324 230 43 39 220 30 343 
96 9 178 188 249 19 298 330 358 9 54 
97 9 105 122 273 170 210 20 50 311 47 
98 8 331 45 223 162 159 22 91 224 
99 7 344 265 343 324 9 358 256 
100 9 332 214 352 279 164 286 41 40 300 
101 9 275 186 242 72 225 26 173 71 354 
102 9 208 302 238 149 53 20 122 5 70 
103 9 34 125 21 168 131 177 234 272 2 
104 9 58 112 164 214 279 300 171 158 213 
105 9 210 170 273 97 47 306 308 245 127 
106 9 354 72 218 32 176 225 183 257 101 
107 9 174 336 257 296 246 73 89 12 192 
108 9 309 123 85 278 140 231 36 340 303 
109 8 295 142 15 356 310 138 253 75 
110 9 148 130 137 252 83 345 52 320 277 
111 9 29 120 194 318 91 45 327 217 162 
112 9 171 158 58 300 104 279 161 182 17 
113 9 49 242 225 355 89 316 187 296 259 
114 9 25 35 165 206 156 62 56 312 185 
115 7 129 48 254 221 263 213 315 
116 9 40 55 181 352 286 281 136 332 100 
117 9 290 151 350 124 28 80 38 235 245 
118 9 228 79 304 334 37 246 192 12 293 
119 9 76 259 266 276 316 73 336 49 296 
120 9 29 111 194 318 278 303 217 91 327 
121 9 280 30 230 268 233 220 62 201 43 
122 9 20 311 50 97 277 252 302 273 149 
123 8 85 231 307 340 4 108 309 68 
124 9 80 151 245 235 290 117 47 38 306 
125 9 34 103 21 168 177 131 272 160 234 
126 5 256 320 27 241 265 
127 9 357 24 306 341 210 308 258 170 105 
128 9 16 203 334 163 12 176 8 351 183 
129 7 115 254 48 221 213 263 315 
130 9 137 148 110 52 320 27 252 126 277 
131 9 234 272 333 34 103 125 2 221 254 
132 9 229 133 157 51 31 69 202 284 78 
133 9 157 132 229 202 51 69 31 284 342 
134 9 68 4 94 231 287 85 289 307 123 
135 9 243 211 18 197 44 169 59 328 83 
136 5 244 181 55 84 116 
137 9 130 148 52 252 110 277 320 27 311 
138 8 142 75 299 109 345 310 3 253 
139 9 359 322 18 59 251 197 227 155 243 
140 9 303 349 278 261 108 36 267 120 309 
141 7 218 183 32 351 106 354 72 
142 8 75 138 109 3 253 299 295 310 
143 9 226 88 74 82 205 329 305 92 60 
144 9 195 347 23 227 155 328 59 197 18 
145 9 294 327 194 309 6 298 108 278 120 
146 8 353 81 326 247 253 3 295 75 
147 9 43 312 30 39 230 62 121 25 95 
148 9 110 130 137 252 52 320 83 345 277 
149 9 238 302 262 102 208 63 20 337 311 
150 9 339 216 14 78 77 196 193 271 232 
151 9 124 117 80 290 245 235 38 28 350 
152 9 346 8 291 172 163 293 219 342 228 
153 9 276 76 192 73 304 174 246 119 336 
154 8 199 314 323 250 57 269 209 282 
155 9 23 347 227 359 255 139 322 59 144 
156 9 35 165 166 206 335 114 92 56 285 
157 9 133 202 132 51 229 284 342 69 31 
158 9 171 112 58 161 182 191 104 300 17 
159 8 215 90 331 98 86 239 198 45 
160 9 177 93 33 168 21 288 269 125 46 
161 9 182 17 158 261 171 112 87 349 191 
162 9 223 327 45 22 98 6 194 111 29 
163 9 8 172 152 342 346 128 284 203 291 
164 9 214 279 100 104 332 352 286 58 300 
165 9 56 156 335 114 35 62 25 233 206 
166 9 92 156 35 206 209 165 305 335 282 
167 7 42 351 183 203 271 141 16 
168 9 21 177 160 125 34 103 93 33 288 
169 9 44 83 211 135 243 328 18 197 59 
170 9 273 105 210 308 97 258 47 127 306 
171 9 158 112 58 104 161 182 191 300 17 
172 9 8 163 152 346 342 202 284 291 51 
173 9 186 71 207 275 101 242 355 113 26 
174 9 336 73 107 296 89 246 76 192 119 
175 9 319 185 60 25 114 155 23 206 226 
176 9 32 183 16 257 106 351 203 354 12 
177 9 168 160 21 93 33 125 34 269 103 
178 9 19 96 298 188 249 358 330 54 294 
179 9 313 260 10 270 274 222 61 236 11 
180 9 63 330 249 289 188 94 262 337 238 
181 7 136 244 116 55 40 286 352 
182 9 161 17 261 158 171 112 87 349 65 
183 9 351 32 16 176 203 141 106 167 354 
184 9 235 38 24 306 80 290 245 124 127 
185 9 175 319 60 25 114 312 206 35 155 
186 9 275 173 71 101 242 207 26 225 113 
187 9 316 200 259 355 49 113 236 119 10 
188 9 249 96 178 330 298 19 9 358 241 
189 4 224 283 46 198 
190 9 317 264 7 54 321 22 6 358 220 
191 9 217 301 158 315 263 171 213 58 318 
192 9 304 246 153 73 174 76 276 107 336 
193 9 14 339 196 77 150 232 216 348 78 
194 9 327 111 120 29 145 162 278 45 294 
195 9 144 347 328 227 23 197 59 18 243 
196 9 77 14 339 193 150 78 216 28 232 
197 9 59 18 328 243 227 211 135 359 139 
198 9 46 86 288 239 215 90 189 159 160 
199 8 154 323 250 314 57 209 282 285 
200 9 187 355 316 259 10 49 207 236 113 
201 7 280 268 233 121 56 62 212 
202 9 157 172 342 51 284 133 132 8 163 
203 9 16 351 183 128 32 176 167 42 163 
204 9 281 222 61 41 270 332 100 313 260 
205 9 82 74 88 143 329 305 226 92 57 
206 9 35 156 114 166 165 92 25 185 56 
207 9 173 355 71 186 65 87 113 200 242 
208 9 102 302 238 53 149 5 70 20 289 
209 8 282 250 285 323 166 92 335 13 
210 9 105 170 273 47 306 97 127 308 245 
211 9 243 135 44 328 169 18 197 59 83 
212 7 13 325 285 335 56 282 201 
213 9 263 315 301 58 104 115 191 129 48 
214 9 164 279 100 332 104 352 286 300 58 
215 8 90 159 86 239 198 237 331 46 
216 9 150 78 339 271 77 14 196 193 232 
217 9 191 318 91 301 29 120 111 315 158 
218 9 72 354 106 141 101 26 32 275 225 
219 9 291 240 293 37 346 152 79 228 8 
220 9 230 30 324 95 121 43 343 264 67 
221 9 254 48 115 129 272 234 131 333 237 
222 9 270 313 61 260 179 204 274 10 41 
223 9 162 22 98 45 327 6 317 331 190 
224 4 189 331 22 98 
225 9 242 101 72 113 354 89 106 275 296 
226 9 143 60 319 206 175 88 185 74 35 
227 9 347 59 197 23 18 359 328 195 155 
228 9 79 37 293 118 334 219 291 346 240 
229 9 132 133 31 78 51 69 157 216 28 
230 9 30 220 43 121 147 95 39 280 324 
231 8 85 123 307 4 340 287 68 134 
232 7 348 339 193 150 14 271 216 
233 9 62 280 201 56 121 268 30 165 147 
234 9 131 333 272 2 221 254 103 34 125 
235 9 38 184 80 124 245 290 306 151 24 
236 9 266 274 10 259 200 187 316 179 119 
237 8 239 86 272 90 215 221 131 48 
238 9 149 302 102 262 208 63 20 337 311 
239 8 86 237 90 215 198 159 46 272 
240 9 219 37 79 293 291 228 346 152 8 
241 8 9 265 344 256 337 99 63 188 
242 9 225 113 101 186 173 275 49 89 72 
243 9 211 135 18 197 59 328 44 169 227 
244 4 136 181 84 55 
245 9 80 124 47 306 235 151 210 290 184 
246 9 304 192 174 73 107 153 336 76 296 
247 8 81 326 353 146 3 253 248 341 
248 8 341 357 258 127 24 247 308 81 
249 9 188 96 330 178 298 19 180 9 241 
250 8 323 282 209 285 199 13 325 154 
251 5 322 139 359 338 18 
252 8 277 137 50 299 311 130 148 20 
253 9 3 75 142 295 326 109 353 138 247 
254 8 221 115 48 129 272 234 333 131 
255 9 39 155 322 338 359 67 95 139 43 
256 6 126 265 344 241 99 9 
257 9 12 107 176 106 32 354 334 296 89 
258 8 308 341 127 357 170 75 273 248 
259 9 316 187 49 119 200 266 113 236 355 
260 9 313 179 270 10 61 222 11 274 41 
261 9 349 182 161 267 140 303 17 87 278 
262 9 337 63 149 238 302 27 52 180 241 
263 9 213 315 301 191 58 115 48 129 104 
264 9 7 190 54 317 358 220 321 324 343 
265 6 344 9 99 241 256 358 
266 9 119 236 259 76 276 316 187 49 200 
267 9 71 261 87 36 173 26 186 349 275 
268 8 280 201 121 233 321 62 30 230 
269 9 33 93 160 177 314 288 168 21 283 
270 9 222 313 260 61 179 274 10 204 41 
271 8 216 150 42 232 31 339 78 167 
272 8 131 234 221 237 254 333 48 34 
273 9 170 105 210 308 97 122 47 258 50 
274 9 179 313 10 236 260 270 222 266 200 
275 9 186 101 26 71 173 242 72 225 207 
276 9 76 153 119 73 266 192 336 174 259 
277 8 252 50 299 311 137 20 122 52 
278 9 303 140 349 108 120 194 111 29 309 
279 9 214 300 164 41 100 332 104 112 58 
280 9 268 201 121 233 62 30 230 56 321 
281 9 204 332 40 100 116 41 352 222 61 
282 8 285 209 250 13 325 335 212 323 
283 6 288 189 46 198 314 33 
284 9 342 51 69 31 42 163 202 172 157 
285 8 282 13 325 335 212 209 250 56 
286 8 352 100 40 332 214 164 116 279 
287 7 307 231 68 134 85 123 4 
288 9 46 160 198 283 33 93 177 269 168 
289 9 94 5 180 297 134 68 208 287 4 
290 9 117 38 151 124 235 80 350 245 184 
291 9 219 346 152 293 8 172 240 37 163 
292 6 340 36 26 85 123 307 
293 9 291 219 346 228 152 37 79 240 8 
294 9 145 298 6 327 178 19 194 96 309 
295 9 109 253 3 142 15 356 75 310 138 
296 9 89 336 174 49 107 73 113 119 225 
297 9 5 289 94 70 348 193 232 53 14 
298 9 178 96 19 249 330 188 294 54 358 
299 8 138 277 252 345 142 75 310 50 
300 9 279 112 41 104 58 214 171 164 61 
301 9 315 263 191 213 217 91 48 318 58 
302 9 238 102 149 208 262 20 122 63 311 
303 9 140 349 278 261 120 108 29 111 194 
304 9 192 246 153 73 174 107 336 76 276 
305 9 329 92 57 166 209 88 74 82 205 
306 9 47 245 24 210 127 235 80 105 184 
307 7 231 287 85 123 340 4 68 
308 9 258 170 273 341 127 210 105 357 75 
309 9 108 4 123 85 145 231 68 134 278 
310 8 356 345 66 64 15 109 138 299 
311 9 20 50 122 277 252 97 149 52 302 
312 9 147 43 25 39 30 62 255 114 230 
313 9 179 260 270 222 274 10 61 11 236 
314 8 154 199 269 33 283 323 288 93 
315 9 301 263 213 191 48 115 129 217 221 
316 9 259 187 49 200 119 113 355 266 236 
317 9 190 321 22 264 7 54 6 223 268 
318 9 91 29 111 217 120 45 191 194 301 
319 9 175 60 185 226 206 114 25 35 23 
320 7 27 52 126 130 137 256 337 
321 8 317 190 268 22 264 280 121 220 
322 9 139 359 251 255 18 338 59 67 155 
323 8 250 199 154 209 282 57 285 314 
324 9 343 95 67 220 338 99 230 264 344 
325 6 13 212 285 282 335 56 
326 8 247 353 81 3 253 146 75 295 
327 9 194 162 6 145 294 223 111 29 45 
328 9 197 59 243 18 211 195 227 135 347 
329 9 305 92 88 74 82 166 57 205 209 
330 9 249 188 298 96 180 178 19 134 68 
331 8 98 159 45 224 223 215 22 162 
332 9 100 352 214 279 286 164 41 40 281 
333 7 234 2 131 272 254 221 103 
334 9 12 128 257 228 176 107 16 246 118 
335 9 56 285 165 13 212 325 156 282 35 
336 9 174 296 73 89 107 76 119 49 246 
337 9 262 63 241 27 149 256 9 320 238 
338 9 67 95 324 343 39 255 322 251 43 
339 9 14 150 193 77 196 216 78 232 271 
340 7 292 85 123 231 307 36 108 
341 8 258 248 357 127 308 24 170 247 
342 9 284 51 163 172 69 202 8 31 42 
343 8 324 99 67 344 338 95 265 220 
344 6 265 99 9 241 256 343 
345 8 310 356 66 64 299 15 109 138 
346 9 152 8 291 172 293 163 219 228 342 
347 9 23 227 195 155 144 59 197 328 359 
348 6 232 193 339 14 297 150 
349 9 140 303 261 278 267 182 161 36 120 
350 9 28 117 290 151 38 77 196 78 124 
351 8 183 203 16 32 176 167 141 106 
352 8 286 100 332 40 214 164 279 116 
353 8 146 326 81 247 253 3 295 75 
354 9 106 72 218 225 32 101 176 141 242 
355 9 200 207 187 113 316 173 49 242 259 
356 8 15 310 66 64 345 109 295 142 
357 8 127 24 341 248 306 258 308 184 
358 9 7 19 54 96 264 9 178 99 344 
359 9 139 322 59 227 18 197 155 251 347 
DEPOT_SECTION
   1
   -1
EOF
