NAME :  X-n317-kX-w126-c7.cctp
COMMENT : 	Adapted by Maziero, Usberti and Cavellucci from the Uchoa, Pecin, Pessoa, Poggi, Subramanian, and Vidal (2013)
TYPE :  CCTP
DIMENSION :    314
EDGE_WEIGHT_TYPE : 	EUC_2D	
CAPACITY : 	6
VERTICES_WITHIN_COVERAGE :  7
VERTICES_WITH_DEMAND : 	126
NODE_COORD_SECTION
1 0 0
2 971 544
3 564 976
4 266 4
5 395 95
6 379 271
7 936 538
8 980 578
9 242 92
10 476 74
11 247 159
12 359 108
13 473 941
14 490 947
15 548 950
16 389 864
17 916 664
18 212 91
19 415 182
20 961 553
21 423 232
22 596 931
23 955 566
24 534 93
25 252 6
26 950 580
27 517 950
28 942 618
29 636 981
30 629 809
31 508 35
32 108 130
33 391 19
34 208 183
35 991 680
36 428 48
37 272 220
38 931 581
39 327 128
40 966 514
41 313 202
42 267 1
43 404 925
44 985 594
45 895 429
46 348 12
47 316 258
48 238 20
49 970 490
50 854 586
51 293 104
52 628 919
53 880 597
54 353 241
55 753 728
56 291 93
57 993 439
58 382 125
59 230 36
60 984 471
61 489 23
62 277 137
63 593 171
64 378 204
65 411 87
66 207 85
67 538 991
68 906 631
69 343 72
70 445 68
71 673 268
72 576 951
73 388 66
74 953 504
75 434 145
76 530 11
77 632 879
78 541 968
79 353 851
80 629 868
81 593 896
82 936 411
83 272 40
84 276 93
85 469 169
86 359 894
87 548 998
88 52 69
89 397 58
90 507 145
91 451 162
92 646 996
93 532 906
94 220 126
95 536 831
96 482 212
97 137 53
98 511 991
99 978 506
100 300 111
101 907 711
102 908 488
103 222 137
104 266 48
105 423 67
106 268 125
107 434 25
108 548 982
109 511 888
110 371 256
111 440 179
112 331 82
113 965 439
114 545 968
115 447 40
116 785 664
117 915 669
118 468 98
119 247 6
120 271 70
121 260 110
122 902 679
123 926 874
124 587 988
125 368 419
126 351 158
127 967 685
128 559 968
129 278 56
130 877 507
131 353 164
132 984 540
133 380 89
134 886 376
135 943 408
136 420 204
137 386 78
138 219 18
139 497 961
140 542 965
141 718 869
142 297 45
143 414 69
144 606 959
145 575 99
146 330 101
147 364 74
148 257 22
149 371 64
150 600 994
151 951 536
152 534 896
153 297 96
154 467 149
155 438 917
156 385 883
157 233 239
158 481 945
159 414 128
160 602 752
161 592 151
162 267 82
163 587 946
164 728 991
165 242 136
166 292 9
167 916 480
168 494 918
169 2 149
170 24 105
171 933 577
172 227 49
173 651 947
174 991 512
175 805 704
176 253 66
177 628 824
178 199 18
179 833 534
180 633 864
181 343 42
182 565 991
183 603 996
184 404 30
185 434 92
186 393 81
187 351 78
188 390 56
189 536 967
190 553 985
191 652 868
192 472 900
193 824 545
194 370 189
195 196 21
196 524 974
197 590 878
198 551 951
199 480 48
200 384 185
201 327 228
202 567 966
203 537 964
204 929 577
205 491 141
206 336 12
207 496 953
208 149 57
209 394 63
210 250 252
211 238 63
212 245 222
213 263 50
214 231 37
215 512 13
216 868 481
217 994 635
218 697 87
219 989 535
220 462 954
221 355 240
222 335 89
223 817 544
224 501 154
225 196 66
226 389 36
227 413 62
228 277 111
229 245 95
230 878 469
231 407 109
232 326 52
233 999 601
234 974 433
235 578 969
236 548 784
237 519 21
238 436 135
239 986 436
240 483 19
241 420 197
242 825 609
243 347 96
244 967 530
245 749 542
246 271 20
247 307 72
248 420 130
249 821 398
250 147 97
251 950 512
252 394 190
253 962 584
254 934 530
255 611 926
256 323 185
257 966 530
258 378 189
259 334 189
260 340 77
261 265 136
262 303 315
263 533 852
264 562 977
265 995 477
266 862 649
267 379 190
268 935 565
269 178 11
270 465 237
271 214 179
272 479 913
273 903 530
274 379 102
275 268 8
276 922 511
277 403 33
278 289 71
279 474 196
280 374 90
281 557 25
282 957 581
283 134 103
284 554 116
285 392 111
286 200 392
287 929 514
288 521 905
289 341 210
290 394 77
291 339 130
292 938 635
293 315 258
294 970 710
295 376 48
296 402 128
297 954 450
298 528 302
299 433 137
300 353 113
301 611 991
302 235 12
303 544 988
304 958 520
305 521 76
306 334 23
307 264 63
308 591 913
309 532 972
310 589 956
311 568 972
312 983 621
313 418 817
314 334 176
DEMAND_SECTION
2 1
3 1
4 1
5 1
6 1
7 1
8 1
9 1
10 1
11 1
12 1
13 1
14 1
15 1
16 1
17 1
18 1
19 1
20 1
21 1
22 1
23 1
24 1
25 1
26 1
27 1
28 1
29 1
30 1
31 1
32 1
33 1
34 1
35 1
36 1
37 1
38 1
39 1
40 1
41 1
42 1
43 1
44 1
45 1
46 1
47 1
48 1
49 1
50 1
51 1
52 1
53 1
54 1
55 1
56 1
57 1
58 1
59 1
60 1
61 1
62 1
63 1
64 1
65 1
66 1
67 1
68 1
69 1
70 1
71 1
72 1
73 1
74 1
75 1
76 1
77 1
78 1
79 1
80 1
81 1
82 1
83 1
84 1
85 1
86 1
87 1
88 1
89 1
90 1
91 1
92 1
93 1
94 1
95 1
96 1
97 1
98 1
99 1
100 1
101 1
102 1
103 1
104 1
105 1
106 1
107 1
108 1
109 1
110 1
111 1
112 1
113 1
114 1
115 1
116 1
117 1
118 1
119 1
120 1
121 1
122 1
123 1
124 1
125 1
126 1
127 1
COVERAGE_SECTION
2 7 20 132 244 257 219 151 23 
3 7 264 311 128 202 190 182 235 
4 7 42 275 25 246 119 148 166 
5 7 186 133 285 274 65 231 290 
6 7 110 221 54 21 47 293 64 
7 7 254 151 287 268 304 20 251 
8 7 44 253 282 23 26 233 20 
9 7 229 121 162 176 211 18 84 
10 7 118 199 70 115 305 185 31 
11 7 165 261 103 62 271 106 94 
12 7 300 243 274 280 133 58 146 
13 7 158 220 14 207 272 139 168 
14 7 207 158 139 13 27 168 220 
15 7 198 140 114 203 78 128 189 
16 7 156 79 86 313 43 155 192 
17 7 117 122 68 292 101 28 127 
18 7 66 9 225 229 94 211 172 
19 7 241 252 136 111 200 267 258 
20 7 2 23 151 244 257 132 282 
21 7 136 241 270 19 252 64 111 
22 7 255 163 308 310 72 144 52 
23 7 20 26 282 253 268 171 2 
24 7 305 284 145 90 10 31 205 
25 7 119 4 42 275 148 302 48 
26 7 282 253 23 171 38 204 268 
27 7 207 139 203 189 196 14 309 
28 7 292 68 26 38 253 282 312 
29 7 92 301 183 144 173 150 124 
30 7 177 180 80 160 191 77 197 
31 7 237 61 215 240 199 76 305 
32 7 283 250 97 88 208 170 169 
33 7 184 226 277 295 188 89 107 
34 7 271 11 103 212 94 165 157 
35 7 127 294 217 312 292 17 117 
36 7 105 115 227 107 143 70 277 
37 7 212 210 157 41 201 293 47 
38 7 171 204 268 26 282 23 253 
39 7 291 146 300 100 12 126 243 
40 7 304 99 74 244 251 257 49 
41 7 256 259 289 201 314 37 131 
42 7 4 275 25 246 119 148 166 
43 7 155 156 86 16 220 13 192 
44 7 233 8 253 312 282 26 23 
45 7 230 82 135 134 167 216 102 
46 6 206 306 181 33 232 295 
47 7 293 201 54 221 289 110 41 
48 7 302 119 59 214 138 148 25 
49 7 99 74 40 60 265 174 251 
50 7 53 242 193 179 223 266 68 
51 7 153 100 56 228 84 106 278 
52 7 255 22 173 308 77 81 144 
53 7 50 68 38 204 266 242 171 
54 7 221 110 201 289 6 47 293 
55 7 175 116 266 242 141 30 160 
56 7 153 51 84 100 278 228 162 
57 7 239 234 113 60 265 297 49 
58 7 285 296 274 12 231 300 159 
59 7 214 172 48 138 302 211 148 
60 7 265 49 57 239 99 113 297 
61 7 240 31 215 199 237 76 115 
62 7 261 106 228 121 100 165 11 
63 7 161 284 145 90 224 24 205 
64 7 267 258 194 200 252 289 136 
65 7 5 143 186 290 231 105 185 
66 7 18 225 9 211 229 172 94 
67 7 303 87 108 190 309 196 78 
68 7 292 17 28 117 53 122 266 
69 7 260 187 112 222 147 243 232 
70 7 105 36 185 115 143 10 227 
71 7 63 161 298 218 284 145 249 
72 7 163 310 202 235 311 128 198 
73 7 209 188 89 137 290 186 149 
74 7 251 40 304 49 99 287 257 
75 6 299 238 248 91 159 154 
76 7 237 215 281 31 61 240 199 
77 7 80 180 191 52 197 81 255 
78 7 140 114 189 203 309 108 128 
79 7 16 86 156 313 43 155 192 
80 7 180 77 191 197 177 81 52 
81 7 308 197 22 255 52 77 80 
82 7 135 113 297 234 45 239 134 
83 7 104 213 129 246 148 307 142 
84 7 162 56 228 51 153 121 120 
85 7 91 154 279 111 224 205 75 
86 7 156 16 79 43 155 313 192 
87 7 303 67 190 108 182 264 3 
88 7 170 32 97 283 169 208 250 
89 7 209 188 73 227 290 143 137 
90 7 224 205 154 85 284 24 91 
91 7 85 111 154 75 238 299 19 
92 7 29 301 183 150 173 144 124 
93 7 152 288 109 168 27 15 198 
94 7 103 165 18 9 229 11 66 
95 7 263 236 109 152 197 93 288 
96 7 279 270 85 111 91 224 21 
97 7 208 250 283 269 225 195 178 
98 7 196 67 309 139 303 189 203 
99 7 40 174 49 304 74 244 257 
100 7 51 153 56 228 84 39 146 
101 7 122 117 17 294 127 266 68 
102 7 167 276 287 130 230 216 273 
103 7 94 165 11 261 271 18 121 
104 7 213 83 129 307 176 120 148 
105 7 143 227 36 70 65 185 89 
106 7 261 62 121 228 165 51 84 
107 7 115 36 184 277 33 105 227 
108 7 190 303 67 114 264 78 87 
109 7 288 152 93 168 192 272 263 
110 7 6 54 221 64 201 47 289 
111 7 91 19 241 85 136 75 279 
112 7 222 260 69 146 187 243 247 
113 7 234 297 239 57 60 135 82 
114 7 78 140 189 203 108 128 309 
115 7 107 36 70 199 105 227 240 
116 7 175 242 55 266 50 53 122 
117 7 17 122 68 292 101 127 266 
118 7 10 185 70 205 238 154 199 
119 7 25 302 48 4 148 42 275 
120 7 307 162 129 176 278 213 104 
121 7 106 228 229 84 9 261 162 
122 7 117 17 101 68 266 292 127 
123 7 101 294 127 122 35 117 141 
124 7 150 183 235 182 301 311 3 
125 7 262 6 110 47 293 286 54 
126 7 131 314 291 259 194 39 256 
127 7 35 294 117 17 217 292 101 
128 7 202 3 264 311 114 140 78 
129 7 104 120 213 307 83 278 142 
130 7 216 273 102 230 276 167 179 
131 7 126 314 194 259 258 200 256 
132 7 219 2 244 257 20 174 40 
133 7 280 137 274 186 5 290 147 
134 7 45 82 135 249 230 297 113 
135 7 82 113 234 297 239 45 57 
136 7 241 19 21 252 111 200 64 
137 7 186 290 73 133 209 280 5 
138 7 302 48 178 59 214 195 119 
139 7 207 14 27 158 196 13 98 
140 7 78 114 203 189 309 15 128 
141 7 191 180 77 80 177 52 173 
142 6 129 83 278 247 232 104 
143 7 227 105 65 89 209 290 186 
144 7 310 163 22 235 72 301 255 
145 7 284 24 161 305 63 281 90 
146 7 222 243 112 260 300 39 12 
147 7 149 187 280 69 133 137 260 
148 7 246 25 275 48 119 4 42 
149 7 147 73 295 137 188 209 187 
150 7 183 301 124 235 182 144 29 
151 7 7 257 244 304 254 20 2 
152 7 93 288 109 263 168 15 27 
153 7 56 51 100 84 228 247 278 
154 7 85 91 205 75 224 238 299 
155 7 43 192 272 13 220 158 168 
156 7 16 86 79 43 155 313 192 
157 7 210 212 37 34 271 11 293 
158 7 13 14 207 220 139 168 272 
159 6 248 296 231 299 238 75 
160 7 30 236 177 95 180 80 263 
161 7 63 284 145 24 90 224 205 
162 7 120 84 307 176 278 56 229 
163 7 310 72 22 144 235 202 255 
164 7 92 173 29 301 141 52 183 
165 7 103 261 11 94 106 121 62 
166 6 246 275 4 42 142 83 
167 7 102 276 287 230 74 130 251 
168 7 272 192 14 158 288 13 109 
169 7 170 88 32 283 250 97 208 
170 7 88 169 32 283 250 97 208 
171 7 38 204 268 26 282 23 253 
172 7 59 214 211 48 176 138 225 
173 7 52 29 255 144 92 22 301 
174 7 99 219 40 132 49 244 257 
175 7 116 55 266 242 122 101 117 
176 7 307 211 120 213 162 104 129 
177 7 30 180 80 191 77 197 160 
178 7 195 138 269 59 302 214 48 
179 6 193 223 130 50 216 273 
180 7 80 77 191 177 197 81 30 
181 6 232 306 46 69 206 295 
182 7 190 264 3 87 108 311 303 
183 7 150 301 124 29 144 235 182 
184 7 277 226 33 89 36 107 188 
185 6 65 70 105 143 231 118 
186 7 290 137 5 133 73 209 65 
187 7 69 260 147 243 222 112 149 
188 7 89 209 73 295 226 149 290 
189 7 203 78 140 309 114 196 108 
190 7 108 303 264 182 3 87 67 
191 7 180 77 80 177 52 30 197 
192 7 272 168 155 13 109 158 288 
193 7 223 179 50 242 130 245 53 
194 7 258 267 200 64 252 131 126 
195 7 178 269 138 59 214 302 48 
196 7 309 189 203 78 140 98 67 
197 7 81 308 80 77 180 255 22 
198 7 15 140 114 128 203 78 189 
199 7 10 61 240 31 115 70 215 
200 7 258 267 252 194 64 19 131 
201 7 289 54 41 221 47 293 259 
202 7 311 128 3 235 264 72 114 
203 7 189 140 78 114 309 196 15 
204 7 38 171 268 26 23 282 253 
205 7 90 224 154 85 91 118 238 
206 6 306 46 181 232 166 142 
207 7 14 139 158 27 13 220 168 
208 7 97 250 225 283 269 195 178 
209 7 89 73 188 290 137 186 227 
210 7 157 212 37 293 47 41 34 
211 7 176 172 307 214 59 213 9 
212 7 157 37 210 271 34 11 41 
213 7 104 83 307 129 176 120 211 
214 7 59 172 48 138 302 211 148 
215 7 237 76 31 61 240 199 281 
216 6 230 130 102 167 45 273 
217 7 312 233 44 35 28 292 127 
218 7 145 161 63 284 281 24 305 
219 7 132 2 174 244 257 40 99 
220 7 13 158 14 207 139 155 272 
221 7 54 110 201 289 6 47 64 
222 7 112 146 260 243 69 187 300 
223 6 193 179 50 242 245 130 
224 7 90 205 154 85 279 91 96 
225 7 66 18 172 211 59 195 214 
226 7 277 184 33 295 188 89 209 
227 7 143 105 89 209 36 188 290 
228 7 51 106 121 84 56 100 153 
229 7 9 121 162 176 84 18 211 
230 6 216 102 130 167 45 276 
231 6 285 5 159 296 65 248 
232 6 181 69 247 260 112 142 
233 7 44 312 8 217 253 282 26 
234 7 113 239 57 297 60 135 82 
235 7 311 202 3 310 72 264 128 
236 7 95 160 263 30 177 197 109 
237 7 215 76 31 61 240 281 199 
238 6 299 75 248 159 91 154 
239 7 57 234 113 60 297 265 135 
240 7 61 199 31 215 237 115 76 
241 7 136 19 111 252 21 200 267 
242 7 50 266 53 193 223 116 179 
243 7 222 12 146 187 300 260 112 
244 7 257 304 2 40 151 132 219 
245 6 223 193 179 242 50 116 
246 7 275 148 4 42 83 25 166 
247 7 278 56 112 153 232 142 129 
248 6 159 299 238 296 75 231 
249 6 134 45 230 216 82 135 
250 7 283 208 97 32 225 66 18 
251 7 74 304 40 287 151 254 257 
252 7 200 267 258 64 19 194 241 
253 7 282 26 8 23 44 171 20 
254 7 7 287 151 276 251 304 273 
255 7 22 52 308 163 144 81 310 
256 7 259 314 41 289 131 126 201 
257 7 244 304 2 40 151 132 20 
258 7 267 200 194 64 252 131 19 
259 7 256 314 289 41 131 126 194 
260 7 69 112 187 222 243 147 146 
261 7 106 62 165 121 228 11 51 
262 7 47 293 210 6 54 110 201 
263 7 95 109 152 93 288 197 236 
264 7 3 311 128 190 202 182 108 
265 7 60 49 99 174 57 239 40 
266 7 68 122 242 53 17 117 50 
267 7 258 200 194 64 252 19 131 
268 7 171 204 38 23 26 7 282 
269 7 195 178 138 208 302 59 225 
270 7 96 21 279 136 241 111 85 
271 7 34 11 103 165 94 212 157 
272 7 192 168 13 158 14 109 155 
273 7 276 254 287 7 130 102 268 
274 7 133 280 285 5 12 58 137 
275 7 4 42 246 25 148 119 166 
276 7 287 254 102 273 251 7 74 
277 7 184 226 33 89 188 36 209 
278 7 120 247 129 56 162 84 153 
279 7 96 85 111 91 270 154 224 
280 7 133 274 137 147 186 5 12 
281 7 76 237 215 31 305 61 24 
282 7 253 26 23 8 171 38 268 
283 7 250 32 208 97 225 66 18 
284 7 145 24 161 305 90 224 63 
285 6 231 5 274 58 296 133 
286 7 262 210 157 125 212 47 293 
287 7 276 254 251 7 74 304 151 
288 7 93 152 109 168 272 27 192 
289 7 259 201 41 256 54 221 314 
290 7 186 137 73 209 5 133 89 
291 7 39 300 12 126 146 243 131 
292 7 28 68 17 117 312 38 26 
293 7 47 201 54 221 289 41 110 
294 7 127 35 101 117 17 122 217 
295 7 188 149 226 73 89 209 147 
296 6 159 248 58 231 285 299 
297 7 113 234 239 60 57 49 82 
298 7 270 96 279 21 85 63 136 
299 6 238 75 248 159 91 296 
300 7 12 243 291 146 274 39 222 
301 7 183 150 124 29 144 92 235 
302 7 48 119 138 25 148 59 214 
303 7 67 108 190 87 78 114 309 
304 7 40 251 244 257 74 151 99 
305 7 24 31 10 199 284 237 118 
306 6 206 46 181 232 142 166 
307 7 120 176 213 104 129 162 83 
308 7 81 22 255 163 197 52 72 
309 7 189 196 203 78 140 114 108 
310 7 163 72 144 235 202 22 311 
311 7 3 202 264 128 235 182 190 
312 7 217 233 44 28 8 253 292 
313 7 16 79 156 86 192 155 43 
314 7 259 256 131 126 41 289 194 
DEPOT_SECTION
   1
   -1
EOF
