NAME :  X-n384-kX-w76-c11.cctp
COMMENT : 	Adapted by Maziero, Usberti and Cavellucci from the Uchoa, Pecin, Pessoa, Poggi, Subramanian, and Vidal (2013)
TYPE :  CCTP
DIMENSION :    375
EDGE_WEIGHT_TYPE : 	EUC_2D	
CAPACITY : 	564
VERTICES_WITHIN_COVERAGE :  11
VERTICES_WITH_DEMAND : 	76
NODE_COORD_SECTION
1 51 570
2 691 985
3 66 119
4 502 415
5 434 289
6 427 584
7 342 576
8 790 87
9 312 475
10 908 531
11 840 566
12 863 232
13 284 833
14 515 175
15 9 243
16 768 209
17 777 582
18 84 508
19 380 523
20 255 267
21 544 961
22 408 661
23 57 588
24 278 44
25 168 722
26 726 406
27 223 385
28 495 70
29 560 632
30 235 655
31 643 127
32 765 267
33 459 976
34 585 962
35 154 796
36 650 444
37 931 52
38 377 19
39 178 633
40 917 803
41 871 677
42 667 164
43 208 651
44 35 437
45 503 680
46 462 870
47 322 123
48 677 829
49 878 407
50 223 251
51 671 94
52 218 351
53 375 220
54 367 567
55 986 869
56 236 769
57 202 998
58 761 712
59 75 520
60 14 737
61 895 632
62 224 725
63 328 387
64 36 300
65 817 531
66 31 283
67 209 574
68 490 395
69 659 121
70 410 207
71 761 450
72 768 348
73 943 340
74 39 955
75 106 150
76 963 376
77 516 144
78 554 127
79 944 75
80 373 88
81 54 5
82 39 965
83 51 392
84 999 983
85 563 410
86 536 848
87 786 533
88 42 948
89 875 361
90 535 800
91 581 696
92 413 763
93 148 875
94 483 983
95 449 343
96 219 600
97 374 487
98 279 200
99 479 705
100 273 519
101 869 745
102 776 395
103 341 275
104 593 973
105 778 716
106 277 152
107 782 314
108 896 301
109 573 478
110 42 198
111 124 348
112 105 240
113 557 630
114 774 669
115 847 411
116 357 782
117 161 755
118 709 832
119 948 830
120 434 60
121 298 921
122 990 161
123 942 399
124 571 611
125 262 680
126 253 246
127 563 416
128 382 91
129 579 962
130 215 439
131 248 65
132 811 175
133 725 834
134 169 359
135 641 926
136 625 52
137 629 8
138 486 394
139 83 462
140 924 930
141 175 333
142 115 192
143 123 534
144 634 528
145 702 299
146 86 172
147 11 889
148 8 583
149 495 538
150 3 14
151 201 666
152 131 348
153 300 323
154 551 167
155 851 897
156 412 90
157 813 64
158 993 344
159 317 999
160 90 595
161 180 817
162 667 24
163 666 285
164 733 661
165 506 774
166 493 953
167 735 602
168 345 771
169 468 639
170 776 107
171 819 750
172 204 781
173 165 858
174 678 218
175 536 950
176 47 421
177 239 153
178 744 664
179 766 64
180 788 448
181 920 330
182 54 707
183 793 257
184 517 964
185 389 503
186 923 563
187 383 388
188 917 890
189 734 599
190 749 248
191 333 17
192 84 713
193 776 428
194 888 452
195 371 465
196 408 820
197 357 613
198 675 690
199 979 298
200 507 187
201 379 793
202 526 595
203 17 545
204 513 146
205 70 513
206 484 862
207 294 987
208 880 478
209 287 733
210 709 30
211 755 201
212 939 682
213 23 975
214 135 799
215 808 471
216 352 279
217 224 900
218 275 130
219 60 465
220 288 813
221 718 755
222 829 744
223 523 799
224 569 157
225 634 665
226 627 260
227 743 336
228 870 16
229 267 623
230 675 856
231 239 494
232 950 618
233 445 653
234 394 763
235 816 368
236 19 825
237 68 548
238 912 106
239 600 71
240 245 644
241 620 364
242 555 400
243 549 230
244 243 724
245 657 925
246 355 48
247 951 488
248 586 851
249 318 318
250 549 848
251 917 3
252 295 453
253 818 398
254 73 482
255 891 952
256 349 100
257 950 284
258 69 29
259 140 20
260 178 1
261 585 862
262 381 457
263 266 918
264 164 506
265 174 282
266 56 123
267 693 864
268 146 606
269 244 461
270 846 275
271 176 95
272 912 431
273 903 582
274 703 553
275 297 364
276 703 755
277 332 591
278 283 487
279 968 440
280 718 490
281 295 702
282 449 997
283 926 605
284 604 188
285 632 895
286 761 894
287 239 159
288 963 544
289 762 412
290 986 378
291 851 893
292 180 267
293 593 544
294 837 710
295 276 708
296 963 733
297 255 875
298 396 884
299 699 106
300 261 853
301 860 800
302 535 344
303 808 933
304 450 911
305 433 336
306 411 46
307 842 35
308 654 385
309 871 67
310 457 532
311 9 162
312 886 356
313 464 267
314 413 493
315 140 227
316 819 673
317 660 739
318 322 299
319 626 556
320 975 276
321 138 941
322 304 86
323 560 367
324 201 120
325 532 473
326 60 255
327 240 267
328 174 678
329 929 577
330 369 972
331 668 756
332 899 435
333 367 634
334 585 668
335 45 722
336 207 394
337 340 665
338 142 543
339 279 945
340 259 574
341 293 833
342 54 58
343 481 595
344 44 507
345 125 942
346 410 444
347 462 734
348 881 743
349 690 935
350 879 195
351 239 813
352 911 347
353 289 397
354 206 571
355 532 174
356 610 399
357 184 52
358 719 98
359 261 552
360 277 497
361 85 267
362 818 67
363 54 568
364 545 251
365 657 549
366 484 37
367 739 237
368 868 790
369 17 42
370 778 328
371 848 464
372 33 255
373 237 37
374 335 531
375 113 544
DEMAND_SECTION
2 83
3 65
4 92
5 73
6 94
7 100
8 99
9 83
10 84
11 81
12 65
13 69
14 84
15 67
16 53
17 70
18 93
19 69
20 78
21 75
22 56
23 99
24 88
25 61
26 65
27 90
28 74
29 85
30 59
31 76
32 79
33 99
34 98
35 80
36 71
37 71
38 93
39 69
40 88
41 71
42 52
43 75
44 83
45 67
46 88
47 64
48 89
49 86
50 84
51 89
52 97
53 85
54 78
55 83
56 90
57 93
58 61
59 84
60 98
61 97
62 78
63 60
64 58
65 63
66 99
67 50
68 93
69 53
70 52
71 70
72 97
73 63
74 72
75 77
76 88
77 66
COVERAGE_SECTION
2 10 349 245 135 104 34 285 129 286 267 303 
3 11 266 75 146 342 311 110 142 258 369 271 81 
4 11 68 138 242 85 127 325 323 302 95 109 346 
5 11 313 305 95 216 70 53 103 187 318 302 138 
6 11 343 310 54 169 233 197 19 333 22 149 7 
7 11 277 54 197 374 333 19 340 359 6 185 100 
8 11 170 157 179 362 358 307 309 132 299 210 228 
9 11 252 278 360 100 195 374 97 269 262 231 353 
10 11 186 273 329 288 208 247 11 283 194 371 65 
11 11 65 87 17 273 10 186 61 329 283 208 215 
12 11 350 270 183 108 132 16 257 32 211 181 107 
13 11 341 220 300 351 297 56 168 263 116 121 217 
14 11 200 355 204 77 154 224 78 243 364 284 313 
15 11 372 66 326 110 64 361 311 112 146 142 266 
16 11 211 367 190 183 132 32 174 12 170 270 107 
17 11 189 167 87 11 65 274 114 178 164 316 280 
18 11 59 205 254 344 237 139 375 143 219 363 338 
19 11 185 97 314 54 374 195 7 262 6 310 9 
20 11 327 126 50 98 153 318 292 249 265 103 52 
21 11 175 184 129 34 104 166 94 33 282 135 304 
22 10 233 333 169 337 197 6 99 347 45 343 
23 11 363 160 237 148 203 59 375 205 344 18 143 
24 11 131 373 322 191 246 218 47 256 357 38 80 
25 11 117 328 62 151 172 35 244 43 56 192 214 
26 11 289 102 193 71 72 227 180 308 280 36 253 
27 9 336 52 130 134 353 141 275 269 152 
28 11 366 120 77 204 78 156 306 239 14 355 154 
29 11 113 124 334 202 91 45 225 343 169 293 319 
30 11 240 43 151 125 229 96 39 328 295 244 62 
31 11 69 51 42 299 239 284 136 224 358 78 174 
32 11 190 183 367 107 16 370 211 145 227 72 270 
33 11 282 94 166 184 304 175 21 330 46 298 206 
34 11 129 104 21 175 135 184 245 285 166 261 94 
35 11 214 161 117 172 173 25 93 56 351 62 192 
36 11 308 356 280 109 26 241 144 127 85 242 365 
37 11 79 251 238 309 228 307 362 157 122 8 350 
38 11 246 306 191 80 120 128 156 256 322 24 366 
39 11 43 151 268 328 96 30 67 240 354 25 229 
40 11 119 368 301 348 101 296 188 55 222 171 291 
41 11 294 61 316 348 101 212 222 171 283 114 232 
42 11 31 69 174 299 284 51 358 211 224 367 226 
43 11 151 30 39 240 328 96 125 229 62 67 268 
44 11 176 219 83 139 254 344 205 18 59 203 237 
45 11 99 169 233 347 113 29 91 334 202 343 165 
46 11 206 304 298 196 86 166 250 223 90 33 165 
47 11 256 322 218 106 80 128 246 98 177 24 287 
48 11 230 118 267 133 331 276 285 221 317 248 245 
49 11 115 332 272 89 194 312 253 123 371 352 208 
50 11 327 126 20 292 265 98 315 287 141 177 52 
51 11 69 299 31 358 136 42 162 210 239 137 179 
52 11 27 336 141 134 275 265 353 152 153 327 130 
53 11 70 216 103 5 318 98 313 47 249 106 256 
54 11 7 277 19 197 374 6 333 185 97 314 310 
55 11 119 188 140 40 84 255 291 155 296 368 301 
56 11 172 351 62 244 209 220 295 161 117 13 25 
57 11 321 207 339 345 217 263 159 121 93 297 173 
58 11 105 114 178 164 221 171 316 276 222 294 198 
59 11 205 18 237 344 254 375 143 363 219 139 203 
60 11 335 182 192 236 214 117 35 147 148 23 25 
61 11 283 41 273 232 329 212 186 11 316 294 10 
62 11 244 56 295 25 125 172 151 209 328 117 30 
63 11 275 353 187 153 249 252 262 318 9 195 346 
64 11 66 372 326 361 15 112 83 111 110 152 176 
65 11 87 11 215 17 371 208 180 10 71 273 194 
66 11 64 372 326 15 361 110 112 83 111 152 311 
67 11 354 96 340 359 39 268 338 229 43 240 264 
68 11 138 4 242 95 302 85 323 127 305 325 346 
69 11 31 51 299 42 358 136 239 284 162 224 174 
70 11 53 313 5 216 103 200 14 156 128 204 47 
71 11 180 193 289 215 26 102 280 253 87 371 115 
72 11 370 227 107 102 235 289 253 26 193 32 145 
73 11 181 352 76 158 199 257 290 123 312 108 89 
74 11 88 82 213 147 345 321 236 93 173 57 214 
75 11 146 142 3 266 110 315 271 112 311 324 342 
76 11 290 123 73 158 352 181 279 272 199 312 332 
77 11 204 14 355 78 154 200 224 28 243 284 239 
78 11 224 154 77 204 355 14 239 200 284 28 31 
79 11 37 238 309 251 228 122 307 362 157 350 8 
80 11 128 256 156 246 306 47 120 38 322 191 24 
81 11 258 150 369 342 259 3 266 260 357 271 75 
82 11 74 88 213 147 345 321 93 236 173 57 214 
83 11 176 44 219 139 111 152 64 254 66 344 18 
84 10 140 255 55 188 119 155 291 303 40 301 
85 11 127 242 323 356 4 109 325 302 241 68 138 
86 11 250 90 248 223 261 206 46 165 175 285 304 
87 11 65 17 11 215 280 189 180 274 167 71 371 
88 11 74 82 213 147 345 321 236 93 173 57 214 
89 11 312 352 49 181 115 235 108 253 73 123 332 
90 11 223 165 86 250 248 206 261 347 46 99 91 
91 11 334 225 29 113 45 124 317 198 99 331 165 
92 10 234 201 196 347 116 168 99 165 22 233 
93 11 173 161 321 345 214 35 217 297 172 351 300 
94 11 33 166 282 184 175 21 304 129 34 104 46 
95 11 305 5 138 68 313 187 302 4 346 323 216 
96 11 67 354 340 240 43 39 229 30 359 151 268 
97 11 185 195 262 19 314 346 374 9 54 252 278 
98 11 106 126 287 177 218 20 50 327 47 103 53 
99 11 347 45 233 169 165 22 92 91 234 223 113 
100 9 360 278 359 231 340 9 374 269 252 
101 11 348 222 368 294 171 301 41 40 316 212 296 
102 11 289 193 253 72 235 26 180 71 370 227 115 
103 11 216 318 249 153 53 20 126 5 70 98 275 
104 11 34 129 21 175 135 184 245 285 2 166 349 
105 11 58 114 171 222 294 316 178 164 221 276 101 
106 11 218 177 287 98 47 322 324 256 131 126 24 
107 11 370 72 227 32 183 235 190 270 102 145 367 
108 11 181 352 270 312 257 73 89 12 199 320 76 
109 11 325 127 85 293 144 242 36 356 319 4 149 
110 11 311 146 15 372 326 142 112 266 75 361 3 
111 11 152 134 141 265 83 361 52 336 292 64 27 
112 11 361 315 326 142 146 372 110 292 265 66 75 
113 11 29 124 202 334 91 45 343 225 169 293 319 
114 11 178 164 58 316 105 294 167 189 17 171 222 
115 11 49 253 235 371 89 332 194 312 272 180 215 
116 10 168 201 234 92 196 220 341 209 13 281 
117 11 25 35 172 214 161 62 56 328 192 244 351 
118 10 133 48 267 230 276 221 286 331 285 317 
119 11 40 55 188 368 301 296 140 348 101 291 155 
120 11 306 156 366 128 28 80 38 246 256 191 77 
121 11 339 263 297 207 217 300 159 330 341 13 298 
122 11 238 79 320 350 37 257 199 12 309 108 251 
123 11 76 272 279 290 332 73 352 49 312 181 158 
124 11 29 113 202 334 293 319 225 91 343 45 144 
125 11 295 30 240 281 244 229 62 209 43 151 337 
126 11 20 327 50 98 292 265 318 287 153 103 177 
127 11 85 242 323 356 4 109 325 68 241 302 138 
128 11 80 156 256 246 306 120 47 38 322 191 24 
129 11 34 104 21 175 184 135 285 166 245 94 261 
130 8 269 336 27 231 252 278 264 353 
131 11 373 24 322 357 218 324 271 177 106 47 287 
132 11 16 211 350 170 12 183 8 367 190 32 270 
133 10 118 267 48 230 286 221 276 331 349 285 
134 10 141 152 111 52 336 27 265 130 292 327 
135 11 245 285 349 34 104 129 2 230 267 261 248 
136 11 239 137 162 51 31 69 210 299 78 358 224 
137 11 162 136 239 210 51 69 31 299 358 78 28 
138 11 68 4 95 242 302 85 305 323 127 325 346 
139 10 254 219 18 205 44 176 59 344 83 143 
140 10 255 188 155 291 55 84 119 303 40 301 
141 11 134 152 52 265 111 292 336 27 327 50 20 
142 11 146 75 315 112 110 361 326 3 266 292 372 
143 11 375 338 18 59 264 205 237 160 254 268 363 
144 11 319 365 293 274 109 36 280 124 325 189 167 
145 10 163 227 190 32 367 107 370 72 174 226 
146 11 75 142 110 3 266 112 315 311 326 361 372 
147 11 236 88 74 82 213 345 321 93 60 214 173 
148 11 203 363 23 237 160 344 59 205 18 375 254 
149 11 310 343 202 325 6 314 109 293 124 169 113 
150 11 369 81 342 258 266 3 259 311 75 260 146 
151 11 43 328 30 39 240 62 125 25 96 244 229 
152 11 111 134 141 265 52 336 83 361 292 27 64 
153 11 249 318 275 103 216 63 20 353 327 52 126 
154 11 355 224 14 78 77 204 200 284 243 364 31 
155 9 291 303 188 255 140 286 301 368 40 
156 11 128 120 80 306 256 246 38 28 366 47 191 
157 11 362 8 307 179 170 309 228 358 238 210 132 
158 11 290 76 199 73 320 181 257 123 352 279 108 
159 11 207 330 339 121 263 57 282 217 297 298 33 
160 11 23 363 237 375 268 143 338 59 148 205 18 
161 11 35 172 173 214 351 117 93 56 300 217 297 
162 11 137 210 136 51 239 299 358 69 31 179 170 
163 9 145 226 174 367 190 241 227 32 308 
164 11 178 114 58 167 189 198 105 316 17 221 225 
165 11 223 90 347 99 86 250 206 45 92 46 91 
166 11 184 94 33 175 21 304 282 129 46 206 34 
167 11 189 17 164 274 178 114 87 365 198 65 316 
168 10 116 201 234 92 209 220 196 341 281 13 
169 11 233 343 45 22 99 6 202 113 29 347 333 
170 11 8 179 157 358 362 132 299 211 307 16 210 
171 11 222 294 101 105 348 368 301 58 316 41 114 
172 11 56 161 351 117 35 62 25 244 214 173 220 
173 11 93 161 35 214 217 172 321 351 297 345 300 
174 11 42 367 226 163 190 211 284 145 16 31 69 
175 11 21 184 166 129 34 104 94 33 304 282 261 
176 11 44 83 219 139 254 344 18 205 59 111 152 
177 11 287 106 218 324 98 271 47 131 322 126 50 
178 11 164 114 58 105 167 189 198 316 17 221 276 
179 11 8 170 157 362 358 210 299 307 51 309 162 
180 11 193 71 215 289 102 253 371 115 26 280 87 
181 11 352 73 108 312 89 257 76 199 123 158 320 
182 11 335 192 60 25 117 160 23 214 236 328 148 
183 11 32 190 16 270 107 367 211 370 12 132 227 
184 11 175 166 21 94 33 129 34 282 104 304 206 
185 11 19 97 314 195 262 374 346 54 310 9 7 
186 11 329 273 10 283 288 232 61 247 11 208 65 
187 11 63 346 262 305 195 95 275 353 249 97 138 
188 10 140 155 291 255 119 55 40 301 368 303 
189 11 167 17 274 164 178 114 87 365 65 198 280 
190 11 367 32 16 183 211 145 107 174 370 227 163 
191 11 246 38 24 322 80 306 256 128 131 373 47 
192 11 182 335 60 25 117 328 214 35 160 39 268 
193 11 289 180 71 102 253 215 26 235 115 72 371 
194 11 332 208 272 371 49 115 247 123 10 279 215 
195 11 262 97 185 346 314 19 9 374 252 187 63 
196 10 201 92 234 116 298 46 168 206 304 347 
197 11 333 277 7 54 337 22 6 374 229 19 233 
198 11 225 317 164 331 276 178 221 58 334 91 114 
199 11 320 257 158 73 181 76 290 108 352 123 312 
200 11 14 355 204 77 154 243 224 364 78 313 284 
201 10 116 234 168 196 92 220 298 341 347 13 
202 11 343 113 124 29 149 169 293 45 310 334 6 
203 11 148 363 344 237 23 205 59 18 254 160 219 
204 11 77 14 355 200 154 78 224 28 243 284 364 
205 11 59 18 344 254 237 219 139 375 143 363 203 
206 11 46 86 304 250 223 90 196 165 166 298 261 
207 11 159 339 121 263 330 57 217 297 300 298 13 
208 11 194 371 332 272 10 49 215 247 115 65 186 
209 10 295 281 244 125 56 62 168 220 116 337 
210 11 162 179 358 51 299 137 136 8 170 69 157 
211 11 16 367 190 132 32 183 174 42 170 358 299 
212 11 296 232 61 41 283 348 101 329 273 294 186 
213 11 82 74 88 147 345 321 236 93 57 173 214 
214 11 35 161 117 173 172 93 25 192 56 351 62 
215 11 180 371 71 193 65 87 115 208 253 289 102 
216 11 103 318 249 53 153 5 70 20 305 275 126 
217 11 297 263 300 339 173 121 93 351 13 161 321 
218 11 106 177 287 47 322 98 131 324 256 24 373 
219 11 254 139 44 344 176 18 205 59 83 237 203 
220 11 13 341 300 351 56 297 168 116 209 172 201 
221 11 276 331 317 58 105 118 198 133 48 164 178 
222 11 171 294 101 348 105 368 301 316 58 41 114 
223 11 90 165 86 250 206 248 261 347 46 99 92 
224 11 154 78 355 284 77 14 204 200 243 31 239 
225 11 198 334 91 317 29 124 113 331 164 319 178 
226 8 163 174 284 364 243 145 42 241 
227 11 72 370 107 145 102 26 32 289 235 190 163 
228 11 307 251 309 37 362 157 79 238 8 179 170 
229 11 240 30 340 96 125 43 359 277 67 151 354 
230 11 267 48 118 133 285 245 135 349 248 261 286 
231 9 269 360 100 278 130 359 252 9 264 
232 11 283 329 61 273 186 212 288 10 41 296 11 
233 11 169 22 99 45 343 6 333 347 197 202 337 
234 10 92 201 116 168 196 347 22 99 209 337 
235 11 253 102 72 115 370 89 107 289 312 193 49 
236 11 147 60 335 214 182 88 192 74 35 93 82 
237 11 363 59 205 23 18 375 344 203 160 143 254 
238 11 79 37 309 122 350 228 307 362 251 157 132 
239 11 136 137 31 78 51 69 162 224 28 299 154 
240 11 30 229 43 125 151 96 39 295 340 281 67 
241 8 356 308 323 85 242 127 36 302 
242 11 85 127 323 4 356 302 68 138 241 325 109 
243 10 364 355 200 154 14 284 224 226 204 77 
244 11 62 295 209 56 125 281 30 172 151 25 240 
245 11 135 349 285 2 230 267 104 34 129 261 48 
246 11 38 191 80 128 256 306 322 156 24 120 47 
247 11 279 288 10 272 208 194 332 186 123 329 273 
248 11 261 250 86 285 90 223 230 135 48 206 245 
249 11 153 318 103 275 216 63 20 353 327 187 126 
250 11 86 248 261 90 223 206 165 46 285 175 21 
251 11 228 37 79 309 307 238 362 157 8 179 122 
252 10 9 278 360 269 353 231 100 63 195 130 
253 11 235 115 102 193 180 289 49 89 72 371 215 
254 11 219 139 18 205 59 344 44 176 237 143 375 
255 9 140 188 155 291 303 84 55 119 286 
256 11 80 128 47 322 246 156 218 306 191 38 106 
257 11 320 199 181 73 108 158 352 76 312 12 290 
258 11 81 342 369 150 259 3 266 260 357 271 75 
259 11 260 357 258 271 81 342 373 131 324 3 369 
260 11 259 357 373 271 131 24 258 324 81 342 322 
261 11 248 250 86 285 90 135 223 230 245 48 34 
262 11 195 97 346 185 314 19 187 9 252 374 63 
263 11 339 121 297 217 300 207 13 341 159 57 220 
264 8 338 143 375 231 354 18 67 130 
265 11 292 141 50 315 327 134 152 112 20 52 111 
266 11 3 75 146 311 342 110 369 142 258 81 150 
267 10 230 118 48 133 285 245 349 286 135 248 
268 11 39 160 338 354 375 67 96 143 43 328 151 
269 9 231 130 278 360 252 100 9 336 353 
270 11 12 108 183 107 32 370 350 312 89 181 352 
271 11 324 357 131 259 373 177 75 287 260 218 3 
272 11 332 194 49 123 208 279 115 247 371 76 89 
273 11 329 186 283 10 61 232 11 288 41 65 212 
274 11 365 189 167 280 144 319 17 87 293 164 65 
275 11 353 63 153 249 318 27 52 187 252 336 103 
276 11 221 331 317 198 58 118 48 133 105 164 178 
277 11 7 197 54 333 374 229 337 340 359 19 100 
278 9 360 9 100 252 231 269 374 359 130 
279 11 123 247 272 76 290 332 194 49 208 158 73 
280 11 71 274 87 36 180 26 193 365 289 144 215 
281 10 295 209 125 244 337 62 30 240 229 168 
282 11 33 94 166 184 330 304 175 21 298 46 159 
283 11 232 329 273 61 186 288 10 212 41 11 247 
284 11 224 154 42 243 31 355 226 78 174 364 69 
285 11 135 245 261 230 248 267 349 48 34 129 104 
286 9 303 133 267 118 349 155 291 230 48 
287 11 177 106 218 324 98 126 47 271 50 131 322 
288 11 186 329 10 247 273 283 232 279 208 61 194 
289 11 193 102 26 71 180 253 72 235 215 227 115 
290 11 76 158 123 73 279 199 352 181 272 257 312 
291 9 155 303 188 255 140 286 301 368 40 
292 11 265 50 315 327 141 20 126 112 52 134 152 
293 11 319 144 365 109 124 202 113 29 325 149 274 
294 11 222 316 171 41 101 348 105 114 58 368 301 
295 10 281 209 125 244 62 30 240 56 337 229 
296 11 212 348 40 101 119 41 368 232 61 301 294 
297 11 300 217 263 13 341 121 351 220 339 173 161 
298 11 304 196 46 206 330 201 121 116 33 341 166 
299 11 358 51 69 31 42 170 210 179 162 136 8 
300 11 297 13 341 351 220 217 263 121 56 161 172 
301 11 368 101 40 348 222 171 119 291 294 155 188 
302 9 323 242 68 138 85 127 4 95 241 
303 9 155 291 286 255 140 188 349 2 133 
304 11 46 166 206 298 33 94 184 282 175 196 330 
305 11 95 5 187 313 138 68 216 302 4 103 346 
306 11 120 38 156 128 246 80 366 256 191 28 322 
307 11 228 362 157 309 8 179 251 37 170 238 79 
308 9 241 356 36 26 85 127 323 145 242 
309 11 307 228 362 238 157 37 79 251 8 170 179 
310 11 149 314 6 343 185 19 202 97 325 54 346 
311 11 110 266 3 146 15 372 75 326 142 342 369 
312 11 89 352 181 49 108 73 115 123 235 272 76 
313 10 5 305 95 70 364 200 243 53 14 302 
314 11 185 97 19 262 346 195 310 54 374 6 149 
315 11 112 142 292 265 361 146 75 326 50 110 327 
316 11 294 114 41 105 58 222 178 171 61 164 101 
317 11 331 276 198 221 225 91 48 334 58 118 164 
318 11 249 103 153 216 275 20 126 63 327 53 353 
319 11 144 365 293 274 124 109 29 113 202 225 280 
320 11 199 257 158 73 181 108 352 76 290 122 12 
321 11 345 93 57 173 217 88 74 82 213 263 161 
322 11 47 256 24 218 131 246 80 106 191 128 373 
323 9 242 302 85 127 356 241 4 68 138 
324 11 271 177 287 357 131 218 106 373 75 24 322 
325 11 109 4 127 85 149 242 68 138 293 310 356 
326 11 372 361 66 112 64 15 110 142 315 146 311 
327 11 20 50 126 292 265 98 153 52 318 141 249 
328 11 151 43 25 39 30 62 268 117 240 244 125 
329 11 186 273 283 232 288 10 61 11 247 212 208 
330 11 159 207 282 121 33 298 339 304 94 263 166 
331 11 317 276 221 198 48 118 133 225 230 58 91 
332 11 272 194 49 208 123 115 371 279 247 89 312 
333 11 197 337 22 277 7 54 6 233 281 169 229 
334 11 91 29 113 225 124 45 198 202 317 99 319 
335 11 182 60 192 236 214 117 25 35 23 160 328 
336 9 27 52 130 134 141 269 353 152 111 
337 10 333 197 281 22 277 295 125 229 209 7 
338 11 143 375 264 268 18 354 59 67 160 237 205 
339 11 263 121 207 159 217 297 57 300 330 13 341 
340 11 359 96 67 229 354 100 240 277 360 231 7 
341 11 13 220 300 297 351 168 116 56 121 263 201 
342 11 258 369 81 3 266 150 259 75 311 146 271 
343 11 202 169 6 149 310 233 113 29 45 124 22 
344 11 205 59 254 18 219 203 237 139 363 44 375 
345 11 321 93 88 74 82 173 57 213 217 147 161 
346 11 262 195 314 97 187 185 19 138 68 4 63 
347 11 99 92 165 45 234 233 223 22 169 90 196 
348 11 101 368 222 294 301 171 41 40 296 212 316 
349 10 245 2 135 285 267 230 286 104 118 48 
350 11 12 132 270 238 183 108 16 257 122 211 320 
351 11 56 300 172 13 220 341 161 297 35 173 217 
352 11 181 312 73 89 108 76 123 49 257 290 158 
353 11 275 63 252 27 153 269 9 336 249 52 130 
354 11 67 96 340 359 39 268 338 264 43 229 240 
355 11 14 154 200 77 204 224 78 243 284 364 28 
356 9 241 308 85 127 242 323 36 109 302 
357 11 271 260 259 373 131 324 24 177 258 218 287 
358 11 299 51 170 179 69 210 8 31 42 162 157 
359 10 340 100 67 360 354 231 96 278 229 374 
360 9 278 100 231 9 252 269 359 374 340 
361 11 326 112 372 66 64 315 15 110 142 111 265 
362 11 157 8 307 179 309 170 228 238 358 132 37 
363 11 23 237 203 160 148 59 205 344 375 18 143 
364 9 243 200 355 14 226 313 154 284 302 
365 11 144 319 274 293 280 189 167 36 124 109 225 
366 11 28 120 306 156 38 77 204 78 128 239 80 
367 11 190 211 16 32 183 174 145 163 107 132 227 
368 11 301 101 348 40 222 171 294 119 291 155 188 
369 11 150 342 81 258 266 3 311 259 75 146 110 
370 11 107 72 227 235 32 102 183 145 253 190 270 
371 11 208 215 194 115 332 180 49 253 272 65 193 
372 11 15 326 66 64 361 110 112 311 146 142 315 
373 11 131 24 357 260 322 271 324 191 259 218 177 
374 11 7 19 54 97 277 9 185 100 360 278 195 
375 11 143 338 59 237 18 205 160 264 363 268 23 
DEPOT_SECTION
   1
   -1
EOF
