NAME :  X-n359-kX-w143-c9.cctp
COMMENT : 	Adapted by Maziero, Usberti and Cavellucci from the Uchoa, Pecin, Pessoa, Poggi, Subramanian, and Vidal (2013)
TYPE :  CCTP
DIMENSION :    340
EDGE_WEIGHT_TYPE : 	EUC_2D	
CAPACITY : 	68
VERTICES_WITHIN_COVERAGE :  9
VERTICES_WITH_DEMAND : 	143
NODE_COORD_SECTION
1 0 0
2 865 693
3 633 220
4 173 361
5 89 714
6 350 102
7 301 24
8 834 663
9 841 997
10 394 790
11 276 488
12 779 312
13 939 66
14 595 462
15 940 964
16 459 459
17 432 280
18 379 338
19 128 439
20 401 22
21 69 887
22 499 657
23 633 46
24 713 182
25 806 525
26 540 169
27 696 559
28 577 888
29 298 725
30 410 644
31 512 889
32 756 352
33 405 407
34 850 365
35 731 588
36 90 553
37 691 383
38 926 631
39 955 351
40 998 736
41 921 854
42 532 257
43 238 513
44 976 912
45 565 912
46 893 74
47 590 548
48 99 355
49 294 39
50 58 429
51 471 573
52 520 109
53 486 611
54 409 682
55 296 843
56 970 479
57 717 390
58 152 711
59 934 255
60 257 539
61 270 31
62 823 409
63 203 849
64 770 627
65 630 581
66 786 186
67 380 300
68 973 847
69 985 975
70 732 465
71 690 428
72 910 568
73 725 539
74 181 186
75 814 694
76 702 927
77 946 492
78 984 305
79 385 696
80 48 323
81 944 440
82 813 293
83 490 676
84 729 923
85 719 883
86 675 637
87 167 14
88 98 159
89 476 709
90 402 339
91 911 734
92 590 230
93 122 698
94 154 418
95 165 998
96 217 599
97 766 21
98 922 407
99 831 607
100 70 494
101 220 740
102 19 855
103 759 507
104 818 409
105 503 304
106 595 827
107 254 282
108 205 607
109 331 57
110 118 404
111 576 658
112 558 611
113 629 732
114 893 182
115 435 1000
116 279 715
117 20 953
118 548 774
119 496 813
120 349 474
121 335 732
122 540 305
123 878 245
124 827 211
125 104 976
126 656 920
127 648 585
128 350 517
129 62 979
130 508 277
131 334 759
132 635 743
133 649 927
134 39 50
135 411 837
136 974 509
137 504 398
138 19 430
139 810 528
140 737 202
141 972 859
142 547 622
143 413 683
144 877 471
145 600 166
146 548 346
147 558 792
148 419 734
149 639 70
150 276 341
151 534 486
152 972 672
153 542 709
154 816 858
155 82 38
156 217 733
157 466 112
158 575 165
159 902 861
160 418 631
161 771 702
162 795 46
163 138 5
164 915 845
165 520 788
166 40 301
167 896 668
168 626 118
169 979 70
170 708 244
171 729 682
172 548 962
173 117 144
174 520 207
175 145 21
176 255 152
177 107 992
178 28 34
179 107 305
180 401 230
181 824 486
182 112 589
183 529 286
184 216 3
185 478 247
186 778 364
187 28 601
188 82 639
189 391 879
190 202 620
191 426 897
192 214 579
193 113 474
194 627 244
195 231 754
196 177 670
197 65 564
198 901 548
199 487 364
200 551 304
201 199 82
202 87 556
203 121 56
204 533 339
205 808 521
206 469 118
207 295 874
208 56 693
209 216 871
210 535 245
211 842 471
212 503 305
213 308 837
214 961 296
215 826 569
216 174 696
217 43 500
218 205 604
219 331 845
220 432 273
221 855 178
222 873 388
223 839 496
224 424 751
225 542 285
226 488 909
227 762 518
228 463 263
229 789 357
230 459 327
231 345 822
232 747 371
233 713 446
234 369 251
235 698 450
236 3 588
237 506 201
238 757 309
239 704 231
240 254 123
241 473 390
242 464 803
243 421 108
244 365 678
245 906 598
246 629 171
247 825 513
248 698 501
249 388 234
250 439 423
251 459 289
252 471 327
253 604 395
254 759 412
255 572 247
256 558 240
257 545 331
258 506 369
259 944 585
260 910 401
261 394 969
262 792 316
263 810 560
264 382 413
265 192 713
266 496 377
267 613 136
268 685 290
269 10 689
270 922 524
271 853 524
272 213 1
273 134 686
274 480 240
275 339 114
276 589 389
277 230 921
278 925 326
279 711 580
280 783 347
281 469 295
282 937 179
283 482 249
284 484 277
285 827 338
286 609 272
287 252 100
288 139 153
289 163 74
290 418 326
291 310 884
292 534 795
293 107 632
294 736 184
295 813 324
296 905 465
297 512 606
298 585 237
299 563 124
300 776 365
301 74 70
302 366 809
303 227 41
304 809 407
305 760 417
306 708 477
307 603 175
308 810 671
309 912 508
310 386 964
311 298 510
312 811 456
313 780 382
314 520 274
315 745 382
316 330 998
317 840 409
318 447 976
319 828 472
320 802 428
321 620 904
322 105 482
323 488 418
324 727 551
325 103 669
326 802 408
327 467 119
328 210 439
329 121 700
330 187 40
331 714 401
332 120 657
333 436 316
334 243 453
335 630 277
336 257 149
337 438 350
338 294 195
339 573 339
340 379 644
DEMAND_SECTION
2 10
3 8
4 9
5 7
6 9
7 1
8 3
9 1
10 8
11 10
12 8
13 10
14 2
15 4
16 9
17 2
18 3
19 10
20 3
21 1
22 4
23 3
24 8
25 3
26 5
27 6
28 7
29 9
30 1
31 1
32 8
33 3
34 10
35 2
36 4
37 10
38 2
39 8
40 5
41 10
42 9
43 9
44 2
45 10
46 3
47 7
48 7
49 6
50 1
51 7
52 1
53 4
54 6
55 7
56 8
57 2
58 9
59 3
60 1
61 6
62 4
63 1
64 5
65 3
66 3
67 1
68 6
69 6
70 8
71 10
72 3
73 2
74 6
75 4
76 1
77 8
78 5
79 7
80 6
81 7
82 1
83 2
84 5
85 10
86 3
87 2
88 8
89 5
90 3
91 3
92 5
93 4
94 6
95 9
96 3
97 6
98 5
99 2
100 5
101 5
102 9
103 9
104 3
105 10
106 6
107 2
108 6
109 1
110 1
111 6
112 3
113 9
114 9
115 3
116 6
117 9
118 6
119 10
120 2
121 7
122 3
123 5
124 10
125 2
126 8
127 7
128 5
129 8
130 6
131 1
132 1
133 5
134 7
135 7
136 1
137 8
138 7
139 8
140 7
141 10
142 6
143 5
144 2
COVERAGE_SECTION
2 9 167 8 75 308 91 38 99 161 245 
3 9 194 92 246 298 307 286 335 145 255 
4 9 94 110 48 328 179 19 150 107 334 
5 9 329 93 208 325 273 58 332 188 269 
6 8 275 109 243 49 7 20 240 287 
7 9 49 61 109 303 184 287 272 6 275 
8 9 308 75 2 99 167 64 161 215 38 
9 9 15 84 154 69 159 76 44 41 85 
10 9 302 224 135 231 148 131 242 121 219 
11 9 311 43 334 60 120 128 328 192 96 
12 9 262 238 280 295 82 32 229 186 300 
13 9 169 46 282 114 221 162 97 124 59 
14 9 151 253 276 47 71 235 248 137 306 
15 9 69 44 9 141 159 41 68 164 154 
16 9 250 323 241 33 137 151 264 266 199 
17 9 220 251 228 333 281 290 284 230 67 
18 9 90 67 290 337 333 33 264 17 230 
19 9 94 110 193 322 50 100 328 48 4 
20 9 109 243 6 7 49 157 275 327 206 
21 9 102 117 129 125 177 63 95 209 277 
22 9 83 53 297 89 142 153 112 111 160 
23 9 149 168 267 299 145 246 52 158 307 
24 9 294 140 239 170 66 246 3 194 168 
25 9 205 139 247 263 181 223 227 271 215 
26 8 158 174 237 299 145 52 307 256 
27 9 279 324 73 35 127 248 65 227 86 
28 9 45 321 106 31 172 133 126 226 147 
29 9 116 121 131 195 101 156 244 79 265 
30 9 160 340 54 143 244 79 53 83 22 
31 9 226 45 28 119 172 191 292 242 165 
32 9 232 300 186 280 315 229 313 238 12 
33 9 264 250 337 90 241 18 16 290 323 
34 9 222 285 317 62 104 295 304 229 326 
35 9 279 324 27 73 64 86 227 127 263 
36 9 202 197 182 100 217 322 187 293 193 
37 9 57 331 71 315 232 233 235 32 254 
38 9 245 167 259 152 72 2 198 8 99 
39 9 278 78 214 98 260 81 222 59 34 
40 9 152 91 68 167 141 38 164 2 41 
41 9 164 159 141 68 44 154 15 91 69 
42 9 210 314 183 225 130 256 255 122 174 
43 9 60 11 311 334 192 328 96 218 108 
44 9 141 15 69 68 41 159 164 9 154 
45 9 28 172 321 31 226 133 106 126 147 
46 9 13 169 162 114 221 282 97 124 66 
47 9 65 127 112 151 14 142 297 27 111 
48 9 179 110 80 4 166 94 50 19 138 
49 9 7 61 109 303 287 6 184 275 272 
50 9 138 110 100 19 193 322 217 48 94 
51 9 53 297 160 22 142 30 112 83 151 
52 6 299 206 157 327 26 158 
53 9 297 51 22 142 83 160 112 30 89 
54 9 143 79 30 244 340 160 148 224 89 
55 7 213 207 219 291 231 302 209 
56 9 77 136 81 309 270 296 98 144 198 
57 9 331 37 315 232 71 254 305 32 233 
58 9 216 273 93 329 265 196 5 332 325 
59 9 214 123 78 278 282 114 39 221 124 
60 9 43 311 11 192 96 218 108 334 128 
61 9 49 7 303 184 272 109 287 330 201 
62 9 104 304 317 326 320 312 313 34 222 
63 9 209 277 55 207 195 213 101 291 156 
64 9 35 308 99 171 8 161 279 263 75 
65 9 127 47 27 86 112 279 142 111 35 
66 9 124 294 140 221 24 239 170 114 123 
67 9 18 90 290 234 17 333 220 249 180 
68 9 141 41 164 44 159 40 15 69 91 
69 9 15 44 141 68 41 159 9 164 154 
70 9 233 306 235 103 248 71 305 254 227 
71 9 235 233 331 37 57 306 70 254 305 
72 9 198 245 259 270 309 38 271 77 215 
73 9 324 27 227 279 103 248 35 306 70 
74 9 288 173 176 336 88 240 201 287 289 
75 9 308 8 161 2 64 167 171 99 91 
76 9 84 85 126 133 321 28 154 45 106 
77 9 56 136 309 270 296 81 144 198 72 
78 9 214 39 278 59 98 260 123 282 222 
79 9 244 54 143 148 340 30 121 224 160 
80 9 166 48 179 50 110 138 4 19 94 
81 9 98 296 56 77 260 144 136 309 270 
82 9 262 295 12 285 238 280 229 186 34 
83 9 22 89 153 53 297 143 142 54 160 
84 9 76 85 126 133 154 321 9 28 45 
85 9 84 76 126 133 154 321 106 28 45 
86 9 127 279 171 65 35 27 64 324 111 
87 9 175 163 330 272 184 289 203 303 201 
88 9 173 288 74 301 203 289 155 134 201 
89 9 83 22 148 153 224 143 54 165 79 
90 9 290 18 337 333 67 230 17 33 252 
91 9 2 167 40 152 38 8 75 164 308 
92 9 298 255 256 194 3 286 210 307 335 
93 9 329 273 58 325 5 332 216 196 208 
94 9 19 110 4 328 193 322 48 334 50 
95 8 177 125 277 129 209 21 117 63 
96 9 218 108 192 190 60 196 43 182 216 
97 9 162 23 149 46 66 294 24 168 13 
98 9 260 81 222 296 39 144 278 317 34 
99 9 215 263 8 64 308 245 139 25 271 
100 9 217 322 193 36 202 50 197 19 138 
101 9 156 195 265 116 216 58 29 196 273 
102 9 21 117 129 125 5 177 208 269 63 
103 9 227 73 25 70 205 324 139 306 248 
104 8 62 304 326 317 320 313 312 34 
105 9 212 130 183 284 314 281 122 252 225 
106 9 147 28 292 118 321 165 45 132 119 
107 9 150 338 4 234 74 67 176 336 18 
108 9 218 190 96 192 196 60 216 182 332 
109 9 49 7 6 275 61 20 287 240 243 
110 9 19 94 48 50 4 193 322 328 179 
111 9 142 112 153 22 297 83 113 65 86 
112 9 142 297 111 47 53 22 65 83 127 
113 9 132 153 111 118 147 106 86 171 292 
114 9 221 282 123 124 59 66 46 13 214 
115 6 318 261 310 191 226 316 
116 9 29 121 195 101 156 131 265 244 216 
117 9 129 21 125 177 102 95 63 209 277 
118 9 147 292 165 119 153 106 242 113 132 
119 9 242 165 292 118 147 31 135 224 226 
120 9 128 311 264 11 33 250 334 16 60 
121 9 131 29 116 79 244 10 302 148 54 
122 9 200 225 183 257 204 105 212 314 146 
123 9 59 124 114 221 82 282 278 214 295 
124 9 221 66 123 114 82 140 294 262 12 
125 9 177 129 95 117 21 277 102 209 63 
126 9 133 321 76 84 85 28 45 106 172 
127 9 65 27 86 279 47 35 324 73 112 
128 9 120 311 11 60 264 43 16 33 334 
129 9 125 177 117 21 95 102 277 209 63 
130 9 314 183 284 105 212 42 225 283 185 
131 9 121 29 302 231 10 116 79 213 219 
132 9 113 147 118 106 153 111 171 86 292 
133 9 126 321 76 84 28 85 45 172 106 
134 9 178 301 155 203 163 175 173 88 289 
135 7 189 10 302 191 242 231 219 
136 9 56 77 270 309 81 259 296 198 72 
137 9 266 323 258 241 199 204 146 250 16 
138 9 50 217 100 322 110 193 19 48 80 
139 9 25 205 247 263 223 271 181 215 227 
140 9 294 24 239 170 66 124 268 3 238 
141 9 68 41 44 164 159 15 69 40 91 
142 9 112 297 111 22 53 83 47 153 51 
143 9 54 79 30 244 148 160 340 89 224 
144 7 296 211 223 319 309 181 271 
145 9 307 158 246 267 168 299 26 3 92 
146 9 257 204 339 122 200 258 276 212 225 
147 9 118 292 165 106 119 153 132 113 242 
148 9 224 79 143 54 10 89 244 242 121 
149 9 23 168 267 299 246 145 307 158 52 
150 9 107 18 4 67 334 328 90 264 234 
151 9 14 16 323 47 137 51 276 241 250 
152 9 38 40 167 91 259 245 2 72 8 
153 9 111 83 118 89 22 165 147 292 142 
154 9 159 85 164 41 84 76 9 91 141 
155 9 301 203 134 178 163 175 87 289 330 
156 9 101 195 265 216 116 58 196 29 273 
157 4 206 327 243 52 
158 9 145 307 26 299 267 246 92 168 174 
159 9 41 164 141 68 154 44 15 91 69 
160 9 30 340 54 143 53 244 79 51 22 
161 9 75 171 308 8 64 2 99 86 35 
162 9 97 46 66 13 221 294 149 24 23 
163 9 175 87 203 330 155 289 272 184 301 
164 9 41 159 68 141 44 154 91 15 40 
165 9 292 118 119 147 242 153 106 89 31 
166 9 80 179 48 50 110 138 4 88 94 
167 9 2 38 8 91 245 152 75 308 99 
168 9 267 149 246 145 307 299 158 23 26 
169 9 13 46 282 114 221 162 59 123 124 
170 9 239 140 268 24 294 3 194 238 335 
171 9 161 64 86 308 75 35 279 8 113 
172 9 45 28 226 31 321 318 133 126 115 
173 9 88 288 74 289 301 203 201 155 134 
174 5 237 210 26 256 42 
175 9 163 87 203 330 289 155 272 184 201 
176 9 336 240 287 338 74 201 275 6 303 
177 9 125 129 95 117 21 277 102 209 63 
178 9 134 155 301 203 163 175 87 173 289 
179 9 48 80 166 4 110 94 50 19 74 
180 6 249 234 220 17 228 67 
181 7 319 223 211 247 312 205 25 
182 8 202 36 293 197 188 332 325 187 
183 9 225 314 122 130 200 42 105 212 210 
184 9 272 303 330 87 61 175 163 201 49 
185 5 283 274 228 284 130 
186 9 300 229 280 313 32 232 315 262 326 
187 8 236 197 188 202 36 182 293 269 
188 8 293 325 332 182 208 187 273 93 
189 4 191 135 219 231 
190 9 108 218 96 192 196 216 332 265 182 
191 4 189 135 226 310 
192 9 96 218 108 190 60 43 196 182 311 
193 9 322 19 100 94 110 50 217 36 202 
194 9 3 286 335 92 298 255 256 246 307 
195 9 101 156 265 116 29 216 58 63 196 
196 9 216 265 273 58 190 332 93 329 108 
197 8 202 36 187 182 236 217 100 188 
198 9 72 270 309 245 271 259 77 215 144 
199 9 266 258 241 137 252 230 337 204 323 
200 9 122 225 183 257 204 339 146 314 105 
201 9 289 330 303 287 240 87 175 184 203 
202 9 36 197 182 100 217 187 322 293 188 
203 9 175 155 289 301 163 87 330 134 201 
204 9 257 146 122 200 258 339 212 105 199 
205 8 25 139 247 181 263 223 271 227 
206 4 327 157 243 52 
207 6 291 55 213 219 231 209 
208 8 5 269 325 188 329 93 332 273 
209 9 63 277 207 55 291 213 195 219 101 
210 9 42 256 314 255 174 183 225 130 298 
211 7 319 181 223 312 144 247 271 
212 9 105 130 183 284 281 314 122 252 225 
213 7 55 219 207 231 291 302 131 
214 9 78 278 59 39 123 260 98 282 222 
215 9 263 99 139 25 205 271 247 223 198 
216 9 265 196 58 273 93 329 156 101 332 
217 9 100 322 197 36 202 50 138 193 236 
218 9 108 96 190 192 196 60 182 43 216 
219 6 213 231 55 291 207 302 
220 8 17 251 228 281 333 284 180 185 
221 9 114 124 66 123 282 59 46 294 140 
222 9 34 260 317 98 62 104 304 285 326 
223 7 181 247 211 319 271 205 139 
224 9 148 10 242 79 89 143 54 302 135 
225 9 183 122 200 314 42 130 210 105 212 
226 9 31 191 45 318 172 28 119 189 115 
227 9 103 73 25 205 324 139 70 247 263 
228 8 185 283 284 251 274 220 281 17 
229 9 280 186 300 313 32 262 295 285 232 
230 9 252 333 337 281 251 290 199 212 105 
231 8 302 219 213 55 10 131 135 291 
232 9 315 32 300 186 313 57 254 280 229 
233 9 235 70 71 306 331 305 57 248 254 
234 8 249 180 67 220 17 18 290 333 
235 9 233 71 306 70 248 331 57 37 305 
236 8 187 197 202 36 188 217 269 182 
237 4 174 26 274 210 
238 9 12 262 32 280 82 229 295 186 300 
239 9 170 140 24 294 268 3 194 335 66 
240 9 287 336 176 201 338 275 303 49 61 
241 9 266 199 137 323 258 250 337 252 230 
242 9 119 165 135 224 292 10 148 118 89 
243 5 157 327 206 6 275 
244 9 79 340 54 143 30 121 160 148 29 
245 9 72 38 259 198 167 99 270 215 309 
246 9 307 145 267 3 168 158 92 194 298 
247 8 205 139 25 223 181 271 319 211 
248 9 306 73 70 235 233 27 324 103 227 
249 6 180 234 220 17 67 228 
250 9 33 16 241 323 264 137 266 337 199 
251 9 281 228 17 284 220 333 230 252 105 
252 9 230 281 333 105 212 199 251 337 284 
253 9 276 339 14 146 257 37 204 71 137 
254 9 305 315 313 232 326 320 331 57 300 
255 9 256 298 92 210 42 286 225 194 183 
256 9 255 210 298 42 92 225 174 314 183 
257 9 204 146 122 200 339 225 183 212 105 
258 9 266 199 137 241 204 146 323 257 252 
259 9 72 245 38 198 270 136 309 152 77 
260 9 98 222 81 296 39 34 317 278 144 
261 4 310 115 318 316 
262 9 12 295 82 280 238 229 285 186 32 
263 9 215 139 25 205 247 99 271 227 223 
264 9 33 250 120 18 90 337 16 241 290 
265 9 216 156 101 58 196 195 273 93 329 
266 9 258 199 137 241 323 204 252 146 230 
267 9 168 145 246 307 158 299 149 26 3 
268 9 170 335 239 194 238 286 3 37 32 
269 8 208 5 188 187 325 236 93 329 
270 9 309 198 77 72 136 296 259 56 271 
271 8 247 223 139 205 25 181 215 198 
272 9 184 303 330 87 61 175 163 201 289 
273 9 93 329 58 332 325 216 196 5 293 
274 5 185 283 228 284 130 
275 9 6 109 243 240 49 287 336 176 338 
276 9 253 339 146 14 257 204 137 258 200 
277 7 209 63 207 291 95 55 213 
278 9 39 214 78 59 260 98 222 34 123 
279 9 35 27 324 73 127 86 64 227 248 
280 9 229 186 300 32 262 12 313 295 232 
281 9 251 284 252 228 230 105 212 333 17 
282 9 114 59 221 123 13 46 124 169 214 
283 5 185 274 228 284 130 
284 9 281 130 228 251 283 185 105 212 314 
285 9 295 34 262 229 280 82 12 186 300 
286 9 335 194 298 255 92 3 256 200 225 
287 9 240 336 176 201 303 61 49 275 330 
288 9 173 88 74 289 201 203 301 176 336 
289 9 201 330 203 175 87 303 163 288 173 
290 9 90 333 337 18 230 67 17 252 220 
291 4 207 55 219 213 
292 9 165 147 118 119 106 242 153 31 28 
293 8 188 332 325 182 273 93 329 202 
294 9 140 24 66 239 170 124 246 3 268 
295 9 285 262 82 12 280 229 186 34 300 
296 9 144 309 81 77 98 270 211 260 56 
297 9 53 142 112 22 51 83 111 47 160 
298 9 92 255 256 286 194 3 210 42 335 
299 9 158 52 26 267 145 168 307 246 149 
300 9 186 229 313 280 32 232 315 254 326 
301 9 155 134 203 178 173 175 289 163 88 
302 9 231 10 219 135 131 213 189 55 224 
303 9 184 330 272 61 201 287 87 49 289 
304 9 326 104 62 320 317 313 312 254 305 
305 9 254 315 313 320 326 232 331 304 57 
306 9 248 70 235 233 71 103 73 227 324 
307 9 145 246 158 267 3 92 168 26 298 
308 9 75 8 161 2 64 99 171 167 215 
309 9 270 77 198 296 144 72 271 136 56 
310 4 261 115 318 316 
311 9 11 60 128 43 120 334 192 328 96 
312 7 319 320 181 211 104 62 223 
313 9 300 186 229 326 232 280 315 254 32 
314 9 130 183 42 225 210 105 212 284 122 
315 9 232 57 32 254 300 313 331 186 305 
316 3 310 261 115 
317 8 62 104 304 326 222 320 34 312 
318 6 115 261 310 226 191 172 
319 7 211 181 312 223 247 144 320 
320 8 326 304 104 62 312 317 305 254 
321 9 133 126 28 45 106 76 172 85 31 
322 9 193 100 19 217 50 36 202 110 94 
323 9 137 241 266 250 16 258 199 151 33 
324 9 73 27 279 35 227 103 248 306 25 
325 8 332 93 273 329 188 293 5 208 
326 9 304 104 320 62 313 317 254 305 312 
327 4 206 157 243 52 
328 9 334 94 43 11 19 4 110 193 60 
329 9 93 273 58 5 325 332 216 196 208 
330 9 87 303 289 201 175 184 272 163 203 
331 9 57 37 71 315 232 233 254 305 235 
332 9 325 293 273 93 188 329 196 58 5 
333 9 290 230 337 251 17 252 281 90 220 
334 9 328 11 43 311 60 94 120 4 19 
335 9 286 194 3 268 298 92 255 256 200 
336 9 176 240 287 338 74 201 275 6 303 
337 9 230 290 333 90 252 199 241 18 281 
338 9 176 336 240 275 234 107 249 287 6 
339 9 146 257 204 200 122 276 225 253 183 
340 9 30 244 160 54 79 143 121 148 53 
DEPOT_SECTION
   1
   -1
EOF
