NAME :  X-n331-kX-w66-c11.cctp
COMMENT : 	Adapted by Maziero, Usberti and Cavellucci from the Uchoa, Pecin, Pessoa, Poggi, Subramanian, and Vidal (2013)
TYPE :  CCTP
DIMENSION :    300
EDGE_WEIGHT_TYPE : 	EUC_2D	
CAPACITY : 	23
VERTICES_WITHIN_COVERAGE :  11
VERTICES_WITH_DEMAND : 	66
NODE_COORD_SECTION
1 0 0
2 2 857
3 407 102
4 915 965
5 797 45
6 997 241
7 650 683
8 748 248
9 99 174
10 2 545
11 277 689
12 568 771
13 76 105
14 117 973
15 171 971
16 327 183
17 277 697
18 269 246
19 670 18
20 51 901
21 951 696
22 710 102
23 61 465
24 348 606
25 551 243
26 524 793
27 89 582
28 900 748
29 235 368
30 122 587
31 449 781
32 970 38
33 362 490
34 742 267
35 289 115
36 898 957
37 996 922
38 951 633
39 713 779
40 603 247
41 402 363
42 143 0
43 274 608
44 81 422
45 550 408
46 43 699
47 482 575
48 909 254
49 613 37
50 202 575
51 297 297
52 736 288
53 464 127
54 499 491
55 635 531
56 796 328
57 184 941
58 641 824
59 863 673
60 396 950
61 555 631
62 664 966
63 301 260
64 425 990
65 559 746
66 431 827
67 724 472
68 847 51
69 888 721
70 136 331
71 859 627
72 206 5
73 429 381
74 886 684
75 123 488
76 779 445
77 764 43
78 938 743
79 800 398
80 734 20
81 211 678
82 601 545
83 512 403
84 796 106
85 644 810
86 416 973
87 115 435
88 667 91
89 395 941
90 374 546
91 546 191
92 754 255
93 124 588
94 423 929
95 314 637
96 668 268
97 321 786
98 11 499
99 721 692
100 803 584
101 337 475
102 429 478
103 214 547
104 361 166
105 944 218
106 12 468
107 527 255
108 789 724
109 250 862
110 892 896
111 545 806
112 832 12
113 628 495
114 194 884
115 395 309
116 655 39
117 558 175
118 247 947
119 36 394
120 599 724
121 83 489
122 754 703
123 65 35
124 889 230
125 938 307
126 662 394
127 248 220
128 642 549
129 747 86
130 201 643
131 400 574
132 653 798
133 653 904
134 643 138
135 951 307
136 500 726
137 585 586
138 285 769
139 511 898
140 336 912
141 454 207
142 239 951
143 335 815
144 911 708
145 2 239
146 602 984
147 372 799
148 177 756
149 816 435
150 617 639
151 479 831
152 397 20
153 618 113
154 702 902
155 838 111
156 215 154
157 581 757
158 294 174
159 997 332
160 350 909
161 335 941
162 920 675
163 493 469
164 187 284
165 678 127
166 831 755
167 316 319
168 188 134
169 73 608
170 884 613
171 193 831
172 717 851
173 508 52
174 705 769
175 983 312
176 847 359
177 415 658
178 520 413
179 913 564
180 90 256
181 960 936
182 693 559
183 300 456
184 376 144
185 192 177
186 272 525
187 88 626
188 772 743
189 540 206
190 474 559
191 575 901
192 241 949
193 583 602
194 215 48
195 460 683
196 81 368
197 998 835
198 585 234
199 522 137
200 294 501
201 788 392
202 621 498
203 116 698
204 81 236
205 788 277
206 678 560
207 351 354
208 156 507
209 617 486
210 218 189
211 213 23
212 884 616
213 923 177
214 479 307
215 285 153
216 584 878
217 176 928
218 166 656
219 507 183
220 907 171
221 7 792
222 22 787
223 649 933
224 885 309
225 131 560
226 22 81
227 502 640
228 462 970
229 465 114
230 192 569
231 547 473
232 557 408
233 480 579
234 775 395
235 845 753
236 701 529
237 962 95
238 31 68
239 627 629
240 524 322
241 823 774
242 109 935
243 478 480
244 511 488
245 487 121
246 453 440
247 470 598
248 1 111
249 756 89
250 647 753
251 842 559
252 637 397
253 72 370
254 999 268
255 471 517
256 350 131
257 381 534
258 310 467
259 973 212
260 164 485
261 429 565
262 186 426
263 779 143
264 452 1
265 866 928
266 214 623
267 532 586
268 513 152
269 915 772
270 204 585
271 343 558
272 877 720
273 730 272
274 364 617
275 210 569
276 514 296
277 33 761
278 202 695
279 706 395
280 597 866
281 376 83
282 679 434
283 483 578
284 0 299
285 639 101
286 709 590
287 528 192
288 660 561
289 888 7
290 788 712
291 79 750
292 710 665
293 156 683
294 62 737
295 207 501
296 952 915
297 14 440
298 693 370
299 485 885
300 890 951
DEMAND_SECTION
2 1
3 1
4 1
5 1
6 1
7 1
8 1
9 1
10 1
11 1
12 1
13 1
14 1
15 1
16 1
17 1
18 1
19 1
20 1
21 1
22 1
23 1
24 1
25 1
26 1
27 1
28 1
29 1
30 1
31 1
32 1
33 1
34 1
35 1
36 1
37 1
38 1
39 1
40 1
41 1
42 1
43 1
44 1
45 1
46 1
47 1
48 1
49 1
50 1
51 1
52 1
53 1
54 1
55 1
56 1
57 1
58 1
59 1
60 1
61 1
62 1
63 1
64 1
65 1
66 1
67 1
COVERAGE_SECTION
2 9 221 20 222 277 242 291 294 14 46 
3 11 281 184 229 53 256 104 245 152 264 173 16 
4 7 36 300 181 265 296 110 37 
5 11 77 112 68 249 84 129 80 155 289 263 22 
6 9 254 259 105 175 135 48 125 159 213 
7 11 150 239 292 120 250 99 157 174 193 122 61 
8 11 92 34 273 52 205 96 56 263 298 165 124 
9 11 204 13 180 185 168 145 248 156 210 226 238 
10 11 98 106 27 169 121 23 297 187 30 93 225 
11 11 17 95 81 278 138 43 130 266 97 24 274 
12 11 157 65 111 26 120 250 136 85 132 58 280 
13 11 238 226 123 9 248 168 42 204 185 156 194 
14 11 242 15 57 217 20 114 142 192 118 171 2 
15 11 57 217 14 142 242 192 118 114 109 20 171 
16 11 158 104 215 256 184 35 63 18 127 210 281 
17 11 11 81 95 138 278 43 130 266 97 24 148 
18 11 127 63 51 158 210 16 167 164 215 185 156 
19 11 116 49 80 88 285 22 77 129 153 165 249 
20 10 2 242 14 221 222 217 15 57 277 114 
21 11 162 144 78 38 74 69 28 272 269 59 212 
22 11 129 165 88 249 285 134 77 263 116 80 84 
23 11 121 44 106 297 98 87 75 119 253 10 196 
24 11 274 95 271 131 90 43 257 177 261 11 186 
25 11 107 198 189 40 91 287 276 117 219 240 214 
26 11 111 12 65 151 157 136 31 66 299 120 280 
27 11 169 30 93 187 225 121 10 75 208 230 218 
28 11 269 69 272 78 144 235 74 166 21 162 241 
29 11 262 51 167 164 70 183 207 258 18 63 295 
30 11 93 225 27 187 169 230 50 218 270 208 275 
31 11 66 151 136 26 147 111 195 299 65 12 143 
32 11 237 289 68 112 213 220 155 5 259 105 84 
33 11 101 257 90 258 102 200 183 271 131 186 261 
34 11 273 92 8 52 205 96 56 298 263 234 201 
35 11 215 158 256 16 156 104 184 281 194 168 210 
36 7 300 4 265 110 181 296 37 
37 8 181 296 197 4 36 110 300 265 
38 11 162 21 212 170 179 74 144 71 59 69 78 
39 10 174 132 188 250 172 85 58 122 99 108 
40 11 198 25 96 189 107 91 117 287 276 240 219 
41 11 73 207 115 246 214 167 83 102 51 178 101 
42 11 72 211 123 194 13 238 168 226 156 9 248 
43 11 95 266 24 270 275 50 11 130 186 271 103 
44 11 87 23 119 253 196 121 297 75 106 98 260 
45 11 232 178 83 231 163 252 244 240 54 243 246 
46 10 294 291 277 203 187 222 169 221 293 27 
47 11 283 233 190 247 267 261 255 227 131 54 61 
48 10 124 105 125 224 135 259 213 220 6 254 
49 11 116 19 285 88 153 134 173 165 22 80 199 
50 11 270 275 230 103 266 130 225 295 43 93 30 
51 11 167 63 18 207 127 29 115 164 16 158 41 
52 11 273 34 92 8 205 96 56 298 279 234 201 
53 11 229 245 268 199 3 219 141 173 184 287 281 
54 11 244 163 243 255 231 246 102 190 178 47 283 
55 11 128 202 82 113 288 209 206 182 236 137 193 
56 11 205 176 201 79 234 52 34 92 273 224 8 
57 11 217 15 142 114 192 118 14 242 109 171 20 
58 11 85 132 280 250 216 133 172 174 39 12 157 
59 11 74 71 272 69 162 144 212 170 235 28 290 
60 11 89 86 94 64 160 161 228 140 299 139 66 
61 11 193 267 137 227 150 239 283 233 247 47 82 
62 8 223 133 146 154 191 216 280 172 
63 11 18 51 167 127 16 158 115 207 215 210 104 
64 11 86 228 60 89 94 161 160 140 299 139 66 
65 11 157 12 120 26 111 136 250 85 132 7 58 
66 11 151 31 147 299 143 26 94 139 160 111 97 
67 11 282 76 236 279 182 234 113 149 206 126 201 
68 11 112 5 289 155 84 77 249 129 263 80 237 
69 11 272 144 28 74 59 235 78 162 269 166 21 
70 11 196 164 253 180 29 44 87 262 204 119 284 
71 8 212 170 59 74 251 100 162 179 
72 11 211 194 42 168 35 123 156 13 215 185 210 
73 11 41 246 115 207 83 214 178 102 163 243 240 
74 11 59 144 162 69 272 71 21 28 212 170 78 
75 11 208 121 260 87 23 225 44 295 262 30 27 
76 9 149 234 79 201 67 279 282 176 298 
77 11 5 80 129 249 84 112 22 68 19 155 263 
78 11 269 28 144 21 69 272 162 74 235 59 166 
79 9 201 234 149 76 176 56 279 67 298 
80 11 77 19 129 5 249 116 22 88 112 84 68 
81 11 278 130 218 266 293 11 17 148 270 43 203 
82 11 55 128 137 202 113 193 209 288 206 267 239 
83 11 178 45 232 163 246 231 240 243 244 73 54 
84 11 263 155 249 129 5 77 68 22 112 80 165 
85 11 58 132 250 174 280 39 157 172 12 216 133 
86 11 64 60 89 94 228 161 160 140 299 139 66 
87 11 44 75 23 121 260 262 196 253 208 119 297 
88 11 285 165 22 116 134 153 19 49 129 249 80 
89 11 60 94 86 160 64 161 140 228 299 66 139 
90 11 257 271 131 33 261 24 274 101 102 200 190 
91 11 189 287 117 219 268 25 198 199 107 40 245 
92 11 8 34 273 52 205 56 96 263 298 124 176 
93 11 30 225 27 187 169 230 50 218 270 208 275 
94 11 89 60 86 228 64 160 299 140 161 139 66 
95 11 24 43 274 11 17 271 266 177 131 90 81 
96 11 273 40 52 34 8 92 198 298 25 205 126 
97 11 143 138 147 17 109 11 66 160 140 31 171 
98 11 106 10 297 23 121 44 119 75 27 87 169 
99 10 292 122 290 7 188 108 174 39 250 286 
100 7 251 71 170 212 286 59 179 
101 11 258 33 183 200 257 90 186 271 102 131 246 
102 11 246 243 255 163 33 54 257 244 90 261 101 
103 11 275 50 230 270 295 186 208 266 260 225 43 
104 11 184 256 16 158 215 3 281 35 141 53 63 
105 11 259 213 48 124 6 220 254 125 135 175 224 
106 11 297 98 23 121 10 119 44 87 75 253 196 
107 11 25 276 189 198 287 91 240 214 219 40 117 
108 9 290 188 122 166 241 235 99 272 59 
109 11 114 171 118 192 142 143 138 140 217 57 97 
110 6 265 300 36 296 4 181 
111 11 26 12 157 65 151 280 216 136 58 120 139 
112 11 68 5 289 77 80 155 84 249 129 32 263 
113 11 202 209 55 128 82 288 282 236 206 231 182 
114 9 217 171 57 109 192 142 118 15 242 
115 11 41 207 73 167 214 51 63 141 276 240 18 
116 11 19 49 88 285 80 153 22 165 134 129 77 
117 11 91 287 189 268 199 219 198 25 40 107 153 
118 11 192 142 57 217 15 114 109 161 140 160 171 
119 11 253 297 196 44 23 106 87 284 121 98 70 
120 11 157 65 12 250 7 150 132 85 111 136 239 
121 11 23 75 87 44 98 106 208 260 297 225 27 
122 10 99 290 108 188 292 174 39 166 241 235 
123 11 238 226 13 42 248 9 72 211 194 168 156 
124 11 48 105 220 213 224 259 125 135 6 205 254 
125 6 135 175 224 48 159 254 
126 11 252 298 282 279 67 209 232 113 202 45 234 
127 11 18 210 158 63 185 156 215 16 164 51 168 
128 11 55 288 206 82 182 202 113 236 137 209 193 
129 11 249 22 77 84 5 263 80 88 165 155 19 
130 11 266 81 218 278 270 293 50 230 275 43 11 
131 11 261 90 257 274 271 24 247 190 233 47 283 
132 11 85 58 250 174 39 157 172 280 12 120 133 
133 11 223 154 62 280 216 191 58 172 85 146 132 
134 11 153 165 285 88 22 117 116 49 91 198 40 
135 7 125 175 159 254 224 48 6 
136 11 195 65 26 31 12 227 157 111 120 151 177 
137 11 193 82 267 61 239 150 128 55 288 202 206 
138 11 97 143 17 11 147 109 148 171 278 81 95 
139 11 299 191 151 216 228 280 94 111 26 66 86 
140 11 160 161 89 60 94 118 143 109 86 192 142 
141 11 219 287 53 268 189 107 245 91 229 199 184 
142 11 192 118 57 217 15 114 109 161 140 160 14 
143 11 97 147 138 160 66 109 140 31 161 17 11 
144 11 69 162 74 272 28 21 78 59 269 235 38 
145 11 284 204 180 9 248 253 196 13 119 226 70 
146 11 62 223 191 133 216 280 139 154 228 299 58 
147 11 143 97 66 31 138 151 160 140 109 17 94 
148 9 278 293 171 203 81 291 218 138 17 
149 8 76 79 201 234 176 67 56 279 
150 11 239 193 7 137 61 120 288 128 82 292 206 
151 11 66 299 31 26 111 139 12 136 147 94 216 
152 11 264 281 3 173 229 256 53 184 245 35 104 
153 11 285 134 88 165 49 116 117 22 199 91 19 
154 6 133 172 223 62 58 85 
155 11 84 68 263 5 249 220 129 112 77 213 289 
156 11 185 168 210 215 127 158 35 194 18 16 9 
157 11 12 65 120 111 250 26 85 132 136 58 7 
158 11 215 16 35 127 104 256 18 210 156 63 184 
159 5 175 135 125 254 6 
160 11 140 161 89 60 94 86 143 64 109 118 147 
161 11 140 160 89 60 86 118 94 192 142 64 109 
162 11 144 74 21 38 69 59 272 212 78 170 28 
163 11 243 54 244 246 255 231 178 102 83 45 232 
164 11 70 127 18 29 210 180 185 51 63 204 156 
165 11 134 88 22 285 153 129 249 116 263 19 49 
166 8 235 241 108 272 188 290 69 28 
167 11 51 207 63 115 18 29 41 127 73 164 16 
168 11 156 185 210 194 9 215 35 127 158 211 13 
169 11 187 27 30 93 225 10 46 203 218 293 121 
170 9 212 71 179 59 251 38 74 162 100 
171 9 114 109 148 217 57 138 192 118 142 
172 7 154 39 58 132 133 174 85 
173 11 245 229 264 199 53 268 49 3 152 153 219 
174 10 39 132 250 188 85 99 122 172 58 108 
175 6 159 135 125 254 6 48 
176 6 56 79 224 201 234 149 
177 11 195 274 247 24 131 227 261 233 95 283 47 
178 11 83 45 232 163 231 246 244 243 54 240 73 
179 7 170 212 251 38 71 162 100 
180 11 204 9 70 145 284 164 196 253 185 210 119 
181 8 296 37 4 36 300 110 265 197 
182 10 206 236 288 286 128 55 113 67 82 202 
183 11 258 101 200 33 186 295 29 271 257 207 90 
184 11 104 256 3 281 16 158 53 215 35 229 141 
185 11 210 156 168 127 9 215 158 18 164 35 204 
186 11 200 103 258 295 183 275 271 101 43 50 230 
187 11 169 27 30 93 203 225 218 46 293 130 294 
188 9 108 290 122 166 241 39 99 174 235 
189 11 91 287 117 25 219 107 198 268 199 40 141 
190 11 47 233 283 247 255 261 267 54 131 243 244 
191 11 216 280 139 133 223 146 299 111 58 62 85 
192 11 142 118 57 217 15 114 109 161 140 160 14 
193 11 137 61 150 239 267 82 128 288 55 227 283 
194 11 211 72 42 168 35 156 215 185 210 158 13 
195 11 177 136 227 247 31 233 283 61 47 274 65 
196 11 253 119 44 70 87 297 23 284 180 262 106 
197 9 37 296 269 181 78 110 28 21 4 
198 11 40 25 189 91 107 117 287 96 219 276 240 
199 11 268 245 219 117 287 53 91 229 189 173 141 
200 11 186 258 183 101 33 271 295 90 103 257 275 
201 10 79 234 149 76 56 176 279 298 67 205 
202 11 113 209 55 82 128 288 231 206 236 282 182 
203 9 293 291 218 294 46 187 148 278 81 
204 11 180 9 145 284 70 164 185 13 196 253 210 
205 11 92 34 8 56 52 273 176 224 124 201 234 
206 10 182 288 128 236 286 55 82 113 202 239 
207 11 167 41 115 51 73 63 183 29 258 101 246 
208 11 260 75 295 225 103 230 121 50 275 87 262 
209 11 202 113 55 82 128 231 282 288 252 236 206 
210 11 185 156 127 168 18 215 158 164 35 16 63 
211 11 72 194 42 168 35 156 123 215 185 13 210 
212 10 170 71 179 59 74 38 162 251 100 144 
213 11 220 105 259 124 48 237 6 155 254 125 135 
214 11 276 240 107 115 73 41 25 83 141 178 189 
215 11 158 35 16 256 156 210 104 127 184 18 185 
216 11 280 191 133 139 58 111 223 85 299 26 132 
217 11 57 15 114 142 242 192 118 14 171 109 20 
218 11 293 130 81 278 266 203 93 270 30 187 50 
219 11 287 268 91 189 199 117 141 245 53 25 107 
220 11 213 105 124 259 48 155 237 6 84 263 68 
221 9 222 277 2 294 291 46 20 203 148 
222 9 221 277 294 291 2 46 20 203 148 
223 10 133 62 154 146 191 216 280 172 58 85 
224 7 125 48 176 135 124 56 175 
225 11 30 93 27 208 230 75 50 169 270 187 275 
226 11 238 248 13 123 9 42 145 204 168 180 185 
227 11 247 61 195 267 233 283 47 136 190 177 193 
228 11 64 86 94 60 89 139 299 160 161 191 140 
229 11 53 245 3 199 268 173 219 141 184 281 287 
230 11 50 275 270 103 266 225 295 93 30 208 130 
231 11 244 54 163 45 178 232 243 209 83 202 113 
232 11 45 178 83 231 252 163 240 244 209 54 126 
233 11 283 47 190 247 267 261 255 227 131 54 61 
234 11 201 79 76 149 279 56 176 298 67 282 126 
235 8 166 241 272 69 28 108 290 269 
236 10 182 206 288 67 128 286 55 113 202 209 
237 11 32 213 220 289 259 68 105 155 6 124 112 
238 11 226 123 248 13 9 42 168 145 204 194 72 
239 11 150 193 7 137 61 288 128 206 82 292 286 
240 11 276 214 107 83 25 45 178 232 198 40 73 
241 7 166 235 108 188 290 272 28 
242 11 14 20 217 15 57 114 142 2 192 171 118 
243 11 163 54 244 255 246 102 231 178 190 83 47 
244 11 54 163 243 231 255 246 178 190 102 83 45 
245 11 229 53 199 268 219 173 3 287 117 91 141 
246 11 102 243 163 73 54 83 178 244 255 41 231 
247 11 233 283 47 190 227 261 267 131 177 255 195 
248 11 226 238 13 123 9 145 204 180 42 168 284 
249 11 129 84 77 22 263 5 80 155 165 88 68 
250 11 132 120 85 174 157 7 39 58 12 65 99 
251 6 100 170 71 179 212 59 
252 11 126 282 298 279 232 45 209 113 202 67 178 
253 11 196 119 44 70 87 297 23 284 106 180 121 
254 9 6 175 135 259 159 125 105 48 124 
255 11 54 243 190 244 163 102 47 283 233 261 246 
256 11 184 104 281 16 35 3 215 158 53 229 152 
257 11 90 131 271 33 261 101 102 24 274 255 200 
258 11 183 101 200 33 186 271 257 90 295 102 207 
259 11 105 6 213 254 48 220 124 135 175 125 237 
260 11 208 75 295 262 87 103 121 225 230 275 50 
261 11 131 190 233 247 47 283 257 90 255 274 271 
262 11 260 87 29 295 208 75 44 70 183 196 121 
263 11 84 249 129 155 22 5 77 165 8 68 92 
264 11 152 173 3 281 229 245 53 199 184 268 49 
265 5 300 110 36 4 296 
266 11 130 270 50 275 81 218 230 43 278 103 293 
267 11 283 47 61 233 137 193 227 247 190 82 255 
268 11 199 219 245 287 91 117 53 189 229 141 25 
269 10 28 78 69 144 272 235 21 166 241 74 
270 11 50 275 230 103 266 130 43 225 93 218 30 
271 11 90 257 24 131 274 33 200 186 101 95 43 
272 11 69 28 144 74 235 59 166 162 269 78 241 
273 11 34 52 92 8 205 96 56 298 279 40 234 
274 11 24 95 131 271 177 90 261 257 43 247 11 
275 11 50 270 230 103 266 295 43 130 186 225 208 
276 11 240 214 107 25 189 198 40 287 83 141 91 
277 9 222 294 221 291 46 2 203 20 148 
278 10 81 293 130 218 148 266 11 17 203 270 
279 11 298 126 282 234 252 67 201 76 79 52 56 
280 11 216 191 58 133 85 111 223 132 139 12 26 
281 11 3 256 184 152 104 35 229 53 16 264 215 
282 11 126 279 252 67 298 113 209 202 236 76 234 
283 11 47 233 190 247 267 261 255 227 131 54 61 
284 11 145 180 253 119 204 196 70 297 44 9 106 
285 11 153 88 134 165 116 49 22 19 129 117 249 
286 9 182 206 288 236 292 128 239 100 55 
287 11 91 189 219 117 268 199 25 107 198 141 245 
288 10 206 128 182 55 236 286 82 113 202 239 
289 11 112 68 32 5 155 237 77 84 80 249 129 
290 9 108 122 188 166 99 235 241 59 272 
291 9 294 277 46 203 222 221 148 293 187 
292 10 99 122 7 286 239 290 150 108 188 174 
293 10 218 203 278 81 130 148 266 187 93 30 
294 9 291 277 46 222 203 221 293 187 148 
295 11 260 103 208 275 186 230 50 262 270 75 200 
296 8 181 37 4 110 36 300 265 197 
297 11 106 119 23 98 44 121 253 196 87 10 75 
298 11 279 126 252 282 234 52 201 96 273 67 56 
299 11 139 151 94 66 228 191 111 216 26 89 31 
300 7 36 4 265 110 181 296 37 
DEPOT_SECTION
   1
   -1
EOF
