NAME :  X-n384-kX-w76-c7.cctp
COMMENT : 	Adapted by Maziero, Usberti and Cavellucci from the Uchoa, Pecin, Pessoa, Poggi, Subramanian, and Vidal (2013)
TYPE :  CCTP
DIMENSION :    341
EDGE_WEIGHT_TYPE : 	EUC_2D	
CAPACITY : 	564
VERTICES_WITHIN_COVERAGE :  7
VERTICES_WITH_DEMAND : 	76
NODE_COORD_SECTION
1 51 570
2 691 985
3 66 119
4 502 415
5 434 289
6 427 584
7 342 576
8 790 87
9 312 475
10 908 531
11 840 566
12 863 232
13 284 833
14 515 175
15 9 243
16 768 209
17 777 582
18 84 508
19 380 523
20 255 267
21 544 961
22 408 661
23 57 588
24 278 44
25 168 722
26 726 406
27 223 385
28 495 70
29 560 632
30 235 655
31 643 127
32 765 267
33 459 976
34 585 962
35 154 796
36 650 444
37 931 52
38 377 19
39 178 633
40 917 803
41 871 677
42 667 164
43 208 651
44 35 437
45 503 680
46 462 870
47 322 123
48 677 829
49 878 407
50 223 251
51 671 94
52 218 351
53 375 220
54 367 567
55 986 869
56 236 769
57 202 998
58 761 712
59 75 520
60 14 737
61 895 632
62 224 725
63 328 387
64 36 300
65 817 531
66 31 283
67 209 574
68 490 395
69 659 121
70 410 207
71 761 450
72 768 348
73 943 340
74 39 955
75 106 150
76 963 376
77 516 144
78 554 127
79 944 75
80 373 88
81 54 5
82 39 965
83 51 392
84 999 983
85 563 410
86 536 848
87 786 533
88 42 948
89 875 361
90 581 696
91 148 875
92 483 983
93 449 343
94 219 600
95 374 487
96 279 200
97 479 705
98 273 519
99 869 745
100 776 395
101 341 275
102 593 973
103 778 716
104 277 152
105 782 314
106 896 301
107 573 478
108 42 198
109 124 348
110 557 630
111 774 669
112 847 411
113 161 755
114 709 832
115 948 830
116 434 60
117 990 161
118 942 399
119 571 611
120 262 680
121 253 246
122 563 416
123 382 91
124 579 962
125 215 439
126 248 65
127 811 175
128 725 834
129 169 359
130 641 926
131 625 52
132 629 8
133 486 394
134 83 462
135 924 930
136 175 333
137 115 192
138 123 534
139 634 528
140 702 299
141 86 172
142 11 889
143 8 583
144 495 538
145 3 14
146 201 666
147 131 348
148 300 323
149 551 167
150 412 90
151 813 64
152 993 344
153 317 999
154 90 595
155 180 817
156 667 24
157 733 661
158 493 953
159 735 602
160 468 639
161 776 107
162 204 781
163 165 858
164 678 218
165 536 950
166 47 421
167 239 153
168 744 664
169 766 64
170 788 448
171 920 330
172 54 707
173 793 257
174 517 964
175 389 503
176 923 563
177 383 388
178 917 890
179 734 599
180 749 248
181 333 17
182 84 713
183 776 428
184 888 452
185 371 465
186 408 820
187 357 613
188 979 298
189 507 187
190 526 595
191 17 545
192 513 146
193 70 513
194 484 862
195 294 987
196 880 478
197 287 733
198 709 30
199 755 201
200 939 682
201 23 975
202 135 799
203 808 471
204 352 279
205 275 130
206 60 465
207 288 813
208 718 755
209 569 157
210 634 665
211 743 336
212 870 16
213 267 623
214 675 856
215 950 618
216 445 653
217 816 368
218 19 825
219 68 548
220 912 106
221 600 71
222 245 644
223 555 400
224 549 230
225 243 724
226 657 925
227 355 48
228 951 488
229 318 318
230 917 3
231 295 453
232 818 398
233 73 482
234 349 100
235 950 284
236 69 29
237 178 1
238 381 457
239 266 918
240 174 282
241 56 123
242 693 864
243 146 606
244 846 275
245 176 95
246 912 431
247 903 582
248 703 553
249 297 364
250 703 755
251 332 591
252 283 487
253 968 440
254 718 490
255 295 702
256 449 997
257 926 605
258 604 188
259 239 159
260 963 544
261 762 412
262 986 378
263 180 267
264 837 710
265 276 708
266 963 733
267 255 875
268 396 884
269 699 106
270 261 853
271 860 800
272 535 344
273 450 911
274 433 336
275 411 46
276 842 35
277 654 385
278 871 67
279 457 532
280 9 162
281 886 356
282 464 267
283 413 493
284 140 227
285 819 673
286 660 739
287 322 299
288 626 556
289 975 276
290 138 941
291 304 86
292 532 473
293 60 255
294 240 267
295 174 678
296 929 577
297 369 972
298 668 756
299 899 435
300 367 634
301 585 668
302 45 722
303 207 394
304 340 665
305 142 543
306 279 945
307 259 574
308 293 833
309 54 58
310 481 595
311 44 507
312 125 942
313 410 444
314 462 734
315 881 743
316 690 935
317 879 195
318 239 813
319 911 347
320 289 397
321 206 571
322 532 174
323 610 399
324 184 52
325 719 98
326 261 552
327 277 497
328 85 267
329 818 67
330 54 568
331 545 251
332 484 37
333 739 237
334 868 790
335 17 42
336 778 328
337 848 464
338 33 255
339 237 37
340 335 531
341 113 544
DEMAND_SECTION
2 83
3 65
4 92
5 73
6 94
7 100
8 99
9 83
10 84
11 81
12 65
13 69
14 84
15 67
16 53
17 70
18 93
19 69
20 78
21 75
22 56
23 99
24 88
25 61
26 65
27 90
28 74
29 85
30 59
31 76
32 79
33 99
34 98
35 80
36 71
37 71
38 93
39 69
40 88
41 71
42 52
43 75
44 83
45 67
46 88
47 64
48 89
49 86
50 84
51 89
52 97
53 85
54 78
55 83
56 90
57 93
58 61
59 84
60 98
61 97
62 78
63 60
64 58
65 63
66 99
67 50
68 93
69 53
70 52
71 70
72 97
73 63
74 72
75 77
76 88
77 66
COVERAGE_SECTION
2 6 316 226 130 102 34 124 
3 7 241 75 141 309 280 108 137 
4 6 68 133 223 85 122 292 
5 7 282 274 93 204 70 53 101 
6 7 310 279 54 160 216 187 19 
7 7 251 54 187 340 300 19 307 
8 7 161 151 169 329 325 276 278 
9 7 231 252 327 98 185 340 95 
10 7 176 247 296 260 196 228 11 
11 7 65 87 17 247 10 176 61 
12 7 317 244 173 106 127 16 235 
13 6 308 207 270 318 267 56 
14 7 189 322 192 77 149 209 78 
15 7 338 66 293 108 64 328 280 
16 7 199 333 180 173 127 32 164 
17 7 179 159 87 11 65 248 111 
18 7 59 193 233 311 219 134 341 
19 7 175 95 283 54 340 185 7 
20 7 294 121 50 96 148 287 263 
21 7 165 174 124 34 102 158 92 
22 7 216 300 160 304 187 6 97 
23 7 330 154 219 143 191 59 341 
24 7 126 339 291 181 227 205 47 
25 7 113 295 62 146 162 35 225 
26 7 261 100 183 71 72 211 170 
27 7 303 52 125 129 320 136 249 
28 7 332 116 77 192 78 150 275 
29 7 110 119 301 190 90 45 210 
30 7 222 43 146 120 213 94 39 
31 7 69 51 42 269 221 258 131 
32 7 180 173 333 105 16 336 199 
33 7 256 92 158 174 273 165 21 
34 7 124 102 21 165 130 174 226 
35 7 202 155 113 162 163 25 91 
36 6 277 323 254 107 26 139 
37 7 79 230 220 278 212 276 329 
38 7 227 275 181 80 116 123 150 
39 7 43 146 243 295 94 30 67 
40 7 115 334 271 315 99 266 178 
41 6 264 61 285 315 99 200 
42 7 31 69 164 269 258 51 325 
43 7 146 30 39 222 295 94 120 
44 7 166 206 83 134 233 311 193 
45 7 97 160 216 314 110 29 90 
46 6 194 273 268 186 86 158 
47 7 234 291 205 104 80 123 227 
48 6 214 114 242 128 298 250 
49 7 112 299 246 89 184 281 232 
50 7 294 121 20 263 240 96 284 
51 7 69 269 31 325 131 42 156 
52 7 27 303 136 129 249 240 320 
53 7 70 204 101 5 287 96 282 
54 7 7 251 19 187 340 6 300 
55 5 115 178 135 40 84 
56 7 162 318 62 225 197 207 265 
57 6 290 195 306 312 239 153 
58 6 103 111 168 157 208 285 
59 7 193 18 219 311 233 341 138 
60 7 302 172 182 218 202 113 35 
61 7 257 41 247 215 296 200 176 
62 7 225 56 265 25 120 162 146 
63 7 249 320 177 148 229 231 238 
64 6 66 338 293 328 15 83 
65 7 87 11 203 17 337 196 170 
66 6 64 338 293 15 328 108 
67 7 321 94 307 326 39 243 305 
68 6 133 4 223 93 272 85 
69 7 31 51 269 42 325 131 221 
70 7 53 282 5 204 101 189 14 
71 7 170 183 261 203 26 100 254 
72 7 336 211 105 100 217 261 232 
73 7 171 319 76 152 188 235 262 
74 7 88 82 201 142 312 290 218 
75 7 141 137 3 241 108 284 245 
76 7 262 118 73 152 319 171 253 
77 7 192 14 322 78 149 189 209 
78 7 209 149 77 192 322 14 221 
79 7 37 220 278 230 212 117 276 
80 7 123 234 150 227 275 47 116 
81 6 236 145 335 309 3 241 
82 7 74 88 201 142 312 290 91 
83 7 166 44 206 134 109 147 64 
84 4 135 55 178 115 
85 6 122 223 323 4 107 292 
86 2 194 46 
87 7 65 17 11 203 254 179 170 
88 7 74 82 201 142 312 290 218 
89 7 281 319 49 171 112 217 106 
90 7 301 210 29 110 45 119 286 
91 6 163 155 290 312 202 35 
92 7 33 158 256 174 165 21 273 
93 7 274 5 133 68 282 177 272 
94 7 67 321 307 222 43 39 213 
95 7 175 185 238 19 283 313 340 
96 7 104 121 259 167 205 20 50 
97 5 314 45 216 160 22 
98 5 327 252 326 307 9 
99 5 315 334 264 271 41 
100 7 261 183 232 72 217 26 170 
101 7 204 287 229 148 53 20 121 
102 7 34 124 21 165 130 174 226 
103 5 58 111 264 285 168 
104 6 205 167 259 96 47 291 
105 7 336 72 211 32 173 217 180 
106 7 171 319 244 281 235 73 89 
107 6 292 122 85 139 223 36 
108 6 280 141 15 338 293 137 
109 7 147 129 136 240 83 328 52 
110 7 29 119 190 301 90 45 310 
111 7 168 157 58 285 103 264 159 
112 7 49 232 217 337 89 299 184 
113 7 25 35 162 202 155 62 56 
114 6 128 48 242 214 250 208 
115 7 40 55 178 334 271 266 135 
116 7 275 150 332 123 28 80 38 
117 7 220 79 289 317 37 235 188 
118 7 76 246 253 262 299 73 319 
119 6 29 110 190 301 288 210 
120 7 265 30 222 255 225 213 62 
121 7 20 294 50 96 263 240 287 
122 6 85 223 323 4 107 292 
123 7 80 150 234 227 275 116 47 
124 6 34 102 21 165 174 130 
125 2 303 27 
126 6 339 24 291 324 205 245 
127 7 16 199 317 161 12 173 8 
128 6 114 242 48 214 208 250 
129 7 136 147 109 52 303 27 240 
130 6 226 316 34 102 124 2 
131 7 221 132 156 51 31 69 198 
132 7 156 131 221 198 51 69 31 
133 7 68 4 93 223 272 85 274 
134 7 233 206 18 193 44 166 59 
135 4 178 55 84 115 
136 7 129 147 52 240 109 263 303 
137 6 141 75 284 108 328 293 
138 6 341 305 18 59 193 219 
139 5 288 248 107 36 254 
140 5 211 180 32 333 105 
141 6 75 137 108 3 241 284 
142 7 218 88 74 82 201 312 290 
143 7 191 330 23 219 154 311 59 
144 7 279 310 190 292 6 283 107 
145 6 335 81 309 236 241 3 
146 7 43 295 30 39 222 62 120 
147 7 109 129 136 240 52 303 83 
148 7 229 287 249 101 204 63 20 
149 7 322 209 14 78 77 192 189 
150 7 123 116 80 275 234 227 38 
151 7 329 8 276 169 161 278 212 
152 7 262 76 188 73 289 171 235 
153 6 195 297 306 239 57 256 
154 7 23 330 219 341 243 138 305 
155 7 35 162 163 202 318 113 91 
156 7 132 198 131 51 221 269 325 
157 6 168 111 58 159 179 103 
158 7 174 92 33 165 21 273 256 
159 7 179 17 157 248 168 111 87 
160 7 216 310 45 22 97 6 190 
161 7 8 169 151 325 329 127 269 
162 7 56 155 318 113 35 62 25 
163 6 91 155 35 202 162 290 
164 5 42 333 180 199 258 
165 7 21 174 158 124 34 102 92 
166 7 44 83 206 134 233 311 18 
167 6 259 104 205 96 245 47 
168 6 157 111 58 103 159 179 
169 7 8 161 151 329 325 198 269 
170 7 183 71 203 261 100 232 337 
171 7 319 73 106 281 89 235 76 
172 7 302 182 60 25 113 154 23 
173 7 32 180 16 244 105 333 199 
174 7 165 158 21 92 33 124 34 
175 7 19 95 283 185 238 340 313 
176 7 296 247 10 257 260 215 61 
177 7 63 313 238 274 185 93 249 
178 4 135 115 55 40 
179 7 159 17 248 157 168 111 87 
180 7 333 32 16 173 199 140 105 
181 7 227 38 24 291 80 275 234 
182 7 172 302 60 25 113 295 202 
183 7 261 170 71 100 232 203 26 
184 7 299 196 246 337 49 112 228 
185 7 238 95 175 313 283 19 9 
186 2 268 46 
187 7 300 251 7 54 304 22 6 
188 7 289 235 152 73 171 76 262 
189 7 14 322 192 77 149 224 209 
190 6 310 110 119 29 144 160 
191 7 143 330 311 219 23 193 59 
192 7 77 14 322 189 149 78 209 
193 7 59 18 311 233 219 206 134 
194 4 46 86 273 186 
195 5 153 306 239 297 57 
196 7 184 337 299 246 10 49 203 
197 6 265 255 225 120 56 62 
198 7 156 169 325 51 269 132 131 
199 7 16 333 180 127 32 173 164 
200 7 266 215 61 41 257 315 99 
201 7 82 74 88 142 312 290 218 
202 7 35 155 113 163 162 91 25 
203 7 170 337 71 183 65 87 112 
204 7 101 287 229 53 148 5 70 
205 7 104 167 259 47 291 96 126 
206 7 233 134 44 311 166 18 193 
207 6 13 308 270 318 56 267 
208 6 250 298 286 58 103 114 
209 7 149 78 322 258 77 14 192 
210 6 301 90 286 29 119 110 
211 7 72 336 105 140 100 26 32 
212 7 276 230 278 37 329 151 79 
213 7 222 30 307 94 120 43 326 
214 6 242 48 114 128 226 130 
215 7 257 296 61 247 176 200 260 
216 7 160 22 97 45 310 6 300 
217 7 232 100 72 112 336 89 105 
218 7 142 60 302 202 172 88 182 
219 7 330 59 193 23 18 341 311 
220 7 79 37 278 117 317 212 276 
221 7 131 132 31 78 51 69 156 
222 7 30 213 43 120 146 94 39 
223 6 85 122 4 323 272 68 
224 6 331 322 189 149 14 258 
225 7 62 265 197 56 120 255 30 
226 6 130 316 2 214 242 102 
227 7 38 181 80 123 234 275 291 
228 7 253 260 10 246 196 184 299 
229 7 148 287 101 249 204 63 20 
230 7 212 37 79 278 276 220 329 
231 5 9 252 327 320 98 
232 7 217 112 100 183 170 261 49 
233 7 206 134 18 193 59 311 44 
234 7 80 123 47 291 227 150 205 
235 7 289 188 171 73 106 152 319 
236 6 81 309 335 145 3 241 
237 6 324 339 245 126 24 236 
238 7 185 95 313 175 283 19 177 
239 5 306 267 270 195 13 
240 7 263 136 50 284 294 129 147 
241 7 3 75 141 280 309 108 335 
242 6 214 114 48 128 226 316 
243 7 39 154 305 321 341 67 94 
244 7 12 106 173 105 32 336 317 
245 5 324 126 339 167 75 
246 7 299 184 49 118 196 253 112 
247 7 296 176 257 10 61 215 11 
248 6 179 159 254 139 288 17 
249 7 320 63 148 229 287 27 52 
250 6 208 298 286 58 114 48 
251 7 7 187 54 300 340 213 304 
252 4 327 9 98 231 
253 7 118 228 246 76 262 299 184 
254 7 71 248 87 36 170 26 183 
255 6 265 197 120 225 304 62 
256 7 33 92 158 174 297 273 165 
257 7 215 296 247 61 176 260 10 
258 6 209 149 42 224 31 322 
259 6 167 104 205 96 121 47 
260 7 176 296 10 228 247 257 215 
261 7 183 100 26 71 170 232 72 
262 7 76 152 118 73 253 188 319 
263 7 240 50 284 294 136 20 121 
264 5 285 41 99 315 103 
265 7 255 197 120 225 62 30 222 
266 7 200 315 40 99 115 41 334 
267 5 270 239 13 308 318 
268 5 273 186 46 194 297 
269 7 325 51 69 31 42 161 198 
270 6 267 13 308 318 207 239 
271 5 334 99 40 315 115 
272 5 223 68 133 85 122 
273 7 46 158 194 268 33 92 174 
274 7 93 5 177 282 133 68 204 
275 7 116 38 150 123 227 80 332 
276 7 212 329 151 278 8 169 230 
277 5 323 36 26 85 122 
278 7 276 212 329 220 151 37 79 
279 7 144 283 6 310 175 19 190 
280 7 108 241 3 141 15 338 75 
281 7 89 319 171 49 106 73 112 
282 7 5 274 93 70 331 189 224 
283 7 175 95 19 238 313 185 279 
284 6 137 263 240 328 141 75 
285 6 264 111 41 103 58 168 
286 6 298 250 208 210 90 48 
287 7 229 101 148 204 249 20 121 
288 5 139 248 119 107 29 
289 7 188 235 152 73 171 106 319 
290 6 312 91 57 163 88 74 
291 7 47 234 24 205 126 227 80 
292 7 107 4 122 85 144 223 68 
293 6 338 328 66 64 15 108 
294 7 20 50 121 263 240 96 148 
295 7 146 43 25 39 30 62 243 
296 7 176 247 257 215 260 10 61 
297 6 153 195 256 33 268 306 
298 6 286 250 208 48 114 128 
299 7 246 184 49 196 118 112 337 
300 7 187 304 22 251 7 54 6 
301 6 90 29 110 210 119 45 
302 7 172 60 182 218 202 113 25 
303 5 27 52 125 129 136 
304 6 300 187 255 22 251 265 
305 6 138 341 243 18 321 59 
306 5 239 195 153 267 57 
307 7 326 94 67 213 321 98 222 
308 5 13 207 270 267 318 
309 6 236 335 81 3 241 145 
310 7 190 160 6 144 279 216 110 
311 7 193 59 233 18 206 191 219 
312 7 290 91 88 74 82 163 57 
313 7 238 185 283 95 177 175 19 
314 3 97 45 216 
315 5 99 334 264 271 41 
316 5 226 2 130 242 214 
317 7 12 127 244 220 173 106 16 
318 7 56 270 162 13 207 308 155 
319 7 171 281 73 89 106 76 118 
320 6 249 63 231 27 148 9 
321 7 67 94 307 326 39 243 305 
322 7 14 149 189 77 192 209 78 
323 5 277 85 122 223 36 
324 5 245 237 339 126 24 
325 7 269 51 161 169 69 198 8 
326 6 307 98 67 327 321 94 
327 4 252 98 9 231 
328 6 293 338 66 64 284 15 
329 7 151 8 276 169 278 161 212 
330 7 23 219 191 154 143 59 193 
331 4 224 189 322 14 
332 7 28 116 275 150 38 77 192 
333 7 180 199 16 32 173 164 140 
334 5 271 99 315 40 264 
335 7 145 309 81 236 241 3 280 
336 7 105 72 211 217 32 100 173 
337 7 196 203 184 112 299 170 49 
338 6 15 293 66 64 328 108 
339 6 126 24 324 237 291 245 
340 7 7 19 54 95 251 9 175 
341 7 138 305 59 219 18 193 154 
DEPOT_SECTION
   1
   -1
EOF
