NAME :  X-n393-kX-w39-c9.cctp
COMMENT : 	Adapted by Maziero, Usberti and Cavellucci from the Uchoa, Pecin, Pessoa, Poggi, Subramanian, and Vidal (2013)
TYPE :  CCTP
DIMENSION :    193
EDGE_WEIGHT_TYPE : 	EUC_2D	
CAPACITY : 	78
VERTICES_WITHIN_COVERAGE :  9
VERTICES_WITH_DEMAND : 	39
NODE_COORD_SECTION
1 500 500
2 113 195
3 377 239
4 364 39
5 306 316
6 795 18
7 803 771
8 845 880
9 440 450
10 284 370
11 785 211
12 860 318
13 170 621
14 180 957
15 707 913
16 861 505
17 546 186
18 910 997
19 403 865
20 373 357
21 317 394
22 225 729
23 666 199
24 505 56
25 436 885
26 711 906
27 736 688
28 439 550
29 561 186
30 276 294
31 810 244
32 939 53
33 551 220
34 662 179
35 537 420
36 843 543
37 970 798
38 933 860
39 518 910
40 571 265
41 583 119
42 985 150
43 810 48
44 620 230
45 859 278
46 419 310
47 808 811
48 796 931
49 698 66
50 409 562
51 886 760
52 36 197
53 596 305
54 252 372
55 564 16
56 839 206
57 160 313
58 288 150
59 326 201
60 301 6
61 196 391
62 448 41
63 908 558
64 277 270
65 575 993
66 183 972
67 469 577
68 890 727
69 826 883
70 91 15
71 526 335
72 231 693
73 698 701
74 589 978
75 526 926
76 859 847
77 762 64
78 949 109
79 624 779
80 289 195
81 172 345
82 952 443
83 974 550
84 751 49
85 391 837
86 531 44
87 931 76
88 898 863
89 939 987
90 455 898
91 961 784
92 829 284
93 554 874
94 221 155
95 396 228
96 7 29
97 327 28
98 734 216
99 353 101
100 159 260
101 569 501
102 382 366
103 430 883
104 965 322
105 328 254
106 642 318
107 252 663
108 816 889
109 422 318
110 373 417
111 979 824
112 692 65
113 450 466
114 851 582
115 857 111
116 194 87
117 918 84
118 449 898
119 891 587
120 410 387
121 550 467
122 441 531
123 661 762
124 918 264
125 224 33
126 534 961
127 371 255
128 694 794
129 185 127
130 384 56
131 650 223
132 874 501
133 822 439
134 289 312
135 462 546
136 686 269
137 843 617
138 786 493
139 598 317
140 655 343
141 726 602
142 674 47
143 411 577
144 173 977
145 370 870
146 407 548
147 443 554
148 405 435
149 190 760
150 461 450
151 486 905
152 221 739
153 131 657
154 402 893
155 176 632
156 152 947
157 176 969
158 182 936
159 348 466
160 195 586
161 193 757
162 190 940
163 378 861
164 182 951
165 426 810
166 459 591
167 216 656
168 249 700
169 262 426
170 208 752
171 222 603
172 179 574
173 459 337
174 416 849
175 262 763
176 154 594
177 402 509
178 429 876
179 466 341
180 149 943
181 295 460
182 578 423
183 413 893
184 180 989
185 223 699
186 399 829
187 361 401
188 195 922
189 283 760
190 140 631
191 431 871
192 293 729
193 383 878
DEMAND_SECTION
2 5
3 5
4 7
5 9
6 7
7 8
8 5
9 7
10 8
11 7
12 9
13 9
14 10
15 6
16 7
17 9
18 8
19 7
20 6
21 9
22 5
23 5
24 10
25 6
26 6
27 9
28 6
29 6
30 7
31 9
32 6
33 6
34 9
35 5
36 7
37 5
38 8
39 8
40 6
COVERAGE_SECTION
2 9 52 100 129 94 57 116 81 80 64 
3 9 127 95 105 59 46 109 80 5 64 
4 9 130 97 99 60 62 58 125 24 59 
5 9 134 30 64 10 105 54 20 21 127 
6 9 43 84 77 49 115 112 142 117 32 
7 9 47 51 76 68 27 128 69 8 108 
8 9 69 108 76 88 48 47 38 7 51 
9 9 113 150 148 120 177 110 122 159 187 
10 9 54 21 5 134 169 30 187 20 61 
11 9 31 98 56 92 45 136 23 115 34 
12 9 45 92 124 31 104 56 133 11 82 
13 8 155 176 190 160 172 153 171 167 
14 8 164 157 66 162 144 158 156 184 
15 9 26 48 108 128 69 74 8 47 65 
16 9 132 36 63 138 133 114 119 82 137 
17 9 29 33 41 40 44 131 34 23 53 
18 9 89 48 8 88 38 69 108 76 111 
19 9 174 193 163 154 178 191 85 183 103 
20 9 102 187 120 110 109 46 21 5 148 
21 9 10 187 110 169 20 54 181 102 159 
22 9 152 170 185 72 168 161 149 175 189 
23 9 34 131 44 98 136 29 41 40 33 
24 9 86 62 55 41 130 17 4 29 99 
25 9 103 178 191 118 90 183 154 19 174 
26 9 15 48 108 128 69 8 47 74 123 
27 8 73 141 123 7 128 137 47 79 
28 8 147 122 135 50 146 143 67 166 
29 9 17 33 41 44 40 131 34 23 53 
30 9 134 64 5 105 10 54 80 127 59 
31 9 11 92 56 45 98 12 124 136 115 
32 9 87 117 78 115 42 43 6 77 56 
33 9 17 29 40 44 53 131 41 139 23 
34 9 23 131 44 98 136 41 29 17 33 
35 7 182 121 150 71 101 113 9 
36 9 114 16 132 119 63 137 138 133 83 
37 9 91 111 38 51 88 68 76 8 47 
38 9 88 111 37 76 91 8 69 51 108 
39 8 75 151 93 126 90 118 25 103 
40 9 53 33 139 44 29 17 71 106 131 
41 9 29 17 86 34 24 55 33 23 142 
42 9 78 87 117 32 124 115 56 104 45 
43 9 6 77 84 115 49 117 112 87 32 
44 9 131 23 40 34 33 29 136 53 17 
45 9 92 12 31 124 56 11 104 98 133 
46 9 109 173 179 20 102 127 120 3 95 
47 9 7 76 69 8 108 51 88 128 68 
48 9 108 69 8 26 15 76 47 88 18 
49 9 112 142 84 77 6 43 34 41 23 
50 5 146 143 28 147 122 
51 9 68 91 7 76 37 47 88 38 111 
52 9 2 100 129 57 96 70 94 116 81 
53 9 139 40 106 140 71 44 33 136 131 
54 9 10 169 61 21 134 5 30 81 181 
55 9 86 24 41 142 62 112 49 29 17 
56 9 31 11 45 92 115 124 98 12 117 
57 7 81 100 61 54 30 64 2 
58 9 80 59 94 99 129 105 116 64 3 
59 9 80 105 3 58 127 95 64 99 30 
60 9 97 4 125 130 99 116 58 62 129 
61 5 81 54 169 57 10 
62 9 24 130 86 4 99 55 97 60 41 
63 9 119 114 83 132 36 16 137 82 138 
64 9 30 134 105 5 80 59 127 10 3 
65 9 74 126 75 39 93 151 90 15 118 
66 6 157 144 14 184 164 162 
67 5 166 135 147 28 122 
68 9 51 91 7 37 47 137 76 111 88 
69 9 108 8 76 48 47 88 38 7 26 
70 9 96 116 125 129 2 52 94 60 97 
71 9 179 173 139 53 40 35 182 109 46 
72 8 185 168 22 107 167 152 170 192 
73 7 27 123 128 141 79 7 47 
74 9 65 126 75 39 93 151 15 26 90 
75 9 39 126 151 93 90 74 118 65 25 
76 9 8 88 69 108 47 38 51 7 48 
77 9 84 43 6 49 112 142 115 11 34 
78 9 87 117 42 32 115 56 43 124 6 
79 5 123 128 73 93 27 
80 9 59 58 105 64 94 3 30 127 95 
81 7 57 61 54 100 10 30 169 
82 9 132 83 16 104 63 133 36 12 119 
83 9 63 119 82 132 16 114 36 137 133 
84 9 77 6 49 43 112 142 115 34 11 
85 6 186 163 174 19 145 193 
86 9 24 55 62 41 17 142 29 130 112 
87 9 117 32 78 115 42 43 6 56 77 
88 9 38 76 8 69 108 111 37 91 47 
89 9 18 38 88 8 48 69 108 76 111 
90 9 118 25 103 151 178 191 183 154 19 
91 9 37 111 51 38 68 88 76 8 47 
92 9 45 31 12 56 11 124 98 104 136 
93 6 39 75 151 126 90 118 
94 9 129 58 116 80 2 59 100 125 64 
95 9 3 127 105 59 46 109 80 5 64 
96 9 70 52 116 2 129 125 94 100 60 
97 9 60 4 130 99 125 62 58 116 94 
98 9 11 23 136 31 34 131 56 44 92 
99 9 130 4 97 58 59 60 62 80 95 
100 8 57 2 81 64 30 94 61 129 
101 3 121 182 35 
102 9 20 120 187 110 109 46 21 148 173 
103 9 25 178 191 183 118 90 154 19 174 
104 9 124 12 45 82 92 56 42 31 133 
105 9 127 3 59 64 5 30 134 80 95 
106 8 140 139 53 136 40 44 131 71 
107 6 72 167 168 185 171 22 
108 9 69 8 48 76 47 88 26 15 7 
109 9 46 173 179 102 20 120 127 3 95 
110 9 187 148 120 102 159 20 21 9 181 
111 9 37 91 38 88 51 76 68 8 69 
112 9 49 142 84 77 6 34 43 41 23 
113 9 9 150 148 177 122 135 28 147 120 
114 9 137 36 119 63 16 132 138 83 141 
115 9 117 43 87 78 56 32 77 6 11 
116 9 129 125 94 58 70 60 2 80 97 
117 9 87 32 78 115 42 43 6 56 77 
118 9 90 25 103 178 191 183 151 154 19 
119 9 63 114 137 36 16 132 83 68 138 
120 9 102 20 110 148 187 9 109 173 179 
121 5 101 35 182 150 113 
122 9 28 147 135 146 50 177 67 143 166 
123 7 79 128 73 27 7 26 47 
124 9 45 104 12 92 56 31 42 11 78 
125 9 116 60 129 97 94 58 70 4 99 
126 9 75 65 39 74 151 93 90 118 25 
127 9 3 95 105 59 46 109 5 64 134 
128 9 123 79 73 7 26 27 47 15 108 
129 9 116 94 2 125 58 80 100 70 59 
130 9 4 99 97 62 60 24 58 86 59 
131 9 23 44 34 136 98 40 106 29 53 
132 9 16 36 63 133 114 119 138 82 83 
133 6 138 16 132 36 12 82 
134 9 5 30 64 10 54 105 21 20 127 
135 7 147 28 122 67 166 50 146 
136 9 131 106 98 23 44 140 34 53 139 
137 9 114 119 36 63 16 141 68 132 27 
138 5 133 16 36 132 114 
139 9 53 106 40 140 71 44 136 131 33 
140 6 106 139 53 136 182 40 
141 6 27 73 137 138 114 36 
142 9 112 49 84 77 55 41 6 34 43 
143 4 50 146 28 147 
144 5 157 66 184 14 164 
145 5 163 193 19 85 154 
146 6 50 143 28 147 122 177 
147 8 28 135 122 50 67 146 143 166 
148 9 110 9 120 113 187 150 159 102 177 
149 4 161 170 152 22 
150 9 113 9 148 120 35 122 177 121 110 
151 9 39 90 118 75 25 103 178 191 126 
152 8 22 170 161 149 185 72 168 175 
153 3 190 155 13 
154 9 183 193 19 103 178 25 191 145 163 
155 8 13 190 176 167 160 153 171 172 
156 3 180 14 164 
157 6 66 144 14 164 184 162 
158 7 162 164 188 14 156 157 180 
159 6 181 110 148 187 177 21 
160 6 172 171 176 13 155 190 
161 4 149 170 152 22 
162 6 158 164 188 14 157 66 
163 6 145 193 19 85 186 154 
164 8 14 162 158 157 66 144 156 188 
165 5 186 174 85 19 191 
166 4 67 147 135 28 
167 9 107 72 185 155 171 168 13 160 22 
168 7 72 185 107 22 152 192 167 
169 7 181 54 10 21 61 159 187 
170 5 161 152 149 22 175 
171 7 160 172 167 155 13 107 176 
172 5 160 176 13 171 155 
173 9 179 109 46 71 120 102 20 148 150 
174 9 19 186 191 85 178 103 163 165 25 
175 6 189 192 152 22 170 168 
176 6 13 172 190 160 155 153 
177 8 146 122 50 28 147 113 143 159 
178 9 191 103 25 183 19 118 174 154 90 
179 9 173 109 46 71 120 102 20 35 150 
180 2 156 14 
181 5 169 159 21 110 187 
182 6 35 121 101 71 139 140 
183 9 154 103 178 25 191 19 193 118 90 
184 4 144 66 157 14 
185 9 72 168 22 152 167 107 170 161 149 
186 6 85 174 165 19 163 145 
187 9 110 102 21 20 120 148 159 10 181 
188 4 158 162 164 14 
189 5 175 192 152 22 168 
190 4 153 13 155 176 
191 9 178 103 25 174 183 19 118 90 154 
192 4 189 175 168 22 
193 6 145 163 19 154 183 85 
DEPOT_SECTION
   1
   -1
EOF
