NAME :  X-n367-kX-w36-c9.cctp
COMMENT : 	Adapted by Maziero, Usberti and Cavellucci from the Uchoa, Pecin, Pessoa, Poggi, Subramanian, and Vidal (2013)
TYPE :  CCTP
DIMENSION :    245
EDGE_WEIGHT_TYPE : 	EUC_2D	
CAPACITY : 	218
VERTICES_WITHIN_COVERAGE :  9
VERTICES_WITH_DEMAND : 	36
NODE_COORD_SECTION
1 927 318
2 319 475
3 471 281
4 894 615
5 712 832
6 728 813
7 360 217
8 446 264
9 952 650
10 558 224
11 460 397
12 464 342
13 733 921
14 324 316
15 333 497
16 826 821
17 257 385
18 385 244
19 523 249
20 559 370
21 665 866
22 310 583
23 744 792
24 428 638
25 759 804
26 359 515
27 392 213
28 583 380
29 786 400
30 516 833
31 823 692
32 480 330
33 870 690
34 311 76
35 157 434
36 340 558
37 499 905
38 893 667
39 328 499
40 712 744
41 463 266
42 275 564
43 456 323
44 748 727
45 462 420
46 859 662
47 308 399
48 427 246
49 279 414
50 543 841
51 243 333
52 347 509
53 460 593
54 732 115
55 234 661
56 808 720
57 423 216
58 144 390
59 380 488
60 478 333
61 465 310
62 666 858
63 334 369
64 708 815
65 472 326
66 481 449
67 559 265
68 786 646
69 503 255
70 406 226
71 931 648
72 281 315
73 954 665
74 443 295
75 497 359
76 311 468
77 901 603
78 801 847
79 257 131
80 346 637
81 604 305
82 277 345
83 428 257
84 405 530
85 892 802
86 341 663
87 539 861
88 359 298
89 867 658
90 677 832
91 340 456
92 322 444
93 316 483
94 886 768
95 505 255
96 554 806
97 309 502
98 953 659
99 946 627
100 498 334
101 811 691
102 186 347
103 348 474
104 487 362
105 507 409
106 368 319
107 810 928
108 572 844
109 445 255
110 412 244
111 815 948
112 328 509
113 665 841
114 730 846
115 786 719
116 371 276
117 448 298
118 510 236
119 573 230
120 909 630
121 944 623
122 440 448
123 411 551
124 523 195
125 730 809
126 498 349
127 244 370
128 365 509
129 758 838
130 323 519
131 378 315
132 986 718
133 419 216
134 340 467
135 487 341
136 798 633
137 432 178
138 538 215
139 897 626
140 999 652
141 842 770
142 504 345
143 742 857
144 602 875
145 524 367
146 482 274
147 344 184
148 924 690
149 794 662
150 258 663
151 575 132
152 522 291
153 650 261
154 443 292
155 631 960
156 950 648
157 510 223
158 322 521
159 806 829
160 243 269
161 527 416
162 535 411
163 618 292
164 504 296
165 574 897
166 368 600
167 418 381
168 841 801
169 593 974
170 501 249
171 896 647
172 819 806
173 311 561
174 363 98
175 849 471
176 961 626
177 705 795
178 948 634
179 283 493
180 865 664
181 223 459
182 307 497
183 363 509
184 636 386
185 703 883
186 782 900
187 436 192
188 398 512
189 449 668
190 253 148
191 722 761
192 415 416
193 234 81
194 926 677
195 946 631
196 962 364
197 886 613
198 794 839
199 137 499
200 594 954
201 497 399
202 521 273
203 793 806
204 461 276
205 912 910
206 457 265
207 325 456
208 312 305
209 991 645
210 672 935
211 227 328
212 316 455
213 406 223
214 692 448
215 534 348
216 323 492
217 405 715
218 331 451
219 900 608
220 497 320
221 289 412
222 466 263
223 748 888
224 352 624
225 208 455
226 922 673
227 80 531
228 826 819
229 691 935
230 331 340
231 405 263
232 770 429
233 448 274
234 728 801
235 356 248
236 531 283
237 885 599
238 688 856
239 448 393
240 298 550
241 564 286
242 762 732
243 437 272
244 301 337
245 718 866
DEMAND_SECTION
2 67
3 87
4 73
5 59
6 88
7 58
8 53
9 53
10 97
11 59
12 52
13 83
14 88
15 83
16 95
17 95
18 93
19 63
20 50
21 94
22 56
23 57
24 69
25 68
26 3
27 3
28 1
29 3
30 2
31 1
32 4
33 10
34 6
35 9
36 1
37 3
COVERAGE_SECTION
2 9 93 76 216 207 212 134 182 15 39 
3 9 204 146 41 222 206 233 117 8 61 
4 6 197 219 139 77 237 120 
5 8 64 114 6 125 238 90 234 245 
6 9 125 234 64 5 23 177 25 114 129 
7 9 235 27 18 147 213 70 110 133 116 
8 9 109 233 206 243 41 83 204 222 48 
9 9 156 98 73 178 195 71 99 176 121 
10 9 119 138 67 19 124 157 118 95 202 
11 9 239 45 201 104 167 105 192 75 12 
12 9 60 65 32 43 135 104 61 100 126 
13 7 223 229 185 186 245 210 143 
14 9 208 230 244 88 72 106 63 131 82 
15 9 39 216 112 52 93 130 97 2 158 
16 8 228 172 159 168 78 203 198 141 
17 8 127 49 221 82 47 51 211 244 
18 9 110 70 231 235 213 27 116 7 48 
19 9 118 95 69 170 202 157 236 138 67 
20 8 28 215 145 162 161 142 75 105 
21 6 62 113 238 90 185 245 
22 7 173 240 36 42 224 166 158 
23 9 234 25 125 6 191 177 64 129 5 
24 9 189 53 166 224 217 80 123 86 84 
25 9 23 125 234 6 129 203 198 114 64 
26 8 183 128 52 15 112 59 39 130 
27 8 213 70 133 57 7 18 110 48 
28 8 20 184 162 215 145 161 81 105 
29 4 232 175 214 184 
30 7 50 87 96 108 37 165 144 
31 9 101 56 149 115 33 46 180 89 68 
32 9 60 65 135 100 12 220 43 61 126 
33 7 180 46 89 38 31 171 148 
34 8 174 79 193 190 147 7 137 27 
35 7 58 225 199 181 102 127 17 
36 9 173 22 158 130 240 26 52 112 166 
37 9 87 30 165 50 108 144 200 96 169 
38 6 171 89 180 226 33 46 
39 9 15 216 112 97 93 52 130 182 158 
40 5 191 44 177 242 23 
41 9 222 206 204 3 8 233 109 146 243 
42 3 240 173 22 
43 9 61 65 12 60 32 117 74 154 135 
44 6 242 115 40 191 56 23 
45 7 11 239 66 122 201 105 192 
46 5 180 89 33 38 171 
47 6 221 49 63 92 17 212 
48 9 83 110 109 8 231 243 70 57 133 
49 5 221 47 17 92 212 
50 7 87 30 108 96 165 144 37 
51 9 211 82 127 72 17 244 102 160 208 
52 9 26 183 15 128 112 39 130 158 216 
53 5 24 123 189 84 166 
54 6 151 153 119 10 163 138 
55 5 150 42 86 22 80 
56 8 115 101 31 242 44 141 149 33 
57 8 133 213 70 187 48 110 27 137 
58 9 35 102 225 127 211 181 199 17 51 
59 4 128 183 188 26 
60 9 32 65 135 12 100 220 43 61 126 
61 9 43 65 117 32 60 74 154 3 12 
62 5 21 113 238 90 185 
63 7 230 47 244 14 106 82 221 
64 8 5 6 177 125 234 90 114 23 
65 9 32 60 43 61 12 135 220 100 126 
66 5 45 122 105 201 11 
67 8 241 236 119 19 202 10 152 138 
68 4 136 149 101 31 
69 8 95 170 118 19 202 146 157 222 
70 8 213 133 27 110 57 18 48 231 
71 8 156 9 178 195 98 99 226 120 
72 9 82 244 208 51 14 211 230 160 127 
73 9 98 9 156 71 194 178 226 195 99 
74 9 154 117 233 243 204 61 3 8 43 
75 8 104 126 142 135 100 145 60 32 
76 9 2 212 93 207 92 218 216 134 182 
77 6 219 4 237 197 139 120 
78 6 198 159 16 228 203 129 
79 9 190 193 34 147 174 7 160 235 27 
80 9 224 86 166 22 36 24 173 150 217 
81 8 163 241 67 153 236 28 20 119 
82 9 244 72 51 127 17 208 211 230 14 
83 9 48 109 243 8 110 231 233 206 41 
84 5 188 123 128 183 26 
85 7 94 168 141 228 16 172 159 
86 9 80 224 166 217 150 22 24 36 173 
87 7 50 30 108 165 96 37 144 
88 9 106 116 131 14 208 230 235 231 18 
89 5 180 46 38 171 33 
90 6 113 238 62 5 64 21 
91 8 218 134 207 103 92 212 2 76 
92 7 218 207 212 91 76 134 2 
93 9 2 216 76 182 39 97 15 207 212 
94 7 85 141 168 172 228 16 33 
95 8 69 170 19 118 202 146 157 236 
96 5 50 108 30 87 144 
97 9 182 216 39 93 112 130 158 15 179 
98 9 73 9 156 71 178 195 194 99 176 
99 8 121 195 178 176 156 9 71 98 
100 8 135 142 220 126 32 60 75 65 
101 8 31 56 149 115 68 46 33 136 
102 9 211 51 58 127 17 82 35 160 72 
103 6 134 91 15 2 207 218 
104 8 75 126 135 142 12 60 100 32 
105 9 201 161 162 145 45 66 11 75 104 
106 9 131 88 116 230 14 208 63 231 244 
107 5 111 186 223 13 78 
108 6 50 87 96 144 165 30 
109 9 8 206 83 233 243 48 41 222 204 
110 9 48 70 231 83 213 18 133 57 109 
111 5 107 186 13 223 78 
112 9 39 130 15 158 216 52 97 182 93 
113 4 90 62 21 238 
114 7 143 5 245 129 6 125 64 
115 7 56 242 101 44 31 149 68 
116 9 88 235 18 231 131 106 110 7 83 
117 9 74 154 61 233 43 204 243 3 8 
118 7 157 170 19 69 95 138 202 
119 9 10 67 138 19 241 124 118 157 202 
120 7 139 4 171 219 71 77 197 
121 7 99 195 178 176 156 9 71 
122 5 45 66 192 11 239 
123 4 84 188 128 26 
124 5 138 157 118 10 19 
125 9 6 234 23 64 5 25 177 114 129 
126 8 142 75 135 100 104 32 60 220 
127 9 17 51 82 211 49 102 221 72 244 
128 6 183 26 52 59 188 15 
129 6 143 114 25 198 6 125 
130 8 158 112 39 97 15 52 182 216 
131 9 106 88 116 230 14 231 208 74 154 
132 7 73 140 98 148 194 209 9 
133 8 57 213 70 27 110 187 48 137 
134 7 91 103 218 207 2 212 76 
135 8 60 32 100 126 142 65 75 104 
136 4 68 149 101 31 
137 6 187 57 133 213 27 70 
138 8 10 124 157 118 19 119 170 95 
139 6 4 120 197 219 171 77 
140 8 209 176 9 73 98 156 178 195 
141 9 168 172 94 228 16 85 56 203 159 
142 8 126 100 75 135 104 220 32 60 
143 5 114 129 245 223 5 
144 6 165 108 21 87 62 50 
145 8 215 75 142 126 20 104 100 201 
146 9 3 222 41 204 206 69 95 164 170 
147 9 7 27 235 18 213 70 133 57 137 
148 8 194 226 38 73 98 71 9 156 
149 5 68 136 101 31 115 
150 7 55 86 80 22 42 224 173 
151 4 124 138 10 119 
152 8 236 202 164 220 95 69 19 241 
153 7 163 81 119 241 67 10 138 
154 9 74 117 233 243 204 8 61 3 206 
155 9 200 169 210 229 165 144 21 185 62 
156 9 9 98 178 73 195 71 99 176 121 
157 7 118 170 19 138 124 95 69 
158 8 130 112 39 97 15 52 182 216 
159 7 198 78 16 228 172 203 168 
160 9 72 211 51 208 82 244 14 102 127 
161 8 162 105 201 145 20 66 75 45 
162 9 161 105 201 145 20 28 215 75 66 
163 7 81 153 241 67 119 236 10 
164 9 152 220 202 236 146 3 100 61 69 
165 9 144 87 108 200 50 37 169 155 30 
166 9 224 80 36 22 123 86 173 24 84 
167 7 239 192 11 45 12 43 122 
168 9 172 228 16 141 159 203 85 94 198 
169 9 200 155 165 210 144 229 37 87 21 
170 8 69 95 118 19 157 146 202 222 
171 6 38 120 139 89 4 71 
172 9 228 16 168 159 203 198 141 78 25 
173 7 240 22 36 42 158 130 112 
174 7 34 147 137 79 7 27 187 
175 2 232 29 
176 7 99 178 195 121 156 9 98 
177 7 64 234 6 125 5 191 23 
178 9 195 99 121 156 176 9 71 98 73 
179 5 182 97 93 76 2 
180 5 46 89 33 38 171 
181 3 225 179 35 
182 9 97 93 216 39 112 179 2 15 130 
183 7 128 26 52 59 15 112 188 
184 9 28 20 214 81 163 162 215 161 145 
185 9 245 238 21 62 223 114 143 13 5 
186 4 223 107 13 78 
187 6 137 57 133 213 70 27 
188 5 84 59 128 183 26 
189 8 24 217 53 166 224 80 86 123 
190 9 79 193 34 147 160 174 7 235 27 
191 7 40 23 177 234 44 125 242 
192 5 167 239 122 45 11 
193 9 79 190 34 174 147 7 160 27 235 
194 8 226 148 71 73 98 38 9 156 
195 8 99 178 121 176 156 9 71 98 
196 2 175 29 
197 5 4 237 219 139 77 
198 6 78 159 203 129 16 228 
199 5 227 35 225 181 58 
200 9 169 155 165 144 210 229 37 87 108 
201 9 105 161 11 104 75 162 45 145 239 
202 9 236 152 19 95 69 164 170 67 118 
203 9 159 172 198 25 228 16 78 129 168 
204 9 41 3 206 233 222 8 146 154 243 
205 8 107 111 85 16 228 78 168 186 
206 9 41 222 8 204 233 109 3 243 146 
207 7 218 212 92 91 76 134 2 
208 9 14 72 244 230 88 82 106 116 131 
209 8 140 176 9 98 156 73 178 195 
210 9 229 155 185 13 21 62 200 238 245 
211 9 51 102 127 82 72 160 17 244 208 
212 8 207 92 76 218 2 91 134 93 
213 8 70 133 27 57 110 18 48 83 
214 7 232 184 29 28 20 175 162 
215 8 145 142 20 126 75 100 220 135 
216 9 39 15 93 2 97 182 112 76 130 
217 9 189 24 86 80 224 166 53 150 30 
218 7 207 91 92 212 134 76 2 
219 6 77 4 197 237 139 120 
220 8 100 32 60 135 164 65 142 126 
221 5 49 47 17 92 212 
222 8 41 206 204 3 146 8 233 109 
223 5 143 13 186 245 185 
224 9 80 166 86 22 36 173 24 240 123 
225 3 181 35 49 
226 8 194 148 71 38 73 98 171 9 
227 5 199 35 225 58 181 
228 8 16 172 159 168 203 78 198 141 
229 9 210 13 185 155 21 223 245 238 62 
230 9 14 63 244 208 106 88 131 82 72 
231 9 110 83 18 48 243 116 70 213 8 
232 4 29 214 175 184 
233 9 8 243 204 206 41 109 154 222 74 
234 9 125 6 23 64 177 25 5 191 114 
235 9 18 7 116 27 88 231 70 110 213 
236 8 152 202 164 67 241 19 95 69 
237 4 197 77 219 4 
238 8 62 21 90 113 185 245 5 114 
239 9 11 45 167 192 201 104 12 122 75 
240 7 173 42 22 158 130 36 97 
241 8 67 236 152 81 202 163 19 119 
242 7 44 115 56 191 40 23 101 
243 9 233 8 83 109 154 206 74 204 41 
244 9 82 72 230 14 208 63 51 47 17 
245 7 114 185 143 238 5 223 129 
DEPOT_SECTION
   1
   -1
EOF
