NAME :  X-n308-kX-w30-c9.cctp
COMMENT : 	Adapted by Maziero, Usberti and Cavellucci from the Uchoa, Pecin, Pessoa, Poggi, Subramanian, and Vidal (2013)
TYPE :  CCTP
DIMENSION :    195
EDGE_WEIGHT_TYPE : 	EUC_2D	
CAPACITY : 	246
VERTICES_WITHIN_COVERAGE :  9
VERTICES_WITH_DEMAND : 	30
NODE_COORD_SECTION
1 0 0
2 706 137
3 392 662
4 692 274
5 944 370
6 726 945
7 869 43
8 621 770
9 112 402
10 523 374
11 619 178
12 553 457
13 95 814
14 696 130
15 27 417
16 940 487
17 943 965
18 670 435
19 931 752
20 307 776
21 404 101
22 199 526
23 117 312
24 762 505
25 433 864
26 868 155
27 832 870
28 488 624
29 686 782
30 585 89
31 268 339
32 248 344
33 22 776
34 89 614
35 75 271
36 882 646
37 449 27
38 857 362
39 809 774
40 403 626
41 559 145
42 667 945
43 524 737
44 683 777
45 641 798
46 514 495
47 102 813
48 517 591
49 748 330
50 859 127
51 699 41
52 281 442
53 41 732
54 555 95
55 378 1
56 155 308
57 942 955
58 619 205
59 646 910
60 796 791
61 785 49
62 958 817
63 761 866
64 404 417
65 929 432
66 743 535
67 418 679
68 107 379
69 22 432
70 24 474
71 380 83
72 576 209
73 877 859
74 901 0
75 464 473
76 976 331
77 193 341
78 525 782
79 527 935
80 218 529
81 626 974
82 594 432
83 757 450
84 805 123
85 959 266
86 348 776
87 409 946
88 841 361
89 333 503
90 675 306
91 407 811
92 856 199
93 300 792
94 371 156
95 172 589
96 609 928
97 379 694
98 996 38
99 738 18
100 693 307
101 989 54
102 468 585
103 594 172
104 563 205
105 271 783
106 58 987
107 374 383
108 775 530
109 913 512
110 813 948
111 943 941
112 437 169
113 247 374
114 347 51
115 854 335
116 619 272
117 742 232
118 605 66
119 973 75
120 241 509
121 845 106
122 955 319
123 432 662
124 704 73
125 418 205
126 817 754
127 570 429
128 362 720
129 114 713
130 11 516
131 737 62
132 386 880
133 493 321
134 655 303
135 633 506
136 522 325
137 541 547
138 89 325
139 76 414
140 378 958
141 340 718
142 682 361
143 293 801
144 249 336
145 232 799
146 102 526
147 664 361
148 656 366
149 537 434
150 330 105
151 621 753
152 401 923
153 159 253
154 552 382
155 623 781
156 107 370
157 841 468
158 221 773
159 79 461
160 186 665
161 165 871
162 349 329
163 559 430
164 387 3
165 149 266
166 100 768
167 567 435
168 110 270
169 304 770
170 739 876
171 481 97
172 289 287
173 413 724
174 362 952
175 300 735
176 734 562
177 259 344
178 159 450
179 373 44
180 483 678
181 704 755
182 30 414
183 385 930
184 683 188
185 3 371
186 577 482
187 524 915
188 856 763
189 365 753
190 614 173
191 554 665
192 629 776
193 339 342
194 67 412
195 154 267
DEMAND_SECTION
2 80
3 94
4 87
5 77
6 77
7 50
8 79
9 86
10 75
11 84
12 88
13 94
14 74
15 95
16 89
17 83
18 55
19 77
20 1
21 7
22 3
23 7
24 5
25 2
26 2
27 2
28 5
29 2
30 7
31 1
COVERAGE_SECTION
2 9 14 184 124 131 11 51 190 84 117 
3 9 67 97 40 123 128 173 141 180 189 
4 9 100 90 134 117 116 49 184 142 147 
5 9 76 122 65 38 115 88 85 16 157 
6 9 42 170 63 59 110 81 96 27 29 
7 9 74 121 61 50 84 119 26 101 98 
8 9 192 155 151 45 44 29 181 78 43 
9 8 68 156 139 194 178 159 138 182 
10 7 154 136 133 149 163 127 167 
11 9 190 103 58 72 104 184 41 14 116 
12 8 167 149 163 127 186 82 46 154 
13 8 47 166 33 161 53 129 158 145 
14 9 2 124 184 131 51 11 190 58 84 
15 7 182 69 194 139 185 70 159 
16 9 109 65 157 5 38 76 88 36 122 
17 9 57 111 73 110 27 62 63 19 6 
18 7 148 147 142 82 135 83 127 
19 8 62 188 126 36 73 39 60 27 
20 6 169 93 143 105 86 175 
21 9 71 94 179 150 112 114 171 37 164 
22 9 80 120 95 178 146 52 89 159 160 
23 7 138 56 168 165 195 35 156 
24 7 108 66 83 176 157 18 135 
25 5 132 91 152 183 87 
26 9 50 92 121 84 7 119 61 85 117 
27 9 73 63 110 60 170 39 188 126 6 
28 9 48 102 180 123 191 40 67 137 3 
29 9 44 181 45 192 155 8 151 170 60 
30 9 118 54 41 103 190 11 171 14 104 
31 8 177 144 32 113 172 193 77 162 
32 8 144 177 31 113 77 172 193 56 
33 7 53 166 13 47 129 161 34 
34 7 95 146 129 160 130 53 22 
35 3 168 138 23 
36 4 19 188 126 109 
37 9 164 55 171 179 21 71 114 54 150 
38 9 88 115 5 65 122 157 49 76 83 
39 8 60 126 188 27 63 181 73 29 
40 9 3 123 67 97 102 28 180 173 128 
41 8 103 54 104 30 190 72 11 58 
42 9 59 81 6 96 170 63 79 110 187 
43 8 78 180 191 151 8 155 173 192 
44 9 29 181 45 192 155 8 151 60 170 
45 9 155 192 8 44 29 151 181 59 78 
46 9 12 75 137 186 149 163 167 127 48 
47 8 13 166 161 33 53 129 158 145 
48 9 28 102 137 191 180 46 123 40 186 
49 9 100 142 90 4 147 134 88 117 148 
50 9 121 26 84 92 7 61 119 74 131 
51 9 124 131 99 61 14 2 118 30 84 
52 9 113 120 89 177 32 31 80 107 144 
53 7 33 166 129 13 47 34 160 
54 8 30 41 118 171 103 190 11 104 
55 7 164 179 114 37 71 21 150 
56 8 23 195 165 77 153 168 138 156 
57 9 17 111 73 110 27 62 63 19 188 
58 8 11 190 103 72 104 184 116 41 
59 9 42 96 81 6 170 45 79 187 63 
60 8 39 126 188 63 27 181 170 73 
61 9 131 99 84 121 7 124 51 50 2 
62 9 19 73 188 111 27 57 17 126 39 
63 9 170 27 60 6 110 39 29 73 44 
64 7 107 75 193 162 89 52 10 
65 9 16 5 109 157 38 76 88 122 115 
66 4 176 108 24 83 
67 8 123 3 97 173 40 180 128 141 
68 6 156 9 139 194 138 23 
69 8 15 182 70 194 139 159 185 130 
70 9 69 130 15 159 182 194 139 146 185 
71 9 21 179 114 150 94 164 55 37 171 
72 7 104 103 58 190 11 41 116 
73 9 27 62 188 111 60 39 110 57 63 
74 9 7 98 101 119 121 61 50 84 26 
75 9 46 64 149 12 163 137 167 102 186 
76 9 122 5 85 65 115 38 88 16 92 
77 9 56 32 144 113 177 31 23 195 165 
78 7 43 8 155 151 192 180 45 
79 8 187 96 81 25 87 59 152 42 
80 9 22 120 95 178 52 146 89 160 34 
81 9 96 42 59 6 79 187 170 63 45 
82 7 127 167 163 12 186 149 154 
83 9 24 108 66 157 18 176 142 49 88 
84 9 121 50 26 61 131 92 2 7 14 
85 9 122 76 5 92 115 38 26 88 65 
86 3 189 20 169 
87 6 152 183 140 174 132 25 
88 9 38 115 49 5 157 65 122 83 76 
89 9 52 120 64 80 107 75 22 40 113 
90 8 100 134 4 142 147 148 116 49 
91 1 25 
92 9 26 50 84 121 117 85 115 122 7 
93 6 143 20 169 105 86 175 
94 5 21 150 112 125 71 
95 8 22 80 160 34 146 120 129 178 
96 9 59 81 42 79 187 6 45 170 155 
97 9 128 3 67 173 141 189 123 40 86 
98 9 101 119 74 7 50 121 26 84 61 
99 9 131 51 61 124 14 2 84 7 121 
100 8 90 4 134 142 49 147 148 116 
101 9 98 119 74 7 50 121 26 84 92 
102 9 28 48 40 137 123 180 46 67 3 
103 9 190 11 58 72 41 104 30 54 184 
104 6 72 103 58 41 190 11 
105 8 143 93 169 20 145 158 175 86 
106 5 161 13 47 33 166 
107 7 64 193 162 52 31 177 75 
108 5 24 66 176 83 157 
109 9 16 65 157 36 108 5 24 38 88 
110 9 27 6 63 170 73 57 111 17 42 
111 9 57 17 73 62 110 27 19 63 188 
112 4 125 94 21 171 
113 9 32 177 144 31 77 52 172 193 162 
114 6 179 71 150 55 164 21 
115 9 38 88 5 122 49 76 65 85 157 
116 5 134 90 58 4 72 
117 9 4 184 100 49 90 2 14 134 92 
118 9 30 54 41 51 124 103 190 14 11 
119 9 101 98 74 7 50 26 121 92 84 
120 9 80 22 52 89 178 95 113 146 32 
121 9 50 84 26 7 61 92 131 74 119 
122 9 76 5 85 115 38 65 88 92 16 
123 9 67 3 40 180 97 173 28 102 128 
124 9 51 131 14 2 99 61 118 84 184 
125 3 112 94 21 
126 5 39 188 60 181 19 
127 7 167 163 82 12 149 154 186 
128 8 141 97 189 173 86 175 3 67 
129 7 166 53 160 47 34 13 33 
130 8 70 69 159 146 15 182 194 139 
131 9 124 51 99 61 14 2 84 121 118 
132 4 152 25 183 87 
133 2 136 10 
134 7 90 100 4 116 147 148 142 
135 9 186 18 82 12 167 127 137 163 66 
136 3 133 10 154 
137 9 48 46 186 102 12 28 135 75 149 
138 4 23 156 35 68 
139 8 194 9 182 68 159 15 156 69 
140 6 174 183 87 152 132 25 
141 9 128 175 189 97 86 169 20 173 3 
142 7 147 148 90 100 134 49 18 
143 6 93 105 20 169 86 145 
144 8 32 177 31 113 77 172 193 56 
145 6 158 105 143 93 20 169 
146 8 159 34 130 70 95 178 22 139 
147 6 148 142 90 134 100 18 
148 6 147 142 90 134 18 100 
149 9 163 12 167 127 154 82 10 186 46 
150 5 71 114 94 21 179 
151 9 8 192 155 45 44 29 181 43 78 
152 6 183 87 140 132 174 25 
153 5 195 165 168 56 23 
154 7 10 163 127 149 167 136 82 
155 9 192 8 45 151 44 29 181 78 43 
156 6 68 9 138 139 194 23 
157 9 109 83 24 108 65 16 38 88 66 
158 7 145 105 143 93 169 20 175 
159 9 139 194 70 69 9 15 182 146 178 
160 8 95 129 34 158 166 175 22 80 
161 5 47 13 145 158 166 
162 6 193 107 172 31 177 144 
163 7 167 127 149 12 82 154 186 
164 8 55 179 114 37 71 21 150 171 
165 6 195 153 168 56 23 35 
166 8 47 13 129 53 33 158 161 160 
167 7 127 163 12 82 149 186 154 
168 7 35 165 23 195 153 56 138 
169 8 20 93 143 105 175 86 141 189 
170 9 63 6 27 59 42 60 110 29 44 
171 8 54 21 37 112 41 71 30 179 
172 6 31 144 177 32 162 193 
173 7 67 97 128 189 3 123 141 
174 6 140 183 87 152 132 25 
175 9 169 20 141 105 93 86 128 143 189 
176 3 66 108 24 
177 9 31 32 144 113 172 77 193 162 52 
178 9 9 159 22 68 139 146 156 80 194 
179 7 114 71 55 164 21 150 37 
180 9 123 28 67 43 191 173 3 48 102 
181 7 44 29 45 192 151 8 155 
182 7 15 69 194 139 185 70 159 
183 6 152 87 140 174 132 25 
184 9 2 14 11 58 190 117 4 103 116 
185 2 182 15 
186 9 12 167 82 127 163 135 149 46 137 
187 8 79 96 25 81 87 59 152 78 
188 8 126 39 60 19 73 27 62 36 
189 6 86 128 141 173 97 20 
190 9 11 103 58 72 104 41 184 30 14 
191 9 180 28 43 48 151 102 137 78 123 
192 9 155 8 151 45 44 29 181 78 43 
193 6 162 107 31 172 177 144 
194 8 139 182 15 9 69 159 68 156 
195 6 165 153 56 168 23 35 
DEPOT_SECTION
   1
   -1
EOF
