NAME :  X-n393-kX-w156-c11.cctp
COMMENT : 	Adapted by Maziero, Usberti and Cavellucci from the Uchoa, Pecin, Pessoa, Poggi, Subramanian, and Vidal (2013)
TYPE :  CCTP
DIMENSION :    348
EDGE_WEIGHT_TYPE : 	EUC_2D	
CAPACITY : 	78
VERTICES_WITHIN_COVERAGE :  11
VERTICES_WITH_DEMAND : 	156
NODE_COORD_SECTION
1 500 500
2 113 195
3 377 239
4 364 39
5 306 316
6 795 18
7 803 771
8 845 880
9 440 450
10 284 370
11 785 211
12 860 318
13 170 621
14 180 957
15 707 913
16 861 505
17 546 186
18 910 997
19 403 865
20 373 357
21 317 394
22 225 729
23 666 199
24 505 56
25 436 885
26 711 906
27 736 688
28 439 550
29 561 186
30 276 294
31 810 244
32 939 53
33 551 220
34 662 179
35 537 420
36 843 543
37 970 798
38 933 860
39 518 910
40 571 265
41 583 119
42 985 150
43 810 48
44 620 230
45 859 278
46 40 882
47 419 310
48 63 713
49 471 758
50 151 399
51 808 811
52 54 756
53 796 931
54 698 66
55 391 808
56 324 665
57 409 562
58 886 760
59 36 197
60 682 514
61 596 305
62 252 372
63 564 16
64 515 641
65 839 206
66 160 313
67 248 945
68 288 150
69 326 201
70 301 6
71 316 800
72 45 410
73 449 618
74 196 391
75 448 41
76 908 558
77 302 672
78 694 425
79 277 270
80 575 993
81 183 972
82 469 577
83 890 727
84 826 883
85 91 15
86 526 335
87 325 793
88 15 658
89 231 693
90 698 701
91 76 488
92 578 518
93 510 785
94 146 694
95 589 978
96 526 926
97 36 459
98 859 847
99 762 64
100 949 109
101 624 779
102 152 709
103 448 691
104 516 564
105 289 195
106 172 345
107 952 443
108 974 550
109 751 49
110 391 837
111 531 44
112 647 594
113 931 76
114 111 779
115 898 863
116 939 987
117 455 898
118 961 784
119 717 403
120 829 284
121 152 529
122 398 980
123 105 812
124 377 812
125 554 874
126 209 508
127 134 378
128 221 155
129 396 228
130 7 29
131 327 28
132 75 671
133 115 779
134 734 216
135 162 834
136 234 977
137 353 101
138 159 260
139 569 501
140 68 458
141 453 663
142 382 366
143 430 883
144 528 767
145 965 322
146 328 254
147 82 468
148 642 318
149 135 828
150 252 663
151 816 889
152 13 795
153 422 318
154 236 845
155 373 417
156 329 646
157 979 824
158 692 65
159 450 466
160 851 582
161 166 765
162 857 111
163 194 87
164 918 84
165 48 452
166 297 780
167 710 476
168 449 898
169 891 587
170 410 387
171 550 467
172 441 531
173 661 762
174 918 264
175 224 33
176 469 760
177 534 961
178 371 255
179 694 794
180 185 127
181 384 56
182 650 223
183 874 501
184 822 439
185 289 312
186 462 546
187 130 555
188 686 269
189 32 885
190 843 617
191 786 493
192 665 455
193 598 317
194 655 343
195 613 491
196 726 602
197 674 47
198 92 650
199 411 577
200 173 977
201 94 672
202 292 532
203 166 928
204 311 839
205 133 564
206 385 729
207 370 870
208 357 692
209 407 548
210 443 554
211 231 820
212 30 771
213 567 538
214 405 435
215 210 861
216 410 744
217 190 760
218 354 936
219 91 824
220 231 907
221 237 968
222 219 878
223 7 685
224 376 577
225 163 999
226 313 598
227 223 937
228 478 633
229 525 520
230 153 851
231 459 720
232 185 792
233 461 450
234 486 905
235 90 715
236 540 632
237 411 631
238 231 915
239 371 748
240 221 739
241 131 657
242 402 893
243 176 632
244 60 851
245 152 947
246 176 969
247 182 936
248 149 997
249 348 466
250 301 850
251 83 610
252 23 856
253 104 694
254 293 819
255 195 586
256 309 835
257 237 919
258 255 851
259 193 757
260 477 756
261 409 613
262 393 593
263 107 651
264 287 981
265 190 940
266 378 861
267 182 951
268 426 810
269 76 563
270 87 697
271 405 632
272 459 591
273 61 921
274 216 656
275 80 646
276 200 801
277 302 631
278 441 599
279 164 797
280 96 862
281 347 527
282 249 700
283 418 772
284 262 426
285 208 752
286 222 603
287 163 784
288 130 834
289 488 798
290 2 986
291 8 895
292 179 574
293 419 649
294 459 337
295 284 864
296 416 849
297 19 788
298 262 763
299 108 521
300 154 594
301 362 575
302 402 509
303 221 833
304 147 823
305 227 552
306 429 876
307 103 756
308 513 819
309 359 853
310 499 576
311 452 633
312 292 683
313 173 991
314 466 341
315 32 909
316 28 619
317 567 639
318 230 947
319 149 943
320 295 460
321 223 992
322 578 423
323 20 532
324 522 601
325 105 726
326 413 893
327 180 989
328 223 699
329 399 829
330 361 401
331 195 922
332 349 956
333 355 866
334 172 990
335 283 760
336 135 861
337 202 999
338 339 591
339 140 631
340 117 860
341 431 871
342 175 491
343 293 729
344 126 772
345 51 632
346 144 955
347 334 809
348 383 878
DEMAND_SECTION
2 5
3 5
4 7
5 9
6 7
7 8
8 5
9 7
10 8
11 7
12 9
13 9
14 10
15 6
16 7
17 9
18 8
19 7
20 6
21 9
22 5
23 5
24 10
25 6
26 6
27 9
28 6
29 6
30 7
31 9
32 6
33 6
34 9
35 5
36 7
37 5
38 8
39 8
40 6
41 5
42 9
43 7
44 10
45 9
46 7
47 10
48 9
49 7
50 9
51 9
52 8
53 8
54 9
55 5
56 8
57 8
58 6
59 9
60 10
61 9
62 10
63 7
64 7
65 7
66 10
67 9
68 8
69 6
70 5
71 5
72 6
73 8
74 5
75 7
76 6
77 9
78 9
79 6
80 9
81 9
82 10
83 10
84 10
85 6
86 5
87 10
88 7
89 10
90 10
91 6
92 6
93 10
94 7
95 7
96 5
97 5
98 7
99 5
100 10
101 6
102 10
103 8
104 8
105 7
106 5
107 8
108 7
109 6
110 6
111 7
112 5
113 8
114 7
115 9
116 7
117 5
118 7
119 10
120 8
121 6
122 6
123 7
124 10
125 6
126 5
127 5
128 8
129 7
130 8
131 5
132 6
133 8
134 7
135 8
136 8
137 8
138 7
139 9
140 8
141 7
142 10
143 6
144 5
145 10
146 6
147 6
148 10
149 5
150 5
151 9
152 9
153 6
154 10
155 7
156 9
157 9
COVERAGE_SECTION
2 11 59 138 180 128 66 163 106 105 79 68 85 
3 11 178 129 146 69 47 153 105 5 79 185 30 
4 11 181 131 137 70 75 68 175 24 69 111 105 
5 11 185 30 79 10 146 62 20 21 178 142 330 
6 11 43 109 99 54 162 158 197 164 32 113 100 
7 11 51 58 98 83 27 179 84 8 151 90 115 
8 11 84 151 98 115 53 51 38 7 58 18 26 
9 11 159 233 214 170 302 155 172 249 330 186 28 
10 11 62 21 5 185 284 30 330 20 74 320 142 
11 11 31 134 65 120 45 188 23 162 34 12 182 
12 11 45 120 174 31 145 65 184 11 107 134 119 
13 11 243 300 339 255 292 241 286 274 205 263 94 
14 11 267 246 81 265 200 247 245 203 327 319 334 
15 11 26 53 151 179 84 95 8 51 80 101 125 
16 11 183 36 76 191 184 160 169 107 190 108 167 
17 11 29 33 41 40 44 182 34 23 61 24 193 
18 11 116 53 8 115 38 84 151 98 157 37 51 
19 11 296 348 266 242 306 341 110 326 143 207 329 
20 11 142 330 170 155 153 47 21 5 214 294 10 
21 11 10 330 155 284 20 62 320 142 249 5 185 
22 11 240 285 328 89 282 259 217 298 335 343 161 
23 11 34 182 44 134 188 29 41 40 33 11 17 
24 11 111 75 63 41 181 17 4 29 137 197 33 
25 11 143 306 341 168 117 326 242 19 296 348 234 
26 11 15 53 151 179 84 8 51 95 173 101 98 
27 11 90 196 173 7 179 190 112 51 101 160 83 
28 11 210 172 186 57 209 199 82 272 278 302 262 
29 11 17 33 41 44 40 182 34 23 61 193 24 
30 11 185 79 5 146 10 62 105 178 69 21 3 
31 11 11 120 65 45 134 12 174 188 162 23 182 
32 11 113 164 100 162 42 43 6 99 65 109 174 
33 11 17 29 40 44 61 182 41 193 23 34 86 
34 11 23 182 44 134 188 41 29 17 33 158 54 
35 11 322 171 233 86 139 159 229 9 195 92 314 
36 11 160 16 183 169 76 190 191 184 108 196 107 
37 11 118 157 38 58 115 83 98 8 51 84 7 
38 11 115 157 37 98 118 8 84 58 151 116 51 
39 11 96 234 125 177 117 168 25 308 143 306 341 
40 11 61 33 193 44 29 17 86 148 182 188 194 
41 11 29 17 111 34 24 63 33 23 197 44 158 
42 11 100 113 164 32 174 162 65 145 45 31 43 
43 11 6 99 109 162 54 164 158 113 32 197 100 
44 11 182 23 40 34 33 29 188 61 17 193 148 
45 11 120 12 31 174 65 11 145 134 184 162 188 
46 8 189 315 252 291 244 273 280 219 
47 11 153 294 314 20 142 178 170 3 129 146 330 
48 11 235 270 52 132 325 253 201 307 223 212 198 
49 11 176 260 231 289 93 283 144 216 268 103 308 
50 11 127 74 106 66 342 147 140 62 72 284 91 
51 11 7 98 84 8 151 58 115 179 83 53 38 
52 11 212 48 297 307 235 152 325 114 133 270 344 
53 11 151 84 8 26 15 98 51 115 18 38 116 
54 11 158 197 109 99 6 43 34 41 23 63 134 
55 11 124 329 110 268 283 296 266 309 347 19 239 
56 11 156 77 312 277 208 226 343 150 338 282 271 
57 11 209 199 28 210 262 224 172 278 301 261 302 
58 11 83 118 7 98 37 51 115 38 157 8 84 
59 11 2 138 180 66 130 85 128 163 106 127 72 
60 11 167 192 195 112 78 196 92 191 139 119 213 
61 11 193 40 148 194 86 44 33 188 182 322 29 
62 11 10 284 74 21 185 5 30 106 320 50 79 
63 11 111 24 41 197 75 158 54 29 17 181 34 
64 11 236 228 324 317 311 141 310 73 272 104 82 
65 11 31 11 45 120 162 174 134 12 164 100 42 
66 11 106 138 127 50 74 62 30 79 2 185 10 
67 10 318 221 227 257 238 136 220 264 321 265 
68 11 105 69 128 137 180 146 163 79 3 131 129 
69 11 105 146 3 68 178 129 79 137 30 128 5 
70 11 131 4 175 181 137 163 68 75 180 128 105 
71 10 87 347 166 254 256 204 250 335 124 298 
72 11 165 97 140 147 91 127 50 323 299 106 66 
73 11 311 278 272 228 237 261 293 141 82 271 199 
74 11 50 106 62 127 284 66 10 342 126 21 320 
75 11 24 181 111 4 137 63 131 70 41 17 29 
76 11 169 160 108 183 36 16 190 107 191 184 83 
77 11 312 56 156 277 150 343 208 282 89 226 328 
78 11 119 192 167 60 194 195 191 322 148 184 193 
79 11 30 185 146 5 105 69 178 10 3 62 138 
80 11 95 177 96 39 125 234 117 15 168 26 25 
81 11 246 200 14 327 267 313 334 265 337 225 247 
82 11 272 310 186 210 278 28 73 104 172 228 199 
83 11 58 118 7 37 51 190 98 157 115 38 169 
84 11 151 8 98 53 51 115 38 7 26 15 58 
85 11 130 163 175 180 2 59 128 70 131 68 138 
86 11 314 294 193 61 40 35 322 153 47 148 33 
87 10 71 347 166 254 256 204 335 124 250 239 
88 10 223 316 345 132 275 48 198 201 270 251 
89 11 328 282 22 150 274 240 312 285 343 77 259 
90 11 27 173 179 196 101 112 7 317 51 190 236 
91 10 147 140 165 299 97 323 269 72 121 187 
92 11 139 213 195 229 171 104 322 310 324 112 60 
93 11 144 289 308 260 49 176 231 268 283 125 216 
94 11 102 241 253 325 201 263 270 235 339 243 198 
95 11 80 177 96 39 125 234 15 26 117 168 308 
96 11 39 177 234 125 117 95 168 80 25 143 308 
97 10 165 140 147 91 72 323 299 269 127 50 
98 11 8 115 84 151 51 38 58 7 53 118 37 
99 11 109 43 6 54 158 197 162 11 34 134 164 
100 11 113 164 42 32 162 65 43 174 6 45 99 
101 11 173 179 144 90 93 125 308 289 27 260 317 
102 11 94 253 325 241 161 235 259 217 270 307 344 
103 11 141 231 293 311 216 228 237 49 260 176 73 
104 11 310 324 229 82 186 213 272 236 210 64 92 
105 11 69 68 146 79 128 3 30 178 129 137 185 
106 11 66 127 74 50 62 138 10 30 284 185 79 
107 11 183 108 16 145 76 184 36 12 169 160 191 
108 11 76 169 107 183 16 160 36 190 184 83 191 
109 11 99 6 54 43 158 197 162 34 11 134 164 
110 11 329 266 296 55 124 19 309 207 348 268 333 
111 11 24 63 75 41 17 197 29 181 158 4 54 
112 11 196 60 317 213 92 195 236 90 139 324 27 
113 11 164 32 100 162 42 43 6 65 99 109 174 
114 11 133 344 307 123 219 287 325 149 279 161 304 
115 11 38 98 8 84 151 157 37 118 51 58 53 
116 11 18 38 115 8 53 84 151 98 157 37 118 
117 11 168 25 143 234 306 341 326 242 19 296 39 
118 11 37 157 58 38 83 115 98 8 51 7 84 
119 11 78 167 192 194 184 148 191 60 195 188 322 
120 11 45 31 12 65 11 174 134 145 188 184 119 
121 11 187 205 342 299 292 126 300 255 305 269 91 
122 6 332 218 242 326 168 117 
123 11 219 288 114 133 149 304 344 340 280 307 336 
124 11 55 329 110 347 309 266 268 296 87 283 207 
125 11 39 96 308 234 177 93 289 117 168 95 144 
126 10 342 305 121 292 255 202 187 205 286 284 
127 11 50 106 74 66 72 140 147 165 62 342 138 
128 11 180 68 163 105 2 69 138 175 79 137 146 
129 11 3 178 146 69 47 153 105 5 79 294 20 
130 11 85 59 163 2 180 175 128 138 70 68 131 
131 11 70 4 181 137 175 75 68 163 128 105 69 
132 11 201 275 198 270 253 263 48 235 345 241 88 
133 11 114 344 307 123 287 219 279 149 161 304 325 
134 11 11 23 188 31 34 182 65 44 120 148 45 
135 7 230 304 149 288 279 336 232 
136 11 221 321 318 67 337 227 81 264 327 265 14 
137 11 181 4 131 68 69 70 75 105 129 3 128 
138 11 66 2 106 79 127 30 128 74 180 59 50 
139 11 92 213 171 195 229 322 104 35 310 192 324 
140 11 147 165 91 97 72 299 323 50 127 269 121 
141 11 103 311 293 228 73 237 231 271 278 64 261 
142 11 20 170 330 155 153 47 21 214 294 314 5 
143 11 25 306 341 326 168 117 242 19 296 348 266 
144 11 93 289 260 308 49 176 231 101 103 125 283 
145 11 174 12 45 107 120 65 42 31 184 183 16 
146 11 178 3 69 79 5 30 185 105 129 47 68 
147 11 140 91 165 97 299 72 323 121 269 342 50 
148 11 194 193 61 188 40 44 182 119 86 78 23 
149 9 288 304 135 230 336 123 340 279 219 
150 11 89 274 282 312 328 77 277 286 22 56 343 
151 11 84 8 53 98 51 115 26 15 7 38 18 
152 11 297 212 52 252 244 219 46 189 123 48 307 
153 11 47 294 314 142 20 170 178 3 129 330 86 
154 11 303 258 211 215 222 295 276 220 254 250 238 
155 11 330 214 170 142 249 20 21 9 320 159 233 
156 11 56 277 77 226 312 208 338 271 301 150 224 
157 11 37 118 38 115 58 98 83 8 84 116 51 
158 11 54 197 109 99 6 34 43 41 23 63 134 
159 11 9 233 214 302 172 186 28 210 170 155 229 
160 11 190 36 169 76 16 183 191 108 196 184 83 
161 11 287 217 259 279 232 344 285 276 133 114 102 
162 11 164 43 113 100 65 32 99 6 11 109 42 
163 11 180 175 128 68 85 70 2 105 131 137 69 
164 11 113 32 100 162 42 43 6 65 99 109 174 
165 10 97 140 147 72 91 323 299 127 269 50 
166 11 335 71 87 254 298 347 343 256 204 250 211 
167 11 60 192 78 119 191 195 184 196 112 92 322 
168 11 117 25 143 306 341 326 234 242 19 296 348 
169 11 76 160 190 36 16 183 108 83 191 107 184 
170 11 142 20 155 214 330 9 153 294 314 47 233 
171 11 139 35 322 92 229 195 213 233 159 104 9 
172 11 28 210 186 209 57 302 82 199 272 159 278 
173 11 101 179 90 27 144 7 26 93 51 125 317 
174 11 45 145 12 120 65 31 42 11 100 162 164 
175 11 163 70 180 131 128 68 85 4 137 181 105 
176 11 49 260 231 289 93 283 144 216 268 103 308 
177 11 96 80 39 95 234 125 117 168 25 143 306 
178 11 3 129 146 69 47 153 5 79 185 20 105 
179 11 173 101 90 7 26 27 51 15 151 84 125 
180 11 163 128 2 175 68 105 138 85 69 59 70 
181 11 4 137 131 75 70 24 68 111 69 175 105 
182 11 23 44 34 188 134 40 148 29 61 33 193 
183 11 16 36 76 184 160 169 191 107 108 190 167 
184 11 191 16 183 36 119 167 12 78 107 160 76 
185 11 5 30 79 10 62 146 21 20 178 142 3 
186 11 210 28 172 82 272 310 57 209 104 278 199 
187 9 205 121 299 300 292 269 251 255 13 
188 11 182 148 134 23 44 194 34 61 193 11 40 
189 8 46 315 291 252 244 273 280 219 
190 11 160 169 36 76 16 196 83 183 27 191 108 
191 11 184 16 36 167 183 60 160 119 78 196 192 
192 11 78 167 60 195 119 322 139 92 194 171 191 
193 11 61 148 40 194 86 44 188 182 33 322 35 
194 11 148 193 61 188 119 78 322 192 40 44 182 
195 11 92 139 192 213 171 60 322 229 167 35 78 
196 11 112 27 60 90 190 191 160 167 36 195 192 
197 11 158 54 109 99 63 41 6 34 43 111 23 
198 11 275 263 201 132 241 251 345 253 270 339 235 
199 11 57 262 209 224 261 278 28 210 301 272 237 
200 10 246 81 334 313 327 14 225 267 248 337 
201 11 132 198 253 263 270 275 241 235 48 325 94 
202 9 281 305 226 320 338 301 126 249 224 
203 7 247 319 245 265 267 331 14 
204 9 256 250 254 295 347 71 87 309 333 
205 10 187 300 121 292 299 269 255 339 13 251 
206 11 239 216 208 283 103 231 55 124 293 56 87 
207 7 266 348 333 309 19 110 242 
208 11 56 206 156 239 77 312 216 343 293 271 237 
209 11 57 199 28 210 172 302 224 262 301 186 278 
210 11 28 186 172 57 82 209 199 272 278 310 302 
211 11 303 154 276 258 215 232 222 254 298 295 135 
212 11 297 52 152 48 307 114 219 235 123 133 244 
213 11 92 139 229 104 195 171 324 310 112 236 317 
214 11 155 9 170 159 330 233 249 142 302 20 21 
215 8 222 303 154 211 258 220 135 230 
216 11 206 283 239 231 176 49 103 55 260 268 208 
217 11 259 285 161 232 287 240 276 279 22 102 344 
218 4 332 122 242 348 
219 10 123 280 288 244 149 340 114 133 304 336 
220 9 238 257 222 227 331 318 67 215 265 
221 11 136 318 67 321 227 337 257 264 238 81 265 
222 8 215 220 154 238 257 258 303 331 
223 11 88 48 132 316 345 270 275 52 201 235 212 
224 11 301 262 199 57 338 209 261 281 271 237 226 
225 8 313 334 248 327 200 246 81 337 
226 9 338 277 156 301 224 56 202 77 281 
227 9 318 238 257 67 220 331 265 221 136 
228 11 311 73 64 141 272 278 324 82 293 310 236 
229 11 104 213 139 92 171 310 186 82 324 172 210 
230 6 135 336 149 288 304 340 
231 11 103 49 260 176 216 141 283 206 293 93 144 
232 11 276 279 287 217 161 259 285 135 304 211 303 
233 11 159 9 214 170 35 172 302 171 155 229 186 
234 11 39 117 168 96 25 143 306 341 177 326 125 
235 11 270 325 253 48 201 307 132 52 94 102 198 
236 11 64 317 324 228 310 104 311 82 272 73 141 
237 11 271 261 293 73 311 262 278 141 199 272 224 
238 9 257 220 227 318 67 331 222 265 221 
239 11 206 216 283 208 55 87 124 347 71 343 166 
240 11 22 285 259 217 328 89 282 298 161 232 276 
241 11 263 339 94 198 201 253 243 275 13 102 132 
242 11 326 348 19 143 306 25 341 207 266 296 168 
243 11 13 339 300 274 255 241 286 292 94 263 205 
244 10 46 252 280 219 189 340 123 315 291 273 
245 7 319 346 203 14 267 247 246 
246 11 81 200 14 267 327 334 313 265 225 245 247 
247 9 265 267 203 331 14 245 246 319 81 
248 8 225 334 313 200 327 246 81 346 
249 10 320 155 281 214 330 302 21 202 9 284 
250 8 204 256 295 254 258 71 347 333 
251 9 275 345 198 263 269 316 339 132 201 
252 10 189 46 244 291 315 152 297 280 219 273 
253 11 270 201 235 325 132 94 263 48 198 241 102 
254 10 256 204 71 250 166 87 347 295 258 335 
255 11 292 286 300 13 305 243 205 121 339 187 274 
256 9 204 250 254 71 347 295 87 309 333 
257 9 238 220 227 67 318 331 222 221 265 
258 10 154 295 303 211 222 215 250 254 256 204 
259 11 217 285 161 240 232 287 22 276 279 102 328 
260 11 49 176 231 289 93 144 283 216 103 308 268 
261 11 237 271 262 278 199 293 73 311 224 57 272 
262 11 224 199 261 57 301 271 237 209 278 338 73 
263 11 198 201 241 275 132 339 253 251 270 94 345 
264 9 221 67 136 321 318 332 227 257 218 
265 9 247 267 331 14 203 246 81 227 245 
266 9 207 348 309 333 19 110 329 242 296 
267 10 14 265 247 246 81 200 203 245 331 319 
268 11 329 55 283 296 110 124 19 341 289 176 306 
269 9 251 299 187 205 323 345 316 91 121 
270 11 253 235 201 48 132 325 198 263 275 94 241 
271 11 237 261 293 262 73 311 278 199 141 224 272 
272 11 82 278 73 210 310 311 186 28 228 199 261 
273 4 315 46 189 291 
274 11 150 89 328 243 286 282 13 255 22 94 339 
275 10 198 132 263 201 345 251 270 241 253 316 
276 11 232 211 279 303 287 217 259 135 161 285 154 
277 10 156 226 56 77 312 338 150 208 301 286 
278 11 272 73 261 82 311 199 237 210 262 28 57 
279 11 287 232 304 161 276 135 149 217 344 259 288 
280 7 340 219 244 336 288 123 149 
281 9 301 202 224 302 249 209 338 57 226 
282 11 89 328 150 22 312 240 343 274 77 298 285 
283 11 216 268 55 176 239 206 49 124 329 260 231 
284 11 320 62 10 21 74 249 126 330 342 202 155 
285 11 259 240 217 22 161 232 276 287 298 328 89 
286 11 255 305 292 274 243 13 150 300 277 339 89 
287 11 279 161 232 217 344 259 276 304 133 135 114 
288 9 149 304 336 230 340 135 123 219 280 
289 11 93 308 176 49 260 144 268 283 231 296 341 
290 5 315 273 291 189 46 
291 7 189 315 46 252 273 244 290 
292 11 255 300 205 13 121 286 187 305 243 339 126 
293 11 237 271 141 261 311 73 103 278 228 262 272 
294 11 314 153 47 86 170 142 20 214 233 35 9 
295 6 250 258 204 256 254 154 
296 11 19 329 341 110 306 143 266 268 25 326 348 
297 11 152 212 52 252 244 219 48 123 307 114 46 
298 11 335 166 343 240 22 285 254 282 71 211 259 
299 9 187 121 91 205 269 147 342 140 300 
300 11 13 292 205 339 255 243 187 121 241 286 251 
301 10 224 338 262 57 199 281 209 226 261 271 
302 11 209 172 57 28 281 210 159 199 249 9 186 
303 10 211 154 215 258 276 222 232 135 279 230 
304 10 149 135 288 230 279 336 287 123 340 232 
305 10 255 126 286 292 202 121 342 300 13 205 
306 11 341 143 25 326 19 168 296 242 117 348 266 
307 11 114 133 344 325 235 52 123 48 270 253 161 
308 11 289 93 144 125 260 49 176 268 234 39 341 
309 8 333 207 266 348 110 124 19 329 
310 11 104 82 324 272 186 210 228 229 278 28 73 
311 11 73 228 141 278 293 237 272 261 271 103 82 
312 11 77 56 150 282 343 156 277 89 208 328 335 
313 10 334 327 225 200 81 246 248 337 14 267 
314 11 294 153 47 86 170 142 20 35 233 9 214 
315 6 189 46 291 273 252 244 
316 9 345 88 251 275 223 132 198 269 201 
317 11 236 64 324 228 104 112 310 213 311 82 141 
318 10 227 67 221 257 136 238 220 265 331 321 
319 5 245 346 203 14 247 
320 9 284 249 21 202 281 155 330 10 62 
321 11 136 337 221 327 81 318 313 334 200 246 67 
322 11 35 171 195 139 192 92 86 193 194 229 78 
323 9 269 91 97 165 316 140 147 299 251 
324 11 310 236 104 64 228 82 317 272 73 213 311 
325 11 235 307 253 270 48 102 344 94 114 133 201 
326 11 242 143 306 25 341 19 348 168 117 296 266 
327 10 313 334 200 81 225 246 337 14 248 267 
328 11 89 282 22 240 274 150 285 259 217 312 102 
329 11 110 55 296 124 268 19 266 309 207 348 341 
330 11 155 142 21 20 170 214 249 10 320 9 5 
331 8 247 265 203 227 267 238 14 220 
332 4 218 122 264 242 
333 5 309 207 266 348 110 
334 10 313 327 200 225 81 246 248 337 14 267 
335 11 298 166 343 71 87 254 240 22 282 347 285 
336 4 340 230 288 149 
337 11 321 327 313 334 81 200 136 225 246 14 221 
338 9 226 301 224 262 277 156 281 199 261 
339 11 241 13 243 263 300 198 251 201 275 94 205 
340 5 336 280 288 149 230 
341 11 306 143 25 296 326 19 168 117 242 348 110 
342 11 126 121 299 187 305 292 205 50 147 255 91 
343 11 335 298 312 166 282 77 22 56 87 89 240 
344 11 133 114 307 287 161 123 279 325 304 149 232 
345 9 316 275 251 88 198 132 201 263 223 
346 5 245 319 203 246 14 
347 10 87 71 256 204 254 124 166 309 250 55 
348 9 207 266 19 242 333 326 309 110 296 
DEPOT_SECTION
   1
   -1
EOF
