NAME :  X-n327-kX-w65-c7.cctp
COMMENT : 	Adapted by Maziero, Usberti and Cavellucci from the Uchoa, Pecin, Pessoa, Poggi, Subramanian, and Vidal (2013)
TYPE :  CCTP
DIMENSION :    251
EDGE_WEIGHT_TYPE : 	EUC_2D	
CAPACITY : 	128
VERTICES_WITHIN_COVERAGE :  7
VERTICES_WITH_DEMAND : 	65
NODE_COORD_SECTION
1 236 951
2 735 289
3 841 735
4 846 821
5 907 810
6 55 136
7 372 422
8 437 584
9 509 822
10 57 519
11 563 333
12 750 8
13 644 692
14 123 787
15 865 618
16 833 453
17 736 643
18 90 930
19 804 192
20 435 164
21 540 911
22 747 80
23 486 239
24 511 784
25 639 247
26 337 11
27 95 706
28 719 839
29 943 421
30 55 633
31 396 807
32 916 252
33 191 716
34 552 500
35 226 520
36 666 833
37 450 431
38 427 307
39 4 89
40 736 784
41 615 382
42 739 386
43 229 527
44 594 197
45 910 398
46 492 214
47 974 107
48 914 556
49 384 827
50 151 908
51 390 873
52 70 232
53 418 29
54 128 721
55 211 129
56 641 993
57 220 883
58 293 551
59 244 952
60 910 489
61 324 280
62 466 437
63 879 676
64 359 770
65 95 631
66 920 56
67 577 407
68 178 769
69 225 359
70 882 228
71 759 814
72 33 412
73 423 135
74 194 121
75 970 723
76 6 206
77 782 300
78 107 786
79 889 855
80 68 280
81 522 848
82 653 78
83 719 736
84 809 404
85 620 655
86 439 605
87 990 874
88 46 236
89 980 500
90 625 383
91 146 430
92 795 241
93 714 554
94 89 207
95 144 648
96 633 877
97 482 843
98 670 150
99 615 139
100 192 844
101 396 409
102 799 30
103 72 916
104 917 12
105 156 769
106 553 21
107 86 666
108 42 261
109 494 309
110 767 378
111 528 311
112 697 21
113 675 228
114 752 812
115 180 120
116 348 861
117 397 753
118 229 855
119 311 203
120 177 491
121 280 408
122 470 132
123 40 324
124 386 644
125 975 360
126 397 598
127 658 175
128 470 227
129 157 4
130 876 714
131 780 25
132 394 658
133 697 278
134 879 723
135 522 896
136 620 103
137 122 342
138 790 311
139 761 602
140 983 317
141 933 461
142 156 922
143 10 773
144 926 186
145 440 477
146 508 847
147 103 931
148 676 953
149 687 958
150 490 478
151 753 305
152 109 937
153 348 565
154 688 798
155 632 674
156 223 946
157 408 367
158 530 770
159 924 692
160 428 765
161 358 485
162 443 295
163 66 938
164 716 347
165 495 763
166 36 884
167 74 958
168 719 301
169 698 823
170 816 412
171 292 364
172 565 958
173 429 532
174 79 947
175 742 358
176 622 546
177 230 964
178 195 917
179 559 938
180 469 485
181 135 944
182 338 907
183 700 752
184 176 858
185 457 356
186 133 940
187 531 327
188 656 685
189 215 828
190 308 625
191 552 995
192 689 723
193 244 517
194 615 185
195 174 911
196 645 998
197 461 850
198 605 496
199 447 815
200 643 652
201 281 970
202 681 805
203 237 976
204 592 381
205 239 911
206 749 816
207 446 458
208 705 802
209 644 796
210 249 978
211 858 374
212 107 882
213 587 702
214 408 941
215 520 846
216 367 393
217 457 261
218 613 339
219 299 819
220 670 272
221 720 840
222 81 862
223 437 430
224 443 557
225 228 890
226 707 458
227 365 855
228 527 416
229 224 929
230 524 758
231 235 882
232 391 446
233 554 866
234 464 857
235 547 966
236 721 823
237 415 525
238 632 720
239 481 524
240 603 286
241 774 753
242 527 935
243 584 437
244 846 221
245 732 271
246 564 787
247 310 420
248 406 463
249 880 364
250 559 849
251 397 449
DEMAND_SECTION
2 6
3 10
4 8
5 5
6 6
7 9
8 8
9 6
10 7
11 10
12 8
13 6
14 10
15 6
16 7
17 6
18 9
19 8
20 10
21 10
22 9
23 9
24 9
25 7
26 7
27 8
28 7
29 5
30 5
31 7
32 9
33 6
34 9
35 10
36 9
37 8
38 8
39 5
40 5
41 8
42 5
43 10
44 7
45 8
46 7
47 6
48 5
49 9
50 8
51 10
52 5
53 5
54 7
55 5
56 8
57 10
58 8
59 9
60 9
61 5
62 6
63 6
64 5
65 9
66 9
COVERAGE_SECTION
2 7 245 168 151 133 77 138 164 
3 7 134 130 241 63 4 159 5 
4 7 79 5 3 71 114 206 241 
5 7 79 4 134 3 130 87 75 
6 7 39 94 76 52 88 108 115 
7 7 101 216 232 251 248 247 161 
8 6 86 224 126 173 237 239 
9 7 146 215 81 97 24 158 197 
10 7 72 30 65 120 91 107 95 
11 7 187 111 218 204 240 41 109 
12 7 131 102 112 22 82 136 98 
13 6 188 155 238 200 85 192 
14 7 78 105 68 54 27 222 100 
15 7 63 48 159 130 139 134 3 
16 7 170 84 211 60 45 110 141 
17 7 139 188 93 192 200 83 13 
18 7 147 152 174 103 163 167 186 
19 6 92 244 70 245 77 2 
20 7 73 122 128 46 23 217 119 
21 7 135 242 179 233 172 235 250 
22 7 131 12 102 112 82 98 19 
23 7 128 46 217 109 162 111 38 
24 7 158 165 230 9 246 146 215 
25 7 220 113 240 133 194 44 127 
26 7 53 73 55 74 122 129 20 
27 7 54 107 65 95 78 30 14 
28 7 221 236 169 206 208 114 71 
29 7 45 141 125 60 249 89 211 
30 7 65 107 27 95 10 54 143 
31 7 49 64 199 160 117 227 51 
32 6 70 144 244 140 249 92 
33 7 68 54 105 95 27 14 78 
34 7 198 150 243 239 176 180 228 
35 6 43 193 120 58 91 121 
36 7 202 169 154 209 208 28 221 
37 7 223 62 207 145 248 251 180 
38 7 162 217 185 157 109 23 128 
39 7 6 76 94 88 52 129 108 
40 6 114 206 208 71 236 183 
41 4 90 204 218 67 
42 3 175 110 164 
43 6 35 193 120 58 153 190 
44 7 194 99 25 127 113 98 240 
45 7 29 249 211 141 125 60 16 
46 7 23 128 217 20 122 109 162 
47 7 66 144 104 70 32 244 19 
48 7 60 15 89 141 63 16 159 
49 7 31 227 51 116 64 199 117 
50 7 142 195 186 181 178 152 212 
51 7 227 116 49 182 31 214 197 
52 7 88 94 108 80 76 6 123 
53 7 26 73 122 106 20 46 119 
54 7 27 105 33 14 78 68 107 
55 7 74 115 119 129 94 6 26 
56 3 196 148 149 
57 7 225 231 118 205 178 229 100 
58 6 153 193 43 35 190 161 
59 6 177 156 203 210 229 201 
60 7 141 48 89 29 16 45 170 
61 7 119 171 38 162 157 216 69 
62 7 37 207 223 145 150 180 228 
63 7 130 134 159 15 3 75 48 
64 7 117 31 49 160 219 227 116 
65 7 107 30 95 27 54 10 33 
66 7 104 47 102 144 131 22 70 
67 7 204 243 41 228 90 11 218 
68 7 105 33 14 54 189 78 100 
69 6 171 121 137 247 91 61 
70 6 244 32 144 19 92 77 
71 7 114 206 40 236 28 221 208 
72 7 123 10 137 91 80 108 120 
73 7 20 122 128 46 53 23 119 
74 7 115 55 129 94 6 119 52 
75 7 159 134 130 63 5 3 15 
76 7 88 108 52 94 6 80 39 
77 6 138 151 2 245 92 168 
78 7 14 105 54 68 222 27 212 
79 6 5 4 87 3 134 71 
80 7 108 52 88 123 94 137 76 
81 7 215 146 9 233 250 97 135 
82 7 136 99 112 98 22 127 194 
83 4 183 192 40 241 
84 7 170 110 16 211 42 175 249 
85 6 155 200 13 188 213 238 
86 6 8 126 224 124 132 173 
87 6 79 5 75 4 134 159 
88 7 52 108 80 76 94 123 6 
89 7 141 60 29 48 45 125 16 
90 4 41 204 218 67 
91 6 120 137 69 72 35 10 
92 6 19 244 77 138 245 2 
93 5 139 17 176 226 200 
94 7 52 88 108 80 6 76 115 
95 7 65 107 54 27 33 30 105 
96 1 36 
97 6 197 234 146 9 215 81 
98 7 127 99 194 136 82 113 44 
99 7 136 194 98 127 44 82 113 
100 7 184 189 118 57 231 225 195 
101 7 7 216 232 251 157 223 248 
102 7 131 12 22 112 104 66 82 
103 6 18 163 174 147 167 152 
104 7 66 47 102 131 12 144 22 
105 7 68 14 78 54 33 100 189 
106 7 136 82 99 53 122 112 73 
107 7 65 27 30 95 54 33 78 
108 7 88 80 52 123 76 94 137 
109 7 111 187 162 185 217 38 23 
110 7 42 175 84 164 170 138 151 
111 7 187 109 11 240 23 185 162 
112 7 12 82 22 131 102 136 98 
113 7 25 220 133 127 245 194 98 
114 7 206 71 40 236 28 221 208 
115 7 74 55 129 6 94 119 52 
116 6 227 51 182 49 219 31 
117 6 160 64 31 49 199 132 
118 7 231 57 189 225 100 184 205 
119 7 61 55 20 73 74 115 38 
120 6 35 43 91 193 10 58 
121 6 247 171 69 216 7 161 
122 7 20 73 46 128 23 53 217 
123 7 80 108 137 72 88 52 76 
124 5 132 126 86 8 190 
125 7 140 29 45 249 141 211 32 
126 5 8 86 124 153 132 
127 7 98 194 99 113 44 25 136 
128 7 23 46 217 20 162 109 38 
129 7 115 74 55 6 39 26 94 
130 7 134 63 3 159 75 15 5 
131 7 102 12 22 112 82 104 66 
132 5 124 126 86 8 190 
133 7 220 168 245 2 113 151 25 
134 7 130 3 63 159 5 75 4 
135 6 21 242 233 81 215 146 
136 7 99 82 98 127 194 44 106 
137 7 80 123 91 69 72 108 52 
138 6 77 151 2 175 92 245 
139 7 17 93 15 200 188 63 83 
140 7 125 32 45 29 249 70 211 
141 7 60 29 89 45 48 16 125 
142 6 50 195 186 181 178 152 
143 5 78 27 14 166 222 
144 6 70 32 244 47 19 66 
145 6 207 180 248 37 223 62 
146 6 215 81 9 97 234 197 
147 6 152 18 174 186 103 181 
148 3 149 56 196 
149 2 148 56 
150 7 180 239 62 207 145 37 34 
151 7 2 77 168 138 245 175 164 
152 6 147 18 186 181 174 167 
153 4 58 126 190 237 
154 5 202 208 169 36 236 
155 6 13 85 200 188 238 213 
156 4 229 177 59 203 
157 7 101 216 185 38 7 223 37 
158 5 230 24 165 246 9 
159 7 63 130 75 134 3 15 5 
160 7 117 31 199 165 64 49 24 
161 4 232 248 251 7 
162 7 38 217 109 185 23 128 157 
163 5 174 167 103 18 147 
164 3 175 42 168 
165 7 24 230 158 9 160 199 246 
166 4 103 222 163 18 
167 3 174 163 18 
168 7 2 133 245 151 164 220 175 
169 7 208 236 202 28 154 221 36 
170 7 84 16 211 110 249 42 175 
171 6 121 247 69 216 61 7 
172 5 235 179 191 242 21 
173 5 237 224 8 239 145 
174 6 167 163 18 147 103 152 
175 5 42 164 110 151 168 
176 5 198 34 93 200 85 
177 4 203 59 156 210 
178 6 195 229 142 156 57 225 
179 6 172 235 242 21 135 191 
180 7 150 145 207 239 62 37 173 
181 6 186 152 142 147 50 18 
182 4 116 227 51 214 
183 3 83 192 40 
184 7 100 189 57 118 195 50 225 
185 7 157 38 109 162 37 223 187 
186 6 181 152 142 147 50 18 
187 7 111 11 109 185 204 218 240 
188 6 13 155 200 238 85 192 
189 7 100 118 184 57 231 225 68 
190 5 153 58 124 132 126 
191 6 235 172 179 242 21 56 
192 4 183 83 188 13 
193 6 35 43 58 120 121 153 
194 7 44 127 99 98 25 113 136 
195 6 142 178 50 186 181 184 
196 3 56 148 149 
197 6 234 97 199 146 9 215 
198 4 34 176 243 67 
199 7 197 97 234 31 160 9 49 
200 7 85 155 188 13 238 213 192 
201 3 210 59 203 
202 5 154 208 169 36 209 
203 3 210 177 59 
204 6 41 67 90 218 11 243 
205 7 229 225 231 57 156 59 178 
206 7 114 71 236 40 28 221 208 
207 7 145 37 62 223 180 248 150 
208 6 154 169 202 236 40 28 
209 3 202 36 154 
210 3 203 177 59 
211 6 249 45 84 170 16 110 
212 7 222 103 147 18 50 152 142 
213 4 238 155 85 13 
214 2 51 182 
215 7 81 146 9 97 233 250 135 
216 7 7 101 157 232 247 251 223 
217 7 23 128 162 38 46 109 111 
218 5 41 90 204 11 240 
219 6 116 227 64 118 189 49 
220 7 133 25 113 168 245 2 240 
221 7 28 236 169 206 208 114 71 
222 5 212 166 103 18 147 
223 7 37 207 62 251 248 101 145 
224 6 8 173 237 86 239 126 
225 7 57 231 205 118 229 178 156 
226 1 42 
227 6 116 51 49 31 182 219 
228 7 67 243 62 150 204 37 34 
229 6 156 205 59 178 177 225 
230 5 158 24 165 246 9 
231 7 225 57 118 205 229 178 100 
232 6 251 248 7 101 223 161 
233 5 250 81 215 135 21 
234 6 197 97 146 199 9 215 
235 6 172 191 179 242 21 135 
236 7 28 221 169 208 206 114 71 
237 4 173 224 145 8 
238 5 13 188 155 213 192 
239 7 180 150 224 173 145 237 8 
240 7 25 218 11 220 111 187 44 
241 7 40 83 71 114 206 3 183 
242 5 21 179 235 135 172 
243 7 67 204 228 41 198 90 34 
244 6 70 19 92 32 144 77 
245 7 2 168 133 151 77 220 92 
246 3 158 230 24 
247 6 121 171 7 216 161 232 
248 6 251 232 145 207 223 7 
249 6 211 45 170 84 29 125 
250 5 233 81 215 146 9 
251 6 232 248 7 101 223 207 
DEPOT_SECTION
   1
   -1
EOF
