NAME :  X-n351-kX-w35-c9.cctp
COMMENT : 	Adapted by Maziero, Usberti and Cavellucci from the Uchoa, Pecin, Pessoa, Poggi, Subramanian, and Vidal (2013)
TYPE :  CCTP
DIMENSION :    252
EDGE_WEIGHT_TYPE : 	EUC_2D	
CAPACITY : 	436
VERTICES_WITHIN_COVERAGE :  9
VERTICES_WITH_DEMAND : 	35
NODE_COORD_SECTION
1 500 500
2 740 442
3 261 710
4 578 522
5 562 509
6 795 425
7 636 463
8 645 617
9 595 524
10 649 599
11 745 252
12 180 757
13 590 598
14 332 775
15 544 551
16 1000 444
17 581 521
18 240 609
19 700 468
20 735 579
21 403 569
22 352 905
23 733 352
24 289 705
25 598 249
26 565 570
27 711 336
28 816 497
29 769 411
30 409 651
31 231 742
32 575 555
33 567 477
34 693 537
35 521 534
36 457 414
37 638 617
38 245 744
39 311 717
40 753 427
41 547 493
42 732 382
43 664 511
44 945 316
45 250 770
46 598 493
47 568 558
48 395 796
49 685 327
50 260 910
51 571 648
52 747 398
53 571 650
54 541 442
55 841 466
56 744 725
57 662 349
58 686 543
59 184 776
60 177 770
61 802 446
62 662 566
63 605 544
64 287 671
65 615 511
66 293 693
67 375 671
68 383 614
69 834 417
70 255 696
71 799 172
72 298 531
73 740 456
74 661 582
75 659 461
76 630 290
77 267 721
78 682 474
79 540 550
80 370 733
81 546 587
82 724 572
83 416 688
84 714 478
85 313 770
86 464 361
87 356 921
88 477 721
89 733 447
90 348 505
91 595 628
92 227 720
93 781 585
94 807 595
95 582 503
96 505 586
97 235 788
98 716 440
99 633 421
100 826 476
101 676 446
102 388 669
103 465 690
104 675 544
105 770 613
106 434 594
107 468 405
108 0 863
109 663 582
110 209 755
111 966 516
112 580 593
113 221 558
114 230 594
115 329 768
116 786 523
117 704 474
118 819 376
119 565 501
120 404 589
121 663 527
122 253 708
123 269 730
124 823 519
125 739 421
126 706 519
127 726 423
128 614 525
129 643 328
130 793 426
131 221 731
132 290 732
133 709 310
134 654 492
135 745 370
136 459 639
137 618 570
138 613 528
139 652 434
140 722 421
141 535 578
142 242 624
143 371 387
144 671 445
145 764 425
146 242 763
147 670 520
148 580 482
149 292 823
150 547 443
151 555 484
152 747 340
153 760 446
154 734 451
155 604 277
156 790 405
157 680 445
158 741 460
159 244 758
160 600 503
161 562 518
162 620 425
163 852 489
164 577 553
165 235 755
166 187 725
167 724 328
168 195 572
169 205 739
170 733 341
171 434 452
172 716 458
173 495 573
174 579 545
175 228 725
176 604 417
177 626 499
178 555 449
179 551 554
180 177 983
181 794 430
182 771 573
183 487 291
184 239 703
185 789 477
186 677 456
187 505 327
188 321 753
189 509 497
190 749 451
191 796 429
192 797 485
193 571 649
194 750 412
195 752 393
196 170 716
197 605 549
198 201 625
199 300 676
200 548 478
201 637 450
202 706 463
203 788 583
204 611 574
205 176 761
206 404 508
207 614 415
208 257 707
209 780 394
210 547 462
211 379 817
212 539 556
213 498 909
214 275 706
215 726 426
216 780 439
217 832 405
218 623 445
219 817 463
220 755 418
221 720 471
222 320 745
223 289 737
224 636 260
225 679 590
226 256 618
227 264 677
228 326 681
229 229 729
230 553 266
231 519 526
232 692 552
233 709 509
234 794 421
235 189 728
236 326 462
237 687 334
238 298 705
239 582 478
240 737 579
241 458 895
242 394 639
243 352 782
244 621 303
245 748 593
246 400 547
247 268 721
248 578 616
249 446 574
250 502 571
251 574 593
252 459 466
DEMAND_SECTION
2 43
3 82
4 57
5 51
6 29
7 55
8 71
9 35
10 28
11 36
12 18
13 42
14 79
15 88
16 68
17 99
18 10
19 11
20 77
21 68
22 44
23 17
24 60
25 33
26 30
27 37
28 87
29 18
30 6
31 42
32 1
33 22
34 78
35 94
36 65
COVERAGE_SECTION
2 9 89 154 190 73 158 40 153 125 215 
3 9 208 122 77 247 70 214 123 184 24 
4 9 17 161 9 95 5 174 119 160 164 
5 9 119 161 4 95 17 41 151 33 148 
6 9 130 191 234 181 156 216 61 29 145 
7 9 201 218 75 139 134 177 144 162 99 
8 9 37 10 74 109 225 91 62 137 204 
9 9 17 4 138 128 63 160 65 95 174 
10 8 8 37 74 109 225 62 137 204 
11 9 133 167 152 170 27 49 71 237 23 
12 9 205 60 59 110 235 169 166 196 131 
13 9 112 251 248 91 204 26 137 81 32 
14 9 115 85 243 188 222 80 223 132 39 
15 9 79 212 179 47 26 141 35 32 164 
16 3 111 44 163 
17 9 4 9 95 161 5 174 119 160 164 
18 3 142 114 226 
19 7 117 202 84 78 172 221 186 
20 9 240 82 245 182 93 105 232 203 225 
21 8 120 246 106 249 68 206 242 30 
22 7 87 50 211 149 241 48 243 
23 8 170 152 135 167 27 42 195 52 
24 9 238 66 214 39 247 77 132 3 199 
25 8 155 224 230 76 244 129 49 57 
26 9 47 32 164 179 81 251 112 15 174 
27 9 167 170 237 133 23 49 152 135 42 
28 8 192 100 124 185 219 163 55 116 
29 9 145 220 194 209 156 40 195 52 234 
30 9 242 102 83 67 68 136 106 120 103 
31 9 229 38 165 131 175 159 92 146 110 
32 9 164 47 174 26 179 15 197 63 4 
33 9 148 151 239 200 119 210 41 95 178 
34 8 58 232 104 126 147 121 233 43 
35 9 231 79 212 15 179 189 250 161 141 
36 5 107 171 252 86 54 
37 9 8 10 74 109 91 225 137 204 13 
38 9 31 159 165 146 229 175 45 131 123 
39 9 238 24 132 222 66 223 188 214 228 
40 9 220 145 125 194 2 153 29 190 127 
41 8 151 200 119 5 33 161 210 148 
42 6 135 52 195 23 194 125 
43 7 147 121 134 104 34 58 177 
44 3 16 118 217 
45 7 146 159 165 97 38 31 110 
46 9 160 95 148 239 65 177 9 17 119 
47 9 32 164 26 174 179 15 79 212 81 
48 6 211 243 14 80 115 85 
49 8 237 27 133 57 167 129 170 23 
50 5 22 149 87 180 97 
51 6 193 53 91 248 13 251 
52 9 195 194 42 220 125 29 135 40 145 
53 6 193 51 91 248 13 251 
54 5 150 178 210 200 33 
55 4 100 219 163 28 
56 5 105 245 94 93 20 
57 4 129 237 49 27 
58 7 34 104 232 121 147 126 62 
59 9 60 205 12 110 169 235 166 97 165 
60 9 59 205 12 110 169 235 166 196 131 
61 7 181 191 6 130 216 219 234 
62 7 74 109 104 225 58 232 10 
63 8 197 138 128 9 174 137 164 204 
64 5 199 66 227 24 238 
65 7 128 177 138 160 9 46 63 
66 8 24 238 199 214 64 39 227 228 
67 7 102 242 30 83 228 68 80 
68 7 242 120 30 21 102 106 67 
69 5 217 6 191 234 130 
70 7 208 122 3 184 227 214 77 
71 6 11 133 167 152 170 224 
72 6 90 236 113 114 18 226 
73 6 158 154 190 89 2 153 
74 7 109 62 225 10 8 104 37 
75 9 186 144 7 101 201 78 157 139 134 
76 9 244 155 224 129 25 49 57 237 133 
77 9 247 123 3 208 214 122 132 24 223 
78 9 19 186 117 75 202 101 157 144 84 
79 9 15 212 179 35 141 47 26 231 32 
80 7 222 243 188 115 14 39 67 
81 9 141 26 251 212 179 112 15 47 79 
82 9 20 240 245 232 34 182 58 225 104 
83 7 102 30 67 103 242 80 136 
84 5 221 117 19 202 172 
85 7 115 188 14 222 223 243 132 
86 6 107 36 187 183 171 143 
87 7 22 50 241 211 149 48 243 
88 4 103 83 136 30 
89 9 154 2 73 158 190 98 172 215 127 
90 6 236 72 206 246 21 120 
91 9 248 13 51 193 53 112 251 37 8 
92 7 175 229 131 184 31 122 169 
93 7 203 182 94 105 245 240 20 
94 7 203 93 105 182 245 240 20 
95 9 119 17 160 4 46 5 148 9 161 
96 8 250 173 141 81 212 79 15 35 
97 7 45 146 159 165 110 38 31 
98 9 215 89 172 127 140 154 2 202 73 
99 7 162 207 139 218 176 201 7 
100 6 219 55 28 163 192 185 
101 9 157 144 186 75 139 78 19 202 201 
102 7 67 30 242 83 68 228 80 
103 5 88 83 136 30 102 
104 6 58 34 232 121 147 62 
105 7 93 245 203 182 94 240 20 
106 9 249 120 21 136 68 246 242 30 173 
107 5 36 86 171 252 54 
108 6 60 205 59 12 180 196 
109 7 74 62 225 10 8 104 232 
110 9 169 31 165 131 12 59 229 146 205 
111 5 16 163 55 124 100 
112 9 251 13 248 26 81 204 47 32 91 
113 7 168 114 18 142 226 198 72 
114 6 18 142 226 113 168 198 
115 9 14 85 188 222 243 223 132 39 80 
116 5 124 28 192 185 182 
117 6 19 84 202 221 172 78 
118 6 217 156 209 69 234 6 
119 9 5 95 161 41 151 33 148 4 17 
120 8 21 106 68 246 249 242 30 136 
121 5 147 43 104 58 34 
122 7 208 3 70 184 77 247 214 
123 8 77 247 132 223 3 214 208 122 
124 8 28 116 163 100 192 185 55 219 
125 9 127 194 215 40 220 140 2 52 145 
126 7 233 34 58 147 232 104 84 
127 8 215 140 125 98 2 89 194 40 
128 7 138 65 9 63 160 197 177 
129 7 57 244 76 49 237 155 27 
130 9 6 181 191 234 216 156 61 29 145 
131 8 229 175 92 31 169 38 110 165 
132 8 223 123 77 247 39 24 238 214 
133 9 167 27 49 237 170 23 152 57 11 
134 7 43 177 75 147 78 7 121 
135 8 42 23 195 52 152 170 194 209 
136 8 30 103 106 83 242 249 96 120 
137 7 204 197 63 13 10 138 62 
138 7 128 65 9 63 197 160 177 
139 9 144 201 99 101 75 157 218 7 162 
140 7 127 215 125 98 2 89 194 
141 9 81 212 15 79 179 26 96 250 47 
142 3 18 226 114 
143 8 236 36 171 86 107 252 90 206 
144 9 101 157 186 75 139 78 201 19 7 
145 8 40 220 29 194 153 216 125 2 
146 8 159 45 165 38 31 97 110 229 
147 7 121 43 104 58 34 134 126 
148 9 239 33 46 95 119 151 160 5 200 
149 5 85 14 115 97 45 
150 6 54 178 210 200 33 151 
151 9 200 41 33 119 210 148 5 239 95 
152 8 170 23 167 135 27 42 133 195 
153 8 190 2 40 145 216 73 158 154 
154 7 89 73 2 158 190 172 98 
155 8 25 76 244 224 230 129 57 49 
156 9 209 234 6 130 29 181 191 145 216 
157 9 101 144 186 75 78 19 139 202 98 
158 6 73 154 190 89 2 153 
159 8 146 165 45 38 31 97 229 110 
160 9 46 65 95 9 17 128 177 138 4 
161 9 5 4 119 17 95 41 174 9 151 
162 7 207 99 176 218 201 139 7 
163 5 55 100 28 124 219 
164 9 32 174 47 26 179 197 63 4 17 
165 9 159 146 31 38 45 110 229 131 175 
166 8 235 196 169 12 131 110 205 92 
167 9 27 170 133 23 152 237 49 135 42 
168 6 113 114 198 18 142 226 
169 9 110 131 235 166 31 229 175 92 12 
170 9 23 152 167 27 135 133 42 237 49 
171 6 252 36 107 206 189 143 
172 8 202 221 98 19 154 84 89 117 
173 9 250 96 141 35 212 249 79 81 231 
174 9 164 32 47 4 17 9 63 197 26 
175 8 229 92 131 31 38 184 169 122 
176 7 207 162 99 218 201 139 7 
177 7 65 160 46 128 134 138 7 
178 8 150 210 54 33 200 151 239 148 
179 9 15 79 212 47 26 32 164 141 174 
180 6 50 87 22 149 97 59 
181 8 191 130 6 234 216 61 156 145 
182 7 93 203 245 240 20 105 94 
183 7 187 230 86 107 155 25 36 
184 5 122 70 208 92 3 
185 5 192 219 28 61 100 
186 9 101 157 144 75 78 19 202 117 139 
187 5 183 86 230 107 36 
188 8 222 115 85 14 223 39 132 243 
189 6 231 41 35 200 151 210 
190 7 73 153 158 2 154 89 40 
191 8 181 6 130 234 61 216 156 29 
192 6 185 28 100 219 61 116 
193 6 51 53 91 248 13 251 
194 9 220 52 125 40 29 145 195 127 215 
195 9 52 194 42 135 29 220 209 125 40 
196 5 166 235 12 169 205 
197 8 63 138 137 128 174 204 9 164 
198 5 142 18 114 168 226 
199 7 64 66 228 238 24 227 214 
200 7 151 41 210 33 119 178 148 
201 9 7 218 139 75 99 162 144 101 186 
202 7 19 117 172 221 84 98 78 
203 7 93 182 94 105 245 240 20 
204 8 137 197 63 13 112 164 32 251 
205 9 12 60 59 110 235 169 166 196 131 
206 9 246 90 21 171 252 249 120 106 236 
207 7 176 162 99 218 139 201 7 
208 8 122 3 70 77 184 214 247 123 
209 9 156 29 195 234 52 6 130 145 194 
210 7 178 200 150 54 151 33 41 
211 8 48 243 14 115 85 80 188 149 
212 9 79 15 179 141 35 47 26 81 32 
213 5 241 87 22 211 48 
214 9 24 3 77 247 208 66 70 122 238 
215 8 127 140 125 98 2 89 154 40 
216 8 181 130 191 6 145 153 61 234 
217 7 69 118 234 6 156 191 130 
218 9 201 162 7 99 139 207 176 75 144 
219 6 100 61 55 192 185 28 
220 9 194 40 145 29 125 52 195 2 153 
221 5 84 172 117 202 19 
222 8 188 115 85 39 14 223 132 238 
223 8 132 123 247 77 39 24 222 238 
224 9 76 155 25 244 129 49 230 133 237 
225 8 109 74 62 10 232 8 104 58 
226 3 142 18 114 
227 6 70 64 208 214 3 66 
228 6 199 66 238 39 64 24 
229 8 175 131 92 31 38 169 165 184 
230 7 25 155 183 244 187 76 224 
231 9 35 189 79 15 212 41 179 161 5 
232 8 58 34 104 62 126 82 121 147 
233 6 126 84 34 117 221 58 
234 9 6 130 191 181 156 216 61 29 145 
235 9 166 169 196 12 131 110 205 92 175 
236 8 90 72 143 206 171 246 21 252 
237 8 49 27 57 133 167 129 170 23 
238 9 24 66 39 214 132 199 223 247 77 
239 9 148 33 46 95 151 119 160 200 5 
240 9 20 82 245 182 93 105 203 232 225 
241 6 213 87 22 211 48 243 
242 8 30 68 102 67 120 83 106 136 
243 9 14 115 85 188 211 48 222 80 149 
244 8 76 155 129 224 25 57 49 237 
245 8 240 20 105 182 82 93 203 94 
246 7 21 206 120 249 106 90 68 
247 9 77 123 3 214 208 122 132 24 223 
248 9 91 13 112 251 51 193 53 81 26 
249 9 106 21 120 173 246 250 96 136 68 
250 9 173 96 141 212 35 79 15 81 231 
251 9 112 13 248 26 81 47 32 164 91 
252 5 171 36 189 107 206 
DEPOT_SECTION
   1
   -1
EOF
