NAME :  X-n327-kX-w32-c11.cctp
COMMENT : 	Adapted by Maziero, Usberti and Cavellucci from the Uchoa, Pecin, Pessoa, Poggi, Subramanian, and Vidal (2013)
TYPE :  CCTP
DIMENSION :    228
EDGE_WEIGHT_TYPE : 	EUC_2D	
CAPACITY : 	128
VERTICES_WITHIN_COVERAGE :  11
VERTICES_WITH_DEMAND : 	32
NODE_COORD_SECTION
1 236 951
2 735 289
3 841 735
4 846 821
5 907 810
6 55 136
7 372 422
8 437 584
9 509 822
10 57 519
11 563 333
12 750 8
13 644 692
14 123 787
15 865 618
16 833 453
17 736 643
18 90 930
19 804 192
20 435 164
21 540 911
22 747 80
23 486 239
24 511 784
25 639 247
26 337 11
27 95 706
28 719 839
29 943 421
30 55 633
31 396 807
32 916 252
33 191 716
34 666 833
35 427 307
36 4 89
37 594 197
38 910 398
39 492 214
40 974 107
41 914 556
42 384 827
43 151 908
44 390 873
45 70 232
46 418 29
47 128 721
48 211 129
49 910 489
50 879 676
51 359 770
52 95 631
53 920 56
54 577 407
55 178 769
56 225 359
57 882 228
58 759 814
59 33 412
60 423 135
61 194 121
62 970 723
63 6 206
64 392 669
65 782 300
66 107 786
67 889 855
68 68 280
69 522 848
70 653 78
71 809 404
72 620 655
73 439 605
74 990 874
75 46 236
76 980 500
77 146 430
78 795 241
79 714 554
80 89 207
81 144 648
82 482 843
83 670 150
84 615 139
85 396 409
86 799 30
87 72 916
88 917 12
89 370 551
90 156 769
91 553 21
92 86 666
93 42 261
94 494 309
95 528 311
96 697 21
97 545 665
98 675 228
99 752 812
100 180 120
101 94 979
102 348 861
103 397 753
104 756 910
105 311 203
106 177 491
107 280 408
108 470 132
109 40 324
110 386 644
111 975 360
112 9 836
113 466 934
114 397 598
115 658 175
116 470 227
117 472 882
118 157 4
119 876 714
120 780 25
121 394 658
122 697 278
123 879 723
124 522 896
125 620 103
126 790 311
127 599 866
128 761 602
129 983 317
130 933 461
131 10 773
132 834 293
133 926 186
134 370 613
135 508 847
136 666 745
137 103 931
138 54 978
139 753 305
140 109 937
141 15 915
142 602 738
143 348 565
144 632 674
145 40 982
146 464 945
147 408 367
148 530 770
149 924 692
150 428 765
151 358 485
152 565 728
153 443 295
154 66 938
155 716 347
156 495 763
157 36 884
158 74 958
159 719 301
160 698 823
161 816 412
162 292 364
163 565 958
164 429 532
165 79 947
166 609 887
167 17 996
168 742 358
169 850 978
170 559 938
171 496 961
172 135 944
173 133 940
174 531 327
175 656 685
176 552 995
177 689 723
178 615 185
179 461 850
180 447 815
181 643 652
182 544 649
183 681 805
184 592 381
185 577 793
186 749 816
187 49 965
188 705 802
189 461 958
190 858 374
191 107 882
192 44 884
193 587 702
194 520 846
195 367 393
196 457 261
197 613 339
198 299 819
199 670 272
200 720 840
201 81 862
202 437 430
203 443 557
204 365 855
205 527 416
206 524 758
207 115 966
208 391 446
209 554 866
210 464 857
211 547 966
212 464 969
213 721 823
214 415 525
215 632 720
216 481 524
217 603 286
218 774 753
219 527 935
220 846 221
221 732 271
222 76 975
223 564 787
224 310 420
225 406 463
226 880 364
227 559 849
228 397 449
DEMAND_SECTION
2 6
3 10
4 8
5 5
6 6
7 9
8 8
9 6
10 7
11 10
12 8
13 6
14 10
15 6
16 7
17 6
18 9
19 8
20 10
21 10
22 9
23 9
24 9
25 7
26 7
27 8
28 7
29 5
30 5
31 7
32 9
33 6
COVERAGE_SECTION
2 10 221 159 139 122 65 126 155 199 168 78 
3 10 123 119 218 50 4 149 5 58 99 15 
4 10 67 5 3 58 99 186 218 123 119 213 
5 11 67 4 123 3 119 74 62 149 50 218 58 
6 11 36 80 63 45 75 93 100 61 68 48 118 
7 9 85 195 208 228 225 224 151 202 147 
8 10 73 203 114 164 214 134 216 89 110 121 
9 11 135 194 69 82 24 148 179 210 227 156 180 
10 7 59 30 52 106 77 92 81 
11 8 174 95 197 184 217 94 54 205 
12 11 120 86 96 22 70 125 83 88 53 84 115 
13 9 175 144 215 181 72 177 136 193 142 
14 8 66 90 55 47 27 201 191 33 
15 11 50 41 149 119 128 123 3 17 49 62 218 
16 8 161 71 190 49 38 130 226 29 
17 9 128 175 79 177 181 13 144 218 72 
18 11 137 140 165 87 154 158 173 207 172 222 101 
19 11 78 220 57 132 221 65 2 126 133 139 22 
20 11 60 108 116 39 23 196 105 153 46 35 94 
21 11 124 219 170 209 163 211 227 69 171 194 135 
22 11 120 12 86 96 70 83 19 125 115 84 98 
23 11 116 39 196 94 153 95 35 20 174 108 37 
24 11 148 156 206 9 223 135 194 69 82 185 180 
25 11 199 98 217 122 178 37 115 197 221 159 83 
26 11 46 60 48 61 108 118 20 100 105 91 116 
27 11 47 92 52 81 66 30 14 90 33 55 131 
28 9 200 213 160 186 188 99 58 183 34 
29 11 38 130 111 49 226 76 190 129 16 161 71 
30 11 52 92 27 81 10 47 131 33 66 14 90 
31 11 42 51 180 150 103 204 44 102 179 210 82 
32 11 57 133 220 132 129 226 78 111 19 190 126 
33 9 55 47 90 81 27 14 66 92 52 
34 6 183 160 188 28 200 213 
35 9 153 196 147 94 23 116 95 195 174 
36 11 6 63 80 75 45 118 93 100 61 68 48 
37 11 178 84 25 115 98 83 217 125 39 199 23 
38 11 29 226 190 130 111 49 16 161 71 129 76 
39 11 23 116 196 20 108 94 153 37 95 60 35 
40 11 53 133 88 57 32 220 19 86 129 120 78 
41 11 49 15 76 130 50 16 149 29 38 128 119 
42 11 31 204 44 102 51 180 103 150 179 198 210 
43 6 173 172 140 191 137 18 
44 8 204 102 42 31 179 210 180 117 
45 10 75 80 93 68 63 6 109 36 100 61 
46 11 26 60 108 91 20 39 105 116 125 23 84 
47 11 27 90 33 14 66 55 92 81 52 30 131 
48 10 61 100 105 118 80 6 26 45 75 68 
49 11 130 41 76 29 16 38 161 190 226 71 15 
50 11 119 123 149 15 3 62 41 218 5 128 17 
51 10 103 31 42 150 198 204 102 180 64 44 
52 11 92 30 81 27 47 10 33 90 66 14 55 
53 11 88 40 86 133 120 22 57 12 19 220 32 
54 5 184 205 11 197 174 
55 6 90 33 14 47 66 27 
56 7 162 107 224 77 106 195 7 
57 11 220 32 133 132 19 78 65 126 129 226 190 
58 8 99 186 213 28 200 188 160 218 
59 9 109 10 77 68 93 106 75 45 56 
60 11 20 108 116 39 46 23 105 196 26 153 35 
61 11 100 48 118 80 6 105 45 26 75 36 68 
62 11 149 123 119 50 5 3 15 74 67 4 41 
63 10 75 93 45 80 6 68 36 109 100 61 
64 10 121 110 134 114 73 103 8 150 51 143 
65 10 126 139 2 132 221 78 159 168 155 122 
66 9 14 90 47 55 201 27 191 131 33 
67 11 5 4 74 3 169 123 58 119 99 104 186 
68 10 93 45 75 109 80 63 59 6 77 56 
69 10 194 135 9 209 227 82 124 210 117 179 
70 11 125 84 96 83 22 115 178 91 12 37 120 
71 9 161 16 190 168 226 126 38 65 155 
72 11 144 181 13 175 193 215 97 182 142 152 177 
73 11 8 114 203 110 134 121 164 64 214 89 216 
74 11 67 5 62 4 169 123 149 119 3 50 104 
75 10 45 93 68 63 80 109 6 36 59 100 
76 11 130 49 29 41 38 111 16 15 226 190 129 
77 6 106 56 59 10 107 109 
78 11 19 220 65 132 126 221 2 139 57 159 122 
79 4 128 17 181 72 
80 10 45 75 93 68 6 63 100 109 61 36 
81 10 52 92 47 27 33 30 90 55 14 66 
82 11 179 210 135 9 194 69 117 180 24 124 209 
83 11 115 84 178 125 70 98 37 25 22 199 122 
84 11 125 178 83 115 37 70 98 25 91 39 96 
85 7 7 195 208 228 147 202 225 
86 11 120 12 22 96 88 53 70 19 83 40 125 
87 11 18 154 165 137 158 140 192 157 191 187 201 
88 11 53 40 86 120 12 133 22 19 57 96 220 
89 8 143 214 114 134 164 151 203 8 
90 7 55 14 66 47 33 27 201 
91 11 125 70 84 46 108 96 60 83 178 37 20 
92 11 52 27 30 81 47 33 66 90 14 131 55 
93 10 75 68 45 109 63 80 6 59 36 100 
94 10 95 174 153 196 35 23 11 116 39 147 
95 10 174 94 11 217 23 153 196 197 184 35 
96 11 12 70 22 120 86 125 83 84 91 115 178 
97 11 182 193 152 72 144 142 206 181 13 215 148 
98 11 25 199 122 115 221 178 83 159 2 37 217 
99 9 186 58 213 28 200 188 160 218 183 
100 11 61 48 118 6 80 105 45 75 36 26 63 
101 11 222 207 158 165 138 140 187 18 137 154 145 
102 8 204 44 42 198 31 51 180 179 
103 11 150 51 31 42 180 64 121 156 204 110 179 
104 2 200 28 
105 10 48 20 60 61 100 35 196 116 153 162 
106 5 77 10 107 56 224 
107 8 224 162 56 195 7 151 85 208 
108 11 20 60 39 116 23 46 196 91 37 84 125 
109 10 68 93 59 75 45 63 80 77 56 6 
110 10 121 64 134 114 73 8 143 89 203 103 
111 11 129 29 38 226 130 190 32 76 49 132 57 
112 11 157 192 131 201 141 87 191 66 154 14 18 
113 10 146 189 212 171 117 219 124 21 210 179 
114 11 134 8 73 110 89 143 121 203 64 164 214 
115 11 83 178 84 98 37 25 125 70 199 122 221 
116 11 23 39 196 20 153 94 35 108 95 60 174 
117 11 210 179 82 135 113 124 69 194 146 9 180 
118 11 100 61 48 6 36 26 80 45 63 105 75 
119 11 123 50 3 149 62 15 5 218 4 67 58 
120 11 86 12 22 96 70 88 53 83 19 125 115 
121 10 64 110 134 114 73 8 103 143 89 150 
122 10 199 159 221 2 98 139 25 155 65 168 
123 11 119 3 50 149 5 62 4 15 218 67 58 
124 11 21 219 209 69 194 135 117 170 227 82 113 
125 11 84 70 83 115 178 37 91 96 22 98 25 
126 9 65 139 132 2 168 78 221 159 155 
127 6 166 227 209 21 34 185 
128 9 17 79 15 181 175 50 177 13 144 
129 11 111 32 38 29 226 57 190 133 132 130 220 
130 11 49 29 76 38 41 16 111 226 190 161 71 
131 11 112 66 27 14 157 201 192 47 92 141 90 
132 11 126 65 78 220 57 139 190 226 32 2 221 
133 11 57 32 220 40 19 53 132 78 129 88 111 
134 9 114 110 121 143 64 89 73 8 203 
135 11 194 69 9 82 210 179 117 209 124 227 24 
136 3 177 215 13 
137 11 140 18 165 173 87 172 207 154 158 101 191 
138 11 187 145 222 158 101 165 167 154 18 207 87 
139 9 2 65 159 126 221 168 155 122 78 
140 10 137 18 173 172 207 165 158 87 154 101 
141 11 157 192 154 87 187 145 165 158 138 18 112 
142 8 215 152 193 185 13 223 136 144 
143 8 89 134 114 214 151 164 110 8 
144 11 13 72 181 175 215 193 142 177 136 152 97 
145 11 138 187 167 222 158 154 165 101 18 141 87 
146 10 113 189 212 171 117 219 124 21 211 210 
147 8 85 195 35 7 202 153 208 228 
148 11 206 24 156 223 185 152 9 194 69 142 135 
149 11 50 119 62 123 3 15 5 41 4 218 67 
150 11 103 31 180 156 51 42 24 179 82 206 9 
151 8 208 225 228 7 89 214 143 224 
152 10 193 142 206 148 223 97 185 215 24 156 
153 9 35 196 94 23 116 147 95 174 39 
154 11 165 158 87 18 187 137 222 138 140 101 145 
155 4 168 159 139 2 
156 11 24 206 148 9 150 180 223 152 82 135 185 
157 11 192 141 87 201 112 154 18 191 165 137 187 
158 11 165 222 154 187 138 101 18 137 140 87 145 
159 9 2 122 221 139 155 199 168 65 126 
160 8 188 213 183 28 200 34 186 99 
161 8 71 16 190 226 168 38 126 65 
162 9 107 224 56 195 7 85 147 208 228 
163 7 211 170 176 219 21 171 124 
164 7 214 203 8 216 89 114 225 
165 11 158 154 18 222 137 87 140 101 187 138 207 
166 5 127 209 227 170 21 
167 11 145 138 187 222 158 154 101 165 141 87 18 
168 5 155 139 159 126 2 
169 3 104 67 4 
170 9 163 211 219 21 124 176 171 166 209 
171 11 212 189 146 113 219 211 176 21 170 163 124 
172 8 173 140 207 137 43 18 101 165 
173 9 172 140 137 207 43 18 165 101 158 
174 10 95 11 94 184 197 217 205 54 153 23 
175 9 13 144 181 215 72 177 136 193 142 
176 8 211 163 170 219 171 21 212 189 
177 5 136 175 13 215 144 
178 11 37 115 84 83 25 98 125 217 199 70 122 
179 11 210 82 117 180 135 9 194 69 44 124 31 
180 11 179 82 210 31 150 9 42 135 24 156 117 
181 11 72 144 175 13 215 193 177 17 142 136 97 
182 11 97 193 72 152 144 181 142 13 206 215 73 
183 6 188 160 34 213 28 200 
184 5 54 197 11 205 174 
185 7 223 148 227 142 206 152 24 
186 9 99 58 213 28 200 188 160 218 183 
187 11 138 145 158 222 154 165 167 101 18 87 141 
188 7 160 183 213 28 200 186 99 
189 10 212 146 113 171 219 117 211 124 21 176 
190 10 226 38 71 161 16 132 126 29 65 130 
191 10 201 87 137 18 43 140 192 173 172 154 
192 11 157 141 87 201 154 112 191 18 165 137 158 
193 11 152 142 215 144 97 72 13 182 175 181 206 
194 11 69 135 9 82 209 227 124 210 179 117 24 
195 10 7 85 147 208 224 228 202 162 225 107 
196 10 23 116 153 35 39 94 95 20 174 147 
197 5 184 11 217 54 174 
198 5 102 204 51 42 31 
199 10 122 25 98 159 221 2 217 155 197 139 
200 9 28 213 160 186 188 99 58 183 34 
201 11 191 192 157 87 18 137 112 154 66 140 43 
202 5 228 225 85 208 7 
203 7 8 164 214 73 216 114 89 
204 8 102 44 42 31 198 51 180 179 
205 4 54 184 174 11 
206 11 148 24 156 223 152 185 9 142 193 194 69 
207 10 101 140 172 173 137 222 165 158 18 154 
208 7 228 225 7 85 202 151 195 
209 10 227 69 194 124 127 21 135 166 9 170 
210 11 179 82 117 135 180 9 194 69 124 44 113 
211 10 163 176 170 219 171 21 124 212 146 189 
212 10 189 146 171 113 219 211 117 176 124 21 
213 8 28 200 160 188 186 99 58 183 
214 7 164 203 89 8 225 216 151 
215 8 13 142 136 175 144 193 177 72 
216 4 203 164 214 8 
217 10 25 197 11 199 95 174 37 98 122 184 
218 7 58 99 186 3 188 213 177 
219 11 21 170 211 124 171 163 113 146 176 189 212 
220 11 57 19 78 132 32 133 65 126 221 139 2 
221 11 2 159 122 139 65 199 78 126 98 155 168 
222 11 158 101 138 165 187 145 154 207 18 140 137 
223 7 185 148 206 24 152 142 227 
224 10 107 162 7 195 151 208 85 228 56 225 
225 6 228 208 202 7 151 85 
226 11 190 38 161 71 29 132 111 16 126 130 129 
227 10 209 69 194 127 135 9 185 124 223 166 
228 7 208 225 7 85 202 151 195 
DEPOT_SECTION
   1
   -1
EOF
