NAME :  X-n367-kX-w73-c9.cctp
COMMENT : 	Adapted by Maziero, Usberti and Cavellucci from the Uchoa, Pecin, Pessoa, Poggi, Subramanian, and Vidal (2013)
TYPE :  CCTP
DIMENSION :    338
EDGE_WEIGHT_TYPE : 	EUC_2D	
CAPACITY : 	218
VERTICES_WITHIN_COVERAGE :  9
VERTICES_WITH_DEMAND : 	73
NODE_COORD_SECTION
1 927 318
2 319 475
3 471 281
4 894 615
5 712 832
6 728 813
7 360 217
8 446 264
9 952 650
10 558 224
11 460 397
12 464 342
13 733 921
14 324 316
15 333 497
16 826 821
17 257 385
18 385 244
19 523 249
20 559 370
21 665 866
22 310 583
23 744 792
24 428 638
25 759 804
26 359 515
27 392 213
28 583 380
29 786 400
30 516 833
31 823 692
32 480 330
33 870 690
34 311 76
35 157 434
36 340 558
37 499 905
38 893 667
39 665 781
40 328 499
41 712 744
42 949 498
43 463 266
44 275 564
45 456 323
46 748 727
47 860 607
48 821 554
49 245 542
50 462 420
51 859 662
52 308 399
53 427 246
54 279 414
55 543 841
56 243 333
57 406 498
58 347 509
59 460 593
60 244 536
61 650 703
62 732 115
63 234 661
64 808 720
65 423 216
66 144 390
67 772 633
68 917 645
69 509 345
70 286 449
71 380 488
72 478 333
73 465 310
74 666 858
75 334 369
76 708 815
77 767 610
78 472 326
79 481 449
80 559 265
81 786 646
82 503 255
83 406 226
84 627 709
85 859 611
86 931 648
87 281 315
88 954 665
89 443 295
90 497 359
91 247 542
92 311 468
93 901 603
94 801 847
95 257 131
96 346 637
97 604 305
98 436 206
99 277 345
100 428 257
101 405 530
102 892 802
103 341 663
104 856 527
105 539 861
106 359 298
107 875 642
108 867 658
109 677 832
110 340 456
111 322 444
112 623 825
113 316 483
114 886 768
115 505 255
116 554 806
117 309 502
118 953 659
119 675 828
120 946 627
121 242 560
122 498 334
123 844 511
124 811 691
125 468 522
126 454 510
127 675 733
128 186 347
129 348 474
130 487 362
131 835 517
132 507 409
133 378 458
134 368 319
135 810 928
136 572 844
137 445 255
138 412 244
139 815 948
140 328 509
141 665 841
142 295 534
143 859 585
144 730 846
145 786 719
146 437 458
147 371 276
148 876 594
149 448 298
150 510 236
151 573 230
152 909 630
153 704 257
154 643 809
155 944 623
156 440 448
157 411 551
158 721 584
159 523 195
160 370 474
161 730 809
162 520 525
163 498 349
164 667 782
165 244 370
166 365 509
167 758 838
168 323 519
169 378 315
170 402 522
171 986 718
172 419 216
173 340 467
174 664 691
175 887 519
176 487 341
177 798 633
178 432 178
179 538 215
180 619 734
181 897 626
182 653 723
183 999 652
184 424 473
185 842 770
186 504 345
187 830 617
188 742 857
189 602 875
190 524 367
191 654 754
192 482 274
193 861 603
194 344 184
195 832 573
196 924 690
197 794 662
198 258 663
199 575 132
200 273 535
201 871 612
202 522 291
203 650 261
204 443 292
205 631 960
206 950 648
207 212 601
208 698 735
209 510 223
210 322 521
211 806 829
212 243 269
213 527 416
214 535 411
215 618 292
216 504 296
217 574 897
218 368 600
219 733 712
220 314 438
221 362 479
222 874 652
223 756 693
224 418 381
225 841 801
226 593 974
227 410 515
228 434 478
229 501 249
230 896 647
231 819 806
232 311 561
233 363 98
234 275 491
235 849 471
236 961 626
237 588 700
238 705 795
239 948 634
240 283 493
241 865 664
242 856 622
243 223 459
244 307 497
245 363 509
246 655 782
247 636 386
248 703 883
249 782 900
250 186 508
251 436 192
252 398 512
253 449 668
254 253 148
255 112 573
256 250 532
257 722 761
258 375 393
259 415 416
260 234 81
261 511 473
262 382 449
263 267 459
264 926 677
265 946 631
266 962 364
267 886 613
268 794 839
269 137 499
270 594 954
271 497 399
272 869 621
273 857 586
274 971 559
275 521 273
276 793 806
277 461 276
278 912 910
279 457 265
280 325 456
281 312 305
282 991 645
283 672 935
284 227 328
285 869 620
286 316 455
287 617 725
288 395 501
289 406 223
290 879 592
291 692 448
292 534 348
293 641 823
294 323 492
295 405 715
296 331 451
297 902 505
298 900 608
299 939 553
300 681 748
301 497 320
302 289 412
303 466 263
304 662 812
305 256 499
306 748 888
307 352 624
308 474 238
309 208 455
310 922 673
311 470 473
312 869 610
313 80 531
314 826 819
315 691 935
316 331 340
317 405 263
318 640 751
319 246 487
320 770 429
321 448 274
322 728 801
323 453 176
324 356 248
325 531 283
326 885 599
327 994 539
328 781 595
329 688 856
330 448 393
331 302 417
332 298 550
333 663 798
334 564 286
335 762 732
336 437 272
337 301 337
338 718 866
DEMAND_SECTION
2 67
3 87
4 73
5 59
6 88
7 58
8 53
9 53
10 97
11 59
12 52
13 83
14 88
15 83
16 95
17 95
18 93
19 63
20 50
21 94
22 56
23 57
24 69
25 68
26 3
27 3
28 1
29 3
30 2
31 1
32 4
33 10
34 6
35 9
36 1
37 3
38 4
39 2
40 10
41 5
42 4
43 6
44 3
45 10
46 5
47 2
48 5
49 9
50 6
51 8
52 2
53 3
54 6
55 5
56 5
57 3
58 3
59 6
60 5
61 8
62 9
63 4
64 8
65 4
66 10
67 5
68 1
69 9
70 9
71 6
72 6
73 7
74 4
COVERAGE_SECTION
2 9 113 92 294 280 286 173 244 15 40 
3 9 277 192 43 303 279 321 149 8 73 
4 9 267 298 181 93 326 152 201 285 312 
5 9 76 144 6 161 329 109 322 338 119 
6 9 161 322 76 5 23 238 25 144 167 
7 9 324 27 18 194 289 83 138 172 147 
8 9 137 321 279 336 43 100 277 303 53 
9 9 206 118 88 239 265 86 120 236 155 
10 9 151 179 80 19 159 209 150 115 275 
11 9 330 50 271 130 224 132 259 90 12 
12 9 72 78 32 45 176 130 73 122 163 
13 7 306 315 248 249 338 283 188 
14 9 281 316 337 106 87 134 75 169 99 
15 9 40 294 140 58 113 168 117 2 210 
16 8 314 231 211 225 94 276 268 185 
17 9 165 54 302 99 52 56 331 284 337 
18 9 138 83 317 324 289 27 147 7 53 
19 9 150 115 82 229 275 209 325 179 80 
20 9 28 292 190 214 69 213 186 90 132 
21 8 74 141 329 109 119 248 293 338 
22 9 232 332 36 44 142 307 218 200 210 
23 9 322 25 161 6 257 238 76 167 5 
24 9 253 59 218 307 295 96 157 103 101 
25 9 23 161 322 6 167 276 268 144 76 
26 9 245 166 58 15 140 71 40 168 221 
27 9 289 83 172 65 7 18 138 98 53 
28 9 20 247 214 292 190 213 97 132 69 
29 9 320 235 291 123 131 104 247 175 297 
30 8 55 105 116 136 37 217 189 112 
31 9 124 64 197 145 33 51 241 108 81 
32 9 72 78 176 122 12 301 45 73 163 
33 9 241 51 108 38 222 31 107 230 196 
34 8 233 95 260 254 194 7 178 27 
35 9 66 309 269 243 250 128 319 165 17 
36 9 232 22 210 168 332 26 58 140 218 
37 9 105 30 217 55 136 189 270 116 226 
38 9 230 222 108 241 310 107 33 68 51 
39 9 164 246 333 191 304 154 300 318 238 
40 9 15 294 140 117 113 58 168 244 210 
41 9 208 257 300 219 127 46 238 335 23 
42 5 297 299 327 175 274 
43 9 303 279 277 3 8 321 137 192 336 
44 9 332 200 121 91 142 232 49 22 256 
45 9 73 78 12 72 32 149 89 204 176 
46 9 335 219 223 145 41 257 208 64 23 
47 9 85 193 312 201 242 285 272 148 273 
48 8 195 131 104 273 123 143 328 193 
49 9 91 60 256 121 200 44 305 142 332 
50 9 11 330 79 156 271 146 132 259 311 
51 9 241 108 222 107 33 38 230 242 272 
52 9 331 302 54 220 75 111 17 70 286 
53 9 100 138 137 8 317 336 83 65 172 
54 9 302 331 52 17 70 220 263 111 286 
55 8 105 30 136 116 217 189 37 112 
56 9 284 99 165 87 17 337 128 212 281 
57 9 288 252 227 170 71 184 101 228 166 
58 9 26 245 15 166 140 40 168 210 294 
59 9 24 157 125 253 126 101 162 170 218 
60 9 49 91 256 121 200 305 44 319 142 
61 9 174 182 84 127 287 180 318 191 300 
62 7 153 199 203 151 10 215 179 
63 9 198 207 121 44 103 22 96 49 91 
64 9 145 124 31 335 223 46 185 197 33 
65 9 172 98 289 83 251 53 138 27 178 
66 9 35 128 309 165 284 243 269 17 56 
67 9 81 77 177 197 328 187 223 124 158 
68 9 86 152 230 181 310 265 38 206 239 
69 9 186 163 122 90 176 292 190 130 301 
70 9 263 220 92 286 54 111 331 302 280 
71 9 160 221 288 166 245 57 133 252 26 
72 9 32 78 176 12 122 301 45 73 163 
73 9 45 78 149 32 72 89 204 3 12 
74 8 21 141 329 109 119 293 248 304 
75 9 316 52 337 258 14 331 134 99 302 
76 9 5 6 238 161 322 109 119 144 23 
77 9 328 67 177 81 158 197 187 195 48 
78 9 32 72 45 73 12 176 301 122 163 
79 9 311 50 261 156 146 132 271 228 11 
80 8 334 325 151 19 275 10 202 179 
81 9 177 197 67 77 124 328 187 223 31 
82 9 115 229 150 19 275 192 209 308 303 
83 9 289 172 27 138 65 18 53 98 317 
84 8 287 61 180 182 237 174 318 191 
85 9 47 193 312 242 201 285 272 148 273 
86 9 68 206 9 239 265 118 120 310 152 
87 9 99 337 281 56 14 284 316 212 165 
88 9 118 9 206 86 264 239 310 265 120 
89 9 204 149 321 336 277 73 3 8 45 
90 9 130 163 186 69 176 122 190 72 32 
91 9 49 60 256 121 200 44 305 142 332 
92 9 2 286 113 280 111 296 294 173 244 
93 9 298 4 326 267 181 290 148 152 201 
94 6 268 211 16 314 276 167 
95 9 254 260 34 194 233 7 212 324 27 
96 9 307 103 218 22 36 24 232 198 295 
97 8 215 334 80 203 325 28 20 151 
98 8 251 65 172 178 289 323 83 53 
99 9 337 87 56 165 17 281 284 316 14 
100 9 53 137 336 8 138 317 321 279 43 
101 9 170 227 252 157 288 57 166 245 26 
102 7 114 225 185 314 16 231 211 
103 9 96 307 218 295 198 22 24 36 232 
104 8 123 131 175 48 297 195 235 143 
105 8 55 30 136 217 116 37 189 112 
106 9 134 147 169 14 281 316 324 317 18 
107 9 222 108 230 272 285 241 51 181 242 
108 9 241 51 222 107 38 230 33 272 242 
109 8 119 141 304 329 74 5 76 21 
110 8 296 173 280 129 111 286 2 92 
111 8 220 296 280 286 110 92 173 2 
112 7 293 154 304 141 333 119 74 
113 9 2 294 92 244 40 117 15 280 286 
114 7 102 185 225 231 314 16 33 
115 9 82 229 19 150 275 192 209 308 325 
116 6 55 136 30 105 112 189 
117 9 244 294 40 113 140 168 210 15 240 
118 9 88 9 206 86 239 265 264 120 236 
119 8 109 141 304 74 329 333 293 76 
120 8 155 265 239 236 206 9 86 118 
121 9 49 91 60 256 44 200 207 332 142 
122 9 176 186 301 163 69 32 72 90 78 
123 8 131 104 235 175 48 297 195 143 
124 9 31 64 197 145 81 223 51 33 177 
125 9 126 311 162 228 227 101 157 261 57 
126 9 125 228 311 227 184 57 101 170 146 
127 9 300 208 182 191 41 61 318 174 39 
128 9 284 56 66 165 17 99 35 212 87 
129 8 173 221 110 160 15 2 280 296 
130 9 90 163 176 186 69 12 72 122 32 
131 8 123 104 48 235 175 195 297 143 
132 9 271 213 214 190 50 79 11 90 130 
133 6 262 160 221 71 129 110 
134 9 169 106 147 316 14 281 75 317 337 
135 5 139 249 306 13 94 
136 8 55 105 116 189 217 112 30 293 
137 9 8 279 100 321 336 53 43 303 277 
138 9 53 83 317 100 289 18 172 65 137 
139 5 135 249 13 306 94 
140 9 40 168 15 210 294 58 117 244 113 
141 8 109 119 74 21 329 304 293 154 
142 9 332 200 210 232 168 117 44 244 140 
143 8 273 193 148 290 47 85 312 195 
144 7 188 5 338 167 6 161 76 
145 9 64 335 124 46 223 31 219 197 81 
146 9 156 184 228 311 50 79 259 57 126 
147 9 106 324 18 317 169 134 138 7 100 
148 9 290 326 193 312 143 201 47 267 273 
149 9 89 204 73 321 45 277 336 3 8 
150 8 209 229 19 82 115 179 308 275 
151 9 10 80 179 19 334 159 150 209 275 
152 9 181 68 4 230 298 86 93 267 107 
153 8 203 215 97 151 334 62 80 247 
154 8 293 304 333 112 246 39 164 119 
155 7 120 265 239 236 206 9 86 
156 9 146 184 228 50 311 79 259 11 330 
157 9 101 170 227 252 288 57 126 166 26 
158 9 77 328 67 81 177 48 197 195 187 
159 5 179 209 150 10 19 
160 8 221 71 133 129 262 173 110 166 
161 9 6 322 23 76 5 25 238 144 167 
162 9 125 261 126 311 79 59 228 146 184 
163 9 186 90 69 176 122 130 32 72 301 
164 9 39 246 333 304 191 154 300 238 318 
165 9 17 56 99 284 54 128 302 87 337 
166 9 245 26 58 71 221 288 252 15 160 
167 6 188 144 25 268 6 161 
168 9 210 140 40 117 15 58 244 294 142 
169 9 134 106 147 316 14 317 281 89 204 
170 9 101 227 252 288 57 157 166 71 245 
171 7 88 183 118 196 264 282 9 
172 9 65 289 83 98 27 138 251 53 178 
173 8 110 129 296 280 2 221 286 92 
174 9 61 182 84 127 208 287 300 180 191 
175 7 297 104 123 131 235 299 42 
176 9 72 32 122 163 186 78 90 130 69 
177 9 81 67 197 187 77 328 124 242 31 
178 8 251 323 98 65 172 289 27 83 
179 8 10 159 209 150 19 151 229 115 
180 7 287 84 318 182 191 61 237 
181 9 4 152 267 298 230 93 107 68 272 
182 9 61 127 84 191 318 174 180 287 300 
183 8 282 236 9 88 118 206 239 265 
184 9 228 146 156 57 288 227 71 311 252 
185 9 225 231 114 314 16 102 64 276 211 
186 9 69 163 122 90 176 130 301 32 72 
187 9 242 85 47 193 177 272 285 312 201 
188 5 144 167 338 306 5 
189 8 217 136 112 21 105 293 74 55 
190 9 292 69 90 186 163 20 130 122 271 
191 9 318 246 300 39 127 164 182 180 333 
192 9 3 303 43 277 279 82 115 216 229 
193 9 47 85 312 201 148 273 143 285 242 
194 9 7 27 324 18 289 83 172 65 178 
195 8 48 273 143 193 47 187 85 148 
196 9 264 310 38 88 118 86 68 9 206 
197 9 81 177 124 67 31 223 145 187 77 
198 9 63 207 103 96 22 44 307 121 232 
199 4 159 179 10 151 
200 9 142 256 91 44 49 60 332 121 305 
201 9 312 285 272 47 85 193 267 242 148 
202 8 325 275 216 301 115 82 19 334 
203 8 215 153 97 151 334 80 10 179 
204 9 89 149 321 336 277 8 73 3 279 
205 9 270 226 283 315 217 189 21 248 74 
206 9 9 118 239 88 265 86 120 236 155 
207 9 121 63 49 91 60 44 198 256 200 
208 9 41 300 127 257 219 182 191 46 164 
209 7 150 229 19 179 159 115 82 
210 9 168 140 40 117 15 58 244 294 142 
211 7 268 94 16 314 231 276 225 
212 9 87 284 56 281 99 337 14 128 165 
213 9 214 132 271 190 20 79 261 90 50 
214 9 213 132 271 190 20 28 292 90 79 
215 8 97 203 334 80 151 325 10 153 
216 9 202 301 275 325 192 3 122 73 82 
217 9 189 105 136 270 55 37 226 205 30 
218 9 307 96 36 22 157 103 232 24 101 
219 9 46 223 335 41 208 257 145 127 300 
220 9 111 286 280 296 331 70 92 110 302 
221 8 160 129 71 173 133 166 245 110 
222 9 108 107 241 51 230 38 272 285 181 
223 9 219 46 335 145 197 124 81 64 67 
224 8 330 259 11 258 50 12 45 156 
225 9 231 314 16 185 211 276 102 114 268 
226 9 270 205 217 283 189 315 37 105 21 
227 9 170 252 101 57 288 157 71 126 184 
228 9 184 146 156 57 311 126 227 288 252 
229 9 82 115 150 19 209 308 192 275 303 
230 9 38 68 152 181 107 222 108 4 86 
231 9 314 16 225 211 276 268 185 94 25 
232 9 332 22 36 142 44 210 168 200 140 
233 8 34 194 178 95 7 27 251 323 
234 9 240 305 319 244 263 117 113 70 92 
235 8 123 131 104 175 297 48 320 29 
236 7 120 239 265 155 206 9 118 
237 7 287 84 180 61 182 318 174 
238 9 76 322 6 161 5 257 23 164 39 
239 9 265 120 155 206 236 9 86 118 88 
240 9 234 244 117 305 113 319 92 263 2 
241 9 51 108 222 107 33 38 230 242 272 
242 9 85 272 285 47 201 312 193 187 107 
243 9 309 319 263 305 234 250 70 240 35 
244 9 117 113 294 40 140 240 2 15 168 
245 9 166 26 58 71 221 15 288 140 252 
246 8 39 164 333 191 154 304 318 293 
247 9 28 20 291 97 215 214 292 213 190 
248 9 338 329 21 74 306 144 188 13 5 
249 4 306 135 13 94 
250 9 269 309 243 60 319 49 256 91 305 
251 8 98 178 323 65 172 289 83 27 
252 9 170 288 227 57 101 71 166 245 26 
253 9 24 295 59 218 307 96 103 157 237 
254 9 95 260 34 194 212 233 7 324 27 
255 9 313 269 250 207 121 49 60 91 256 
256 9 60 91 49 200 121 305 44 142 319 
257 9 41 208 23 238 322 46 300 161 335 
258 7 224 259 75 262 133 52 316 
259 8 224 330 156 258 50 146 262 11 
260 9 95 254 34 233 194 7 212 27 324 
261 9 79 311 162 213 132 125 214 126 50 
262 6 133 160 221 71 129 110 
263 9 70 234 319 240 305 243 92 54 286 
264 9 310 196 86 88 118 68 38 9 206 
265 9 120 239 155 236 206 9 86 118 68 
266 9 42 297 235 175 327 29 123 299 104 
267 9 4 326 201 298 181 312 93 285 272 
268 6 94 211 276 167 16 314 
269 9 250 313 35 255 309 243 66 319 60 
270 9 226 205 217 189 283 315 37 105 136 
271 9 132 213 11 130 90 214 50 190 330 
272 9 285 201 312 242 85 47 267 193 107 
273 9 143 193 47 148 290 85 312 195 201 
274 3 327 299 42 
275 9 325 202 19 115 82 216 229 80 150 
276 9 211 231 268 25 314 16 94 167 225 
277 9 43 3 279 321 303 8 192 204 336 
278 8 135 139 102 16 314 94 225 249 
279 9 43 303 8 277 321 137 3 336 192 
280 8 296 286 111 110 92 173 2 220 
281 9 14 87 337 316 106 99 134 147 169 
282 8 183 236 9 118 206 88 239 265 
283 9 315 205 248 13 21 74 270 329 338 
284 9 56 128 165 99 87 212 17 337 281 
285 9 272 201 312 85 242 47 267 193 107 
286 9 280 111 92 296 220 2 110 173 113 
287 7 180 84 318 182 237 61 191 
288 9 57 252 71 227 170 101 166 245 160 
289 9 83 172 27 65 138 18 53 98 100 
290 9 148 326 143 193 312 201 267 273 47 
291 9 320 247 29 28 158 20 131 235 214 
292 9 190 69 186 20 163 90 122 301 176 
293 8 154 112 304 141 333 119 109 74 
294 9 40 15 113 2 117 244 140 92 168 
295 9 253 24 103 96 307 218 59 198 30 
296 8 280 110 111 286 173 220 92 2 
297 7 175 42 104 123 299 235 131 
298 9 93 4 267 326 181 152 290 148 201 
299 4 274 42 327 297 
300 9 127 208 191 41 39 164 182 318 246 
301 9 122 32 72 176 216 78 186 69 163 
302 9 54 331 52 220 70 17 111 286 263 
303 9 43 279 277 3 192 8 321 137 308 
304 8 333 154 119 293 109 141 164 39 
305 9 319 234 240 256 60 200 263 49 91 
306 5 188 13 249 338 248 
307 9 96 218 103 22 36 232 24 332 157 
308 8 303 229 43 279 82 137 115 150 
309 9 243 319 35 250 263 305 234 70 54 
310 9 264 196 86 68 38 88 118 230 9 
311 9 79 146 228 156 126 261 184 125 50 
312 9 201 47 85 285 193 272 148 267 242 
313 9 255 269 250 35 207 309 66 243 60 
314 8 16 231 211 225 276 94 268 185 
315 9 283 13 248 205 21 306 338 329 74 
316 9 14 75 337 281 134 106 169 99 87 
317 9 138 100 18 53 336 147 83 289 8 
318 7 191 180 182 246 287 39 127 
319 9 305 234 263 243 240 256 60 309 49 
320 9 29 291 235 131 123 104 48 247 175 
321 9 8 336 277 279 43 137 204 303 89 
322 9 161 6 23 76 238 25 5 257 144 
323 7 178 251 98 65 172 308 289 
324 9 18 7 147 27 106 317 83 138 289 
325 8 202 275 216 80 334 19 115 82 
326 9 290 148 267 93 298 4 201 312 193 
327 3 274 299 42 
328 9 77 67 177 81 187 195 48 158 197 
329 9 74 21 109 141 119 248 338 5 144 
330 9 11 50 224 259 271 130 12 156 90 
331 9 302 52 54 220 111 70 286 280 296 
332 9 142 232 44 200 22 210 168 36 117 
333 8 304 164 39 246 154 119 293 109 
334 8 80 325 202 97 275 215 19 151 
335 9 46 145 219 223 64 257 41 23 124 
336 9 321 8 100 137 204 279 89 277 43 
337 9 99 87 316 14 281 75 56 52 17 
338 7 144 248 188 329 5 306 167 
DEPOT_SECTION
   1
   -1
EOF
