NAME :  X-n376-kX-w37-c11.cctp
COMMENT : 	Adapted by Maziero, Usberti and Cavellucci from the Uchoa, Pecin, Pessoa, Poggi, Subramanian, and Vidal (2013)
TYPE :  CCTP
DIMENSION :    282
EDGE_WEIGHT_TYPE : 	EUC_2D	
CAPACITY : 	4
VERTICES_WITHIN_COVERAGE :  11
VERTICES_WITH_DEMAND : 	37
NODE_COORD_SECTION
1 0 0
2 989 944
3 5 730
4 769 200
5 698 515
6 72 561
7 52 397
8 839 271
9 140 724
10 339 580
11 30 850
12 820 815
13 555 844
14 388 709
15 323 438
16 159 983
17 989 233
18 644 167
19 766 151
20 387 690
21 193 140
22 863 192
23 149 123
24 609 119
25 121 204
26 625 537
27 716 123
28 8 219
29 429 956
30 844 970
31 661 66
32 347 202
33 979 314
34 255 772
35 634 504
36 466 48
37 330 90
38 929 245
39 236 130
40 251 486
41 758 203
42 798 71
43 212 595
44 967 478
45 581 534
46 883 899
47 287 432
48 53 374
49 344 325
50 647 72
51 63 976
52 433 168
53 538 891
54 142 134
55 234 394
56 473 750
57 130 999
58 655 588
59 16 235
60 87 78
61 631 868
62 304 743
63 624 81
64 831 984
65 312 157
66 641 435
67 189 201
68 906 949
69 601 486
70 746 904
71 854 201
72 994 111
73 584 875
74 316 741
75 150 56
76 377 988
77 371 762
78 401 741
79 890 126
80 797 335
81 9 301
82 923 259
83 586 782
84 103 99
85 166 987
86 896 750
87 383 86
88 603 863
89 590 78
90 40 554
91 755 120
92 603 102
93 279 404
94 1 481
95 237 925
96 755 779
97 607 107
98 744 130
99 491 28
100 602 512
101 391 982
102 730 604
103 758 153
104 831 894
105 355 206
106 382 353
107 887 133
108 286 835
109 103 743
110 89 845
111 689 515
112 903 330
113 713 261
114 282 745
115 320 130
116 531 25
117 887 949
118 765 502
119 174 187
120 993 233
121 25 851
122 228 228
123 722 969
124 133 115
125 175 663
126 134 106
127 325 78
128 166 547
129 416 965
130 284 119
131 169 541
132 302 72
133 537 7
134 59 816
135 139 74
136 719 235
137 184 528
138 863 957
139 821 476
140 400 49
141 293 179
142 104 271
143 882 906
144 18 221
145 819 101
146 971 397
147 454 960
148 348 657
149 745 122
150 3 510
151 981 283
152 167 323
153 869 880
154 844 154
155 53 544
156 443 825
157 879 809
158 402 59
159 719 31
160 204 791
161 615 578
162 821 381
163 594 837
164 331 365
165 157 938
166 147 59
167 138 140
168 354 240
169 435 976
170 552 29
171 792 147
172 635 236
173 180 793
174 743 136
175 686 38
176 415 672
177 678 523
178 868 224
179 132 915
180 513 74
181 757 295
182 859 823
183 398 959
184 360 94
185 506 114
186 240 808
187 434 756
188 628 184
189 22 999
190 374 19
191 707 963
192 750 278
193 788 95
194 653 222
195 730 753
196 144 957
197 404 597
198 849 288
199 321 355
200 294 41
201 43 501
202 175 695
203 949 443
204 245 169
205 848 143
206 153 521
207 436 824
208 126 2
209 659 523
210 370 702
211 330 488
212 420 88
213 630 555
214 568 848
215 92 747
216 126 152
217 18 275
218 875 151
219 598 777
220 819 522
221 112 727
222 697 29
223 243 155
224 563 820
225 645 62
226 645 77
227 193 643
228 96 519
229 336 319
230 998 266
231 990 922
232 753 566
233 646 537
234 386 478
235 344 512
236 151 492
237 625 949
238 251 208
239 680 428
240 135 843
241 171 19
242 405 150
243 146 654
244 82 631
245 417 950
246 121 982
247 209 292
248 180 796
249 51 162
250 628 521
251 596 600
252 605 229
253 378 53
254 95 447
255 899 216
256 304 713
257 305 760
258 636 482
259 954 189
260 470 857
261 450 97
262 811 886
263 453 64
264 230 919
265 258 429
266 20 95
267 57 298
268 136 129
269 62 213
270 852 852
271 538 110
272 987 849
273 418 966
274 391 92
275 552 802
276 571 581
277 71 227
278 311 90
279 528 124
280 321 456
281 978 276
282 239 960
DEMAND_SECTION
2 1
3 1
4 1
5 1
6 1
7 1
8 1
9 1
10 1
11 1
12 1
13 1
14 1
15 1
16 1
17 1
18 1
19 1
20 1
21 1
22 1
23 1
24 1
25 1
26 1
27 1
28 1
29 1
30 1
31 1
32 1
33 1
34 1
35 1
36 1
37 1
38 1
COVERAGE_SECTION
2 9 231 68 272 117 143 46 138 153 30 
3 11 215 109 134 221 11 121 244 9 110 243 240 
4 11 41 103 19 171 136 174 98 192 91 149 113 
5 11 111 177 209 233 35 118 250 258 232 26 213 
6 11 155 90 228 201 244 150 206 128 131 236 94 
7 11 48 254 94 267 201 81 150 217 228 142 152 
8 11 198 178 71 80 255 22 82 181 112 192 38 
9 11 221 109 202 215 125 243 173 248 160 227 244 
10 10 197 235 148 211 234 176 20 280 210 43 
11 10 121 134 110 240 215 179 3 51 109 221 
12 10 182 270 157 262 96 104 153 86 46 195 
13 11 214 224 163 73 275 53 88 83 61 219 260 
14 11 20 210 78 176 77 148 187 74 256 62 56 
15 11 280 47 211 93 265 164 234 235 199 40 55 
16 10 85 196 57 246 165 179 282 51 264 95 
17 11 120 230 281 151 259 38 82 33 255 178 72 
18 10 188 194 24 97 172 252 92 27 63 226 
19 11 103 171 174 98 91 149 4 41 27 193 145 
20 11 14 210 176 148 78 77 187 256 74 197 62 
21 11 39 23 54 119 223 167 268 204 67 124 126 
22 11 71 178 154 218 255 205 107 79 8 171 38 
23 11 54 268 124 167 126 216 21 135 84 166 75 
24 11 97 92 63 89 226 18 50 225 188 271 31 
25 11 216 277 119 269 167 67 142 54 268 249 23 
26 11 250 213 233 35 100 209 161 45 177 69 258 
27 11 98 149 174 91 103 19 193 31 171 18 226 
28 11 144 59 269 217 277 249 81 267 142 25 266 
29 9 245 273 129 169 147 183 101 76 260 
30 11 64 138 117 68 143 104 46 262 153 70 270 
31 11 50 225 226 175 63 222 92 97 159 89 24 
32 11 105 168 65 141 115 242 52 238 130 204 184 
33 11 151 281 230 82 112 17 120 146 38 255 259 
34 11 114 186 257 160 62 74 108 256 173 248 202 
35 11 250 258 209 100 26 233 69 177 213 111 45 
36 10 263 99 261 180 212 158 140 116 185 133 
37 11 127 278 184 132 115 87 130 200 253 274 65 
38 11 82 255 281 17 259 151 120 178 230 22 33 
39 11 223 204 21 130 141 238 65 115 119 67 278 
40 10 265 47 280 137 211 15 93 55 235 131 
41 11 4 103 136 19 171 174 113 98 192 149 91 
42 8 193 145 91 149 171 98 174 19 
43 11 227 128 131 137 125 243 206 202 40 236 10 
44 6 203 146 139 220 112 33 
45 11 100 26 276 250 69 213 161 35 233 251 258 
46 11 143 153 117 104 68 270 138 262 182 30 157 
47 9 93 265 15 280 40 55 211 164 199 
48 11 7 267 254 81 217 142 94 152 201 59 150 
49 8 229 199 164 106 168 93 15 105 
50 11 226 225 31 63 175 92 97 89 24 222 159 
51 11 189 246 57 196 179 16 165 85 11 121 110 
52 7 242 261 212 105 274 185 32 
53 11 73 13 214 88 224 260 163 275 61 237 147 
54 11 167 268 23 124 216 126 21 84 135 119 25 
55 8 265 93 47 40 199 152 15 164 
56 10 187 78 156 207 14 275 176 77 20 260 
57 10 246 16 85 196 165 51 179 189 282 264 
58 8 161 213 233 26 251 209 177 250 
59 11 144 28 217 269 277 81 267 249 142 25 216 
60 9 84 135 126 124 166 75 266 268 23 
61 9 88 73 163 214 13 237 224 53 83 
62 11 74 257 114 256 34 77 210 14 186 108 78 
63 11 226 50 225 92 97 89 31 24 175 18 170 
64 11 30 138 117 68 104 143 46 262 123 153 70 
65 11 115 141 130 32 105 278 204 37 223 184 127 
66 6 239 258 69 35 100 250 
67 11 119 122 21 238 204 25 223 167 216 54 39 
68 11 117 138 143 46 30 153 2 64 231 104 270 
69 10 100 258 35 250 45 26 66 233 209 213 
70 9 262 123 191 104 12 64 30 270 61 
71 11 22 178 255 154 218 205 8 107 171 79 4 
72 8 259 79 107 17 120 218 255 38 
73 11 88 214 163 13 61 53 224 275 237 83 219 
74 11 62 257 256 114 77 210 34 14 78 20 148 
75 11 166 135 241 126 208 124 84 23 60 268 54 
76 8 101 183 129 273 245 169 29 147 
77 11 78 14 74 210 187 257 62 20 256 207 114 
78 10 14 187 77 210 20 176 56 74 207 156 
79 9 107 218 205 154 22 145 71 255 259 
80 7 162 181 198 192 8 112 113 
81 11 217 267 59 144 28 48 277 142 269 7 249 
82 11 38 255 281 151 178 17 112 120 230 259 33 
83 8 219 275 224 163 214 13 88 73 
84 10 60 126 124 135 268 23 54 167 216 166 
85 10 16 196 57 246 165 282 179 264 95 51 
86 3 157 182 12 
87 11 274 184 158 253 212 140 37 127 190 242 261 
88 11 73 61 163 214 13 224 53 275 83 219 237 
89 10 92 63 97 24 226 50 225 271 170 31 
90 11 155 6 201 150 228 94 244 206 254 128 236 
91 11 149 98 174 19 103 27 193 171 42 145 4 
92 10 97 24 89 63 226 50 225 271 31 18 
93 8 47 265 55 15 164 199 280 40 
94 11 150 201 155 90 7 254 228 6 48 236 206 
95 6 264 282 165 85 16 196 
96 6 195 12 182 262 270 70 
97 11 92 24 63 89 226 50 225 31 271 18 188 
98 11 174 149 91 103 27 19 171 193 4 41 42 
99 10 36 116 133 180 263 170 261 185 140 212 
100 11 69 250 45 35 26 258 213 233 209 161 276 
101 8 76 183 129 273 245 169 29 147 
102 4 232 58 5 177 
103 11 19 174 98 91 149 171 4 41 27 193 145 
104 11 262 153 270 46 143 138 182 30 117 12 70 
105 11 32 168 65 141 242 115 52 238 130 184 229 
106 8 49 164 229 199 15 93 168 280 
107 10 79 218 205 154 22 145 71 255 259 178 
108 7 186 34 257 114 160 62 74 
109 11 215 221 9 134 202 173 248 3 243 110 240 
110 9 134 240 11 121 179 215 109 248 173 
111 11 5 177 209 233 35 250 258 26 213 118 58 
112 10 198 82 33 8 38 151 281 146 162 80 
113 7 136 192 181 194 41 172 4 
114 11 62 257 74 34 256 186 108 77 160 210 148 
115 11 65 130 37 278 127 184 141 132 32 87 223 
116 10 133 170 99 180 36 89 271 263 185 279 
117 11 68 138 143 30 46 64 153 104 262 2 270 
118 8 220 139 232 5 111 177 102 209 
119 11 67 21 25 167 216 54 122 23 268 204 223 
120 11 17 230 281 151 259 38 82 33 255 72 178 
121 10 11 134 110 240 3 215 179 51 109 189 
122 11 238 67 204 247 119 223 141 21 39 25 65 
123 9 191 70 237 64 30 262 104 61 138 
124 11 126 268 23 54 167 84 216 135 166 60 75 
125 11 227 243 202 9 43 221 244 109 128 215 131 
126 11 124 23 268 54 84 135 167 216 166 75 60 
127 11 37 278 132 184 200 115 130 87 253 274 190 
128 11 131 137 206 236 43 228 6 227 40 243 155 
129 8 273 245 29 183 169 101 147 76 
130 11 115 278 65 39 132 37 223 127 141 204 200 
131 10 128 137 206 236 43 228 6 40 227 243 
132 11 278 127 200 37 130 115 184 253 87 65 39 
133 10 116 170 99 180 36 89 263 271 185 63 
134 10 110 11 121 215 240 109 3 221 9 173 
135 11 166 75 126 124 84 23 60 268 54 241 167 
136 9 113 41 192 4 194 181 172 103 19 
137 10 131 128 206 236 43 40 228 227 6 254 
138 11 30 117 64 68 143 46 104 153 262 270 2 
139 6 220 118 162 232 5 203 
140 11 158 253 190 87 212 274 263 184 36 261 127 
141 11 65 204 238 223 115 32 130 105 39 122 168 
142 11 267 277 25 269 152 217 59 144 81 247 28 
143 11 46 153 117 68 104 138 270 30 262 182 64 
144 11 28 59 269 277 217 249 81 267 142 25 266 
145 9 193 42 205 171 154 91 19 79 107 
146 9 203 44 33 112 151 281 230 82 162 
147 10 29 169 273 129 245 183 101 76 260 53 
148 11 210 20 14 176 256 10 197 74 62 78 77 
149 11 98 91 174 27 103 19 193 171 42 145 4 
150 11 94 201 90 155 6 228 254 7 48 244 236 
151 11 281 230 33 17 120 82 38 112 259 255 146 
152 8 247 142 55 122 267 67 48 25 
153 11 46 143 270 104 182 262 117 157 138 68 12 
154 11 205 218 22 71 107 171 79 145 178 19 193 
155 11 90 6 201 228 150 94 244 206 254 236 128 
156 8 207 260 187 56 78 77 275 13 
157 8 182 270 12 86 153 46 143 104 
158 11 140 253 87 212 274 190 263 184 261 36 37 
159 10 222 175 31 225 50 226 42 27 193 149 
160 9 173 248 186 34 240 114 9 108 202 
161 10 213 251 58 26 276 233 45 250 100 209 
162 6 80 139 112 198 181 8 
163 10 88 214 224 73 13 61 275 83 219 53 
164 9 199 49 229 106 93 15 47 280 265 
165 9 196 179 16 85 246 57 264 95 282 
166 11 75 135 241 126 124 84 208 60 23 268 54 
167 11 54 268 216 23 124 126 84 21 119 25 135 
168 10 105 32 229 49 141 65 242 52 238 115 
169 9 273 29 129 147 245 183 101 76 260 
170 10 116 133 180 99 89 271 36 63 92 97 
171 11 19 103 91 174 98 154 193 145 149 205 4 
172 6 194 252 188 18 113 136 
173 9 248 160 186 240 34 9 109 221 202 
174 11 98 149 91 103 19 27 171 193 4 41 145 
175 11 222 159 31 225 50 226 63 27 149 89 92 
176 9 20 14 210 148 78 197 187 56 77 
177 11 111 209 5 233 35 250 26 213 258 58 100 
178 11 71 22 255 8 38 82 198 218 154 205 107 
179 9 165 196 246 240 16 85 110 57 51 
180 10 185 271 99 116 279 36 170 263 261 133 
181 8 192 113 80 136 8 41 198 4 
182 9 157 270 12 153 104 262 46 86 143 
183 8 129 245 273 101 29 76 169 147 
184 11 87 37 274 127 253 278 115 158 140 212 132 
185 8 279 271 180 261 263 36 99 212 
186 9 34 160 108 248 173 114 257 62 74 
187 9 78 56 77 14 207 156 20 210 176 
188 9 18 194 252 172 24 97 92 63 136 
189 11 51 246 57 196 16 179 85 121 165 11 110 
190 11 253 140 158 87 274 184 127 200 212 37 132 
191 9 123 70 237 61 64 262 30 104 88 
192 8 181 113 136 80 41 4 8 198 
193 9 42 145 91 149 171 98 19 174 103 
194 7 172 188 252 18 136 113 41 
195 2 96 12 
196 10 165 16 246 85 57 179 51 264 282 95 
197 6 10 176 148 20 235 210 
198 11 8 178 112 80 82 71 255 38 181 22 162 
199 9 164 49 229 106 93 15 47 55 265 
200 11 132 127 278 37 130 190 184 253 115 87 39 
201 11 150 155 94 90 228 6 254 7 236 206 48 
202 11 125 9 243 227 221 109 173 215 160 248 43 
203 7 44 146 112 33 139 162 220 
204 11 223 238 39 141 21 122 130 67 65 119 115 
205 11 154 218 107 79 22 145 171 71 193 19 178 
206 10 131 128 236 137 228 6 254 43 155 40 
207 8 156 260 187 56 77 78 275 13 
208 9 241 75 166 135 60 84 126 124 23 
209 11 177 233 35 111 250 26 5 213 258 100 58 
210 11 14 20 78 148 176 77 74 256 62 187 257 
211 9 235 280 15 234 47 40 10 265 93 
212 10 274 261 158 87 263 140 253 184 36 242 
213 11 26 233 161 250 58 209 35 100 45 251 177 
214 11 13 163 224 73 88 275 53 61 83 219 260 
215 11 109 221 9 134 3 110 202 173 248 240 243 
216 11 167 54 268 23 124 126 25 84 119 21 249 
217 11 81 59 267 144 28 277 269 142 48 249 25 
218 11 107 205 79 154 22 71 255 178 145 171 259 
219 7 83 275 224 163 214 13 88 
220 5 139 118 232 5 102 
221 11 109 9 215 202 243 125 173 248 244 134 3 
222 10 175 159 31 225 50 226 63 27 149 91 
223 11 204 39 21 238 130 141 65 67 122 119 115 
224 10 275 13 214 163 83 219 73 88 53 61 
225 11 50 226 31 63 175 89 92 97 222 24 159 
226 11 50 225 31 63 97 92 24 89 175 222 27 
227 11 125 243 43 202 9 128 131 244 137 221 206 
228 11 6 155 201 206 236 90 254 128 131 137 150 
229 8 49 199 164 106 168 93 105 32 
230 11 281 151 120 17 33 38 82 259 255 112 146 
231 9 2 272 68 117 46 143 153 138 30 
232 6 102 118 5 220 111 177 
233 11 209 26 213 250 35 177 111 100 161 58 5 
234 4 235 211 280 15 
235 8 211 234 280 10 15 40 47 197 
236 9 206 137 131 128 228 254 40 6 201 
237 9 61 191 73 88 123 53 163 214 13 
238 11 122 204 141 223 67 39 65 119 21 247 130 
239 5 66 258 111 5 35 
240 9 110 248 173 179 134 160 165 11 109 
241 11 75 166 208 135 126 60 124 84 23 268 54 
242 9 52 274 212 87 261 184 105 32 115 
243 11 125 227 202 244 9 221 43 109 215 128 131 
244 11 243 6 90 155 125 221 9 227 202 228 109 
245 8 29 129 273 183 169 147 101 76 
246 10 57 196 16 85 165 51 179 189 282 264 
247 9 152 122 67 238 55 142 119 25 204 
248 9 173 160 186 240 34 9 109 221 202 
249 10 269 144 277 28 266 216 59 25 84 167 
250 11 26 35 233 100 209 213 258 69 45 177 161 
251 8 161 276 213 58 45 26 233 250 
252 4 172 194 188 18 
253 11 140 158 87 190 274 184 212 127 37 263 278 
254 9 7 228 236 201 48 206 94 155 150 
255 11 178 38 22 71 82 259 218 8 154 107 198 
256 11 62 74 114 257 210 148 34 77 14 20 78 
257 11 62 74 114 256 34 77 108 186 210 14 78 
258 11 35 69 250 100 66 209 26 233 177 111 5 
259 11 17 120 38 255 82 107 72 218 230 79 281 
260 10 156 207 53 13 214 275 224 147 29 56 
261 9 212 263 36 185 274 158 180 87 140 
262 11 104 270 153 70 12 46 143 182 138 30 117 
263 11 36 261 212 158 99 140 180 274 87 185 253 
264 7 95 282 165 85 196 16 179 
265 8 47 93 55 40 15 280 211 164 
266 9 60 249 84 124 126 216 135 268 28 
267 11 217 81 142 277 59 48 269 144 28 7 152 
268 11 54 167 23 124 126 216 84 135 21 119 60 
269 11 277 144 59 249 28 25 142 217 267 216 81 
270 9 182 153 104 12 157 262 46 143 117 
271 8 279 185 180 89 92 97 24 170 
272 7 231 2 46 157 143 153 68 
273 8 129 29 245 169 183 101 147 76 
274 11 87 212 184 158 253 140 261 242 37 127 263 
275 9 224 83 13 214 219 163 73 88 53 
276 8 251 161 45 213 26 100 250 58 
277 11 269 144 25 142 59 28 249 217 267 216 81 
278 11 127 37 132 130 115 184 200 65 87 253 274 
279 8 271 185 180 89 92 24 97 261 
280 10 15 211 47 235 93 234 265 40 164 199 
281 11 151 230 33 17 120 38 82 259 112 255 146 
282 6 95 264 85 16 165 196 
DEPOT_SECTION
   1
   -1
EOF
