NAME :  X-n313-kX-w31-c7.cctp
COMMENT : 	Adapted by Maziero, Usberti and Cavellucci from the Uchoa, Pecin, Pessoa, Poggi, Subramanian, and Vidal (2013)
TYPE :  CCTP
DIMENSION :    145
EDGE_WEIGHT_TYPE : 	EUC_2D	
CAPACITY : 	248
VERTICES_WITHIN_COVERAGE :  7
VERTICES_WITH_DEMAND : 	31
NODE_COORD_SECTION
1 471 44
2 63 475
3 766 504
4 895 595
5 816 377
6 462 590
7 997 596
8 775 993
9 16 97
10 839 348
11 558 896
12 423 912
13 169 411
14 75 602
15 402 52
16 388 208
17 202 39
18 510 841
19 555 484
20 920 633
21 369 718
22 432 696
23 624 872
24 472 323
25 753 701
26 584 440
27 292 665
28 202 310
29 764 255
30 662 486
31 822 575
32 469 13
33 554 82
34 336 745
35 950 229
36 407 932
37 376 632
38 775 98
39 503 855
40 215 73
41 4 517
42 44 457
43 676 337
44 338 568
45 623 911
46 626 931
47 799 942
48 725 430
49 264 347
50 986 595
51 331 362
52 760 436
53 115 641
54 307 764
55 469 817
56 315 388
57 564 25
58 671 892
59 174 403
60 76 671
61 830 579
62 249 590
63 663 347
64 21 500
65 501 372
66 483 270
67 548 281
68 870 931
69 79 105
70 545 62
71 719 128
72 80 366
73 16 732
74 24 521
75 848 600
76 489 239
77 768 731
78 274 30
79 546 837
80 890 640
81 498 448
82 473 5
83 435 254
84 905 275
85 521 401
86 850 425
87 374 186
88 712 433
89 120 490
90 376 534
91 982 560
92 815 625
93 804 110
94 415 517
95 549 366
96 381 700
97 867 408
98 763 186
99 416 56
100 314 748
101 580 852
102 758 736
103 49 83
104 505 113
105 168 63
106 449 717
107 433 647
108 425 754
109 393 883
110 811 550
111 814 654
112 335 108
113 539 903
114 511 845
115 35 140
116 320 660
117 417 880
118 58 45
119 499 821
120 412 963
121 637 812
122 689 881
123 518 897
124 516 903
125 481 843
126 737 665
127 448 906
128 210 251
129 490 816
130 624 845
131 843 646
132 536 845
133 450 944
134 484 809
135 118 296
136 416 911
137 656 825
138 378 177
139 585 960
140 348 762
141 302 277
142 672 914
143 381 465
144 565 560
145 65 87
DEMAND_SECTION
2 94
3 56
4 73
5 25
6 4
7 97
8 82
9 57
10 41
11 98
12 45
13 86
14 5
15 83
16 99
17 78
18 64
19 44
20 69
21 25
22 44
23 64
24 59
25 72
26 10
27 26
28 56
29 1
30 41
31 69
32 62
COVERAGE_SECTION
2 7 42 64 89 74 41 72 13 
3 7 110 52 48 88 31 61 30 
4 7 20 80 75 61 131 31 92 
5 7 10 86 97 52 48 88 29 
6 6 107 94 37 90 144 22 
7 6 50 91 20 4 80 75 
8 3 47 68 142 
9 5 103 115 145 69 118 
10 7 5 97 86 84 52 29 48 
11 6 113 123 124 101 132 79 
12 6 136 36 127 117 109 133 
13 7 59 89 72 28 49 2 135 
14 7 53 60 74 41 64 89 2 
15 7 99 32 82 112 104 138 78 
16 6 87 138 83 76 141 66 
17 3 40 105 78 
18 6 114 39 119 132 125 129 
19 5 26 81 144 85 30 
20 6 80 4 50 131 75 7 
21 7 96 34 140 100 22 108 116 
22 5 106 107 96 108 21 
23 7 130 45 101 58 137 46 121 
24 7 66 65 83 76 67 95 85 
25 3 77 102 126 
26 7 19 85 95 81 30 65 144 
27 6 116 62 100 37 34 21 
28 4 128 49 135 59 
29 7 98 10 43 5 71 63 84 
30 5 88 48 26 3 19 
31 7 61 110 75 92 131 4 111 
32 7 82 99 15 70 57 104 33 
33 4 70 57 104 32 
34 5 140 100 54 21 96 
35 7 84 10 29 93 98 97 5 
36 7 136 12 120 133 127 109 117 
37 7 107 116 96 44 22 21 27 
38 4 93 71 98 29 
39 4 114 18 125 119 
40 2 17 105 
41 7 74 64 2 42 14 89 53 
42 6 2 64 74 41 89 72 
43 6 63 88 48 29 52 95 
44 7 90 37 62 94 116 27 143 
45 5 46 23 142 58 139 
46 4 45 142 139 23 
47 2 8 68 
48 7 88 52 30 3 63 5 43 
49 6 56 51 28 141 59 128 
50 6 7 91 20 4 80 75 
51 6 56 49 141 143 28 24 
52 7 48 88 3 5 86 30 97 
53 4 60 14 73 62 
54 4 100 34 140 21 
55 5 134 129 125 119 18 
56 7 51 49 143 141 28 59 13 
57 5 70 33 82 32 104 
58 5 122 142 23 45 46 
59 7 13 28 72 89 49 135 2 
60 3 53 14 73 
61 7 31 75 110 92 4 131 111 
62 6 27 44 116 37 90 53 
63 6 43 88 48 95 26 52 
64 7 74 41 2 42 89 14 72 
65 7 85 95 24 81 67 66 26 
66 6 76 83 24 67 65 16 
67 4 66 76 95 24 
68 2 47 8 
69 4 145 103 115 9 
70 5 33 57 104 32 82 
71 4 38 98 93 29 
72 5 135 42 13 59 2 
73 3 60 53 14 
74 7 41 64 2 42 14 89 53 
75 7 61 31 92 131 4 80 110 
76 5 66 83 67 24 16 
77 2 102 25 
78 3 17 40 112 
79 5 132 18 114 101 39 
80 5 20 4 131 75 92 
81 7 85 19 65 26 95 94 143 
82 7 32 99 15 70 57 33 104 
83 7 66 76 16 24 87 138 67 
84 7 35 10 5 97 29 86 98 
85 6 65 95 81 26 19 24 
86 7 97 5 10 52 3 48 110 
87 6 138 16 112 83 141 76 
88 7 48 52 30 3 63 43 5 
89 7 2 42 13 64 74 59 41 
90 7 94 44 143 37 6 107 116 
91 7 50 7 4 20 80 75 61 
92 5 111 131 75 61 31 
93 4 38 98 71 29 
94 7 90 143 6 44 81 37 107 
95 6 85 65 26 67 24 81 
96 7 21 22 34 37 106 108 140 
97 7 86 5 10 52 84 3 48 
98 4 29 71 93 38 
99 7 15 32 82 112 104 138 70 
100 4 54 34 140 21 
101 5 79 130 132 23 11 
102 2 77 25 
103 5 145 9 69 118 115 
104 5 33 70 32 57 99 
105 1 17 
106 5 22 108 96 107 21 
107 7 22 37 6 106 96 21 108 
108 3 106 22 21 
109 5 117 136 12 36 127 
110 5 31 61 75 3 92 
111 5 92 131 75 25 61 
112 5 138 15 87 99 78 
113 3 11 123 124 
114 6 18 39 132 119 125 79 
115 4 9 69 103 145 
116 7 27 37 96 21 34 100 44 
117 5 109 136 12 127 36 
118 4 103 145 69 9 
119 7 129 134 18 114 125 55 39 
120 5 36 133 12 136 127 
121 3 137 130 23 
122 5 58 142 137 23 45 
123 3 124 113 11 
124 3 123 113 11 
125 6 39 119 129 18 55 114 
126 1 25 
127 3 12 136 133 
128 1 28 
129 7 134 119 55 125 18 114 39 
130 4 23 121 137 101 
131 6 111 92 75 80 61 4 
132 6 79 114 18 39 119 101 
133 3 127 12 120 
134 6 129 55 119 125 18 114 
135 2 72 28 
136 7 12 36 117 127 109 133 120 
137 3 121 130 23 
138 6 87 16 112 83 141 15 
139 3 46 45 11 
140 5 34 100 54 21 96 
141 5 49 51 128 28 16 
142 5 58 122 45 46 23 
143 7 94 90 56 44 51 81 6 
144 2 19 6 
145 5 103 69 118 9 115 
DEPOT_SECTION
   1
   -1
EOF
