NAME :  X-n359-kX-w71-c11.cctp
COMMENT : 	Adapted by Maziero, Usberti and Cavellucci from the Uchoa, Pecin, Pessoa, Poggi, Subramanian, and Vidal (2013)
TYPE :  CCTP
DIMENSION :    304
EDGE_WEIGHT_TYPE : 	EUC_2D	
CAPACITY : 	68
VERTICES_WITHIN_COVERAGE :  11
VERTICES_WITH_DEMAND : 	71
NODE_COORD_SECTION
1 0 0
2 865 693
3 633 220
4 173 361
5 89 714
6 350 102
7 301 24
8 834 663
9 841 997
10 394 790
11 276 488
12 779 312
13 939 66
14 595 462
15 940 964
16 459 459
17 432 280
18 379 338
19 128 439
20 401 22
21 69 887
22 499 657
23 633 46
24 713 182
25 806 525
26 540 169
27 696 559
28 577 888
29 298 725
30 410 644
31 512 889
32 756 352
33 405 407
34 850 365
35 731 588
36 90 553
37 691 383
38 926 631
39 955 351
40 998 736
41 921 854
42 532 257
43 238 513
44 976 912
45 565 912
46 893 74
47 590 548
48 99 355
49 294 39
50 58 429
51 471 573
52 520 109
53 486 611
54 409 682
55 296 843
56 970 479
57 717 390
58 152 711
59 934 255
60 257 539
61 270 31
62 823 409
63 203 849
64 770 627
65 630 581
66 786 186
67 380 300
68 973 847
69 985 975
70 732 465
71 690 428
72 910 568
73 725 539
74 814 694
75 702 927
76 946 492
77 984 305
78 385 696
79 48 323
80 944 440
81 813 293
82 490 676
83 729 923
84 719 883
85 675 637
86 167 14
87 476 709
88 402 339
89 911 734
90 590 230
91 122 698
92 154 418
93 165 998
94 217 599
95 766 21
96 922 407
97 831 607
98 70 494
99 220 740
100 19 855
101 759 507
102 818 409
103 595 827
104 254 282
105 205 607
106 331 57
107 118 404
108 576 658
109 558 611
110 893 182
111 279 715
112 20 953
113 496 813
114 349 474
115 335 732
116 878 245
117 827 211
118 104 976
119 656 920
120 648 585
121 350 517
122 62 979
123 508 277
124 334 759
125 649 927
126 411 837
127 974 509
128 504 398
129 19 430
130 810 528
131 737 202
132 972 859
133 547 622
134 413 683
135 600 166
136 558 792
137 419 734
138 639 70
139 276 341
140 534 486
141 972 672
142 542 709
143 816 858
144 217 733
145 466 112
146 575 165
147 902 861
148 418 631
149 771 702
150 795 46
151 915 845
152 520 788
153 40 301
154 896 668
155 626 118
156 979 70
157 708 244
158 729 682
159 548 962
160 520 207
161 255 152
162 107 992
163 107 305
164 401 230
165 824 486
166 112 589
167 529 286
168 216 3
169 778 364
170 28 601
171 82 639
172 214 579
173 113 474
174 627 244
175 231 754
176 177 670
177 65 564
178 901 548
179 551 304
180 199 82
181 87 556
182 808 521
183 469 118
184 295 874
185 56 693
186 216 871
187 535 245
188 308 837
189 961 296
190 826 569
191 174 696
192 43 500
193 205 604
194 331 845
195 432 273
196 52 637
197 855 178
198 873 388
199 839 496
200 424 751
201 542 285
202 488 909
203 762 518
204 463 263
205 789 357
206 459 327
207 345 822
208 747 371
209 713 446
210 369 251
211 698 450
212 3 588
213 506 201
214 757 309
215 704 231
216 254 123
217 473 390
218 464 803
219 421 108
220 365 678
221 906 598
222 629 171
223 825 513
224 698 501
225 388 234
226 439 423
227 459 289
228 604 395
229 759 412
230 572 247
231 558 240
232 944 585
233 910 401
234 792 316
235 441 141
236 810 560
237 382 413
238 192 713
239 817 466
240 613 136
241 685 290
242 10 689
243 922 524
244 853 524
245 213 1
246 134 686
247 339 114
248 589 389
249 230 921
250 925 326
251 711 580
252 783 347
253 469 295
254 937 179
255 827 338
256 609 272
257 834 485
258 252 100
259 418 326
260 310 884
261 534 795
262 736 184
263 813 324
264 905 465
265 512 606
266 585 237
267 563 124
268 776 365
269 366 809
270 227 41
271 809 407
272 760 417
273 708 477
274 603 175
275 810 671
276 912 508
277 298 510
278 811 456
279 780 382
280 520 274
281 745 382
282 840 409
283 447 976
284 828 472
285 802 428
286 620 904
287 105 482
288 488 418
289 727 551
290 103 669
291 802 408
292 467 119
293 210 439
294 121 700
295 187 40
296 714 401
297 120 657
298 436 316
299 243 453
300 630 277
301 257 149
302 438 350
303 294 195
304 379 644
DEMAND_SECTION
2 10
3 8
4 9
5 7
6 9
7 1
8 3
9 1
10 8
11 10
12 8
13 10
14 2
15 4
16 9
17 2
18 3
19 10
20 3
21 1
22 4
23 3
24 8
25 3
26 5
27 6
28 7
29 9
30 1
31 1
32 8
33 3
34 10
35 2
36 4
37 10
38 2
39 8
40 5
41 10
42 9
43 9
44 2
45 10
46 3
47 7
48 7
49 6
50 1
51 7
52 1
53 4
54 6
55 7
56 8
57 2
58 9
59 3
60 1
61 6
62 4
63 1
64 5
65 3
66 3
67 1
68 6
69 6
70 8
71 10
72 3
COVERAGE_SECTION
2 11 154 8 74 275 89 38 97 149 221 141 64 
3 11 174 90 222 266 274 256 300 135 230 215 231 
4 11 92 107 48 293 163 19 139 104 299 173 79 
5 10 294 91 185 290 246 58 297 171 242 196 
6 11 247 106 219 49 7 20 216 258 235 301 61 
7 11 49 61 106 270 168 258 245 6 247 20 216 
8 11 275 74 2 97 154 64 149 190 38 221 89 
9 11 15 83 143 69 147 75 44 41 84 151 132 
10 10 269 200 126 207 137 124 218 115 194 78 
11 11 277 43 299 60 114 121 293 172 94 237 193 
12 11 234 214 252 263 81 32 205 169 268 255 208 
13 11 156 46 254 110 197 150 95 117 59 116 66 
14 11 140 228 248 47 71 211 224 128 273 288 209 
15 11 69 44 9 132 147 41 68 151 143 83 89 
16 8 226 288 217 33 128 140 237 114 
17 9 195 227 204 298 253 259 206 67 164 
18 11 88 67 259 302 298 33 237 17 206 195 210 
19 11 92 107 173 287 50 98 293 48 4 192 129 
20 11 106 219 6 7 49 145 247 292 183 235 61 
21 11 100 112 122 118 162 63 93 186 249 5 185 
22 11 82 53 265 87 133 142 109 108 148 51 30 
23 11 138 155 240 267 135 222 52 146 274 95 26 
24 11 262 131 215 157 66 222 3 174 155 240 274 
25 11 182 130 223 236 165 199 203 244 190 257 101 
26 8 146 160 213 267 135 52 274 231 
27 11 251 289 73 35 120 224 65 203 85 101 273 
28 11 45 286 103 31 159 125 119 202 136 261 113 
29 11 111 115 124 175 99 144 220 78 238 207 269 
30 11 148 304 54 134 220 78 53 82 22 137 87 
31 10 202 45 28 113 159 261 218 152 103 136 
32 11 208 268 169 252 281 205 279 214 12 234 57 
33 10 237 226 302 88 217 18 16 259 288 114 
34 11 198 255 282 62 102 263 271 205 291 252 233 
35 11 251 289 27 73 64 85 203 120 236 101 224 
36 10 181 177 166 98 192 287 170 173 171 196 
37 11 57 296 71 281 208 209 211 32 229 272 268 
38 11 221 154 232 141 72 2 178 8 97 89 243 
39 11 250 77 189 96 233 80 198 59 34 264 56 
40 11 141 89 68 154 132 38 151 2 41 147 232 
41 11 151 147 132 68 44 143 15 89 69 40 9 
42 9 187 280 167 201 123 231 230 160 179 
43 10 60 11 277 299 172 293 94 193 105 121 
44 11 132 15 69 68 41 147 151 9 143 40 89 
45 11 28 159 286 31 202 125 103 119 136 113 261 
46 11 13 156 150 110 197 254 95 117 66 116 59 
47 11 65 120 109 140 14 133 265 27 108 224 51 
48 11 163 107 79 4 153 92 50 19 129 173 287 
49 11 7 61 106 270 258 6 168 247 245 216 180 
50 11 129 107 98 19 173 287 192 48 92 79 36 
51 11 53 265 148 22 133 30 109 82 140 16 304 
52 8 267 183 145 292 26 146 235 213 
53 11 265 51 22 133 82 148 109 30 87 108 134 
54 11 134 78 30 220 304 148 137 200 87 82 115 
55 9 188 184 194 260 207 269 186 124 63 
56 10 76 127 80 276 243 264 96 178 233 72 
57 11 296 37 281 208 71 229 272 32 209 211 268 
58 11 191 246 91 294 238 176 5 297 290 144 99 
59 11 189 116 77 250 254 110 39 197 117 81 255 
60 10 43 277 11 172 94 193 105 299 121 293 
61 11 49 7 270 168 245 106 258 295 180 216 86 
62 11 102 271 282 291 285 278 279 34 198 239 205 
63 11 186 249 55 184 175 188 99 260 144 194 238 
64 11 35 275 97 158 8 149 251 236 74 190 289 
65 11 120 47 27 85 109 251 133 108 35 289 73 
66 11 117 262 131 197 24 215 157 110 116 81 12 
67 11 18 88 259 210 17 298 195 225 164 302 227 
68 11 132 41 151 44 147 40 15 69 89 143 141 
69 11 15 44 132 68 41 147 9 151 143 40 89 
70 11 209 273 211 101 224 71 272 229 203 296 73 
71 11 211 209 296 37 57 273 70 229 272 281 224 
72 11 178 221 232 243 276 38 244 76 190 127 97 
73 11 289 27 203 251 101 224 35 273 70 25 182 
74 11 275 8 149 2 64 154 158 97 89 190 38 
75 11 83 84 119 125 286 28 143 45 103 9 159 
76 10 56 127 276 243 264 80 178 72 96 232 
77 11 189 39 250 59 96 233 116 254 198 80 34 
78 11 220 54 134 137 304 30 115 200 148 124 29 
79 11 153 48 163 50 107 129 4 19 92 173 287 
80 10 96 264 56 76 233 127 276 243 198 39 
81 11 234 263 12 255 214 252 205 169 34 116 268 
82 11 22 87 142 53 265 134 133 54 148 30 108 
83 11 75 84 119 125 143 286 9 28 45 103 147 
84 10 83 75 119 125 143 286 103 28 45 9 
85 10 120 251 158 65 35 27 64 289 108 73 
86 6 295 245 168 270 180 61 
87 11 82 22 137 142 200 134 54 152 78 30 218 
88 10 259 18 302 298 67 206 17 33 195 227 
89 11 2 154 40 141 38 8 74 151 275 41 147 
90 11 266 230 231 174 3 256 187 274 300 42 135 
91 10 294 246 58 290 5 297 191 176 185 171 
92 11 19 107 4 293 173 287 48 299 50 98 163 
93 8 162 118 249 122 186 21 112 63 
94 9 193 105 172 60 176 43 166 191 297 
95 11 150 23 138 46 66 262 24 155 13 197 131 
96 10 233 80 198 264 39 250 282 34 56 76 
97 11 190 236 8 64 275 221 130 25 244 72 74 
98 11 192 287 173 36 181 50 177 19 129 107 166 
99 11 144 175 238 111 191 58 29 176 246 91 294 
100 11 21 112 122 118 5 162 185 242 63 294 91 
101 11 203 73 25 70 182 289 130 273 224 223 165 
102 11 62 271 291 282 285 279 278 34 239 198 229 
103 8 136 28 261 286 152 45 113 31 
104 10 139 303 4 210 67 161 301 18 225 163 
105 9 193 94 172 176 60 191 166 297 43 
106 11 49 7 6 247 61 20 258 216 219 270 301 
107 11 19 92 48 50 4 173 287 293 163 98 129 
108 10 133 109 142 22 265 82 65 85 53 120 
109 11 133 265 108 47 53 22 65 82 120 51 142 
110 11 197 254 116 117 59 66 46 13 189 81 156 
111 11 29 115 175 99 144 124 238 220 191 78 176 
112 11 122 21 118 162 100 93 63 186 249 5 185 
113 10 218 152 261 136 31 126 200 202 103 10 
114 11 121 277 237 11 33 226 299 16 60 43 18 
115 11 124 29 111 78 220 10 269 137 54 200 207 
116 11 59 117 110 197 81 254 250 189 263 255 66 
117 11 197 66 116 110 81 131 262 234 12 263 254 
118 10 162 122 93 112 21 249 100 186 63 184 
119 11 125 286 75 83 84 28 45 103 159 31 136 
120 11 65 27 85 251 47 35 289 73 109 224 108 
121 11 114 277 11 60 237 43 16 33 299 226 304 
122 10 118 162 112 21 93 100 249 186 63 184 
123 5 280 167 42 201 187 
124 11 115 29 269 207 10 111 78 188 194 220 137 
125 11 119 286 75 83 28 84 45 159 103 31 202 
126 6 10 269 218 207 194 200 
127 10 56 76 243 276 80 232 264 178 72 221 
128 4 288 217 226 16 
129 11 50 192 98 287 107 173 19 48 79 153 92 
130 11 25 182 223 236 199 244 165 190 203 257 101 
131 11 262 24 215 157 66 117 241 3 214 222 12 
132 11 68 41 44 151 147 15 69 40 89 143 141 
133 11 109 265 108 22 53 82 47 142 51 65 120 
134 11 54 78 30 220 137 148 304 87 200 82 22 
135 11 274 146 222 240 155 267 26 3 90 266 174 
136 8 261 152 103 113 142 218 28 31 
137 11 200 78 134 54 10 87 220 218 115 124 30 
138 11 23 155 240 267 222 135 274 146 52 24 95 
139 11 104 18 4 67 299 293 88 237 210 259 92 
140 10 14 16 288 47 128 51 248 217 226 228 
141 11 38 40 154 89 232 221 2 72 8 178 97 
142 9 108 82 87 22 152 136 261 133 109 
143 11 147 84 151 41 83 75 9 89 132 68 149 
144 11 99 175 238 191 111 58 176 29 246 91 294 
145 6 183 292 235 219 52 26 
146 11 135 274 26 267 240 222 90 155 160 266 231 
147 11 41 151 132 68 143 44 15 89 69 9 40 
148 11 30 304 54 134 53 220 78 51 22 82 87 
149 11 74 158 275 8 64 2 97 85 35 154 251 
150 11 95 46 66 13 197 262 138 24 23 131 110 
151 11 41 147 68 132 44 143 89 15 40 69 2 
152 10 261 113 136 218 142 103 87 31 200 28 
153 9 79 163 48 50 107 129 4 92 19 
154 11 2 38 8 89 221 141 74 275 97 232 72 
155 11 240 138 222 135 274 267 146 23 26 3 52 
156 11 13 46 254 110 197 150 59 116 117 95 66 
157 11 215 131 241 24 262 3 174 214 300 66 12 
158 9 149 64 85 275 74 35 251 8 120 
159 9 45 28 202 31 286 283 125 119 103 
160 5 213 187 26 231 42 
161 9 301 216 258 303 180 247 6 270 49 
162 9 118 122 93 112 21 249 100 186 63 
163 9 48 79 153 4 107 92 50 19 104 
164 6 225 210 195 17 204 67 
165 10 257 284 199 239 223 278 182 25 130 244 
166 10 181 36 177 171 297 196 290 170 193 105 
167 6 201 280 123 179 42 187 
168 8 245 270 295 86 61 180 49 7 
169 11 268 205 252 279 32 208 281 234 291 12 229 
170 10 212 196 177 171 181 36 166 242 185 290 
171 10 196 290 297 166 185 170 246 91 294 5 
172 9 94 193 105 60 43 176 166 277 11 
173 11 287 19 98 92 107 50 192 36 181 177 293 
174 11 3 256 300 90 266 230 231 222 274 241 215 
175 11 99 144 238 111 29 191 58 63 176 124 115 
176 10 191 238 246 58 297 91 294 105 193 290 
177 10 181 36 170 166 212 192 98 196 171 287 
178 10 72 243 276 221 244 232 76 190 199 127 
179 4 201 167 280 42 
180 8 295 270 258 216 86 168 245 61 
181 10 36 177 166 98 192 170 287 171 173 196 
182 11 25 130 223 165 236 199 257 244 203 101 190 
183 6 292 145 235 219 52 26 
184 7 260 55 188 194 207 186 249 
185 10 5 242 290 196 171 294 91 297 246 170 
186 9 63 249 184 55 260 188 175 194 99 
187 10 42 231 280 230 160 167 201 123 266 213 
188 7 55 194 184 207 260 269 124 
189 11 77 250 59 39 116 233 96 254 198 34 110 
190 11 236 97 130 25 182 244 223 199 178 64 203 
191 10 238 176 58 246 91 294 144 99 297 290 
192 11 98 287 177 36 181 50 129 173 212 170 19 
193 9 105 94 172 176 60 166 43 191 297 
194 7 188 207 55 260 184 269 126 
195 7 17 227 204 253 298 164 259 
196 10 171 170 185 290 242 212 297 177 166 5 
197 11 110 117 66 116 254 59 46 262 131 81 13 
198 11 34 233 282 96 62 102 271 255 291 250 285 
199 9 257 165 223 284 244 239 182 130 25 
200 11 137 10 218 78 87 134 54 269 126 124 115 
201 7 167 179 280 42 123 187 230 
202 7 31 45 283 159 28 113 126 
203 11 101 73 25 182 289 130 70 223 236 224 273 
204 5 227 195 253 17 123 
205 11 252 169 268 279 32 234 263 255 208 12 281 
206 6 298 302 253 227 259 17 
207 9 269 194 188 55 10 124 126 260 184 
208 11 281 32 268 169 279 57 229 252 205 296 272 
209 11 211 70 71 273 296 272 57 224 229 37 281 
210 10 225 164 67 195 17 18 259 298 88 303 
211 11 209 71 273 70 224 296 57 37 272 229 101 
212 10 170 177 196 181 36 171 192 242 166 98 
213 3 160 26 187 
214 11 12 234 32 252 81 205 263 169 268 208 241 
215 11 157 131 24 262 241 3 174 300 66 214 222 
216 10 258 301 161 180 303 247 270 49 61 6 
217 7 128 288 226 302 206 16 33 
218 10 113 152 126 200 261 10 137 87 136 31 
219 8 235 145 292 183 6 247 20 52 
220 11 78 304 54 134 30 115 148 137 29 124 111 
221 11 72 38 232 178 154 97 243 190 276 244 8 
222 11 274 135 240 3 155 146 90 174 266 267 24 
223 10 182 130 25 199 165 257 244 284 239 236 
224 11 273 73 70 211 209 27 289 101 203 71 251 
225 7 164 210 195 17 67 204 227 
226 8 33 16 217 288 237 128 302 88 
227 6 253 204 17 195 298 206 
228 6 248 14 37 71 128 179 
229 11 272 281 279 208 291 285 296 57 268 271 169 
230 11 231 266 90 187 42 256 201 174 167 280 179 
231 11 230 187 266 42 90 201 160 280 167 256 123 
232 11 72 221 38 178 243 127 276 141 76 154 56 
233 10 96 198 80 264 39 34 282 250 62 102 
234 11 12 263 81 252 214 205 255 169 32 268 279 
235 5 292 183 145 219 52 
236 11 190 130 25 182 223 97 244 203 199 101 165 
237 11 33 226 114 18 88 302 16 217 259 288 121 
238 11 191 144 99 58 176 175 246 91 294 111 297 
239 10 278 284 165 257 199 285 223 182 62 102 
240 11 155 135 222 274 146 267 138 26 3 23 52 
241 11 157 300 215 174 214 256 3 37 32 12 131 
242 10 185 196 5 171 170 290 212 91 294 297 
243 10 276 178 76 72 127 264 232 56 244 221 
244 10 223 199 130 257 182 25 165 190 178 236 
245 8 168 270 295 86 61 180 49 7 
246 10 91 294 58 297 290 191 176 5 238 171 
247 11 6 106 219 216 49 258 301 161 303 7 235 
248 4 228 14 128 179 
249 8 186 63 184 260 93 55 188 194 
250 11 39 189 77 59 233 96 198 34 116 255 263 
251 11 35 27 289 73 120 85 64 203 224 65 101 
252 11 205 169 268 32 234 12 279 263 208 255 214 
253 7 227 204 206 298 17 123 195 
254 11 110 59 197 116 13 46 117 156 189 77 250 
255 11 263 34 234 205 252 81 12 169 268 279 198 
256 9 300 174 266 230 90 3 231 179 201 
257 9 165 199 284 239 223 278 244 182 25 
258 11 216 301 161 180 270 61 49 247 295 7 106 
259 10 88 298 302 18 206 67 17 195 227 253 
260 5 184 55 194 188 207 
261 9 152 136 113 103 218 142 31 28 87 
262 11 131 24 66 215 157 117 222 3 241 197 174 
263 11 255 234 81 12 252 205 169 34 268 214 32 
264 9 276 80 76 96 243 233 56 199 257 
265 11 53 133 109 22 51 82 108 47 148 142 30 
266 11 90 230 231 256 174 3 187 42 300 201 274 
267 11 146 52 26 240 135 155 274 222 138 160 183 
268 11 169 205 279 252 32 208 281 229 291 234 12 
269 9 207 10 194 126 124 188 55 200 115 
270 9 168 295 245 61 180 258 86 49 7 
271 11 291 102 62 285 282 279 278 229 272 169 268 
272 11 229 281 279 285 291 208 296 271 57 268 209 
273 11 224 70 211 209 71 101 73 203 289 296 272 
274 11 135 222 146 240 3 90 155 26 266 267 174 
275 11 74 8 149 2 64 97 158 154 190 236 35 
276 10 243 76 178 264 72 244 127 56 199 80 
277 11 11 60 121 43 114 299 172 293 94 237 193 
278 10 239 284 285 165 257 102 62 199 271 291 
279 11 268 169 205 291 208 252 281 229 32 271 272 
280 6 123 167 42 201 187 179 
281 11 208 57 32 229 268 279 296 169 272 205 252 
282 10 62 102 271 291 198 285 34 278 239 284 
283 3 202 159 31 
284 9 239 257 165 278 199 223 285 182 25 
285 11 291 271 102 62 278 239 282 272 229 279 284 
286 11 125 119 28 45 103 75 159 84 31 83 136 
287 11 173 98 19 192 50 36 181 107 92 177 129 
288 7 128 217 226 16 140 33 302 
289 11 73 27 251 35 203 101 224 273 25 236 70 
290 10 297 91 246 294 171 5 185 196 58 176 
291 11 271 102 285 62 279 282 229 272 278 169 268 
292 6 183 145 235 219 52 26 
293 11 299 92 43 11 19 4 107 173 60 277 287 
294 10 91 246 58 5 290 297 191 176 185 171 
295 7 86 270 180 168 245 61 258 
296 11 57 37 71 281 208 209 229 272 211 32 70 
297 10 290 246 91 171 294 176 58 5 191 166 
298 10 259 206 302 227 17 253 88 195 67 204 
299 11 293 11 43 277 60 92 114 4 19 139 121 
300 10 256 174 3 241 266 90 230 231 179 157 
301 10 161 216 258 303 180 247 6 270 49 106 
302 8 206 259 298 88 217 18 253 227 
303 10 161 301 216 247 210 104 225 258 6 164 
304 11 30 220 148 54 78 134 115 137 53 29 51 
DEPOT_SECTION
   1
   -1
EOF
