NAME :  X-n331-kX-w33-c7.cctp
COMMENT : 	Adapted by Maziero, Usberti and Cavellucci from the Uchoa, Pecin, Pessoa, Poggi, Subramanian, and Vidal (2013)
TYPE :  CCTP
DIMENSION :    170
EDGE_WEIGHT_TYPE : 	EUC_2D	
CAPACITY : 	23
VERTICES_WITHIN_COVERAGE :  7
VERTICES_WITH_DEMAND : 	33
NODE_COORD_SECTION
1 0 0
2 2 857
3 407 102
4 915 965
5 797 45
6 997 241
7 650 683
8 748 248
9 99 174
10 2 545
11 277 689
12 568 771
13 76 105
14 117 973
15 171 971
16 327 183
17 277 697
18 269 246
19 670 18
20 51 901
21 951 696
22 710 102
23 61 465
24 348 606
25 551 243
26 524 793
27 89 582
28 900 748
29 235 368
30 122 587
31 449 781
32 970 38
33 362 490
34 742 267
35 289 115
36 898 957
37 996 922
38 951 633
39 603 247
40 143 0
41 274 608
42 81 422
43 613 37
44 297 297
45 736 288
46 464 127
47 796 328
48 184 941
49 301 260
50 559 746
51 431 827
52 847 51
53 888 721
54 136 331
55 886 684
56 123 488
57 764 43
58 938 743
59 734 20
60 211 678
61 796 106
62 115 435
63 667 91
64 374 546
65 546 191
66 754 255
67 124 588
68 314 637
69 668 268
70 321 786
71 11 499
72 721 692
73 337 475
74 429 478
75 361 166
76 944 218
77 12 468
78 527 255
79 545 806
80 832 12
81 655 39
82 247 947
83 36 394
84 599 724
85 83 489
86 65 35
87 248 220
88 747 86
89 400 574
90 643 138
91 500 726
92 285 769
93 239 951
94 911 708
95 2 239
96 372 799
97 617 639
98 479 831
99 397 20
100 838 111
101 581 757
102 294 174
103 920 675
104 187 284
105 678 127
106 316 319
107 188 134
108 73 608
109 983 312
110 415 658
111 90 256
112 960 936
113 300 456
114 376 144
115 192 177
116 88 626
117 540 206
118 241 949
119 460 683
120 81 368
121 585 234
122 294 501
123 81 236
124 788 277
125 218 189
126 923 177
127 479 307
128 285 153
129 176 928
130 7 792
131 22 787
132 131 560
133 22 81
134 465 114
135 845 753
136 962 95
137 31 68
138 627 629
139 524 322
140 109 935
141 487 121
142 1 111
143 756 89
144 647 753
145 72 370
146 999 268
147 350 131
148 381 534
149 310 467
150 973 212
151 186 426
152 779 143
153 452 1
154 866 928
155 915 772
156 343 558
157 877 720
158 730 272
159 364 617
160 514 296
161 33 761
162 202 695
163 376 83
164 639 101
165 528 192
166 888 7
167 710 665
168 952 915
169 14 440
170 890 951
DEMAND_SECTION
2 1
3 1
4 1
5 1
6 1
7 1
8 1
9 1
10 1
11 1
12 1
13 1
14 1
15 1
16 1
17 1
18 1
19 1
20 1
21 1
22 1
23 1
24 1
25 1
26 1
27 1
28 1
29 1
30 1
31 1
32 1
33 1
34 1
COVERAGE_SECTION
2 5 130 20 131 161 140 
3 7 163 114 134 46 147 75 141 
4 6 36 170 112 154 168 37 
5 7 57 80 52 143 61 88 59 
6 4 146 150 76 109 
7 7 97 138 167 84 144 72 101 
8 7 66 34 158 45 124 69 47 
9 7 123 13 111 115 107 95 142 
10 7 71 77 27 108 85 23 169 
11 6 17 68 60 162 92 41 
12 7 101 50 79 26 84 144 91 
13 7 137 133 86 9 142 107 40 
14 6 140 15 48 129 20 93 
15 7 48 129 14 93 140 118 82 
16 7 102 75 128 147 114 35 49 
17 6 11 60 68 92 162 41 
18 7 87 49 44 102 125 16 106 
19 7 81 43 59 63 164 22 57 
20 6 2 140 14 130 131 129 
21 7 103 94 58 38 55 53 28 
22 7 88 105 63 143 164 90 57 
23 7 85 42 77 169 71 62 56 
24 7 159 68 156 89 64 41 148 
25 7 78 121 117 39 65 165 160 
26 7 79 12 50 98 101 91 31 
27 7 108 30 67 116 132 85 10 
28 7 155 53 157 58 94 135 55 
29 6 151 44 106 104 54 113 
30 5 67 132 27 116 108 
31 7 51 98 91 26 96 79 119 
32 6 136 166 52 80 126 100 
33 7 73 148 64 149 74 122 113 
34 7 158 66 8 45 124 69 47 
35 6 128 102 147 16 75 114 
36 5 170 4 154 112 168 
37 4 112 168 4 36 
38 4 103 21 55 94 
39 6 121 25 69 117 78 65 
40 4 86 13 137 107 
41 3 68 24 11 
42 7 62 23 83 145 120 85 169 
43 5 81 19 164 63 90 
44 5 106 49 18 87 29 
45 7 158 34 66 8 124 69 47 
46 3 134 141 3 
47 3 124 45 34 
48 6 129 15 93 118 82 14 
49 6 18 44 106 87 16 102 
50 7 101 12 84 26 79 91 144 
51 4 98 31 96 26 
52 7 80 5 166 100 61 57 143 
53 6 157 94 28 55 135 58 
54 7 120 104 145 111 29 42 62 
55 5 94 103 53 157 21 
56 5 85 62 23 132 42 
57 7 5 59 88 143 61 80 22 
58 7 155 28 94 21 53 157 103 
59 7 57 19 88 5 143 81 22 
60 3 162 11 17 
61 7 152 100 143 88 5 57 52 
62 6 42 56 23 85 151 120 
63 6 164 105 22 81 90 19 
64 6 148 156 89 33 24 159 
65 4 117 165 25 121 
66 7 8 34 158 45 124 47 69 
67 5 30 132 27 116 108 
68 6 24 41 159 11 17 156 
69 7 158 39 45 34 8 66 121 
70 5 92 96 17 11 51 
71 7 77 10 169 23 85 42 83 
72 2 167 7 
73 6 149 33 113 122 148 64 
74 2 33 148 
75 7 114 147 16 102 128 3 163 
76 4 150 126 6 146 
77 7 169 71 23 85 10 83 42 
78 7 25 160 117 121 165 65 139 
79 5 26 12 101 50 98 
80 7 52 5 166 57 59 100 61 
81 6 19 43 63 164 59 22 
82 5 118 93 48 129 15 
83 7 145 169 120 42 23 77 62 
84 6 101 50 12 144 7 97 
85 6 23 56 62 42 71 77 
86 6 137 133 13 40 142 9 
87 6 18 125 102 49 115 128 
88 7 143 22 57 61 5 152 59 
89 5 64 148 159 156 24 
90 5 105 164 63 22 81 
91 6 119 50 26 31 12 101 
92 4 70 17 11 96 
93 5 118 82 48 129 15 
94 7 53 103 55 157 28 21 58 
95 6 123 111 9 142 145 120 
96 5 70 51 31 92 98 
97 3 138 7 84 
98 5 51 31 26 79 12 
99 6 153 163 3 134 147 46 
100 6 61 52 152 5 143 88 
101 6 12 50 84 79 144 26 
102 7 128 16 35 87 75 147 18 
103 6 94 55 21 38 53 157 
104 7 54 87 18 29 125 111 115 
105 6 90 63 22 164 88 143 
106 4 44 49 18 29 
107 5 115 125 9 128 35 
108 6 116 27 30 67 132 10 
109 2 146 6 
110 4 119 159 24 89 
111 6 123 9 54 95 104 120 
112 5 168 37 4 36 170 
113 5 149 73 122 33 29 
114 7 75 147 3 163 16 102 46 
115 6 125 107 87 9 128 102 
116 5 108 27 30 67 132 
117 5 65 165 25 78 121 
118 5 93 82 48 129 15 
119 3 110 91 31 
120 7 145 83 42 54 62 169 23 
121 6 39 25 117 65 78 165 
122 5 149 113 73 33 156 
123 6 111 9 95 54 104 115 
124 6 66 34 8 47 45 158 
125 6 115 87 107 18 128 102 
126 4 76 150 136 6 
127 4 160 139 78 25 
128 6 102 35 16 147 125 75 
129 6 48 15 93 140 118 82 
130 4 131 161 2 20 
131 3 130 161 2 
132 4 30 67 27 56 
133 7 137 142 13 86 9 40 95 
134 3 46 141 3 
135 3 157 53 28 
136 6 32 126 166 150 52 76 
137 7 133 86 142 13 9 40 107 
138 2 97 7 
139 4 160 127 78 25 
140 6 14 20 129 15 48 93 
141 3 134 46 3 
142 7 133 137 13 86 9 95 123 
143 7 88 61 57 22 152 5 59 
144 3 84 101 7 
145 7 120 83 42 54 62 169 23 
146 4 6 109 150 76 
147 7 114 75 163 16 35 3 128 
148 6 64 89 156 33 73 74 
149 6 113 73 122 33 156 148 
150 4 76 6 126 146 
151 4 62 29 56 42 
152 7 61 143 88 100 22 5 57 
153 6 99 3 163 134 141 46 
154 3 170 36 4 
155 6 28 58 53 94 157 135 
156 7 64 148 24 89 159 33 122 
157 5 53 28 94 55 135 
158 7 34 45 66 8 124 69 47 
159 6 24 68 89 156 110 64 
160 7 139 127 78 25 117 121 39 
161 3 131 130 2 
162 2 60 11 
163 7 3 147 114 99 75 35 134 
164 6 63 90 105 81 43 22 
165 3 65 117 25 
166 7 80 52 32 5 100 136 57 
167 3 72 7 138 
168 5 112 37 4 36 170 
169 7 77 83 23 71 42 85 145 
170 5 36 4 154 112 168 
DEPOT_SECTION
   1
   -1
EOF
