NAME :  X-n331-kX-w33-c9.cctp
COMMENT : 	Adapted by Maziero, Usberti and Cavellucci from the Uchoa, Pecin, Pessoa, Poggi, Subramanian, and Vidal (2013)
TYPE :  CCTP
DIMENSION :    188
EDGE_WEIGHT_TYPE : 	EUC_2D	
CAPACITY : 	23
VERTICES_WITHIN_COVERAGE :  9
VERTICES_WITH_DEMAND : 	33
NODE_COORD_SECTION
1 0 0
2 2 857
3 407 102
4 915 965
5 797 45
6 997 241
7 650 683
8 748 248
9 99 174
10 2 545
11 277 689
12 568 771
13 76 105
14 117 973
15 171 971
16 327 183
17 277 697
18 269 246
19 670 18
20 51 901
21 951 696
22 710 102
23 61 465
24 348 606
25 551 243
26 524 793
27 89 582
28 900 748
29 235 368
30 122 587
31 449 781
32 970 38
33 362 490
34 742 267
35 289 115
36 898 957
37 996 922
38 951 633
39 603 247
40 143 0
41 274 608
42 81 422
43 613 37
44 297 297
45 736 288
46 464 127
47 796 328
48 184 941
49 301 260
50 559 746
51 431 827
52 847 51
53 888 721
54 136 331
55 206 5
56 886 684
57 123 488
58 764 43
59 938 743
60 734 20
61 211 678
62 796 106
63 644 810
64 115 435
65 667 91
66 374 546
67 546 191
68 754 255
69 124 588
70 314 637
71 668 268
72 321 786
73 11 499
74 721 692
75 337 475
76 429 478
77 361 166
78 944 218
79 12 468
80 527 255
81 892 896
82 545 806
83 832 12
84 194 884
85 655 39
86 558 175
87 247 947
88 36 394
89 599 724
90 83 489
91 65 35
92 889 230
93 248 220
94 747 86
95 400 574
96 653 798
97 643 138
98 500 726
99 285 769
100 511 898
101 239 951
102 335 815
103 911 708
104 2 239
105 372 799
106 617 639
107 479 831
108 397 20
109 618 113
110 838 111
111 215 154
112 581 757
113 294 174
114 920 675
115 187 284
116 678 127
117 316 319
118 188 134
119 73 608
120 508 52
121 983 312
122 415 658
123 90 256
124 960 936
125 300 456
126 376 144
127 192 177
128 88 626
129 540 206
130 241 949
131 460 683
132 81 368
133 998 835
134 585 234
135 294 501
136 81 236
137 788 277
138 351 354
139 218 189
140 923 177
141 479 307
142 285 153
143 176 928
144 166 656
145 907 171
146 7 792
147 22 787
148 131 560
149 22 81
150 465 114
151 192 569
152 845 753
153 962 95
154 31 68
155 627 629
156 524 322
157 109 935
158 487 121
159 1 111
160 756 89
161 647 753
162 72 370
163 999 268
164 350 131
165 381 534
166 310 467
167 973 212
168 186 426
169 779 143
170 452 1
171 866 928
172 915 772
173 343 558
174 877 720
175 730 272
176 364 617
177 514 296
178 33 761
179 202 695
180 376 83
181 639 101
182 528 192
183 888 7
184 710 665
185 952 915
186 14 440
187 485 885
188 890 951
DEMAND_SECTION
2 1
3 1
4 1
5 1
6 1
7 1
8 1
9 1
10 1
11 1
12 1
13 1
14 1
15 1
16 1
17 1
18 1
19 1
20 1
21 1
22 1
23 1
24 1
25 1
26 1
27 1
28 1
29 1
30 1
31 1
32 1
33 1
34 1
COVERAGE_SECTION
2 6 146 20 147 178 157 14 
3 9 180 126 150 46 164 77 158 108 170 
4 7 36 188 124 171 185 81 37 
5 9 58 83 52 160 62 94 60 110 183 
6 5 163 167 78 121 140 
7 7 106 155 184 89 161 74 112 
8 8 68 34 175 45 137 71 47 169 
9 9 136 13 123 127 118 104 159 111 139 
10 9 73 79 27 119 90 23 186 128 30 
11 7 17 70 61 179 99 41 72 
12 9 112 50 82 26 89 161 98 63 96 
13 9 154 149 91 9 159 118 40 136 127 
14 9 157 15 48 143 20 84 101 130 87 
15 8 48 143 14 101 157 130 87 84 
16 9 113 77 142 164 126 35 49 18 93 
17 7 11 61 70 99 179 41 72 
18 9 93 49 44 113 139 16 117 115 142 
19 9 85 43 60 65 181 22 58 94 109 
20 8 2 157 14 146 147 143 15 48 
21 9 114 103 59 38 56 53 28 174 172 
22 9 94 116 65 160 181 97 58 169 85 
23 9 90 42 79 186 73 64 57 88 162 
24 8 176 70 173 95 66 41 165 122 
25 8 80 134 129 39 67 182 177 86 
26 9 82 12 50 107 112 98 31 51 187 
27 8 119 30 69 128 148 90 10 57 
28 8 172 53 174 59 103 152 56 21 
29 9 168 44 117 115 54 125 138 166 18 
30 7 69 148 27 128 119 151 144 
31 9 51 107 98 26 105 82 131 187 50 
32 9 153 183 52 83 140 145 110 5 167 
33 9 75 165 66 166 76 135 125 173 95 
34 8 175 68 8 45 137 71 47 169 
35 8 142 113 164 16 111 77 126 180 
36 7 188 4 171 81 124 185 37 
37 8 124 185 133 4 36 81 188 171 
38 4 114 21 56 103 
39 9 134 25 71 129 80 67 86 182 177 
40 7 55 91 13 154 118 149 111 
41 3 70 24 11 
42 9 64 23 88 162 132 90 186 57 79 
43 9 85 19 181 65 109 97 120 116 22 
44 8 117 49 18 138 93 29 115 16 
45 7 175 34 68 8 137 71 47 
46 5 150 158 3 120 126 
47 5 137 45 34 68 175 
48 8 143 15 101 84 130 87 14 157 
49 8 18 44 117 93 16 113 138 142 
50 9 112 12 89 26 82 98 161 63 96 
51 7 107 31 105 187 102 26 100 
52 9 83 5 183 110 62 58 160 94 169 
53 8 174 103 28 56 152 59 114 172 
54 9 132 115 162 123 29 42 64 168 136 
55 7 40 118 35 91 111 13 142 
56 6 103 114 53 174 21 28 
57 6 90 64 23 148 42 168 
58 9 5 60 94 160 62 83 22 52 19 
59 9 172 28 103 21 53 174 114 56 152 
60 9 58 19 94 5 160 85 22 65 83 
61 4 179 144 11 17 
62 9 169 110 160 94 5 58 52 22 83 
63 4 96 161 112 12 
64 7 42 57 23 90 168 132 162 
65 9 181 116 22 85 97 109 19 43 94 
66 8 165 173 95 33 24 176 75 76 
67 6 129 182 86 25 134 80 
68 8 8 34 175 45 137 47 71 169 
69 7 30 148 27 128 119 151 144 
70 8 24 41 176 11 17 173 122 95 
71 8 175 39 45 34 8 68 134 25 
72 6 102 99 105 17 11 51 
73 9 79 10 186 23 90 42 88 57 27 
74 3 184 7 161 
75 8 166 33 125 135 165 66 173 76 
76 3 33 165 66 
77 8 126 164 16 113 142 3 180 35 
78 6 167 140 92 6 145 163 
79 9 186 73 23 90 10 88 42 64 57 
80 8 25 177 129 134 182 67 156 141 
81 5 171 188 36 185 4 
82 6 26 12 112 50 107 98 
83 9 52 5 183 58 60 110 62 160 94 
84 7 143 48 130 101 87 15 157 
85 9 19 43 65 181 60 109 22 116 97 
86 6 67 182 129 134 25 39 
87 6 130 101 48 143 15 84 
88 8 162 186 132 42 23 79 64 90 
89 9 112 50 12 161 7 106 96 63 82 
90 7 23 57 64 42 73 79 186 
91 7 154 149 13 40 159 9 55 
92 5 78 145 140 167 6 
93 9 18 139 113 49 127 111 142 16 115 
94 9 160 22 58 62 5 169 60 65 116 
95 5 66 165 176 173 24 
96 4 63 161 112 12 
97 9 109 116 181 65 22 86 85 43 67 
98 8 131 50 26 31 12 112 82 89 
99 6 72 102 17 11 105 179 
100 4 187 107 82 26 
101 6 130 87 48 143 15 84 
102 5 72 105 99 51 31 
103 8 53 114 56 174 28 21 59 172 
104 8 136 123 9 159 162 132 13 88 
105 6 102 72 51 31 99 107 
106 3 155 7 89 
107 9 51 187 31 26 82 100 12 98 105 
108 9 170 180 3 120 150 164 46 126 158 
109 8 181 97 65 116 43 85 86 22 
110 9 62 52 169 5 160 145 94 83 58 
111 8 127 118 139 142 93 113 35 18 
112 9 12 50 89 82 161 26 63 96 98 
113 9 142 16 35 93 77 164 18 139 111 
114 7 103 56 21 38 53 174 59 
115 9 54 93 18 29 139 123 127 44 49 
116 9 97 65 22 181 109 94 160 85 169 
117 6 44 138 49 18 29 93 
118 8 111 127 139 9 142 35 93 113 
119 7 128 27 30 69 148 10 144 
120 7 158 150 170 46 43 3 108 
121 2 163 6 
122 5 131 176 24 95 70 
123 8 136 9 54 104 115 132 162 127 
124 8 185 37 4 36 188 81 171 133 
125 7 166 75 135 33 29 173 165 
126 9 77 164 3 180 16 113 46 142 35 
127 9 139 111 118 93 9 142 113 18 115 
128 6 119 27 30 69 148 144 
129 6 67 182 86 25 80 134 
130 6 101 87 48 143 15 84 
131 3 122 98 31 
132 8 162 88 42 54 64 186 23 123 
133 8 37 185 172 124 59 81 28 21 
134 8 39 25 129 67 80 86 182 71 
135 6 166 125 75 33 173 66 
136 8 123 9 104 54 115 127 13 132 
137 7 68 34 8 47 45 175 92 
138 6 117 44 49 125 29 166 
139 9 127 111 93 118 18 142 113 115 35 
140 8 145 78 167 92 153 6 110 163 
141 4 177 156 80 25 
142 9 113 35 16 164 111 139 77 93 126 
143 8 48 15 84 101 157 130 87 14 
144 4 61 179 69 30 
145 8 140 78 92 167 110 153 6 62 
146 4 147 178 2 20 
147 4 146 178 2 20 
148 6 30 69 27 151 57 119 
149 9 154 159 13 91 9 40 104 136 118 
150 5 46 158 3 120 126 
151 3 148 69 30 
152 3 174 53 28 
153 9 32 140 145 183 167 52 78 110 6 
154 9 149 91 159 13 9 40 118 104 136 
155 2 106 7 
156 5 177 141 80 25 134 
157 9 14 20 143 15 48 84 101 2 130 
158 6 150 46 120 3 182 86 
159 9 149 154 13 91 9 104 136 123 40 
160 9 94 62 58 22 169 5 60 110 116 
161 6 96 89 63 112 7 12 
162 8 132 88 42 54 64 186 23 79 
163 4 6 121 167 78 
164 9 126 77 180 16 35 3 142 113 46 
165 8 66 95 173 33 75 76 24 176 
166 7 125 75 135 33 173 165 66 
167 7 78 6 140 163 145 92 121 
168 6 64 29 57 42 54 125 
169 9 62 160 94 110 22 5 58 116 8 
170 8 108 120 3 180 150 158 46 126 
171 4 188 81 36 4 
172 7 28 59 53 103 174 152 21 
173 8 66 165 24 95 176 33 135 75 
174 7 53 28 103 56 152 114 172 
175 7 34 45 68 8 137 71 47 
176 8 24 70 95 173 122 66 165 41 
177 8 156 141 80 25 129 134 39 182 
178 3 147 146 2 
179 4 61 144 11 17 
180 9 3 164 126 108 77 35 150 46 16 
181 9 109 65 97 116 85 43 22 19 94 
182 6 67 129 86 25 80 134 
183 9 83 52 32 5 110 153 58 62 60 
184 4 74 7 155 106 
185 8 124 37 4 81 36 188 171 133 
186 9 79 88 23 73 42 90 162 132 64 
187 5 100 107 51 82 26 
188 6 36 4 171 81 124 185 
DEPOT_SECTION
   1
   -1
EOF
