NAME :  X-n336-kX-w67-c11.cctp
COMMENT : 	Adapted by Maziero, Usberti and Cavellucci from the Uchoa, Pecin, Pessoa, Poggi, Subramanian, and Vidal (2013)
TYPE :  CCTP
DIMENSION :    324
EDGE_WEIGHT_TYPE : 	EUC_2D	
CAPACITY : 	203
VERTICES_WITHIN_COVERAGE :  11
VERTICES_WITH_DEMAND : 	67
NODE_COORD_SECTION
1 0 0
2 365 689
3 146 180
4 792 5
5 658 510
6 461 270
7 299 531
8 812 228
9 643 90
10 615 630
11 258 42
12 616 299
13 475 957
14 425 473
15 406 64
16 656 369
17 202 467
18 318 21
19 579 587
20 458 354
21 575 871
22 47 512
23 568 742
24 128 436
25 546 806
26 197 696
27 615 300
28 852 563
29 772 803
30 678 342
31 916 176
32 390 949
33 113 782
34 226 736
35 119 923
36 584 572
37 134 554
38 912 173
39 827 233
40 851 677
41 598 322
42 627 472
43 94 442
44 688 274
45 977 176
46 597 461
47 931 23
48 170 640
49 941 601
50 873 487
51 797 95
52 451 816
53 866 970
54 833 912
55 106 913
56 260 107
57 332 45
58 685 613
59 728 372
60 407 590
61 619 484
62 966 483
63 482 512
64 278 599
65 213 330
66 37 932
67 643 10
68 341 241
69 302 521
70 593 382
71 438 686
72 637 885
73 277 382
74 152 776
75 546 999
76 288 665
77 232 131
78 563 66
79 602 547
80 996 983
81 464 377
82 502 727
83 691 574
84 535 4
85 975 616
86 974 242
87 853 459
88 263 163
89 967 740
90 810 617
91 580 226
92 615 656
93 346 526
94 172 867
95 319 35
96 602 946
97 224 146
98 48 527
99 970 693
100 314 262
101 413 661
102 756 147
103 381 139
104 421 100
105 930 522
106 440 792
107 862 962
108 493 72
109 573 541
110 668 884
111 380 646
112 24 44
113 457 991
114 511 272
115 960 171
116 150 61
117 721 754
118 56 633
119 389 853
120 700 137
121 823 958
122 422 111
123 727 12
124 203 178
125 548 744
126 610 239
127 396 478
128 509 773
129 347 219
130 754 887
131 717 223
132 650 718
133 909 845
134 451 575
135 806 992
136 740 770
137 291 583
138 74 690
139 8 248
140 877 132
141 379 284
142 574 881
143 871 854
144 987 529
145 509 440
146 976 565
147 644 554
148 325 696
149 969 681
150 888 425
151 782 490
152 974 885
153 502 280
154 992 909
155 440 691
156 342 364
157 806 649
158 552 728
159 980 576
160 26 841
161 463 459
162 526 344
163 268 49
164 979 559
165 156 39
166 303 960
167 85 110
168 760 825
169 28 910
170 725 93
171 987 998
172 827 937
173 253 53
174 342 592
175 833 437
176 705 344
177 35 318
178 839 857
179 7 132
180 462 46
181 511 649
182 72 981
183 660 595
184 306 313
185 806 978
186 954 238
187 679 664
188 223 692
189 783 211
190 258 807
191 29 943
192 901 617
193 634 276
194 711 6
195 253 301
196 229 917
197 379 611
198 494 796
199 974 375
200 804 306
201 366 672
202 739 275
203 390 64
204 421 896
205 773 430
206 33 185
207 780 36
208 583 683
209 102 872
210 999 222
211 991 56
212 687 500
213 381 463
214 52 296
215 188 834
216 373 15
217 240 295
218 379 73
219 94 905
220 291 368
221 365 875
222 281 949
223 222 763
224 487 965
225 525 52
226 217 975
227 767 889
228 966 590
229 584 689
230 52 118
231 513 513
232 626 630
233 528 291
234 61 262
235 67 613
236 528 819
237 776 606
238 453 584
239 113 947
240 619 771
241 207 338
242 930 890
243 740 183
244 313 231
245 487 874
246 857 247
247 376 774
248 168 409
249 855 702
250 543 56
251 846 172
252 43 62
253 548 157
254 68 300
255 153 638
256 987 721
257 619 306
258 31 683
259 681 520
260 445 533
261 117 505
262 860 428
263 265 809
264 947 417
265 791 3
266 305 771
267 697 637
268 599 555
269 595 439
270 952 464
271 217 775
272 585 895
273 185 344
274 710 275
275 22 136
276 668 648
277 423 637
278 318 490
279 763 274
280 686 796
281 870 128
282 845 405
283 37 883
284 59 581
285 292 22
286 182 838
287 905 295
288 285 15
289 159 409
290 556 616
291 370 988
292 436 374
293 143 772
294 15 88
295 897 75
296 667 699
297 621 485
298 942 616
299 900 816
300 707 297
301 170 312
302 541 76
303 244 104
304 367 241
305 71 908
306 349 361
307 754 980
308 32 869
309 812 318
310 731 882
311 701 119
312 170 285
313 577 478
314 377 59
315 312 343
316 823 859
317 760 716
318 809 837
319 269 109
320 112 726
321 454 247
322 873 167
323 205 18
324 738 287
DEMAND_SECTION
2 48
3 63
4 27
5 66
6 86
7 14
8 26
9 47
10 66
11 85
12 22
13 30
14 89
15 51
16 11
17 82
18 92
19 85
20 51
21 90
22 6
23 68
24 73
25 94
26 7
27 12
28 70
29 97
30 41
31 30
32 8
33 11
34 25
35 10
36 75
37 17
38 36
39 6
40 54
41 12
42 30
43 94
44 30
45 27
46 41
47 25
48 41
49 72
50 39
51 32
52 35
53 68
54 68
55 9
56 90
57 56
58 95
59 41
60 39
61 18
62 8
63 16
64 37
65 82
66 26
67 14
68 66
COVERAGE_SECTION
2 11 201 148 111 101 71 155 277 197 76 247 174 
3 11 124 97 167 77 312 206 230 88 234 116 303 
4 11 265 207 123 194 51 170 295 47 102 281 311 
5 11 259 212 297 147 61 42 79 83 268 46 183 
6 11 321 153 114 233 141 20 162 304 81 292 68 
7 11 69 278 93 137 64 174 213 127 197 17 60 
8 11 39 189 246 251 279 200 243 322 202 309 131 
9 11 311 120 67 170 78 302 250 194 123 253 225 
10 11 232 92 19 276 183 290 208 36 229 58 187 
11 11 163 173 288 285 323 95 18 303 56 319 57 
12 11 27 257 41 193 126 30 44 16 91 70 233 
13 11 224 113 204 75 245 32 291 142 272 96 21 
14 11 127 161 213 260 63 145 93 231 292 81 134 
15 11 203 218 314 104 122 180 216 57 103 108 95 
16 11 30 176 70 59 257 41 27 12 300 269 193 
17 11 248 289 24 261 37 43 73 69 7 278 273 
18 11 95 285 57 288 216 163 11 314 173 218 203 
19 11 36 290 268 79 109 10 232 147 92 183 181 
20 11 81 292 162 6 153 233 114 145 161 141 321 
21 10 142 272 72 236 25 96 245 110 240 198 
22 11 98 261 284 43 37 235 24 118 289 248 17 
23 11 125 158 229 240 208 128 25 82 132 236 198 
24 11 43 289 248 261 17 273 22 37 98 241 301 
25 11 236 128 198 125 23 21 158 142 240 82 245 
26 11 188 34 48 223 255 271 320 74 293 76 33 
27 11 12 257 41 193 126 30 44 16 91 70 233 
28 11 90 192 50 237 105 49 157 151 87 298 40 
29 11 168 136 318 117 316 130 178 227 280 317 310 
30 11 176 16 300 59 44 257 274 12 27 193 324 
31 11 38 115 322 140 45 281 251 186 86 246 210 
32 10 291 204 221 113 13 166 119 224 222 245 
33 11 293 74 320 286 209 215 138 94 271 160 223 
34 11 223 271 188 26 190 263 74 266 293 76 215 
35 11 55 239 219 305 209 182 94 66 283 169 191 
36 11 19 268 79 109 290 147 10 232 183 92 231 
37 11 261 284 255 235 98 48 22 17 118 24 43 
38 11 31 322 115 140 281 45 251 186 246 86 295 
39 11 8 246 189 251 279 200 322 309 202 243 287 
40 10 249 157 90 192 317 237 298 28 49 149 
41 11 257 27 12 193 70 16 162 233 30 126 91 
42 11 61 297 46 269 5 313 212 259 79 147 109 
43 11 24 261 289 248 22 98 17 37 273 177 284 
44 11 274 300 202 324 193 131 30 176 279 12 257 
45 11 115 210 31 38 86 186 322 140 281 211 295 
46 11 269 313 42 61 297 5 70 109 79 145 268 
47 11 295 211 281 140 4 265 38 115 51 207 31 
48 11 255 26 188 37 320 235 138 34 118 64 76 
49 11 298 228 85 192 159 146 164 105 144 149 99 
50 10 87 262 150 175 105 28 270 282 151 62 
51 11 207 102 170 281 140 4 251 265 311 295 243 
52 11 106 198 245 119 128 236 204 247 25 82 221 
53 11 107 121 172 185 135 54 242 307 143 178 316 
54 11 172 121 316 178 107 53 143 227 185 318 130 
55 11 219 35 239 305 209 66 283 182 169 94 191 
56 11 319 303 77 97 173 88 163 11 124 285 95 
57 11 95 18 285 314 216 218 288 203 163 11 15 
58 11 267 183 83 276 187 232 10 147 92 296 237 
59 11 176 30 16 205 300 324 202 274 309 200 279 
60 11 197 134 238 277 111 174 260 101 93 201 71 
61 11 297 42 46 313 5 269 79 212 259 109 147 
62 10 270 144 105 264 164 146 50 159 150 228 
63 11 231 260 161 14 134 145 238 127 109 313 60 
64 11 137 174 76 7 69 93 197 148 188 111 201 
65 11 241 273 217 301 195 312 73 220 248 184 289 
66 11 191 169 305 283 182 219 308 55 239 35 209 
67 11 194 9 123 78 84 250 170 302 311 225 120 
68 11 129 304 244 100 141 184 315 195 88 103 321 
69 11 7 278 93 137 174 64 213 127 17 197 60 
70 11 269 41 16 162 46 257 27 12 30 42 313 
71 11 155 101 277 111 2 201 82 181 197 60 238 
72 8 110 272 142 21 96 310 280 240 
73 11 220 315 156 184 306 65 241 195 217 273 248 
74 11 293 33 320 271 215 286 223 34 26 94 209 
75 9 224 96 13 113 272 142 21 245 72 
76 11 148 64 188 201 2 137 174 34 111 26 197 
77 11 97 303 56 319 88 124 173 163 11 3 116 
78 11 250 302 225 84 108 9 253 67 180 104 122 
79 11 268 109 36 147 19 61 297 5 313 183 42 
80 11 171 154 152 242 53 107 133 121 172 54 143 
81 11 20 292 162 145 161 14 153 6 233 114 306 
82 11 128 125 158 23 198 155 71 181 25 106 229 
83 11 183 58 147 259 267 5 212 276 232 187 237 
84 11 225 250 78 302 108 180 67 9 15 104 253 
85 11 228 298 49 159 146 164 149 192 99 144 105 
86 9 186 210 45 115 287 31 38 246 322 
87 9 175 262 50 150 282 151 205 105 270 
88 11 97 77 319 56 124 303 244 129 68 173 100 
89 11 256 99 149 299 249 133 85 298 40 192 49 
90 10 157 237 28 40 192 249 317 267 58 83 
91 11 126 193 253 12 27 114 233 257 153 41 44 
92 11 10 232 208 229 276 187 296 132 290 183 19 
93 11 69 278 7 174 127 213 137 60 197 14 260 
94 11 286 215 209 196 35 55 219 74 239 293 271 
95 11 18 57 285 288 163 216 11 314 173 218 203 
96 7 272 72 142 75 21 110 224 
97 11 77 124 88 303 56 319 3 173 163 11 116 
98 11 22 284 261 235 37 43 118 24 255 258 289 
99 11 149 256 89 85 298 49 192 228 249 159 40 
100 11 244 68 184 129 304 141 195 217 315 306 156 
101 11 277 71 111 155 201 2 197 60 238 134 148 
102 11 243 120 170 311 51 189 131 251 8 39 207 
103 11 122 104 218 203 15 314 129 304 57 68 244 
104 11 122 15 203 218 103 314 180 108 216 57 225 
105 11 62 144 164 270 146 50 159 228 49 28 298 
106 11 52 198 247 128 119 82 236 245 155 71 204 
107 11 53 121 172 54 185 135 242 178 143 307 316 
108 11 225 180 302 250 78 104 84 122 15 253 203 
109 11 79 268 36 19 313 231 147 61 297 290 46 
110 8 72 310 272 130 280 96 21 142 
111 11 201 197 101 277 2 60 174 71 148 155 76 
112 11 252 294 230 167 179 275 116 165 206 3 323 
113 11 13 224 32 291 75 204 245 221 96 119 166 
114 11 153 233 6 321 162 91 20 41 126 12 27 
115 11 45 31 38 210 186 86 322 140 281 251 295 
116 11 165 323 167 173 303 252 77 11 97 230 3 
117 9 136 317 280 29 296 132 168 187 240 
118 11 235 284 258 138 255 98 320 37 48 22 261 
119 10 221 204 52 106 247 32 245 266 198 263 
120 11 311 170 102 243 9 131 51 189 123 207 194 
121 11 172 185 135 107 53 54 307 227 130 316 178 
122 11 104 15 103 203 218 314 180 108 216 57 225 
123 11 194 207 4 265 170 67 51 311 9 120 102 
124 11 97 77 3 88 303 56 319 312 244 217 116 
125 11 158 23 82 128 25 229 208 198 240 236 181 
126 11 91 193 12 27 257 41 44 233 253 114 274 
127 11 213 14 93 161 260 278 63 69 7 292 134 
128 11 198 82 125 25 236 158 23 52 106 245 155 
129 11 68 304 244 100 141 103 88 184 321 6 195 
130 10 227 310 168 316 318 54 29 110 172 178 
131 11 243 274 202 44 189 324 279 300 102 120 8 
132 10 296 187 240 92 229 276 208 117 23 280 
133 11 299 143 242 178 152 316 318 54 154 89 172 
134 11 238 260 60 277 63 197 231 101 181 111 14 
135 9 185 121 307 172 53 107 54 227 130 
136 9 117 29 317 168 280 318 296 132 310 
137 11 64 174 7 69 93 76 197 278 111 60 201 
138 11 258 320 118 235 255 33 293 48 284 74 26 
139 11 234 214 206 177 254 275 179 230 3 167 294 
140 11 281 322 251 38 31 295 51 115 45 39 8 
141 11 304 68 100 129 184 6 306 321 244 156 315 
142 10 21 272 72 96 236 25 245 110 198 240 
143 11 178 133 299 316 318 54 242 172 107 152 227 
144 11 164 146 159 62 105 228 270 49 85 298 264 
145 11 161 231 63 81 313 269 14 46 162 292 20 
146 11 164 159 228 144 49 85 298 105 62 192 270 
147 11 79 183 268 5 259 83 36 212 58 109 19 
148 11 2 76 201 111 266 247 101 197 188 174 34 
149 11 99 256 89 85 298 49 228 192 159 146 249 
150 8 262 282 87 175 264 50 270 62 
151 11 205 175 87 50 212 262 28 259 282 237 83 
152 11 154 242 133 80 299 143 171 107 53 178 54 
153 11 114 233 6 321 162 20 91 81 41 27 292 
154 11 152 242 80 171 133 299 143 53 107 54 178 
155 11 71 101 277 82 2 111 201 181 106 197 247 
156 11 306 315 220 184 73 141 292 100 213 195 20 
157 10 90 237 40 249 317 28 192 267 58 187 
158 11 125 23 82 229 208 128 25 240 181 198 236 
159 11 146 164 228 85 49 144 298 105 192 62 149 
160 11 308 283 169 305 209 66 219 191 33 55 35 
161 11 14 145 63 127 231 260 81 213 292 20 313 
162 11 233 153 20 81 114 41 70 292 145 6 27 
163 11 11 173 285 288 95 18 56 303 319 57 323 
164 11 146 159 144 228 49 85 105 298 62 192 270 
165 11 116 323 173 167 11 303 163 252 77 56 97 
166 10 222 291 196 226 32 221 204 119 263 113 
167 11 230 252 275 294 116 179 112 206 3 165 124 
168 11 29 318 136 130 227 310 316 280 117 178 110 
169 11 66 283 191 308 305 219 160 55 209 182 35 
170 11 311 120 102 51 207 123 9 194 243 4 265 
171 11 80 154 152 242 53 107 121 172 133 54 135 
172 11 121 54 107 185 53 135 227 316 178 307 130 
173 11 11 163 285 288 303 56 319 323 95 18 57 
174 11 197 137 64 60 93 111 7 69 201 76 277 
175 8 262 87 282 150 205 50 151 264 
176 11 30 59 300 16 324 274 44 202 279 257 193 
177 11 214 254 234 139 206 301 43 312 24 273 289 
178 11 316 143 318 54 133 299 227 172 168 29 130 
179 11 275 294 230 206 252 167 112 139 234 3 116 
180 11 108 15 225 104 203 122 250 84 302 314 218 
181 11 290 82 208 71 155 229 238 158 277 19 134 
182 11 239 191 66 305 35 55 219 169 283 209 308 
183 11 58 83 147 232 276 267 10 187 268 79 92 
184 11 315 100 195 220 156 306 217 73 141 68 244 
185 10 135 121 172 307 107 53 54 227 130 316 
186 9 86 210 45 115 31 287 38 246 322 
187 9 276 267 296 58 132 232 92 10 183 
188 11 26 34 76 223 48 271 255 148 64 74 293 
189 11 8 39 243 279 131 102 251 202 246 324 200 
190 10 263 271 223 266 215 34 286 94 74 196 
191 11 66 169 305 182 283 308 219 55 239 35 160 
192 11 298 49 228 28 85 40 159 90 146 149 164 
193 11 12 27 257 126 44 41 91 274 300 30 16 
194 11 123 67 207 265 4 170 9 311 51 120 102 
195 11 217 65 184 241 100 315 220 273 73 301 312 
196 10 226 222 94 166 286 215 35 190 263 239 
197 11 60 111 174 277 101 201 2 238 134 93 137 
198 11 128 236 52 25 106 82 125 245 158 23 21 
199 6 264 270 150 287 62 262 
200 11 309 279 324 202 39 8 246 189 300 274 59 
201 11 2 111 101 148 197 277 71 155 76 174 60 
202 11 324 279 274 300 44 131 200 176 189 309 8 
203 11 218 314 15 104 216 122 57 180 103 95 18 
204 11 119 221 32 245 13 52 224 113 291 106 198 
205 11 175 151 59 282 87 262 176 212 50 150 309 
206 11 275 179 139 230 234 167 294 3 214 254 252 
207 11 4 265 123 51 194 170 102 311 295 120 281 
208 11 229 92 158 23 10 232 125 290 132 181 296 
209 11 219 55 305 35 283 94 308 239 160 169 286 
210 9 86 186 45 115 31 38 287 322 246 
211 11 47 295 115 45 140 38 281 31 322 210 186 
212 11 259 5 42 297 147 61 83 151 79 46 183 
213 11 127 14 278 93 161 260 69 292 156 7 306 
214 11 254 177 234 139 206 301 312 273 3 43 289 
215 11 286 94 271 74 190 293 223 263 33 196 209 
216 11 314 57 203 18 95 218 15 285 288 180 104 
217 11 195 65 241 184 312 301 273 100 315 220 73 
218 11 203 314 15 104 57 122 216 103 95 18 180 
219 11 55 305 35 209 239 283 66 169 308 191 182 
220 11 73 315 156 184 306 195 65 217 241 100 273 
221 10 119 204 32 247 52 166 106 222 291 263 
222 10 166 196 226 291 32 221 94 263 119 190 
223 11 271 34 190 263 74 188 26 215 293 266 286 
224 11 13 113 75 245 204 32 96 291 272 142 21 
225 11 250 302 108 78 84 180 253 104 122 15 9 
226 10 196 222 166 239 35 94 55 286 219 215 
227 11 130 310 168 316 318 54 172 178 29 121 307 
228 11 159 49 146 85 164 298 144 192 105 149 99 
229 11 208 92 158 23 125 10 132 232 290 181 296 
230 11 167 275 179 294 252 206 112 3 116 165 139 
231 11 63 109 260 145 313 161 134 36 238 79 268 
232 11 10 92 276 183 58 187 19 208 267 290 36 
233 11 114 153 162 6 41 91 321 27 12 257 20 
234 11 214 254 139 177 206 312 3 301 275 179 230 
235 11 118 284 138 258 98 37 255 22 48 261 320 
236 11 25 198 128 245 21 52 142 125 23 106 158 
237 10 90 157 267 28 58 83 40 317 187 151 
238 11 134 60 260 277 63 197 101 181 231 111 71 
239 11 35 55 219 182 305 209 66 191 169 94 283 
240 10 23 132 280 125 158 25 296 229 208 117 
241 11 65 273 301 217 195 312 248 73 289 220 184 
242 11 152 133 154 143 299 178 54 107 53 316 172 
243 11 102 131 189 120 311 8 170 202 279 274 39 
244 11 68 100 129 304 184 88 141 195 217 315 103 
245 11 52 236 204 198 13 142 21 25 224 106 119 
246 11 39 8 287 251 200 189 322 309 31 38 186 
247 11 106 266 119 2 52 148 201 221 155 71 263 
248 11 289 24 17 273 43 241 65 301 261 73 312 
249 10 40 157 90 317 192 99 149 89 298 299 
250 11 225 302 78 108 84 180 253 9 67 104 122 
251 11 322 281 140 39 8 38 31 189 246 51 102 
252 11 112 294 230 167 275 179 116 165 206 3 323 
253 11 91 302 78 108 250 126 225 9 114 321 153 
254 11 214 177 234 139 301 312 206 273 289 3 43 
255 11 48 26 37 188 235 138 118 320 284 34 258 
256 11 89 99 149 85 298 49 299 228 249 192 40 
257 11 27 12 41 193 126 30 16 44 70 300 91 
258 11 138 118 235 320 284 33 255 293 48 74 98 
259 11 212 5 147 83 297 42 61 183 79 268 58 
260 11 134 63 238 14 60 231 127 161 213 93 197 
261 11 37 43 22 24 98 17 284 289 248 235 255 
262 8 282 150 175 87 50 205 264 270 
263 10 190 266 271 223 215 34 286 94 196 247 
264 6 270 199 150 62 262 50 
265 11 4 207 123 194 51 170 295 47 311 67 102 
266 10 263 190 247 148 223 34 271 2 76 188 
267 10 58 276 187 183 83 296 232 10 92 237 
268 11 79 36 109 19 147 183 297 5 61 290 10 
269 11 46 313 42 61 297 70 145 16 5 109 79 
270 10 62 264 105 144 150 50 199 87 164 262 
271 11 223 34 190 263 74 215 286 293 26 188 266 
272 10 142 21 72 96 110 236 25 245 75 224 
273 11 241 65 301 312 248 289 217 195 73 24 220 
274 11 44 300 202 324 131 279 176 30 193 257 12 
275 11 179 230 294 206 167 252 112 139 3 234 116 
276 10 187 267 58 232 296 92 183 10 132 83 
277 11 101 111 60 71 197 155 238 201 134 2 181 
278 11 69 7 93 213 127 137 174 14 64 73 17 
279 11 202 324 200 274 300 189 309 8 131 44 39 
280 10 117 136 240 168 29 132 110 310 296 72 
281 11 140 322 251 295 38 31 51 115 39 8 102 
282 8 262 175 150 87 205 50 309 264 
283 11 308 169 305 160 66 191 219 209 55 35 239 
284 11 235 118 98 22 37 261 258 138 255 48 43 
285 11 288 18 95 163 11 57 173 216 323 319 56 
286 11 215 94 74 271 293 190 223 209 263 33 196 
287 7 246 186 86 309 39 200 199 
288 11 285 18 11 163 95 173 57 323 216 56 319 
289 11 248 24 273 17 43 241 65 301 261 73 312 
290 11 19 36 181 10 92 232 208 268 109 229 79 
291 10 32 166 113 222 204 13 221 224 119 226 
292 11 81 20 306 161 156 162 145 14 213 6 141 
293 11 74 33 320 271 215 286 223 34 26 94 138 
294 11 252 112 179 230 275 167 206 116 165 3 139 
295 11 281 140 47 322 211 38 51 31 251 115 207 
296 9 132 187 276 92 267 117 232 229 10 
297 11 61 42 46 5 313 269 79 212 259 147 268 
298 11 49 85 228 192 159 146 164 149 99 105 144 
299 11 133 143 178 242 316 318 89 152 54 249 29 
300 11 274 44 324 202 176 30 279 131 193 59 16 
301 11 312 273 241 65 217 195 248 289 254 214 234 
302 11 250 78 225 108 84 253 180 9 67 104 122 
303 11 56 319 77 97 173 163 88 11 124 323 285 
304 11 68 129 141 244 100 321 184 6 103 315 306 
305 11 219 55 66 283 169 209 35 191 308 239 182 
306 11 156 315 220 184 73 141 292 100 213 20 195 
307 8 185 135 121 172 227 130 310 54 
308 11 283 160 169 305 66 209 219 191 55 35 239 
309 10 200 279 324 246 202 39 8 282 287 59 
310 9 130 227 110 168 29 318 72 316 280 
311 11 120 170 102 9 243 51 131 123 194 207 67 
312 11 301 273 65 241 217 195 254 3 234 124 214 
313 11 46 61 269 297 42 109 79 231 145 268 5 
314 11 203 218 15 216 57 104 95 122 18 103 180 
315 11 184 220 156 306 73 195 100 217 141 65 241 
316 11 178 318 143 54 227 168 130 29 172 133 299 
317 9 117 136 157 29 296 187 249 40 267 
318 11 316 178 29 168 143 227 130 54 310 299 136 
319 11 56 303 77 88 97 173 163 11 95 57 285 
320 11 138 293 33 74 26 258 255 48 118 34 188 
321 11 6 153 114 141 233 304 20 129 68 162 91 
322 11 251 140 38 281 31 39 246 8 115 295 189 
323 11 165 11 173 116 163 288 285 303 56 319 18 
324 11 202 279 274 300 44 176 131 200 309 30 59 
DEPOT_SECTION
   1
   -1
EOF
