NAME :  X-n308-kX-w30-c11.cctp
COMMENT : 	Adapted by Maziero, Usberti and Cavellucci from the Uchoa, Pecin, Pessoa, Poggi, Subramanian, and Vidal (2013)
TYPE :  CCTP
DIMENSION :    209
EDGE_WEIGHT_TYPE : 	EUC_2D	
CAPACITY : 	246
VERTICES_WITHIN_COVERAGE :  11
VERTICES_WITH_DEMAND : 	30
NODE_COORD_SECTION
1 0 0
2 706 137
3 392 662
4 692 274
5 944 370
6 726 945
7 869 43
8 621 770
9 112 402
10 523 374
11 619 178
12 553 457
13 95 814
14 696 130
15 27 417
16 940 487
17 943 965
18 670 435
19 931 752
20 307 776
21 404 101
22 199 526
23 117 312
24 762 505
25 433 864
26 868 155
27 832 870
28 488 624
29 686 782
30 585 89
31 268 339
32 248 344
33 22 776
34 89 614
35 75 271
36 882 646
37 6 656
38 449 27
39 857 362
40 809 774
41 403 626
42 559 145
43 667 945
44 524 737
45 683 777
46 641 798
47 514 495
48 102 813
49 517 591
50 748 330
51 859 127
52 699 41
53 281 442
54 41 732
55 555 95
56 378 1
57 155 308
58 942 955
59 619 205
60 646 910
61 796 791
62 785 49
63 958 817
64 761 866
65 404 417
66 929 432
67 743 535
68 418 679
69 107 379
70 22 432
71 24 474
72 380 83
73 576 209
74 877 859
75 901 0
76 464 473
77 976 331
78 324 264
79 193 341
80 525 782
81 527 935
82 218 529
83 431 989
84 626 974
85 594 432
86 757 450
87 805 123
88 959 266
89 348 776
90 409 946
91 841 361
92 333 503
93 675 306
94 407 811
95 856 199
96 300 792
97 371 156
98 172 589
99 609 928
100 379 694
101 996 38
102 738 18
103 693 307
104 989 54
105 468 585
106 594 172
107 563 205
108 271 783
109 58 987
110 374 383
111 775 530
112 913 512
113 413 798
114 813 948
115 943 941
116 437 169
117 247 374
118 347 51
119 321 825
120 854 335
121 619 272
122 742 232
123 605 66
124 973 75
125 241 509
126 845 106
127 955 319
128 432 662
129 704 73
130 418 205
131 817 754
132 570 429
133 362 720
134 114 713
135 11 516
136 737 62
137 563 318
138 386 880
139 493 321
140 655 303
141 524 297
142 633 506
143 522 325
144 541 547
145 89 325
146 76 414
147 378 958
148 340 718
149 682 361
150 293 801
151 249 336
152 232 799
153 102 526
154 664 361
155 656 366
156 537 434
157 330 105
158 621 753
159 401 923
160 159 253
161 552 382
162 598 388
163 623 781
164 107 370
165 62 608
166 841 468
167 221 773
168 79 461
169 186 665
170 165 871
171 608 391
172 349 329
173 559 430
174 387 3
175 149 266
176 100 768
177 567 435
178 110 270
179 304 770
180 739 876
181 71 260
182 481 97
183 289 287
184 413 724
185 362 952
186 300 735
187 517 304
188 734 562
189 259 344
190 159 450
191 373 44
192 483 678
193 704 755
194 30 414
195 385 930
196 683 188
197 3 371
198 577 482
199 524 915
200 856 763
201 365 753
202 614 173
203 554 665
204 201 907
205 629 776
206 339 342
207 67 412
208 206 824
209 154 267
DEMAND_SECTION
2 80
3 94
4 87
5 77
6 77
7 50
8 79
9 86
10 75
11 84
12 88
13 94
14 74
15 95
16 89
17 83
18 55
19 77
20 1
21 7
22 3
23 7
24 5
25 2
26 2
27 2
28 5
29 2
30 7
31 1
COVERAGE_SECTION
2 11 14 196 129 136 11 52 202 87 122 59 106 
3 11 68 100 41 128 133 184 148 192 201 28 105 
4 10 103 93 140 122 121 50 196 149 154 155 
5 11 77 127 66 39 120 91 88 16 166 112 95 
6 11 43 180 64 60 114 84 99 27 29 61 46 
7 11 75 126 62 51 87 124 26 104 101 102 136 
8 11 205 163 158 46 45 29 193 80 44 203 60 
9 9 69 164 146 207 190 168 145 194 15 
10 11 161 143 139 156 173 137 187 132 177 162 141 
11 11 202 106 59 73 107 196 42 14 121 30 2 
12 11 177 156 173 132 198 85 47 161 162 171 10 
13 10 48 176 33 170 54 134 208 167 152 204 
14 11 2 129 196 136 52 11 202 59 87 106 123 
15 7 194 70 207 146 197 71 168 
16 11 112 66 166 5 39 77 91 36 127 111 120 
17 11 58 115 74 114 27 63 64 19 6 200 180 
18 11 155 154 149 85 171 142 162 86 132 177 198 
19 9 63 200 131 36 74 40 61 27 115 
20 8 179 96 150 108 89 186 119 201 
21 11 72 97 191 157 116 118 182 38 174 56 130 
22 11 82 125 98 190 153 53 92 168 169 34 9 
23 9 145 57 178 175 209 35 164 69 181 
24 7 111 67 86 188 166 18 142 
25 6 138 94 159 113 195 90 
26 11 51 95 126 87 7 124 62 88 122 75 104 
27 11 74 64 114 61 180 40 200 131 6 115 63 
28 11 49 105 192 128 203 41 68 144 3 44 184 
29 10 45 193 46 205 163 8 158 180 61 64 
30 11 123 55 42 106 202 11 182 14 107 73 129 
31 10 189 151 32 117 183 206 79 172 78 53 
32 10 151 189 31 117 79 183 206 57 172 53 
33 11 54 176 13 48 134 37 170 165 34 208 169 
34 11 165 98 153 37 134 169 135 54 22 168 71 
35 4 181 178 145 23 
36 5 19 200 131 112 40 
37 11 165 54 34 33 134 135 176 153 98 169 13 
38 11 174 56 182 191 21 72 118 55 157 116 30 
39 11 91 120 5 66 127 166 50 77 86 88 16 
40 9 61 131 200 27 64 193 74 29 19 
41 11 3 128 68 100 105 28 192 184 133 148 49 
42 10 106 55 107 30 202 73 11 59 123 182 
43 11 60 84 6 99 180 64 81 114 199 46 29 
44 10 80 192 203 158 8 163 184 205 28 128 
45 10 29 193 46 205 163 8 158 61 180 64 
46 11 163 205 8 45 29 158 193 60 80 180 44 
47 11 12 76 144 198 156 173 177 132 49 105 85 
48 10 13 176 170 33 54 134 208 167 152 204 
49 11 28 105 144 203 192 47 128 41 198 76 68 
50 11 103 149 93 4 154 140 91 122 155 120 39 
51 11 126 26 87 95 7 62 124 75 136 104 2 
52 11 129 136 102 62 14 2 123 30 87 196 55 
53 11 117 125 92 189 32 31 82 110 151 206 22 
54 11 33 176 134 37 13 48 165 34 169 167 170 
55 10 30 42 123 182 106 202 11 107 73 38 
56 8 174 191 118 38 72 21 157 182 
57 10 23 209 175 79 160 178 145 164 69 35 
58 11 17 115 74 114 27 63 64 19 200 6 180 
59 9 11 202 106 73 107 196 121 42 4 
60 11 43 99 84 6 180 46 81 199 64 163 29 
61 10 40 131 200 64 27 193 180 74 29 45 
62 11 136 102 87 126 7 129 52 51 2 14 75 
63 11 19 74 200 115 27 58 17 131 40 61 36 
64 11 180 27 61 6 114 40 29 74 45 43 60 
65 9 110 76 206 172 92 53 10 139 156 
66 11 16 5 112 166 39 77 91 127 120 88 86 
67 4 188 111 24 86 
68 10 128 3 100 184 41 192 133 148 28 201 
69 6 164 9 146 207 145 23 
70 8 15 194 71 207 146 168 197 135 
71 10 70 135 15 168 194 207 146 153 197 9 
72 10 21 191 118 157 97 174 56 38 182 116 
73 7 107 106 59 202 11 42 121 
74 11 27 63 200 115 61 40 114 58 64 19 131 
75 11 7 101 104 124 126 62 51 87 26 102 136 
76 11 47 65 156 12 173 144 177 105 198 10 132 
77 11 127 5 88 66 120 39 91 16 95 112 166 
78 4 183 172 206 31 
79 11 57 32 151 117 189 31 23 209 175 164 69 
80 10 44 8 163 158 205 192 113 46 203 94 
81 11 199 99 84 83 25 90 60 159 43 195 138 
82 11 22 125 98 190 53 153 92 169 34 168 117 
83 9 90 147 159 195 185 81 138 199 25 
84 11 99 43 60 6 81 199 180 64 46 114 163 
85 11 132 177 173 171 162 12 198 156 161 18 142 
86 11 24 111 67 166 18 188 149 50 91 154 155 
87 11 126 51 26 62 136 95 2 7 14 129 102 
88 11 127 77 5 95 120 39 26 91 66 51 124 
89 4 201 20 179 96 
90 9 159 195 147 185 83 138 25 81 199 
91 11 39 120 50 5 166 66 127 86 77 88 103 
92 11 53 125 65 82 110 76 22 41 117 105 206 
93 9 103 140 4 149 154 155 121 50 122 
94 2 113 25 
95 11 26 51 87 126 122 88 120 127 7 2 39 
96 7 150 20 179 108 119 89 186 
97 6 21 157 116 130 72 118 
98 11 22 82 169 34 153 125 165 134 190 168 135 
99 11 60 84 43 81 199 6 46 180 163 205 8 
100 10 133 3 68 184 148 201 128 41 89 186 
101 11 104 124 75 7 51 126 26 87 62 95 88 
102 11 136 52 62 129 14 2 87 7 126 123 51 
103 9 93 4 140 149 50 154 155 121 122 
104 11 101 124 75 7 51 126 26 87 95 62 88 
105 11 28 49 41 144 128 192 47 68 3 76 203 
106 9 202 11 59 73 42 107 30 55 196 
107 6 73 106 59 42 202 11 
108 10 150 96 179 20 152 167 186 119 89 208 
109 9 170 204 13 48 33 208 176 54 152 
110 9 65 206 172 53 31 189 76 92 117 
111 5 24 67 188 86 166 
112 11 16 66 166 36 111 5 24 39 91 86 67 
113 4 94 201 25 89 
114 11 27 6 64 180 74 58 115 17 43 61 60 
115 11 58 17 74 63 114 27 19 64 200 61 40 
116 6 130 97 21 182 72 42 
117 11 32 189 151 31 79 53 183 206 172 57 190 
118 7 191 72 157 56 174 21 38 
119 3 150 96 20 
120 11 39 91 5 127 50 77 66 88 166 95 86 
121 8 140 93 59 137 4 73 103 107 
122 11 4 196 103 50 93 2 14 140 95 59 87 
123 11 30 55 42 52 129 106 202 14 11 2 182 
124 11 104 101 75 7 51 26 126 95 87 62 88 
125 11 82 22 53 92 190 98 117 153 32 169 189 
126 11 51 87 26 7 62 95 136 75 124 102 2 
127 11 77 5 88 120 39 66 91 95 16 26 166 
128 10 68 3 41 192 100 184 28 105 133 148 
129 11 52 136 14 2 102 62 123 87 196 30 11 
130 4 116 97 21 78 
131 7 40 200 61 193 19 27 74 
132 11 177 173 85 12 156 161 162 198 171 10 47 
133 10 148 100 201 184 89 186 3 68 179 20 
134 11 176 54 169 48 34 13 33 165 37 167 98 
135 11 71 70 168 153 15 194 165 207 146 34 37 
136 11 129 52 102 62 14 2 87 126 123 7 196 
137 5 143 141 187 161 10 
138 5 159 25 195 90 94 
139 5 143 187 141 10 137 
140 9 93 103 4 121 154 155 149 137 50 
141 5 187 143 139 137 10 
142 10 198 18 85 12 177 132 144 173 67 188 
143 6 187 141 139 137 10 161 
144 11 49 47 198 105 12 28 142 76 156 177 173 
145 5 23 164 35 69 178 
146 8 207 9 194 69 168 15 164 70 
147 7 185 195 90 159 83 138 25 
148 10 133 186 201 100 89 179 20 184 3 96 
149 10 154 155 93 103 140 50 18 171 4 162 
150 8 96 108 20 179 119 89 152 186 
151 10 32 189 31 117 79 183 206 57 172 78 
152 9 167 208 108 150 96 20 179 119 186 
153 11 168 34 165 135 71 98 190 22 146 82 207 
154 10 155 149 93 140 103 171 162 18 50 4 
155 9 154 149 171 162 93 140 18 103 85 
156 11 173 12 177 132 161 85 10 198 47 162 76 
157 5 72 118 97 21 191 
158 10 8 205 163 46 45 29 193 44 80 203 
159 7 195 90 147 138 185 25 83 
160 5 209 175 178 57 23 
161 11 10 162 173 132 156 177 171 143 85 137 12 
162 10 171 85 161 132 177 173 155 154 10 156 
163 11 205 8 46 158 45 29 193 80 44 60 203 
164 6 69 9 145 146 207 23 
165 11 34 37 153 135 98 134 54 169 71 168 22 
166 11 112 86 24 111 66 16 39 91 67 120 5 
167 10 152 108 208 150 96 179 20 186 119 170 
168 11 146 207 71 70 9 15 194 153 190 69 135 
169 11 98 134 34 167 176 186 165 22 82 152 108 
170 9 204 208 48 13 152 167 176 108 150 
171 10 162 85 132 155 161 177 173 154 18 149 
172 9 206 110 78 183 31 189 151 32 65 
173 11 177 132 156 12 85 161 198 162 171 10 47 
174 8 56 191 118 38 72 21 157 182 
175 9 209 160 178 57 23 35 181 145 79 
176 11 48 13 134 54 33 208 167 170 169 152 37 
177 11 132 173 12 85 156 198 161 162 171 10 47 
178 8 35 175 181 23 209 160 57 145 
179 9 20 96 150 108 186 89 119 148 201 
180 11 64 6 27 60 43 61 114 29 45 40 46 
181 4 35 178 145 23 
182 9 55 21 38 116 42 72 30 191 97 
183 7 78 31 151 189 32 172 206 
184 10 68 100 133 201 3 128 148 113 89 192 
185 7 147 195 90 159 138 83 25 
186 10 179 20 148 108 96 89 133 150 201 167 
187 5 141 143 139 137 10 
188 3 67 111 24 
189 10 31 32 151 117 183 79 206 172 53 78 
190 11 9 168 22 69 146 153 164 82 207 125 79 
191 8 118 72 56 174 21 157 38 97 
192 10 128 28 68 44 203 184 3 49 105 41 
193 8 45 29 46 205 158 8 163 61 
194 7 15 70 207 146 197 71 168 
195 7 159 90 147 185 138 83 25 
196 11 2 14 11 59 202 122 4 106 121 73 129 
197 3 194 15 70 
198 11 12 177 85 132 173 142 156 47 144 162 171 
199 11 81 99 25 84 83 90 60 159 80 195 138 
200 9 131 40 61 19 74 27 63 36 64 
201 8 89 133 148 184 100 20 179 113 
202 11 11 106 59 73 107 42 196 30 14 55 2 
203 10 192 28 44 49 158 105 144 80 128 8 
204 8 170 208 152 167 48 150 13 108 
205 11 163 8 158 46 45 29 193 80 44 203 60 
206 9 172 110 31 183 78 189 151 32 117 
207 8 146 194 15 9 70 168 69 164 
208 9 152 167 170 108 204 150 96 48 13 
209 8 175 160 57 178 23 35 181 79 
DEPOT_SECTION
   1
   -1
EOF
