NAME :  X-n376-kX-w37-c7.cctp
COMMENT : 	Adapted by Maziero, Usberti and Cavellucci from the Uchoa, Pecin, Pessoa, Poggi, Subramanian, and Vidal (2013)
TYPE :  CCTP
DIMENSION :    227
EDGE_WEIGHT_TYPE : 	EUC_2D	
CAPACITY : 	4
VERTICES_WITHIN_COVERAGE :  7
VERTICES_WITH_DEMAND : 	37
NODE_COORD_SECTION
1 0 0
2 989 944
3 5 730
4 769 200
5 698 515
6 72 561
7 52 397
8 839 271
9 140 724
10 339 580
11 30 850
12 820 815
13 555 844
14 388 709
15 323 438
16 159 983
17 989 233
18 644 167
19 766 151
20 387 690
21 193 140
22 863 192
23 149 123
24 609 119
25 121 204
26 625 537
27 716 123
28 8 219
29 429 956
30 844 970
31 661 66
32 347 202
33 979 314
34 255 772
35 634 504
36 466 48
37 330 90
38 929 245
39 236 130
40 251 486
41 758 203
42 581 534
43 287 432
44 53 374
45 647 72
46 63 976
47 538 891
48 142 134
49 473 750
50 130 999
51 655 588
52 16 235
53 631 868
54 304 743
55 624 81
56 831 984
57 312 157
58 641 435
59 189 201
60 906 949
61 601 486
62 746 904
63 854 201
64 994 111
65 584 875
66 316 741
67 377 988
68 371 762
69 401 741
70 890 126
71 797 335
72 9 301
73 923 259
74 103 99
75 166 987
76 383 86
77 603 863
78 590 78
79 40 554
80 755 120
81 603 102
82 279 404
83 1 481
84 755 779
85 607 107
86 744 130
87 491 28
88 602 512
89 391 982
90 758 153
91 355 206
92 887 133
93 286 835
94 103 743
95 89 845
96 689 515
97 903 330
98 282 745
99 320 130
100 531 25
101 887 949
102 765 502
103 174 187
104 993 233
105 25 851
106 722 969
107 133 115
108 175 663
109 134 106
110 325 78
111 166 547
112 416 965
113 284 119
114 169 541
115 302 72
116 537 7
117 59 816
118 139 74
119 719 235
120 863 957
121 293 179
122 104 271
123 18 221
124 971 397
125 454 960
126 348 657
127 745 122
128 3 510
129 981 283
130 844 154
131 53 544
132 879 809
133 719 31
134 204 791
135 615 578
136 594 837
137 331 365
138 157 938
139 138 140
140 354 240
141 435 976
142 792 147
143 635 236
144 180 793
145 743 136
146 686 38
147 415 672
148 678 523
149 868 224
150 132 915
151 513 74
152 757 295
153 859 823
154 398 959
155 360 94
156 240 808
157 434 756
158 628 184
159 22 999
160 788 95
161 653 222
162 730 753
163 144 957
164 404 597
165 849 288
166 321 355
167 294 41
168 43 501
169 175 695
170 949 443
171 245 169
172 848 143
173 153 521
174 659 523
175 370 702
176 330 488
177 630 555
178 568 848
179 92 747
180 126 152
181 18 275
182 875 151
183 112 727
184 697 29
185 243 155
186 563 820
187 645 62
188 645 77
189 193 643
190 96 519
191 998 266
192 990 922
193 753 566
194 646 537
195 386 478
196 344 512
197 146 654
198 82 631
199 417 950
200 121 982
201 180 796
202 51 162
203 628 521
204 605 229
205 95 447
206 899 216
207 304 713
208 305 760
209 636 482
210 954 189
211 470 857
212 450 97
213 811 886
214 453 64
215 258 429
216 136 129
217 62 213
218 852 852
219 987 849
220 418 966
221 552 802
222 571 581
223 71 227
224 311 90
225 321 456
226 978 276
227 239 960
DEMAND_SECTION
2 1
3 1
4 1
5 1
6 1
7 1
8 1
9 1
10 1
11 1
12 1
13 1
14 1
15 1
16 1
17 1
18 1
19 1
20 1
21 1
22 1
23 1
24 1
25 1
26 1
27 1
28 1
29 1
30 1
31 1
32 1
33 1
34 1
35 1
36 1
37 1
38 1
COVERAGE_SECTION
2 5 192 60 219 101 120 
3 7 179 94 117 183 11 105 198 
4 7 41 90 19 142 119 145 86 
5 7 96 148 174 194 35 102 203 
6 7 131 79 190 168 198 128 173 
7 6 44 205 83 168 72 128 
8 7 165 149 63 71 206 22 73 
9 7 183 94 169 179 108 197 144 
10 6 164 196 126 176 195 147 
11 5 105 117 95 179 150 
12 5 153 218 132 213 84 
13 7 178 186 136 65 221 47 77 
14 7 20 175 69 147 68 126 157 
15 7 225 43 176 82 215 137 195 
16 7 75 163 50 200 138 150 227 
17 7 104 191 226 129 210 38 73 
18 7 158 161 24 85 143 204 81 
19 7 90 142 145 86 80 127 4 
20 7 14 175 147 126 69 68 157 
21 7 39 23 48 103 185 139 216 
22 7 63 149 130 182 206 172 92 
23 7 48 216 107 139 109 180 21 
24 7 85 81 55 78 188 18 45 
25 7 180 223 103 217 139 59 122 
26 7 203 177 194 35 88 174 135 
27 7 86 127 145 80 90 19 160 
28 7 123 52 217 181 223 202 72 
29 7 199 220 112 141 125 154 89 
30 4 56 120 101 60 
31 7 45 187 188 146 55 184 81 
32 5 91 140 57 121 99 
33 7 129 226 191 73 97 17 104 
34 7 98 156 208 134 54 66 93 
35 7 203 209 174 88 26 194 61 
36 4 214 87 212 151 
37 7 110 224 155 115 99 76 113 
38 7 73 206 226 17 210 129 104 
39 6 185 171 21 113 121 57 
40 5 215 43 225 176 15 
41 6 4 90 119 19 142 145 
42 7 88 26 222 203 61 177 135 
43 6 82 215 15 225 40 176 
44 6 7 205 72 181 122 83 
45 7 188 187 31 55 146 81 85 
46 7 159 200 50 163 150 16 138 
47 7 65 13 178 77 186 211 136 
48 7 139 216 23 107 180 109 21 
49 4 157 69 14 221 
50 7 200 16 75 163 138 46 150 
51 4 135 177 194 26 
52 6 123 28 181 217 223 72 
53 5 77 65 136 178 13 
54 7 66 208 98 207 34 68 175 
55 7 188 45 187 81 85 78 31 
56 4 30 120 101 60 
57 7 99 121 113 32 91 224 171 
58 3 209 61 35 
59 5 103 21 171 25 185 
60 4 101 120 30 2 
61 7 88 209 35 203 42 26 58 
62 3 213 106 12 
63 7 22 149 206 130 182 172 8 
64 5 210 70 92 17 104 
65 7 77 178 136 13 53 47 186 
66 7 54 208 207 98 68 175 34 
67 7 89 154 112 220 199 141 29 
68 7 69 14 66 175 157 208 54 
69 7 14 157 68 175 20 147 49 
70 5 92 182 172 130 22 
71 3 152 165 8 
72 6 181 52 123 28 44 223 
73 7 38 206 226 129 149 17 97 
74 5 109 107 118 216 23 
75 7 16 163 50 200 138 227 150 
76 2 155 37 
77 7 65 53 136 178 13 186 47 
78 7 81 55 85 24 188 45 187 
79 7 131 6 168 128 190 83 198 
80 7 127 86 145 19 90 27 160 
81 7 85 24 78 55 188 45 187 
82 6 43 215 15 137 166 225 
83 7 128 168 131 79 7 205 190 
84 3 162 12 153 
85 7 81 24 55 78 188 45 187 
86 7 145 127 80 90 27 19 142 
87 6 36 100 116 151 214 212 
88 7 61 203 42 35 26 209 177 
89 7 67 154 112 220 199 141 29 
90 7 19 145 86 80 127 142 4 
91 5 32 140 57 121 99 
92 5 70 182 172 130 22 
93 3 156 34 208 
94 7 179 183 9 117 169 144 201 
95 4 117 11 105 150 
96 7 5 148 174 194 35 203 209 
97 7 165 73 33 8 38 129 226 
98 7 54 208 66 34 207 156 93 
99 7 57 113 37 224 110 155 121 
100 5 116 87 151 36 78 
101 4 60 120 30 56 
102 4 193 5 96 148 
103 6 59 21 25 139 180 48 
104 7 17 191 226 129 210 38 73 
105 5 11 117 95 3 179 
106 3 62 56 30 
107 7 109 216 23 48 139 74 180 
108 6 189 197 169 9 183 198 
109 7 107 23 216 48 74 118 139 
110 7 37 224 115 155 167 99 113 
111 4 114 173 190 6 
112 7 220 199 29 154 141 89 125 
113 7 99 224 57 39 115 37 185 
114 4 111 173 190 6 
115 7 224 110 167 37 113 99 155 
116 5 100 87 151 36 78 
117 5 95 11 105 179 94 
118 4 109 107 74 23 
119 3 41 4 161 
120 4 30 101 56 60 
121 6 57 171 185 99 32 113 
122 5 223 25 217 181 52 
123 7 28 52 217 223 181 202 72 
124 4 170 33 97 129 
125 7 29 141 220 112 199 154 89 
126 7 175 20 14 147 207 10 164 
127 7 86 80 145 27 90 19 160 
128 7 83 168 79 131 6 190 205 
129 7 226 191 33 17 104 73 38 
130 7 172 182 22 63 92 142 70 
131 7 79 6 168 190 128 83 198 
132 3 153 218 12 
133 6 184 146 31 187 45 188 
134 5 144 201 156 34 98 
135 6 177 51 26 222 194 42 
136 7 77 178 186 65 13 53 221 
137 3 166 82 15 
138 6 163 150 16 75 200 50 
139 7 48 216 180 23 107 109 74 
140 4 91 32 121 57 
141 7 220 29 112 125 199 154 89 
142 7 19 90 80 145 86 130 160 
143 4 161 204 158 18 
144 5 201 134 156 34 9 
145 7 86 127 80 90 19 27 142 
146 7 184 133 31 187 45 188 55 
147 7 20 14 175 126 69 164 157 
148 7 96 174 5 194 35 203 26 
149 7 63 22 206 8 38 73 165 
150 4 138 163 200 16 
151 3 87 100 36 
152 3 71 119 8 
153 4 132 218 12 213 
154 7 112 199 220 89 29 67 141 
155 5 76 37 110 224 99 
156 7 34 134 93 201 144 98 208 
157 4 69 49 68 14 
158 6 18 161 204 143 24 85 
159 7 46 200 50 163 16 150 75 
160 5 80 127 142 86 19 
161 5 143 158 204 18 119 
162 2 84 12 
163 6 138 16 200 75 50 150 
164 4 10 147 126 20 
165 7 8 149 97 71 73 63 206 
166 3 137 82 15 
167 6 115 110 224 37 113 155 
168 7 128 131 83 79 190 6 205 
169 7 108 9 197 189 183 94 144 
170 3 124 97 33 
171 5 185 39 121 21 113 
172 6 130 182 92 70 22 142 
173 4 114 111 190 6 
174 7 148 194 35 96 203 26 5 
175 7 14 20 69 126 147 68 66 
176 6 196 225 15 195 43 40 
177 7 26 194 135 203 51 174 35 
178 7 13 136 186 65 77 221 47 
179 7 94 183 9 117 3 95 169 
180 7 139 48 216 23 107 109 25 
181 6 72 52 123 28 223 217 
182 7 92 172 70 130 22 63 206 
183 7 94 9 179 169 197 108 144 
184 7 146 133 31 187 45 188 55 
185 6 171 39 21 113 121 57 
186 5 221 13 178 136 65 
187 7 45 188 31 55 146 78 81 
188 7 45 187 31 55 85 81 24 
189 6 108 197 169 9 111 114 
190 6 6 131 168 173 79 205 
191 7 226 129 104 17 33 38 73 
192 4 2 219 60 101 
193 2 102 5 
194 7 174 26 177 203 35 148 96 
195 4 196 176 225 15 
196 5 176 195 225 10 15 
197 6 108 189 169 198 9 183 
198 7 197 6 79 131 108 183 9 
199 7 29 112 220 154 141 125 89 
200 7 50 163 16 75 138 46 150 
201 5 144 134 156 34 9 
202 5 217 123 223 28 180 
203 7 26 35 194 88 174 177 209 
204 4 143 161 158 18 
205 6 7 190 168 44 173 83 
206 7 149 38 22 63 73 210 182 
207 7 54 66 98 208 175 126 34 
208 7 54 66 98 207 34 68 93 
209 7 35 61 203 88 58 174 26 
210 7 17 104 38 206 73 92 64 
211 4 47 13 178 221 
212 2 214 36 
213 3 218 62 12 
214 4 36 212 87 151 
215 4 43 82 40 15 
216 7 48 139 23 107 109 180 74 
217 7 223 123 52 202 28 25 122 
218 4 153 12 132 213 
219 2 192 2 
220 7 112 29 199 141 154 89 125 
221 5 186 13 178 136 65 
222 4 135 42 177 26 
223 7 217 123 25 122 52 28 202 
224 7 110 37 115 113 99 155 167 
225 7 15 176 43 196 82 195 215 
226 7 129 191 33 17 104 38 73 
227 3 75 16 138 
DEPOT_SECTION
   1
   -1
EOF
