NAME :  X-n313-kX-w62-c7.cctp
COMMENT : 	Adapted by Maziero, Usberti and Cavellucci from the Uchoa, Pecin, Pessoa, Poggi, Subramanian, and Vidal (2013)
TYPE :  CCTP
DIMENSION :    209
EDGE_WEIGHT_TYPE : 	EUC_2D	
CAPACITY : 	248
VERTICES_WITHIN_COVERAGE :  7
VERTICES_WITH_DEMAND : 	62
NODE_COORD_SECTION
1 471 44
2 63 475
3 766 504
4 895 595
5 816 377
6 462 590
7 997 596
8 775 993
9 16 97
10 839 348
11 558 896
12 423 912
13 169 411
14 75 602
15 402 52
16 388 208
17 202 39
18 510 841
19 555 484
20 920 633
21 369 718
22 432 696
23 624 872
24 472 323
25 753 701
26 584 440
27 292 665
28 202 310
29 764 255
30 662 486
31 822 575
32 469 13
33 640 165
34 814 886
35 554 82
36 336 745
37 950 229
38 142 835
39 407 932
40 69 205
41 86 764
42 202 165
43 376 632
44 639 987
45 775 98
46 503 855
47 38 960
48 215 73
49 566 78
50 4 517
51 44 457
52 676 337
53 338 568
54 623 911
55 626 931
56 97 43
57 799 942
58 725 430
59 93 953
60 264 347
61 986 595
62 631 614
63 331 362
64 158 793
65 760 436
66 115 641
67 307 764
68 469 817
69 315 388
70 564 25
71 88 246
72 671 892
73 174 403
74 76 671
75 984 939
76 830 579
77 3 893
78 176 164
79 625 158
80 249 590
81 663 347
82 21 500
83 501 372
84 572 218
85 483 270
86 604 201
87 548 281
88 205 745
89 870 931
90 79 105
91 218 992
92 277 797
93 545 62
94 1 827
95 719 128
96 80 366
97 16 732
98 24 521
99 848 600
100 585 594
101 618 577
102 489 239
103 768 731
104 274 30
105 546 837
106 890 640
107 594 308
108 498 448
109 54 935
110 473 5
111 906 899
112 277 752
113 435 254
114 905 275
115 521 401
116 850 425
117 374 186
118 712 433
119 681 74
120 120 490
121 376 534
122 982 560
123 1 332
124 815 625
125 659 994
126 804 110
127 415 517
128 106 844
129 549 366
130 57 742
131 381 700
132 867 408
133 67 930
134 763 186
135 581 91
136 416 56
137 314 748
138 580 852
139 758 736
140 110 40
141 279 995
142 49 83
143 205 96
144 505 113
145 491 864
146 168 63
147 1 235
148 449 717
149 241 173
150 433 647
151 425 754
152 393 883
153 247 104
154 673 627
155 811 550
156 60 207
157 814 654
158 247 178
159 635 947
160 335 108
161 16 241
162 539 903
163 511 845
164 637 586
165 196 132
166 35 140
167 845 818
168 124 65
169 320 660
170 417 880
171 629 972
172 58 45
173 212 89
174 499 821
175 80 162
176 412 963
177 637 812
178 689 881
179 518 897
180 516 903
181 51 208
182 481 843
183 737 665
184 448 906
185 210 251
186 490 816
187 624 845
188 558 674
189 843 646
190 536 845
191 450 944
192 484 809
193 778 845
194 118 296
195 416 911
196 656 825
197 378 177
198 585 960
199 348 762
200 302 277
201 244 146
202 672 914
203 381 465
204 484 875
205 565 560
206 681 611
207 65 87
208 193 132
209 77 212
DEMAND_SECTION
2 94
3 56
4 73
5 25
6 4
7 97
8 82
9 57
10 41
11 98
12 45
13 86
14 5
15 83
16 99
17 78
18 64
19 44
20 69
21 25
22 44
23 64
24 59
25 72
26 10
27 26
28 56
29 1
30 41
31 69
32 62
33 29
34 77
35 20
36 46
37 47
38 19
39 48
40 95
41 21
42 56
43 13
44 79
45 21
46 66
47 2
48 61
49 2
50 21
51 51
52 33
53 43
54 55
55 89
56 54
57 62
58 41
59 49
60 71
61 100
62 67
63 64
COVERAGE_SECTION
2 7 51 82 120 98 50 96 13 
3 7 155 65 58 118 31 76 30 
4 7 20 106 99 76 189 31 124 
5 7 10 116 132 65 58 118 29 
6 7 150 127 43 121 205 22 100 
7 6 61 122 20 4 106 99 
8 6 57 89 34 125 202 44 
9 7 142 166 207 90 172 175 56 
10 7 5 132 116 114 65 29 58 
11 6 162 179 180 138 190 105 
12 6 195 39 184 170 152 191 
13 7 73 120 96 28 60 2 194 
14 7 66 74 98 50 82 120 2 
15 7 136 32 110 160 144 197 104 
16 6 117 197 113 102 200 85 
17 5 48 146 173 143 104 
18 7 163 46 174 190 182 145 186 
19 7 26 108 205 115 30 101 100 
20 6 106 4 61 189 99 7 
21 7 131 36 199 137 22 151 169 
22 5 148 150 131 151 21 
23 7 187 54 138 72 196 55 177 
24 7 85 83 113 102 87 129 115 
25 3 103 139 183 
26 7 19 115 129 108 30 83 205 
27 7 169 80 137 112 43 36 21 
28 4 185 60 194 73 
29 7 134 10 52 5 95 81 114 
30 7 118 58 26 101 164 3 19 
31 7 76 155 99 124 189 4 157 
32 7 110 136 15 93 70 144 35 
33 7 79 86 84 95 135 119 49 
34 5 193 57 89 167 111 
35 7 49 93 135 70 144 79 32 
36 7 199 137 67 21 112 131 92 
37 7 114 10 29 126 134 132 5 
38 7 128 64 41 88 133 130 59 
39 7 195 12 176 191 184 152 170 
40 5 156 209 181 175 71 
41 7 130 97 64 128 38 74 94 
42 4 78 165 208 149 
43 7 150 169 131 53 22 21 27 
44 7 171 125 159 55 198 54 202 
45 7 126 95 134 119 33 29 79 
46 6 163 145 18 182 204 174 
47 7 109 133 59 77 128 94 38 
48 5 173 143 17 153 146 
49 7 35 135 93 70 144 79 33 
50 7 98 82 2 51 14 120 66 
51 7 2 82 98 50 120 96 123 
52 7 81 107 118 58 29 65 129 
53 7 121 43 80 127 169 27 203 
54 7 55 159 23 202 72 171 198 
55 7 159 54 171 202 198 44 23 
56 5 140 168 172 207 142 
57 5 8 34 89 193 111 
58 7 118 65 30 3 81 5 52 
59 7 133 109 47 77 128 38 91 
60 6 69 63 28 200 73 185 
61 6 7 122 20 4 106 99 
62 5 164 101 154 100 206 
63 6 69 60 200 203 28 24 
64 7 38 88 128 41 130 92 112 
65 7 58 118 3 5 116 30 132 
66 7 74 14 130 41 97 88 80 
67 6 137 112 36 199 92 21 
68 5 192 186 182 174 18 
69 7 63 60 203 200 28 73 13 
70 7 93 49 35 135 110 32 144 
71 5 209 40 156 181 194 
72 5 178 202 23 54 55 
73 7 13 28 96 120 60 194 2 
74 7 66 14 130 97 41 64 88 
75 5 111 89 34 167 57 
76 7 31 99 155 124 4 189 157 
77 7 94 109 133 47 59 128 38 
78 2 42 208 
79 7 33 86 84 135 49 95 119 
80 7 27 53 169 43 121 66 88 
81 7 52 107 118 58 129 26 65 
82 7 98 50 2 51 120 14 96 
83 7 115 129 24 108 87 85 26 
84 7 86 87 79 33 102 107 85 
85 7 102 113 24 87 84 83 16 
86 7 84 79 33 87 107 135 102 
87 7 107 85 84 102 129 24 86 
88 6 64 112 92 67 137 38 
89 6 111 34 57 8 75 167 
90 6 207 142 166 175 168 9 
91 5 141 59 133 38 109 
92 4 67 112 137 36 
93 7 35 49 70 135 144 32 110 
94 7 77 97 130 41 128 109 133 
95 7 45 119 134 33 126 79 29 
96 6 194 123 51 13 73 2 
97 7 130 41 74 94 66 14 128 
98 7 50 82 2 51 14 120 66 
99 7 76 31 124 189 4 106 155 
100 7 101 205 62 164 188 154 206 
101 6 164 100 62 205 206 154 
102 7 85 113 87 24 84 16 86 
103 2 139 25 
104 6 17 48 153 173 143 160 
105 5 190 18 163 138 46 
106 5 20 4 189 99 124 
107 7 87 129 81 52 84 86 83 
108 7 115 19 83 26 129 127 203 
109 7 133 47 59 77 128 94 38 
110 7 32 136 15 93 70 35 144 
111 5 89 75 34 167 57 
112 6 67 137 92 36 88 199 
113 7 85 102 16 24 117 197 87 
114 7 37 10 5 132 29 116 134 
115 7 83 129 108 26 19 24 107 
116 7 132 5 10 65 3 58 155 
117 6 197 16 160 113 200 102 
118 7 58 65 30 3 81 52 5 
119 7 95 45 33 79 135 49 35 
120 7 2 51 13 82 98 73 50 
121 7 127 53 203 43 6 150 169 
122 7 61 7 4 20 106 99 76 
123 6 96 161 147 71 194 51 
124 5 157 189 99 76 31 
125 7 44 171 159 55 198 202 54 
126 7 45 134 95 119 29 33 79 
127 7 121 203 6 53 108 43 150 
128 7 38 64 41 133 109 94 59 
129 7 115 83 107 26 87 24 108 
130 7 41 97 74 94 64 128 66 
131 7 21 22 36 43 148 151 199 
132 7 116 5 10 65 114 3 58 
133 7 109 59 47 77 128 38 94 
134 7 29 95 126 45 33 119 79 
135 7 49 35 93 70 144 79 33 
136 7 15 32 110 160 144 197 93 
137 6 67 36 112 199 92 21 
138 5 105 187 190 23 11 
139 2 103 25 
140 4 56 168 172 146 
141 4 91 176 39 152 
142 7 207 9 90 172 166 56 140 
143 5 173 48 165 208 153 
144 7 35 93 49 135 32 70 136 
145 4 204 46 182 163 
146 2 17 168 
147 6 161 181 156 40 209 71 
148 5 22 151 131 150 21 
149 6 158 201 42 165 208 78 
150 7 22 43 6 148 131 21 151 
151 3 148 22 21 
152 5 170 195 12 39 184 
153 6 173 201 143 48 165 208 
154 2 206 62 
155 5 31 76 99 3 124 
156 6 40 181 209 71 175 161 
157 5 124 189 99 25 76 
158 4 149 201 42 165 
159 7 55 171 54 44 202 198 125 
160 7 197 15 117 153 136 104 201 
161 6 147 181 156 40 209 71 
162 3 11 179 180 
163 7 18 46 190 174 145 182 105 
164 6 101 62 206 100 154 205 
165 2 208 42 
166 7 9 175 90 142 207 181 156 
167 2 193 34 
168 3 140 56 146 
169 7 27 43 131 21 36 137 53 
170 5 152 195 12 184 39 
171 7 44 159 125 55 198 54 202 
172 7 56 142 207 140 90 9 168 
173 5 143 48 153 165 208 
174 7 186 192 18 163 182 68 46 
175 3 40 156 166 
176 5 39 191 12 195 184 
177 3 196 187 23 
178 5 72 202 196 23 54 
179 3 180 162 11 
180 3 179 162 11 
181 7 156 40 209 161 71 175 147 
182 7 145 46 174 186 18 68 163 
183 1 25 
184 3 12 195 191 
185 3 28 158 149 
186 7 192 174 68 182 18 163 46 
187 4 23 177 196 138 
188 2 100 62 
189 6 157 124 99 106 76 4 
190 7 105 163 18 46 174 138 145 
191 3 184 12 176 
192 6 186 68 174 182 18 163 
193 2 34 167 
194 4 71 96 28 209 
195 7 12 39 170 184 152 191 176 
196 3 177 187 23 
197 6 117 16 160 113 200 15 
198 6 171 55 159 44 54 11 
199 6 36 137 67 21 131 112 
200 5 60 63 185 28 16 
201 6 149 158 153 42 165 208 
202 6 72 178 54 55 159 23 
203 7 127 121 69 53 63 108 6 
204 2 145 46 
205 7 100 101 19 164 62 6 188 
206 3 154 62 164 
207 7 142 90 172 9 56 166 168 
208 2 165 42 
209 5 40 156 181 71 175 
DEPOT_SECTION
   1
   -1
EOF
