NAME :  X-n359-kX-w71-c9.cctp
COMMENT : 	Adapted by Maziero, Usberti and Cavellucci from the Uchoa, Pecin, Pessoa, Poggi, Subramanian, and Vidal (2013)
TYPE :  CCTP
DIMENSION :    289
EDGE_WEIGHT_TYPE : 	EUC_2D	
CAPACITY : 	68
VERTICES_WITHIN_COVERAGE :  9
VERTICES_WITH_DEMAND : 	71
NODE_COORD_SECTION
1 0 0
2 865 693
3 633 220
4 173 361
5 89 714
6 350 102
7 301 24
8 834 663
9 841 997
10 394 790
11 276 488
12 779 312
13 939 66
14 595 462
15 940 964
16 459 459
17 432 280
18 379 338
19 128 439
20 401 22
21 69 887
22 499 657
23 633 46
24 713 182
25 806 525
26 540 169
27 696 559
28 577 888
29 298 725
30 410 644
31 512 889
32 756 352
33 405 407
34 850 365
35 731 588
36 90 553
37 691 383
38 926 631
39 955 351
40 998 736
41 921 854
42 532 257
43 238 513
44 976 912
45 565 912
46 893 74
47 590 548
48 99 355
49 294 39
50 58 429
51 471 573
52 520 109
53 486 611
54 409 682
55 296 843
56 970 479
57 717 390
58 152 711
59 934 255
60 257 539
61 270 31
62 823 409
63 203 849
64 770 627
65 630 581
66 786 186
67 380 300
68 973 847
69 985 975
70 732 465
71 690 428
72 910 568
73 725 539
74 814 694
75 702 927
76 946 492
77 984 305
78 385 696
79 48 323
80 944 440
81 813 293
82 490 676
83 729 923
84 719 883
85 675 637
86 476 709
87 402 339
88 911 734
89 590 230
90 122 698
91 154 418
92 165 998
93 217 599
94 766 21
95 922 407
96 831 607
97 70 494
98 220 740
99 19 855
100 759 507
101 818 409
102 595 827
103 254 282
104 205 607
105 331 57
106 118 404
107 576 658
108 558 611
109 893 182
110 279 715
111 20 953
112 496 813
113 349 474
114 335 732
115 878 245
116 827 211
117 104 976
118 656 920
119 648 585
120 350 517
121 62 979
122 508 277
123 334 759
124 649 927
125 411 837
126 974 509
127 504 398
128 19 430
129 810 528
130 737 202
131 972 859
132 547 622
133 413 683
134 600 166
135 419 734
136 639 70
137 276 341
138 534 486
139 972 672
140 542 709
141 816 858
142 217 733
143 466 112
144 575 165
145 902 861
146 418 631
147 771 702
148 795 46
149 915 845
150 520 788
151 40 301
152 896 668
153 626 118
154 979 70
155 708 244
156 729 682
157 548 962
158 520 207
159 255 152
160 107 992
161 107 305
162 401 230
163 824 486
164 112 589
165 529 286
166 216 3
167 778 364
168 28 601
169 214 579
170 113 474
171 627 244
172 231 754
173 177 670
174 65 564
175 901 548
176 87 556
177 808 521
178 469 118
179 295 874
180 56 693
181 216 871
182 535 245
183 308 837
184 961 296
185 826 569
186 174 696
187 43 500
188 205 604
189 331 845
190 432 273
191 855 178
192 873 388
193 424 751
194 542 285
195 488 909
196 762 518
197 463 263
198 789 357
199 345 822
200 747 371
201 713 446
202 369 251
203 698 450
204 3 588
205 506 201
206 757 309
207 704 231
208 254 123
209 464 803
210 421 108
211 365 678
212 906 598
213 629 171
214 825 513
215 698 501
216 388 234
217 439 423
218 459 289
219 604 395
220 759 412
221 572 247
222 558 240
223 944 585
224 910 401
225 792 316
226 810 560
227 382 413
228 192 713
229 613 136
230 685 290
231 10 689
232 922 524
233 853 524
234 213 1
235 134 686
236 339 114
237 589 389
238 230 921
239 925 326
240 711 580
241 783 347
242 469 295
243 937 179
244 827 338
245 609 272
246 252 100
247 418 326
248 310 884
249 534 795
250 736 184
251 813 324
252 905 465
253 512 606
254 585 237
255 563 124
256 776 365
257 366 809
258 227 41
259 809 407
260 760 417
261 708 477
262 603 175
263 810 671
264 912 508
265 298 510
266 811 456
267 780 382
268 520 274
269 745 382
270 840 409
271 802 428
272 620 904
273 105 482
274 488 418
275 727 551
276 103 669
277 802 408
278 467 119
279 210 439
280 121 700
281 714 401
282 120 657
283 436 316
284 243 453
285 630 277
286 257 149
287 438 350
288 294 195
289 379 644
DEMAND_SECTION
2 10
3 8
4 9
5 7
6 9
7 1
8 3
9 1
10 8
11 10
12 8
13 10
14 2
15 4
16 9
17 2
18 3
19 10
20 3
21 1
22 4
23 3
24 8
25 3
26 5
27 6
28 7
29 9
30 1
31 1
32 8
33 3
34 10
35 2
36 4
37 10
38 2
39 8
40 5
41 10
42 9
43 9
44 2
45 10
46 3
47 7
48 7
49 6
50 1
51 7
52 1
53 4
54 6
55 7
56 8
57 2
58 9
59 3
60 1
61 6
62 4
63 1
64 5
65 3
66 3
67 1
68 6
69 6
70 8
71 10
72 3
COVERAGE_SECTION
2 9 152 8 74 263 88 38 96 147 212 
3 9 171 89 213 254 262 245 285 134 221 
4 9 91 106 48 279 161 19 137 103 284 
5 8 280 90 180 276 235 58 282 231 
6 8 236 105 210 49 7 20 208 246 
7 9 49 61 105 258 166 246 234 6 236 
8 9 263 74 2 96 152 64 147 185 38 
9 9 15 83 141 69 145 75 44 41 84 
10 9 257 193 125 199 135 123 209 114 189 
11 9 265 43 284 60 113 120 279 169 93 
12 9 225 206 241 251 81 32 198 167 256 
13 9 154 46 243 109 191 148 94 116 59 
14 9 138 219 237 47 71 203 215 127 261 
15 9 69 44 9 131 145 41 68 149 141 
16 6 217 274 33 127 138 227 
17 7 190 218 197 283 242 247 67 
18 8 87 67 247 287 283 33 227 17 
19 9 91 106 170 273 50 97 279 48 4 
20 9 105 210 6 7 49 143 236 278 178 
21 9 99 111 121 117 160 63 92 181 238 
22 9 82 53 253 86 132 140 108 107 146 
23 9 136 153 229 255 134 213 52 144 262 
24 9 250 130 207 155 66 213 3 171 153 
25 8 177 129 214 226 163 196 233 185 
26 8 144 158 205 255 134 52 262 222 
27 9 240 275 73 35 119 215 65 196 85 
28 8 45 272 102 31 157 124 118 195 
29 9 110 114 123 172 98 142 211 78 228 
30 9 146 289 54 133 211 78 53 82 22 
31 8 195 45 28 112 157 249 209 150 
32 9 200 256 167 241 269 198 267 206 12 
33 8 227 217 287 87 18 16 247 274 
34 9 192 244 270 62 101 251 259 198 277 
35 9 240 275 27 73 64 85 196 119 226 
36 8 176 174 164 97 187 273 168 170 
37 9 57 281 71 269 200 201 203 32 220 
38 9 212 152 223 139 72 2 175 8 96 
39 9 239 77 184 95 224 80 192 59 34 
40 9 139 88 68 152 131 38 149 2 41 
41 9 149 145 131 68 44 141 15 88 69 
42 8 182 268 165 194 122 222 221 158 
43 9 60 11 265 284 169 279 93 188 104 
44 9 131 15 69 68 41 145 149 9 141 
45 8 28 157 272 31 195 124 102 118 
46 9 13 154 148 109 191 243 94 116 66 
47 9 65 119 108 138 14 132 253 27 107 
48 9 161 106 79 4 151 91 50 19 128 
49 9 7 61 105 258 246 6 166 236 234 
50 9 128 106 97 19 170 273 187 48 91 
51 9 53 253 146 22 132 30 108 82 138 
52 6 255 178 143 278 26 144 
53 9 253 51 22 132 82 146 108 30 86 
54 9 133 78 30 211 289 146 135 193 86 
55 7 183 179 189 248 199 257 181 
56 8 76 126 80 264 232 252 95 175 
57 9 281 37 269 200 71 220 260 32 201 
58 9 186 235 90 280 228 173 5 282 276 
59 9 184 115 77 239 243 109 39 191 116 
60 9 43 265 11 169 93 188 104 284 120 
61 7 49 7 258 166 234 105 246 
62 9 101 259 270 277 271 266 267 34 192 
63 9 181 238 55 179 172 183 98 248 142 
64 9 35 263 96 156 8 147 240 226 74 
65 9 119 47 27 85 108 240 132 107 35 
66 9 116 250 130 191 24 207 155 109 115 
67 9 18 87 247 202 17 283 190 216 162 
68 9 131 41 149 44 145 40 15 69 88 
69 9 15 44 131 68 41 145 9 149 141 
70 9 201 261 203 100 215 71 260 220 196 
71 9 203 201 281 37 57 261 70 220 260 
72 9 175 212 223 232 264 38 233 76 185 
73 9 275 27 196 240 100 215 35 261 70 
74 9 263 8 147 2 64 152 156 96 88 
75 9 83 84 118 124 272 28 141 45 102 
76 8 56 126 264 232 252 80 175 72 
77 9 184 39 239 59 95 224 115 243 192 
78 9 211 54 133 135 289 30 114 193 146 
79 9 151 48 161 50 106 128 4 19 91 
80 8 95 252 56 76 224 126 264 232 
81 9 225 251 12 244 206 241 198 167 34 
82 9 22 86 140 53 253 133 132 54 146 
83 9 75 84 118 124 141 272 9 28 45 
84 9 83 75 118 124 141 272 102 28 45 
85 9 119 240 156 65 35 27 64 275 107 
86 9 82 22 135 140 193 133 54 150 78 
87 7 247 18 287 283 67 17 33 
88 9 2 152 40 139 38 8 74 149 263 
89 9 254 221 222 171 3 245 182 262 285 
90 9 280 235 58 276 5 282 186 173 180 
91 9 19 106 4 279 170 273 48 284 50 
92 8 160 117 238 121 181 21 111 63 
93 8 188 104 169 60 173 43 164 186 
94 9 148 23 136 46 66 250 24 153 13 
95 8 224 80 192 252 39 239 270 34 
96 9 185 226 8 64 263 212 129 25 233 
97 9 187 273 170 36 176 50 174 19 128 
98 9 142 172 228 110 186 58 29 173 235 
99 9 21 111 121 117 5 160 180 231 63 
100 9 196 73 25 70 177 275 129 261 215 
101 8 62 259 277 270 271 267 266 34 
102 6 28 249 272 150 45 112 
103 8 137 288 4 202 67 159 286 18 
104 8 188 93 169 173 60 186 164 282 
105 9 49 7 6 236 61 20 246 208 210 
106 9 19 91 48 50 4 170 273 279 161 
107 8 132 108 140 22 253 82 65 85 
108 9 132 253 107 47 53 22 65 82 119 
109 9 191 243 115 116 59 66 46 13 184 
110 9 29 114 172 98 142 123 228 211 186 
111 9 121 21 117 160 99 92 63 181 238 
112 7 209 150 249 31 125 193 195 
113 9 120 265 227 11 33 217 284 16 60 
114 9 123 29 110 78 211 10 257 135 54 
115 9 59 116 109 191 81 243 239 184 251 
116 9 191 66 115 109 81 130 250 225 12 
117 9 160 121 92 111 21 238 99 181 63 
118 9 124 272 75 83 84 28 45 102 157 
119 9 65 27 85 240 47 35 275 73 108 
120 9 113 265 11 60 227 43 16 33 284 
121 9 117 160 111 21 92 99 238 181 63 
122 4 268 165 42 194 
123 9 114 29 257 199 10 110 78 183 189 
124 9 118 272 75 83 28 84 45 157 102 
125 5 10 257 209 199 189 
126 9 56 76 232 264 80 223 252 175 72 
127 3 274 217 16 
128 9 50 187 97 273 106 170 19 48 79 
129 8 25 177 214 226 233 163 185 196 
130 9 250 24 207 155 66 116 230 3 206 
131 9 68 41 44 149 145 15 69 40 88 
132 9 108 253 107 22 53 82 47 140 51 
133 9 54 78 30 211 135 146 289 86 193 
134 9 262 144 213 229 153 255 26 3 89 
135 9 193 78 133 54 10 86 211 209 114 
136 9 23 153 229 255 213 134 262 144 52 
137 9 103 18 4 67 284 279 87 227 202 
138 8 14 16 274 47 127 51 237 217 
139 9 38 40 152 88 223 212 2 72 8 
140 7 107 82 86 22 150 249 132 
141 9 145 84 149 41 83 75 9 88 131 
142 9 98 172 228 186 110 58 173 29 235 
143 4 178 278 210 52 
144 9 134 262 26 255 229 213 89 153 158 
145 9 41 149 131 68 141 44 15 88 69 
146 9 30 289 54 133 53 211 78 51 22 
147 9 74 156 263 8 64 2 96 85 35 
148 9 94 46 66 13 191 250 136 24 23 
149 9 41 145 68 131 44 141 88 15 40 
150 7 249 112 209 140 102 86 31 
151 8 79 161 48 50 106 128 4 91 
152 9 2 38 8 88 212 139 74 263 96 
153 9 229 136 213 134 262 255 144 23 26 
154 9 13 46 243 109 191 148 59 115 116 
155 9 207 130 230 24 250 3 171 206 285 
156 8 147 64 85 263 74 35 240 8 
157 7 45 28 195 31 272 124 118 
158 5 205 182 26 222 42 
159 7 286 208 246 288 236 6 258 
160 9 117 121 92 111 21 238 99 181 63 
161 8 48 79 151 4 106 91 50 19 
162 6 216 202 190 17 197 67 
163 4 214 266 177 25 
164 6 176 36 174 282 276 168 
165 5 194 268 122 42 182 
166 4 234 258 61 49 
167 9 256 198 241 267 32 200 269 225 277 
168 6 204 174 176 36 164 231 
169 8 93 188 104 60 43 173 164 265 
170 9 273 19 97 91 106 50 187 36 176 
171 9 3 245 285 89 254 221 222 213 262 
172 9 98 142 228 110 29 186 58 63 173 
173 8 186 228 235 58 282 90 280 104 
174 7 176 36 168 164 204 187 97 
175 8 72 232 264 212 233 223 76 185 
176 7 36 174 164 97 187 168 273 
177 7 25 129 214 163 226 233 196 
178 4 278 143 210 52 
179 6 248 55 183 189 199 181 
180 7 5 231 276 280 90 282 235 
181 9 63 238 179 55 248 183 172 189 98 
182 9 42 222 268 221 158 165 194 122 254 
183 7 55 189 179 199 248 257 123 
184 9 77 239 59 39 115 224 95 243 192 
185 8 226 96 129 25 177 233 214 175 
186 9 228 173 58 235 90 280 142 98 282 
187 9 97 273 174 36 176 50 128 170 204 
188 8 104 93 169 173 60 164 43 186 
189 6 183 199 55 248 179 257 
190 6 17 218 197 242 283 162 
191 9 109 116 66 115 243 59 46 250 130 
192 9 34 224 270 95 62 101 259 244 277 
193 9 135 10 209 78 86 133 54 257 125 
194 5 165 268 42 122 182 
195 5 31 45 157 28 112 
196 9 100 73 25 177 275 129 70 214 226 
197 4 218 190 242 17 
198 9 241 167 256 267 32 225 251 244 200 
199 8 257 189 183 55 10 123 125 248 
200 9 269 32 256 167 267 57 220 241 198 
201 9 203 70 71 261 281 260 57 215 220 
202 8 216 162 67 190 17 18 247 283 
203 9 201 71 261 70 215 281 57 37 260 
204 7 168 174 176 36 187 231 164 
205 3 158 26 182 
206 9 12 225 32 241 81 198 251 167 256 
207 9 155 130 24 250 230 3 171 285 66 
208 8 246 286 159 288 236 258 49 61 
209 8 112 150 125 193 249 10 135 86 
210 5 143 278 178 6 236 
211 9 78 289 54 133 30 114 146 135 29 
212 9 72 38 223 175 152 96 232 185 264 
213 9 262 134 229 3 153 144 89 171 254 
214 5 177 129 25 163 233 
215 9 261 73 70 203 201 27 275 100 196 
216 6 162 202 190 17 67 197 
217 6 33 16 274 227 127 287 
218 5 242 197 17 190 283 
219 5 237 14 37 71 127 
220 9 260 269 267 200 277 271 281 57 256 
221 9 222 254 89 182 42 245 194 171 165 
222 9 221 182 254 42 89 194 158 268 165 
223 9 72 212 38 175 232 126 264 139 76 
224 8 95 192 80 252 39 34 270 239 
225 9 12 251 81 241 206 198 244 167 32 
226 8 185 129 25 177 214 96 233 196 
227 8 33 217 113 18 87 287 16 247 
228 9 186 142 98 58 173 172 235 90 280 
229 9 153 134 213 262 144 255 136 26 3 
230 9 155 285 207 171 206 245 3 37 32 
231 7 180 5 168 276 204 90 280 
232 9 264 175 76 72 126 252 223 56 233 
233 7 214 129 177 25 163 185 175 
234 3 166 258 61 
235 8 90 280 58 282 276 186 173 5 
236 9 6 105 210 208 49 246 286 159 288 
237 3 219 14 127 
238 7 181 63 179 248 92 55 183 
239 9 39 184 77 59 224 95 192 34 115 
240 9 35 27 275 73 119 85 64 196 215 
241 9 198 167 256 32 225 12 267 251 200 
242 4 218 197 283 17 
243 9 109 59 191 115 13 46 116 154 184 
244 9 251 34 225 198 241 81 12 167 256 
245 8 285 171 254 221 89 3 222 194 
246 7 208 286 159 258 61 49 236 
247 7 87 283 287 18 67 17 190 
248 4 179 55 189 183 
249 7 150 112 102 209 140 31 28 
250 9 130 24 66 207 155 116 213 3 230 
251 9 244 225 81 12 241 198 167 34 256 
252 7 264 80 76 95 232 224 56 
253 9 53 132 108 22 51 82 107 47 146 
254 9 89 221 222 245 171 3 182 42 285 
255 9 144 52 26 229 134 153 262 213 136 
256 9 167 198 267 241 32 200 269 220 277 
257 8 199 10 189 125 123 183 55 193 
258 5 166 234 61 246 49 
259 9 277 101 62 271 270 267 266 220 260 
260 9 220 269 267 271 277 200 281 259 57 
261 9 215 70 203 201 71 100 73 196 275 
262 9 134 213 144 229 3 89 153 26 254 
263 9 74 8 147 2 64 96 156 152 185 
264 8 232 76 175 252 72 233 126 56 
265 9 11 60 120 43 113 284 169 279 93 
266 4 271 163 101 62 
267 9 256 167 198 277 200 241 269 220 32 
268 5 122 165 42 194 182 
269 9 200 57 32 220 256 267 281 167 260 
270 8 62 101 259 277 192 271 34 266 
271 8 277 259 101 62 266 270 260 220 
272 9 124 118 28 45 102 75 157 84 31 
273 9 170 97 19 187 50 36 176 106 91 
274 5 127 217 16 138 33 
275 9 73 27 240 35 196 100 215 261 25 
276 6 282 90 235 280 5 180 
277 9 259 101 271 62 267 270 220 260 266 
278 4 178 143 210 52 
279 9 284 91 43 11 19 4 106 170 60 
280 9 90 235 58 5 276 282 186 173 180 
281 9 57 37 71 269 200 201 220 260 203 
282 7 276 235 90 280 173 58 5 
283 7 247 287 218 17 242 87 190 
284 9 279 11 43 265 60 91 113 4 19 
285 8 245 171 3 230 254 89 221 222 
286 7 159 208 246 288 236 6 258 
287 5 247 283 87 18 242 
288 9 159 286 208 236 202 103 216 246 6 
289 9 30 211 146 54 78 133 114 135 53 
DEPOT_SECTION
   1
   -1
EOF
