NAME :  X-n384-kX-w153-c9.cctp
COMMENT : 	Adapted by Maziero, Usberti and Cavellucci from the Uchoa, Pecin, Pessoa, Poggi, Subramanian, and Vidal (2013)
TYPE :  CCTP
DIMENSION :    382
EDGE_WEIGHT_TYPE : 	EUC_2D	
CAPACITY : 	564
VERTICES_WITHIN_COVERAGE :  9
VERTICES_WITH_DEMAND : 	153
NODE_COORD_SECTION
1 51 570
2 691 985
3 66 119
4 502 415
5 434 289
6 427 584
7 342 576
8 790 87
9 312 475
10 908 531
11 840 566
12 863 232
13 284 833
14 515 175
15 9 243
16 768 209
17 777 582
18 84 508
19 380 523
20 255 267
21 544 961
22 408 661
23 57 588
24 278 44
25 168 722
26 726 406
27 223 385
28 495 70
29 560 632
30 235 655
31 643 127
32 765 267
33 459 976
34 585 962
35 154 796
36 650 444
37 931 52
38 377 19
39 178 633
40 917 803
41 871 677
42 667 164
43 208 651
44 35 437
45 503 680
46 462 870
47 322 123
48 677 829
49 878 407
50 223 251
51 671 94
52 218 351
53 375 220
54 367 567
55 986 869
56 236 769
57 202 998
58 761 712
59 75 520
60 14 737
61 895 632
62 224 725
63 328 387
64 36 300
65 817 531
66 31 283
67 209 574
68 490 395
69 659 121
70 410 207
71 761 450
72 768 348
73 943 340
74 39 955
75 106 150
76 963 376
77 516 144
78 554 127
79 944 75
80 373 88
81 54 5
82 39 965
83 51 392
84 999 983
85 563 410
86 536 848
87 786 533
88 42 948
89 875 361
90 535 800
91 581 696
92 413 763
93 148 875
94 483 983
95 449 343
96 219 600
97 374 487
98 279 200
99 479 705
100 273 519
101 869 745
102 776 395
103 341 275
104 593 973
105 778 716
106 277 152
107 782 314
108 896 301
109 573 478
110 42 198
111 124 348
112 105 240
113 557 630
114 782 897
115 774 669
116 847 411
117 357 782
118 161 755
119 709 832
120 948 830
121 434 60
122 298 921
123 990 161
124 942 399
125 571 611
126 262 680
127 253 246
128 563 416
129 382 91
130 579 962
131 215 439
132 248 65
133 811 175
134 725 834
135 169 359
136 641 926
137 625 52
138 629 8
139 486 394
140 83 462
141 924 930
142 175 333
143 115 192
144 123 534
145 634 528
146 702 299
147 86 172
148 11 889
149 8 583
150 495 538
151 3 14
152 201 666
153 131 348
154 300 323
155 551 167
156 851 897
157 412 90
158 813 64
159 993 344
160 317 999
161 90 595
162 180 817
163 667 24
164 666 285
165 733 661
166 506 774
167 493 953
168 162 458
169 735 602
170 345 771
171 468 639
172 776 107
173 819 750
174 204 781
175 165 858
176 678 218
177 536 950
178 47 421
179 239 153
180 744 664
181 766 64
182 788 448
183 920 330
184 54 707
185 216 471
186 793 257
187 517 964
188 389 503
189 923 563
190 383 388
191 917 890
192 734 599
193 749 248
194 333 17
195 84 713
196 776 428
197 888 452
198 371 465
199 408 820
200 357 613
201 675 690
202 979 298
203 222 489
204 507 187
205 379 793
206 526 595
207 17 545
208 513 146
209 70 513
210 484 862
211 294 987
212 880 478
213 287 733
214 709 30
215 755 201
216 939 682
217 23 975
218 135 799
219 808 471
220 352 279
221 224 900
222 275 130
223 60 465
224 288 813
225 718 755
226 829 744
227 523 799
228 569 157
229 634 665
230 627 260
231 743 336
232 870 16
233 267 623
234 675 856
235 239 494
236 950 618
237 445 653
238 394 763
239 816 368
240 19 825
241 68 548
242 912 106
243 600 71
244 245 644
245 620 364
246 555 400
247 549 230
248 243 724
249 657 925
250 355 48
251 951 488
252 586 851
253 318 318
254 549 848
255 917 3
256 295 453
257 818 398
258 73 482
259 891 952
260 349 100
261 950 284
262 69 29
263 140 20
264 178 1
265 585 862
266 381 457
267 266 918
268 164 506
269 174 282
270 56 123
271 693 864
272 146 606
273 244 461
274 846 275
275 176 95
276 912 431
277 903 582
278 703 553
279 297 364
280 703 755
281 332 591
282 283 487
283 968 440
284 718 490
285 295 702
286 449 997
287 926 605
288 604 188
289 632 895
290 761 894
291 239 159
292 963 544
293 762 412
294 986 378
295 802 918
296 851 893
297 180 267
298 593 544
299 837 710
300 276 708
301 963 733
302 255 875
303 396 884
304 699 106
305 261 853
306 348 742
307 860 800
308 535 344
309 808 933
310 450 911
311 433 336
312 652 319
313 411 46
314 842 35
315 654 385
316 871 67
317 457 532
318 9 162
319 886 356
320 464 267
321 413 493
322 140 227
323 819 673
324 660 739
325 322 299
326 626 556
327 975 276
328 138 941
329 304 86
330 560 367
331 201 120
332 532 473
333 60 255
334 240 267
335 174 678
336 929 577
337 369 972
338 668 756
339 899 435
340 367 634
341 585 668
342 45 722
343 207 394
344 340 665
345 142 543
346 279 945
347 259 574
348 293 833
349 54 58
350 481 595
351 44 507
352 125 942
353 410 444
354 462 734
355 881 743
356 690 935
357 879 195
358 239 813
359 911 347
360 289 397
361 206 571
362 532 174
363 610 399
364 184 52
365 719 98
366 261 552
367 277 497
368 85 267
369 818 67
370 54 568
371 545 251
372 657 549
373 484 37
374 739 237
375 868 790
376 17 42
377 778 328
378 848 464
379 33 255
380 237 37
381 335 531
382 113 544
DEMAND_SECTION
2 83
3 65
4 92
5 73
6 94
7 100
8 99
9 83
10 84
11 81
12 65
13 69
14 84
15 67
16 53
17 70
18 93
19 69
20 78
21 75
22 56
23 99
24 88
25 61
26 65
27 90
28 74
29 85
30 59
31 76
32 79
33 99
34 98
35 80
36 71
37 71
38 93
39 69
40 88
41 71
42 52
43 75
44 83
45 67
46 88
47 64
48 89
49 86
50 84
51 89
52 97
53 85
54 78
55 83
56 90
57 93
58 61
59 84
60 98
61 97
62 78
63 60
64 58
65 63
66 99
67 50
68 93
69 53
70 52
71 70
72 97
73 63
74 72
75 77
76 88
77 66
78 100
79 50
80 69
81 78
82 53
83 81
84 59
85 77
86 67
87 77
88 74
89 88
90 78
91 78
92 84
93 83
94 86
95 88
96 71
97 90
98 73
99 60
100 59
101 65
102 87
103 59
104 51
105 79
106 83
107 71
108 81
109 63
110 83
111 84
112 71
113 69
114 93
115 80
116 67
117 95
118 88
119 89
120 68
121 67
122 54
123 54
124 84
125 88
126 98
127 66
128 94
129 100
130 61
131 93
132 71
133 51
134 59
135 96
136 79
137 90
138 73
139 90
140 64
141 51
142 51
143 72
144 71
145 78
146 90
147 66
148 71
149 86
150 54
151 76
152 99
153 50
154 80
COVERAGE_SECTION
2 9 356 249 136 104 34 289 130 290 271 
3 9 270 75 147 349 318 110 143 262 376 
4 9 68 139 246 85 128 332 330 308 95 
5 9 320 311 95 220 70 53 103 190 325 
6 9 350 317 54 171 237 200 19 340 22 
7 9 281 54 200 381 340 19 347 366 6 
8 9 172 158 181 369 365 314 316 133 304 
9 9 256 282 367 100 198 381 97 273 266 
10 9 189 277 336 292 212 251 11 287 197 
11 9 65 87 17 277 10 189 61 336 287 
12 9 357 274 186 108 133 16 261 32 215 
13 9 348 224 305 358 302 56 170 267 117 
14 9 204 362 208 77 155 228 78 247 371 
15 9 379 66 333 110 64 368 318 112 147 
16 9 215 374 193 186 133 32 176 12 172 
17 9 192 169 87 11 65 278 115 180 165 
18 9 59 209 258 351 241 140 382 144 223 
19 9 188 97 321 54 381 198 7 266 6 
20 9 334 127 50 98 154 325 297 253 269 
21 9 177 187 130 34 104 167 94 33 286 
22 9 237 340 171 344 200 6 99 354 45 
23 9 370 161 241 149 207 59 382 209 351 
24 9 132 380 329 194 250 222 47 260 364 
25 9 118 335 62 152 174 35 248 43 56 
26 9 293 102 196 71 72 231 182 315 284 
27 9 343 52 131 135 360 142 279 273 185 
28 9 373 121 77 208 78 157 313 243 14 
29 9 113 125 341 206 91 45 229 350 171 
30 9 244 43 152 126 233 96 39 335 300 
31 9 69 51 42 304 243 288 137 228 365 
32 9 193 186 374 107 16 377 215 146 231 
33 9 286 94 167 187 310 177 21 337 46 
34 9 130 104 21 177 136 187 249 289 167 
35 9 218 162 118 174 175 25 93 56 358 
36 9 315 363 284 109 26 245 145 128 85 
37 9 79 255 242 316 232 314 369 158 123 
38 9 250 313 194 80 121 129 157 260 329 
39 9 43 152 272 335 96 30 67 244 361 
40 9 120 375 307 355 101 301 191 55 226 
41 9 299 61 323 355 101 216 226 173 287 
42 9 31 69 176 304 288 51 365 215 228 
43 9 152 30 39 244 335 96 126 233 62 
44 9 178 223 83 140 258 351 209 18 59 
45 9 99 171 237 354 113 29 91 341 206 
46 9 210 310 303 199 86 167 254 227 90 
47 9 260 329 222 106 80 129 250 98 179 
48 9 234 119 271 134 338 280 289 225 324 
49 9 116 339 276 89 197 319 257 124 378 
50 9 334 127 20 297 269 98 322 291 142 
51 9 69 304 31 365 137 42 163 214 243 
52 9 27 343 142 135 279 269 360 153 154 
53 9 70 220 103 5 325 98 320 47 253 
54 9 7 281 19 200 381 6 340 188 97 
55 9 120 191 141 40 84 259 296 156 301 
56 9 174 358 62 248 213 224 300 162 118 
57 9 328 211 346 352 221 267 160 122 93 
58 9 105 115 180 165 225 173 323 280 226 
59 9 209 18 241 351 258 382 144 370 223 
60 9 342 184 195 240 218 118 35 148 149 
61 9 287 41 277 236 336 216 189 11 323 
62 9 248 56 300 25 126 174 152 213 335 
63 9 279 360 190 154 253 256 266 325 9 
64 9 66 379 333 368 15 112 83 111 110 
65 9 87 11 219 17 378 212 182 10 71 
66 9 64 379 333 15 368 110 112 83 111 
67 9 361 96 347 366 39 272 345 233 43 
68 9 139 4 246 95 308 85 330 128 311 
69 9 31 51 304 42 365 137 243 288 163 
70 9 53 320 5 220 103 204 14 157 129 
71 9 182 196 293 219 26 102 284 257 87 
72 9 377 231 107 102 239 293 257 26 196 
73 9 183 359 76 159 202 261 294 124 319 
74 9 88 82 217 148 352 328 240 93 175 
75 9 147 143 3 270 110 322 275 112 318 
76 9 294 124 73 159 359 183 283 276 202 
77 9 208 14 362 78 155 204 228 28 247 
78 9 228 155 77 208 362 14 243 204 288 
79 9 37 242 316 255 232 123 314 369 158 
80 9 129 260 157 250 313 47 121 38 329 
81 9 262 151 376 349 263 3 270 264 364 
82 9 74 88 217 148 352 328 93 240 175 
83 9 178 44 223 140 111 153 64 258 66 
84 9 141 259 55 191 120 156 296 309 40 
85 9 128 246 330 363 4 109 332 308 245 
86 9 254 90 252 227 265 210 46 166 177 
87 9 65 17 11 219 284 192 182 278 169 
88 9 74 82 217 148 352 328 240 93 175 
89 9 319 359 49 183 116 239 108 257 73 
90 9 227 166 86 254 252 210 265 354 46 
91 9 341 229 29 113 45 125 324 201 99 
92 9 238 205 199 354 117 170 306 99 166 
93 9 175 162 328 352 218 35 221 302 174 
94 9 33 167 286 187 177 21 310 130 34 
95 9 311 5 139 68 320 190 308 4 353 
96 9 67 361 347 244 43 39 233 30 366 
97 9 188 198 266 19 321 353 381 9 54 
98 9 106 127 291 179 222 20 50 334 47 
99 9 354 45 237 171 166 22 92 91 238 
100 9 367 282 366 235 347 9 203 381 273 
101 9 355 226 375 299 173 307 41 40 323 
102 9 293 196 257 72 239 26 182 71 377 
103 9 220 325 253 154 53 20 127 5 70 
104 9 34 130 21 177 136 187 249 289 2 
105 9 58 115 173 226 299 323 180 165 225 
106 9 222 179 291 98 47 329 331 260 132 
107 9 377 72 231 32 186 239 193 274 102 
108 9 183 359 274 319 261 73 89 12 202 
109 9 332 128 85 298 145 246 36 363 326 
110 9 318 147 15 379 333 143 112 270 75 
111 9 153 135 142 269 83 368 52 343 297 
112 9 368 322 333 143 147 379 110 297 269 
113 9 29 125 206 341 91 45 350 229 171 
114 9 290 295 309 156 296 134 271 119 356 
115 9 180 165 58 323 105 299 169 192 17 
116 9 49 257 239 378 89 339 197 319 276 
117 9 170 205 306 238 92 199 224 348 213 
118 9 25 35 174 218 162 62 56 335 195 
119 9 134 48 271 234 280 225 290 338 114 
120 9 40 55 191 375 307 301 141 355 101 
121 9 313 157 373 129 28 80 38 250 260 
122 9 346 267 302 211 221 305 160 337 348 
123 9 242 79 327 357 37 261 202 12 316 
124 9 76 276 283 294 339 73 359 49 319 
125 9 29 113 206 341 298 326 229 91 350 
126 9 300 30 244 285 248 233 62 213 43 
127 9 20 334 50 98 297 269 325 291 154 
128 9 85 246 330 363 4 109 332 68 245 
129 9 80 157 260 250 313 121 47 38 329 
130 9 34 104 21 177 187 136 289 167 249 
131 9 185 273 343 203 27 168 235 256 282 
132 9 380 24 329 364 222 331 275 179 106 
133 9 16 215 357 172 12 186 8 374 193 
134 9 119 271 48 234 290 225 280 114 338 
135 9 142 153 111 52 343 27 269 131 297 
136 9 249 289 356 34 104 130 2 234 271 
137 9 243 138 163 51 31 69 214 304 78 
138 9 163 137 243 214 51 69 31 304 365 
139 9 68 4 95 246 308 85 311 330 128 
140 9 258 223 18 209 44 178 59 351 83 
141 9 259 191 156 296 55 84 120 309 295 
142 9 135 153 52 269 111 297 343 27 334 
143 9 147 75 322 112 110 368 333 3 270 
144 9 382 345 18 59 268 209 241 161 258 
145 9 326 372 298 278 109 36 284 125 332 
146 9 164 312 231 193 32 374 107 377 72 
147 9 75 143 110 3 270 112 322 318 333 
148 9 240 88 74 82 217 352 328 93 60 
149 9 207 370 23 241 161 351 59 209 18 
150 9 317 350 206 332 6 321 109 298 125 
151 9 376 81 349 262 270 3 263 318 75 
152 9 43 335 30 39 244 62 126 25 96 
153 9 111 135 142 269 52 343 83 368 297 
154 9 253 325 279 103 220 63 20 360 334 
155 9 362 228 14 78 77 208 204 288 247 
156 9 296 295 309 191 259 114 141 290 307 
157 9 129 121 80 313 260 250 38 28 373 
158 9 369 8 314 181 172 316 232 365 242 
159 9 294 76 202 73 327 183 261 124 359 
160 9 211 337 346 122 267 57 286 221 302 
161 9 23 370 241 382 272 144 345 59 149 
162 9 35 174 175 218 358 118 93 56 305 
163 9 138 214 137 51 243 304 365 69 31 
164 8 312 146 230 176 374 193 245 231 
165 9 180 115 58 169 192 201 105 323 17 
166 9 227 90 354 99 86 254 210 45 92 
167 9 187 94 33 177 21 310 286 130 46 
168 9 268 131 185 203 343 140 273 144 235 
169 9 192 17 165 278 180 115 87 372 201 
170 9 117 306 205 238 92 213 224 199 348 
171 9 237 350 45 22 99 6 206 113 29 
172 9 8 181 158 365 369 133 304 215 314 
173 9 226 299 101 105 355 375 307 58 323 
174 9 56 162 358 118 35 62 25 248 218 
175 9 93 162 35 218 221 174 328 358 302 
176 9 42 374 230 164 193 215 288 146 16 
177 9 21 187 167 130 34 104 94 33 310 
178 9 44 83 223 140 258 351 18 209 59 
179 9 291 106 222 331 98 275 47 132 329 
180 9 165 115 58 105 169 192 201 323 17 
181 9 8 172 158 369 365 214 304 314 51 
182 9 196 71 219 293 102 257 378 116 26 
183 9 359 73 108 319 89 261 76 202 124 
184 9 342 195 60 25 118 161 23 218 240 
185 9 203 273 131 235 168 268 367 282 100 
186 9 32 193 16 274 107 374 215 377 12 
187 9 177 167 21 94 33 130 34 286 104 
188 9 19 97 321 198 266 381 353 54 317 
189 9 336 277 10 287 292 236 61 251 11 
190 9 63 353 266 311 198 95 279 360 253 
191 9 141 156 296 259 120 55 40 307 375 
192 9 169 17 278 165 180 115 87 372 65 
193 9 374 32 16 186 215 146 107 176 377 
194 9 250 38 24 329 80 313 260 129 132 
195 9 184 342 60 25 118 335 218 35 161 
196 9 293 182 71 102 257 219 26 239 116 
197 9 339 212 276 378 49 116 251 124 10 
198 9 266 97 188 353 321 19 9 381 256 
199 9 205 92 238 117 303 46 170 210 306 
200 9 340 281 7 54 344 22 6 381 233 
201 9 229 324 165 338 280 180 225 58 341 
202 9 327 261 159 73 183 76 294 108 359 
203 9 235 185 273 131 367 100 268 282 168 
204 9 14 362 208 77 155 247 228 371 78 
205 9 117 238 170 199 92 306 224 303 348 
206 9 350 113 125 29 150 171 298 45 317 
207 9 149 370 351 241 23 209 59 18 258 
208 9 77 14 362 204 155 78 228 28 247 
209 9 59 18 351 258 241 223 140 382 144 
210 9 46 86 310 254 227 90 199 166 167 
211 9 160 346 122 267 337 57 221 302 305 
212 9 197 378 339 276 10 49 219 251 116 
213 9 300 285 248 126 56 306 62 170 224 
214 9 163 181 365 51 304 138 137 8 172 
215 9 16 374 193 133 32 186 176 42 172 
216 9 301 236 61 41 287 355 101 336 277 
217 9 82 74 88 148 352 328 240 93 57 
218 9 35 162 118 175 174 93 25 195 56 
219 9 182 378 71 196 65 87 116 212 257 
220 9 103 325 253 53 154 5 70 20 311 
221 9 302 267 305 346 175 122 93 358 13 
222 9 106 179 291 47 329 98 132 331 260 
223 9 258 140 44 351 178 18 209 59 83 
224 9 13 348 305 358 56 302 170 117 213 
225 9 280 338 324 58 105 119 201 134 48 
226 9 173 299 101 355 105 375 307 323 58 
227 9 90 166 86 254 210 252 265 354 46 
228 9 155 78 362 288 77 14 208 204 247 
229 9 201 341 91 324 29 125 113 338 165 
230 7 164 312 176 288 371 247 146 
231 9 72 377 107 146 102 26 32 293 239 
232 9 314 255 316 37 369 158 79 242 8 
233 9 244 30 347 96 126 43 366 281 67 
234 9 271 48 119 134 289 249 136 356 252 
235 9 203 185 273 367 100 282 131 366 256 
236 9 287 336 61 277 189 216 292 10 41 
237 9 171 22 99 45 350 6 340 354 200 
238 9 92 205 117 170 306 199 354 22 99 
239 9 257 102 72 116 377 89 107 293 319 
240 9 148 60 342 218 184 88 195 74 35 
241 9 370 59 209 23 18 382 351 207 161 
242 9 79 37 316 123 357 232 314 369 255 
243 9 137 138 31 78 51 69 163 228 28 
244 9 30 233 43 126 152 96 39 300 347 
245 7 363 315 312 330 85 246 128 
246 9 85 128 330 4 363 308 68 139 245 
247 8 371 362 204 155 14 288 228 230 
248 9 62 300 213 56 126 285 30 174 152 
249 9 136 356 289 2 234 271 104 34 130 
250 9 38 194 80 129 260 313 329 157 24 
251 9 283 292 10 276 212 197 339 189 124 
252 9 265 254 86 289 90 227 234 136 48 
253 9 154 325 103 279 220 63 20 360 334 
254 9 86 252 265 90 227 210 166 46 289 
255 9 232 37 79 316 314 242 369 158 8 
256 9 9 282 367 273 360 235 100 63 198 
257 9 239 116 102 196 182 293 49 89 72 
258 9 223 140 18 209 59 351 44 178 241 
259 9 141 191 156 296 309 295 84 114 55 
260 9 80 129 47 329 250 157 222 313 194 
261 9 327 202 183 73 108 159 359 76 319 
262 9 81 349 376 151 263 3 270 264 364 
263 9 264 364 262 275 81 349 380 132 331 
264 9 263 364 380 275 132 24 262 331 81 
265 9 252 254 86 289 90 136 227 234 249 
266 9 198 97 353 188 321 19 190 9 256 
267 9 346 122 302 221 305 211 13 348 160 
268 9 345 168 144 203 185 382 235 361 18 
269 9 297 142 50 322 334 135 153 112 20 
270 9 3 75 147 318 349 110 376 143 262 
271 9 234 119 48 134 289 249 356 290 136 
272 9 39 161 345 361 382 67 96 144 43 
273 9 185 235 131 203 282 367 256 100 9 
274 9 12 108 186 107 32 377 357 319 89 
275 9 331 364 132 263 380 179 75 291 264 
276 9 339 197 49 124 212 283 116 251 378 
277 9 336 189 287 10 61 236 11 292 41 
278 9 372 192 169 284 145 326 17 87 298 
279 9 360 63 154 253 325 27 52 190 256 
280 9 225 338 324 201 58 119 48 134 105 
281 9 7 200 54 340 381 233 344 347 366 
282 9 367 9 100 256 235 273 203 381 185 
283 9 124 251 276 76 294 339 197 49 212 
284 9 71 278 87 36 182 26 196 372 293 
285 9 300 213 126 248 344 306 62 30 244 
286 9 33 94 167 187 337 310 177 21 303 
287 9 236 336 277 61 189 292 10 216 41 
288 9 228 155 42 247 31 362 230 78 176 
289 9 136 249 265 234 252 271 356 48 34 
290 9 114 295 309 134 271 119 356 156 296 
291 9 179 106 222 331 98 127 47 275 50 
292 9 189 336 10 251 277 287 236 283 212 
293 9 196 102 26 71 182 257 72 239 219 
294 9 76 159 124 73 283 202 359 183 276 
295 9 309 114 290 156 296 259 356 134 191 
296 9 156 295 309 191 114 259 141 290 307 
297 9 269 50 322 334 142 20 127 112 52 
298 9 326 145 372 109 125 206 113 29 332 
299 9 226 323 173 41 101 355 105 115 58 
300 9 285 213 126 248 62 30 244 56 344 
301 9 216 355 40 101 120 41 375 236 61 
302 9 305 221 267 13 348 122 358 224 346 
303 9 310 199 46 210 337 205 122 117 33 
304 9 365 51 69 31 42 172 214 181 163 
305 9 302 13 348 358 224 221 267 122 56 
306 9 170 117 238 205 213 285 92 344 300 
307 9 375 101 40 355 226 173 120 296 299 
308 7 330 246 68 139 85 128 4 
309 9 295 114 156 296 290 259 141 191 356 
310 9 46 167 210 303 33 94 187 286 177 
311 9 95 5 190 320 139 68 220 308 4 
312 7 164 146 245 230 315 363 231 
313 9 121 38 157 129 250 80 373 260 194 
314 9 232 369 158 316 8 181 255 37 172 
315 8 245 363 36 312 26 85 128 330 
316 9 314 232 369 242 158 37 79 255 8 
317 9 150 321 6 350 188 19 206 97 332 
318 9 110 270 3 147 15 379 75 333 143 
319 9 89 359 183 49 108 73 116 124 239 
320 9 5 311 95 70 371 204 247 53 14 
321 9 188 97 19 266 353 198 317 54 381 
322 9 112 143 297 269 368 147 75 333 50 
323 9 299 115 41 105 58 226 180 173 61 
324 9 338 280 201 225 229 91 48 341 58 
325 9 253 103 154 220 279 20 127 63 334 
326 9 145 372 298 278 125 109 29 113 206 
327 9 202 261 159 73 183 108 359 76 294 
328 9 352 93 57 175 221 88 74 82 217 
329 9 47 260 24 222 132 250 80 106 194 
330 8 246 308 85 128 363 245 4 68 
331 9 275 179 291 364 132 222 106 380 75 
332 9 109 4 128 85 150 246 68 139 298 
333 9 379 368 66 112 64 15 110 143 322 
334 9 20 50 127 297 269 98 154 52 325 
335 9 152 43 25 39 30 62 272 118 244 
336 9 189 277 287 236 292 10 61 11 251 
337 9 160 211 286 122 33 303 346 310 94 
338 9 324 280 225 201 48 119 134 229 234 
339 9 276 197 49 212 124 116 378 283 251 
340 9 200 344 22 281 7 54 6 237 285 
341 9 91 29 113 229 125 45 201 206 324 
342 9 184 60 195 240 218 118 25 35 23 
343 9 27 52 131 135 142 273 168 185 360 
344 9 340 200 285 22 281 300 306 126 233 
345 9 144 382 268 272 18 361 59 67 161 
346 9 267 122 211 160 221 302 57 305 337 
347 9 366 96 67 233 361 100 244 281 367 
348 9 13 224 305 302 358 170 117 56 122 
349 9 262 376 81 3 270 151 263 75 318 
350 9 206 171 6 150 317 237 113 29 45 
351 9 209 59 258 18 223 207 241 140 370 
352 9 328 93 88 74 82 175 57 217 221 
353 9 266 198 321 97 190 188 19 139 68 
354 9 99 92 166 45 238 237 227 22 171 
355 9 101 375 226 299 307 173 41 40 301 
356 9 249 2 136 289 271 234 290 114 104 
357 9 12 133 274 242 186 108 16 261 123 
358 9 56 305 174 13 224 348 162 302 35 
359 9 183 319 73 89 108 76 124 49 261 
360 9 279 63 256 27 154 273 9 343 253 
361 9 67 96 347 366 39 272 345 268 43 
362 9 14 155 204 77 208 228 78 247 288 
363 9 245 315 85 128 246 330 36 109 312 
364 9 275 264 263 380 132 331 24 179 262 
365 9 304 51 172 181 69 214 8 31 42 
366 9 347 100 67 367 361 235 96 282 233 
367 9 282 100 235 9 256 273 203 366 185 
368 9 333 112 379 66 64 322 15 110 143 
369 9 158 8 314 181 316 172 232 242 365 
370 9 23 241 207 161 149 59 209 351 382 
371 7 247 204 362 14 230 320 155 
372 9 145 326 278 298 284 192 169 36 125 
373 9 28 121 313 157 38 77 208 78 129 
374 9 193 215 16 32 186 176 146 164 107 
375 9 307 101 355 40 226 173 299 120 296 
376 9 151 349 81 262 270 3 318 263 75 
377 9 107 72 231 239 32 102 186 146 257 
378 9 212 219 197 116 339 182 49 257 276 
379 9 15 333 66 64 368 110 112 318 147 
380 9 132 24 364 264 329 275 331 194 263 
381 9 7 19 54 97 281 9 188 100 367 
382 9 144 345 59 241 18 209 161 268 370 
DEPOT_SECTION
   1
   -1
EOF
