NAME :  X-n317-kX-w31-c11.cctp
COMMENT : 	Adapted by Maziero, Usberti and Cavellucci from the Uchoa, Pecin, Pessoa, Poggi, Subramanian, and Vidal (2013)
TYPE :  CCTP
DIMENSION :    233
EDGE_WEIGHT_TYPE : 	EUC_2D	
CAPACITY : 	6
VERTICES_WITHIN_COVERAGE :  11
VERTICES_WITH_DEMAND : 	31
NODE_COORD_SECTION
1 0 0
2 971 544
3 564 976
4 266 4
5 395 95
6 379 271
7 936 538
8 980 578
9 242 92
10 476 74
11 247 159
12 359 108
13 473 941
14 490 947
15 548 950
16 389 864
17 916 664
18 212 91
19 415 182
20 961 553
21 423 232
22 596 931
23 955 566
24 534 93
25 252 6
26 950 580
27 517 950
28 942 618
29 636 981
30 629 809
31 508 35
32 108 130
33 208 183
34 991 680
35 272 220
36 931 581
37 327 128
38 966 514
39 267 1
40 404 925
41 985 594
42 316 258
43 238 20
44 628 919
45 880 597
46 353 241
47 753 728
48 382 125
49 230 36
50 489 23
51 277 137
52 593 171
53 378 204
54 411 87
55 207 85
56 906 631
57 445 68
58 576 951
59 434 145
60 530 11
61 632 879
62 541 968
63 353 851
64 629 868
65 593 896
66 359 894
67 548 998
68 52 69
69 507 145
70 451 162
71 646 996
72 532 906
73 220 126
74 536 831
75 482 212
76 137 53
77 907 711
78 908 488
79 222 137
80 268 125
81 548 982
82 511 888
83 371 256
84 440 179
85 331 82
86 545 968
87 447 40
88 915 669
89 468 98
90 247 6
91 260 110
92 902 679
93 926 874
94 587 988
95 368 419
96 967 685
97 559 968
98 877 507
99 984 540
100 380 89
101 420 204
102 386 78
103 219 18
104 497 961
105 542 965
106 718 869
107 606 959
108 575 99
109 330 101
110 257 22
111 600 994
112 951 536
113 534 896
114 438 917
115 385 883
116 233 239
117 481 945
118 414 128
119 602 752
120 592 151
121 267 82
122 587 946
123 728 991
124 242 136
125 292 9
126 494 918
127 2 149
128 24 105
129 933 577
130 651 947
131 991 512
132 805 704
133 253 66
134 628 824
135 199 18
136 633 864
137 565 991
138 603 996
139 434 92
140 393 81
141 351 78
142 536 967
143 553 985
144 652 868
145 472 900
146 370 189
147 196 21
148 524 974
149 590 878
150 551 951
151 480 48
152 384 185
153 567 966
154 537 964
155 929 577
156 491 141
157 496 953
158 149 57
159 250 252
160 238 63
161 245 222
162 231 37
163 512 13
164 994 635
165 697 87
166 989 535
167 462 954
168 355 240
169 335 89
170 196 66
171 245 95
172 407 109
173 999 601
174 578 969
175 548 784
176 519 21
177 483 19
178 420 197
179 417 122
180 347 96
181 967 530
182 271 20
183 420 130
184 147 97
185 950 512
186 394 190
187 962 584
188 934 530
189 611 926
190 966 530
191 378 189
192 265 136
193 303 315
194 562 977
195 862 649
196 379 190
197 935 565
198 465 237
199 214 179
200 479 913
201 903 530
202 379 102
203 268 8
204 922 511
205 474 196
206 374 90
207 557 25
208 957 581
209 134 103
210 554 116
211 392 111
212 929 514
213 521 905
214 394 77
215 339 130
216 938 635
217 315 258
218 970 710
219 402 128
220 528 302
221 353 113
222 611 991
223 235 12
224 544 988
225 958 520
226 521 76
227 264 63
228 591 913
229 532 972
230 589 956
231 568 972
232 983 621
233 418 817
DEMAND_SECTION
2 1
3 1
4 1
5 1
6 1
7 1
8 1
9 1
10 1
11 1
12 1
13 1
14 1
15 1
16 1
17 1
18 1
19 1
20 1
21 1
22 1
23 1
24 1
25 1
26 1
27 1
28 1
29 1
30 1
31 1
32 1
COVERAGE_SECTION
2 11 20 99 181 190 166 112 23 225 38 8 7 
3 11 194 231 97 153 143 137 174 81 86 224 62 
4 9 39 203 25 182 90 110 125 43 223 
5 9 140 100 211 202 54 172 214 102 206 
6 9 83 168 46 21 42 217 53 101 196 
7 11 188 112 212 197 225 20 185 204 190 181 23 
8 11 41 187 208 23 26 173 20 2 99 232 166 
9 9 171 91 121 133 160 18 55 227 73 
10 9 89 151 57 87 226 139 31 50 177 
11 10 124 192 79 51 199 80 73 33 91 161 
12 11 221 180 202 206 100 48 109 215 141 169 211 
13 11 117 167 14 157 200 104 126 145 114 27 213 
14 10 157 117 104 13 27 126 167 200 148 229 
15 11 150 105 86 154 62 97 142 153 229 58 194 
16 11 115 63 66 233 40 114 145 200 13 167 126 
17 11 88 92 56 216 77 28 96 195 218 45 34 
18 10 55 9 170 171 73 160 79 133 91 124 
19 11 178 186 101 84 152 196 191 70 59 53 146 
20 11 2 23 112 181 190 99 208 7 26 197 8 
21 11 101 178 198 19 186 53 84 83 6 152 196 
22 11 189 122 228 230 58 107 44 65 174 153 150 
23 11 20 26 208 187 197 129 2 8 36 155 112 
24 10 226 210 108 69 10 31 156 89 151 207 
25 11 90 4 39 203 110 223 43 182 103 49 162 
26 11 208 187 23 129 36 155 197 20 8 41 28 
27 11 157 104 154 142 148 14 229 105 62 15 86 
28 11 216 56 26 36 187 208 232 129 155 41 17 
29 11 71 222 138 107 130 111 94 230 174 122 189 
30 10 134 136 64 119 144 61 149 175 65 74 
31 11 176 50 163 177 151 60 226 10 207 87 24 
32 11 209 184 76 68 158 128 127 55 170 18 73 
33 11 199 11 79 161 73 124 116 35 192 159 51 
34 11 96 218 164 232 216 17 88 28 173 41 92 
35 6 161 159 116 217 42 11 
36 11 129 155 197 26 208 23 187 28 20 7 8 
37 6 215 109 221 12 180 169 
38 8 225 181 185 190 131 112 2 166 
39 9 4 203 25 182 90 110 125 223 43 
40 11 114 115 66 16 167 13 145 200 117 14 63 
41 11 173 8 187 232 208 26 23 164 20 28 2 
42 8 217 46 168 83 35 193 6 159 
43 10 223 90 49 162 103 110 25 4 203 182 
44 11 189 22 130 228 61 65 107 122 64 230 136 
45 9 56 36 155 195 129 197 28 216 201 
46 7 168 83 6 42 217 53 146 
47 9 132 195 106 30 119 77 92 134 88 
48 11 211 219 202 12 172 221 118 5 179 100 206 
49 9 162 43 103 223 160 110 90 135 25 
50 10 177 31 163 151 176 60 87 10 226 57 
51 5 192 80 91 124 11 
52 9 120 210 108 69 24 156 75 226 205 
53 10 196 191 146 152 186 101 19 168 178 46 
54 6 5 140 214 172 139 102 
55 10 18 170 9 160 171 73 133 49 79 162 
56 11 216 17 28 88 45 92 195 36 155 129 26 
57 6 139 87 10 89 54 151 
58 11 122 230 153 174 231 97 150 3 15 22 194 
59 7 183 70 118 179 84 219 19 
60 11 176 163 207 31 50 177 151 226 24 10 87 
61 11 64 136 144 44 149 65 189 228 134 22 30 
62 11 105 86 142 154 229 81 97 148 15 150 224 
63 11 16 66 115 233 40 114 145 200 13 167 126 
64 11 136 61 144 149 134 65 44 30 228 189 22 
65 11 228 149 22 189 44 61 64 122 136 58 113 
66 11 115 16 63 40 114 233 145 167 200 13 117 
67 10 224 143 81 137 194 3 86 62 229 97 
68 10 128 32 76 209 127 158 184 170 147 55 
69 8 156 210 24 70 89 205 226 75 
70 7 84 59 19 205 156 183 178 
71 11 29 222 138 111 130 107 94 230 174 122 189 
72 10 113 213 82 126 27 15 150 200 154 14 
73 11 79 124 18 9 171 11 55 91 192 80 199 
74 10 175 82 113 149 72 213 65 134 145 30 
75 8 205 198 84 70 21 101 178 69 
76 10 158 184 209 170 147 135 55 32 18 68 
77 11 92 88 17 218 96 195 56 216 34 28 132 
78 7 204 212 98 201 185 188 7 
79 11 73 124 11 192 199 18 91 33 80 171 9 
80 6 192 51 91 124 171 11 
81 10 143 224 86 194 62 67 3 97 105 137 
82 10 213 113 72 126 145 200 27 74 14 117 
83 9 6 46 168 53 42 217 21 196 146 
84 7 70 19 178 101 59 205 186 
85 5 169 109 141 180 12 
86 11 62 105 142 154 81 97 229 15 150 143 194 
87 5 57 151 177 10 50 
88 11 17 92 56 216 77 96 195 28 218 34 45 
89 7 10 139 57 156 151 179 226 
90 11 25 223 43 4 110 39 203 182 103 49 162 
91 7 80 171 9 192 121 51 124 
92 11 88 17 77 56 195 216 96 28 218 45 34 
93 11 77 218 96 92 34 88 106 132 17 47 123 
94 11 111 138 174 137 222 231 3 194 153 230 97 
95 9 193 6 83 42 217 46 168 21 220 
96 11 34 218 88 17 164 216 77 92 232 28 56 
97 11 153 3 194 231 86 105 62 81 143 150 174 
98 6 201 78 204 212 188 7 
99 10 166 2 181 190 20 131 38 112 225 8 
100 8 206 102 202 140 5 214 211 12 
101 11 178 19 21 186 84 152 53 196 191 70 146 
102 5 140 214 100 206 5 
103 9 223 43 135 49 162 147 90 25 110 
104 10 157 14 27 117 148 13 167 229 142 154 
105 11 62 86 154 142 229 15 97 150 81 148 143 
106 11 144 136 61 64 134 44 130 30 189 123 65 
107 11 230 122 22 174 58 222 189 94 111 29 138 
108 10 210 24 120 226 52 207 69 31 156 176 
109 8 169 180 85 221 37 12 215 141 
110 8 182 25 203 43 90 4 39 223 
111 11 138 222 94 174 137 107 29 231 3 230 194 
112 11 7 190 181 225 188 20 2 185 38 23 212 
113 10 72 213 82 126 15 27 150 200 65 149 
114 11 40 145 200 13 167 117 126 14 115 157 16 
115 11 16 66 63 40 114 233 145 200 13 167 117 
116 9 159 161 35 33 199 11 217 42 79 
117 11 13 14 157 167 104 126 200 27 145 114 148 
118 9 183 179 219 172 59 211 48 5 54 
119 10 30 175 134 74 136 64 144 149 61 65 
120 8 52 210 108 24 69 156 226 165 
121 5 227 133 171 9 91 
122 11 230 58 22 107 174 153 189 231 228 97 150 
123 11 71 130 29 222 106 44 138 107 111 189 94 
124 10 79 192 11 73 80 91 51 171 9 199 
125 6 182 203 4 39 110 25 
126 11 200 145 14 117 213 13 82 157 27 72 104 
127 11 128 68 32 209 184 76 158 33 170 199 55 
128 10 68 127 32 209 184 76 158 170 55 18 
129 11 36 155 197 26 208 23 187 20 7 28 112 
130 11 44 29 189 107 71 22 222 230 122 111 138 
131 7 166 38 99 181 190 225 2 
132 8 47 195 92 77 88 17 56 45 
133 5 227 160 121 9 171 
134 11 30 136 64 144 61 149 119 65 175 74 44 
135 9 147 103 49 223 162 43 170 90 25 
136 11 64 61 144 134 149 65 30 44 228 189 22 
137 11 143 194 3 67 81 231 224 94 97 153 174 
138 11 111 222 94 29 107 174 137 230 231 71 3 
139 8 54 57 172 179 89 5 183 118 
140 6 214 102 5 100 54 206 
141 7 180 169 85 206 12 100 109 
142 11 154 62 105 229 86 148 81 15 150 224 97 
143 10 81 224 194 137 3 67 97 86 231 62 
144 11 136 61 64 134 44 30 149 65 106 189 228 
145 11 200 126 114 13 82 117 213 14 167 157 72 
146 6 191 196 152 53 186 19 
147 9 135 103 49 162 223 43 170 90 25 
148 9 229 142 154 62 105 86 224 27 81 
149 10 65 228 64 61 136 189 22 44 113 144 
150 11 15 105 86 97 154 62 142 153 58 231 3 
151 10 10 50 177 31 87 57 163 176 226 89 
152 8 191 196 186 146 53 19 178 101 
153 11 231 97 3 174 194 58 86 150 143 230 15 
154 11 142 105 62 86 229 148 15 150 81 97 27 
155 11 36 129 197 26 23 208 187 7 20 28 112 
156 6 69 70 89 59 205 24 
157 10 14 104 117 27 13 167 126 148 229 142 
158 9 76 184 170 209 147 135 55 18 103 
159 9 116 161 35 217 42 33 199 193 11 
160 7 133 227 162 49 9 171 121 
161 9 116 35 159 199 33 11 217 42 124 
162 9 49 43 103 223 160 110 90 133 25 
163 10 176 60 31 50 177 151 207 226 87 10 
164 11 232 173 41 34 28 216 96 8 187 208 26 
165 10 108 120 52 210 207 24 226 60 176 31 
166 10 99 2 131 181 190 38 20 225 112 8 
167 10 13 117 14 157 104 114 200 126 27 145 
168 8 46 83 6 42 53 217 146 196 
169 6 85 109 180 141 221 12 
170 10 55 18 160 49 147 162 135 158 9 103 
171 8 9 91 121 133 18 160 227 80 
172 11 211 179 5 118 219 54 183 202 48 140 139 
173 11 41 232 8 164 187 208 26 23 28 20 99 
174 11 231 153 3 230 58 194 97 94 122 137 107 
175 10 74 119 30 134 149 82 113 64 136 65 
176 11 163 60 31 50 177 207 151 226 10 24 87 
177 9 50 151 31 163 176 87 60 10 57 
178 11 101 19 84 186 21 152 196 53 191 70 146 
179 9 118 183 172 219 211 59 139 5 48 
180 8 169 12 109 141 221 85 206 202 
181 9 190 225 2 38 112 99 166 20 185 
182 8 203 110 4 39 25 125 90 43 
183 9 118 179 219 59 172 211 48 139 5 
184 10 209 158 76 32 170 55 18 73 79 147 
185 9 225 38 212 112 188 190 181 204 7 
186 10 152 196 191 53 19 146 178 101 84 21 
187 11 208 26 8 23 41 129 20 36 197 155 28 
188 10 7 212 112 204 185 225 201 190 181 20 
189 11 22 44 228 122 107 65 230 58 130 61 149 
190 9 181 225 2 38 112 99 20 166 185 
191 7 196 152 146 53 186 19 178 
192 7 80 51 124 91 11 79 73 
193 10 42 217 159 6 46 83 168 35 116 161 
194 11 3 231 97 143 153 137 81 174 86 224 62 
195 8 56 92 45 17 88 77 216 132 
196 8 191 152 146 53 186 19 178 101 
197 11 129 155 36 23 26 7 208 20 112 187 188 
198 9 75 21 205 101 178 84 19 70 186 
199 11 33 11 79 124 73 161 116 192 35 51 80 
200 11 145 126 13 117 14 82 114 157 213 167 104 
201 10 204 188 212 7 98 78 197 112 185 155 
202 11 100 206 211 5 12 48 102 140 221 172 214 
203 9 4 39 182 25 110 90 125 43 223 
204 9 212 188 78 201 185 7 225 112 38 
205 8 75 84 70 198 178 101 156 19 
206 8 100 202 102 140 5 12 214 141 
207 11 60 176 163 31 226 50 24 177 108 151 210 
208 11 187 26 23 8 129 36 197 20 155 41 2 
209 10 184 32 158 76 170 55 18 68 73 79 
210 10 108 24 120 226 69 52 156 89 10 207 
211 11 172 5 202 48 219 100 179 118 206 140 54 
212 9 204 188 185 7 225 112 201 78 38 
213 10 72 113 82 126 200 27 145 14 15 157 
214 5 140 102 5 100 54 
215 7 37 221 12 109 180 169 48 
216 11 28 56 17 88 232 36 26 164 187 92 208 
217 8 42 46 168 83 35 193 6 159 
218 11 96 34 77 88 17 92 164 216 232 28 56 
219 9 118 179 183 48 172 211 5 202 59 
220 8 198 75 205 21 52 101 84 178 
221 11 12 180 215 109 202 37 169 48 206 141 100 
222 11 138 111 94 29 107 71 174 230 137 231 3 
223 11 43 90 103 25 110 49 162 4 203 39 135 
224 10 81 143 67 62 86 229 137 194 142 3 
225 9 38 185 181 190 112 188 2 7 212 
226 11 24 31 10 151 210 176 89 108 50 207 163 
227 4 133 121 160 9 
228 11 65 22 189 122 149 44 58 230 107 61 150 
229 10 142 148 154 62 105 86 81 224 143 15 
230 11 122 58 107 174 153 22 231 3 94 97 194 
231 11 3 153 194 97 174 137 143 58 81 86 94 
232 11 164 173 41 28 8 187 216 208 26 34 23 
233 10 16 63 115 66 145 114 40 200 82 74 
DEPOT_SECTION
   1
   -1
EOF
