NAME :  X-n344-kX-w137-c7.cctp
COMMENT : 	Adapted by Maziero, Usberti and Cavellucci from the Uchoa, Pecin, Pessoa, Poggi, Subramanian, and Vidal (2013)
TYPE :  CCTP
DIMENSION :    308
EDGE_WEIGHT_TYPE : 	EUC_2D	
CAPACITY : 	61
VERTICES_WITHIN_COVERAGE :  7
VERTICES_WITH_DEMAND : 	137
NODE_COORD_SECTION
1 500 500
2 615 190
3 890 200
4 983 684
5 874 112
6 906 186
7 801 278
8 823 446
9 242 544
10 505 210
11 767 766
12 698 305
13 707 511
14 10 968
15 172 13
16 57 414
17 317 373
18 849 680
19 854 12
20 429 688
21 822 378
22 774 584
23 601 895
24 921 309
25 176 165
26 368 432
27 656 430
28 715 225
29 35 264
30 544 994
31 214 533
32 573 650
33 259 595
34 38 550
35 925 755
36 337 562
37 412 969
38 919 402
39 391 792
40 424 206
41 259 588
42 79 364
43 667 978
44 332 593
45 270 544
46 745 267
47 760 786
48 134 998
49 117 320
50 966 458
51 133 334
52 986 462
53 176 290
54 120 296
55 201 878
56 615 293
57 24 217
58 418 662
59 831 314
60 832 564
61 945 758
62 394 446
63 843 680
64 24 613
65 422 956
66 411 58
67 512 655
68 657 544
69 644 748
70 162 924
71 64 57
72 773 727
73 1 461
74 167 981
75 180 346
76 495 295
77 589 311
78 273 186
79 493 121
80 522 653
81 704 909
82 157 9
83 90 625
84 632 964
85 347 750
86 825 940
87 9 237
88 181 662
89 722 724
90 106 978
91 746 981
92 603 944
93 734 612
94 163 142
95 743 16
96 910 272
97 495 584
98 985 968
99 901 149
100 192 878
101 817 700
102 888 1
103 70 323
104 119 255
105 716 413
106 17 309
107 558 122
108 436 663
109 912 64
110 846 973
111 622 271
112 469 629
113 326 388
114 675 587
115 974 135
116 620 443
117 585 6
118 134 764
119 276 222
120 869 663
121 517 935
122 681 631
123 650 679
124 277 612
125 654 76
126 101 332
127 162 792
128 480 878
129 730 728
130 8 525
131 340 489
132 194 815
133 183 75
134 345 884
135 660 841
136 712 42
137 655 695
138 880 600
139 50 555
140 406 946
141 490 53
142 712 878
143 396 484
144 225 176
145 235 9
146 768 438
147 33 116
148 197 149
149 141 312
150 301 18
151 251 83
152 930 549
153 662 99
154 394 872
155 793 659
156 104 821
157 953 401
158 459 264
159 353 254
160 986 680
161 375 639
162 733 982
163 82 923
164 912 604
165 992 123
166 784 823
167 82 859
168 803 338
169 67 555
170 5 102
171 907 896
172 654 393
173 65 9
174 41 545
175 680 22
176 685 814
177 575 872
178 232 836
179 150 82
180 734 779
181 555 13
182 774 848
183 101 440
184 573 609
185 436 773
186 497 547
187 513 861
188 767 794
189 236 121
190 678 796
191 711 637
192 687 7
193 507 855
194 105 82
195 550 658
196 604 726
197 745 746
198 439 943
199 379 464
200 618 848
201 514 548
202 55 556
203 42 31
204 586 888
205 418 791
206 589 92
207 41 501
208 383 686
209 419 687
210 466 837
211 144 85
212 445 538
213 637 46
214 219 38
215 27 564
216 710 875
217 58 518
218 92 293
219 842 895
220 731 737
221 606 332
222 606 704
223 789 879
224 609 368
225 72 46
226 137 70
227 41 399
228 112 82
229 678 743
230 214 619
231 471 405
232 804 753
233 914 234
234 172 328
235 64 580
236 667 727
237 698 50
238 613 106
239 583 675
240 466 675
241 313 775
242 30 555
243 137 266
244 668 604
245 705 747
246 722 981
247 649 808
248 163 244
249 565 370
250 46 194
251 513 530
252 638 832
253 752 797
254 132 16
255 570 3
256 702 820
257 462 689
258 426 818
259 500 887
260 489 725
261 198 26
262 9 875
263 29 588
264 640 6
265 624 762
266 180 262
267 843 98
268 661 64
269 142 149
270 748 925
271 669 393
272 54 527
273 2 57
274 694 679
275 641 883
276 123 564
277 920 860
278 377 640
279 819 879
280 76 94
281 117 360
282 10 614
283 474 845
284 702 63
285 741 232
286 689 901
287 5 718
288 610 765
289 677 851
290 698 725
291 574 13
292 87 650
293 666 687
294 5 190
295 582 474
296 539 901
297 15 159
298 32 1
299 158 173
300 650 658
301 161 140
302 570 682
303 139 525
304 577 356
305 175 121
306 698 54
307 671 10
308 509 650
DEMAND_SECTION
2 7
3 10
4 7
5 8
6 9
7 8
8 5
9 7
10 7
11 5
12 10
13 8
14 6
15 7
16 7
17 5
18 9
19 10
20 10
21 7
22 5
23 9
24 10
25 10
26 8
27 5
28 9
29 7
30 6
31 8
32 5
33 8
34 7
35 6
36 6
37 10
38 10
39 9
40 6
41 8
42 9
43 9
44 7
45 10
46 5
47 10
48 6
49 5
50 7
51 9
52 10
53 7
54 10
55 5
56 10
57 8
58 9
59 5
60 8
61 10
62 6
63 8
64 5
65 7
66 5
67 5
68 10
69 5
70 8
71 7
72 9
73 5
74 6
75 10
76 6
77 7
78 10
79 10
80 6
81 6
82 10
83 9
84 6
85 10
86 6
87 9
88 10
89 8
90 8
91 9
92 9
93 9
94 10
95 7
96 6
97 9
98 8
99 7
100 6
101 8
102 10
103 7
104 10
105 9
106 8
107 10
108 8
109 6
110 9
111 10
112 9
113 6
114 9
115 8
116 8
117 6
118 7
119 8
120 7
121 8
122 8
123 5
124 6
125 10
126 5
127 7
128 6
129 7
130 5
131 7
132 6
133 7
134 6
135 10
136 6
137 6
138 8
COVERAGE_SECTION
2 7 111 238 107 206 153 56 28 
3 7 6 233 99 96 5 115 267 
4 7 160 61 35 164 120 138 18 
5 7 267 99 109 6 3 19 115 
6 7 3 99 233 5 115 96 165 
7 7 59 46 168 285 28 21 12 
8 7 146 21 38 168 105 60 59 
9 7 45 31 41 33 124 230 36 
10 7 158 40 76 79 107 2 77 
11 7 47 188 197 253 180 72 232 
12 7 46 28 111 56 285 271 221 
13 6 68 114 146 27 105 22 
14 7 163 262 90 48 167 70 74 
15 7 82 261 254 214 133 145 226 
16 7 227 183 42 73 281 207 103 
17 7 113 26 62 199 131 159 143 
18 7 63 120 101 155 138 232 72 
19 7 102 109 267 5 95 99 136 
20 7 209 108 58 257 240 208 260 
21 7 168 59 8 146 38 7 105 
22 7 93 60 155 191 13 114 122 
23 7 204 177 275 92 200 296 252 
24 7 96 233 59 38 157 3 21 
25 6 299 94 148 301 269 305 
26 7 62 199 143 113 131 17 231 
27 7 172 116 271 105 224 295 13 
28 7 285 46 12 7 111 2 56 
29 7 87 57 106 218 103 250 294 
30 7 121 92 84 296 23 204 259 
31 7 9 45 41 303 33 230 276 
32 7 195 239 302 184 80 67 222 
33 7 41 124 230 45 9 44 31 
34 7 174 242 139 202 215 272 169 
35 7 61 4 160 277 18 120 63 
36 7 44 45 131 124 41 33 161 
37 7 65 140 198 154 134 121 128 
38 7 157 50 52 24 21 8 59 
39 5 205 258 185 85 154 
40 7 158 10 159 79 76 66 119 
41 7 33 124 45 9 230 31 44 
42 7 281 126 103 227 16 49 51 
43 7 84 246 162 92 81 91 286 
44 7 36 124 161 278 33 41 45 
45 7 9 41 33 31 124 36 44 
46 7 285 28 7 12 168 59 111 
47 7 188 253 11 180 197 166 232 
48 7 90 74 70 163 14 100 55 
49 7 126 51 54 149 218 281 103 
50 7 52 157 38 152 8 24 164 
51 7 49 149 281 126 234 54 75 
52 7 50 157 38 152 164 8 24 
53 7 266 234 149 243 248 54 75 
54 7 49 149 218 243 51 104 126 
55 7 100 178 70 132 127 74 156 
56 7 111 77 221 304 224 12 249 
57 5 87 250 294 29 297 
58 7 108 209 20 208 278 161 240 
59 7 168 7 21 96 24 46 233 
60 7 138 22 164 152 155 120 93 
61 7 35 4 160 277 120 18 63 
62 7 199 26 143 131 231 113 212 
63 7 18 120 101 155 232 72 138 
64 7 282 263 215 235 242 139 34 
65 7 37 140 198 154 121 128 259 
66 7 141 79 150 40 181 107 151 
67 7 308 80 195 112 240 257 32 
68 3 114 13 244 
69 7 265 236 229 288 196 137 222 
70 7 100 74 55 90 48 163 167 
71 7 225 203 280 173 194 228 273 
72 7 197 11 232 129 220 89 101 
73 6 207 130 16 227 217 272 
74 7 48 70 90 163 100 55 167 
75 7 234 51 149 53 281 49 54 
76 7 158 10 77 304 249 231 40 
77 7 221 56 304 111 224 249 76 
78 7 119 144 189 148 25 151 159 
79 7 107 141 10 206 66 40 238 
80 7 67 308 195 32 302 112 240 
81 7 286 142 216 270 289 275 246 
82 7 15 254 261 226 214 133 179 
83 7 292 235 64 276 263 169 202 
84 7 92 43 23 275 286 204 81 
85 7 241 39 208 205 185 209 20 
86 7 110 219 279 223 270 91 171 
87 6 57 29 294 250 106 297 
88 7 230 292 83 33 41 124 118 
89 7 129 220 290 245 197 229 72 
90 7 48 163 74 70 14 167 100 
91 7 162 246 270 43 81 86 286 
92 7 84 23 204 43 275 30 177 
93 7 191 22 122 114 244 155 274 
94 6 301 269 305 25 299 148 
95 7 136 237 192 306 284 175 307 
96 7 233 24 3 6 59 7 99 
97 6 186 201 112 251 308 212 
98 7 171 277 110 219 86 279 61 
99 7 6 5 3 115 267 109 233 
100 7 55 70 178 132 127 156 74 
101 7 63 18 155 72 232 120 11 
102 7 19 109 267 5 95 99 115 
103 7 126 218 42 49 106 54 281 
104 7 243 54 248 218 149 266 49 
105 7 271 146 27 172 13 116 12 
106 7 29 103 87 218 42 126 57 
107 7 206 238 79 2 141 10 125 
108 7 58 20 209 240 257 112 208 
109 7 5 102 267 19 99 115 165 
110 7 86 219 171 279 91 270 223 
111 7 56 77 221 2 12 304 224 
112 7 308 240 108 67 97 80 257 
113 7 17 26 62 199 131 143 159 
114 7 244 122 68 191 93 300 13 
115 7 165 99 6 109 5 3 233 
116 5 27 295 172 271 224 
117 6 291 255 181 264 213 206 
118 7 127 156 132 167 88 178 292 
119 7 78 144 159 266 148 189 25 
120 7 18 63 101 138 164 155 60 
121 7 296 259 30 128 187 198 193 
122 7 244 191 300 114 274 93 123 
123 7 137 293 300 274 222 236 122 
124 7 33 41 44 230 45 9 36 
125 7 268 153 213 306 284 237 238 
126 7 49 51 103 281 42 218 54 
127 7 132 118 156 178 100 55 167 
128 5 259 283 193 187 210 
129 7 89 220 197 245 290 72 180 
130 7 242 34 174 207 215 272 217 
131 7 199 143 26 62 36 45 113 
132 7 127 178 55 100 118 156 70 
133 7 179 211 226 305 261 214 15 
134 7 154 140 39 258 65 37 198 
135 7 289 252 247 176 200 275 256 
136 7 237 306 284 175 95 192 307 
137 7 293 123 236 300 274 222 290 
138 7 164 60 120 152 18 63 155 
139 7 202 34 174 169 242 215 272 
140 7 65 37 198 154 134 128 259 
141 7 79 181 66 291 255 107 117 
142 7 216 81 286 289 256 270 135 
143 7 199 62 131 26 212 36 231 
144 7 148 78 25 189 299 119 94 
145 7 214 261 15 150 151 82 133 
146 7 8 105 21 13 168 271 27 
147 5 170 297 280 71 273 
148 7 25 94 305 301 144 299 189 
149 7 51 49 54 234 53 126 243 
150 7 145 151 214 261 66 189 15 
151 7 189 214 133 145 261 150 148 
152 7 164 138 50 60 52 120 160 
153 7 125 268 238 284 306 213 237 
154 7 134 258 140 39 210 198 205 
155 7 101 63 18 72 93 120 22 
156 7 167 118 127 132 163 100 262 
157 7 38 50 52 24 21 96 8 
158 7 76 40 10 159 77 231 79 
159 7 119 40 78 158 17 113 76 
160 7 4 61 35 164 120 138 18 
161 7 278 208 58 44 209 108 20 
162 7 246 91 270 43 81 286 86 
163 7 90 167 70 14 262 48 74 
164 7 138 152 120 60 18 63 160 
165 7 115 99 109 6 5 3 233 
166 7 182 188 253 47 223 11 279 
167 7 156 163 262 70 127 118 100 
168 7 59 21 7 46 146 8 12 
169 7 202 139 235 174 34 272 242 
170 5 147 273 297 280 71 
171 7 277 219 279 86 110 98 223 
172 7 271 27 224 116 105 221 304 
173 7 203 298 225 71 254 273 194 
174 7 34 139 242 202 272 215 169 
175 6 307 192 237 306 136 264 
176 7 256 190 247 135 289 252 180 
177 7 204 23 296 200 187 275 193 
178 7 132 55 100 127 241 70 118 
179 6 211 226 133 228 194 305 
180 7 253 47 11 197 188 220 245 
181 7 255 291 117 141 264 206 213 
182 7 166 223 188 279 253 47 142 
183 5 16 227 42 281 207 
184 5 32 195 80 239 302 
185 3 205 258 39 
186 4 201 251 97 212 
187 4 193 259 128 283 
188 7 47 253 11 166 180 197 182 
189 7 151 148 144 305 133 25 78 
190 7 176 247 256 135 229 252 289 
191 7 122 93 274 244 114 300 293 
192 6 307 175 136 237 264 306 
193 4 187 259 283 128 
194 6 228 280 226 211 179 71 
195 7 32 80 302 239 67 308 184 
196 6 222 288 265 69 239 302 
197 7 220 129 11 89 72 180 245 
198 7 65 140 37 128 121 259 154 
199 7 62 143 26 131 113 212 36 
200 7 252 275 135 177 23 204 247 
201 3 186 251 97 
202 7 139 169 34 174 242 235 215 
203 7 173 298 71 225 273 280 170 
204 7 23 177 296 200 275 92 252 
205 4 185 39 258 210 
206 7 238 107 213 125 153 268 291 
207 6 217 272 130 174 34 139 
208 7 209 58 20 278 161 108 85 
209 7 20 58 108 208 257 240 278 
210 3 283 128 258 
211 6 179 226 228 194 133 305 
212 7 186 97 251 201 143 112 199 
213 6 268 125 264 175 307 153 
214 7 261 145 133 15 151 82 179 
215 7 242 34 174 263 139 202 235 
216 7 142 286 81 289 256 135 270 
217 6 272 207 174 34 139 169 
218 7 54 49 103 126 104 243 149 
219 7 279 86 223 171 110 182 277 
220 7 129 89 197 245 290 180 72 
221 7 77 224 304 56 249 111 172 
222 7 196 239 302 137 123 69 265 
223 7 279 182 219 166 270 86 142 
224 7 304 221 249 172 77 271 56 
225 7 71 203 173 280 194 228 298 
226 6 211 179 228 194 133 254 
227 7 16 42 183 73 103 281 126 
228 6 194 226 211 179 280 71 
229 7 236 245 290 69 89 137 190 
230 7 33 88 41 124 9 31 45 
231 5 62 249 26 143 199 
232 7 11 72 47 101 188 197 253 
233 7 96 3 6 24 99 59 115 
234 7 75 149 53 51 49 54 281 
235 7 169 202 139 263 34 215 174 
236 7 229 69 290 137 293 245 123 
237 7 306 284 136 175 268 192 307 
238 7 206 153 125 107 268 213 2 
239 7 302 32 195 222 196 80 123 
240 7 257 108 20 112 209 58 67 
241 7 85 39 178 205 208 134 258 
242 7 34 215 174 139 202 263 130 
243 7 104 54 248 266 53 149 218 
244 7 114 122 191 300 68 93 123 
245 7 290 229 220 89 129 197 180 
246 7 162 91 43 270 81 286 84 
247 7 252 190 135 176 200 289 265 
248 6 266 243 104 53 54 149 
249 6 304 224 221 77 116 56 
250 3 57 294 297 
251 3 201 186 97 
252 7 135 200 247 289 176 275 190 
253 7 47 188 180 11 166 197 256 
254 7 82 15 226 173 225 261 179 
255 6 291 117 181 264 213 206 
256 7 176 190 289 135 180 247 253 
257 7 240 20 108 209 260 58 67 
258 5 205 39 210 185 283 
259 6 128 187 193 296 283 121 
260 4 257 240 20 185 
261 7 214 15 145 82 133 254 179 
262 7 167 163 14 156 90 287 70 
263 7 215 64 282 242 235 34 139 
264 6 307 213 175 192 117 268 
265 7 288 69 196 247 236 229 222 
266 7 248 53 243 104 149 234 54 
267 7 5 99 109 19 102 6 3 
268 7 125 213 153 306 237 284 175 
269 3 301 94 299 
270 7 81 91 142 162 223 246 216 
271 7 172 27 105 224 116 221 12 
272 7 217 174 34 139 202 207 169 
273 7 170 203 71 298 147 225 173 
274 7 293 137 123 191 290 300 122 
275 7 23 200 135 289 252 286 204 
276 5 303 169 235 202 83 
277 7 171 219 279 35 61 86 98 
278 7 161 208 58 108 209 44 20 
279 7 219 223 182 86 166 270 171 
280 5 194 228 71 147 225 
281 7 51 126 42 49 149 103 54 
282 7 64 263 215 242 235 34 139 
283 4 210 128 193 187 
284 7 306 237 136 268 175 125 153 
285 7 28 46 7 12 59 168 111 
286 7 81 142 216 275 289 270 135 
287 7 282 64 292 83 263 118 156 
288 4 265 69 196 247 
289 7 135 176 256 216 252 142 275 
290 7 245 89 229 236 129 220 274 
291 6 255 117 181 264 213 206 
292 7 83 64 235 263 282 276 88 
293 7 137 123 274 300 236 290 229 
294 5 57 297 250 87 147 
295 1 116 
296 7 121 259 177 187 204 193 23 
297 5 294 147 250 170 57 
298 7 203 173 225 71 273 254 280 
299 4 25 269 94 301 
300 7 123 293 137 122 274 244 222 
301 6 94 269 305 25 299 148 
302 7 239 195 32 222 80 196 67 
303 4 276 31 169 217 
304 7 249 224 221 77 56 172 111 
305 7 94 301 148 269 25 179 133 
306 7 237 284 136 175 268 192 125 
307 6 175 192 264 237 213 136 
308 7 67 80 195 112 240 257 32 
DEPOT_SECTION
   1
   -1
EOF
