NAME :  X-n308-kX-w61-c9.cctp
COMMENT : 	Adapted by Maziero, Usberti and Cavellucci from the Uchoa, Pecin, Pessoa, Poggi, Subramanian, and Vidal (2013)
TYPE :  CCTP
DIMENSION :    228
EDGE_WEIGHT_TYPE : 	EUC_2D	
CAPACITY : 	246
VERTICES_WITHIN_COVERAGE :  9
VERTICES_WITH_DEMAND : 	61
NODE_COORD_SECTION
1 0 0
2 706 137
3 392 662
4 692 274
5 944 370
6 726 945
7 869 43
8 621 770
9 112 402
10 523 374
11 619 178
12 553 457
13 95 814
14 696 130
15 27 417
16 940 487
17 943 965
18 670 435
19 931 752
20 307 776
21 404 101
22 199 526
23 117 312
24 762 505
25 433 864
26 868 155
27 832 870
28 488 624
29 686 782
30 585 89
31 268 339
32 248 344
33 22 776
34 89 614
35 75 271
36 882 646
37 6 656
38 449 27
39 857 362
40 809 774
41 403 626
42 559 145
43 667 945
44 524 737
45 683 777
46 641 798
47 514 495
48 102 813
49 517 591
50 748 330
51 859 127
52 699 41
53 281 442
54 257 106
55 116 99
56 41 732
57 555 95
58 378 1
59 155 308
60 942 955
61 619 205
62 646 910
63 796 791
64 785 49
65 958 817
66 37 119
67 761 866
68 404 417
69 929 432
70 743 535
71 418 679
72 107 379
73 22 432
74 24 474
75 380 83
76 145 135
77 576 209
78 877 859
79 901 0
80 464 473
81 181 35
82 976 331
83 193 341
84 525 782
85 527 935
86 218 529
87 626 974
88 594 432
89 757 450
90 805 123
91 959 266
92 348 776
93 409 946
94 841 361
95 333 503
96 675 306
97 407 811
98 856 199
99 300 792
100 371 156
101 163 237
102 172 589
103 609 928
104 273 18
105 379 694
106 996 38
107 4 6
108 738 18
109 693 307
110 989 54
111 468 585
112 594 172
113 563 205
114 271 783
115 58 987
116 374 383
117 775 530
118 913 512
119 813 948
120 943 941
121 437 169
122 247 374
123 347 51
124 8 111
125 854 335
126 619 272
127 742 232
128 496 187
129 605 66
130 973 75
131 241 509
132 845 106
133 955 319
134 432 662
135 704 73
136 418 205
137 817 754
138 570 429
139 362 720
140 114 713
141 11 516
142 737 62
143 386 880
144 493 321
145 655 303
146 633 506
147 522 325
148 541 547
149 89 325
150 76 414
151 378 958
152 222 135
153 233 59
154 118 33
155 340 718
156 682 361
157 82 210
158 293 801
159 249 336
160 232 799
161 102 526
162 87 148
163 664 361
164 656 366
165 537 434
166 330 105
167 621 753
168 401 923
169 159 253
170 552 382
171 271 72
172 804 650
173 213 3
174 243 144
175 623 781
176 107 370
177 62 608
178 55 270
179 841 468
180 221 773
181 79 461
182 186 665
183 165 871
184 349 329
185 227 136
186 559 430
187 387 3
188 149 266
189 100 768
190 567 435
191 110 270
192 304 770
193 739 876
194 61 312
195 71 260
196 215 125
197 481 97
198 289 287
199 413 724
200 362 952
201 107 111
202 300 735
203 734 562
204 259 344
205 783 708
206 159 450
207 373 44
208 483 678
209 704 755
210 30 414
211 385 930
212 683 188
213 163 27
214 3 371
215 138 120
216 577 482
217 524 915
218 856 763
219 216 95
220 256 24
221 365 753
222 614 173
223 554 665
224 201 907
225 629 776
226 339 342
227 67 412
228 154 267
DEMAND_SECTION
2 80
3 94
4 87
5 77
6 77
7 50
8 79
9 86
10 75
11 84
12 88
13 94
14 74
15 95
16 89
17 83
18 55
19 77
20 1
21 7
22 3
23 7
24 5
25 2
26 2
27 2
28 5
29 2
30 7
31 1
32 5
33 5
34 8
35 4
36 2
37 8
38 9
39 1
40 10
41 3
42 10
43 3
44 2
45 3
46 2
47 1
48 5
49 4
50 3
51 4
52 3
53 5
54 3
55 5
56 6
57 9
58 6
59 4
60 2
61 7
62 10
COVERAGE_SECTION
2 9 14 212 135 142 11 52 222 90 127 
3 9 71 105 41 134 139 199 155 208 221 
4 9 109 96 145 127 126 50 212 156 163 
5 9 82 133 69 39 125 94 91 16 179 
6 9 43 193 67 62 119 87 103 27 29 
7 9 79 132 64 51 90 130 26 110 106 
8 9 225 175 167 46 45 29 209 84 44 
9 8 72 176 150 227 206 181 149 210 
10 7 170 147 144 165 186 138 190 
11 9 222 112 61 77 113 212 42 14 126 
12 8 190 165 186 138 216 88 47 170 
13 8 48 189 33 183 56 140 180 160 
14 9 2 135 212 142 52 11 222 61 90 
15 7 210 73 227 150 214 74 181 
16 9 118 69 179 5 39 82 94 36 133 
17 9 60 120 78 119 27 65 67 19 6 
18 7 164 163 156 88 146 89 138 
19 9 65 218 137 36 78 40 63 27 205 
20 6 192 99 158 114 92 202 
21 9 75 100 207 166 121 123 197 38 187 
22 9 86 131 102 206 161 53 95 181 182 
23 8 149 59 191 188 194 228 35 176 
24 7 117 70 89 203 179 18 146 
25 5 143 97 168 211 93 
26 9 51 98 132 90 7 130 64 91 127 
27 9 78 67 119 63 193 40 218 137 6 
28 9 49 111 208 134 223 41 71 148 3 
29 9 45 209 46 225 175 8 167 193 63 
30 9 129 57 42 112 222 11 197 14 113 
31 8 204 159 32 122 198 226 83 184 
32 8 159 204 31 122 83 198 226 59 
33 9 56 189 13 48 140 37 183 177 34 
34 9 177 102 161 37 140 182 141 56 22 
35 6 195 178 191 194 149 23 
36 6 172 19 205 218 137 118 
37 9 177 56 34 33 140 141 189 161 102 
38 9 187 58 197 207 21 75 123 57 166 
39 9 94 125 5 69 133 179 50 82 89 
40 9 63 137 218 205 27 67 209 78 29 
41 9 3 134 71 105 111 28 208 199 139 
42 9 112 57 113 30 222 77 11 128 61 
43 9 62 87 6 103 193 67 85 119 217 
44 8 84 208 223 167 8 175 199 225 
45 9 29 209 46 225 175 8 167 63 193 
46 9 175 225 8 45 29 167 209 62 84 
47 9 12 80 148 216 165 186 190 138 49 
48 8 13 189 183 33 56 140 180 160 
49 9 28 111 148 223 208 47 134 41 216 
50 9 109 156 96 4 163 145 94 127 164 
51 9 132 26 90 98 7 64 130 79 142 
52 9 135 142 108 64 14 2 129 30 90 
53 9 122 131 95 204 32 31 86 116 159 
54 8 171 174 185 219 152 196 153 166 
55 8 201 215 76 162 154 66 213 81 
56 9 33 189 140 37 13 48 177 34 182 
57 9 30 42 129 197 112 222 11 128 113 
58 9 187 207 123 38 75 21 104 166 220 
59 9 23 228 188 83 169 191 149 101 176 
60 9 17 120 78 119 27 65 67 19 218 
61 8 11 222 112 77 113 212 126 42 
62 9 43 103 87 6 193 46 85 217 67 
63 9 40 137 218 67 205 27 209 193 78 
64 9 142 108 90 132 7 135 52 51 2 
65 9 19 78 218 120 27 60 17 137 40 
66 7 124 162 201 55 215 157 76 
67 9 193 27 63 6 119 40 29 78 45 
68 7 116 80 226 184 95 53 10 
69 9 16 5 118 179 39 82 94 133 125 
70 4 203 117 24 89 
71 8 134 3 105 199 41 208 139 155 
72 6 176 9 150 227 149 23 
73 8 15 210 74 227 150 181 214 141 
74 9 73 141 15 181 210 227 150 161 214 
75 9 21 207 123 166 100 187 58 38 197 
76 6 215 201 55 162 196 152 
77 7 113 112 61 222 11 42 126 
78 9 27 65 218 120 63 40 119 60 67 
79 9 7 106 110 130 132 64 51 90 26 
80 9 47 68 165 12 186 148 190 111 216 
81 9 213 173 153 154 219 220 55 104 215 
82 9 133 5 91 69 125 39 94 16 98 
83 9 59 32 159 122 204 31 23 228 188 
84 7 44 8 175 167 225 208 46 
85 8 217 103 87 25 93 62 168 43 
86 9 22 131 102 206 53 161 95 182 34 
87 9 103 43 62 6 85 217 193 67 46 
88 7 138 190 186 12 216 165 170 
89 9 24 117 70 179 18 203 156 50 94 
90 9 132 51 26 64 142 98 2 7 14 
91 9 133 82 5 98 125 39 26 94 69 
92 3 221 20 192 
93 6 168 211 151 200 143 25 
94 9 39 125 50 5 179 69 133 89 82 
95 9 53 131 68 86 116 80 22 41 122 
96 8 109 145 4 156 163 164 126 50 
97 1 25 
98 9 26 51 90 132 127 91 125 133 7 
99 6 158 20 192 114 92 202 
100 5 21 166 121 136 75 
101 5 169 228 188 191 59 
102 9 22 86 182 34 161 131 177 140 206 
103 9 62 87 43 85 217 6 46 193 175 
104 9 220 171 153 173 123 54 81 219 207 
105 9 139 3 71 199 155 221 134 41 92 
106 9 110 130 79 7 51 132 26 90 64 
107 8 124 154 66 55 201 213 162 215 
108 9 142 52 64 135 14 2 90 7 132 
109 8 96 4 145 156 50 163 164 126 
110 9 106 130 79 7 51 132 26 90 98 
111 9 28 49 41 148 134 208 47 71 3 
112 9 222 11 61 77 42 113 30 57 212 
113 7 77 112 61 42 222 11 128 
114 8 158 99 192 20 160 180 202 92 
115 6 183 224 13 48 33 189 
116 7 68 226 184 53 31 204 80 
117 5 24 70 203 89 179 
118 9 16 69 179 36 117 5 24 39 94 
119 9 27 6 67 193 78 60 120 17 43 
120 9 60 17 78 65 119 27 19 67 218 
121 5 136 128 100 21 197 
122 9 32 204 159 31 83 53 198 226 184 
123 9 207 75 166 58 187 21 171 104 220 
124 7 66 162 201 107 55 157 215 
125 9 39 94 5 133 50 82 69 91 179 
126 5 145 96 61 4 77 
127 9 4 212 109 50 96 2 14 145 98 
128 5 121 113 42 136 77 
129 9 30 57 42 52 135 112 222 14 11 
130 9 110 106 79 7 51 26 132 98 90 
131 9 86 22 53 95 206 102 122 161 32 
132 9 51 90 26 7 64 98 142 79 130 
133 9 82 5 91 125 39 69 94 98 16 
134 9 71 3 41 208 105 199 28 111 139 
135 9 52 142 14 2 108 64 129 90 212 
136 4 121 100 128 21 
137 7 40 218 63 205 172 209 19 
138 7 190 186 88 12 165 170 216 
139 8 155 105 221 199 92 202 3 71 
140 9 189 56 182 48 34 13 33 177 37 
141 9 74 73 181 161 15 210 177 227 150 
142 9 135 52 108 64 14 2 90 132 129 
143 4 168 25 211 93 
144 2 147 10 
145 7 96 109 4 126 163 164 156 
146 9 216 18 88 12 190 138 148 186 70 
147 3 144 10 170 
148 9 49 47 216 111 12 28 146 80 165 
149 5 23 194 176 35 72 
150 8 227 9 210 72 181 15 176 73 
151 6 200 211 93 168 143 25 
152 5 185 196 174 219 54 
153 9 171 219 220 54 81 104 173 196 152 
154 9 213 81 55 201 215 173 76 219 107 
155 9 139 202 221 105 92 192 20 199 3 
156 7 163 164 96 109 145 50 18 
157 6 195 35 162 178 191 101 
158 6 99 114 20 192 92 160 
159 8 32 204 31 122 83 198 226 59 
160 6 180 114 158 99 20 192 
161 9 181 34 177 141 74 102 206 22 150 
162 7 201 55 66 215 76 157 124 
163 6 164 156 96 145 109 18 
164 6 163 156 96 145 18 109 
165 9 186 12 190 138 170 88 10 216 47 
166 9 75 123 100 171 54 21 207 174 104 
167 9 8 225 175 46 45 29 209 44 84 
168 6 211 93 151 143 200 25 
169 6 228 101 188 191 59 23 
170 7 10 186 138 165 190 147 88 
171 9 54 153 220 104 219 166 174 196 185 
172 2 205 36 
173 9 81 220 213 153 104 171 219 154 54 
174 4 185 152 196 54 
175 9 225 8 46 167 45 29 209 84 44 
176 6 72 9 149 150 227 23 
177 9 34 37 161 141 102 140 56 182 74 
178 3 195 35 194 
179 9 118 89 24 117 69 16 39 94 70 
180 7 160 114 158 99 192 20 202 
181 9 150 227 74 73 9 15 210 161 206 
182 9 102 140 34 180 189 202 177 22 86 
183 6 224 48 13 160 180 189 
184 6 226 116 198 31 204 159 
185 5 152 196 174 54 219 
186 7 190 138 165 12 88 170 216 
187 9 58 207 123 38 75 21 104 166 197 
188 8 228 169 101 191 59 23 35 195 
189 8 48 13 140 56 33 180 183 182 
190 7 138 186 12 88 165 216 170 
191 9 35 188 195 23 228 169 178 59 149 
192 8 20 99 158 114 202 92 155 221 
193 9 67 6 27 62 43 63 119 29 45 
194 3 149 178 35 
195 5 35 178 191 157 194 
196 5 152 185 219 174 54 
197 9 57 21 38 121 128 42 75 30 207 
198 6 31 159 204 32 184 226 
199 7 71 105 139 221 3 134 155 
200 6 151 211 93 168 143 25 
201 7 55 215 162 76 66 154 124 
202 9 192 20 155 114 99 92 139 158 221 
203 3 70 117 24 
204 9 31 32 159 122 198 83 226 184 53 
205 4 137 172 40 63 
206 9 9 181 22 72 150 161 176 86 227 
207 9 123 75 58 187 21 166 38 104 171 
208 9 134 28 71 44 223 199 3 49 111 
209 8 45 29 46 225 167 8 175 205 
210 7 15 73 227 150 214 74 181 
211 6 168 93 151 200 143 25 
212 9 2 14 11 61 222 127 4 112 126 
213 9 81 154 173 153 55 219 220 215 201 
214 2 210 15 
215 7 76 55 201 162 196 219 152 
216 9 12 190 88 138 186 146 165 47 148 
217 8 85 103 25 87 93 62 168 84 
218 9 137 40 63 19 205 78 27 65 36 
219 7 196 152 153 54 185 174 171 
220 9 104 153 173 171 81 219 54 213 123 
221 6 92 139 155 199 105 20 
222 9 11 112 61 77 113 42 212 30 14 
223 9 208 28 44 49 167 111 148 84 134 
224 5 183 160 180 48 158 
225 9 175 8 167 46 45 29 209 84 44 
226 6 184 116 31 198 204 159 
227 8 150 210 15 9 73 181 72 176 
228 8 188 169 101 59 191 23 35 195 
DEPOT_SECTION
   1
   -1
EOF
