NAME :  X-n303-kX-w60-c9.cctp
COMMENT : 	Adapted by Maziero, Usberti and Cavellucci from the Uchoa, Pecin, Pessoa, Poggi, Subramanian, and Vidal (2013)
TYPE :  CCTP
DIMENSION :    285
EDGE_WEIGHT_TYPE : 	EUC_2D	
CAPACITY : 	794
VERTICES_WITHIN_COVERAGE :  9
VERTICES_WITH_DEMAND : 	60
NODE_COORD_SECTION
1 500 500
2 205 638
3 893 161
4 191 775
5 444 871
6 225 445
7 368 543
8 120 270
9 612 902
10 45 323
11 707 182
12 125 720
13 442 388
14 79 759
15 904 76
16 379 849
17 213 595
18 164 686
19 404 947
20 331 615
21 842 156
22 272 297
23 957 227
24 274 481
25 287 544
26 152 403
27 873 146
28 267 415
29 188 727
30 594 742
31 198 429
32 810 797
33 383 602
34 459 786
35 50 183
36 395 836
37 600 866
38 192 744
39 12 705
40 869 99
41 233 811
42 235 638
43 423 904
44 220 619
45 236 713
46 960 141
47 128 321
48 160 230
49 200 650
50 104 544
51 375 638
52 540 726
53 635 790
54 512 597
55 643 517
56 327 750
57 198 412
58 375 558
59 123 259
60 365 859
61 545 700
62 242 431
63 140 412
64 316 413
65 145 764
66 892 246
67 331 828
68 231 342
69 676 810
70 211 378
71 197 538
72 808 113
73 129 655
74 84 714
75 416 784
76 151 243
77 275 442
78 46 355
79 182 746
80 158 717
81 198 648
82 137 763
83 206 872
84 30 301
85 979 214
86 384 855
87 212 794
88 35 779
89 108 640
90 186 930
91 623 977
92 231 796
93 402 932
94 166 237
95 341 803
96 559 851
97 883 143
98 395 327
99 382 787
100 341 784
101 81 261
102 379 700
103 721 333
104 312 756
105 424 573
106 596 878
107 273 514
108 281 417
109 125 528
110 464 893
111 140 413
112 256 250
113 206 384
114 204 563
115 202 159
116 283 520
117 214 494
118 854 142
119 502 839
120 599 889
121 485 898
122 339 73
123 396 959
124 192 533
125 234 702
126 811 101
127 266 346
128 185 436
129 61 374
130 843 188
131 156 795
132 387 889
133 622 16
134 235 894
135 327 991
136 867 172
137 329 496
138 930 115
139 371 317
140 416 575
141 408 744
142 98 434
143 468 990
144 239 775
145 231 748
146 251 398
147 311 725
148 913 135
149 928 399
150 444 596
151 337 519
152 294 981
153 625 824
154 153 530
155 124 342
156 615 881
157 534 826
158 454 888
159 639 789
160 48 353
161 200 704
162 50 483
163 269 610
164 54 300
165 346 588
166 617 832
167 867 63
168 304 240
169 129 675
170 293 547
171 110 597
172 868 126
173 190 760
174 894 162
175 209 696
176 400 495
177 283 657
178 649 872
179 198 370
180 824 202
181 275 889
182 904 169
183 511 600
184 224 441
185 627 952
186 7 213
187 155 218
188 593 802
189 817 211
190 212 351
191 843 191
192 616 902
193 230 561
194 459 554
195 585 595
196 204 614
197 425 539
198 430 850
199 498 758
200 437 622
201 107 483
202 119 764
203 265 615
204 547 481
205 324 762
206 723 745
207 163 928
208 308 513
209 339 599
210 314 814
211 316 598
212 183 159
213 325 348
214 163 480
215 595 727
216 303 866
217 350 700
218 920 82
219 105 238
220 111 18
221 437 482
222 88 300
223 464 929
224 544 846
225 201 233
226 353 729
227 302 404
228 739 843
229 198 250
230 55 143
231 257 410
232 26 411
233 207 344
234 212 757
235 277 453
236 274 472
237 272 828
238 875 101
239 434 975
240 647 943
241 317 866
242 391 393
243 612 815
244 217 666
245 229 740
246 630 918
247 125 704
248 545 898
249 184 757
250 985 201
251 448 998
252 117 784
253 359 490
254 292 715
255 365 531
256 503 795
257 21 220
258 225 872
259 387 551
260 895 120
261 476 868
262 281 586
263 609 944
264 868 164
265 148 748
266 168 463
267 364 550
268 844 163
269 465 614
270 214 637
271 189 582
272 94 186
273 863 190
274 676 800
275 175 686
276 393 400
277 172 614
278 320 504
279 35 206
280 182 671
281 356 599
282 88 215
283 608 775
284 481 721
285 449 751
DEMAND_SECTION
2 20
3 14
4 85
5 33
6 51
7 78
8 51
9 85
10 74
11 4
12 13
13 2
14 33
15 16
16 31
17 16
18 18
19 3
20 66
21 42
22 65
23 15
24 3
25 38
26 81
27 82
28 83
29 86
30 1
31 59
32 69
33 1
34 58
35 98
36 37
37 65
38 92
39 44
40 86
41 83
42 68
43 52
44 82
45 66
46 34
47 33
48 18
49 39
50 97
51 29
52 6
53 74
54 20
55 2
56 89
57 48
58 53
59 57
60 80
61 26
COVERAGE_SECTION
2 9 270 81 49 44 196 42 244 280 277 
3 9 174 182 97 27 264 136 148 260 273 
4 9 173 249 87 234 79 38 131 92 65 
5 9 158 198 110 261 43 121 36 132 223 
6 9 184 62 31 128 57 231 77 117 28 
7 9 267 255 58 259 151 165 253 197 281 
8 9 59 219 101 76 222 47 48 94 187 
9 9 192 120 156 246 106 37 263 178 185 
10 9 164 84 160 78 222 129 101 155 47 
11 8 189 180 72 126 130 191 21 268 
12 9 247 80 265 74 202 82 169 65 18 
13 6 276 242 98 221 139 176 
14 9 202 74 252 88 82 12 65 265 247 
15 9 218 238 167 40 260 138 148 172 97 
16 9 86 60 36 132 198 67 95 99 241 
17 9 196 44 271 114 193 270 2 277 42 
18 9 275 280 80 169 161 247 175 73 29 
19 8 123 93 239 43 132 223 251 143 
20 9 209 211 281 165 51 33 262 163 177 
21 9 268 118 264 136 130 27 191 172 273 
22 9 127 112 68 168 213 233 190 229 225 
23 8 85 250 66 182 46 174 3 273 
24 9 236 235 107 77 116 208 278 137 62 
25 9 170 116 107 208 262 278 151 193 211 
26 9 63 111 57 128 31 113 179 142 266 
27 9 97 118 264 172 3 174 136 21 260 
28 9 231 108 146 77 62 227 235 64 184 
29 9 38 79 161 249 80 173 175 234 245 
30 9 215 283 52 188 53 61 159 243 153 
31 9 128 57 184 6 62 266 113 26 70 
32 6 228 206 274 69 159 53 
33 9 281 51 165 140 209 58 105 259 20 
34 9 285 75 256 199 141 119 284 198 99 
35 9 279 230 272 257 282 186 219 101 59 
36 9 16 86 60 198 99 132 75 5 95 
37 9 106 156 120 9 166 192 96 153 178 
38 9 79 249 173 29 234 4 245 145 161 
39 9 74 88 14 247 12 89 169 202 73 
40 9 238 172 260 167 15 97 118 27 218 
41 9 92 87 144 237 4 234 258 145 83 
42 9 270 44 2 244 49 81 203 196 163 
43 9 93 158 5 132 110 19 223 198 123 
44 9 196 270 2 42 17 81 49 203 244 
45 9 125 245 175 145 161 29 234 244 38 
46 9 138 148 182 250 260 174 3 218 85 
47 9 155 222 8 59 101 164 76 233 10 
48 9 94 187 76 225 229 59 219 8 282 
49 9 81 2 270 244 280 196 42 44 275 
50 8 109 154 171 201 162 214 124 71 
51 9 33 281 20 209 165 102 200 217 211 
52 9 61 199 215 30 284 256 283 188 285 
53 9 159 283 243 153 274 188 69 166 30 
54 9 183 269 150 194 195 200 105 140 197 
55 9 195 204 54 183 194 103 269 61 221 
56 9 205 104 147 226 100 254 95 217 210 
57 9 31 128 113 70 184 179 6 26 62 
58 9 259 267 7 255 165 140 33 281 105 
59 9 8 219 76 101 48 94 187 222 282 
60 9 16 86 132 36 67 241 95 216 198 
61 9 52 215 30 284 199 283 256 183 54 
62 9 184 6 231 28 146 77 108 235 31 
63 9 111 26 142 128 57 266 31 113 155 
64 7 227 108 28 77 235 231 213 
65 9 82 265 202 131 252 249 79 173 4 
66 6 273 23 191 130 136 182 
67 9 210 95 241 100 60 216 16 86 237 
68 9 190 233 127 70 179 113 146 22 231 
69 8 274 159 53 153 166 243 178 228 
70 9 113 179 190 233 57 68 146 31 231 
71 8 124 114 193 154 271 117 17 214 
72 9 126 118 21 172 268 40 238 27 167 
73 9 169 89 18 247 275 280 277 171 12 
74 9 12 247 14 169 202 82 265 39 73 
75 9 99 141 34 285 36 198 16 100 95 
76 9 48 94 187 59 8 219 229 225 282 
77 9 235 108 28 236 62 231 24 227 6 
78 9 160 129 10 84 164 232 222 155 47 
79 9 38 249 173 29 4 234 265 80 65 
80 9 18 29 12 265 247 275 79 38 161 
81 9 49 2 270 244 280 196 44 42 277 
82 9 65 202 265 252 131 12 249 79 80 
83 9 258 134 90 41 181 207 87 237 92 
84 9 164 10 160 78 222 101 129 257 186 
85 9 250 23 46 182 66 174 3 148 138 
86 9 16 60 36 132 198 67 5 43 95 
87 9 92 41 4 144 234 173 249 145 38 
88 9 14 39 74 252 202 82 12 65 247 
89 9 73 169 171 247 277 18 74 280 275 
90 9 207 83 134 258 181 152 41 216 237 
91 6 185 263 240 246 192 9 
92 9 41 87 144 234 4 145 237 173 245 
93 9 19 123 43 132 239 223 158 110 5 
94 9 48 76 187 225 229 59 8 219 212 
95 9 100 67 210 99 205 56 104 16 60 
96 9 224 157 37 106 248 120 119 188 166 
97 9 27 3 174 172 260 264 118 148 136 
98 7 139 242 213 276 13 64 227 
99 9 75 100 95 141 36 16 205 67 226 
100 9 95 205 56 104 210 99 67 226 147 
101 9 219 8 222 59 164 282 84 10 76 
102 9 217 226 141 51 56 147 205 99 104 
103 6 11 189 180 191 130 66 
104 9 205 56 147 100 254 226 95 210 217 
105 9 140 150 197 194 259 33 58 200 269 
106 9 120 37 156 9 192 96 166 246 178 
107 9 116 24 25 208 170 236 278 137 235 
108 9 28 227 231 77 64 146 235 62 236 
109 8 50 154 201 214 124 171 71 266 
110 7 158 121 261 5 223 43 198 
111 9 63 26 142 128 266 57 31 214 113 
112 9 168 22 225 229 94 68 127 48 76 
113 9 70 179 57 190 233 31 146 68 128 
114 8 271 71 193 124 17 196 44 277 
115 9 212 225 187 48 94 229 76 112 272 
116 9 107 25 208 170 24 278 236 137 151 
117 8 124 71 6 214 184 266 24 107 
118 9 21 27 172 268 264 97 136 3 174 
119 9 157 261 224 256 96 121 5 110 34 
120 9 106 9 156 192 37 246 178 96 248 
121 6 110 261 158 223 5 248 
122 9 115 168 212 112 225 229 22 187 220 
123 9 19 93 239 43 251 132 223 135 143 
124 8 71 114 154 117 193 271 214 17 
125 9 45 175 161 245 244 145 29 38 234 
126 9 72 40 118 172 21 238 167 268 27 
127 9 68 22 146 190 213 233 70 231 227 
128 9 31 57 266 184 6 26 214 63 111 
129 9 78 160 232 10 142 155 164 84 222 
130 8 191 273 180 268 136 21 189 264 
131 9 65 82 4 252 249 202 265 173 79 
132 9 86 60 43 16 93 36 198 5 19 
133 9 11 126 72 167 21 40 118 268 238 
134 9 258 83 181 90 216 237 207 41 241 
135 9 152 123 19 93 239 181 132 251 241 
136 9 264 273 268 27 3 130 174 21 191 
137 9 278 151 208 253 255 116 24 107 236 
138 9 148 218 260 46 15 97 238 3 174 
139 8 98 213 242 276 13 22 168 127 
140 9 105 150 197 259 33 58 194 200 7 
141 9 75 285 99 102 226 34 217 284 100 
142 9 63 111 201 26 162 129 232 266 214 
143 5 251 239 223 19 123 
144 9 92 145 234 87 41 245 4 173 38 
145 9 245 234 144 45 38 173 125 4 29 
146 9 231 28 62 108 70 113 77 184 227 
147 9 254 56 104 205 226 217 100 102 177 
148 9 260 138 97 3 174 182 27 172 46 
149 6 66 23 85 250 103 189 
150 9 200 269 105 140 194 197 33 183 54 
151 9 278 137 208 255 253 7 267 170 58 
152 9 135 181 123 134 19 216 241 90 93 
153 9 166 243 53 159 188 37 283 69 178 
154 8 109 124 71 50 214 114 271 201 
155 9 47 222 26 129 8 63 111 160 78 
156 9 120 106 9 37 192 178 246 166 153 
157 9 224 96 119 256 188 261 248 37 199 
158 8 110 5 261 121 43 223 198 132 
159 9 53 283 243 153 274 69 166 188 30 
160 9 78 129 10 164 84 232 222 155 47 
161 9 175 29 275 125 45 280 18 38 244 
162 9 201 142 232 50 109 129 154 214 111 
163 9 203 262 42 177 211 44 17 270 20 
164 9 84 10 222 101 160 78 8 129 47 
165 9 209 281 20 211 33 58 267 7 259 
166 9 153 243 37 188 53 159 156 106 178 
167 9 40 15 238 218 172 260 126 72 118 
168 9 112 22 139 225 229 213 127 68 98 
169 9 73 247 18 89 12 275 80 280 74 
170 9 25 116 208 107 262 278 151 211 137 
171 9 89 50 73 277 109 154 169 271 196 
172 9 27 118 97 238 40 260 264 21 3 
173 9 249 4 38 79 234 29 87 145 245 
174 9 3 182 97 27 264 136 148 260 273 
175 9 161 125 244 45 275 29 280 18 49 
176 8 221 253 255 197 259 7 267 151 
177 9 203 163 42 254 20 125 244 211 262 
178 9 156 192 9 37 246 166 106 120 153 
179 9 70 113 190 233 57 68 26 31 146 
180 7 189 191 130 273 268 21 136 
181 9 216 134 241 258 237 83 67 210 41 
182 9 174 3 97 148 264 136 27 273 260 
183 9 54 269 150 194 195 200 105 140 197 
184 9 6 62 31 57 128 231 28 77 146 
185 8 263 240 91 246 192 9 120 156 
186 9 257 279 35 282 230 101 84 272 164 
187 9 48 94 76 225 59 219 229 8 212 
188 9 243 283 166 153 53 159 30 96 37 
189 7 180 191 130 273 268 21 136 
190 9 233 68 179 70 113 127 146 57 231 
191 8 130 273 180 268 136 189 21 264 
192 9 9 120 156 246 106 37 263 178 185 
193 8 114 17 71 271 124 262 25 44 
194 9 197 105 150 140 269 54 183 200 259 
195 9 54 183 55 61 204 269 215 194 52 
196 9 44 17 2 270 277 81 271 49 42 
197 9 105 140 194 259 176 58 7 221 150 
198 9 5 36 158 86 261 16 43 110 132 
199 9 256 284 34 285 52 61 157 119 75 
200 9 150 269 105 140 33 51 194 183 54 
201 9 109 142 214 162 50 266 154 111 63 
202 9 82 252 65 265 14 12 131 247 74 
203 9 163 262 42 44 177 211 17 270 196 
204 9 55 221 194 195 54 183 197 13 176 
205 9 56 104 100 147 95 226 210 254 99 
206 8 274 69 159 53 228 32 283 153 
207 9 90 83 134 258 181 131 41 152 87 
208 9 278 116 137 151 107 25 170 24 236 
209 9 165 281 20 211 33 51 58 267 262 
210 9 67 95 100 237 241 205 216 104 56 
211 9 20 209 165 262 281 163 203 170 25 
212 9 115 187 48 225 94 76 229 272 282 
213 8 139 127 227 64 98 22 242 108 
214 8 266 128 154 117 201 124 109 31 
215 9 30 283 52 61 53 188 159 243 153 
216 9 241 181 67 237 210 60 95 134 16 
217 9 102 226 147 56 254 51 205 104 141 
218 9 15 138 260 238 148 40 167 172 46 
219 9 59 282 101 8 76 272 187 48 94 
220 9 230 212 115 272 35 282 279 187 48 
221 8 176 197 194 253 259 255 7 105 
222 9 164 101 8 47 10 59 155 84 219 
223 7 110 121 158 43 239 5 143 
224 8 96 157 119 248 37 106 256 188 
225 9 229 94 48 187 76 112 115 212 59 
226 9 217 56 102 147 205 104 100 141 254 
227 7 64 108 28 231 77 146 235 
228 5 69 274 32 178 206 
229 9 225 94 48 76 187 112 59 8 22 
230 9 35 272 279 282 257 186 219 101 187 
231 9 28 146 108 62 77 184 227 6 235 
232 9 129 78 160 142 162 10 201 84 63 
233 9 190 68 179 70 113 127 57 146 22 
234 9 145 173 38 245 4 249 79 144 87 
235 9 77 236 24 108 28 62 231 6 184 
236 9 24 235 77 107 116 62 208 108 6 
237 9 41 210 216 92 67 241 181 144 258 
238 9 40 172 260 15 167 97 27 118 218 
239 7 251 143 19 123 93 223 43 
240 6 185 246 263 91 192 9 
241 9 216 67 181 60 210 237 16 95 86 
242 6 276 13 98 64 139 213 
243 9 153 166 188 53 159 283 37 69 96 
244 9 49 81 270 2 175 42 280 125 161 
245 9 145 234 45 144 38 125 29 173 161 
246 9 192 9 240 263 185 156 120 178 106 
247 9 12 169 80 74 18 73 265 275 82 
248 7 96 224 106 120 121 37 9 
249 9 173 79 38 4 234 29 265 65 87 
250 9 85 23 46 182 148 174 3 138 66 
251 6 143 239 123 19 223 93 
252 9 202 82 65 131 14 265 12 249 4 
253 8 137 151 176 255 278 7 208 267 
254 9 147 104 56 45 205 125 177 217 226 
255 9 7 267 58 151 259 253 137 176 278 
256 9 199 119 157 34 224 285 284 52 261 
257 9 186 279 35 282 101 84 272 230 219 
258 9 83 134 181 41 237 90 92 216 87 
259 9 58 7 267 255 140 197 105 33 165 
260 9 148 97 172 238 40 27 138 3 174 
261 8 110 158 121 5 119 198 223 43 
262 9 163 203 211 170 25 193 20 209 165 
263 8 185 246 91 240 9 192 120 156 
264 9 136 27 268 3 97 118 174 273 21 
265 9 65 82 80 202 79 12 249 38 173 
266 9 214 128 31 117 111 63 57 6 184 
267 9 7 58 255 259 151 165 281 33 209 
268 9 21 118 264 130 136 191 273 27 97 
269 9 150 200 183 54 105 194 140 33 197 
270 9 2 44 49 81 42 196 244 17 280 
271 8 114 17 196 277 71 193 44 124 
272 9 282 35 219 230 279 187 101 48 59 
273 8 136 130 191 264 268 21 180 3 
274 8 69 159 53 153 243 166 206 283 
275 9 18 280 161 80 175 29 49 81 169 
276 6 242 13 98 64 139 213 
277 9 196 271 2 81 17 49 44 270 280 
278 9 137 208 151 116 253 107 24 170 25 
279 9 257 35 186 282 272 230 101 219 84 
280 9 275 18 49 81 244 175 161 2 270 
281 9 165 209 33 20 211 51 58 267 7 
282 9 219 272 101 35 279 59 8 187 257 
283 9 53 188 159 30 243 215 153 166 274 
284 9 199 285 52 61 34 141 256 75 102 
285 9 34 141 284 75 199 256 99 102 52 
DEPOT_SECTION
   1
   -1
EOF
