NAME :  X-n376-kX-w75-c7.cctp
COMMENT : 	Adapted by Maziero, Usberti and Cavellucci from the Uchoa, Pecin, Pessoa, Poggi, Subramanian, and Vidal (2013)
TYPE :  CCTP
DIMENSION :    337
EDGE_WEIGHT_TYPE : 	EUC_2D	
CAPACITY : 	4
VERTICES_WITHIN_COVERAGE :  7
VERTICES_WITH_DEMAND : 	75
NODE_COORD_SECTION
1 0 0
2 989 944
3 5 730
4 769 200
5 698 515
6 72 561
7 52 397
8 839 271
9 140 724
10 339 580
11 30 850
12 820 815
13 555 844
14 388 709
15 323 438
16 159 983
17 989 233
18 644 167
19 766 151
20 387 690
21 193 140
22 863 192
23 149 123
24 609 119
25 121 204
26 625 537
27 716 123
28 8 219
29 429 956
30 844 970
31 661 66
32 347 202
33 979 314
34 255 772
35 634 504
36 466 48
37 330 90
38 929 245
39 236 130
40 785 0
41 251 486
42 758 203
43 524 280
44 798 71
45 212 595
46 967 478
47 504 429
48 581 534
49 883 899
50 605 414
51 640 692
52 287 432
53 641 771
54 53 374
55 344 325
56 647 72
57 63 976
58 519 235
59 485 226
60 469 527
61 433 168
62 538 891
63 884 433
64 142 134
65 234 394
66 473 750
67 815 622
68 130 999
69 655 588
70 16 235
71 503 614
72 477 489
73 87 78
74 689 289
75 631 868
76 304 743
77 624 81
78 831 984
79 312 157
80 563 205
81 641 435
82 189 201
83 906 949
84 601 486
85 746 904
86 557 409
87 854 201
88 50 20
89 994 111
90 584 875
91 316 741
92 377 988
93 371 762
94 401 741
95 890 126
96 797 335
97 9 301
98 923 259
99 586 782
100 103 99
101 166 987
102 383 86
103 603 863
104 590 78
105 40 554
106 755 120
107 554 351
108 603 102
109 279 404
110 1 481
111 667 931
112 609 350
113 755 779
114 607 107
115 589 379
116 744 130
117 469 142
118 491 28
119 602 512
120 391 982
121 285 336
122 730 604
123 758 153
124 831 894
125 355 206
126 382 353
127 887 133
128 286 835
129 103 743
130 89 845
131 689 515
132 903 330
133 713 261
134 465 494
135 703 619
136 282 745
137 320 130
138 531 25
139 887 949
140 765 502
141 174 187
142 993 233
143 25 851
144 774 690
145 722 969
146 133 115
147 175 663
148 134 106
149 469 233
150 325 78
151 166 547
152 416 965
153 284 119
154 169 541
155 302 72
156 537 7
157 434 329
158 59 816
159 139 74
160 495 746
161 890 453
162 719 235
163 184 528
164 863 957
165 821 476
166 700 645
167 293 179
168 104 271
169 882 906
170 18 221
171 819 101
172 971 397
173 454 960
174 348 657
175 745 122
176 3 510
177 981 283
178 167 323
179 869 880
180 844 154
181 53 544
182 443 825
183 879 809
184 683 254
185 719 31
186 664 737
187 541 249
188 204 791
189 615 578
190 821 381
191 767 595
192 594 837
193 331 365
194 537 263
195 157 938
196 138 140
197 354 240
198 435 976
199 917 593
200 504 643
201 420 473
202 576 665
203 648 637
204 792 147
205 55 92
206 635 236
207 180 793
208 561 629
209 743 136
210 686 38
211 415 672
212 678 523
213 834 48
214 868 224
215 132 915
216 513 74
217 757 295
218 859 823
219 398 959
220 360 94
221 699 907
222 842 46
223 240 808
224 434 756
225 628 184
226 938 599
227 22 999
228 707 963
229 681 762
230 750 278
231 652 340
232 788 95
233 653 222
234 730 753
235 484 573
236 144 957
237 404 597
238 849 288
239 321 355
240 294 41
241 43 501
242 175 695
243 439 486
244 949 443
245 245 169
246 848 143
247 198 396
248 153 521
249 436 824
250 703 624
251 126 2
252 659 523
253 370 702
254 528 268
255 330 488
256 630 555
257 568 848
258 92 747
259 126 152
260 18 275
261 875 151
262 537 418
263 598 777
264 819 522
265 112 727
266 697 29
267 243 155
268 195 437
269 563 820
270 583 383
271 645 62
272 645 77
273 193 643
274 96 519
275 336 319
276 998 266
277 990 922
278 753 566
279 646 537
280 412 328
281 386 478
282 344 512
283 625 949
284 251 208
285 680 428
286 171 19
287 405 150
288 146 654
289 82 631
290 417 950
291 121 982
292 209 292
293 180 796
294 51 162
295 628 521
296 820 662
297 596 600
298 605 229
299 95 447
300 899 216
301 685 705
302 304 713
303 305 760
304 636 482
305 954 189
306 470 857
307 450 97
308 811 886
309 453 64
310 732 350
311 258 429
312 674 351
313 20 95
314 57 298
315 136 129
316 62 213
317 852 852
318 435 522
319 518 452
320 816 415
321 987 849
322 472 154
323 893 13
324 579 281
325 418 966
326 490 482
327 552 802
328 667 416
329 571 581
330 71 227
331 311 90
332 598 723
333 845 677
334 321 456
335 817 624
336 978 276
337 239 960
DEMAND_SECTION
2 1
3 1
4 1
5 1
6 1
7 1
8 1
9 1
10 1
11 1
12 1
13 1
14 1
15 1
16 1
17 1
18 1
19 1
20 1
21 1
22 1
23 1
24 1
25 1
26 1
27 1
28 1
29 1
30 1
31 1
32 1
33 1
34 1
35 1
36 1
37 1
38 1
39 1
40 1
41 1
42 1
43 1
44 1
45 1
46 1
47 1
48 1
49 1
50 1
51 1
52 1
53 1
54 1
55 1
56 1
57 1
58 1
59 1
60 1
61 1
62 1
63 1
64 1
65 1
66 1
67 1
68 1
69 1
70 1
71 1
72 1
73 1
74 1
75 1
76 1
COVERAGE_SECTION
2 7 277 83 321 139 169 49 164 
3 7 258 129 158 265 11 143 289 
4 7 42 123 19 204 162 209 116 
5 7 131 212 252 279 35 140 295 
6 7 181 105 274 241 289 176 248 
7 7 54 299 110 314 241 97 176 
8 7 238 214 87 96 300 22 98 
9 7 265 129 242 258 147 288 207 
10 7 237 282 174 255 281 318 211 
11 5 143 158 130 258 215 
12 7 218 317 183 308 113 124 179 
13 7 257 269 192 90 327 62 103 
14 7 20 253 94 211 93 174 224 
15 7 334 52 255 109 311 193 281 
16 7 101 236 68 291 195 215 337 
17 7 142 276 336 177 305 38 98 
18 7 225 233 24 114 206 298 108 
19 7 123 204 209 116 106 175 4 
20 7 14 253 211 174 94 93 224 
21 7 39 23 64 141 267 196 315 
22 7 87 214 180 261 300 246 127 
23 7 64 315 146 196 148 259 21 
24 7 114 108 77 104 272 18 56 
25 7 259 330 141 316 196 82 168 
26 7 295 256 279 35 119 252 189 
27 7 116 175 209 106 123 19 232 
28 7 170 70 316 260 330 294 97 
29 7 290 325 152 198 173 219 120 
30 7 78 164 139 83 169 124 49 
31 7 56 271 272 210 77 266 108 
32 7 125 197 79 167 137 287 61 
33 7 177 336 276 98 132 17 142 
34 7 136 223 303 188 76 91 128 
35 7 295 304 252 119 26 279 84 
36 4 309 118 307 216 
37 7 150 331 220 155 137 102 153 
38 7 98 300 336 17 305 177 142 
39 7 267 245 21 153 167 284 79 
40 7 213 44 185 222 266 232 210 
41 7 311 52 268 334 163 255 15 
42 7 4 123 162 19 204 209 133 
43 7 254 194 187 58 324 59 149 
44 7 232 171 213 222 106 40 175 
45 7 273 151 154 163 147 288 248 
46 7 244 161 172 63 226 199 165 
47 7 319 262 326 86 72 134 243 
48 7 119 26 329 295 84 256 189 
49 7 169 179 139 124 83 317 164 
50 7 115 270 81 86 328 112 262 
51 7 301 186 332 203 202 166 53 
52 7 109 311 15 334 41 65 255 
53 7 186 229 263 99 332 51 301 
54 7 7 314 299 97 260 168 110 
55 7 275 239 193 126 121 280 197 
56 7 272 271 31 77 210 108 114 
57 7 227 291 68 236 215 16 195 
58 7 187 194 254 59 43 149 80 
59 7 149 58 254 187 194 43 322 
60 7 134 318 72 235 326 243 201 
61 6 287 322 117 307 149 59 
62 7 90 13 257 103 269 306 192 
63 7 161 244 320 165 190 46 172 
64 7 196 315 23 146 259 148 21 
65 7 247 311 109 268 52 121 41 
66 7 160 224 94 182 249 14 327 
67 7 335 296 191 333 144 278 122 
68 7 291 16 101 236 195 57 215 
69 7 189 256 203 279 135 26 250 
70 7 170 28 260 316 330 97 314 
71 7 200 235 208 329 202 60 297 
72 7 134 326 243 60 318 319 201 
73 5 100 205 159 148 146 
74 7 184 133 162 230 231 312 217 
75 7 103 90 192 257 111 221 13 
76 7 91 303 136 302 34 93 253 
77 7 272 56 271 108 114 104 31 
78 7 30 164 139 83 124 169 49 
79 7 137 167 153 32 125 331 245 
80 7 298 187 58 194 225 254 206 
81 6 328 285 50 304 84 35 
82 6 141 21 284 245 25 267 
83 7 139 164 169 49 30 179 2 
84 7 119 304 35 295 48 26 81 
85 7 221 308 145 228 111 124 12 
86 7 262 270 115 50 47 107 319 
87 7 22 214 300 180 261 246 8 
88 6 73 205 251 313 100 159 
89 5 305 95 127 17 142 
90 7 103 257 192 13 75 62 269 
91 7 76 303 302 136 93 253 34 
92 7 120 219 152 325 290 198 29 
93 7 94 14 91 253 224 303 76 
94 7 14 224 93 253 20 211 66 
95 6 127 261 246 180 22 171 
96 6 190 217 310 238 230 8 
97 7 260 314 70 170 28 54 330 
98 7 38 300 336 177 214 17 132 
99 7 263 327 269 53 192 332 257 
100 7 73 148 146 159 315 205 23 
101 7 16 236 68 291 195 337 215 
102 2 220 37 
103 7 90 75 192 257 13 269 62 
104 7 108 77 114 24 272 56 271 
105 7 181 6 241 176 274 110 289 
106 7 175 116 209 19 123 27 232 
107 7 270 115 112 86 262 324 43 
108 7 114 24 104 77 272 56 271 
109 7 52 311 65 15 193 239 334 
110 7 176 241 181 105 7 299 274 
111 7 221 283 228 145 75 85 103 
112 7 115 270 231 107 50 312 324 
113 7 234 12 229 144 186 301 218 
114 7 108 24 77 104 272 56 271 
115 7 270 112 50 86 107 262 231 
116 7 209 175 106 123 27 19 204 
117 4 322 61 307 287 
118 6 36 138 156 216 309 307 
119 7 84 295 48 35 26 304 256 
120 7 92 219 152 325 290 198 29 
121 7 239 193 275 55 109 65 292 
122 7 135 250 191 278 166 69 67 
123 7 19 209 116 106 175 204 4 
124 7 308 179 317 49 169 164 218 
125 7 32 197 79 167 287 137 61 
126 7 280 55 193 157 275 239 121 
127 6 95 261 246 180 22 171 
128 3 223 34 303 
129 7 258 265 9 158 242 207 293 
130 4 158 11 143 215 
131 7 5 212 252 279 35 295 304 
132 7 238 98 33 8 38 177 336 
133 7 162 184 74 230 217 233 42 
134 7 72 243 326 60 318 201 319 
135 7 250 166 122 69 203 191 278 
136 7 76 303 91 34 302 223 128 
137 7 79 153 37 331 150 220 167 
138 5 156 118 216 36 104 
139 7 83 164 169 30 49 78 179 
140 7 264 165 278 5 131 212 191 
141 6 82 21 25 196 259 64 
142 7 17 276 336 177 305 38 98 
143 5 11 158 130 3 258 
144 7 296 333 234 67 335 166 301 
145 7 228 221 111 85 283 78 30 
146 7 148 315 23 64 196 100 259 
147 7 273 288 242 9 45 265 289 
148 7 146 23 315 64 100 159 196 
149 7 59 58 254 43 61 187 194 
150 7 37 331 155 220 240 137 153 
151 6 154 163 248 45 274 6 
152 7 325 290 29 219 198 120 173 
153 7 137 331 79 39 155 37 267 
154 6 151 163 248 45 274 6 
155 7 331 150 240 37 153 137 220 
156 5 138 118 216 36 104 
157 7 280 126 55 275 43 149 193 
158 5 130 11 143 258 129 
159 5 148 146 100 23 73 
160 7 66 224 327 94 182 99 249 
161 7 63 244 165 46 320 172 264 
162 7 133 184 42 230 4 74 233 
163 6 154 151 248 45 41 274 
164 7 30 139 78 83 169 49 124 
165 6 264 320 140 161 63 190 
166 7 250 135 122 203 301 69 51 
167 7 79 245 284 267 137 32 153 
168 7 314 330 25 316 178 260 70 
169 7 49 179 139 83 124 164 317 
170 7 28 70 316 330 260 294 97 
171 7 232 44 246 204 213 180 222 
172 7 244 46 33 63 132 161 177 
173 7 29 198 325 152 290 219 120 
174 7 253 20 14 211 302 10 237 
175 7 116 106 209 27 123 19 232 
176 7 110 241 105 181 6 274 299 
177 7 336 276 33 17 142 98 38 
178 6 292 247 168 65 314 268 
179 7 49 169 317 124 218 308 139 
180 7 246 261 22 87 127 204 95 
181 7 105 6 241 274 176 110 289 
182 6 249 306 224 66 94 160 
183 4 218 317 12 179 
184 7 133 74 162 233 206 230 298 
185 7 266 210 31 40 271 56 272 
186 7 229 301 53 51 332 234 263 
187 7 194 254 58 43 80 324 59 
188 5 207 293 223 34 136 
189 7 256 297 69 26 329 279 48 
190 6 320 96 63 310 165 132 
191 7 278 122 67 335 135 250 166 
192 7 103 257 269 90 13 75 327 
193 7 239 55 275 126 121 109 15 
194 7 254 187 43 58 324 59 80 
195 6 236 215 16 101 291 68 
196 7 64 315 259 23 146 148 100 
197 7 125 32 275 55 167 79 287 
198 7 325 29 152 173 290 219 120 
199 6 226 335 67 333 296 264 
200 7 71 208 235 202 329 211 297 
201 7 243 281 134 318 72 326 60 
202 7 208 332 297 51 200 203 329 
203 7 69 166 51 250 135 297 189 
204 7 19 123 106 209 116 180 232 
205 7 73 313 100 294 88 148 146 
206 7 233 298 184 225 18 324 74 
207 5 293 188 223 34 9 
208 7 202 297 329 200 71 189 203 
209 7 116 175 106 123 19 27 204 
210 7 266 185 31 271 56 272 77 
211 7 20 14 253 174 94 237 224 
212 7 131 252 5 279 35 295 26 
213 6 222 44 171 232 40 323 
214 7 87 22 300 8 38 98 238 
215 4 195 236 291 16 
216 3 118 138 36 
217 7 230 133 96 310 74 162 8 
218 6 183 317 12 179 124 308 
219 7 152 290 325 120 29 92 198 
220 5 102 37 150 331 137 
221 7 111 85 228 145 75 283 103 
222 6 213 44 171 323 40 232 
223 7 34 188 128 293 207 136 303 
224 7 94 66 160 93 14 249 182 
225 7 18 233 298 206 24 80 114 
226 4 199 333 46 335 
227 7 57 291 68 236 16 215 101 
228 7 145 111 221 85 283 75 78 
229 7 186 53 234 301 113 51 263 
230 7 217 133 162 74 184 96 310 
231 6 312 112 74 115 328 270 
232 7 44 171 106 175 204 116 19 
233 7 206 184 225 298 18 162 133 
234 7 113 229 301 186 144 53 12 
235 7 71 60 318 200 134 72 237 
236 6 195 16 291 101 68 215 
237 7 10 211 318 174 235 20 60 
238 7 8 214 132 96 98 87 300 
239 7 193 55 275 121 126 109 15 
240 6 155 150 331 37 153 220 
241 7 176 181 110 105 274 6 299 
242 7 147 9 288 273 265 129 207 
243 7 201 134 318 72 60 326 281 
244 7 46 172 161 63 132 33 165 
245 6 267 284 39 167 21 153 
246 7 180 261 127 95 22 171 204 
247 7 65 268 311 178 109 52 41 
248 6 154 151 163 274 6 268 
249 6 182 306 224 66 93 94 
250 7 135 166 122 203 69 191 278 
251 5 286 159 88 73 100 
252 7 212 279 35 131 295 26 5 
253 7 14 20 94 174 211 93 91 
254 7 194 43 187 58 324 59 149 
255 7 282 334 15 281 52 41 201 
256 7 26 279 189 295 69 252 35 
257 7 13 192 269 90 103 327 62 
258 7 129 265 9 158 3 130 242 
259 7 196 64 315 23 146 148 25 
260 7 97 70 314 170 28 330 316 
261 7 127 246 95 180 22 87 300 
262 7 86 47 319 270 115 50 107 
263 7 99 53 327 332 269 192 186 
264 7 165 140 278 191 161 67 335 
265 7 129 9 258 242 288 147 207 
266 7 210 185 31 271 56 272 77 
267 7 245 39 21 284 153 167 79 
268 6 247 65 311 41 109 52 
269 7 327 13 257 192 99 263 90 
270 7 115 86 50 112 107 262 81 
271 7 56 272 31 77 210 104 108 
272 7 56 271 31 77 114 108 24 
273 7 147 288 45 242 9 151 154 
274 6 6 181 241 248 105 299 
275 7 55 239 193 121 126 280 197 
276 7 336 177 142 17 33 38 98 
277 6 2 321 83 139 49 169 
278 7 191 122 140 135 5 250 264 
279 7 252 26 256 295 35 212 131 
280 7 157 126 55 275 193 239 197 
281 7 201 243 282 255 318 334 15 
282 7 255 281 334 10 15 201 318 
283 7 111 75 228 90 221 103 145 
284 6 245 167 267 82 39 79 
285 6 328 81 304 50 312 131 
286 5 251 159 148 73 146 
287 5 61 117 322 102 307 
288 7 147 273 242 289 9 265 45 
289 7 288 6 105 181 147 265 9 
290 7 29 152 325 219 198 173 120 
291 7 68 236 16 101 195 57 215 
292 6 178 121 82 284 65 247 
293 5 207 188 223 34 9 
294 7 316 170 330 205 28 313 259 
295 7 26 35 279 119 252 256 304 
296 6 333 335 67 144 191 122 
297 7 189 329 208 256 69 203 48 
298 7 206 80 233 225 324 187 18 
299 6 7 274 241 54 248 110 
300 7 214 38 22 87 98 305 261 
301 7 186 51 229 166 234 203 53 
302 7 76 91 136 303 253 174 34 
303 7 76 91 136 302 34 93 128 
304 7 35 84 295 119 81 252 26 
305 7 17 142 38 300 98 127 89 
306 6 182 249 62 13 257 327 
307 3 309 117 36 
308 7 124 317 179 85 12 49 169 
309 4 36 307 118 216 
310 5 312 217 96 230 74 
311 7 52 109 65 41 268 15 247 
312 6 231 310 74 112 328 285 
313 7 205 73 294 88 100 146 148 
314 7 260 97 168 330 70 54 316 
315 7 64 196 23 146 148 259 100 
316 7 330 170 70 294 28 25 168 
317 7 218 179 124 12 183 308 49 
318 7 60 243 134 201 72 281 326 
319 7 47 262 326 72 86 134 243 
320 6 190 165 63 96 161 140 
321 3 277 2 49 
322 5 117 61 307 287 59 
323 5 222 213 40 44 95 
324 7 194 187 254 43 298 206 107 
325 7 152 29 290 198 219 120 173 
326 7 72 134 319 60 243 47 318 
327 7 269 99 13 257 263 192 90 
328 6 285 81 50 312 304 231 
329 7 297 189 48 208 256 26 71 
330 7 316 170 25 168 70 28 294 
331 7 150 37 155 153 137 220 240 
332 7 51 263 99 202 53 186 301 
333 4 296 335 67 144 
334 7 15 255 52 282 109 281 311 
335 7 67 296 191 333 144 278 122 
336 7 177 276 33 17 142 38 98 
337 3 101 16 195 
DEPOT_SECTION
   1
   -1
EOF
