NAME :  X-n393-kX-w78-c7.cctp
COMMENT : 	Adapted by Maziero, Usberti and Cavellucci from the Uchoa, Pecin, Pessoa, Poggi, Subramanian, and Vidal (2013)
TYPE :  CCTP
DIMENSION :    269
EDGE_WEIGHT_TYPE : 	EUC_2D	
CAPACITY : 	78
VERTICES_WITHIN_COVERAGE :  7
VERTICES_WITH_DEMAND : 	78
NODE_COORD_SECTION
1 500 500
2 113 195
3 377 239
4 364 39
5 306 316
6 795 18
7 803 771
8 845 880
9 440 450
10 284 370
11 785 211
12 860 318
13 170 621
14 180 957
15 707 913
16 861 505
17 546 186
18 910 997
19 403 865
20 373 357
21 317 394
22 225 729
23 666 199
24 505 56
25 436 885
26 711 906
27 736 688
28 439 550
29 561 186
30 276 294
31 810 244
32 939 53
33 551 220
34 662 179
35 537 420
36 843 543
37 970 798
38 933 860
39 518 910
40 571 265
41 583 119
42 985 150
43 810 48
44 620 230
45 859 278
46 40 882
47 419 310
48 63 713
49 471 758
50 151 399
51 808 811
52 54 756
53 796 931
54 698 66
55 391 808
56 324 665
57 409 562
58 886 760
59 36 197
60 682 514
61 596 305
62 252 372
63 564 16
64 515 641
65 839 206
66 160 313
67 248 945
68 288 150
69 326 201
70 301 6
71 316 800
72 45 410
73 449 618
74 196 391
75 448 41
76 908 558
77 302 672
78 694 425
79 277 270
80 575 993
81 183 972
82 469 577
83 890 727
84 826 883
85 91 15
86 526 335
87 325 793
88 15 658
89 231 693
90 698 701
91 510 785
92 589 978
93 526 926
94 36 459
95 859 847
96 762 64
97 949 109
98 289 195
99 172 345
100 952 443
101 974 550
102 751 49
103 391 837
104 531 44
105 647 594
106 931 76
107 898 863
108 939 987
109 455 898
110 961 784
111 717 403
112 829 284
113 377 812
114 554 874
115 134 378
116 221 155
117 396 228
118 7 29
119 327 28
120 75 671
121 734 216
122 234 977
123 353 101
124 159 260
125 68 458
126 453 663
127 382 366
128 430 883
129 528 767
130 965 322
131 328 254
132 82 468
133 642 318
134 252 663
135 816 889
136 13 795
137 422 318
138 373 417
139 329 646
140 979 824
141 692 65
142 450 466
143 851 582
144 857 111
145 194 87
146 918 84
147 48 452
148 297 780
149 710 476
150 449 898
151 891 587
152 410 387
153 550 467
154 441 531
155 661 762
156 918 264
157 224 33
158 469 760
159 534 961
160 371 255
161 694 794
162 185 127
163 384 56
164 650 223
165 874 501
166 822 439
167 289 312
168 462 546
169 686 269
170 32 885
171 843 617
172 786 493
173 665 455
174 598 317
175 655 343
176 613 491
177 726 602
178 674 47
179 411 577
180 173 977
181 311 839
182 385 729
183 370 870
184 357 692
185 407 548
186 443 554
187 30 771
188 405 435
189 410 744
190 237 968
191 7 685
192 376 577
193 313 598
194 223 937
195 478 633
196 459 720
197 461 450
198 486 905
199 90 715
200 540 632
201 411 631
202 231 915
203 371 748
204 221 739
205 402 893
206 176 632
207 60 851
208 176 969
209 182 936
210 23 856
211 293 819
212 195 586
213 309 835
214 237 919
215 193 757
216 477 756
217 409 613
218 393 593
219 287 981
220 190 940
221 378 861
222 182 951
223 426 810
224 87 697
225 405 632
226 459 591
227 61 921
228 216 656
229 302 631
230 441 599
231 249 700
232 418 772
233 262 426
234 208 752
235 222 603
236 488 798
237 8 895
238 179 574
239 419 649
240 459 337
241 416 849
242 19 788
243 262 763
244 154 594
245 362 575
246 402 509
247 429 876
248 103 756
249 513 819
250 452 633
251 292 683
252 466 341
253 32 909
254 567 639
255 230 947
256 295 460
257 578 423
258 522 601
259 105 726
260 413 893
261 223 699
262 399 829
263 361 401
264 283 760
265 140 631
266 431 871
267 293 729
268 334 809
269 383 878
DEMAND_SECTION
2 5
3 5
4 7
5 9
6 7
7 8
8 5
9 7
10 8
11 7
12 9
13 9
14 10
15 6
16 7
17 9
18 8
19 7
20 6
21 9
22 5
23 5
24 10
25 6
26 6
27 9
28 6
29 6
30 7
31 9
32 6
33 6
34 9
35 5
36 7
37 5
38 8
39 8
40 6
41 5
42 9
43 7
44 10
45 9
46 7
47 10
48 9
49 7
50 9
51 9
52 8
53 8
54 9
55 5
56 8
57 8
58 6
59 9
60 10
61 9
62 10
63 7
64 7
65 7
66 10
67 9
68 8
69 6
70 5
71 5
72 6
73 8
74 5
75 7
76 6
77 9
78 9
79 6
COVERAGE_SECTION
2 7 59 124 162 116 66 145 99 
3 7 160 117 131 69 47 137 98 
4 7 163 119 123 70 75 68 157 
5 7 167 30 79 10 131 62 20 
6 7 43 102 96 54 144 141 178 
7 7 51 58 95 83 27 161 84 
8 7 84 135 95 107 53 51 38 
9 7 142 197 188 152 246 138 154 
10 7 62 21 5 167 233 30 263 
11 7 31 121 65 112 45 169 23 
12 7 45 112 156 31 130 65 166 
13 6 206 244 265 212 238 235 
14 6 222 208 81 220 180 209 
15 7 26 53 135 161 84 92 8 
16 7 165 36 76 172 166 143 151 
17 7 29 33 41 40 44 164 34 
18 7 108 53 8 107 38 84 135 
19 7 241 269 221 205 247 266 103 
20 7 127 263 152 138 137 47 21 
21 7 10 263 138 233 20 62 256 
22 6 204 234 261 89 231 215 
23 7 34 164 44 121 169 29 41 
24 7 104 75 63 41 163 17 4 
25 7 128 247 266 150 109 260 205 
26 7 15 53 135 161 84 8 51 
27 7 90 177 155 7 161 171 105 
28 7 186 154 168 57 185 179 82 
29 7 17 33 41 44 40 164 34 
30 7 167 79 5 131 10 62 98 
31 7 11 112 65 45 121 12 156 
32 7 106 146 97 144 42 43 6 
33 7 17 29 40 44 61 164 41 
34 7 23 164 44 121 169 41 29 
35 5 257 153 197 86 142 
36 7 143 16 165 151 76 171 172 
37 7 110 140 38 58 107 83 95 
38 7 107 140 37 95 110 8 84 
39 7 93 198 114 159 109 150 25 
40 7 61 33 174 44 29 17 86 
41 7 29 17 104 34 24 63 33 
42 7 97 106 146 32 156 144 65 
43 7 6 96 102 144 54 146 141 
44 7 164 23 40 34 33 29 169 
45 7 112 12 31 156 65 11 130 
46 6 170 253 210 237 207 227 
47 7 137 240 252 20 127 160 152 
48 5 199 224 52 120 259 
49 7 158 216 196 236 91 232 129 
50 6 115 74 99 66 132 125 
51 7 7 95 84 8 135 58 107 
52 7 187 48 242 248 199 136 259 
53 7 135 84 8 26 15 95 51 
54 7 141 178 102 96 6 43 34 
55 7 113 262 103 223 232 241 221 
56 7 139 77 251 229 184 193 267 
57 7 185 179 28 186 218 192 154 
58 7 83 110 7 95 37 51 107 
59 7 2 124 162 66 118 85 116 
60 6 149 173 176 105 78 177 
61 7 174 40 133 175 86 44 33 
62 7 10 233 74 21 167 5 30 
63 7 104 24 41 178 75 141 54 
64 6 200 195 258 254 250 126 
65 7 31 11 45 112 144 156 121 
66 7 99 124 115 50 74 62 30 
67 6 255 190 194 214 202 122 
68 7 98 69 116 123 162 131 145 
69 7 98 131 3 68 160 117 79 
70 7 119 4 157 163 123 145 68 
71 6 87 268 148 211 213 181 
72 6 147 94 125 132 115 50 
73 7 250 230 226 195 201 217 239 
74 7 50 99 62 115 233 66 10 
75 7 24 163 104 4 123 63 119 
76 7 151 143 101 165 36 16 171 
77 7 251 56 139 229 134 267 184 
78 7 111 173 149 60 175 176 172 
79 7 30 167 131 5 98 69 160 
80 7 92 159 93 39 114 198 109 
81 4 208 180 14 222 
82 6 226 168 186 230 28 73 
83 7 58 110 7 37 51 171 95 
84 7 135 8 95 53 51 107 38 
85 7 118 145 157 162 2 59 116 
86 7 252 240 174 61 40 35 257 
87 7 71 268 148 211 213 181 264 
88 3 191 120 48 
89 7 261 231 22 134 228 204 251 
90 6 27 155 161 177 105 7 
91 7 129 236 249 216 49 158 196 
92 7 80 159 93 39 114 198 15 
93 7 39 159 198 114 109 92 150 
94 4 147 125 132 72 
95 7 8 107 84 135 51 38 58 
96 7 102 43 6 54 141 178 144 
97 7 106 146 42 32 144 65 43 
98 7 69 68 131 79 116 3 30 
99 7 66 115 74 50 62 124 10 
100 7 165 101 16 130 76 166 36 
101 7 76 151 100 165 16 143 36 
102 7 96 6 54 43 141 178 144 
103 6 262 221 241 55 113 19 
104 7 24 63 75 41 17 178 29 
105 5 177 60 254 176 200 
106 7 146 32 97 144 42 43 6 
107 7 38 95 8 84 135 140 37 
108 7 18 38 107 8 53 84 135 
109 7 150 25 128 198 247 266 260 
110 7 37 140 58 38 83 107 95 
111 7 78 149 173 175 166 133 172 
112 7 45 31 12 65 11 156 121 
113 6 55 262 103 268 221 223 
114 7 39 93 249 198 159 91 236 
115 7 50 99 74 66 72 125 132 
116 7 162 68 145 98 2 69 124 
117 7 3 160 131 69 47 137 98 
118 7 85 59 145 2 162 157 116 
119 7 70 4 163 123 157 75 68 
120 2 224 48 
121 7 11 23 169 31 34 164 65 
122 5 190 255 67 194 81 
123 7 163 4 119 68 69 70 75 
124 7 66 2 99 79 115 30 116 
125 4 132 147 94 72 
126 6 250 239 195 73 201 196 
127 7 20 152 263 138 137 47 21 
128 7 25 247 266 260 150 109 205 
129 7 91 236 216 249 49 158 196 
130 7 156 12 45 100 112 65 42 
131 7 160 3 69 79 5 30 167 
132 4 125 147 94 72 
133 7 175 174 61 169 40 44 164 
134 7 89 228 231 251 261 77 229 
135 7 84 8 53 95 51 107 26 
136 6 242 187 52 210 207 46 
137 7 47 240 252 127 20 152 160 
138 6 263 188 152 127 20 21 
139 6 56 229 77 193 251 184 
140 7 37 110 38 107 58 95 83 
141 7 54 178 102 96 6 34 43 
142 7 9 197 188 246 154 168 28 
143 7 171 36 151 76 16 165 172 
144 7 146 43 106 97 65 32 96 
145 7 162 157 116 68 85 70 2 
146 7 106 32 97 144 42 43 6 
147 4 94 125 132 72 
148 7 264 71 87 211 243 268 267 
149 7 60 173 78 111 172 176 166 
150 7 109 25 128 247 266 260 198 
151 7 76 143 171 36 16 165 101 
152 7 127 20 138 188 263 9 137 
153 3 35 257 176 
154 7 28 186 168 185 57 246 82 
155 6 161 90 27 129 7 26 
156 7 45 130 12 112 65 31 42 
157 7 145 70 162 119 116 68 85 
158 7 49 216 196 236 91 232 129 
159 7 93 80 39 92 198 114 109 
160 7 3 117 131 69 47 137 5 
161 6 155 90 7 26 27 51 
162 7 145 116 2 157 68 98 124 
163 7 4 123 119 75 70 24 68 
164 7 23 44 34 169 121 40 133 
165 7 16 36 76 166 143 151 172 
166 7 172 16 165 36 111 149 12 
167 7 5 30 79 10 62 131 21 
168 6 186 28 154 82 226 57 
169 7 164 133 121 23 44 175 34 
170 6 46 253 237 210 207 227 
171 7 143 151 36 76 16 177 83 
172 7 166 16 36 149 165 60 143 
173 6 78 149 60 176 111 257 
174 7 61 133 40 175 86 44 169 
175 7 133 174 61 169 111 78 257 
176 4 173 153 60 257 
177 7 105 27 60 90 171 172 143 
178 7 141 54 102 96 63 41 6 
179 7 57 218 185 192 217 230 28 
180 3 208 81 14 
181 4 213 211 268 71 
182 6 203 189 184 232 196 55 
183 3 221 269 19 
184 7 56 182 139 203 77 251 189 
185 7 57 179 28 186 154 246 192 
186 7 28 168 154 57 82 185 179 
187 5 242 52 136 48 248 
188 6 138 9 152 142 263 197 
189 6 182 232 203 196 158 49 
190 5 122 255 67 194 214 
191 4 88 48 120 224 
192 6 245 218 179 57 185 217 
193 5 229 139 245 192 56 
194 4 255 202 214 67 
195 7 250 73 64 126 226 230 258 
196 6 49 216 158 189 126 232 
197 7 142 9 188 152 35 154 246 
198 7 39 109 150 93 25 128 247 
199 5 224 259 48 248 120 
200 5 64 254 258 195 250 
201 7 225 217 239 73 250 218 230 
202 4 214 194 255 67 
203 7 182 189 232 184 55 87 113 
204 6 22 234 215 261 89 231 
205 7 260 269 19 128 247 25 266 
206 6 13 265 244 228 212 235 
207 3 46 210 170 
208 4 81 180 14 222 
209 3 220 222 14 
210 7 170 46 207 237 253 136 242 
211 6 213 181 71 148 87 268 
212 5 238 235 244 13 206 
213 4 181 211 71 268 
214 4 202 194 67 255 
215 3 234 204 22 
216 7 49 158 196 236 91 129 232 
217 7 201 225 218 230 179 239 73 
218 7 192 179 217 57 245 225 201 
219 4 190 67 122 255 
220 4 209 222 14 208 
221 5 183 269 19 103 262 
222 6 14 220 209 208 81 180 
223 7 262 55 232 241 103 113 19 
224 4 199 48 120 259 
225 7 201 217 239 218 73 250 230 
226 6 82 230 73 186 250 168 
227 3 253 46 170 
228 7 134 89 261 206 235 231 13 
229 6 139 193 56 77 251 134 
230 7 226 73 217 82 250 179 201 
231 7 89 261 134 22 251 204 267 
232 7 189 223 55 158 203 182 49 
233 5 256 62 10 21 74 
234 3 215 204 22 
235 6 212 238 228 206 13 134 
236 7 91 249 158 49 216 129 223 
237 6 170 253 46 210 227 207 
238 4 212 244 13 235 
239 6 201 225 126 217 250 73 
240 7 252 137 47 86 152 127 20 
241 7 19 262 266 103 247 128 221 
242 6 136 187 52 210 207 48 
243 7 264 148 267 204 22 234 211 
244 5 13 238 265 212 206 
245 5 192 218 57 179 185 
246 6 185 154 57 28 186 142 
247 7 266 128 25 260 19 150 241 
248 3 259 199 52 
249 7 236 91 129 114 216 49 158 
250 7 73 195 126 230 239 201 226 
251 7 77 56 134 231 267 139 229 
252 7 240 137 47 86 152 127 20 
253 6 170 46 237 227 210 207 
254 5 200 64 258 195 105 
255 6 194 67 190 214 122 202 
256 2 233 21 
257 5 35 153 176 173 86 
258 5 200 64 195 82 254 
259 4 199 248 224 48 
260 7 205 128 247 25 266 19 269 
261 7 89 231 22 204 228 134 234 
262 7 103 55 241 113 223 19 221 
263 6 138 127 21 20 152 188 
264 7 243 148 267 71 87 211 204 
265 3 13 206 244 
266 7 247 128 25 241 260 19 150 
267 7 264 243 251 148 231 77 22 
268 6 87 71 213 181 211 113 
269 5 183 221 19 205 260 
DEPOT_SECTION
   1
   -1
EOF
