NAME :  X-n344-kX-w68-c11.cctp
COMMENT : 	Adapted by Maziero, Usberti and Cavellucci from the Uchoa, Pecin, Pessoa, Poggi, Subramanian, and Vidal (2013)
TYPE :  CCTP
DIMENSION :    257
EDGE_WEIGHT_TYPE : 	EUC_2D	
CAPACITY : 	61
VERTICES_WITHIN_COVERAGE :  11
VERTICES_WITH_DEMAND : 	68
NODE_COORD_SECTION
1 500 500
2 615 190
3 890 200
4 983 684
5 874 112
6 906 186
7 801 278
8 823 446
9 242 544
10 505 210
11 767 766
12 698 305
13 707 511
14 10 968
15 172 13
16 57 414
17 317 373
18 849 680
19 854 12
20 429 688
21 822 378
22 774 584
23 601 895
24 921 309
25 176 165
26 368 432
27 656 430
28 715 225
29 35 264
30 544 994
31 214 533
32 573 650
33 259 595
34 38 550
35 925 755
36 337 562
37 412 969
38 919 402
39 391 792
40 424 206
41 259 588
42 79 364
43 667 978
44 332 593
45 270 544
46 745 267
47 760 786
48 134 998
49 117 320
50 966 458
51 133 334
52 986 462
53 176 290
54 120 296
55 201 878
56 615 293
57 24 217
58 418 662
59 831 314
60 832 564
61 945 758
62 394 446
63 843 680
64 24 613
65 422 956
66 411 58
67 512 655
68 657 544
69 644 748
70 162 924
71 773 727
72 1 461
73 167 981
74 180 346
75 495 295
76 589 311
77 273 186
78 493 121
79 522 653
80 704 909
81 157 9
82 90 625
83 632 964
84 347 750
85 9 237
86 181 662
87 722 724
88 106 978
89 746 981
90 603 944
91 734 612
92 163 142
93 910 272
94 495 584
95 985 968
96 901 149
97 192 878
98 817 700
99 888 1
100 70 323
101 119 255
102 716 413
103 17 309
104 558 122
105 436 663
106 912 64
107 622 271
108 469 629
109 326 388
110 675 587
111 974 135
112 620 443
113 134 764
114 276 222
115 869 663
116 517 935
117 681 631
118 650 679
119 277 612
120 101 332
121 162 792
122 730 728
123 8 525
124 340 489
125 194 815
126 183 75
127 345 884
128 655 695
129 880 600
130 50 555
131 406 946
132 490 53
133 396 484
134 225 176
135 235 9
136 768 438
137 197 149
138 141 312
139 301 18
140 930 549
141 394 872
142 793 659
143 104 821
144 953 401
145 459 264
146 353 254
147 986 680
148 375 639
149 733 982
150 82 923
151 912 604
152 992 123
153 784 823
154 82 859
155 803 338
156 67 555
157 907 896
158 654 393
159 41 545
160 575 872
161 232 836
162 734 779
163 774 848
164 101 440
165 573 609
166 436 773
167 767 794
168 236 121
169 678 796
170 711 637
171 550 658
172 604 726
173 745 746
174 608 519
175 439 943
176 379 464
177 618 848
178 55 556
179 586 888
180 418 791
181 136 189
182 41 501
183 383 686
184 419 687
185 445 538
186 219 38
187 27 564
188 58 518
189 92 293
190 731 737
191 606 332
192 606 704
193 609 368
194 137 70
195 41 399
196 678 743
197 214 619
198 471 405
199 804 753
200 914 234
201 172 328
202 129 161
203 64 580
204 667 727
205 613 106
206 583 675
207 466 675
208 313 775
209 30 555
210 137 266
211 668 604
212 705 747
213 722 981
214 649 808
215 163 244
216 565 370
217 46 194
218 638 832
219 752 797
220 132 16
221 702 820
222 462 689
223 426 818
224 489 725
225 198 26
226 9 875
227 29 588
228 624 762
229 180 262
230 843 98
231 142 149
232 669 393
233 54 527
234 641 883
235 920 860
236 77 506
237 377 640
238 117 360
239 10 614
240 741 232
241 689 901
242 5 718
243 610 765
244 698 725
245 87 650
246 666 687
247 5 190
248 26 148
249 539 901
250 15 159
251 158 173
252 161 140
253 570 682
254 139 525
255 577 356
256 175 121
257 509 650
DEMAND_SECTION
2 7
3 10
4 7
5 8
6 9
7 8
8 5
9 7
10 7
11 5
12 10
13 8
14 6
15 7
16 7
17 5
18 9
19 10
20 10
21 7
22 5
23 9
24 10
25 10
26 8
27 5
28 9
29 7
30 6
31 8
32 5
33 8
34 7
35 6
36 6
37 10
38 10
39 9
40 6
41 8
42 9
43 9
44 7
45 10
46 5
47 10
48 6
49 5
50 7
51 9
52 10
53 7
54 10
55 5
56 10
57 8
58 9
59 5
60 8
61 10
62 6
63 8
64 5
65 7
66 5
67 5
68 10
69 5
COVERAGE_SECTION
2 8 107 205 104 56 28 10 76 240 
3 11 6 200 96 93 5 111 230 24 7 59 152 
4 11 147 61 35 151 115 129 18 63 140 98 235 
5 10 230 96 106 6 3 19 111 99 152 200 
6 11 3 96 200 5 111 93 152 230 106 24 7 
7 11 59 46 155 240 28 21 12 93 3 200 24 
8 11 136 21 38 155 102 60 59 13 144 50 22 
9 10 45 31 41 33 119 197 36 44 254 124 
10 10 145 40 75 78 104 2 76 107 56 205 
11 11 47 167 173 219 162 71 199 190 122 153 87 
12 11 46 28 107 56 240 232 191 158 7 76 102 
13 10 68 110 136 27 102 22 174 211 91 112 
14 11 150 226 88 48 154 70 73 143 97 55 121 
15 7 81 225 220 186 126 135 194 
16 11 195 164 42 72 238 182 100 120 236 188 51 
17 11 109 26 62 176 124 146 133 74 201 114 198 
18 11 63 115 98 142 129 199 71 151 35 60 11 
19 5 99 106 230 5 96 
20 11 184 105 58 222 207 183 224 108 237 148 166 
21 11 155 59 8 136 38 7 102 24 144 46 93 
22 11 91 60 142 170 13 110 117 129 211 63 18 
23 9 179 160 234 90 177 249 218 83 241 
24 11 93 200 59 38 144 3 21 155 6 7 50 
25 9 251 92 137 252 231 256 181 202 134 
26 10 62 176 133 109 124 17 198 185 36 45 
27 8 158 112 232 102 193 13 174 255 
28 10 240 46 12 7 107 2 56 155 59 76 
29 10 85 57 103 189 100 217 247 101 54 120 
30 10 116 90 83 249 23 179 175 43 160 65 
31 8 9 45 41 254 33 197 119 36 
32 10 171 206 253 165 79 67 192 257 118 172 
33 11 41 119 197 45 9 44 31 36 86 148 237 
34 11 159 209 130 178 187 233 156 188 123 227 203 
35 11 61 4 147 235 18 115 63 98 199 157 151 
36 11 44 45 124 119 41 33 148 237 9 133 176 
37 7 65 131 175 141 127 116 30 
38 11 144 50 52 24 21 8 59 93 155 140 136 
39 6 180 223 166 84 141 208 
40 11 145 10 146 78 75 66 114 77 104 132 2 
41 11 33 119 45 9 197 31 44 36 86 148 124 
42 11 238 120 100 195 16 49 51 189 54 164 138 
43 9 83 213 149 90 80 89 241 234 23 
44 11 36 119 148 237 33 41 45 9 124 183 58 
45 11 9 41 33 31 119 36 44 124 197 254 176 
46 11 240 28 7 12 155 59 107 56 21 232 102 
47 11 167 219 11 162 173 153 199 190 71 163 122 
48 11 88 73 70 150 14 97 55 154 226 143 161 
49 11 120 51 54 138 189 238 100 201 42 210 101 
50 11 52 144 38 140 8 24 151 21 129 60 93 
51 11 49 138 238 120 201 54 74 189 42 53 100 
52 11 50 144 38 140 151 8 24 129 21 60 93 
53 11 229 201 138 210 215 54 74 51 49 101 189 
54 11 49 138 189 210 51 101 120 53 100 201 238 
55 11 97 161 70 125 121 73 143 154 150 113 48 
56 11 107 76 191 255 193 12 216 2 158 232 75 
57 7 85 217 247 29 250 248 103 
58 11 105 184 20 183 237 148 207 222 108 257 67 
59 11 155 7 21 93 24 46 200 240 38 3 8 
60 11 129 22 151 140 142 115 91 18 63 8 13 
61 11 35 4 147 235 115 18 63 98 199 157 151 
62 9 176 26 133 124 198 109 185 17 36 
63 11 18 115 98 142 199 71 129 151 35 11 60 
64 11 239 227 187 203 209 130 34 178 82 159 156 
65 7 37 131 175 141 116 127 30 
66 6 132 78 139 40 104 10 
67 11 257 79 171 108 207 222 32 253 94 206 224 
68 5 110 174 13 211 117 
69 11 228 204 196 243 172 128 192 169 244 214 212 
70 11 97 73 55 88 48 150 154 161 125 143 121 
71 11 173 11 199 122 190 87 98 47 162 167 142 
72 11 182 123 16 195 188 233 236 159 34 209 164 
73 11 48 70 88 150 97 55 154 14 161 125 143 
74 11 201 51 138 53 238 49 54 120 229 210 42 
75 11 145 10 76 255 216 198 40 191 56 107 193 
76 11 191 56 255 107 193 216 75 158 12 232 2 
77 10 114 134 168 137 25 146 251 92 256 229 
78 7 104 132 10 66 40 205 2 
79 11 67 257 171 32 253 108 207 206 165 222 94 
80 6 241 234 213 43 149 89 
81 7 15 220 225 194 186 126 135 
82 10 245 203 64 227 156 178 130 239 187 34 
83 11 90 43 23 234 241 179 80 213 30 149 160 
84 11 208 39 183 180 166 184 20 223 58 148 237 
85 9 57 29 247 217 103 250 248 189 100 
86 10 197 245 82 33 41 119 113 121 9 31 
87 10 122 190 244 212 173 196 71 204 162 11 
88 11 48 150 73 70 14 154 97 55 226 143 125 
89 5 149 213 43 80 241 
90 11 83 23 179 43 234 30 160 249 116 241 177 
91 9 170 22 117 110 211 142 246 68 13 
92 8 252 231 256 25 251 137 202 181 
93 11 200 24 3 6 59 7 96 155 38 144 21 
94 6 108 257 185 67 79 165 
95 5 157 235 61 35 89 
96 11 6 5 3 111 230 106 200 152 93 19 99 
97 11 55 70 161 125 121 143 73 154 150 113 88 
98 11 63 18 142 71 199 115 11 173 122 190 87 
99 8 19 106 230 5 96 111 152 6 
100 11 120 189 42 49 103 54 238 51 29 138 195 
101 10 210 54 215 189 138 229 49 53 181 120 
102 11 232 136 27 158 13 112 12 8 21 155 193 
103 11 29 100 85 189 42 120 57 195 49 54 16 
104 5 205 78 2 132 10 
105 11 58 20 184 207 222 108 183 237 148 257 67 
106 10 5 99 230 19 96 111 152 6 3 200 
107 11 56 76 191 2 12 255 193 28 216 46 240 
108 11 257 207 105 67 94 79 222 58 20 184 171 
109 11 17 26 62 176 124 133 146 198 74 201 45 
110 9 211 117 68 170 91 13 118 174 22 
111 11 152 96 6 106 5 3 200 230 93 99 19 
112 5 27 158 232 193 174 
113 11 121 143 125 154 86 161 245 97 55 242 82 
114 11 77 134 146 229 137 168 25 215 53 251 92 
115 11 18 63 98 129 151 142 60 35 199 71 4 
116 7 249 30 175 179 90 160 23 
117 9 211 170 110 91 118 246 128 68 244 
118 9 128 246 192 204 117 172 244 206 69 
119 11 33 41 44 197 45 9 36 31 148 237 86 
120 11 49 51 100 238 42 189 54 138 201 210 101 
121 11 125 113 143 161 97 55 154 86 70 208 150 
122 10 87 190 173 212 244 71 162 11 196 204 
123 11 209 34 159 182 187 233 188 130 178 72 156 
124 11 176 133 26 62 36 45 109 44 9 185 17 
125 11 121 161 55 97 113 143 70 154 208 86 150 
126 8 194 256 225 186 15 252 92 168 
127 10 141 131 39 223 65 37 175 208 180 161 
128 9 246 118 204 192 244 196 69 172 117 
129 11 151 60 115 140 18 63 142 22 98 4 147 
130 11 178 34 159 156 209 187 233 203 188 227 123 
131 7 65 37 175 141 127 116 223 
132 4 78 66 104 205 
133 9 176 62 124 26 185 36 198 109 44 
134 11 137 77 25 168 251 114 92 252 256 231 181 
135 9 186 225 15 139 81 126 220 168 194 
136 11 8 102 21 13 155 232 27 158 59 60 22 
137 11 25 92 256 252 134 251 168 231 202 181 126 
138 11 51 49 54 201 53 120 210 74 189 238 101 
139 9 135 186 225 66 168 15 126 81 256 
140 11 151 129 50 60 52 115 147 4 38 8 144 
141 7 127 223 131 39 175 180 65 
142 11 98 63 18 71 91 115 22 170 122 199 87 
143 11 154 113 121 125 150 97 226 55 70 161 242 
144 11 38 50 52 24 21 93 8 59 140 155 200 
145 11 75 40 10 146 76 198 78 216 255 56 191 
146 11 114 40 77 145 17 109 75 134 10 229 168 
147 11 4 61 35 151 115 129 18 140 63 98 235 
148 11 237 183 58 44 184 105 20 36 108 207 222 
149 6 213 89 43 80 241 83 
150 11 88 154 70 14 226 48 73 143 97 55 121 
151 11 129 140 115 60 18 63 147 4 142 98 22 
152 11 111 96 106 6 5 3 200 230 99 93 19 
153 9 163 167 219 47 11 162 199 221 173 
154 11 143 150 226 70 121 113 97 125 55 88 14 
155 11 59 21 7 46 136 8 12 102 24 240 93 
156 9 178 130 203 159 34 233 209 188 187 
157 6 235 95 163 35 61 153 
158 11 232 27 193 112 102 191 255 216 12 76 56 
159 11 34 130 209 178 233 187 156 188 123 203 182 
160 7 179 23 249 177 234 218 90 
161 11 125 55 97 121 208 70 113 127 143 84 154 
162 11 219 47 11 173 167 190 212 122 221 87 169 
163 6 153 167 219 47 221 162 
164 9 16 236 195 42 238 182 188 254 233 
165 8 32 171 79 206 253 67 257 94 
166 5 180 223 39 224 20 
167 11 47 219 11 153 162 173 163 199 71 190 221 
168 9 137 134 256 126 25 77 92 252 186 
169 8 214 221 196 218 212 69 162 228 
170 9 117 91 211 110 246 118 128 22 142 
171 11 32 79 253 206 67 257 165 192 108 207 172 
172 9 192 243 228 69 206 253 128 204 118 
173 11 190 122 11 87 71 162 212 47 219 244 167 
174 2 68 112 
175 6 65 131 37 116 141 249 
176 10 62 133 26 124 109 185 36 198 17 45 
177 7 218 234 160 23 179 214 169 
178 11 130 156 34 159 209 203 187 233 188 227 236 
179 8 23 160 249 177 234 90 218 116 
180 5 166 39 223 84 141 
181 6 251 202 231 25 92 252 
182 10 188 233 236 123 159 34 130 209 72 178 
183 11 184 58 20 237 148 105 84 222 207 166 108 
184 11 20 58 105 183 222 207 237 148 108 224 166 
185 7 94 133 108 176 62 36 124 
186 8 225 135 126 15 81 139 168 194 
187 11 209 34 159 227 130 178 203 156 123 233 64 
188 9 233 236 182 159 34 130 156 178 209 
189 11 54 49 100 120 101 210 138 51 29 42 238 
190 11 122 87 173 212 244 162 71 11 196 47 219 
191 11 76 193 255 56 216 107 158 232 12 27 112 
192 10 172 206 253 128 118 69 228 243 246 32 
193 11 255 191 216 158 76 232 56 112 27 107 12 
194 5 126 220 81 256 15 
195 11 16 42 164 72 100 238 120 103 182 49 51 
196 11 204 212 244 69 87 128 169 190 122 228 246 
197 10 33 86 41 119 9 31 45 254 44 82 
198 7 62 216 26 133 176 75 255 
199 11 11 71 47 98 167 173 219 153 162 190 122 
200 11 93 3 6 24 96 59 111 7 5 152 155 
201 11 74 138 53 51 49 54 238 229 120 210 215 
202 6 231 181 251 252 92 25 
203 11 156 178 130 227 34 187 159 209 64 82 233 
204 10 196 69 244 128 246 212 118 87 228 122 
205 2 104 2 
206 10 253 32 171 192 172 79 118 165 67 128 
207 11 222 105 20 108 184 58 67 257 224 79 183 
208 11 84 39 161 180 183 127 223 166 125 141 184 
209 11 34 187 159 130 178 227 123 156 233 203 188 
210 11 101 54 215 229 53 138 189 49 51 201 120 
211 9 110 117 170 68 91 118 246 128 165 
212 11 244 196 190 87 122 173 162 204 169 69 11 
213 6 149 89 43 80 241 83 
214 8 218 169 177 228 221 243 69 196 
215 10 229 210 101 53 181 54 138 251 25 201 
216 9 255 193 191 76 112 56 158 198 75 
217 6 57 247 250 248 85 29 
218 8 177 214 234 169 221 228 23 243 
219 10 47 167 162 11 153 173 221 163 190 199 
220 5 81 15 194 225 126 
221 6 169 162 214 219 218 47 
222 10 207 20 105 184 224 58 67 108 257 79 
223 4 180 39 166 141 
224 7 222 207 20 166 67 257 79 
225 8 186 15 135 81 126 220 194 256 
226 11 154 150 14 143 88 242 70 113 121 48 97 
227 11 187 64 239 209 203 34 130 178 159 156 123 
228 9 243 69 172 214 204 196 192 169 218 
229 11 215 53 210 101 138 201 54 74 181 49 51 
230 8 5 96 106 19 99 6 3 111 
231 7 202 252 92 251 25 181 256 
232 11 158 27 102 193 112 191 12 255 216 136 56 
233 10 188 159 34 130 178 182 156 236 209 123 
234 7 23 177 218 241 179 160 80 
235 6 157 35 61 95 153 163 
236 9 188 233 182 156 159 178 130 34 254 
237 11 148 183 58 105 184 44 20 36 108 207 222 
238 11 51 120 42 49 138 100 54 201 74 189 16 
239 11 64 227 187 209 203 34 130 178 159 82 156 
240 10 28 46 7 12 59 155 107 2 56 3 
241 6 80 234 43 221 83 218 
242 11 239 64 245 82 227 113 143 203 187 226 154 
243 8 228 69 172 214 192 204 196 218 
244 10 212 87 196 204 122 190 246 173 128 69 
245 10 82 64 203 227 239 86 156 178 130 187 
246 9 128 118 204 244 196 117 192 69 87 
247 6 57 250 217 85 248 29 
248 4 250 247 217 57 
249 5 116 160 179 23 90 
250 5 248 247 217 57 85 
251 8 25 181 231 92 202 252 137 256 
252 8 92 231 256 25 251 137 202 181 
253 10 206 171 32 192 79 172 67 257 165 118 
254 8 236 31 156 188 233 178 164 203 
255 10 216 193 191 76 56 158 107 112 232 75 
256 8 92 252 137 231 25 126 251 168 
257 11 67 79 171 108 207 222 32 94 253 105 165 
DEPOT_SECTION
   1
   -1
EOF
