NAME :  X-n429-kX-w42-c11.cctp
COMMENT : 	Adapted by Maziero, Usberti and Cavellucci from the Uchoa, Pecin, Pessoa, Poggi, Subramanian, and Vidal (2013)
TYPE :  CCTP
DIMENSION :    314
EDGE_WEIGHT_TYPE : 	EUC_2D	
CAPACITY : 	536
VERTICES_WITHIN_COVERAGE :  11
VERTICES_WITH_DEMAND : 	42
NODE_COORD_SECTION
1 238 446
2 749 750
3 960 879
4 914 116
5 517 477
6 554 143
7 850 488
8 739 177
9 229 160
10 539 573
11 901 821
12 787 399
13 974 203
14 89 387
15 561 27
16 103 139
17 174 826
18 40 578
19 359 23
20 440 649
21 588 265
22 182 275
23 401 993
24 751 564
25 797 274
26 756 252
27 871 882
28 693 417
29 710 620
30 960 422
31 530 904
32 124 126
33 67 587
34 440 336
35 219 38
36 609 504
37 936 474
38 800 689
39 358 530
40 914 753
41 210 96
42 95 816
43 441 389
44 506 963
45 114 285
46 545 892
47 59 618
48 698 385
49 977 931
50 951 91
51 439 290
52 756 147
53 252 284
54 588 168
55 895 501
56 759 442
57 967 855
58 888 148
59 442 18
60 847 877
61 683 267
62 446 301
63 997 815
64 613 331
65 811 156
66 704 494
67 265 216
68 511 373
69 981 261
70 723 558
71 839 828
72 803 737
73 589 252
74 277 82
75 904 681
76 474 908
77 609 185
78 346 382
79 158 866
80 572 161
81 704 828
82 142 331
83 672 178
84 827 566
85 728 793
86 888 917
87 718 636
88 792 283
89 866 141
90 682 640
91 299 23
92 358 22
93 27 552
94 220 76
95 128 795
96 167 789
97 827 698
98 68 190
99 561 928
100 719 595
101 152 111
102 780 824
103 486 302
104 877 775
105 62 854
106 848 204
107 581 299
108 37 832
109 778 453
110 448 488
111 194 65
112 939 983
113 354 914
114 719 709
115 845 806
116 753 610
117 384 707
118 741 825
119 457 590
120 35 357
121 518 607
122 249 16
123 724 269
124 567 58
125 865 296
126 813 784
127 426 19
128 116 881
129 961 860
130 388 315
131 433 70
132 116 292
133 264 540
134 76 564
135 247 445
136 42 866
137 988 538
138 77 75
139 419 541
140 46 609
141 624 658
142 761 523
143 954 696
144 807 151
145 22 882
146 682 723
147 163 587
148 467 531
149 8 378
150 469 286
151 502 45
152 104 123
153 638 65
154 806 705
155 87 388
156 70 459
157 736 661
158 108 285
159 635 631
160 808 238
161 494 268
162 761 524
163 843 3
164 84 342
165 509 878
166 98 641
167 835 478
168 814 202
169 33 673
170 729 323
171 193 813
172 702 480
173 748 318
174 925 844
175 814 904
176 59 627
177 773 483
178 845 468
179 904 365
180 613 161
181 79 325
182 532 267
183 382 505
184 603 595
185 700 327
186 58 709
187 166 753
188 554 159
189 251 439
190 925 3
191 97 16
192 97 24
193 667 660
194 355 936
195 852 837
196 381 911
197 554 116
198 387 383
199 908 985
200 728 93
201 85 31
202 861 58
203 348 13
204 850 535
205 393 995
206 433 581
207 184 919
208 680 498
209 115 593
210 466 983
211 477 550
212 406 531
213 596 274
214 550 949
215 354 963
216 856 708
217 493 303
218 557 353
219 183 731
220 910 91
221 833 437
222 72 12
223 94 829
224 619 456
225 516 212
226 655 419
227 789 881
228 439 945
229 523 905
230 13 539
231 827 661
232 788 713
233 455 357
234 200 213
235 982 944
236 199 197
237 859 498
238 855 650
239 605 903
240 791 757
241 291 577
242 490 126
243 25 95
244 20 522
245 121 204
246 755 392
247 549 56
248 110 305
249 84 184
250 953 127
251 108 836
252 76 779
253 45 791
254 791 266
255 854 741
256 66 316
257 162 83
258 110 342
259 987 835
260 339 605
261 508 883
262 946 885
263 986 694
264 660 678
265 309 48
266 873 461
267 949 410
268 890 388
269 104 508
270 778 937
271 704 356
272 469 110
273 687 142
274 158 154
275 471 294
276 439 348
277 25 467
278 730 134
279 698 366
280 219 270
281 728 209
282 137 420
283 814 593
284 60 763
285 226 7
286 613 135
287 989 857
288 904 996
289 828 569
290 951 678
291 819 618
292 991 254
293 253 75
294 840 877
295 260 38
296 620 219
297 417 647
298 938 810
299 898 705
300 507 121
301 154 615
302 993 267
303 817 539
304 527 863
305 555 502
306 439 480
307 237 9
308 79 432
309 636 429
310 454 640
311 734 311
312 946 827
313 473 856
314 523 585
DEMAND_SECTION
2 55
3 64
4 100
5 66
6 68
7 95
8 67
9 100
10 75
11 65
12 98
13 100
14 66
15 82
16 84
17 89
18 62
19 64
20 87
21 94
22 75
23 53
24 99
25 85
26 87
27 83
28 82
29 78
30 84
31 67
32 61
33 56
34 63
35 98
36 79
37 95
38 92
39 51
40 66
41 50
42 82
43 66
COVERAGE_SECTION
2 11 240 85 114 232 72 126 146 154 118 38 102 
3 11 262 129 57 287 174 259 312 49 235 298 63 
4 7 220 58 250 50 89 202 13 
5 9 305 110 148 306 211 36 10 68 224 
6 11 188 80 197 54 300 286 180 242 77 225 124 
7 11 237 167 178 266 55 204 221 303 177 109 84 
8 10 52 281 278 273 83 144 65 26 168 200 
9 9 236 234 41 67 274 94 293 101 74 
10 9 314 121 211 184 305 148 119 5 36 
11 11 174 298 312 104 195 115 71 27 40 129 57 
12 11 246 56 109 221 177 48 173 178 167 271 279 
13 11 292 69 302 250 58 4 50 89 106 220 125 
14 11 155 164 308 258 282 120 181 156 256 82 149 
15 10 247 124 151 153 197 300 6 59 286 242 
16 11 152 32 249 101 274 98 245 138 257 243 201 
17 10 171 96 79 95 251 187 42 128 223 207 
18 11 33 93 140 134 47 230 176 244 209 166 169 
19 10 92 203 265 91 127 59 131 295 74 122 
20 10 310 297 119 206 117 121 314 211 139 260 
21 11 213 73 107 182 296 64 77 225 218 161 61 
22 11 280 234 132 45 82 53 158 248 236 245 258 
23 9 205 215 228 210 194 196 113 44 76 
24 11 70 162 142 100 116 29 283 303 84 289 87 
25 11 88 254 160 26 173 125 123 311 168 170 106 
26 11 123 254 25 88 281 160 311 173 61 170 8 
27 11 60 294 86 195 175 71 174 11 262 115 227 
28 11 48 226 279 309 271 172 246 56 66 208 224 
29 11 87 100 90 116 157 193 70 24 159 264 114 
30 11 267 37 268 179 266 55 137 178 237 7 221 
31 11 229 46 261 165 99 304 214 76 44 239 313 
32 11 152 16 101 274 257 138 249 245 98 41 111 
33 11 134 18 140 47 176 209 93 166 230 244 269 
34 11 276 233 62 51 275 43 130 103 150 217 198 
35 11 285 307 111 122 94 295 293 41 74 257 91 
36 11 224 305 208 309 184 5 66 172 226 10 314 
37 11 55 30 266 267 237 137 7 178 268 167 204 
38 11 154 232 97 231 72 216 238 240 157 291 255 
39 9 183 212 139 260 241 206 133 306 110 
40 11 104 299 255 298 11 143 75 216 312 290 115 
41 11 94 111 293 257 35 101 9 74 295 274 122 
42 11 223 251 95 252 105 253 108 284 128 136 96 
43 11 233 276 34 198 68 62 130 306 78 103 51 
44 11 210 214 229 31 76 99 228 261 46 165 304 
45 10 158 132 248 181 82 256 258 164 22 245 
46 10 31 229 304 261 99 165 214 239 76 313 
47 10 176 140 33 18 166 134 169 209 93 186 
48 11 279 271 28 226 246 185 170 309 311 56 173 
49 11 235 3 262 112 129 287 57 199 86 259 288 
50 9 250 220 4 58 190 202 89 13 163 
51 10 62 150 275 34 103 217 130 276 161 233 
52 7 278 8 144 65 200 281 273 
53 7 280 67 22 234 236 82 9 
54 11 80 180 77 188 286 6 296 197 73 225 83 
55 11 237 266 7 37 204 178 167 303 221 84 289 
56 11 109 177 246 12 172 28 221 66 142 162 48 
57 11 129 287 3 259 312 262 174 63 298 11 49 
58 8 89 4 220 250 106 65 144 50 
59 11 127 131 151 19 92 203 272 247 242 15 300 
60 11 294 27 195 175 71 86 227 115 11 102 174 
61 11 123 185 311 170 281 26 296 173 213 83 271 
62 10 51 275 150 34 103 217 276 233 161 130 
63 11 259 287 57 312 129 298 3 174 262 11 40 
64 10 107 213 218 21 73 185 279 271 61 226 
65 6 144 168 52 89 106 8 
66 11 172 208 142 162 70 177 56 28 24 109 226 
67 5 234 9 53 236 280 
68 10 218 233 43 217 103 276 34 275 62 150 
69 11 292 302 13 125 179 250 106 58 267 268 4 
70 11 24 100 162 142 116 29 66 208 87 172 177 
71 11 195 115 294 60 126 102 11 27 104 227 175 
72 11 240 232 154 97 38 126 255 2 216 231 115 
73 11 21 213 296 107 182 77 64 225 54 80 180 
74 10 293 265 295 94 91 41 122 35 307 111 
75 9 299 290 143 216 238 40 255 97 231 
76 10 261 165 229 228 313 31 44 304 46 210 
77 11 180 54 296 80 286 188 83 6 73 21 197 
78 10 198 130 43 276 34 189 233 135 183 62 
79 9 17 128 251 207 171 223 95 96 42 
80 11 54 188 6 180 77 197 286 296 225 300 242 
81 5 118 85 102 2 227 
82 11 258 248 132 45 158 164 181 22 14 256 155 
83 11 273 180 77 281 296 8 278 286 54 52 61 
84 9 289 303 283 204 291 237 24 162 142 
85 9 118 81 2 102 240 114 146 126 72 
86 11 27 60 294 262 199 175 3 288 174 112 195 
87 11 29 157 90 100 116 193 264 114 70 24 159 
88 11 25 254 26 160 173 311 123 125 170 168 106 
89 6 58 4 65 144 106 220 
90 10 193 29 87 264 159 100 157 141 116 114 
91 11 265 295 122 203 92 19 74 307 293 285 35 
92 10 19 203 265 91 127 59 131 295 74 122 
93 11 230 18 244 134 33 140 47 176 277 269 209 
94 11 41 111 293 35 295 74 257 122 285 307 101 
95 11 42 96 251 223 252 17 187 171 284 79 253 
96 10 171 187 17 95 219 251 42 79 223 252 
97 11 154 38 216 231 232 72 255 238 240 299 75 
98 8 249 245 16 152 32 274 158 243 
99 9 214 31 46 229 239 44 261 165 304 
100 11 29 70 116 87 24 90 157 162 142 193 159 
101 11 257 32 274 152 16 41 111 94 138 9 236 
102 10 118 126 227 71 85 115 240 195 81 2 
103 11 217 275 150 161 62 51 34 182 233 276 68 
104 11 255 40 115 11 71 126 195 216 298 299 72 
105 10 136 108 223 145 251 42 128 253 252 95 
106 8 168 160 65 89 144 58 254 25 
107 10 213 21 64 73 182 218 217 296 161 103 
108 10 105 136 253 145 223 42 252 251 284 128 
109 11 56 177 12 221 167 246 178 142 162 7 172 
110 8 306 148 139 212 183 211 5 206 
111 11 94 41 35 257 293 101 285 295 307 122 74 
112 11 199 288 235 49 86 262 3 27 129 57 287 
113 6 194 196 215 205 228 23 
114 10 146 2 157 264 232 193 87 90 38 85 
115 11 71 195 126 104 11 255 102 60 294 240 27 
116 11 100 29 87 24 157 70 283 291 90 289 84 
117 3 297 20 310 
118 7 85 81 102 227 2 126 240 
119 8 206 211 310 148 20 139 121 314 
120 10 149 164 256 181 155 14 258 308 248 158 
121 9 314 10 119 211 310 184 20 206 148 
122 11 307 285 295 35 91 293 94 265 74 111 41 
123 11 26 61 311 170 173 281 185 254 88 25 271 
124 10 247 15 197 151 153 6 300 286 188 80 
125 10 25 88 179 254 160 106 268 168 26 173 
126 11 240 115 72 71 102 255 104 195 2 232 154 
127 11 59 131 19 92 203 151 272 265 242 91 247 
128 7 79 251 223 105 42 136 207 
129 11 57 3 287 262 259 312 174 298 63 11 49 
130 10 34 51 62 276 198 78 233 150 275 43 
131 9 127 59 272 151 242 19 92 300 203 
132 10 45 158 248 82 181 258 256 164 22 245 
133 5 241 39 135 260 189 
134 11 33 18 209 93 140 47 269 176 230 244 166 
135 6 189 133 282 78 241 39 
136 9 105 145 108 223 251 42 253 128 252 
137 8 37 55 30 267 237 204 266 290 
138 11 201 152 192 243 191 222 16 32 101 257 249 
139 8 212 206 148 183 211 110 39 119 
140 11 47 176 33 18 134 93 166 169 209 230 244 
141 8 159 264 193 90 184 146 29 87 
142 11 162 24 177 70 303 66 109 172 84 56 289 
143 9 290 263 75 299 40 216 238 104 255 
144 6 65 52 168 89 106 8 
145 8 136 105 108 223 128 253 42 251 
146 8 114 264 193 2 157 90 85 141 
147 5 301 209 166 134 33 
148 8 211 110 139 306 119 206 212 5 
149 10 120 155 14 164 256 181 308 277 156 258 
150 10 275 103 62 217 51 161 34 182 276 233 
151 11 247 15 59 124 131 272 300 127 242 197 6 
152 11 16 32 101 138 274 249 257 98 245 243 201 
153 8 124 286 15 247 273 200 197 180 
154 11 38 232 97 72 231 216 240 255 2 238 126 
155 11 14 308 164 258 282 120 181 156 256 82 149 
156 9 308 277 269 155 14 282 244 230 93 
157 11 87 29 114 116 90 100 193 38 232 264 146 
158 9 45 132 248 181 256 82 258 164 22 
159 9 141 193 90 184 264 29 87 100 146 
160 9 254 168 25 88 106 26 125 65 281 
161 9 150 103 217 275 182 62 51 225 34 
162 11 142 24 177 70 303 66 109 172 84 289 56 
163 4 202 190 220 4 
164 10 181 258 256 14 248 155 120 82 132 158 
165 9 261 304 229 31 46 313 76 99 214 
166 10 176 47 209 140 33 301 169 186 134 147 
167 11 178 7 237 221 266 204 109 177 55 303 56 
168 7 106 160 65 144 254 25 26 
169 10 186 176 47 140 166 33 284 18 252 209 
170 11 311 173 185 271 279 123 48 61 246 88 26 
171 8 17 96 79 187 95 219 251 42 
172 11 66 208 28 56 177 142 162 226 70 109 309 
173 11 311 170 185 123 88 271 25 26 254 279 246 
174 11 312 11 298 129 57 262 3 259 287 27 195 
175 7 227 294 60 270 27 86 195 
176 10 47 140 33 166 18 169 134 209 93 186 
177 11 109 142 56 162 167 66 172 303 178 221 7 
178 11 167 7 266 221 237 55 204 109 177 303 12 
179 11 268 267 125 30 221 266 37 178 12 69 167 
180 10 77 54 286 80 296 188 83 6 197 273 
181 10 256 164 258 248 158 132 45 120 14 82 
182 10 161 217 21 225 103 73 107 213 150 275 
183 8 39 212 139 306 110 148 206 211 
184 10 159 141 10 314 121 36 90 193 264 305 
185 11 170 271 311 279 173 48 61 123 246 64 28 
186 10 169 284 252 166 176 253 47 140 95 42 
187 7 219 96 95 171 17 252 42 
188 11 6 80 54 197 180 300 77 286 225 242 296 
189 6 135 133 78 282 39 241 
190 8 163 202 220 50 4 250 58 89 
191 11 192 201 222 138 257 152 243 111 101 32 16 
192 11 191 201 222 138 257 152 243 101 111 32 16 
193 10 264 90 141 159 87 29 146 157 114 100 
194 6 113 215 196 205 23 228 
195 11 71 115 60 294 27 11 126 104 102 174 175 
196 7 113 194 215 228 23 205 76 
197 11 6 188 300 80 124 247 54 286 242 180 272 
198 10 78 43 276 130 34 233 62 51 306 110 
199 10 288 112 86 235 49 262 27 3 60 175 
200 4 278 52 273 8 
201 11 192 191 222 138 243 257 152 32 101 16 111 
202 6 163 220 4 89 190 58 
203 11 92 19 91 265 127 295 59 74 122 131 307 
204 10 303 237 84 289 7 55 167 178 283 266 
205 9 23 215 228 194 210 196 113 44 76 
206 8 119 139 211 212 148 310 20 297 
207 3 79 128 17 
208 11 66 172 36 70 224 28 309 226 142 162 177 
209 11 301 33 147 134 166 47 176 140 18 269 93 
210 11 44 228 23 205 76 214 229 31 261 99 196 
211 8 148 119 206 314 139 10 110 121 
212 8 139 183 39 206 110 148 306 211 
213 11 21 73 107 64 296 182 61 218 77 225 161 
214 10 99 44 31 229 46 239 261 165 76 304 
215 6 194 113 205 23 196 228 
216 11 97 255 299 154 75 231 238 38 72 232 104 
217 11 103 275 150 161 62 182 51 34 233 276 68 
218 10 68 107 64 217 103 213 182 21 233 275 
219 5 187 96 171 95 17 
220 8 4 50 250 202 58 89 190 163 
221 11 178 167 266 7 109 12 237 56 268 177 55 
222 11 201 191 192 138 243 257 152 32 101 16 111 
223 11 42 251 105 95 252 128 108 253 136 79 284 
224 10 309 36 226 208 305 28 172 66 5 48 
225 8 182 161 188 80 6 73 54 150 
226 11 309 28 224 48 279 172 271 208 66 36 64 
227 9 175 294 270 60 102 71 118 195 27 
228 11 210 76 23 196 205 44 194 215 113 229 261 
229 11 31 46 261 165 304 99 76 214 44 313 239 
230 11 244 93 18 134 33 277 140 47 269 156 176 
231 10 238 97 38 291 154 216 232 283 72 75 
232 11 154 38 72 97 240 2 231 216 114 255 157 
233 11 276 34 43 62 68 103 275 217 51 150 198 
234 10 236 9 280 22 67 274 245 53 45 101 
235 11 49 112 3 262 199 129 287 57 288 86 259 
236 11 234 9 274 67 280 245 22 101 41 53 32 
237 11 7 167 178 55 204 266 303 221 84 289 37 
238 9 231 291 97 75 216 38 283 299 154 
239 5 99 46 214 31 229 
240 11 72 126 2 232 154 255 102 38 97 85 115 
241 4 133 260 39 183 
242 9 300 272 197 6 188 131 151 80 225 
243 11 138 152 201 16 222 192 32 98 191 249 101 
244 9 230 93 277 18 134 33 156 269 140 
245 10 249 98 274 16 32 236 234 45 158 152 
246 11 12 56 48 271 279 109 28 170 173 311 185 
247 10 124 15 151 197 300 6 153 242 272 286 
248 10 132 45 158 181 258 82 164 256 22 14 
249 10 98 245 16 152 32 274 101 158 45 243 
250 10 50 4 220 58 13 89 202 190 106 292 
251 11 223 42 95 128 105 79 252 17 108 136 96 
252 10 284 253 42 223 95 251 108 186 105 96 
253 11 284 252 108 42 223 105 136 251 95 186 145 
254 10 25 88 160 26 123 173 168 311 125 106 
255 11 216 104 72 97 299 126 154 40 240 115 232 
256 10 181 164 248 120 258 158 132 45 14 155 
257 11 101 111 41 32 94 152 274 35 16 138 192 
258 11 164 82 181 248 14 132 155 256 45 158 120 
259 11 63 287 57 129 312 3 298 174 262 11 49 
260 7 241 39 297 206 133 212 139 
261 9 165 229 304 31 46 76 313 99 214 
262 11 3 129 57 174 287 49 312 259 86 235 27 
263 9 143 290 75 299 40 63 298 216 104 
264 9 193 141 90 146 159 114 87 29 157 
265 11 91 74 295 203 92 19 293 122 307 35 94 
266 11 178 7 237 167 55 221 37 268 204 267 30 
267 11 30 268 179 37 266 55 178 221 7 237 167 
268 11 179 267 221 266 30 178 125 37 12 167 7 
269 6 156 134 308 244 209 33 
270 5 175 227 294 60 27 
271 11 279 185 48 170 311 173 28 246 226 123 61 
272 7 242 300 131 151 197 6 59 
273 8 83 278 8 200 52 286 180 281 
274 11 101 32 16 236 152 245 9 257 234 41 249 
275 10 150 103 217 62 51 161 34 276 233 182 
276 11 34 233 43 62 51 130 198 275 103 150 217 
277 9 156 244 308 230 93 269 149 155 14 
278 5 52 200 8 273 83 
279 11 271 48 185 28 170 246 311 226 173 309 64 
280 9 53 22 234 67 236 82 132 45 9 
281 11 8 26 123 83 52 61 278 273 160 254 168 
282 6 14 155 308 156 258 82 
283 9 291 289 84 303 116 204 24 231 238 
284 10 252 253 186 42 108 223 95 251 105 169 
285 11 307 122 35 295 111 94 293 91 41 74 265 
286 10 180 54 80 77 6 197 188 83 153 273 
287 11 57 259 129 3 63 262 312 174 298 49 235 
288 10 199 112 86 235 49 27 262 175 3 60 
289 9 84 283 303 204 291 24 237 142 162 
290 7 143 263 75 299 40 216 238 
291 9 283 231 238 289 84 116 38 303 97 
292 11 69 302 13 125 250 179 58 106 4 267 50 
293 11 74 94 295 41 35 122 111 265 307 91 285 
294 11 60 27 175 195 71 227 86 115 102 11 270 
295 11 122 307 293 35 91 285 74 265 94 111 41 
296 11 77 73 21 180 54 213 83 80 61 286 107 
297 8 20 310 117 206 119 260 139 121 
298 11 312 174 11 57 129 259 63 40 287 104 3 
299 11 75 216 40 143 255 290 238 97 104 231 263 
300 9 242 272 197 6 188 80 151 247 124 
301 7 147 209 166 33 134 47 176 
302 11 69 292 13 125 179 250 267 30 106 58 268 
303 11 84 289 204 283 142 162 237 7 167 24 177 
304 8 165 261 46 31 229 313 76 99 
305 9 5 36 10 224 314 211 148 184 110 
306 8 110 148 212 183 139 5 211 43 
307 11 285 122 35 295 91 293 94 111 265 74 41 
308 9 156 155 14 282 277 269 120 149 164 
309 10 226 224 28 48 36 208 172 279 66 271 
310 9 20 297 119 206 121 314 211 117 139 
311 11 170 173 185 123 271 26 88 279 61 25 254 
312 11 298 174 57 129 259 11 63 287 3 262 40 
313 6 165 261 76 304 229 31 
314 9 10 121 211 119 148 184 310 305 206 
DEPOT_SECTION
   1
   -1
EOF
