NAME :  X-n439-kX-w43-c11.cctp
COMMENT : 	Adapted by Maziero, Usberti and Cavellucci from the Uchoa, Pecin, Pessoa, Poggi, Subramanian, and Vidal (2013)
TYPE :  CCTP
DIMENSION :    281
EDGE_WEIGHT_TYPE : 	EUC_2D	
CAPACITY : 	12
VERTICES_WITHIN_COVERAGE :  11
VERTICES_WITH_DEMAND : 	43
NODE_COORD_SECTION
1 500 500
2 769 259
3 91 377
4 108 338
5 816 567
6 698 341
7 741 237
8 601 140
9 63 359
10 215 608
11 979 914
12 911 697
13 440 593
14 922 765
15 185 756
16 486 158
17 993 628
18 241 33
19 200 756
20 856 440
21 471 712
22 929 649
23 811 44
24 125 727
25 830 484
26 568 366
27 261 394
28 478 965
29 726 474
30 68 952
31 747 716
32 678 366
33 17 603
34 169 689
35 916 565
36 564 913
37 268 681
38 937 878
39 370 634
40 555 847
41 246 911
42 267 333
43 166 257
44 147 179
45 382 886
46 312 911
47 457 582
48 334 882
49 269 710
50 513 910
51 503 682
52 451 911
53 171 656
54 843 44
55 94 165
56 726 411
57 197 498
58 49 726
59 645 224
60 981 775
61 844 973
62 986 589
63 414 719
64 407 720
65 82 782
66 255 312
67 151 291
68 831 520
69 970 760
70 912 77
71 150 909
72 655 287
73 708 178
74 503 504
75 14 634
76 825 599
77 433 646
78 88 970
79 704 58
80 258 52
81 570 72
82 252 338
83 141 741
84 353 966
85 469 225
86 501 929
87 128 931
88 953 786
89 30 752
90 157 419
91 454 640
92 888 420
93 453 708
94 995 666
95 977 113
96 970 790
97 604 21
98 128 917
99 122 40
100 846 937
101 806 751
102 139 930
103 479 760
104 69 875
105 698 197
106 726 250
107 782 561
108 43 320
109 757 331
110 898 518
111 133 541
112 880 166
113 529 957
114 60 701
115 567 295
116 535 391
117 30 683
118 447 677
119 540 747
120 500 86
121 555 154
122 275 341
123 299 644
124 890 504
125 42 970
126 496 177
127 789 679
128 770 402
129 545 735
130 504 867
131 218 232
132 339 760
133 99 352
134 875 761
135 667 49
136 774 666
137 728 515
138 676 316
139 961 518
140 811 724
141 551 563
142 484 538
143 862 621
144 77 733
145 476 800
146 107 535
147 642 249
148 793 754
149 37 871
150 760 614
151 420 78
152 312 676
153 919 95
154 605 144
155 528 760
156 214 887
157 323 338
158 253 819
159 628 365
160 128 138
161 705 400
162 571 979
163 931 739
164 764 26
165 162 169
166 338 947
167 480 60
168 292 467
169 136 228
170 866 390
171 813 727
172 196 682
173 250 283
174 950 598
175 244 524
176 583 858
177 748 608
178 254 471
179 115 623
180 159 246
181 847 676
182 281 865
183 842 436
184 503 302
185 222 615
186 141 757
187 730 710
188 242 378
189 175 791
190 194 777
191 190 651
192 730 646
193 306 316
194 950 134
195 259 336
196 405 778
197 176 687
198 164 230
199 475 364
200 159 665
201 784 688
202 802 671
203 273 68
204 115 719
205 201 591
206 126 178
207 170 673
208 964 859
209 645 937
210 88 608
211 469 662
212 194 760
213 307 322
214 814 726
215 44 357
216 754 663
217 457 666
218 224 678
219 119 717
220 611 940
221 359 422
222 930 449
223 865 435
224 865 403
225 640 408
226 574 311
227 205 298
228 634 902
229 904 421
230 439 192
231 899 450
232 623 138
233 155 167
234 164 337
235 943 753
236 206 641
237 196 585
238 189 611
239 818 409
240 95 550
241 727 707
242 190 624
243 161 32
244 739 302
245 769 778
246 68 320
247 193 734
248 605 969
249 130 185
250 978 671
251 952 836
252 771 647
253 196 8
254 914 448
255 68 190
256 883 786
257 839 318
258 243 672
259 668 495
260 215 0
261 282 320
262 185 62
263 56 273
264 133 311
265 239 64
266 378 491
267 252 657
268 182 66
269 748 760
270 154 103
271 656 923
272 729 319
273 285 650
274 331 10
275 199 630
276 781 445
277 590 258
278 56 412
279 208 238
280 197 739
281 455 395
DEMAND_SECTION
2 1
3 1
4 1
5 1
6 1
7 1
8 1
9 1
10 1
11 1
12 1
13 1
14 1
15 1
16 1
17 1
18 1
19 1
20 1
21 1
22 1
23 1
24 1
25 1
26 1
27 1
28 1
29 1
30 1
31 1
32 1
33 1
34 1
35 1
36 1
37 1
38 1
39 1
40 1
41 1
42 1
43 1
44 1
COVERAGE_SECTION
2 10 7 106 244 272 109 257 105 73 6 138 
3 11 133 9 4 278 215 246 108 90 264 234 67 
4 11 133 264 3 246 9 234 67 108 215 263 278 
5 11 76 107 68 143 150 177 25 252 110 124 35 
6 11 32 138 272 244 161 109 72 159 56 225 128 
7 11 106 2 105 244 73 272 109 59 72 147 138 
8 11 154 232 121 81 59 126 135 105 73 120 16 
9 9 215 3 133 246 108 4 278 264 263 
10 10 185 205 238 275 237 242 236 191 267 53 
11 11 38 208 251 96 88 100 60 61 69 14 256 
12 11 163 22 235 181 14 250 134 69 94 143 256 
13 11 47 91 77 142 211 217 39 118 51 74 141 
14 11 235 163 88 256 134 69 96 60 12 251 208 
15 11 212 19 280 190 247 189 186 83 24 34 197 
16 6 126 230 85 121 120 167 
17 11 94 62 250 174 22 35 12 139 163 143 69 
18 8 80 265 260 203 253 262 268 243 
19 11 212 15 280 190 247 189 186 83 197 34 172 
20 10 223 183 92 224 231 239 25 170 229 254 
21 11 93 118 51 217 103 211 63 64 91 155 77 
22 11 12 250 174 17 94 143 62 35 181 163 235 
23 11 54 164 70 79 153 112 135 194 73 95 105 
24 11 219 204 83 186 144 34 197 15 247 65 114 
25 11 68 183 20 223 124 276 110 239 231 5 92 
26 9 116 226 159 115 225 184 199 32 277 
27 11 188 122 82 195 42 178 261 168 66 157 213 
28 11 86 113 52 50 162 36 130 45 84 248 220 
29 10 137 259 276 56 161 128 107 25 225 239 
30 11 78 125 87 98 102 104 149 71 156 65 41 
31 11 187 241 269 201 216 127 136 148 140 245 171 
32 11 6 161 138 159 225 56 272 72 109 244 128 
33 11 75 210 117 240 179 114 146 58 111 144 89 
34 10 197 207 200 172 53 191 247 218 219 280 
35 11 174 110 139 124 62 143 22 68 76 17 5 
36 11 50 220 113 176 86 162 40 248 228 130 209 
37 10 258 49 267 273 152 218 123 172 236 185 
38 11 208 251 11 88 96 256 100 60 14 69 235 
39 11 77 123 152 13 91 273 118 217 64 63 47 
40 6 176 130 36 50 155 145 
41 11 156 182 46 158 48 71 166 102 98 84 87 
42 10 195 122 82 261 66 213 193 188 173 157 
43 8 180 198 67 169 279 227 131 264 
44 11 233 165 249 206 160 169 198 55 180 270 43 
45 11 48 52 46 166 84 182 196 130 28 86 145 
46 11 48 166 182 41 84 45 156 158 52 132 71 
47 11 13 142 91 77 211 217 74 118 141 39 51 
48 11 46 45 182 166 84 41 158 156 52 132 196 
49 10 37 258 152 218 267 273 123 172 280 247 
50 11 86 130 113 36 52 28 40 176 162 220 248 
51 9 211 21 217 93 118 91 129 119 77 
52 11 86 28 50 130 45 113 84 36 145 166 48 
53 10 200 207 191 197 34 172 242 236 275 238 
54 9 23 70 164 153 112 79 194 95 135 
55 8 206 255 249 160 44 233 165 169 
56 11 161 128 29 276 32 6 109 225 239 272 259 
57 11 175 178 111 237 90 205 146 168 10 238 240 
58 11 114 144 89 117 65 204 219 24 83 186 75 
59 11 147 105 72 277 73 106 154 232 8 7 138 
60 11 69 96 88 235 14 163 251 208 256 250 12 
61 3 100 38 11 
62 11 174 17 35 139 94 250 22 110 124 143 12 
63 11 64 93 118 21 196 217 77 103 211 132 91 
64 11 63 93 196 118 21 217 77 132 103 211 91 
65 11 144 89 186 58 24 204 83 219 114 189 104 
66 8 42 195 82 261 173 122 193 227 
67 10 264 43 180 234 227 198 4 169 279 133 
68 11 25 5 124 107 110 76 20 183 276 223 35 
69 11 60 235 96 88 163 14 251 12 250 256 134 
70 7 153 194 95 54 112 23 164 
71 11 98 102 87 156 78 104 30 41 149 189 125 
72 11 138 147 59 6 277 106 272 32 159 226 244 
73 11 105 7 106 59 232 147 2 154 8 79 72 
74 9 142 141 47 13 116 281 266 199 91 
75 11 33 117 210 114 58 179 144 240 89 204 219 
76 11 5 143 107 150 252 202 177 68 181 136 127 
77 11 91 217 118 211 13 39 93 47 63 21 64 
78 11 30 125 87 102 98 71 104 149 156 41 65 
79 11 135 164 97 23 232 73 154 8 81 105 54 
80 8 203 265 18 260 262 253 268 274 
81 11 97 120 8 154 121 232 167 135 16 126 79 
82 10 195 42 122 66 261 188 173 27 213 193 
83 11 186 24 219 204 15 247 212 280 34 189 19 
84 11 166 46 45 48 52 41 182 28 86 156 50 
85 3 230 126 16 
86 11 50 113 28 52 130 36 162 40 176 220 248 
87 11 102 98 71 78 30 104 125 156 149 41 189 
88 11 96 60 69 235 14 251 163 256 208 134 38 
89 11 58 144 114 65 117 204 219 24 186 83 75 
90 11 3 234 57 133 188 4 278 27 178 264 9 
91 11 77 217 211 118 13 47 51 93 21 39 63 
92 9 229 223 224 231 170 20 254 183 222 
93 11 21 118 63 217 64 211 51 103 77 91 196 
94 11 250 17 22 62 174 12 69 163 235 60 14 
95 6 194 153 70 112 54 23 
96 11 88 60 69 235 251 14 163 208 256 38 134 
97 11 81 135 79 8 232 120 154 167 121 164 16 
98 11 87 102 71 78 30 104 156 125 149 41 189 
99 9 243 268 262 270 253 160 260 18 265 
100 3 61 38 11 
101 8 148 171 214 140 245 269 201 31 
102 11 87 98 71 78 30 156 104 125 41 149 189 
103 10 145 21 155 93 119 129 196 63 51 64 
104 11 149 98 30 87 71 102 65 78 125 89 189 
105 11 73 7 59 106 147 2 232 72 154 8 244 
106 11 7 2 244 105 272 73 72 138 147 59 109 
107 10 5 76 150 177 68 137 252 25 143 192 
108 7 246 215 9 263 133 4 3 
109 10 272 244 6 128 2 138 257 32 56 161 
110 11 124 35 139 68 231 254 25 222 20 223 174 
111 11 146 240 57 237 210 179 205 238 242 10 275 
112 6 194 153 70 95 54 23 
113 11 86 162 50 28 36 248 220 52 130 40 176 
114 11 58 117 144 204 89 219 24 75 65 83 179 
115 9 226 277 184 26 72 147 159 116 59 
116 9 26 199 281 226 184 159 115 225 74 
117 11 114 58 75 89 144 33 204 210 219 179 24 
118 11 217 211 93 77 91 21 63 51 64 13 39 
119 5 129 155 103 51 21 
120 10 167 81 16 151 121 126 8 154 230 97 
121 10 8 154 126 16 232 81 120 277 85 59 
122 10 42 195 261 82 66 213 193 157 188 27 
123 10 273 152 37 267 258 39 49 185 218 10 
124 11 110 231 68 254 25 35 222 20 139 223 183 
125 11 30 78 87 104 149 98 102 71 156 65 41 
126 5 16 85 230 121 120 
127 11 201 202 136 252 216 140 214 171 31 181 187 
128 9 276 56 239 161 109 183 29 272 6 
129 5 119 155 51 103 21 
130 11 50 40 86 52 145 36 176 113 28 103 155 
131 4 279 198 43 173 
132 11 196 64 63 49 152 158 37 182 48 123 273 
133 11 4 3 9 246 264 215 108 234 278 67 90 
134 11 256 14 163 235 101 214 171 12 140 88 148 
135 11 79 97 232 81 164 8 154 73 23 105 121 
136 11 252 127 216 201 202 192 150 31 187 241 177 
137 10 29 259 107 276 177 5 68 56 150 25 
138 11 6 72 32 272 244 159 147 109 106 161 59 
139 8 110 35 124 62 222 174 254 231 
140 9 171 214 101 148 201 127 202 181 31 
141 4 142 74 47 13 
142 9 74 47 13 141 91 266 77 211 217 
143 11 76 181 5 22 35 202 12 174 127 252 136 
144 11 58 114 204 219 24 65 89 83 186 117 34 
145 10 103 155 130 196 119 21 40 93 129 63 
146 11 240 111 210 179 57 237 205 238 33 242 90 
147 11 59 72 277 138 105 106 115 226 73 7 6 
148 7 101 171 245 140 214 269 31 
149 11 104 30 125 65 98 87 78 102 71 89 144 
150 10 177 252 192 216 136 107 76 127 202 5 
151 3 167 120 16 
152 10 123 273 37 49 267 258 39 132 218 64 
153 7 70 194 95 112 54 23 164 
154 11 8 232 121 81 59 105 73 147 135 126 277 
155 6 119 129 103 145 21 51 
156 11 41 71 182 158 102 98 87 46 189 190 48 
157 5 213 193 261 122 42 
158 11 182 190 156 19 189 212 41 15 280 48 132 
159 11 225 32 26 138 6 226 72 161 115 116 56 
160 10 206 233 55 270 44 165 249 255 169 268 
161 11 56 32 6 128 225 29 272 159 109 276 138 
162 11 248 113 220 36 209 86 50 28 228 271 176 
163 11 235 14 69 12 88 134 60 96 256 250 22 
164 11 23 79 54 135 70 97 73 153 232 112 105 
165 10 233 44 249 206 160 198 169 270 55 180 
166 11 84 46 48 45 41 182 52 156 28 158 86 
167 8 120 151 81 16 126 121 97 230 
168 9 178 175 27 221 266 57 188 122 157 
169 9 198 180 43 249 44 206 165 233 67 
170 7 224 92 223 229 20 183 239 
171 9 214 140 101 148 201 127 202 181 31 
172 10 197 34 207 218 191 53 200 236 258 247 
173 5 66 227 261 42 195 
174 11 62 35 17 22 250 139 94 143 110 12 124 
175 11 57 178 168 237 205 10 185 238 111 242 275 
176 5 40 36 228 130 50 
177 10 150 192 252 216 107 136 76 5 127 202 
178 11 168 175 57 27 188 90 221 266 237 205 122 
179 11 210 200 53 207 238 242 240 191 111 275 34 
180 10 43 198 169 67 279 131 44 249 227 264 
181 11 202 143 127 140 214 171 201 12 136 76 252 
182 11 158 46 48 41 156 166 45 132 84 190 189 
183 10 20 223 239 224 25 92 170 231 276 229 
184 7 115 199 226 85 26 116 277 
185 10 10 275 236 205 238 242 237 191 267 258 
186 11 83 24 15 204 219 189 212 190 247 19 280 
187 10 241 31 216 269 201 136 192 127 252 148 
188 11 27 82 195 122 42 66 261 213 227 234 193 
189 11 190 15 212 19 186 280 83 247 24 158 65 
190 11 212 19 15 189 280 247 186 83 158 24 34 
191 10 236 53 275 242 207 172 200 197 238 34 
192 10 216 252 177 150 136 241 187 127 201 31 
193 5 213 261 157 122 42 
194 6 95 153 70 112 54 23 
195 10 82 42 122 66 261 188 213 193 173 27 
196 11 64 63 132 145 103 93 21 118 45 217 155 
197 10 34 207 172 200 53 191 218 247 236 280 
198 11 180 43 169 279 44 131 249 165 67 206 233 
199 4 281 116 184 26 
200 10 207 53 34 197 191 172 242 236 275 179 
201 11 127 136 202 216 252 140 31 214 171 187 241 
202 11 127 201 136 252 181 216 140 214 171 31 150 
203 4 80 265 18 274 
204 11 219 24 83 144 186 114 34 58 197 200 65 
205 10 237 10 238 185 242 275 236 191 53 175 
206 11 249 44 233 55 165 160 169 255 198 180 270 
207 10 200 197 34 53 172 191 236 275 242 218 
208 11 251 38 11 96 88 60 69 14 235 256 163 
209 6 271 220 228 248 36 162 
210 11 179 240 33 146 75 111 200 117 53 114 238 
211 11 217 91 118 51 77 93 21 13 63 47 64 
212 11 19 15 190 280 247 189 186 83 34 197 24 
213 6 193 157 261 122 42 195 
214 9 171 140 101 148 201 127 202 181 31 
215 9 9 108 246 3 133 278 4 263 264 
216 11 136 252 192 127 201 150 202 241 31 187 177 
217 11 211 118 91 77 93 21 51 63 64 13 47 
218 10 258 172 267 236 191 37 197 207 275 49 
219 11 204 24 83 144 186 34 114 197 200 207 58 
220 9 248 209 228 271 36 162 113 176 50 
221 5 266 168 157 281 27 
222 7 254 231 229 92 223 124 20 
223 10 20 183 92 224 231 229 170 254 239 25 
224 8 170 92 223 20 183 229 239 231 
225 11 159 32 161 26 56 6 259 138 116 29 226 
226 9 115 26 277 184 159 72 116 147 138 
227 8 173 66 67 43 234 279 82 195 
228 6 271 209 220 176 36 248 
229 8 92 231 254 222 223 224 170 20 
230 2 85 16 
231 9 254 229 222 92 223 20 124 224 183 
232 11 154 8 121 81 59 73 105 135 147 79 97 
233 10 165 44 206 249 160 55 169 198 270 180 
234 11 264 67 4 227 133 43 90 3 82 188 180 
235 11 163 14 69 88 60 96 12 134 256 251 250 
236 10 275 191 242 185 10 238 53 218 172 207 
237 11 205 238 10 242 185 275 236 191 53 111 175 
238 10 242 275 205 10 237 185 236 191 53 200 
239 8 183 224 20 128 170 276 223 92 
240 11 146 111 210 179 33 237 238 57 205 75 242 
241 9 187 31 216 269 201 192 136 127 252 
242 10 275 238 236 191 10 185 205 53 237 200 
243 10 262 99 268 253 260 270 18 265 80 160 
244 10 272 109 2 106 6 7 138 72 32 257 
245 5 269 148 101 31 171 
246 8 108 9 4 215 133 263 3 264 
247 11 280 15 19 212 190 197 34 83 172 186 189 
248 10 220 162 209 36 271 228 113 50 86 176 
249 11 206 44 233 165 55 169 160 198 255 180 43 
250 11 94 17 22 12 174 62 163 69 235 60 14 
251 11 208 38 96 88 60 14 69 11 235 256 163 
252 11 136 216 150 127 202 192 201 177 76 31 241 
253 10 260 243 18 262 268 265 80 99 203 270 
254 7 231 222 229 92 223 20 124 
255 6 55 206 249 169 160 44 
256 10 134 14 163 235 88 101 251 96 69 214 
257 6 170 109 224 2 239 244 
258 10 267 218 37 49 273 172 236 191 185 275 
259 7 29 137 225 56 161 276 32 
260 9 253 18 243 80 265 262 268 203 99 
261 9 42 122 193 213 66 195 82 157 173 
262 10 268 243 270 265 253 18 99 260 80 203 
263 3 108 246 4 
264 11 67 4 234 133 43 246 180 227 3 169 9 
265 8 80 18 203 262 268 260 253 243 
266 8 221 168 142 13 47 281 74 178 
267 10 258 37 273 218 123 236 185 49 275 10 
268 10 262 243 270 265 253 99 18 260 80 160 
269 6 245 31 148 187 241 101 
270 11 160 268 262 233 165 99 243 44 206 249 55 
271 5 209 228 220 248 36 
272 11 244 109 6 138 32 106 2 72 7 161 56 
273 10 123 267 37 152 258 49 218 185 236 10 
274 6 203 80 18 265 151 260 
275 10 242 236 238 191 10 185 53 205 237 172 
276 11 128 239 29 183 25 56 20 223 137 161 68 
277 9 115 147 226 59 72 184 138 26 121 
278 10 3 9 215 133 4 108 246 90 264 234 
279 4 131 198 43 180 
280 11 247 19 15 212 190 83 189 197 34 172 186 
281 6 199 116 221 184 26 74 
DEPOT_SECTION
   1
   -1
EOF
