NAME :  X-n491-kX-w98-c7.cctp
COMMENT : 	Adapted by Maziero, Usberti and Cavellucci from the Uchoa, Pecin, Pessoa, Poggi, Subramanian, and Vidal (2013)
TYPE :  CCTP
DIMENSION :    340
EDGE_WEIGHT_TYPE : 	EUC_2D	
CAPACITY : 	428
VERTICES_WITHIN_COVERAGE :  7
VERTICES_WITH_DEMAND : 	98
NODE_COORD_SECTION
1 894 510
2 463 887
3 704 177
4 424 368
5 420 800
6 492 610
7 607 749
8 363 85
9 160 398
10 733 274
11 952 199
12 56 370
13 714 12
14 569 230
15 187 681
16 550 581
17 506 863
18 838 469
19 842 107
20 595 966
21 292 185
22 327 121
23 21 664
24 145 164
25 654 735
26 281 959
27 910 295
28 857 705
29 501 276
30 896 894
31 269 217
32 590 509
33 575 96
34 819 481
35 941 408
36 908 388
37 941 492
38 652 413
39 341 111
40 577 544
41 493 279
42 452 25
43 969 339
44 64 67
45 456 289
46 227 792
47 898 365
48 45 442
49 881 867
50 437 830
51 280 233
52 894 41
53 146 375
54 498 393
55 849 249
56 188 631
57 461 690
58 277 381
59 410 486
60 211 863
61 359 706
62 595 831
63 353 281
64 448 785
65 206 832
66 726 420
67 143 741
68 84 332
69 692 490
70 896 968
71 823 232
72 513 831
73 338 623
74 787 934
75 515 893
76 829 499
77 993 184
78 30 917
79 918 121
80 327 945
81 331 646
82 714 159
83 810 86
84 10 665
85 358 495
86 877 42
87 547 218
88 81 551
89 907 733
90 12 587
91 564 716
92 446 381
93 136 379
94 565 957
95 872 42
96 216 326
97 37 967
98 434 954
99 562 426
100 203 448
101 926 44
102 473 523
103 302 363
104 985 248
105 839 112
106 597 917
107 573 948
108 229 856
109 497 199
110 645 338
111 106 449
112 918 709
113 680 917
114 194 86
115 176 795
116 714 316
117 368 822
118 72 175
119 239 112
120 736 825
121 621 236
122 811 510
123 82 545
124 55 520
125 146 385
126 319 751
127 195 332
128 446 715
129 514 988
130 891 404
131 632 329
132 558 893
133 567 695
134 297 220
135 191 246
136 620 569
137 447 829
138 73 857
139 887 849
140 249 874
141 457 527
142 298 729
143 141 976
144 695 556
145 851 526
146 259 467
147 561 309
148 412 755
149 700 344
150 556 499
151 447 454
152 212 653
153 300 434
154 257 805
155 46 856
156 268 199
157 837 819
158 625 636
159 250 650
160 165 167
161 450 924
162 975 100
163 148 707
164 866 77
165 335 318
166 389 801
167 104 468
168 443 511
169 764 323
170 631 938
171 762 744
172 376 930
173 350 537
174 569 883
175 152 396
176 481 356
177 598 964
178 232 267
179 714 334
180 14 540
181 701 695
182 220 306
183 497 271
184 265 137
185 432 580
186 77 946
187 699 51
188 316 369
189 836 775
190 650 638
191 768 280
192 473 396
193 63 935
194 137 774
195 344 230
196 712 37
197 184 58
198 434 502
199 149 342
200 292 48
201 402 160
202 365 500
203 287 35
204 394 695
205 674 817
206 109 754
207 187 972
208 802 453
209 5 16
210 421 581
211 720 439
212 333 681
213 981 743
214 411 723
215 278 830
216 459 907
217 999 105
218 603 751
219 512 804
220 642 674
221 449 0
222 631 543
223 299 63
224 440 40
225 362 758
226 833 46
227 487 372
228 796 267
229 59 660
230 114 909
231 59 523
232 958 201
233 392 55
234 532 197
235 795 674
236 904 278
237 932 486
238 469 41
239 904 116
240 916 259
241 355 511
242 665 33
243 581 564
244 919 134
245 143 600
246 846 339
247 49 668
248 103 407
249 700 164
250 962 709
251 873 240
252 942 75
253 425 254
254 936 548
255 135 777
256 954 503
257 392 27
258 446 20
259 368 126
260 692 278
261 940 181
262 815 137
263 855 406
264 558 105
265 32 642
266 927 542
267 147 552
268 51 598
269 951 209
270 803 252
271 221 667
272 144 710
273 970 224
274 846 297
275 830 215
276 643 508
277 665 197
278 858 263
279 684 243
280 719 138
281 555 90
282 819 130
283 519 199
284 135 327
285 817 538
286 572 220
287 928 76
288 564 209
289 828 691
290 911 116
291 929 534
292 140 724
293 783 521
294 886 325
295 34 850
296 558 230
297 53 665
298 994 370
299 891 360
300 471 261
301 147 549
302 680 222
303 807 474
304 421 10
305 836 278
306 903 428
307 744 268
308 845 444
309 119 715
310 902 674
311 950 493
312 539 216
313 850 514
314 853 259
315 553 256
316 424 39
317 594 76
318 0 651
319 0 706
320 557 264
321 839 228
322 778 365
323 374 22
324 467 24
325 960 708
326 793 528
327 197 718
328 70 923
329 0 609
330 968 307
331 472 47
332 840 480
333 798 105
334 924 360
335 865 507
336 54 462
337 585 61
338 917 287
339 919 199
340 94 553
DEMAND_SECTION
2 19
3 56
4 71
5 90
6 5
7 34
8 47
9 56
10 53
11 87
12 28
13 15
14 89
15 60
16 85
17 41
18 52
19 74
20 63
21 72
22 82
23 35
24 48
25 39
26 46
27 78
28 41
29 15
30 77
31 30
32 72
33 93
34 53
35 95
36 29
37 90
38 82
39 73
40 18
41 69
42 31
43 99
44 46
45 92
46 66
47 4
48 27
49 99
50 27
51 3
52 14
53 7
54 16
55 15
56 61
57 39
58 26
59 97
60 3
61 71
62 80
63 10
64 64
65 14
66 4
67 8
68 88
69 11
70 21
71 51
72 3
73 68
74 74
75 44
76 95
77 3
78 67
79 4
80 23
81 19
82 39
83 45
84 49
85 15
86 58
87 96
88 95
89 2
90 41
91 37
92 29
93 62
94 1
95 62
96 68
97 23
98 12
99 74
COVERAGE_SECTION
2 7 216 161 17 75 137 50 98 
3 6 249 82 280 277 302 279 
4 7 92 192 176 227 54 45 151 
5 7 166 64 50 137 148 117 225 
6 7 16 185 210 57 102 141 243 
7 7 218 25 91 133 62 220 205 
8 6 39 259 233 22 323 257 
9 7 175 125 53 93 199 248 100 
10 7 307 191 260 116 169 279 179 
11 6 232 269 261 273 339 77 
12 7 68 248 48 93 53 284 125 
13 3 196 187 242 
14 7 286 296 288 87 315 312 320 
15 7 271 152 327 163 56 272 292 
16 7 243 40 6 136 32 150 222 
17 7 75 72 2 219 132 216 174 
18 7 332 34 308 76 303 208 313 
19 6 105 282 83 164 262 333 
20 7 177 107 94 170 106 132 129 
21 7 156 134 31 51 184 195 22 
22 7 39 259 8 184 223 21 200 
23 7 84 265 318 247 297 229 319 
24 7 160 118 114 135 119 197 184 
25 7 7 218 181 220 205 91 133 
26 7 80 140 207 172 108 60 215 
27 5 338 236 240 294 330 
28 5 289 310 89 112 235 
29 6 183 41 300 45 315 320 
30 7 49 139 70 157 74 189 89 
31 7 156 51 134 21 178 195 184 
32 7 150 40 222 276 243 136 16 
33 3 264 281 317 
34 7 303 76 332 18 122 208 308 
35 7 36 306 130 334 47 298 299 
36 7 130 47 334 299 35 306 263 
37 6 311 237 256 291 266 254 
38 7 211 66 110 149 131 69 99 
39 6 22 259 8 223 233 201 
40 7 243 32 16 136 150 222 276 
41 6 29 183 300 45 315 320 
42 7 258 324 224 238 221 331 316 
43 7 330 298 334 27 35 338 47 
44 7 209 118 197 24 114 160 119 
45 7 300 41 183 29 253 176 4 
46 7 154 65 115 108 215 60 327 
47 7 299 36 334 130 294 246 263 
48 7 336 111 167 248 12 124 231 
49 7 139 30 157 70 189 74 89 
50 7 137 5 64 166 2 117 17 
51 7 31 134 156 21 178 195 63 
52 7 86 95 101 164 287 252 226 
53 7 125 93 175 9 199 284 248 
54 7 227 192 176 92 99 4 151 
55 7 314 278 321 251 71 305 275 
56 5 152 271 15 245 159 
57 7 128 214 204 148 6 64 61 
58 7 103 188 153 96 165 146 182 
59 7 198 168 202 151 85 241 141 
60 7 108 65 140 46 154 215 115 
61 7 212 204 225 214 126 142 81 
62 7 174 132 205 218 72 7 106 
63 7 165 195 253 134 51 188 103 
64 7 5 137 50 148 166 219 128 
65 7 60 108 46 115 154 140 215 
66 7 211 38 322 69 149 208 179 
67 7 292 272 163 194 309 206 255 
68 7 12 284 199 93 53 248 125 
69 6 276 211 144 66 222 38 
70 7 30 49 74 139 157 189 120 
71 6 321 275 270 55 314 228 
72 7 219 17 75 137 2 50 174 
73 7 81 212 61 173 204 159 210 
74 7 113 70 49 30 120 157 139 
75 7 17 132 2 174 216 72 161 
76 7 34 122 332 313 18 303 145 
77 6 232 11 273 269 261 104 
78 7 193 328 97 186 155 295 138 
79 6 290 244 239 287 252 162 
80 7 26 172 140 98 161 215 117 
81 7 73 212 61 204 159 142 126 
82 4 249 3 280 277 
83 7 333 19 105 282 226 262 164 
84 7 23 318 265 247 319 297 229 
85 7 202 241 173 59 198 153 168 
86 7 95 52 164 226 101 287 252 
87 7 312 296 288 14 286 234 283 
88 6 123 340 231 124 268 267 
89 5 112 28 310 325 250 
90 7 329 268 180 265 318 23 84 
91 7 133 218 7 220 25 158 219 
92 7 4 192 227 176 54 151 45 
93 7 53 125 175 9 199 248 284 
94 7 107 20 177 106 129 132 170 
95 7 86 52 164 226 101 287 19 
96 7 182 127 178 199 284 58 135 
97 7 193 186 78 328 230 143 155 
98 7 161 216 172 2 129 75 80 
99 7 54 150 32 38 227 192 176 
100 7 146 9 175 125 53 93 111 
101 7 52 287 252 86 95 164 162 
102 7 141 168 198 185 59 151 210 
103 7 188 58 165 153 96 63 182 
104 4 273 269 232 11 
105 6 19 282 262 83 333 164 
106 7 107 170 174 132 177 20 94 
107 7 94 20 177 106 132 170 174 
108 7 60 140 65 215 154 46 115 
109 4 283 234 312 87 
110 7 131 149 179 116 38 260 147 
111 7 167 248 336 48 175 9 125 
112 4 89 310 325 250 
113 7 170 106 177 20 205 74 120 
114 7 197 119 160 184 24 200 203 
115 6 194 255 65 46 67 60 
116 7 179 149 260 10 169 307 191 
117 6 166 5 225 50 137 148 
118 7 24 160 44 135 114 68 197 
119 7 184 114 197 223 200 22 21 
120 7 205 171 157 113 189 74 25 
121 4 14 286 277 302 
122 6 76 326 285 34 293 303 
123 7 88 340 231 124 268 267 301 
124 7 231 123 88 180 340 336 167 
125 7 53 93 175 9 199 248 284 
126 6 142 225 61 212 154 117 
127 7 96 182 199 284 53 125 9 
128 7 57 214 148 204 64 61 5 
129 7 94 107 20 98 177 161 75 
130 7 36 306 263 47 299 35 334 
131 7 110 149 147 260 179 116 38 
132 7 174 75 106 107 17 94 62 
133 7 91 7 218 220 158 25 190 
134 7 51 31 21 156 195 178 63 
135 7 178 182 31 160 96 127 51 
136 7 222 243 40 276 32 158 16 
137 7 50 5 64 2 166 72 17 
138 5 155 295 230 328 78 
139 7 49 30 157 189 89 70 74 
140 7 108 60 215 65 154 46 26 
141 7 102 168 198 185 59 210 151 
142 6 126 212 61 225 154 81 
143 7 207 186 230 193 328 97 78 
144 4 222 69 276 136 
145 4 313 335 76 285 
146 7 153 100 58 85 241 202 103 
147 7 320 315 29 41 131 183 14 
148 7 214 5 64 225 166 128 204 
149 7 179 116 110 260 169 131 10 
150 7 32 40 243 99 16 102 222 
151 7 59 198 168 192 92 102 141 
152 6 271 56 15 159 327 163 
153 7 146 58 188 103 85 202 241 
154 6 46 215 65 108 140 60 
155 4 295 138 78 328 
156 7 31 21 51 134 184 178 195 
157 7 189 139 49 30 120 171 89 
158 7 190 220 136 133 243 16 222 
159 7 271 152 56 15 81 327 212 
160 7 24 135 114 119 118 184 156 
161 7 216 98 2 75 172 17 129 
162 7 217 252 287 79 244 290 239 
163 6 272 292 309 67 15 327 
164 7 95 86 19 105 226 52 239 
165 7 63 188 103 58 195 51 4 
166 7 117 5 148 225 50 64 137 
167 7 111 336 248 48 124 231 123 
168 7 198 141 102 59 151 185 210 
169 7 191 322 116 179 10 307 228 
170 7 106 177 20 113 107 94 174 
171 7 235 181 189 120 289 28 157 
172 7 80 98 161 216 2 26 117 
173 7 241 202 85 59 210 73 198 
174 7 132 106 75 62 107 17 94 
175 7 9 125 53 93 248 199 111 
176 7 227 54 192 92 4 45 41 
177 7 20 107 94 170 106 132 174 
178 7 182 135 51 96 31 127 156 
179 7 149 116 169 260 10 110 322 
180 7 124 90 231 88 123 268 329 
181 6 25 220 190 171 158 235 
182 7 96 127 178 135 199 284 51 
183 6 29 41 300 45 315 320 
184 7 119 21 156 22 31 39 223 
185 7 210 141 6 102 168 198 173 
186 6 193 328 97 230 78 143 
187 3 196 242 13 
188 7 103 58 165 153 63 4 96 
189 7 157 28 171 89 289 139 49 
190 7 158 220 136 181 144 25 222 
191 6 307 228 10 169 270 116 
192 7 54 227 92 176 4 151 99 
193 7 328 186 78 97 230 138 155 
194 6 255 67 206 115 292 309 
195 7 134 63 51 21 31 156 253 
196 3 187 13 242 
197 7 114 119 203 200 160 24 184 
198 7 168 59 141 102 151 202 85 
199 7 284 53 93 125 127 175 9 
200 7 203 223 8 39 22 119 323 
201 3 259 39 8 
202 7 85 241 173 59 198 168 153 
203 7 200 223 323 8 119 39 22 
204 7 214 61 128 148 212 57 225 
205 7 120 62 25 7 218 113 171 
206 5 194 255 67 309 292 
207 7 143 26 230 60 186 140 108 
208 7 303 34 18 308 332 76 122 
209 7 44 118 197 114 24 160 119 
210 7 185 141 168 6 102 198 173 
211 6 66 69 38 208 303 322 
212 7 81 61 73 142 204 126 225 
213 5 250 325 112 89 310 
214 7 148 204 128 61 57 225 64 
215 6 154 140 108 46 65 60 
216 7 161 2 98 75 17 137 50 
217 7 162 252 287 77 79 244 290 
218 7 7 91 25 133 62 220 205 
219 7 72 17 64 137 50 62 75 
220 7 190 158 25 181 133 7 218 
221 7 258 42 304 324 224 238 316 
222 7 136 276 32 40 243 144 69 
223 7 200 203 22 39 8 119 184 
224 5 316 42 258 238 324 
225 6 126 148 166 61 214 117 
226 7 95 86 164 83 52 19 105 
227 7 176 54 192 92 4 45 151 
228 6 270 191 305 71 307 55 
229 4 297 247 265 23 
230 6 328 186 193 138 143 78 
231 7 124 123 88 340 180 336 167 
232 6 11 269 273 261 77 339 
233 6 257 316 323 8 224 304 
234 5 283 312 87 288 109 
235 3 289 28 171 
236 4 338 27 240 278 
237 5 37 311 256 291 266 
238 5 331 324 42 224 258 
239 6 290 79 244 287 164 252 
240 3 236 338 27 
241 7 202 85 173 59 198 168 153 
242 3 187 196 13 
243 7 40 16 136 222 32 150 158 
244 4 79 290 239 261 
245 3 267 301 56 
246 5 274 294 299 47 305 
247 5 297 229 23 265 84 
248 7 111 93 125 175 53 9 12 
249 5 3 82 280 277 302 
250 5 325 213 112 89 310 
251 2 55 278 
252 7 287 101 162 290 79 239 52 
253 5 45 300 41 183 63 
254 4 266 291 256 37 
255 6 194 206 67 115 292 309 
256 6 311 37 237 291 266 254 
257 7 323 233 304 316 224 258 42 
258 7 42 221 224 324 304 316 238 
259 5 39 8 22 201 233 
260 6 279 10 116 307 302 179 
261 4 11 232 339 269 
262 4 282 105 333 19 
263 7 130 308 306 36 299 47 18 
264 2 281 33 
265 7 23 247 297 84 229 318 329 
266 5 291 254 256 37 311 
267 6 301 245 340 123 88 56 
268 6 90 265 329 88 123 340 
269 5 11 232 273 261 339 
270 7 228 71 305 321 191 55 275 
271 7 152 159 15 56 327 163 272 
272 6 163 292 309 67 15 327 
273 4 269 232 104 11 
274 5 305 278 314 246 55 
275 3 321 71 55 
276 7 222 69 32 136 144 40 243 
277 4 302 3 249 279 
278 6 314 55 251 305 274 321 
279 6 302 260 277 10 121 307 
280 3 82 249 3 
281 2 264 33 
282 5 262 105 19 333 83 
283 4 234 109 312 87 
284 7 199 53 68 93 125 127 175 
285 5 326 122 145 293 76 
286 7 14 288 296 87 312 315 234 
287 7 252 101 290 79 239 52 162 
288 6 286 87 14 296 312 234 
289 3 28 235 310 
290 6 239 79 244 287 252 164 
291 5 266 254 256 37 311 
292 7 272 67 163 309 206 194 255 
293 5 326 122 285 76 303 
294 7 299 27 47 246 274 338 236 
295 4 155 138 78 328 
296 7 14 87 286 288 312 315 320 
297 4 247 229 265 23 
298 7 43 35 330 334 36 47 299 
299 7 47 36 334 294 130 246 263 
300 6 41 183 45 29 253 109 
301 6 267 245 340 123 88 56 
302 5 279 277 3 260 121 
303 7 34 208 18 76 332 122 308 
304 7 258 316 221 42 257 224 324 
305 6 274 314 278 55 228 270 
306 7 130 36 35 263 308 47 237 
307 7 10 191 228 260 116 169 270 
308 7 18 332 263 208 34 303 76 
309 5 292 272 163 67 206 
310 3 112 28 89 
311 6 37 256 237 291 266 254 
312 7 87 234 296 283 288 14 286 
313 5 145 335 76 332 122 
314 7 278 55 305 251 321 274 71 
315 7 320 296 14 87 286 312 288 
316 6 224 258 304 42 257 233 
317 2 337 33 
318 7 84 23 265 329 247 297 319 
319 2 84 23 
320 7 315 296 14 147 286 87 312 
321 6 71 275 55 314 251 278 
322 6 169 179 246 66 116 149 
323 7 257 233 304 316 8 224 258 
324 6 42 238 258 331 221 224 
325 5 250 213 112 89 310 
326 5 293 122 285 76 34 
327 7 15 163 272 271 292 67 152 
328 6 193 186 78 230 97 138 
329 7 90 318 265 268 84 23 180 
330 5 43 338 27 104 298 
331 3 238 324 42 
332 7 18 34 76 303 313 308 335 
333 5 83 282 262 105 19 
334 7 47 36 299 43 35 294 130 
335 4 313 145 76 332 
336 7 48 167 111 124 231 248 123 
337 2 317 33 
338 5 27 236 240 294 330 
339 2 261 11 
340 6 88 123 231 124 267 301 
DEPOT_SECTION
   1
   -1
EOF
