NAME :  X-n491-kX-w196-c9.cctp
COMMENT : 	Adapted by Maziero, Usberti and Cavellucci from the Uchoa, Pecin, Pessoa, Poggi, Subramanian, and Vidal (2013)
TYPE :  CCTP
DIMENSION :    436
EDGE_WEIGHT_TYPE : 	EUC_2D	
CAPACITY : 	428
VERTICES_WITHIN_COVERAGE :  9
VERTICES_WITH_DEMAND : 	196
NODE_COORD_SECTION
1 894 510
2 463 887
3 704 177
4 424 368
5 420 800
6 492 610
7 607 749
8 363 85
9 160 398
10 733 274
11 952 199
12 56 370
13 714 12
14 569 230
15 187 681
16 550 581
17 506 863
18 838 469
19 842 107
20 595 966
21 292 185
22 327 121
23 21 664
24 145 164
25 654 735
26 281 959
27 910 295
28 857 705
29 501 276
30 896 894
31 269 217
32 590 509
33 575 96
34 819 481
35 941 408
36 908 388
37 941 492
38 652 413
39 341 111
40 577 544
41 493 279
42 452 25
43 969 339
44 64 67
45 456 289
46 227 792
47 898 365
48 45 442
49 881 867
50 437 830
51 280 233
52 894 41
53 146 375
54 498 393
55 849 249
56 188 631
57 461 690
58 277 381
59 410 486
60 211 863
61 359 706
62 595 831
63 353 281
64 448 785
65 206 832
66 726 420
67 143 741
68 84 332
69 692 490
70 896 968
71 823 232
72 513 831
73 338 623
74 787 934
75 515 893
76 829 499
77 993 184
78 30 917
79 918 121
80 327 945
81 331 646
82 714 159
83 810 86
84 10 665
85 358 495
86 877 42
87 547 218
88 81 551
89 907 733
90 12 587
91 564 716
92 446 381
93 136 379
94 565 957
95 872 42
96 216 326
97 37 967
98 434 954
99 562 426
100 203 448
101 926 44
102 473 523
103 302 363
104 424 197
105 947 678
106 985 248
107 839 112
108 597 917
109 573 948
110 229 856
111 497 199
112 645 338
113 106 449
114 918 709
115 680 917
116 194 86
117 176 795
118 714 316
119 368 822
120 72 175
121 239 112
122 736 825
123 621 236
124 811 510
125 82 545
126 55 520
127 75 750
128 146 385
129 319 751
130 195 332
131 446 715
132 514 988
133 891 404
134 632 329
135 27 752
136 558 893
137 567 695
138 297 220
139 191 246
140 620 569
141 447 829
142 73 857
143 887 849
144 249 874
145 457 527
146 298 729
147 141 976
148 695 556
149 851 526
150 259 467
151 561 309
152 412 755
153 710 79
154 700 344
155 831 297
156 556 499
157 447 454
158 316 773
159 212 653
160 487 210
161 300 434
162 257 805
163 46 856
164 268 199
165 837 819
166 625 636
167 250 650
168 165 167
169 450 924
170 975 100
171 822 545
172 148 707
173 866 77
174 814 172
175 335 318
176 389 801
177 632 128
178 104 468
179 443 511
180 764 323
181 631 938
182 762 744
183 376 930
184 350 537
185 569 883
186 152 396
187 445 147
188 931 598
189 481 356
190 598 964
191 535 2
192 489 51
193 232 267
194 872 623
195 613 98
196 714 334
197 14 540
198 701 695
199 220 306
200 497 271
201 847 614
202 265 137
203 981 259
204 432 580
205 77 946
206 699 51
207 93 860
208 316 369
209 883 505
210 836 775
211 650 638
212 768 280
213 473 396
214 63 935
215 137 774
216 64 773
217 344 230
218 712 37
219 184 58
220 434 502
221 149 342
222 292 48
223 402 160
224 365 500
225 287 35
226 394 695
227 674 817
228 109 754
229 187 972
230 802 453
231 5 16
232 421 581
233 919 639
234 720 439
235 333 681
236 981 743
237 411 723
238 278 830
239 459 907
240 999 105
241 569 15
242 603 751
243 512 804
244 642 674
245 874 573
246 22 715
247 449 0
248 631 543
249 299 63
250 440 40
251 362 758
252 833 46
253 35 765
254 578 23
255 942 561
256 533 5
257 845 191
258 487 372
259 749 598
260 908 610
261 796 267
262 59 660
263 911 604
264 114 909
265 59 523
266 910 182
267 958 201
268 392 55
269 532 197
270 802 599
271 795 674
272 904 278
273 932 486
274 469 41
275 612 196
276 904 116
277 614 140
278 916 259
279 617 109
280 355 511
281 608 117
282 700 83
283 659 80
284 665 33
285 581 564
286 919 134
287 143 600
288 846 339
289 49 668
290 103 407
291 465 60
292 700 164
293 962 709
294 873 240
295 942 75
296 457 87
297 425 254
298 936 548
299 605 53
300 60 711
301 135 777
302 954 503
303 392 27
304 446 20
305 368 126
306 753 607
307 692 278
308 940 181
309 815 137
310 855 406
311 558 105
312 32 642
313 927 542
314 899 656
315 147 552
316 51 598
317 701 98
318 951 209
319 505 75
320 803 252
321 221 667
322 538 21
323 497 189
324 144 710
325 970 224
326 846 297
327 830 215
328 643 508
329 828 326
330 547 83
331 665 197
332 858 263
333 684 243
334 719 138
335 53 729
336 555 90
337 819 130
338 874 590
339 519 199
340 135 327
341 892 158
342 843 154
343 817 538
344 572 220
345 928 76
346 564 209
347 828 691
348 111 810
349 911 116
350 929 534
351 140 724
352 783 521
353 894 520
354 132 648
355 663 72
356 886 325
357 514 33
358 614 103
359 107 612
360 34 850
361 580 20
362 558 230
363 647 86
364 53 665
365 969 251
366 633 165
367 994 370
368 648 174
369 891 360
370 912 670
371 471 261
372 147 549
373 554 35
374 680 222
375 807 474
376 421 10
377 836 278
378 903 428
379 55 716
380 744 268
381 845 444
382 486 196
383 817 591
384 500 63
385 119 715
386 902 674
387 950 493
388 539 216
389 850 514
390 613 120
391 862 571
392 853 259
393 553 256
394 424 39
395 594 76
396 499 56
397 0 651
398 0 706
399 557 264
400 57 750
401 839 228
402 778 365
403 414 128
404 374 22
405 467 24
406 960 708
407 736 566
408 793 528
409 689 62
410 685 96
411 197 718
412 70 923
413 0 609
414 23 738
415 824 618
416 846 602
417 968 307
418 472 47
419 840 480
420 798 105
421 555 110
422 869 531
423 924 360
424 829 181
425 865 507
426 54 462
427 756 524
428 479 72
429 585 61
430 666 236
431 13 753
432 917 287
433 15 796
434 919 199
435 844 556
436 94 553
DEMAND_SECTION
2 19
3 56
4 71
5 90
6 5
7 34
8 47
9 56
10 53
11 87
12 28
13 15
14 89
15 60
16 85
17 41
18 52
19 74
20 63
21 72
22 82
23 35
24 48
25 39
26 46
27 78
28 41
29 15
30 77
31 30
32 72
33 93
34 53
35 95
36 29
37 90
38 82
39 73
40 18
41 69
42 31
43 99
44 46
45 92
46 66
47 4
48 27
49 99
50 27
51 3
52 14
53 7
54 16
55 15
56 61
57 39
58 26
59 97
60 3
61 71
62 80
63 10
64 64
65 14
66 4
67 8
68 88
69 11
70 21
71 51
72 3
73 68
74 74
75 44
76 95
77 3
78 67
79 4
80 23
81 19
82 39
83 45
84 49
85 15
86 58
87 96
88 95
89 2
90 41
91 37
92 29
93 62
94 1
95 62
96 68
97 23
98 12
99 74
100 15
101 56
102 13
103 93
104 15
105 8
106 22
107 98
108 39
109 51
110 80
111 89
112 89
113 56
114 29
115 80
116 33
117 98
118 98
119 7
120 65
121 82
122 32
123 75
124 83
125 93
126 30
127 13
128 99
129 74
130 19
131 71
132 74
133 28
134 50
135 30
136 72
137 41
138 15
139 40
140 44
141 39
142 98
143 88
144 40
145 61
146 37
147 84
148 33
149 59
150 28
151 76
152 87
153 31
154 39
155 90
156 32
157 65
158 58
159 92
160 74
161 21
162 64
163 77
164 32
165 30
166 20
167 88
168 88
169 20
170 95
171 48
172 77
173 71
174 10
175 28
176 92
177 88
178 4
179 36
180 15
181 3
182 37
183 31
184 76
185 3
186 2
187 60
188 40
189 83
190 76
191 25
192 8
193 17
194 89
195 70
196 53
197 65
COVERAGE_SECTION
2 9 239 169 17 75 141 50 98 72 136 
3 9 292 82 334 331 374 368 333 430 366 
4 9 92 213 189 258 54 45 157 175 208 
5 9 176 64 50 141 152 119 251 237 131 
6 9 16 204 232 57 102 145 285 40 179 
7 9 242 25 91 137 62 244 227 198 243 
8 9 39 305 268 22 404 303 403 249 394 
9 9 186 128 53 93 221 290 100 113 130 
10 9 380 212 307 118 180 333 196 261 320 
11 7 267 318 308 325 434 77 266 
12 9 68 290 48 93 53 340 128 426 113 
13 9 218 206 284 409 153 282 355 283 317 
14 9 344 362 346 87 393 388 399 269 123 
15 9 321 159 411 172 56 324 351 354 167 
16 9 285 40 6 140 32 156 248 166 102 
17 9 75 72 2 243 136 239 185 141 50 
18 9 419 34 381 76 375 230 389 425 124 
19 9 107 337 83 173 309 420 342 252 276 
20 9 190 109 94 181 108 136 132 185 115 
21 9 164 138 31 51 202 217 22 39 121 
22 9 39 305 8 202 249 21 222 223 403 
23 8 84 312 397 289 364 262 398 246 
24 9 168 120 116 139 121 219 202 44 164 
25 9 7 242 198 244 227 91 137 211 166 
26 9 80 144 229 183 110 60 238 147 65 
27 7 432 272 278 356 417 332 326 
28 9 347 386 89 114 314 370 271 210 194 
29 9 200 41 371 45 393 399 160 151 388 
30 9 49 143 70 165 74 210 89 236 122 
31 9 164 51 138 21 193 217 202 139 199 
32 9 156 40 248 328 285 140 16 99 69 
33 5 311 336 421 395 330 
34 9 375 76 419 18 124 230 381 389 425 
35 9 36 378 133 423 47 367 369 43 273 
36 9 133 47 423 369 35 378 310 356 43 
37 9 387 273 302 350 313 353 298 209 255 
38 9 234 66 112 154 134 69 99 328 196 
39 9 22 305 8 249 403 268 223 202 222 
40 9 285 32 16 140 156 248 328 166 102 
41 9 29 200 371 45 393 399 160 297 151 
42 9 304 405 250 274 247 418 394 376 291 
43 9 417 367 423 27 35 432 47 36 203 
44 9 231 120 219 24 116 168 121 202 139 
45 9 371 41 200 29 297 189 4 160 258 
46 9 162 65 117 110 238 60 411 144 158 
47 9 369 36 423 133 356 288 310 35 378 
48 9 426 113 178 290 12 126 265 197 125 
49 9 143 30 165 70 210 74 89 122 236 
50 9 141 5 64 176 2 119 17 72 152 
51 9 31 138 164 21 193 217 63 139 199 
52 9 86 95 101 173 345 295 252 276 349 
53 9 128 93 186 9 221 340 290 130 68 
54 9 258 213 189 92 99 4 157 151 45 
55 7 392 332 401 294 71 377 327 
56 8 159 321 15 287 354 167 359 172 
57 9 131 237 226 152 6 64 61 91 137 
58 9 103 208 161 96 175 150 199 130 100 
59 9 220 179 224 157 85 280 145 102 184 
60 9 110 65 144 46 162 238 117 264 229 
61 9 235 226 251 237 129 146 81 152 158 
62 9 185 136 227 242 72 7 108 243 17 
63 9 175 217 297 138 51 208 103 45 31 
64 9 5 141 50 152 176 243 131 237 72 
65 9 60 110 46 117 162 144 238 215 301 
66 9 234 38 402 69 154 230 196 375 180 
67 9 351 324 172 215 385 228 301 411 117 
68 9 12 340 221 93 53 290 128 186 9 
69 9 328 234 148 427 66 248 38 407 352 
70 9 30 49 74 143 165 210 122 115 89 
71 9 401 327 320 55 392 261 257 332 377 
72 9 243 17 75 141 2 50 185 136 64 
73 9 81 235 61 184 226 167 232 204 146 
74 9 115 70 49 30 122 165 143 181 227 
75 9 17 136 2 185 239 72 169 109 94 
76 9 34 124 419 389 18 375 149 425 343 
77 9 267 11 325 318 308 106 365 203 434 
78 9 214 412 97 205 163 360 142 264 207 
79 9 349 286 276 341 345 295 170 266 308 
80 9 26 183 144 98 169 238 119 110 239 
81 9 73 235 61 226 167 146 129 184 232 
82 9 292 3 334 317 331 368 410 374 282 
83 9 420 19 107 337 252 309 173 95 342 
84 9 23 397 312 289 398 364 262 246 413 
85 9 224 280 184 59 220 161 179 157 150 
86 9 95 52 173 252 101 345 295 19 276 
87 9 388 362 346 14 344 269 339 393 399 
88 9 125 436 265 126 316 315 359 372 197 
89 9 114 28 386 406 293 370 105 236 314 
90 9 413 316 197 312 397 23 84 88 265 
91 9 137 242 7 244 25 166 243 57 211 
92 9 4 213 258 189 54 157 45 59 41 
93 9 53 128 186 9 221 290 340 68 130 
94 9 109 20 190 108 132 136 181 185 75 
95 9 86 52 173 252 101 345 19 83 107 
96 9 199 130 193 221 340 58 139 53 9 
97 9 214 205 78 412 264 147 163 142 360 
98 9 169 239 183 2 132 75 80 17 50 
99 9 54 156 32 38 258 213 189 328 151 
100 9 150 9 186 128 53 93 113 161 58 
101 9 52 345 295 86 95 173 170 349 276 
102 9 145 179 220 204 59 157 232 156 6 
103 9 208 58 175 161 96 63 199 130 150 
104 9 223 187 297 382 160 403 111 323 371 
105 9 406 293 370 114 386 233 314 89 236 
106 8 203 365 325 318 267 11 417 77 
107 9 19 337 309 83 342 420 173 174 276 
108 9 109 181 185 136 190 20 94 115 75 
109 9 94 20 190 108 136 181 185 132 75 
110 9 60 144 65 238 162 46 117 26 158 
111 7 323 382 160 339 269 388 87 
112 9 134 154 196 118 38 307 151 333 430 
113 9 178 290 426 48 186 9 128 93 53 
114 9 89 386 370 105 406 293 314 28 233 
115 9 181 108 190 20 227 74 122 109 185 
116 9 219 121 168 202 24 222 225 249 44 
117 9 215 301 65 46 67 348 60 228 351 
118 9 196 154 307 10 180 380 212 112 333 
119 9 176 5 251 50 158 141 152 129 64 
120 9 24 168 44 139 116 68 219 340 231 
121 9 202 116 219 249 222 22 21 225 164 
122 9 227 182 165 115 210 74 25 198 62 
123 8 275 430 14 344 331 374 333 346 
124 9 76 408 343 34 352 375 171 389 419 
125 9 88 436 265 126 316 315 372 197 359 
126 9 265 125 88 197 436 426 178 316 48 
127 8 400 216 335 228 379 300 253 135 
128 9 53 93 186 9 221 290 340 130 113 
129 9 158 146 251 61 235 162 119 176 238 
130 9 96 199 221 340 53 128 9 93 193 
131 9 57 237 152 226 64 61 5 251 176 
132 9 94 109 20 98 190 169 75 239 136 
133 9 36 378 310 47 369 35 423 381 288 
134 9 112 154 151 307 196 118 38 123 399 
135 9 431 253 414 400 335 246 216 379 433 
136 9 185 75 108 109 17 94 62 72 190 
137 9 91 7 242 244 166 25 211 57 6 
138 9 51 31 21 164 217 193 63 202 22 
139 9 193 199 31 168 96 130 51 164 24 
140 9 248 285 40 328 32 166 16 211 148 
141 9 50 5 64 2 176 72 17 243 119 
142 9 207 163 360 348 264 412 78 214 216 
143 9 49 30 165 210 89 70 74 236 114 
144 9 110 60 238 65 162 46 26 80 117 
145 9 102 179 220 204 59 232 157 6 224 
146 9 129 158 235 61 251 162 81 167 46 
147 9 229 205 264 214 412 97 78 207 60 
148 9 407 248 69 259 427 328 140 306 211 
149 9 389 422 425 435 76 171 343 209 124 
150 9 161 100 58 85 280 224 103 208 184 
151 9 399 393 29 41 134 200 14 362 112 
152 9 237 5 64 251 176 131 226 61 50 
153 9 282 317 409 206 410 218 355 283 334 
154 9 196 118 112 307 180 134 10 66 402 
155 9 326 377 329 332 392 288 261 55 320 
156 9 32 40 285 99 16 102 248 328 140 
157 9 59 220 179 213 92 102 145 54 4 
158 9 129 146 251 162 238 119 176 61 46 
159 9 321 56 15 167 411 354 172 287 324 
160 9 382 111 323 339 269 388 371 87 200 
161 9 150 58 208 103 85 224 280 100 184 
162 9 46 238 65 110 158 144 60 117 129 
163 9 360 142 207 78 433 412 348 214 216 
164 9 31 21 51 138 202 193 217 139 121 
165 9 210 143 49 30 122 182 89 28 74 
166 9 211 244 140 137 285 16 248 198 91 
167 9 321 159 56 15 81 411 235 73 146 
168 9 24 139 116 121 120 202 164 219 31 
169 9 239 98 2 75 183 17 132 50 141 
170 9 240 295 345 79 286 349 276 101 77 
171 8 343 435 408 149 124 389 352 383 
172 8 324 351 385 67 15 411 228 354 
173 9 95 86 19 107 252 52 276 83 349 
174 8 424 342 309 257 337 327 71 401 
175 9 63 208 103 58 217 51 4 138 297 
176 9 119 5 152 251 50 64 141 158 237 
177 7 390 277 279 281 358 195 366 
178 9 113 426 290 48 126 265 125 88 436 
179 9 220 145 102 59 157 204 232 224 85 
180 9 212 402 118 196 10 380 261 329 154 
181 9 108 190 20 115 109 94 185 136 62 
182 9 271 198 210 122 347 28 165 25 227 
183 9 80 98 169 239 2 26 119 50 141 
184 9 280 224 85 59 232 73 220 204 179 
185 9 136 108 75 62 109 17 94 72 181 
186 9 9 128 53 93 290 221 113 340 100 
187 5 403 223 104 296 382 
188 9 263 260 255 233 298 313 338 245 194 
189 9 258 54 213 92 4 45 41 29 200 
190 9 20 109 94 181 108 136 185 132 115 
191 8 256 322 241 357 373 254 361 396 
192 8 396 384 418 274 428 291 319 357 
193 9 199 139 51 96 31 130 164 138 21 
194 8 201 338 416 260 263 314 415 233 
195 8 358 279 281 390 395 177 363 33 
196 9 154 118 180 307 10 112 402 380 212 
197 9 126 90 265 88 125 316 413 436 426 
198 8 25 244 211 182 166 271 306 7 
199 9 96 130 193 139 221 340 51 58 103 
200 9 29 41 371 45 393 399 160 388 111 
201 8 416 415 194 338 383 391 270 245 
202 9 121 21 164 22 31 39 249 116 138 
203 8 106 365 325 417 318 267 278 11 
204 9 232 145 6 102 179 220 184 59 73 
205 9 214 412 97 264 78 147 207 142 163 
206 9 409 218 153 282 284 13 355 317 410 
207 9 142 163 264 348 360 412 214 78 205 
208 9 103 58 175 161 63 4 96 150 199 
209 9 425 353 422 389 149 419 273 76 350 
210 9 165 28 182 89 347 143 49 114 271 
211 9 166 244 140 198 148 25 248 137 285 
212 9 380 261 10 180 320 118 155 377 71 
213 9 54 258 92 189 4 157 99 45 59 
214 9 412 205 78 97 264 142 163 207 147 
215 9 301 67 228 117 348 351 385 324 127 
216 9 400 127 253 135 335 228 414 433 431 
217 9 138 63 51 21 31 164 297 104 175 
218 9 206 13 409 153 284 282 355 317 410 
219 9 116 121 225 222 168 24 202 249 44 
220 9 179 59 145 102 157 224 85 204 232 
221 9 340 53 93 128 130 186 9 68 96 
222 9 225 249 8 39 22 121 404 202 268 
223 8 403 104 187 305 39 8 22 217 
224 9 85 280 184 59 220 179 161 157 145 
225 9 222 249 404 8 121 39 22 202 303 
226 9 237 61 131 152 235 57 251 81 73 
227 9 122 62 25 7 242 115 182 185 198 
228 9 127 215 301 67 385 351 216 400 324 
229 9 147 26 264 60 205 144 110 412 214 
230 9 375 34 18 381 419 76 124 310 352 
231 9 44 120 219 116 24 168 121 225 202 
232 9 204 145 179 6 102 220 184 73 59 
233 9 314 260 370 263 386 188 105 194 338 
234 9 66 69 38 230 427 375 402 154 328 
235 9 81 61 73 146 226 129 251 167 237 
236 9 293 406 114 105 89 370 386 314 233 
237 9 152 226 131 61 57 251 64 5 176 
238 9 162 144 110 46 158 65 60 129 119 
239 9 169 2 98 75 17 141 50 183 72 
240 9 170 295 345 77 79 286 349 101 276 
241 8 254 361 373 322 191 256 429 299 
242 9 7 91 25 137 62 244 227 243 198 
243 9 72 17 64 141 50 62 75 5 2 
244 9 211 166 25 198 137 7 242 91 140 
245 8 391 338 435 416 422 263 201 194 
246 8 414 398 379 335 135 300 431 400 
247 9 304 42 376 405 250 274 394 418 291 
248 9 140 328 32 40 285 148 69 156 16 
249 9 222 225 22 39 8 121 202 404 268 
250 8 394 42 304 274 405 291 418 376 
251 9 129 158 152 176 61 237 119 146 226 
252 9 95 86 173 83 52 19 107 420 337 
253 9 135 431 400 216 414 433 335 127 246 
254 8 361 241 373 429 299 322 191 256 
255 9 298 313 350 188 263 302 260 353 387 
256 8 191 322 357 241 373 254 361 396 
257 5 424 327 174 342 401 
258 9 189 54 213 92 4 45 157 99 41 
259 8 306 407 270 148 383 427 415 408 
260 9 263 188 233 194 338 314 245 255 370 
261 9 320 212 377 71 155 380 55 326 392 
262 4 364 289 312 23 
263 9 260 188 233 338 194 245 255 314 391 
264 9 412 205 207 214 142 147 78 163 97 
265 9 126 125 88 436 197 426 178 316 90 
266 4 434 308 341 11 
267 7 11 318 325 308 77 434 365 
268 7 303 394 404 8 250 376 304 
269 8 339 388 87 346 111 323 362 344 
270 7 383 415 416 201 306 259 171 
271 8 347 415 28 270 182 201 306 383 
272 6 432 27 278 332 294 356 
273 9 37 387 302 350 353 209 313 298 378 
274 9 418 405 291 192 42 250 304 428 396 
275 5 366 123 368 344 346 
276 9 349 79 286 341 345 173 295 19 107 
277 3 390 177 281 
278 4 272 432 27 294 
279 7 358 195 281 390 177 277 363 
280 9 224 85 184 59 220 179 161 232 145 
281 6 390 279 358 195 277 177 
282 9 153 317 410 409 206 355 283 218 363 
283 9 355 363 410 409 282 317 284 195 206 
284 9 206 409 355 218 283 13 363 282 299 
285 9 40 16 140 248 32 156 166 328 6 
286 8 79 349 276 341 266 308 345 295 
287 6 359 315 354 372 56 436 
288 9 329 326 356 155 369 47 377 310 402 
289 6 364 262 23 312 84 300 
290 9 113 93 128 186 53 9 12 178 48 
291 8 418 428 274 192 296 250 396 384 
292 9 3 82 334 331 368 374 317 366 410 
293 9 406 105 236 114 89 370 386 233 314 
294 4 55 332 392 401 
295 9 345 101 170 349 79 276 52 286 240 
296 4 428 291 418 192 
297 9 45 371 104 41 200 160 63 29 217 
298 9 313 255 350 302 188 353 37 387 263 
299 8 429 395 254 361 195 358 33 241 
300 7 379 335 246 400 127 289 414 
301 9 215 228 67 348 117 351 385 127 324 
302 9 387 37 273 350 313 298 255 353 209 
303 8 404 268 376 394 250 304 42 247 
304 9 42 247 250 405 376 394 274 418 291 
305 8 39 8 22 403 223 268 187 104 
306 8 259 407 270 383 415 148 271 427 
307 9 333 10 118 430 380 374 196 154 112 
308 6 11 267 434 266 318 286 
309 9 337 342 107 174 420 19 424 83 257 
310 9 133 381 378 36 369 47 18 288 230 
311 4 421 336 33 330 
312 8 23 289 364 84 262 397 413 316 
313 9 350 298 255 353 302 37 387 188 273 
314 9 386 370 233 194 260 105 263 114 28 
315 9 372 287 436 125 88 359 56 265 178 
316 8 90 312 413 88 359 125 436 262 
317 9 282 410 153 409 334 283 355 206 363 
318 6 11 267 325 308 434 365 
319 4 384 396 428 192 
320 9 261 71 377 401 212 55 327 392 155 
321 9 159 167 15 56 411 172 324 354 146 
322 8 256 191 373 357 241 254 361 396 
323 6 111 382 160 339 269 388 
324 7 172 351 385 67 15 411 228 
325 8 318 267 365 106 11 203 77 308 
326 9 155 377 329 332 392 288 55 356 261 
327 7 401 71 257 424 55 174 320 
328 9 248 69 32 140 148 40 285 156 38 
329 9 288 155 326 377 356 402 180 261 332 
330 4 336 311 421 33 
331 9 368 374 430 3 366 292 333 275 123 
332 8 392 55 294 377 326 401 155 71 
333 9 430 374 307 331 10 123 380 3 368 
334 9 82 292 3 317 410 282 153 331 368 
335 8 379 300 400 127 414 246 135 253 
336 4 330 311 421 33 
337 8 309 107 19 420 342 174 83 424 
338 8 245 391 416 194 201 260 263 435 
339 8 269 111 323 388 382 87 160 346 
340 9 221 53 68 93 128 130 186 9 96 
341 5 266 286 276 79 349 
342 8 424 309 174 337 257 107 19 341 
343 9 171 408 124 435 149 352 76 389 422 
344 8 14 346 362 87 388 393 269 399 
345 9 295 101 349 79 276 52 170 286 86 
346 7 344 87 14 362 388 269 339 
347 8 28 271 415 386 201 314 194 210 
348 9 301 215 207 228 142 216 117 127 67 
349 9 276 79 286 345 341 295 173 170 266 
350 9 313 298 255 353 302 37 387 273 209 
351 8 324 67 172 385 228 215 301 411 
352 9 408 427 124 343 171 76 375 34 407 
353 9 209 422 425 350 313 149 389 298 273 
354 3 359 287 56 
355 9 283 363 409 410 282 284 206 317 153 
356 9 369 27 47 288 326 432 272 423 329 
357 8 322 396 192 384 256 191 373 319 
358 7 195 279 281 390 177 395 277 
359 5 287 354 316 436 88 
360 9 163 142 433 207 78 412 216 253 348 
361 8 254 241 373 299 429 322 191 256 
362 9 14 87 344 346 388 393 399 269 339 
363 9 283 355 195 358 279 410 177 390 409 
364 6 289 262 312 23 84 300 
365 8 203 106 325 318 267 278 11 417 
366 4 368 277 177 275 
367 9 43 35 417 423 36 47 369 133 378 
368 6 366 331 275 277 177 292 
369 9 47 36 423 356 133 288 310 27 35 
370 9 386 314 233 105 114 260 406 194 89 
371 9 41 200 45 29 297 160 111 382 323 
372 9 315 287 436 125 88 359 56 178 265 
373 8 322 241 254 361 256 191 357 429 
374 9 430 333 331 3 307 368 123 292 82 
375 9 34 230 18 76 419 124 381 352 408 
376 9 304 394 247 42 303 250 405 404 268 
377 9 155 326 392 332 55 261 320 71 329 
378 9 133 36 35 310 381 47 273 369 423 
379 8 300 335 246 400 127 414 135 289 
380 9 10 212 261 307 118 180 320 333 196 
381 9 18 419 310 230 34 375 76 378 133 
382 7 111 323 160 339 269 388 104 
383 8 270 415 416 201 435 171 391 343 
384 6 396 319 192 428 418 357 
385 7 351 324 172 67 228 127 300 
386 9 370 314 114 233 105 28 89 194 260 
387 9 37 302 273 350 313 298 353 209 255 
388 9 87 269 362 339 346 14 344 393 111 
389 9 149 425 422 76 209 419 124 343 171 
390 6 281 279 358 277 177 195 
391 8 245 338 435 416 422 149 201 171 
392 8 332 55 377 294 401 326 71 155 
393 9 399 362 14 87 344 388 346 151 29 
394 8 250 304 376 42 303 268 274 247 
395 8 429 299 33 195 358 279 336 281 
396 7 384 192 319 428 357 418 274 
397 9 84 23 312 413 289 364 398 262 90 
398 8 246 414 84 23 431 135 397 379 
399 9 393 362 14 151 344 87 388 346 29 
400 9 127 335 216 253 135 379 414 300 431 
401 8 71 327 55 392 294 257 332 320 
402 9 180 329 196 288 66 118 154 155 212 
403 6 223 187 305 296 8 104 
404 9 303 268 376 394 8 250 304 42 247 
405 9 42 274 304 418 247 250 192 291 396 
406 9 293 105 236 114 89 370 386 233 314 
407 8 259 148 306 427 352 408 270 383 
408 9 352 124 343 171 427 76 34 375 149 
409 9 206 282 153 355 218 410 283 284 317 
410 9 317 282 153 283 355 409 363 206 334 
411 9 15 172 324 321 351 67 159 385 46 
412 9 214 205 78 264 97 142 207 163 360 
413 9 90 397 312 316 84 23 197 289 364 
414 8 135 431 246 253 335 400 379 398 
415 7 201 416 383 270 194 338 391 
416 8 201 415 338 383 194 391 245 270 
417 9 43 203 432 365 27 106 367 423 272 
418 9 274 291 192 405 428 396 42 384 250 
419 9 18 34 76 375 389 381 425 124 149 
420 9 83 337 309 107 19 342 174 252 173 
421 3 311 336 33 
422 9 149 425 389 353 209 435 391 245 171 
423 9 47 36 369 43 35 356 133 27 417 
424 8 174 257 342 327 309 401 71 337 
425 9 389 209 149 422 353 76 419 18 34 
426 9 48 178 113 126 265 290 125 197 12 
427 9 352 408 407 124 343 148 171 375 69 
428 7 291 192 384 319 396 418 296 
429 8 395 299 33 254 373 361 336 330 
430 9 333 374 331 123 307 368 275 3 10 
431 9 135 414 253 246 433 400 335 398 216 
432 5 27 272 278 356 417 
433 9 253 431 135 216 360 414 400 163 127 
434 4 266 308 11 318 
435 8 391 171 149 343 245 422 389 383 
436 9 88 125 265 126 315 372 359 316 287 
DEPOT_SECTION
   1
   -1
EOF
