NAME :  X-n439-kX-w175-c7.cctp
COMMENT : 	Adapted by Maziero, Usberti and Cavellucci from the Uchoa, Pecin, Pessoa, Poggi, Subramanian, and Vidal (2013)
TYPE :  CCTP
DIMENSION :    398
EDGE_WEIGHT_TYPE : 	EUC_2D	
CAPACITY : 	12
VERTICES_WITHIN_COVERAGE :  7
VERTICES_WITH_DEMAND : 	175
NODE_COORD_SECTION
1 500 500
2 769 259
3 91 377
4 108 338
5 816 567
6 698 341
7 741 237
8 601 140
9 63 359
10 215 608
11 979 914
12 911 697
13 440 593
14 922 765
15 185 756
16 486 158
17 993 628
18 241 33
19 200 756
20 856 440
21 471 712
22 929 649
23 811 44
24 125 727
25 830 484
26 568 366
27 261 394
28 478 965
29 726 474
30 68 952
31 747 716
32 678 366
33 17 603
34 169 689
35 916 565
36 564 913
37 268 681
38 937 878
39 370 634
40 555 847
41 246 911
42 267 333
43 166 257
44 147 179
45 418 383
46 382 886
47 312 911
48 416 186
49 457 582
50 334 882
51 269 710
52 513 910
53 739 882
54 503 682
55 451 911
56 171 656
57 843 44
58 94 165
59 726 411
60 197 498
61 49 726
62 645 224
63 915 247
64 981 775
65 844 973
66 519 268
67 291 97
68 986 589
69 414 719
70 407 720
71 82 782
72 255 312
73 151 291
74 831 520
75 970 760
76 912 77
77 150 909
78 638 624
79 585 630
80 655 287
81 708 178
82 503 504
83 14 634
84 261 106
85 825 599
86 433 646
87 298 153
88 88 970
89 704 58
90 258 52
91 930 209
92 570 72
93 252 338
94 141 741
95 353 966
96 718 880
97 581 608
98 69 246
99 469 225
100 623 619
101 501 929
102 359 117
103 128 931
104 953 786
105 30 752
106 157 419
107 637 668
108 454 640
109 888 420
110 937 231
111 252 161
112 453 708
113 995 666
114 998 151
115 687 778
116 350 281
117 977 113
118 970 790
119 604 21
120 128 917
121 664 777
122 310 275
123 122 40
124 846 937
125 586 561
126 806 751
127 312 123
128 139 930
129 479 760
130 69 875
131 698 197
132 726 250
133 782 561
134 43 320
135 757 331
136 898 518
137 133 541
138 497 279
139 418 234
140 25 118
141 880 166
142 529 957
143 565 758
144 60 701
145 567 295
146 66 72
147 535 391
148 30 683
149 447 677
150 362 365
151 618 766
152 540 747
153 972 449
154 500 86
155 555 154
156 275 341
157 299 644
158 890 504
159 42 970
160 496 177
161 789 679
162 770 402
163 229 264
164 545 735
165 504 867
166 708 580
167 218 232
168 339 760
169 710 910
170 99 352
171 564 708
172 875 761
173 376 398
174 667 49
175 774 666
176 728 515
177 676 316
178 961 518
179 811 724
180 551 563
181 484 538
182 862 621
183 589 636
184 574 712
185 77 733
186 476 800
187 107 535
188 642 249
189 793 754
190 37 871
191 760 614
192 420 78
193 312 676
194 329 322
195 919 95
196 605 144
197 763 884
198 528 760
199 9 106
200 214 887
201 323 338
202 253 819
203 628 365
204 597 761
205 128 138
206 705 400
207 571 979
208 931 739
209 764 26
210 162 169
211 338 947
212 718 807
213 769 882
214 480 60
215 635 657
216 292 467
217 136 228
218 593 769
219 866 390
220 813 727
221 271 154
222 196 682
223 330 261
224 250 283
225 358 273
226 950 598
227 244 524
228 583 858
229 388 295
230 677 853
231 748 608
232 254 471
233 301 270
234 115 623
235 159 246
236 900 400
237 393 252
238 847 676
239 429 275
240 281 865
241 842 436
242 320 268
243 232 202
244 503 302
245 362 128
246 222 615
247 952 426
248 589 627
249 400 209
250 141 757
251 730 710
252 242 378
253 175 791
254 194 777
255 190 651
256 730 646
257 50 248
258 353 270
259 652 784
260 306 316
261 390 185
262 767 916
263 950 134
264 259 336
265 405 778
266 176 687
267 687 796
268 164 230
269 631 800
270 475 364
271 644 787
272 387 115
273 430 195
274 159 665
275 777 779
276 784 688
277 802 671
278 273 68
279 115 719
280 201 591
281 126 178
282 328 138
283 170 673
284 43 227
285 964 859
286 949 412
287 645 937
288 88 608
289 469 662
290 194 760
291 307 322
292 814 726
293 44 357
294 249 222
295 754 663
296 457 666
297 302 159
298 685 772
299 224 678
300 119 717
301 392 252
302 611 940
303 421 282
304 360 280
305 312 272
306 359 422
307 930 449
308 727 839
309 865 435
310 865 403
311 652 771
312 640 408
313 574 311
314 205 298
315 290 86
316 904 421
317 439 192
318 899 450
319 623 138
320 230 220
321 246 268
322 155 167
323 164 337
324 23 271
325 432 202
326 296 166
327 347 322
328 943 753
329 206 641
330 795 780
331 796 849
332 196 585
333 189 611
334 818 409
335 95 550
336 727 707
337 190 624
338 161 32
339 739 302
340 769 778
341 68 320
342 952 269
343 193 734
344 605 969
345 130 185
346 418 214
347 978 671
348 952 836
349 344 269
350 270 271
351 771 647
352 397 238
353 196 8
354 238 225
355 49 245
356 826 339
357 266 151
358 914 448
359 878 317
360 68 190
361 298 259
362 883 786
363 839 318
364 243 672
365 652 671
366 66 242
367 668 495
368 343 94
369 215 0
370 269 280
371 676 898
372 282 320
373 185 62
374 994 368
375 251 159
376 56 273
377 133 311
378 239 64
379 378 491
380 252 657
381 182 66
382 748 760
383 154 103
384 656 923
385 230 160
386 363 344
387 1 293
388 729 319
389 285 650
390 331 10
391 199 630
392 781 445
393 590 258
394 56 412
395 208 238
396 197 739
397 455 395
398 242 222
DEMAND_SECTION
2 1
3 1
4 1
5 1
6 1
7 1
8 1
9 1
10 1
11 1
12 1
13 1
14 1
15 1
16 1
17 1
18 1
19 1
20 1
21 1
22 1
23 1
24 1
25 1
26 1
27 1
28 1
29 1
30 1
31 1
32 1
33 1
34 1
35 1
36 1
37 1
38 1
39 1
40 1
41 1
42 1
43 1
44 1
45 1
46 1
47 1
48 1
49 1
50 1
51 1
52 1
53 1
54 1
55 1
56 1
57 1
58 1
59 1
60 1
61 1
62 1
63 1
64 1
65 1
66 1
67 1
68 1
69 1
70 1
71 1
72 1
73 1
74 1
75 1
76 1
77 1
78 1
79 1
80 1
81 1
82 1
83 1
84 1
85 1
86 1
87 1
88 1
89 1
90 1
91 1
92 1
93 1
94 1
95 1
96 1
97 1
98 1
99 1
100 1
101 1
102 1
103 1
104 1
105 1
106 1
107 1
108 1
109 1
110 1
111 1
112 1
113 1
114 1
115 1
116 1
117 1
118 1
119 1
120 1
121 1
122 1
123 1
124 1
125 1
126 1
127 1
128 1
129 1
130 1
131 1
132 1
133 1
134 1
135 1
136 1
137 1
138 1
139 1
140 1
141 1
142 1
143 1
144 1
145 1
146 1
147 1
148 1
149 1
150 1
151 1
152 1
153 1
154 1
155 1
156 1
157 1
158 1
159 1
160 1
161 1
162 1
163 1
164 1
165 1
166 1
167 1
168 1
169 1
170 1
171 1
172 1
173 1
174 1
175 1
176 1
COVERAGE_SECTION
2 7 7 132 339 388 135 363 131 
3 7 170 9 4 394 293 341 134 
4 7 170 377 3 341 9 323 73 
5 7 85 133 74 182 191 231 25 
6 7 32 177 388 339 206 135 80 
7 7 132 2 131 339 81 388 135 
8 7 196 319 155 92 62 160 174 
9 7 293 3 170 341 134 4 394 
10 7 246 280 333 391 332 337 329 
11 7 38 285 348 118 104 124 64 
12 7 208 22 328 238 14 347 172 
13 7 49 108 86 181 289 296 39 
14 7 328 208 104 362 172 75 118 
15 7 290 19 396 254 343 253 250 
16 7 160 317 273 99 155 325 154 
17 7 113 68 347 226 22 35 12 
18 7 90 378 369 278 353 373 381 
19 7 290 15 396 254 343 253 250 
20 7 309 241 109 310 318 334 25 
21 7 112 149 54 296 129 289 69 
22 7 12 347 226 17 113 182 68 
23 7 57 209 76 89 195 141 174 
24 7 300 279 94 250 185 34 266 
25 7 74 241 20 309 158 392 136 
26 7 147 313 203 145 312 244 270 
27 7 252 156 93 264 42 232 372 
28 7 101 142 55 52 207 36 165 
29 7 176 367 392 59 206 162 133 
30 7 88 159 103 120 128 130 190 
31 7 251 336 382 276 295 161 175 
32 7 6 206 177 203 312 59 388 
33 7 83 288 148 335 234 144 187 
34 7 266 283 274 222 56 255 343 
35 7 226 136 178 158 68 182 22 
36 7 52 302 142 228 101 207 40 
37 7 364 51 380 389 193 299 157 
38 7 285 348 11 104 118 362 124 
39 7 86 157 193 13 108 389 149 
40 5 228 165 36 52 218 
41 7 200 240 47 202 50 77 211 
42 7 264 156 93 372 72 291 260 
43 7 235 268 73 217 395 314 167 
44 7 322 210 345 281 205 217 268 
45 7 397 173 150 270 386 306 229 
46 7 50 55 47 211 95 240 265 
47 7 50 211 240 41 95 46 200 
48 6 273 325 317 261 249 346 
49 7 13 181 108 86 289 296 82 
50 7 47 46 240 211 95 41 202 
51 6 37 364 193 299 380 389 
52 7 101 165 142 36 55 28 40 
53 7 96 197 213 169 262 308 371 
54 7 289 21 296 112 149 108 171 
55 7 101 28 52 165 46 142 95 
56 7 274 283 255 266 34 222 337 
57 7 23 76 209 195 141 89 263 
58 7 281 360 345 205 44 322 210 
59 7 206 162 29 392 32 6 135 
60 7 227 232 137 332 106 280 187 
61 7 144 185 105 148 71 279 300 
62 7 188 131 80 393 81 132 196 
63 6 110 91 342 359 141 363 
64 7 75 118 104 328 14 208 348 
65 7 124 262 213 197 38 331 53 
66 7 138 244 145 99 313 393 239 
67 7 315 84 127 278 368 282 87 
68 7 226 17 35 178 113 347 22 
69 7 70 112 149 21 265 296 86 
70 7 69 112 265 149 21 296 86 
71 7 185 105 250 61 24 279 94 
72 7 42 264 93 372 224 156 370 
73 7 377 43 235 323 314 268 4 
74 7 25 5 158 133 136 85 20 
75 7 64 328 118 104 208 14 348 
76 7 195 263 117 57 141 23 114 
77 7 120 128 103 200 88 130 30 
78 7 100 215 107 248 365 183 79 
79 7 248 183 97 100 78 215 107 
80 7 177 188 62 6 393 132 388 
81 7 131 7 132 62 319 188 2 
82 7 181 180 49 125 13 147 397 
83 7 33 148 288 144 61 234 185 
84 7 67 315 278 357 378 221 90 
85 7 5 182 133 191 351 277 231 
86 7 108 296 149 289 13 39 112 
87 6 297 326 221 357 127 282 
88 7 30 159 103 128 120 77 130 
89 7 174 209 119 23 319 81 196 
90 7 278 378 18 315 84 67 369 
91 7 110 63 342 141 263 114 117 
92 7 119 154 8 196 155 319 214 
93 7 264 42 156 72 372 252 224 
94 7 250 24 300 279 15 343 290 
95 7 211 47 46 50 55 41 240 
96 7 53 169 308 197 371 230 213 
97 7 248 79 183 100 125 180 78 
98 7 366 257 355 376 284 324 360 
99 7 325 317 273 139 346 160 138 
100 7 78 248 183 79 215 97 107 
101 7 52 142 28 55 165 36 207 
102 5 245 272 368 282 127 
103 7 128 120 77 88 30 130 159 
104 7 118 64 75 328 14 348 208 
105 7 61 185 144 71 148 279 300 
106 7 3 323 60 170 252 4 394 
107 7 215 365 78 100 183 248 79 
108 7 86 296 289 149 13 49 54 
109 7 316 236 309 310 318 219 20 
110 7 91 63 342 141 263 114 359 
111 5 375 357 221 385 326 
112 7 21 149 69 296 70 289 54 
113 7 347 17 22 68 226 12 75 
114 7 117 263 91 195 110 76 141 
115 7 298 267 121 259 311 212 271 
116 7 304 225 258 349 223 242 305 
117 7 263 114 195 76 91 141 110 
118 7 104 64 75 328 348 14 208 
119 7 92 174 89 8 319 154 196 
120 7 103 128 77 88 30 130 200 
121 7 311 259 271 298 115 267 269 
122 6 305 233 242 361 223 349 
123 7 338 146 381 373 383 353 205 
124 7 65 262 213 197 331 38 53 
125 7 180 97 248 79 100 183 78 
126 7 189 220 292 179 330 275 340 
127 7 282 67 87 297 368 315 326 
128 7 103 120 77 88 30 200 130 
129 7 186 21 198 112 152 164 265 
130 7 190 120 30 103 77 128 71 
131 7 81 7 62 132 188 2 319 
132 7 7 2 339 131 388 81 80 
133 7 5 85 191 231 74 176 166 
134 7 341 293 9 376 387 324 170 
135 7 388 339 6 356 162 2 177 
136 7 158 35 178 74 318 358 25 
137 7 187 335 60 332 288 234 280 
138 7 244 66 99 239 145 303 313 
139 7 346 352 237 249 301 325 273 
140 7 199 146 58 360 205 284 281 
141 7 91 263 195 110 63 76 117 
142 7 101 207 52 28 36 344 302 
143 7 152 164 218 204 198 184 171 
144 7 61 148 185 279 105 300 24 
145 7 313 393 66 244 26 138 80 
146 7 140 123 199 205 383 58 338 
147 7 26 270 397 313 244 203 145 
148 7 144 61 83 105 185 33 279 
149 7 296 289 112 86 108 21 69 
150 7 386 173 327 201 194 306 45 
151 7 204 218 271 311 269 259 121 
152 7 164 198 143 171 184 218 204 
153 7 247 307 286 358 178 318 316 
154 7 214 92 16 192 155 160 8 
155 7 8 196 160 16 319 92 154 
156 7 42 264 372 93 72 291 260 
157 7 389 193 37 380 364 39 51 
158 7 136 318 74 358 25 35 307 
159 7 30 88 103 130 190 120 128 
160 7 16 99 317 155 273 325 48 
161 7 276 277 175 351 295 179 292 
162 7 392 59 334 206 135 241 29 
163 7 321 224 395 167 354 314 350 
164 7 152 143 198 171 184 204 218 
165 7 52 40 101 55 186 36 228 
166 7 231 191 176 256 133 78 351 
167 7 395 320 354 398 243 294 163 
168 7 265 70 69 51 193 202 37 
169 7 96 371 53 384 262 197 213 
170 7 4 3 9 341 377 293 134 
171 7 184 164 152 143 204 198 54 
172 7 362 14 208 328 126 292 220 
173 7 306 150 45 386 397 201 327 
174 7 89 119 319 92 209 8 196 
175 7 351 161 295 276 277 256 191 
176 7 29 367 166 133 392 231 5 
177 7 6 80 32 388 339 203 188 
178 7 136 35 153 158 68 307 226 
179 7 220 292 126 189 276 161 277 
180 7 125 97 181 248 79 82 183 
181 7 82 49 13 180 125 108 379 
182 7 85 238 5 22 35 277 12 
183 7 79 248 97 100 78 215 107 
184 7 171 164 143 152 204 218 198 
185 7 61 144 279 300 24 71 105 
186 7 129 198 165 265 152 21 40 
187 7 335 137 288 234 60 332 280 
188 7 62 80 393 177 131 132 145 
189 7 126 330 275 220 340 179 292 
190 7 130 30 159 71 120 103 88 
191 7 231 351 256 295 175 133 166 
192 6 272 214 102 245 368 154 
193 7 157 389 37 51 380 364 39 
194 7 201 327 291 260 386 116 372 
195 7 76 263 117 141 57 114 91 
196 7 8 319 155 92 62 131 81 
197 7 213 53 262 96 331 308 169 
198 7 152 164 143 129 171 184 186 
199 7 140 146 58 360 205 284 123 
200 7 41 77 240 202 128 120 103 
201 7 194 291 260 327 386 372 150 
202 7 240 254 200 19 253 290 41 
203 7 312 32 26 177 6 313 80 
204 7 218 151 143 269 184 271 311 
205 7 281 322 58 383 44 210 345 
206 7 59 32 6 162 312 29 388 
207 7 344 142 302 36 287 101 52 
208 7 328 14 75 12 104 172 64 
209 7 23 89 57 174 76 119 81 
210 7 322 44 345 281 205 268 217 
211 7 95 47 50 46 41 240 55 
212 5 267 308 115 298 382 
213 7 197 53 262 331 96 308 169 
214 7 154 192 92 16 272 160 155 
215 7 107 365 78 100 183 248 79 
216 7 232 227 27 306 379 60 252 
217 7 268 235 43 345 44 281 210 
218 7 204 151 143 269 271 152 164 
219 5 310 236 109 309 316 
220 7 292 179 126 189 276 161 330 
221 6 357 111 375 87 326 297 
222 6 266 34 283 299 255 56 
223 6 242 349 305 122 258 116 
224 7 321 370 350 163 72 314 372 
225 7 258 304 116 349 223 229 242 
226 7 68 35 17 22 347 178 113 
227 7 60 232 216 332 280 10 246 
228 2 40 36 
229 7 304 303 225 116 237 258 301 
230 2 371 96 
231 7 191 256 351 166 295 133 175 
232 7 216 227 60 27 252 106 306 
233 6 122 305 361 242 223 350 
234 7 288 274 56 283 333 337 335 
235 7 43 268 217 73 395 167 44 
236 7 316 109 219 310 309 286 318 
237 6 301 352 139 225 303 229 
238 7 277 182 161 179 292 220 276 
239 7 303 139 237 301 229 352 346 
240 7 202 47 50 41 200 211 46 
241 7 20 309 334 310 25 109 219 
242 6 305 122 223 233 349 361 
243 6 320 398 354 294 167 385 
244 7 138 66 145 270 313 239 99 
245 4 102 272 282 368 
246 7 10 391 329 280 333 337 332 
247 7 286 153 307 358 316 236 318 
248 7 79 183 97 100 78 215 107 
249 5 346 261 48 352 139 
250 7 94 24 15 279 300 253 290 
251 7 336 31 295 382 276 175 256 
252 7 27 93 264 156 42 72 372 
253 7 254 15 290 19 250 396 94 
254 7 290 19 15 253 396 343 250 
255 6 329 56 391 337 283 222 
256 7 295 351 231 191 175 336 251 
257 6 355 366 98 284 376 324 
258 7 225 349 116 304 223 242 305 
259 5 271 311 121 269 298 
260 7 291 194 372 201 156 122 327 
261 2 48 249 
262 7 197 213 53 169 96 331 124 
263 7 117 195 114 76 141 91 110 
264 7 93 42 156 72 372 252 291 
265 7 70 69 168 186 129 112 21 
266 6 34 283 222 274 56 255 
267 6 115 298 121 212 259 311 
268 7 235 43 217 395 44 167 345 
269 4 271 259 151 311 
270 7 397 45 147 244 138 26 303 
271 5 259 269 311 121 151 
272 4 102 245 368 192 
273 7 325 317 48 346 249 139 261 
274 7 283 56 34 266 255 222 337 
275 5 340 330 189 382 126 
276 7 161 175 277 295 351 179 31 
277 7 161 276 175 351 238 295 179 
278 7 90 315 67 378 84 18 127 
279 7 300 24 94 185 250 144 34 
280 7 332 10 333 246 337 391 329 
281 7 345 44 322 58 210 205 217 
282 6 127 297 87 245 102 326 
283 7 274 266 34 56 222 255 329 
284 6 355 257 366 98 360 324 
285 7 348 38 11 118 104 64 75 
286 7 247 307 153 316 236 358 109 
287 6 384 302 371 344 169 36 
288 7 234 335 33 187 83 137 274 
289 7 296 108 149 54 86 112 21 
290 7 19 15 254 396 343 253 250 
291 7 260 194 201 372 156 327 42 
292 7 220 179 126 189 276 161 277 
293 7 9 134 341 3 170 394 4 
294 5 398 354 320 243 167 
295 7 175 351 256 161 276 191 277 
296 7 289 149 108 86 112 21 54 
297 5 87 326 221 282 127 
298 7 115 121 267 311 259 271 212 
299 6 364 222 380 329 255 37 
300 7 279 24 94 185 250 34 144 
301 5 237 352 139 225 303 
302 6 344 287 384 36 207 371 
303 7 239 229 237 301 139 352 304 
304 7 225 116 258 349 229 223 242 
305 6 122 242 233 361 223 349 
306 7 173 150 45 379 386 216 201 
307 7 358 318 247 316 153 286 109 
308 5 212 96 53 230 197 
309 7 20 241 109 310 318 316 219 
310 7 219 109 309 236 20 241 316 
311 7 121 259 271 298 151 115 269 
312 7 203 32 206 26 59 6 367 
313 7 145 26 393 66 244 203 138 
314 7 163 224 321 72 73 43 323 
315 7 67 278 84 127 90 368 378 
316 7 109 236 318 358 307 309 310 
317 7 273 325 48 346 249 99 139 
318 7 358 316 307 109 309 20 236 
319 7 196 8 155 92 62 81 131 
320 7 354 398 167 243 294 395 163 
321 7 224 163 350 370 354 72 167 
322 7 210 44 281 345 205 58 217 
323 7 377 73 4 314 170 43 106 
324 6 387 376 257 355 284 98 
325 7 273 317 346 48 249 139 99 
326 4 297 87 221 357 
327 7 194 386 201 291 116 260 304 
328 7 208 14 75 104 64 118 12 
329 6 391 255 337 246 10 333 
330 4 275 189 340 126 
331 4 213 197 53 330 
332 7 280 333 10 337 246 391 329 
333 7 337 391 280 10 332 246 329 
334 7 241 310 20 162 219 392 309 
335 7 187 137 288 234 33 332 333 
336 7 251 31 295 382 276 256 175 
337 7 391 333 329 255 10 246 280 
338 7 373 123 381 353 369 383 18 
339 7 388 135 2 132 6 7 177 
340 5 275 330 382 189 126 
341 7 134 9 4 293 170 376 3 
342 5 110 63 91 359 374 
343 7 396 15 19 290 254 266 34 
344 6 302 207 287 36 384 142 
345 7 281 44 322 210 58 217 205 
346 7 325 249 139 273 48 317 352 
347 7 113 17 22 12 226 68 208 
348 7 285 38 118 104 64 14 75 
349 7 258 116 225 223 304 242 305 
350 7 370 224 321 361 233 122 163 
351 7 175 295 191 161 277 256 276 
352 5 237 301 139 249 346 
353 7 369 338 18 373 381 378 90 
354 7 398 320 294 167 243 395 163 
355 6 257 366 284 98 376 324 
356 4 363 359 219 135 
357 7 221 111 375 87 326 297 385 
358 7 318 307 316 109 247 236 286 
359 4 363 356 219 63 
360 7 58 284 366 98 355 281 257 
361 5 233 305 122 242 350 
362 7 172 14 208 328 104 126 348 
363 4 356 359 219 135 
364 6 380 299 37 51 389 222 
365 7 107 215 78 100 183 248 79 
366 7 98 257 355 284 376 324 360 
367 7 29 176 312 166 59 206 125 
368 7 102 245 127 282 272 67 315 
369 7 353 18 338 90 378 373 381 
370 7 350 224 321 233 72 361 122 
371 6 384 169 230 96 287 53 
372 7 42 156 260 291 72 264 93 
373 7 381 338 383 378 353 18 123 
374 7 286 247 153 236 307 316 342 
375 5 111 357 221 385 326 
376 6 257 355 98 324 366 284 
377 7 73 4 323 170 43 341 235 
378 7 90 18 278 84 373 315 381 
379 7 306 216 173 45 181 13 49 
380 6 364 37 389 299 157 329 
381 7 373 338 383 378 353 123 18 
382 6 340 275 31 189 330 251 
383 7 205 381 373 322 210 123 338 
384 6 287 371 302 169 344 230 
385 5 375 111 357 221 243 
386 7 150 327 194 201 229 173 291 
387 6 324 134 376 257 355 341 
388 7 339 135 6 177 32 132 2 
389 7 157 380 37 193 364 51 299 
390 7 278 90 368 315 18 67 378 
391 7 337 329 333 255 10 246 56 
392 7 162 334 29 241 25 59 20 
393 7 145 188 313 62 80 66 138 
394 7 3 9 293 170 4 134 341 
395 7 167 320 163 354 398 243 294 
396 7 343 19 15 290 254 94 253 
397 7 270 45 173 147 150 306 244 
398 6 354 294 320 243 167 395 
DEPOT_SECTION
   1
   -1
EOF
