NAME :  X-n420-kX-w83-c11.cctp
COMMENT : 	Adapted by Maziero, Usberti and Cavellucci from the Uchoa, Pecin, Pessoa, Poggi, Subramanian, and Vidal (2013)
TYPE :  CCTP
DIMENSION :    340
EDGE_WEIGHT_TYPE : 	EUC_2D	
CAPACITY : 	18
VERTICES_WITHIN_COVERAGE :  11
VERTICES_WITH_DEMAND : 	83
NODE_COORD_SECTION
1 500 500
2 707 633
3 405 122
4 811 419
5 11 667
6 336 612
7 366 50
8 98 836
9 414 996
10 243 713
11 100 232
12 891 946
13 132 204
14 25 642
15 994 18
16 636 897
17 214 651
18 108 619
19 882 399
20 863 607
21 409 585
22 247 882
23 553 507
24 677 258
25 673 644
26 25 182
27 251 111
28 263 799
29 660 359
30 351 288
31 172 127
32 382 441
33 231 650
34 966 485
35 964 107
36 876 164
37 949 328
38 936 70
39 229 744
40 161 214
41 581 594
42 154 860
43 23 374
44 736 600
45 594 542
46 846 684
47 355 471
48 675 597
49 663 653
50 61 889
51 685 150
52 129 248
53 161 301
54 180 836
55 427 670
56 833 860
57 669 251
58 411 403
59 450 926
60 591 505
61 468 157
62 288 484
63 574 955
64 795 521
65 41 65
66 175 486
67 74 436
68 907 13
69 579 912
70 765 835
71 176 189
72 972 351
73 470 22
74 577 469
75 561 672
76 110 670
77 811 614
78 460 344
79 862 486
80 22 369
81 898 295
82 89 934
83 164 871
84 487 617
85 731 565
86 470 722
87 509 209
88 860 845
89 515 312
90 434 712
91 388 521
92 573 250
93 155 316
94 143 923
95 247 971
96 641 297
97 763 749
98 585 887
99 987 361
100 153 215
101 150 669
102 76 153
103 456 635
104 778 497
105 334 529
106 764 789
107 963 378
108 262 404
109 32 672
110 118 874
111 931 462
112 168 831
113 443 2
114 571 812
115 185 964
116 368 628
117 366 788
118 48 374
119 8 464
120 459 77
121 345 357
122 315 149
123 458 286
124 974 86
125 167 854
126 441 425
127 646 948
128 444 937
129 950 129
130 866 18
131 915 849
132 119 279
133 319 332
134 832 902
135 421 365
136 963 71
137 478 741
138 443 54
139 509 966
140 70 520
141 311 207
142 648 127
143 371 345
144 154 221
145 475 537
146 322 738
147 118 284
148 297 415
149 530 967
150 752 797
151 394 589
152 482 59
153 497 863
154 171 716
155 610 528
156 405 568
157 638 940
158 940 914
159 4 886
160 215 994
161 294 675
162 121 701
163 143 460
164 14 530
165 383 815
166 982 781
167 424 566
168 358 11
169 902 869
170 490 744
171 567 535
172 424 613
173 820 574
174 125 213
175 164 351
176 605 589
177 844 145
178 978 462
179 503 582
180 673 603
181 643 721
182 831 659
183 137 502
184 939 228
185 999 456
186 722 196
187 390 650
188 288 304
189 895 896
190 514 985
191 32 202
192 20 476
193 400 947
194 398 522
195 889 98
196 226 257
197 858 168
198 343 182
199 511 170
200 699 283
201 954 856
202 183 100
203 208 169
204 923 501
205 170 88
206 153 129
207 917 390
208 879 482
209 799 437
210 853 476
211 91 194
212 860 607
213 159 131
214 925 291
215 713 394
216 705 361
217 863 371
218 232 70
219 780 515
220 833 494
221 24 239
222 369 28
223 803 450
224 897 396
225 176 310
226 983 470
227 917 370
228 969 335
229 680 629
230 175 153
231 207 142
232 221 99
233 290 232
234 834 424
235 990 502
236 960 462
237 862 259
238 633 344
239 187 350
240 110 275
241 823 508
242 907 303
243 795 482
244 865 555
245 169 121
246 816 609
247 894 327
248 54 27
249 895 569
250 348 150
251 883 463
252 298 65
253 229 190
254 470 60
255 923 737
256 978 312
257 89 97
258 645 398
259 279 85
260 750 169
261 827 402
262 180 86
263 871 410
264 919 526
265 615 466
266 713 648
267 268 124
268 821 402
269 887 399
270 819 560
271 827 508
272 794 432
273 159 134
274 29 81
275 2 63
276 907 245
277 881 592
278 864 410
279 876 318
280 956 648
281 784 417
282 881 413
283 329 214
284 950 499
285 880 359
286 887 497
287 263 36
288 801 491
289 159 215
290 555 303
291 834 491
292 813 434
293 664 522
294 656 391
295 879 583
296 224 329
297 810 389
298 863 263
299 887 641
300 811 503
301 835 481
302 959 431
303 76 115
304 891 414
305 813 425
306 234 75
307 252 50
308 350 278
309 732 558
310 192 142
311 883 462
312 712 63
313 118 193
314 171 165
315 644 466
316 807 418
317 807 149
318 955 230
319 238 113
320 912 579
321 836 492
322 868 379
323 987 568
324 297 185
325 711 376
326 171 155
327 729 544
328 930 410
329 130 123
330 799 418
331 861 382
332 971 288
333 918 397
334 791 419
335 782 407
336 210 93
337 768 507
338 417 125
339 818 400
340 856 637
DEMAND_SECTION
2 6
3 9
4 8
5 6
6 4
7 8
8 3
9 4
10 10
11 1
12 9
13 9
14 5
15 10
16 5
17 6
18 9
19 8
20 10
21 8
22 8
23 4
24 8
25 7
26 3
27 5
28 10
29 10
30 8
31 2
32 2
33 8
34 7
35 10
36 9
37 2
38 9
39 10
40 2
41 1
42 6
43 1
44 2
45 4
46 6
47 7
48 8
49 8
50 5
51 7
52 4
53 7
54 1
55 5
56 6
57 9
58 2
59 6
60 4
61 6
62 5
63 10
64 7
65 4
66 6
67 1
68 2
69 4
70 9
71 1
72 6
73 4
74 9
75 1
76 5
77 2
78 2
79 9
80 6
81 7
82 10
83 10
84 8
COVERAGE_SECTION
2 11 266 229 25 44 180 48 49 85 309 327 77 
3 11 338 250 120 61 138 7 198 254 122 152 222 
4 11 316 305 330 292 268 334 339 272 209 261 234 
5 11 109 14 76 18 162 164 101 140 154 8 192 
6 11 116 151 187 161 21 156 105 172 167 91 55 
7 10 222 168 252 138 3 113 338 259 120 250 
8 11 110 42 50 112 125 83 54 82 94 159 162 
9 11 193 128 59 139 190 149 153 63 95 165 69 
10 11 39 33 161 17 154 146 28 101 162 6 54 
11 11 174 52 211 13 313 240 132 144 147 100 289 
12 11 189 158 134 169 131 56 88 201 70 166 106 
13 11 174 313 100 144 289 40 211 11 52 71 314 
14 11 5 109 18 76 162 164 101 140 154 192 119 
15 11 136 124 38 68 35 129 130 195 36 177 197 
16 11 157 98 127 69 63 114 149 70 153 139 190 
17 11 33 101 10 154 161 39 76 162 18 6 146 
18 11 76 101 162 14 109 140 5 17 154 183 33 
19 10 269 282 224 263 304 278 322 331 217 207 
20 11 212 277 295 340 299 246 249 77 244 173 320 
21 11 151 156 167 172 116 194 91 187 103 6 145 
22 11 54 83 28 125 95 112 42 115 94 160 110 
23 11 171 60 74 45 155 265 145 179 41 176 315 
24 7 57 200 96 186 238 29 92 
25 11 49 229 2 266 180 48 44 181 176 85 309 
26 11 191 221 102 211 303 11 313 274 174 257 13 
27 10 319 267 232 259 306 218 336 231 307 252 
28 11 39 22 146 10 54 112 117 125 165 83 154 
29 7 238 294 258 216 325 215 96 
30 11 308 133 143 188 121 283 233 141 135 198 123 
31 11 245 213 273 206 310 230 326 202 231 314 205 
32 11 47 58 126 91 194 135 148 121 143 105 62 
33 11 17 10 161 101 154 39 6 162 76 18 146 
34 10 284 226 236 178 235 111 185 204 302 264 
35 11 124 129 136 38 195 15 36 68 197 318 184 
36 9 197 177 195 317 129 276 184 237 298 
37 11 228 72 256 214 332 242 99 107 227 247 81 
38 11 136 124 35 195 129 68 15 130 36 177 197 
39 11 10 154 28 146 17 33 161 54 112 101 162 
40 11 289 100 144 71 13 174 52 313 314 326 230 
41 11 176 45 171 155 179 75 60 23 180 48 84 
42 11 125 83 112 54 110 8 94 22 50 82 115 
43 11 80 118 67 119 192 147 240 132 221 175 93 
44 11 85 309 2 266 327 48 180 229 77 25 246 
45 11 155 171 60 176 23 41 293 74 265 315 48 
46 11 182 340 299 77 212 20 246 255 277 97 295 
47 11 32 91 105 194 62 148 58 126 156 121 108 
48 11 180 229 25 2 49 44 85 266 309 176 293 
49 11 25 229 2 266 180 48 181 176 44 41 75 
50 11 82 159 110 8 94 42 83 125 112 54 115 
51 10 142 186 260 312 57 24 317 200 92 96 
52 11 11 132 240 174 144 147 100 13 289 40 313 
53 11 93 225 147 132 175 239 240 52 296 196 144 
54 11 112 125 42 83 110 22 8 28 94 39 154 
55 11 187 90 103 172 86 116 84 21 137 151 170 
56 11 88 134 169 70 189 131 106 150 12 158 201 
57 8 24 200 96 186 92 238 51 29 
58 11 126 135 32 143 78 121 47 148 133 91 194 
59 11 128 193 139 9 153 190 149 63 69 165 98 
60 10 155 45 23 171 74 265 315 293 176 41 
61 11 199 338 87 3 120 254 152 138 250 198 123 
62 11 105 47 148 108 32 91 66 194 6 121 156 
63 11 69 149 139 157 190 98 127 16 153 59 128 
64 10 219 300 104 337 241 288 271 243 270 220 
65 10 274 275 248 257 303 102 329 26 206 205 
66 11 163 183 140 62 67 108 175 239 148 18 192 
67 11 118 192 119 163 43 140 80 183 164 66 175 
68 11 130 38 136 15 195 124 35 129 177 36 197 
69 11 98 63 16 157 149 127 139 153 190 114 59 
70 11 150 106 56 97 134 88 169 16 189 131 127 
71 11 314 40 289 326 100 230 203 144 13 310 253 
72 11 228 99 107 37 256 227 332 207 333 328 214 
73 11 113 254 152 138 120 222 7 168 338 3 61 
74 10 265 60 23 171 315 155 45 258 293 294 
75 11 41 84 176 181 170 49 86 179 137 103 25 
76 11 162 101 18 154 109 14 5 17 33 10 39 
77 11 246 173 182 212 340 20 270 277 295 44 46 
78 11 135 123 89 58 126 143 290 121 30 32 308 
79 9 210 208 286 301 321 291 220 251 311 
80 11 43 118 67 119 192 147 240 221 132 93 175 
81 9 242 214 247 279 298 237 276 37 285 
82 11 50 94 110 8 42 83 159 115 125 112 54 
83 11 42 125 54 112 110 94 8 22 115 82 50 
84 11 103 179 172 55 145 167 21 75 156 41 151 
85 9 309 327 44 48 180 337 219 2 64 
86 11 137 170 90 55 103 75 84 187 172 117 165 
87 11 199 61 92 123 89 290 338 3 120 78 152 
88 11 56 169 131 189 134 201 70 12 158 106 150 
89 11 290 123 78 92 87 135 238 96 126 58 199 
90 11 86 55 137 170 187 103 172 117 116 84 146 
91 11 194 156 105 167 47 21 151 32 145 172 6 
92 11 290 87 96 89 57 199 24 238 123 200 29 
93 11 53 225 175 239 147 132 240 296 52 196 144 
94 11 82 110 83 115 42 125 50 54 112 8 160 
95 11 160 115 22 94 83 125 42 54 193 110 112 
96 9 238 24 57 200 29 92 290 216 294 
97 11 106 150 70 46 182 266 181 2 56 88 25 
98 11 69 16 63 157 114 127 153 149 139 190 59 
99 11 72 107 228 37 256 227 302 328 332 207 333 
100 11 144 289 40 13 174 71 52 313 314 11 326 
101 11 76 162 154 18 17 33 10 39 109 14 5 
102 11 303 211 257 313 26 329 191 13 174 206 11 
103 11 84 172 55 187 21 179 167 151 90 156 86 
104 8 337 219 243 288 64 300 241 271 
105 11 91 47 62 194 156 6 151 21 167 32 116 
106 11 150 97 70 56 88 134 46 181 182 266 169 
107 11 72 99 228 328 227 207 333 37 302 224 256 
108 11 148 62 296 133 239 121 188 175 47 66 143 
109 11 5 14 76 18 162 101 164 154 140 8 17 
110 11 42 8 83 125 94 50 112 82 54 115 159 
111 8 236 204 34 284 302 178 251 311 
112 11 54 125 42 83 110 8 22 94 28 39 154 
113 11 73 138 254 152 120 222 168 7 3 338 61 
114 11 98 153 69 170 16 181 137 86 75 63 157 
115 11 160 94 95 83 82 22 42 125 110 54 112 
116 11 187 6 151 172 21 156 55 167 103 161 105 
117 11 165 146 90 28 137 86 170 55 161 187 10 
118 11 43 80 67 119 192 147 240 175 132 93 163 
119 11 192 164 67 140 43 80 118 183 163 66 14 
120 11 254 138 152 73 338 3 113 61 7 222 199 
121 11 143 133 30 148 135 188 308 58 32 108 47 
122 11 250 324 198 267 141 283 259 27 319 252 233 
123 11 78 89 135 87 290 143 30 308 92 58 199 
124 11 136 35 38 129 15 195 68 36 130 197 177 
125 11 42 83 54 112 110 8 94 22 28 115 50 
126 11 58 32 135 78 47 143 194 91 145 121 89 
127 11 157 16 63 69 98 149 190 139 114 70 153 
128 11 59 193 9 139 190 149 153 63 165 69 98 
129 11 35 124 136 38 195 36 184 197 318 177 15 
130 11 68 195 38 136 15 124 177 35 129 317 36 
131 11 169 201 189 88 158 56 166 134 12 255 70 
132 11 147 240 52 53 11 93 225 174 144 100 289 
133 11 121 188 30 143 308 148 108 296 233 135 58 
134 11 56 189 88 12 169 70 131 158 201 106 150 
135 11 58 78 143 126 121 32 123 30 133 89 308 
136 11 124 38 35 129 15 195 68 130 36 177 197 
137 11 170 86 90 55 75 103 114 165 117 153 84 
138 11 120 254 152 73 113 338 7 3 222 168 61 
139 11 190 149 63 59 128 69 9 153 98 193 157 
140 11 164 192 183 67 119 163 18 66 14 118 43 
141 11 283 324 233 198 122 250 308 253 30 267 196 
142 11 51 312 186 260 57 24 92 199 87 317 200 
143 11 121 133 135 30 58 308 78 188 32 148 123 
144 11 100 289 40 13 174 52 71 313 11 314 132 
145 11 179 167 156 194 84 21 23 91 171 172 151 
146 11 117 161 10 28 39 165 187 90 116 55 6 
147 11 132 240 52 53 93 11 225 174 144 100 289 
148 11 108 62 121 47 133 32 143 188 296 58 105 
149 11 139 190 63 69 59 128 98 153 157 127 9 
150 11 106 70 97 56 88 134 181 46 16 266 182 
151 11 21 156 167 172 116 187 6 194 91 103 105 
152 11 254 120 73 138 113 338 3 61 199 7 222 
153 11 59 114 98 128 69 139 149 170 63 137 190 
154 11 101 162 39 10 76 17 33 112 18 54 28 
155 10 45 60 171 293 23 176 265 74 315 41 
156 11 21 167 151 194 172 91 116 145 105 6 187 
157 11 127 16 69 63 98 149 139 190 114 153 70 
158 11 189 12 169 201 131 88 134 56 166 255 70 
159 11 50 82 8 110 94 42 83 125 112 54 115 
160 11 95 115 94 22 83 82 42 125 110 54 112 
161 11 10 33 146 6 17 116 39 187 28 154 151 
162 11 76 101 154 18 109 17 14 5 39 33 10 
163 11 66 183 67 140 175 239 192 118 108 119 93 
164 11 192 140 119 67 14 183 18 5 109 163 43 
165 11 117 146 90 137 28 153 86 170 59 193 128 
166 11 255 201 131 169 280 88 158 189 46 56 299 
167 11 156 21 151 172 194 91 145 103 84 179 116 
168 10 222 7 252 113 138 287 259 73 307 3 
169 11 131 189 88 201 158 56 134 12 166 255 70 
170 11 137 86 90 55 75 114 103 153 84 165 117 
171 11 45 23 60 155 41 176 74 179 265 145 293 
172 11 21 151 103 167 156 187 55 116 84 179 6 
173 11 270 246 77 244 212 20 64 295 277 241 271 
174 11 13 313 100 144 11 289 52 40 211 71 240 
175 11 239 93 225 53 296 147 132 240 52 108 163 
176 11 41 45 155 171 180 48 60 229 49 25 293 
177 9 197 36 317 195 260 129 237 276 38 
178 10 226 236 185 34 302 235 284 111 204 328 
179 11 84 145 103 41 171 167 172 23 21 45 156 
180 11 48 229 25 2 49 266 44 85 176 309 293 
181 11 49 25 75 229 266 2 114 180 97 48 150 
182 11 46 340 77 246 299 212 20 277 173 295 270 
183 11 66 163 140 67 192 18 164 119 62 175 118 
184 11 318 276 214 332 81 242 237 298 36 256 37 
185 11 226 178 236 34 235 302 284 111 328 107 204 
186 7 260 51 57 24 200 317 142 
187 11 116 55 172 151 6 21 103 90 156 167 161 
188 11 133 30 308 296 233 121 196 143 283 141 108 
189 11 169 158 12 131 88 134 201 56 70 166 255 
190 11 139 149 63 128 59 69 9 193 98 153 157 
191 11 26 221 211 102 11 313 174 303 13 52 240 
192 11 119 164 67 140 43 118 80 183 163 66 14 
193 11 128 9 59 139 190 153 149 165 95 117 22 
194 11 91 156 167 21 105 47 151 145 32 172 126 
195 11 38 177 36 129 35 197 136 130 124 68 317 
196 11 253 233 296 225 40 53 188 289 144 71 100 
197 9 36 177 317 195 237 276 298 129 184 
198 11 250 283 141 122 324 233 3 338 267 308 30 
199 11 87 61 92 338 120 152 3 254 123 138 290 
200 5 24 57 96 216 29 
201 11 131 169 158 189 166 88 12 56 255 134 70 
202 10 262 205 245 336 31 232 213 206 273 310 
203 11 231 253 310 230 314 71 326 31 273 213 245 
204 9 264 284 286 111 34 208 236 251 311 
205 9 262 202 245 31 336 206 213 273 232 
206 11 213 273 245 31 329 326 230 314 310 202 205 
207 10 333 227 224 328 269 304 19 282 107 285 
208 7 79 286 251 311 210 301 321 
209 10 272 223 292 305 330 334 316 4 281 335 
210 8 79 301 321 291 208 220 251 311 
211 11 313 11 174 13 102 191 100 52 26 144 289 
212 11 20 277 340 295 299 246 77 173 244 249 320 
213 11 273 206 31 245 230 326 329 310 314 202 205 
214 11 242 81 37 332 247 276 279 256 228 184 298 
215 4 325 216 294 29 
216 4 325 215 29 294 
217 5 322 331 285 19 269 
218 9 306 307 232 336 319 27 287 259 262 
219 8 337 64 104 288 300 243 241 271 
220 10 291 321 301 271 241 300 210 79 288 243 
221 11 191 26 11 211 240 102 132 147 174 52 313 
222 10 168 7 113 138 252 3 73 120 254 287 
223 9 209 292 272 305 4 316 330 243 334 
224 11 269 19 304 207 333 282 263 227 322 278 328 
225 11 53 93 239 175 296 147 132 196 240 52 144 
226 10 178 185 34 236 235 284 302 111 204 328 
227 11 207 333 224 285 269 328 19 107 247 322 304 
228 11 72 37 256 99 107 332 214 227 242 247 207 
229 11 25 2 180 49 48 266 44 85 176 309 327 
230 11 326 314 310 273 31 213 206 245 231 71 203 
231 11 310 203 230 31 326 319 245 314 232 202 213 
232 10 336 319 306 218 27 202 262 231 205 310 
233 11 141 283 324 196 188 198 253 308 30 122 250 
234 5 305 261 292 4 268 
235 11 34 226 284 178 185 236 323 204 111 264 302 
236 10 178 34 226 111 302 284 185 235 204 328 
237 5 298 276 81 279 242 
238 9 29 96 294 258 216 325 290 200 215 
239 11 175 225 296 93 53 108 147 132 196 240 188 
240 11 132 147 52 11 53 93 174 144 13 100 225 
241 10 271 300 220 291 321 288 301 64 243 210 
242 10 81 214 247 279 37 276 298 285 237 332 
243 9 288 104 300 223 219 337 241 64 220 
244 11 295 249 277 270 173 20 212 320 271 264 286 
245 11 31 213 273 206 202 310 205 230 326 262 329 
246 11 77 173 212 20 270 340 182 277 295 244 299 
247 8 279 242 81 285 214 227 217 37 
248 8 65 274 275 257 303 329 102 205 
249 9 320 295 277 244 264 20 212 286 299 
250 11 198 122 324 3 283 141 338 267 259 252 233 
251 5 311 208 79 210 286 
252 10 259 287 307 306 27 218 267 7 319 222 
253 11 203 71 231 310 314 230 196 324 326 40 233 
254 11 152 120 138 73 113 338 3 61 7 222 199 
255 11 166 46 280 299 131 340 182 201 88 169 20 
256 11 228 332 37 72 99 214 107 242 81 227 247 
257 11 303 329 102 65 274 206 213 248 273 205 245 
258 8 294 29 238 215 315 216 325 265 
259 10 252 27 267 307 306 218 319 287 232 336 
260 9 186 317 51 177 197 142 312 24 57 
261 6 268 339 297 4 234 316 
262 9 205 202 336 245 31 232 213 206 273 
263 6 278 282 19 269 304 224 
264 9 204 284 286 249 320 208 244 34 111 
265 9 315 74 60 155 23 258 293 45 171 
266 11 2 229 25 49 44 180 48 85 309 181 77 
267 11 27 319 259 122 232 306 231 218 252 336 324 
268 7 339 261 297 4 316 305 234 
269 10 19 224 282 304 263 278 322 207 331 333 
270 11 173 64 244 246 241 271 77 300 219 212 20 
271 11 241 220 300 291 321 301 288 64 79 210 243 
272 10 209 334 330 281 292 316 223 305 4 335 
273 11 213 206 31 245 326 230 329 314 310 202 205 
274 11 65 275 303 248 257 102 26 329 191 211 206 
275 11 274 65 248 303 257 102 26 329 191 211 206 
276 10 184 237 298 214 318 81 242 332 279 247 
277 10 295 20 212 249 320 244 299 340 173 246 
278 6 263 282 19 269 304 331 
279 5 247 81 242 285 217 
280 9 299 320 323 277 255 249 295 340 20 
281 7 334 335 330 272 316 209 4 
282 6 263 304 19 269 278 224 
283 11 141 198 233 324 122 250 308 30 188 253 267 
284 10 34 204 236 235 264 111 226 178 286 185 
285 8 217 322 331 247 227 19 224 269 
286 9 208 79 251 311 204 210 264 321 291 
287 6 307 252 218 306 259 27 
288 9 243 300 104 241 64 271 219 220 291 
289 11 40 100 144 13 71 174 52 313 314 11 326 
290 11 89 92 96 238 123 78 87 29 57 24 258 
291 10 321 220 301 271 241 210 300 79 288 243 
292 10 305 209 4 316 223 272 330 234 334 268 
293 8 155 315 327 45 265 60 48 309 
294 8 258 29 238 215 216 325 315 265 
295 11 277 249 20 212 244 320 299 340 173 270 246 
296 11 239 225 175 53 188 93 196 108 133 148 147 
297 5 339 268 261 316 4 
298 5 237 81 276 279 242 
299 11 340 20 212 277 46 182 295 320 280 249 246 
300 10 241 288 271 64 220 243 291 321 219 301 
301 10 291 321 220 210 79 271 241 300 288 243 
302 10 236 178 328 111 226 185 107 333 34 207 
303 11 257 102 329 274 65 206 211 26 213 273 313 
304 7 282 269 19 224 263 278 333 
305 11 4 292 316 330 209 272 234 334 268 339 223 
306 9 218 232 336 307 319 27 259 287 262 
307 8 287 218 306 259 252 232 336 27 
308 11 30 133 188 283 143 233 121 141 198 324 123 
309 9 85 327 44 337 219 48 64 180 104 
310 11 231 230 31 326 203 245 314 273 213 206 202 
311 5 251 208 79 210 286 
312 10 51 142 260 317 186 177 130 195 197 36 
313 11 13 174 211 100 11 144 289 40 52 71 102 
314 11 326 230 71 310 273 213 203 31 206 231 245 
315 7 265 293 60 74 258 155 294 
316 11 4 330 305 334 292 272 209 268 339 281 261 
317 8 177 197 260 36 186 195 51 237 
318 11 184 276 332 214 256 81 242 237 37 298 129 
319 10 27 232 267 336 306 231 218 259 310 202 
320 9 249 295 277 244 264 20 212 299 323 
321 10 291 220 301 271 241 210 79 300 288 243 
322 8 331 217 285 19 269 263 278 224 
323 9 235 320 284 264 34 280 249 204 226 
324 11 141 122 283 198 233 250 253 267 27 203 319 
325 4 216 215 29 294 
326 11 230 314 273 310 213 31 206 71 245 231 203 
327 8 309 85 337 44 219 104 293 64 
328 9 333 207 224 302 304 227 269 107 19 
329 11 206 213 273 245 31 257 326 205 230 303 202 
330 9 316 334 4 272 281 305 209 335 292 
331 7 322 217 19 278 263 285 269 
332 11 256 37 214 228 318 72 242 184 81 99 276 
333 10 207 328 224 227 269 304 19 282 107 263 
334 8 281 330 272 335 316 4 209 305 
335 6 281 334 330 316 272 4 
336 10 232 202 306 262 218 319 205 27 231 245 
337 7 104 219 64 243 288 300 327 
338 11 3 61 120 250 138 254 7 152 198 199 122 
339 7 268 261 297 4 316 305 330 
340 11 212 20 299 182 46 246 77 277 295 173 249 
DEPOT_SECTION
   1
   -1
EOF
