NAME :  X-n411-kX-w164-c7.cctp
COMMENT : 	Adapted by Maziero, Usberti and Cavellucci from the Uchoa, Pecin, Pessoa, Poggi, Subramanian, and Vidal (2013)
TYPE :  CCTP
DIMENSION :    408
EDGE_WEIGHT_TYPE : 	EUC_2D	
CAPACITY : 	216
VERTICES_WITHIN_COVERAGE :  7
VERTICES_WITH_DEMAND : 	164
NODE_COORD_SECTION
1 175 821
2 62 495
3 662 959
4 109 216
5 156 748
6 178 957
7 120 571
8 75 480
9 44 98
10 386 1000
11 96 465
12 98 796
13 213 642
14 642 977
15 629 893
16 36 124
17 155 172
18 6 367
19 39 198
20 40 311
21 649 801
22 208 367
23 237 944
24 282 313
25 114 684
26 69 168
27 23 553
28 137 467
29 244 971
30 86 456
31 125 681
32 77 398
33 128 820
34 166 804
35 657 959
36 160 172
37 674 882
38 255 944
39 709 691
40 167 720
41 187 995
42 246 707
43 95 518
44 44 264
45 262 940
46 739 987
47 210 586
48 240 994
49 199 564
50 108 491
51 832 933
52 715 874
53 130 426
54 518 749
55 90 209
56 760 925
57 118 92
58 72 270
59 606 976
60 129 975
61 157 787
62 626 857
63 169 712
64 105 710
65 105 233
66 65 322
67 685 804
68 215 664
69 211 996
70 336 887
71 728 533
72 649 836
73 93 905
74 143 894
75 47 136
76 198 125
77 707 977
78 682 937
79 17 858
80 370 512
81 222 825
82 55 388
83 182 905
84 41 510
85 128 221
86 266 796
87 349 821
88 108 777
89 98 842
90 225 528
91 140 920
92 132 465
93 132 478
94 126 754
95 144 476
96 138 981
97 127 302
98 163 937
99 11 794
100 663 942
101 138 464
102 27 134
103 213 819
104 150 746
105 184 760
106 122 579
107 180 670
108 166 955
109 111 284
110 222 859
111 104 951
112 162 968
113 73 394
114 620 899
115 193 257
116 52 737
117 655 914
118 110 440
119 232 648
120 645 922
121 204 708
122 52 512
123 161 887
124 46 259
125 151 777
126 191 999
127 125 766
128 247 686
129 68 464
130 5 393
131 696 937
132 642 902
133 86 905
134 132 600
135 115 788
136 126 801
137 58 479
138 637 926
139 147 765
140 145 772
141 592 971
142 58 195
143 236 969
144 729 986
145 204 931
146 731 958
147 616 999
148 234 458
149 0 48
150 138 215
151 82 268
152 661 893
153 828 769
154 587 942
155 631 978
156 64 297
157 257 671
158 158 185
159 190 183
160 127 166
161 75 564
162 26 818
163 157 888
164 97 174
165 53 210
166 255 551
167 93 135
168 303 976
169 139 824
170 144 824
171 166 971
172 23 468
173 195 983
174 73 379
175 182 177
176 118 595
177 192 702
178 355 701
179 63 190
180 164 489
181 228 918
182 746 859
183 190 958
184 162 797
185 587 963
186 113 97
187 82 200
188 93 167
189 679 707
190 139 264
191 164 569
192 751 803
193 22 100
194 143 744
195 217 890
196 55 196
197 792 923
198 584 877
199 786 815
200 139 121
201 179 742
202 749 909
203 198 934
204 252 809
205 70 115
206 309 976
207 191 915
208 333 77
209 82 928
210 78 497
211 11 624
212 642 915
213 71 75
214 547 981
215 271 936
216 662 981
217 214 918
218 677 991
219 8 272
220 492 817
221 49 230
222 109 241
223 33 514
224 130 276
225 178 969
226 309 966
227 100 444
228 27 507
229 702 937
230 255 943
231 123 135
232 88 408
233 124 772
234 648 973
235 662 952
236 233 834
237 280 828
238 150 753
239 70 339
240 120 919
241 572 980
242 135 814
243 38 618
244 76 755
245 34 399
246 88 671
247 23 336
248 201 544
249 733 850
250 38 527
251 46 502
252 686 952
253 653 958
254 770 920
255 158 769
256 211 709
257 96 761
258 190 120
259 515 841
260 107 915
261 187 932
262 34 241
263 101 968
264 228 938
265 152 397
266 163 188
267 843 942
268 208 922
269 166 931
270 455 984
271 606 962
272 553 894
273 343 894
274 223 717
275 142 957
276 693 899
277 118 725
278 353 838
279 52 328
280 14 295
281 771 850
282 151 231
283 203 330
284 79 391
285 151 387
286 97 308
287 284 14
288 159 932
289 261 204
290 60 570
291 91 607
292 14 532
293 182 728
294 204 978
295 741 786
296 119 191
297 118 904
298 146 583
299 164 263
300 50 718
301 56 420
302 50 493
303 267 934
304 740 904
305 23 212
306 42 967
307 611 889
308 236 932
309 427 892
310 9 509
311 169 271
312 197 741
313 199 789
314 82 610
315 123 468
316 70 729
317 63 443
318 142 539
319 196 229
320 602 561
321 650 992
322 663 947
323 73 790
324 135 782
325 556 1000
326 196 361
327 240 972
328 42 552
329 72 256
330 271 641
331 69 193
332 138 389
333 140 486
334 173 996
335 138 797
336 10 520
337 297 643
338 92 946
339 104 549
340 290 691
341 213 479
342 131 996
343 233 702
344 82 351
345 177 923
346 118 903
347 69 740
348 59 163
349 48 503
350 14 424
351 147 277
352 170 717
353 129 792
354 719 946
355 176 497
356 245 503
357 174 535
358 167 891
359 668 911
360 236 621
361 197 529
362 152 714
363 585 950
364 587 930
365 182 640
366 219 944
367 98 706
368 278 544
369 216 873
370 76 744
371 189 251
372 138 183
373 12 916
374 150 954
375 20 596
376 178 189
377 144 219
378 643 943
379 728 986
380 125 874
381 158 198
382 181 289
383 215 625
384 107 321
385 571 920
386 110 461
387 101 592
388 96 684
389 579 816
390 645 947
391 777 894
392 806 973
393 118 790
394 195 927
395 157 944
396 235 784
397 256 895
398 15 431
399 233 962
400 793 774
401 127 185
402 704 965
403 234 634
404 664 948
405 29 604
406 278 697
407 686 985
408 151 795
DEMAND_SECTION
2 95
3 58
4 80
5 97
6 100
7 64
8 63
9 86
10 61
11 62
12 56
13 74
14 78
15 78
16 91
17 85
18 69
19 89
20 83
21 60
22 51
23 55
24 57
25 83
26 67
27 89
28 6
29 1
30 1
31 7
32 2
33 1
34 4
35 6
36 3
37 10
38 5
39 10
40 1
41 7
42 10
43 6
44 8
45 4
46 5
47 4
48 4
49 3
50 10
51 7
52 10
53 9
54 4
55 3
56 7
57 4
58 2
59 9
60 3
61 4
62 8
63 2
64 9
65 3
66 1
67 5
68 3
69 8
70 7
71 1
72 3
73 7
74 10
75 1
76 7
77 7
78 2
79 2
80 3
81 6
82 8
83 3
84 7
85 5
86 5
87 8
88 6
89 3
90 4
91 3
92 5
93 2
94 5
95 7
96 1
97 2
98 2
99 3
100 8
101 8
102 9
103 8
104 1
105 1
106 5
107 9
108 3
109 7
110 9
111 1
112 9
113 9
114 2
115 9
116 1
117 4
118 8
119 2
120 3
121 8
122 3
123 2
124 5
125 9
126 3
127 6
128 2
129 3
130 9
131 2
132 2
133 1
134 2
135 3
136 7
137 2
138 7
139 4
140 8
141 6
142 8
143 5
144 4
145 3
146 4
147 6
148 5
149 7
150 3
151 5
152 9
153 10
154 9
155 9
156 5
157 5
158 5
159 1
160 2
161 7
162 6
163 4
164 6
165 1
COVERAGE_SECTION
2 7 302 137 210 349 251 8 122 
3 7 35 235 253 404 322 100 234 
4 7 65 55 85 222 296 150 187 
5 7 104 238 194 139 255 201 140 
6 7 108 183 225 171 112 98 395 
7 7 106 176 339 387 298 134 318 
8 7 129 137 210 2 11 30 302 
9 7 193 16 205 213 75 102 167 
10 7 270 206 226 168 273 309 70 
11 7 30 386 227 8 315 129 50 
12 7 135 88 393 323 136 353 233 
13 7 383 119 68 403 360 365 107 
14 7 234 155 321 216 253 35 3 
15 7 114 132 307 212 152 117 120 
16 7 102 75 9 193 205 348 26 
17 7 36 158 266 372 381 175 160 
18 7 130 247 245 82 350 279 398 
19 7 196 165 142 305 179 331 221 
20 7 279 66 156 247 280 239 44 
21 7 72 67 62 389 37 152 295 
22 6 326 283 285 265 332 382 
23 7 264 308 38 230 366 399 45 
24 7 283 22 326 382 115 289 371 
25 7 31 388 367 64 246 277 362 
26 7 348 179 188 331 142 164 196 
27 7 328 292 250 336 223 290 375 
28 7 101 92 95 93 315 333 386 
29 7 327 143 399 48 23 38 230 
30 7 11 227 129 386 8 317 118 
31 7 25 388 64 367 246 362 277 
32 7 113 284 232 174 82 301 245 
33 7 242 169 170 136 335 353 393 
34 7 184 408 61 335 170 125 242 
35 7 253 3 235 322 404 234 390 
36 7 17 158 266 175 372 376 381 
37 7 152 276 359 117 132 52 15 
38 7 230 45 303 23 215 308 264 
39 7 189 295 67 400 192 21 153 
40 7 352 63 362 293 201 5 104 
41 7 126 173 334 69 294 225 171 
42 7 343 128 274 406 256 157 121 
43 7 210 50 339 2 8 122 349 
44 7 124 262 58 329 221 219 151 
45 7 38 230 303 215 23 308 264 
46 7 144 379 146 77 402 354 407 
47 7 49 383 248 360 191 403 13 
48 7 327 29 143 69 399 294 173 
49 7 248 47 191 361 357 90 298 
50 7 93 315 11 43 386 210 333 
51 7 267 197 392 254 391 56 202 
52 7 249 276 182 304 37 202 152 
53 7 118 227 265 332 92 101 386 
54 7 220 389 259 21 198 272 62 
55 7 187 4 331 65 179 296 142 
56 7 254 202 304 197 391 146 354 
57 7 186 200 231 167 213 205 9 
58 7 151 329 124 156 44 109 286 
59 7 271 141 185 147 155 363 241 
60 7 96 342 275 263 374 112 111 
61 7 408 184 125 255 34 140 335 
62 7 72 307 15 114 198 132 152 
63 7 352 40 362 293 177 201 121 
64 7 367 277 25 388 31 316 246 
65 7 222 4 85 55 150 187 329 
66 7 279 239 156 20 344 286 384 
67 7 21 72 295 192 249 52 37 
68 7 13 119 107 403 128 383 365 
69 7 294 126 173 41 48 143 327 
70 7 273 278 87 397 215 237 226 
71 7 320 39 189 400 295 153 192 
72 7 62 21 67 37 152 15 307 
73 7 133 260 209 297 346 240 338 
74 7 163 123 358 91 297 346 380 
75 7 16 102 348 205 9 26 193 
76 7 258 175 159 200 36 17 376 
77 7 402 407 379 144 146 218 252 
78 7 131 252 100 229 322 404 235 
79 7 162 373 99 89 133 323 73 
80 7 368 166 356 90 148 337 341 
81 7 103 236 110 204 313 396 369 
82 7 113 174 32 245 284 301 232 
83 7 207 345 358 394 261 123 163 
84 7 223 251 349 122 228 250 302 
85 7 150 377 4 282 65 222 296 
86 7 204 396 237 236 81 103 313 
87 7 278 70 237 273 86 204 309 
88 7 135 393 233 127 257 12 353 
89 7 33 380 169 12 242 170 136 
90 7 361 248 356 166 49 341 357 
91 7 240 288 74 297 269 346 98 
92 7 28 101 315 93 95 333 386 
93 7 333 28 95 92 315 101 50 
94 7 127 233 194 139 238 104 140 
95 7 28 333 93 101 92 315 180 
96 7 60 342 275 112 171 374 108 
97 7 109 224 384 286 351 190 311 
98 7 288 269 395 108 345 374 6 
99 7 162 323 79 116 244 347 370 
100 7 322 404 235 3 35 253 390 
101 7 28 92 95 93 315 333 386 
102 7 16 75 193 9 348 205 26 
103 7 81 236 313 204 110 396 34 
104 7 5 194 238 139 255 94 140 
105 7 201 312 255 5 293 313 238 
106 7 7 176 134 298 387 339 291 
107 7 365 177 68 13 63 121 352 
108 7 6 112 395 171 374 98 225 
109 7 224 97 286 151 190 351 384 
110 6 369 236 195 81 103 397 
111 7 338 263 209 60 240 260 275 
112 7 171 108 225 374 6 275 395 
113 7 32 284 174 82 232 301 245 
114 7 15 307 132 212 138 120 117 
115 7 371 311 319 299 382 282 351 
116 7 347 300 316 370 244 257 367 
117 7 120 212 359 132 138 152 100 
118 7 227 386 53 11 30 315 92 
119 7 403 13 68 360 383 157 330 
120 7 212 138 117 132 378 359 390 
121 7 256 177 274 293 343 312 63 
122 7 349 84 251 223 302 2 250 
123 7 163 358 74 83 380 91 345 
124 7 44 262 329 58 221 151 219 
125 7 140 255 61 139 324 408 184 
126 7 41 173 334 69 294 225 171 
127 7 233 94 324 88 140 139 135 
128 7 157 42 343 406 68 274 119 
129 7 8 137 30 317 11 2 210 
130 7 18 245 350 398 82 301 247 
131 7 229 78 252 354 402 100 322 
132 7 212 15 117 120 152 114 138 
133 7 73 209 260 297 346 240 338 
134 7 176 298 106 7 387 291 191 
135 7 393 88 353 136 233 12 324 
136 7 353 335 393 242 135 33 324 
137 7 2 302 8 129 251 349 210 
138 7 120 212 378 117 390 132 100 
139 7 140 238 255 125 5 104 194 
140 7 139 125 255 324 61 238 127 
141 7 185 59 271 241 363 154 147 
142 7 196 179 331 165 19 187 26 
143 7 327 29 399 23 48 366 38 
144 7 379 46 77 146 402 354 407 
145 7 203 268 394 217 261 366 207 
146 7 354 144 379 402 46 77 229 
147 7 59 155 14 321 141 271 234 
148 7 341 356 355 90 180 361 95 
149 7 193 9 213 16 102 205 75 
150 7 377 85 282 381 4 296 372 
151 7 58 329 109 156 124 44 222 
152 7 37 359 132 117 212 15 120 
153 7 400 199 192 295 281 182 249 
154 7 363 364 185 385 271 141 59 
155 7 14 234 321 59 147 253 271 
156 7 66 20 58 279 151 286 44 
157 7 128 330 406 119 42 340 343 
158 7 266 17 36 381 372 376 175 
159 7 175 376 266 36 158 381 17 
160 7 401 372 296 17 164 231 36 
161 7 290 339 328 387 7 291 314 
162 7 99 79 323 12 89 244 116 
163 7 123 358 74 83 380 91 345 
164 7 188 296 26 187 160 401 331 
165 7 196 142 19 221 179 331 305 
166 7 368 90 356 248 47 49 361 
167 7 205 231 188 164 26 186 348 
168 7 206 226 215 45 303 38 230 
169 7 170 242 33 136 335 408 34 
170 7 169 242 33 335 136 34 408 
171 7 112 225 108 6 374 334 183 
172 6 137 302 398 228 251 310 
173 7 294 41 126 69 225 183 334 
174 7 284 113 32 82 344 232 239 
175 7 159 376 266 36 158 17 381 
176 7 134 106 387 7 291 298 314 
177 7 121 256 63 352 293 40 107 
178 7 340 406 337 157 330 42 128 
179 7 142 331 196 187 165 26 19 
180 7 355 95 333 93 28 101 92 
181 6 217 308 264 268 145 23 
182 7 249 281 52 304 391 202 192 
183 7 6 225 108 294 173 203 261 
184 7 34 61 408 125 335 255 140 
185 7 141 363 271 154 59 241 364 
186 7 57 200 231 167 205 213 9 
187 7 55 331 179 142 196 164 4 
188 7 164 26 167 160 348 187 296 
189 7 39 67 21 295 192 72 400 
190 7 224 351 299 311 109 282 222 
191 7 298 49 357 318 106 7 134 
192 7 295 199 249 281 400 182 67 
193 7 9 16 102 75 205 213 149 
194 7 104 238 5 94 139 127 140 
195 6 369 217 181 110 268 207 
196 7 142 179 165 331 19 187 26 
197 7 254 56 391 51 202 392 267 
198 7 307 272 114 385 62 15 364 
199 7 192 281 400 295 182 153 249 
200 7 231 186 57 160 167 258 17 
201 7 293 312 105 5 40 352 104 
202 7 304 56 254 391 197 354 52 
203 7 145 394 261 268 207 217 366 
204 7 86 396 236 81 237 103 313 
205 7 167 9 75 16 213 102 186 
206 7 168 226 215 45 303 38 230 
207 7 83 394 345 261 268 203 145 
208 7 287 76 289 258 159 175 376 
209 7 338 133 73 260 111 240 297 
210 7 2 8 43 137 302 122 50 
211 7 405 243 375 27 314 290 328 
212 7 120 138 117 132 15 359 114 
213 7 9 205 186 57 193 16 167 
214 7 325 241 185 141 363 154 59 
215 7 303 45 230 38 23 308 264 
216 7 234 321 218 14 3 35 407 
217 6 268 181 145 394 203 207 
218 7 407 216 321 77 234 3 402 
219 7 280 44 124 262 20 221 156 
220 7 259 54 389 272 309 198 385 
221 7 262 165 124 305 19 44 196 
222 7 65 4 85 55 151 190 150 
223 7 84 228 250 251 122 349 336 
224 7 190 351 109 97 299 311 222 
225 7 6 171 112 183 108 173 334 
226 7 206 168 215 303 45 38 230 
227 7 118 30 386 11 315 53 317 
228 7 223 84 310 251 336 349 250 
229 7 131 354 78 252 402 146 100 
230 7 38 45 303 215 23 308 264 
231 7 200 167 160 186 57 188 164 
232 7 32 284 113 174 301 227 82 
233 7 127 324 88 94 135 393 140 
234 7 14 216 253 35 155 321 3 
235 7 404 322 3 35 100 253 390 
236 7 81 103 110 204 369 237 86 
237 7 204 86 236 81 396 110 103 
238 7 104 5 194 139 255 140 94 
239 7 344 66 279 174 20 286 384 
240 7 260 297 346 91 73 74 111 
241 7 141 185 214 325 363 59 271 
242 7 33 169 170 136 335 353 408 
243 7 405 211 375 314 290 291 161 
244 7 370 347 257 316 116 323 88 
245 7 82 130 301 350 398 113 18 
246 7 388 25 367 31 64 300 314 
247 7 20 279 18 280 66 239 156 
248 7 361 49 357 90 47 191 355 
249 7 182 52 281 192 304 202 391 
250 7 223 84 122 228 292 328 251 
251 7 349 84 302 122 2 223 228 
252 7 78 131 229 402 404 235 322 
253 7 35 3 235 390 322 404 234 
254 7 56 197 202 391 304 146 354 
255 7 125 139 140 61 238 5 104 
256 7 121 274 177 343 42 293 312 
257 7 88 244 370 127 233 94 135 
258 7 76 200 175 36 17 159 231 
259 7 220 272 389 198 54 385 309 
260 7 240 297 346 73 133 209 91 
261 7 394 203 345 145 207 269 268 
262 7 221 124 44 305 165 219 329 
263 7 111 338 60 96 342 275 209 
264 7 308 23 366 181 217 145 399 
265 6 285 332 53 326 118 22 
266 7 158 381 376 36 17 175 372 
267 7 51 392 197 254 391 56 202 
268 6 217 145 394 203 207 181 
269 7 98 288 345 395 261 108 91 
270 7 10 214 309 325 241 385 272 
271 7 59 141 185 363 154 155 364 
272 7 385 198 364 307 154 363 259 
273 7 70 278 87 226 215 309 303 
274 7 256 343 121 42 177 312 128 
275 7 374 395 60 112 96 108 171 
276 7 37 359 52 152 131 229 78 
277 7 64 367 94 194 362 104 25 
278 7 87 70 273 237 309 86 204 
279 7 66 20 239 247 156 344 286 
280 7 219 20 247 44 124 156 279 
281 7 182 199 249 391 192 52 304 
282 7 377 150 85 381 190 299 222 
283 7 326 22 382 311 115 285 351 
284 7 32 113 174 232 82 301 344 
285 6 265 332 53 326 22 232 
286 7 384 109 97 66 156 239 151 
287 7 208 76 258 200 57 186 289 
288 7 98 269 395 345 91 108 374 
289 7 319 159 175 376 115 371 266 
290 7 161 328 27 314 405 387 250 
291 7 314 387 176 106 134 7 161 
292 7 336 27 310 250 223 228 328 
293 7 201 352 40 312 63 177 121 
294 7 173 69 41 183 126 225 6 
295 7 192 400 199 67 249 281 182 
296 7 401 372 160 4 164 85 150 
297 7 346 240 260 73 74 91 380 
298 7 134 191 106 7 176 318 387 
299 7 311 351 190 371 115 382 282 
300 7 116 316 347 370 244 367 64 
301 7 317 32 245 113 82 232 284 
302 7 251 349 2 137 84 122 223 
303 7 215 45 230 38 308 23 264 
304 7 202 56 254 391 52 182 276 
305 7 19 165 262 221 196 142 179 
306 7 338 209 263 373 111 133 73 
307 7 114 15 198 132 62 212 138 
308 7 264 23 181 366 38 230 217 
309 7 273 70 278 270 220 259 87 
310 7 336 228 292 223 84 250 251 
311 7 299 382 351 115 371 190 224 
312 7 201 293 105 121 256 274 352 
313 7 103 105 34 396 184 61 81 
314 7 291 387 176 243 290 161 106 
315 7 92 93 28 386 101 95 333 
316 7 347 370 116 300 244 367 64 
317 7 129 301 30 137 227 8 11 
318 7 357 191 7 339 298 106 43 
319 7 371 115 376 282 159 299 381 
320 7 71 189 39 54 80 21 389 
321 7 216 14 234 155 218 35 253 
322 7 404 100 235 3 35 253 390 
323 7 12 244 88 257 135 393 370 
324 7 353 140 233 335 125 127 393 
325 7 214 241 141 185 59 363 147 
326 6 22 283 285 265 332 382 
327 7 29 143 399 48 23 38 230 
328 7 27 250 290 292 161 223 122 
329 7 58 151 124 44 221 65 222 
330 7 337 157 403 119 360 128 340 
331 7 179 142 196 187 165 26 55 
332 6 285 265 53 232 118 284 
333 7 93 95 28 92 101 180 315 
334 7 41 126 171 173 225 112 294 
335 7 353 136 408 324 242 61 393 
336 7 310 292 228 223 250 84 27 
337 7 330 157 340 406 403 119 360 
338 7 111 209 263 260 240 73 133 
339 7 7 43 161 106 318 387 176 
340 7 406 157 128 42 337 330 343 
341 7 148 356 355 90 180 361 248 
342 7 96 60 263 275 112 334 171 
343 7 42 274 128 256 121 157 177 
344 6 239 174 66 279 384 284 
345 7 261 269 207 394 83 98 288 
346 7 297 240 260 73 74 91 380 
347 7 370 316 116 244 300 257 367 
348 7 26 179 75 142 331 196 188 
349 7 251 84 122 302 2 223 228 
350 6 398 130 245 301 172 317 
351 7 190 224 299 311 97 382 109 
352 7 40 63 293 362 177 201 5 
353 7 136 335 393 324 135 233 408 
354 7 146 229 402 131 77 252 78 
355 7 180 95 333 357 361 341 93 
356 7 90 341 148 166 368 361 248 
357 7 361 248 318 191 49 355 180 
358 7 123 163 83 74 207 345 91 
359 7 117 152 120 212 132 276 37 
360 7 403 383 119 13 330 47 68 
361 7 248 357 90 49 355 180 191 
362 7 40 63 352 194 104 293 5 
363 7 154 185 364 141 271 59 241 
364 7 154 385 363 185 271 141 114 
365 7 107 13 383 68 119 403 360 
366 7 264 23 145 308 203 399 268 
367 7 64 388 25 277 246 316 31 
368 7 166 356 90 248 47 49 361 
369 6 110 195 236 217 397 83 
370 7 347 244 316 116 257 300 367 
371 7 115 319 299 311 382 282 351 
372 7 401 17 158 160 296 36 266 
373 7 79 306 209 133 73 338 260 
374 7 275 395 108 112 98 171 288 
375 7 405 243 211 27 290 328 161 
376 7 159 175 266 158 381 36 17 
377 7 150 282 85 381 4 266 372 
378 7 390 138 253 100 322 35 120 
379 7 144 46 77 146 402 354 407 
380 7 74 346 297 163 123 89 73 
381 7 266 158 376 372 377 17 36 
382 7 311 299 115 351 371 283 190 
383 7 13 360 403 119 365 47 68 
384 6 286 97 109 344 239 66 
385 7 364 154 272 363 198 185 307 
386 7 11 315 227 118 92 30 28 
387 7 176 291 106 314 7 134 161 
388 7 246 25 367 64 31 277 316 
389 7 198 62 259 21 72 307 272 
390 7 378 253 35 235 322 100 404 
391 7 254 202 197 56 304 281 182 
392 7 51 267 197 254 56 46 146 
393 7 135 353 136 88 233 324 12 
394 7 203 261 145 207 268 345 217 
395 7 98 288 374 108 269 275 6 
396 7 204 86 313 103 81 236 105 
397 6 181 195 303 308 215 45 
398 6 350 245 172 130 301 317 
399 7 143 327 29 23 366 264 38 
400 7 153 199 192 295 281 182 249 
401 7 296 372 160 17 158 150 164 
402 7 77 252 354 407 146 229 131 
403 7 360 119 383 13 68 330 157 
404 7 322 235 100 3 35 253 390 
405 7 375 243 211 290 27 314 328 
406 7 340 128 157 42 343 330 337 
407 7 218 77 216 402 252 3 321 
408 7 61 184 335 34 125 324 353 
DEPOT_SECTION
   1
   -1
EOF
