NAME :  X-n401-kX-w160-c7.cctp
COMMENT : 	Adapted by Maziero, Usberti and Cavellucci from the Uchoa, Pecin, Pessoa, Poggi, Subramanian, and Vidal (2013)
TYPE :  CCTP
DIMENSION :    400
EDGE_WEIGHT_TYPE : 	EUC_2D	
CAPACITY : 	745
VERTICES_WITHIN_COVERAGE :  7
VERTICES_WITH_DEMAND : 	160
NODE_COORD_SECTION
1 0 0
2 645 7
3 720 867
4 513 499
5 208 766
6 976 884
7 991 864
8 696 804
9 655 676
10 840 976
11 718 867
12 456 818
13 901 808
14 380 423
15 668 533
16 939 794
17 311 824
18 906 961
19 899 692
20 227 898
21 646 431
22 886 633
23 468 400
24 867 887
25 720 871
26 585 832
27 746 892
28 990 681
29 333 883
30 675 773
31 145 637
32 939 680
33 852 885
34 520 96
35 603 554
36 677 836
37 214 793
38 480 576
39 986 924
40 392 482
41 872 974
42 644 517
43 888 795
44 622 5
45 999 958
46 415 509
47 910 946
48 150 945
49 719 760
50 695 188
51 420 387
52 720 832
53 714 926
54 697 759
55 659 869
56 192 793
57 645 19
58 592 992
59 764 778
60 839 680
61 468 397
62 77 793
63 729 74
64 299 814
65 571 343
66 717 25
67 989 846
68 971 861
69 448 338
70 194 768
71 929 831
72 845 841
73 687 867
74 963 616
75 464 498
76 141 809
77 547 542
78 945 847
79 627 445
80 504 497
81 101 705
82 849 606
83 766 919
84 492 399
85 621 919
86 555 935
87 123 778
88 971 877
89 58 537
90 938 801
91 789 869
92 870 838
93 953 865
94 204 709
95 693 551
96 816 941
97 690 852
98 689 61
99 787 873
100 931 944
101 996 833
102 560 369
103 580 108
104 630 3
105 170 733
106 631 885
107 603 891
108 794 859
109 724 324
110 278 823
111 589 379
112 994 810
113 641 885
114 948 839
115 692 610
116 970 813
117 813 35
118 402 685
119 738 668
120 703 958
121 453 511
122 412 458
123 259 729
124 912 918
125 770 940
126 930 978
127 854 942
128 909 831
129 587 581
130 813 824
131 208 668
132 222 800
133 978 848
134 455 622
135 696 876
136 756 719
137 550 544
138 872 85
139 825 100
140 503 468
141 571 325
142 251 719
143 689 913
144 492 16
145 446 402
146 614 60
147 500 144
148 469 435
149 171 802
150 237 542
151 516 491
152 550 958
153 598 690
154 193 835
155 567 576
156 747 781
157 530 102
158 496 518
159 210 827
160 779 754
161 226 781
162 722 772
163 655 831
164 639 360
165 880 871
166 786 17
167 449 521
168 717 794
169 786 907
170 505 383
171 677 883
172 705 778
173 536 495
174 923 981
175 913 861
176 684 47
177 580 474
178 165 445
179 481 45
180 243 773
181 206 793
182 240 653
183 989 973
184 676 184
185 782 780
186 976 919
187 949 912
188 204 768
189 652 8
190 636 854
191 632 5
192 753 830
193 894 901
194 883 814
195 564 508
196 876 903
197 305 703
198 865 852
199 514 380
200 701 54
201 343 924
202 721 920
203 490 458
204 534 592
205 259 778
206 474 652
207 193 899
208 177 722
209 270 754
210 284 335
211 967 750
212 485 462
213 644 779
214 461 532
215 611 509
216 564 75
217 364 519
218 517 18
219 998 838
220 949 850
221 928 822
222 601 533
223 923 783
224 102 799
225 726 914
226 834 244
227 239 755
228 838 831
229 866 934
230 630 73
231 793 816
232 949 878
233 72 589
234 436 525
235 541 524
236 543 471
237 588 198
238 640 38
239 440 626
240 178 630
241 721 822
242 528 881
243 705 976
244 653 366
245 981 905
246 679 929
247 793 937
248 335 676
249 212 772
250 896 799
251 233 776
252 902 891
253 1000 799
254 169 693
255 45 654
256 868 917
257 152 749
258 233 943
259 316 594
260 408 600
261 945 853
262 509 590
263 843 915
264 471 500
265 775 770
266 303 689
267 579 103
268 935 853
269 659 857
270 426 546
271 932 920
272 996 850
273 237 642
274 840 94
275 706 671
276 190 756
277 163 677
278 734 882
279 403 754
280 669 187
281 947 869
282 783 848
283 747 889
284 710 131
285 851 992
286 157 888
287 964 968
288 550 923
289 320 759
290 881 806
291 941 885
292 333 404
293 990 838
294 171 759
295 647 47
296 296 835
297 655 146
298 243 669
299 475 535
300 197 879
301 565 50
302 985 834
303 784 970
304 546 65
305 144 788
306 870 661
307 508 521
308 669 386
309 845 859
310 268 693
311 860 854
312 768 700
313 196 769
314 245 941
315 411 529
316 535 56
317 327 947
318 789 831
319 145 726
320 708 76
321 808 838
322 657 144
323 686 66
324 514 578
325 894 933
326 909 814
327 579 57
328 938 972
329 435 803
330 730 857
331 819 787
332 861 742
333 251 785
334 497 40
335 969 748
336 990 860
337 701 863
338 195 682
339 610 942
340 103 703
341 802 833
342 260 726
343 221 735
344 777 692
345 984 821
346 912 928
347 475 554
348 959 862
349 646 31
350 991 886
351 735 812
352 707 889
353 333 824
354 824 954
355 197 855
356 487 514
357 570 729
358 653 40
359 850 803
360 630 47
361 563 493
362 216 737
363 689 858
364 688 876
365 883 783
366 334 767
367 847 890
368 966 862
369 524 554
370 181 847
371 886 743
372 241 760
373 995 751
374 663 926
375 660 593
376 807 731
377 124 687
378 282 720
379 704 58
380 950 824
381 825 869
382 795 770
383 150 720
384 664 408
385 222 837
386 930 938
387 313 960
388 819 911
389 906 880
390 180 749
391 914 961
392 357 506
393 649 780
394 975 865
395 687 737
396 258 723
397 543 546
398 660 70
399 650 873
400 541 495
DEMAND_SECTION
2 42
3 56
4 29
5 28
6 66
7 92
8 99
9 97
10 75
11 52
12 13
13 67
14 69
15 60
16 77
17 26
18 97
19 74
20 26
21 28
22 60
23 74
24 87
25 95
26 59
27 56
28 64
29 42
30 68
31 15
32 59
33 62
34 29
35 66
36 63
37 24
38 9
39 73
40 60
41 100
42 56
43 75
44 37
45 100
46 4
47 100
48 33
49 96
50 28
51 78
52 92
53 76
54 84
55 54
56 3
57 14
58 69
59 99
60 66
61 56
62 31
63 8
64 45
65 15
66 10
67 76
68 98
69 99
70 14
71 75
72 91
73 59
74 51
75 66
76 35
77 66
78 77
79 24
80 40
81 28
82 53
83 81
84 52
85 72
86 79
87 22
88 57
89 46
90 60
91 59
92 87
93 88
94 15
95 71
96 93
97 79
98 5
99 69
100 91
101 52
102 16
103 44
104 46
105 43
106 66
107 73
108 94
109 47
110 16
111 44
112 52
113 59
114 83
115 63
116 100
117 29
118 26
119 67
120 70
121 16
122 78
123 32
124 100
125 89
126 52
127 96
128 52
129 88
130 51
131 4
132 45
133 83
134 46
135 75
136 99
137 67
138 19
139 22
140 4
141 23
142 22
143 70
144 80
145 74
146 10
147 36
148 80
149 19
150 49
151 22
152 79
153 59
154 42
155 53
156 72
157 1
158 10
159 7
160 88
161 33
COVERAGE_SECTION
2 7 189 57 191 104 44 349 238 
3 7 11 25 330 337 278 135 352 
4 7 80 151 173 307 158 400 356 
5 7 188 249 313 70 276 161 181 
6 7 88 350 394 245 68 368 7 
7 7 336 272 394 67 68 133 350 
8 7 168 172 241 30 36 52 351 
9 7 275 153 395 115 119 375 54 
10 7 285 354 41 127 96 229 303 
11 7 3 25 330 337 278 135 352 
12 7 329 279 242 353 26 366 29 
13 7 250 326 43 194 290 128 221 
14 7 122 292 51 40 145 392 148 
15 7 42 95 375 215 222 35 115 
16 7 90 223 221 380 116 326 71 
17 7 64 296 353 110 366 29 289 
18 7 391 47 174 126 100 325 386 
19 7 32 306 371 22 60 332 211 
20 7 207 300 258 314 355 385 370 
21 7 79 384 308 244 164 111 177 
22 7 306 82 19 60 32 74 371 
23 7 61 145 84 148 170 51 199 
24 7 33 196 367 165 193 256 311 
25 7 3 11 330 278 337 352 135 
26 7 190 107 106 163 242 113 399 
27 7 283 278 225 25 83 3 11 
28 7 32 74 335 373 211 19 22 
29 7 201 353 296 17 317 64 387 
30 7 54 393 172 213 8 395 49 
31 7 240 277 377 254 338 131 340 
32 7 19 28 74 22 306 335 211 
33 7 367 24 309 196 165 263 381 
34 7 157 304 316 216 147 267 103 
35 7 222 129 155 215 137 42 77 
36 7 97 163 363 269 73 337 8 
37 7 181 132 161 249 56 251 188 
38 7 347 262 324 299 214 369 134 
39 7 186 245 45 350 187 6 88 
40 7 122 46 392 217 315 14 234 
41 7 285 10 18 127 229 391 47 
42 7 15 215 222 35 95 79 177 
43 7 250 290 365 13 194 326 223 
44 7 104 191 2 57 189 349 238 
45 7 183 39 287 186 245 328 187 
46 7 315 234 40 167 121 270 75 
47 7 18 391 346 100 325 386 124 
48 7 286 207 300 258 20 314 355 
49 7 162 54 172 168 156 395 30 
50 7 184 280 297 322 284 237 320 
51 7 145 61 23 14 69 148 122 
52 7 241 351 330 192 3 11 97 
53 7 202 225 143 120 246 352 27 
54 7 172 49 395 30 162 168 8 
55 7 399 269 171 113 190 73 364 
56 7 181 37 149 313 70 188 249 
57 7 2 349 189 191 238 104 358 
58 7 339 152 86 85 288 374 107 
59 7 265 156 185 160 382 162 351 
60 7 306 376 19 344 22 332 312 
61 7 23 145 84 148 170 51 199 
62 7 224 87 76 305 257 81 149 
63 7 320 379 200 98 323 66 176 
64 7 17 296 110 353 205 333 289 
65 7 141 102 111 199 164 170 244 
66 7 200 379 176 98 63 323 320 
67 7 272 293 133 219 302 336 101 
68 7 368 394 348 133 88 93 336 
69 7 51 61 145 23 170 84 199 
70 7 313 188 276 5 249 390 56 
71 7 221 128 114 380 78 268 326 
72 7 228 309 311 198 92 381 130 
73 7 363 364 135 97 337 171 55 
74 7 32 28 22 19 306 82 335 
75 7 264 121 167 356 214 158 234 
76 7 305 149 87 224 56 370 154 
77 7 137 397 235 369 195 155 307 
78 7 220 261 114 268 93 348 281 
79 7 21 384 177 215 308 42 111 
80 7 4 151 158 307 356 140 173 
81 7 340 377 319 383 257 277 254 
82 7 22 306 60 19 344 74 32 
83 7 125 169 247 27 283 225 202 
84 7 170 23 61 199 148 145 203 
85 7 339 107 106 113 374 399 246 
86 7 288 152 339 242 107 58 85 
87 7 305 224 76 257 62 294 149 
88 7 6 394 68 368 348 93 232 
89 7 233 255 31 178 240 377 340 
90 7 16 221 223 380 71 326 116 
91 7 99 108 282 321 381 169 318 
92 7 198 311 72 194 228 309 165 
93 7 281 348 368 232 261 220 68 
94 7 338 208 362 343 254 131 105 
95 7 15 375 115 42 35 215 222 
96 7 354 247 388 263 127 10 303 
97 7 363 73 337 36 364 135 269 
98 7 323 200 176 379 320 398 63 
99 7 91 108 282 169 381 321 318 
100 7 386 47 271 391 346 328 18 
101 7 219 293 302 67 272 345 112 
102 7 65 111 141 199 170 84 164 
103 7 267 216 157 327 304 146 301 
104 7 191 44 2 57 189 349 238 
105 7 208 390 257 383 294 319 276 
106 7 113 399 107 190 55 85 269 
107 7 106 85 113 190 399 339 55 
108 7 91 99 282 321 341 318 381 
109 7 244 308 164 384 21 226 50 
110 7 296 64 17 333 205 353 385 
111 7 102 65 164 141 244 199 79 
112 7 253 345 101 116 302 219 293 
113 7 106 399 55 190 269 171 107 
114 7 78 220 261 380 268 71 348 
115 7 375 95 275 119 9 15 35 
116 7 345 380 112 302 293 101 253 
117 7 166 274 139 138 63 66 379 
118 7 248 279 239 206 134 260 197 
119 7 275 312 344 136 115 9 395 
120 7 243 53 246 202 143 225 374 
121 7 167 75 264 214 234 299 356 
122 7 40 14 46 148 75 145 121 
123 7 342 396 142 378 209 227 372 
124 7 346 271 325 193 386 47 252 
125 7 83 247 303 169 96 225 202 
126 7 174 328 391 18 100 287 47 
127 7 229 256 263 354 10 41 96 
128 7 326 71 221 13 175 194 268 
129 7 155 35 222 137 204 77 397 
130 7 341 321 231 318 228 72 331 
131 7 338 182 298 273 94 254 277 
132 7 37 181 161 251 159 249 56 
133 7 67 68 293 302 336 394 272 
134 7 239 206 38 260 262 347 324 
135 7 364 73 337 352 363 171 11 
136 7 312 344 160 376 119 265 49 
137 7 77 397 235 369 155 195 307 
138 7 274 139 117 166 63 226 320 
139 7 274 138 117 166 63 284 320 
140 7 203 212 151 80 4 236 173 
141 7 65 102 111 164 199 170 244 
142 7 396 342 123 310 378 343 227 
143 7 246 53 374 352 171 202 225 
144 7 218 334 179 316 304 301 34 
145 7 23 61 51 148 84 170 69 
146 7 230 360 238 295 327 349 358 
147 7 34 157 103 267 304 216 316 
148 7 203 212 23 61 145 84 140 
149 7 56 305 76 181 154 70 313 
150 6 259 273 240 182 178 392 
151 7 4 80 173 400 140 307 158 
152 7 86 288 58 339 242 85 107 
153 7 357 9 213 395 393 129 275 
154 7 370 159 355 385 149 56 181 
155 7 129 137 204 397 77 35 369 
156 7 59 162 265 168 351 49 185 
157 7 34 304 216 316 267 103 147 
158 7 356 307 80 4 299 264 151 
159 7 385 154 132 355 37 181 370 
160 7 265 382 185 59 376 136 156 
161 7 251 37 249 132 180 5 181 
162 7 49 172 168 156 54 8 59 
163 7 36 269 190 55 97 399 363 
164 7 244 308 111 384 65 21 141 
165 7 24 198 311 389 252 33 196 
166 7 117 66 63 139 379 200 274 
167 7 121 234 214 75 264 299 270 
168 7 172 8 162 351 241 156 49 
169 7 83 247 388 99 125 91 27 
170 7 199 84 61 23 102 145 148 
171 7 364 73 135 55 363 399 337 
172 7 162 168 54 49 8 30 156 
173 7 400 151 4 236 361 235 195 
174 7 126 328 391 18 47 100 287 
175 7 389 268 128 252 261 71 165 
176 7 98 200 323 379 358 398 295 
177 7 361 236 195 400 215 173 79 
178 7 150 89 210 233 292 240 31 
179 7 334 144 218 316 34 304 157 
180 7 251 372 333 205 227 161 249 
181 7 37 56 132 249 161 188 313 
182 7 273 298 131 310 338 240 94 
183 7 45 287 39 328 186 126 100 
184 7 280 50 297 322 284 237 320 
185 7 265 382 59 160 156 231 331 
186 7 39 245 187 6 350 88 271 
187 7 271 186 291 386 245 232 100 
188 7 5 313 249 70 276 181 161 
189 7 2 57 191 104 349 44 238 
190 7 269 399 55 163 106 113 36 
191 7 104 44 2 57 189 349 238 
192 7 351 52 241 282 330 318 231 
193 7 252 196 389 124 24 256 325 
194 7 290 13 43 250 326 92 128 
195 7 361 400 235 173 77 177 137 
196 7 256 24 193 252 33 165 367 
197 7 266 378 310 248 342 396 123 
198 7 311 92 309 72 165 228 24 
199 7 170 84 102 61 23 65 145 
200 7 379 98 176 323 320 66 63 
201 7 317 29 387 314 353 296 17 
202 7 225 53 143 352 27 278 283 
203 7 212 140 148 80 151 264 4 
204 7 324 262 155 369 397 137 77 
205 7 333 180 372 209 251 227 161 
206 7 134 239 262 38 118 260 324 
207 7 300 20 286 355 370 258 48 
208 7 105 383 390 94 254 319 276 
209 7 205 123 342 372 227 180 396 
210 7 292 14 51 178 69 145 122 
211 7 335 373 16 223 90 253 116 
212 7 203 140 148 80 264 75 151 
213 7 393 30 163 54 8 395 172 
214 7 299 167 121 234 347 356 75 
215 7 222 42 35 177 195 361 15 
216 7 304 327 301 267 316 103 157 
217 7 392 40 315 46 270 234 122 
218 7 144 334 316 179 304 301 327 
219 7 101 293 67 272 302 133 345 
220 7 78 261 114 268 93 348 281 
221 7 71 128 326 380 90 114 13 
222 7 35 215 195 42 129 137 77 
223 7 16 90 250 13 326 43 221 
224 7 62 87 76 305 149 257 294 
225 7 202 53 27 352 278 283 143 
226 7 109 139 50 274 138 284 184 
227 7 372 180 251 343 161 362 205 
228 7 72 130 309 359 321 311 92 
229 7 127 256 325 263 196 41 193 
230 7 146 360 398 295 238 358 349 
231 7 318 341 130 321 282 185 331 
232 7 281 291 93 348 88 368 261 
233 7 89 255 31 377 240 340 81 
234 7 167 121 270 315 46 214 75 
235 7 77 137 397 195 173 400 307 
236 7 400 173 361 151 177 140 4 
237 7 280 297 322 184 103 267 147 
238 7 349 295 358 360 57 2 189 
239 7 134 260 206 38 118 262 347 
240 7 31 131 277 338 273 254 182 
241 7 52 351 168 8 192 330 97 
242 7 288 86 26 107 152 12 85 
243 7 120 53 246 202 143 225 374 
244 7 164 308 384 21 111 109 79 
245 7 186 39 350 6 88 187 394 
246 7 374 143 53 120 202 171 225 
247 7 96 125 169 83 303 354 388 
248 6 266 197 118 310 378 259 
249 7 5 188 313 161 70 37 251 
250 7 43 13 290 194 326 365 223 
251 7 161 180 372 333 249 227 37 
252 7 389 193 124 196 165 175 24 
253 7 112 345 116 101 302 219 293 
254 7 277 338 208 383 94 105 319 
255 7 233 81 340 377 31 89 277 
256 7 196 229 263 127 24 193 325 
257 7 294 105 319 390 383 208 276 
258 7 314 20 207 300 387 48 286 
259 6 248 217 260 273 150 182 
260 6 239 134 270 315 38 234 
261 7 220 78 268 93 114 281 348 
262 7 324 204 38 369 347 397 155 
263 7 388 256 367 127 229 33 196 
264 7 75 121 356 167 158 80 214 
265 7 185 59 160 382 156 331 231 
266 7 197 248 310 378 396 342 123 
267 7 103 216 327 157 304 146 301 
268 7 261 78 220 114 281 93 71 
269 7 55 399 190 163 36 73 363 
270 7 234 315 167 214 46 121 299 
271 7 386 187 124 346 100 47 291 
272 7 67 219 336 293 7 101 133 
273 7 182 298 131 338 240 310 94 
274 7 139 138 117 166 63 320 284 
275 7 119 9 115 312 136 395 344 
276 7 390 70 313 188 294 5 249 
277 7 254 338 377 31 383 131 208 
278 7 283 27 25 3 11 330 352 
279 7 329 118 366 12 289 353 248 
280 7 184 50 297 322 284 237 398 
281 7 93 232 348 261 291 220 268 
282 7 108 318 91 341 99 321 231 
283 7 27 278 25 225 3 11 83 
284 7 320 322 297 50 63 184 280 
285 7 10 41 354 127 229 96 18 
286 7 207 300 370 355 48 154 20 
287 7 183 328 126 45 100 174 386 
288 7 86 152 242 107 339 85 58 
289 7 366 209 378 197 64 205 17 
290 7 194 43 250 13 365 326 359 
291 7 232 281 93 187 348 88 261 
292 7 14 210 51 122 40 392 145 
293 7 302 67 101 219 272 133 345 
294 7 390 276 257 70 105 313 188 
295 7 358 238 349 360 398 57 230 
296 7 17 64 110 353 29 333 205 
297 7 322 184 280 284 50 398 230 
298 7 182 273 131 310 338 142 94 
299 7 214 347 356 158 167 121 264 
300 7 207 355 20 370 286 154 385 
301 7 327 304 216 316 146 267 218 
302 7 293 101 67 345 219 133 272 
303 7 125 247 96 354 83 10 169 
304 7 316 216 301 327 34 157 267 
305 7 76 87 149 257 294 224 56 
306 7 22 60 19 82 32 332 371 
307 7 158 356 4 80 151 235 299 
308 7 384 244 164 21 79 111 109 
309 7 311 72 198 381 33 228 367 
310 7 378 142 396 342 266 298 123 
311 7 198 309 92 72 165 33 228 
312 7 344 136 119 376 160 275 265 
313 7 70 188 5 276 249 56 181 
314 7 258 20 207 387 300 317 48 
315 7 46 270 234 167 121 217 214 
316 7 304 301 216 334 218 34 327 
317 7 387 201 29 314 258 20 296 
318 7 341 231 282 321 130 108 192 
319 7 383 257 105 208 254 294 390 
320 7 379 63 200 98 323 176 398 
321 7 341 130 318 108 231 282 228 
322 7 297 184 280 284 50 398 230 
323 7 98 176 200 379 320 398 358 
324 7 262 204 369 38 397 347 77 
325 7 346 47 124 229 18 256 193 
326 7 13 128 250 221 71 194 43 
327 7 301 216 304 146 316 267 103 
328 7 126 174 287 391 100 18 386 
329 7 12 279 353 366 242 118 289 
330 7 3 11 25 278 52 337 192 
331 7 382 359 130 185 231 265 228 
332 7 371 365 376 43 331 359 19 
333 7 205 180 251 161 372 227 132 
334 7 179 144 218 316 304 34 301 
335 7 211 373 16 223 253 90 116 
336 7 7 272 67 394 133 68 293 
337 7 363 135 73 97 11 364 3 
338 7 131 94 254 277 208 298 182 
339 7 85 107 58 86 374 106 152 
340 7 81 377 319 383 277 254 257 
341 7 321 318 130 231 282 108 228 
342 7 123 396 142 378 209 310 227 
343 7 362 227 94 372 5 142 188 
344 7 312 136 119 376 160 60 275 
345 7 302 112 116 101 293 219 67 
346 7 124 47 325 386 271 100 193 
347 7 299 38 214 158 167 356 324 
348 7 93 368 68 281 220 394 261 
349 7 238 358 57 295 360 2 189 
350 7 6 245 7 88 336 394 68 
351 7 241 52 168 192 156 8 162 
352 7 135 25 364 11 3 337 278 
353 7 17 64 296 110 366 29 289 
354 7 96 10 127 247 263 303 388 
355 7 370 154 300 159 385 207 20 
356 7 158 264 307 80 299 75 4 
357 7 153 213 393 9 26 30 395 
358 7 295 349 238 57 360 398 176 
359 7 228 290 194 331 72 43 365 
360 7 238 295 146 349 358 230 57 
361 7 195 400 177 173 236 235 151 
362 7 343 227 5 94 276 188 372 
363 7 97 73 337 364 135 36 171 
364 7 135 73 171 337 363 352 97 
365 7 43 250 290 13 194 359 223 
366 7 289 353 64 17 209 197 279 
367 7 33 24 263 381 309 196 256 
368 7 68 348 394 93 88 133 281 
369 7 397 77 324 137 235 307 204 
370 7 154 355 159 300 385 149 286 
371 7 332 365 43 19 223 250 290 
372 7 227 180 251 205 161 333 209 
373 7 335 211 253 112 116 28 16 
374 7 246 143 85 171 113 53 120 
375 7 115 95 15 35 129 42 9 
376 7 160 382 344 265 312 136 185 
377 7 340 81 277 383 319 254 31 
378 7 342 396 123 197 310 142 209 
379 7 200 98 320 323 176 63 66 
380 7 114 71 221 116 78 90 220 
381 7 309 367 33 108 72 321 91 
382 7 185 265 160 331 59 376 231 
383 7 319 105 208 257 254 377 390 
384 7 308 21 244 79 164 111 109 
385 7 159 154 355 132 370 37 181 
386 7 100 271 346 47 124 391 187 
387 7 317 201 314 29 258 20 296 
388 7 263 96 169 367 247 33 381 
389 7 252 175 193 165 291 124 196 
390 7 276 294 105 70 313 208 257 
391 7 18 47 174 126 100 328 386 
392 7 217 40 46 315 122 270 234 
393 7 213 30 163 54 8 172 395 
394 7 68 368 88 7 336 348 133 
395 7 54 30 49 172 162 393 213 
396 7 342 123 142 378 310 209 227 
397 7 77 137 369 235 155 195 307 
398 7 295 323 98 230 358 176 238 
399 7 55 113 269 106 190 171 73 
400 7 173 361 236 151 195 4 235 
DEPOT_SECTION
   1
   -1
EOF
