NAME :  X-n429-kX-w171-c11.cctp
COMMENT : 	Adapted by Maziero, Usberti and Cavellucci from the Uchoa, Pecin, Pessoa, Poggi, Subramanian, and Vidal (2013)
TYPE :  CCTP
DIMENSION :    423
EDGE_WEIGHT_TYPE : 	EUC_2D	
CAPACITY : 	536
VERTICES_WITHIN_COVERAGE :  11
VERTICES_WITH_DEMAND : 	171
NODE_COORD_SECTION
1 238 446
2 749 750
3 960 879
4 914 116
5 517 477
6 554 143
7 850 488
8 739 177
9 229 160
10 539 573
11 901 821
12 787 399
13 974 203
14 89 387
15 561 27
16 103 139
17 174 826
18 40 578
19 359 23
20 440 649
21 588 265
22 182 275
23 401 993
24 751 564
25 797 274
26 756 252
27 871 882
28 693 417
29 710 620
30 960 422
31 530 904
32 124 126
33 67 587
34 440 336
35 219 38
36 609 504
37 936 474
38 800 689
39 358 530
40 914 753
41 210 96
42 95 816
43 441 389
44 506 963
45 114 285
46 333 191
47 545 892
48 59 618
49 698 385
50 977 931
51 822 79
52 951 91
53 341 759
54 439 290
55 1 258
56 756 147
57 252 284
58 588 168
59 895 501
60 759 442
61 967 855
62 244 601
63 888 148
64 442 18
65 847 877
66 683 267
67 446 301
68 997 815
69 586 777
70 129 986
71 613 331
72 811 156
73 704 494
74 265 216
75 511 373
76 981 261
77 48 985
78 723 558
79 839 828
80 803 737
81 296 719
82 589 252
83 374 862
84 277 82
85 451 183
86 904 681
87 474 908
88 609 185
89 346 382
90 158 866
91 572 161
92 704 828
93 142 331
94 801 969
95 680 88
96 672 178
97 827 566
98 728 793
99 888 917
100 326 298
101 718 636
102 792 283
103 866 141
104 682 640
105 961 604
106 299 23
107 358 22
108 460 546
109 27 552
110 508 739
111 692 85
112 582 748
113 220 76
114 128 795
115 268 622
116 673 871
117 167 789
118 827 698
119 68 190
120 561 928
121 328 817
122 719 595
123 152 111
124 780 824
125 486 302
126 877 775
127 156 976
128 62 854
129 257 906
130 824 163
131 796 134
132 848 204
133 581 299
134 37 832
135 364 210
136 778 453
137 229 676
138 448 488
139 234 586
140 194 65
141 300 238
142 939 983
143 354 914
144 647 901
145 719 709
146 845 806
147 753 610
148 384 707
149 741 825
150 457 590
151 35 357
152 862 623
153 447 838
154 518 607
155 886 602
156 235 680
157 249 16
158 724 269
159 567 58
160 865 296
161 387 143
162 222 629
163 419 205
164 813 784
165 426 19
166 116 881
167 361 788
168 346 845
169 762 959
170 961 860
171 388 315
172 433 70
173 116 292
174 264 540
175 76 564
176 247 445
177 42 866
178 988 538
179 77 75
180 664 842
181 419 541
182 46 609
183 624 658
184 761 523
185 954 696
186 807 151
187 22 882
188 320 646
189 682 723
190 591 702
191 163 587
192 327 755
193 467 531
194 8 378
195 469 286
196 502 45
197 278 681
198 104 123
199 638 65
200 806 705
201 87 388
202 70 459
203 427 812
204 727 965
205 736 661
206 108 285
207 635 631
208 442 797
209 808 238
210 494 268
211 761 524
212 455 188
213 843 3
214 84 342
215 509 878
216 98 641
217 835 478
218 814 202
219 285 973
220 33 673
221 729 323
222 193 813
223 702 480
224 748 318
225 925 844
226 814 904
227 68 961
228 59 627
229 773 483
230 845 468
231 904 365
232 613 161
233 79 325
234 532 267
235 426 537
236 382 505
237 603 595
238 700 327
239 58 709
240 166 753
241 554 159
242 251 439
243 925 3
244 97 16
245 97 24
246 667 660
247 355 936
248 130 923
249 852 837
250 507 813
251 381 911
252 554 116
253 387 383
254 908 985
255 236 723
256 479 755
257 728 93
258 85 31
259 861 58
260 348 13
261 850 535
262 833 72
263 393 995
264 433 581
265 184 919
266 20 992
267 680 498
268 330 163
269 115 593
270 100 942
271 768 928
272 466 983
273 477 550
274 599 837
275 406 531
276 596 274
277 60 921
278 622 862
279 550 949
280 301 792
281 354 963
282 856 708
283 493 303
284 817 131
285 557 353
286 183 731
287 910 91
288 833 437
289 72 12
290 94 829
291 619 456
292 761 88
293 317 184
294 357 202
295 516 212
296 655 419
297 789 881
298 439 945
299 823 190
300 523 905
301 561 376
302 13 539
303 591 737
304 827 661
305 788 713
306 455 357
307 200 213
308 982 944
309 199 197
310 344 164
311 859 498
312 855 650
313 605 903
314 961 616
315 266 819
316 391 167
317 791 757
318 291 577
319 490 126
320 25 95
321 20 522
322 121 204
323 755 392
324 549 56
325 43 240
326 110 305
327 739 76
328 84 184
329 953 127
330 108 836
331 76 779
332 331 883
333 45 791
334 791 266
335 854 741
336 66 316
337 322 731
338 162 83
339 110 342
340 648 917
341 987 835
342 53 290
343 339 605
344 508 883
345 946 885
346 628 906
347 986 694
348 660 678
349 309 48
350 873 461
351 949 410
352 193 531
353 890 388
354 104 508
355 81 698
356 778 937
357 704 356
358 469 110
359 687 142
360 158 154
361 471 294
362 439 348
363 25 467
364 661 710
365 113 935
366 316 819
367 807 40
368 687 897
369 255 902
370 730 134
371 698 366
372 219 270
373 728 209
374 137 420
375 814 593
376 315 153
377 60 763
378 324 822
379 226 7
380 613 135
381 989 857
382 904 996
383 460 538
384 828 569
385 951 678
386 819 618
387 991 254
388 253 75
389 588 802
390 840 877
391 750 865
392 260 38
393 244 697
394 63 980
395 620 219
396 800 109
397 467 220
398 417 647
399 938 810
400 898 705
401 507 121
402 154 615
403 993 267
404 817 539
405 358 136
406 527 863
407 275 964
408 555 502
409 439 480
410 237 9
411 501 789
412 79 432
413 636 429
414 272 761
415 454 640
416 515 783
417 734 311
418 226 723
419 946 827
420 473 856
421 641 87
422 523 585
423 231 980
DEMAND_SECTION
2 55
3 64
4 100
5 66
6 68
7 95
8 67
9 100
10 75
11 65
12 98
13 100
14 66
15 82
16 84
17 89
18 62
19 64
20 87
21 94
22 75
23 53
24 99
25 85
26 87
27 83
28 82
29 78
30 84
31 67
32 61
33 56
34 63
35 98
36 79
37 95
38 92
39 51
40 66
41 50
42 82
43 66
44 75
45 73
46 83
47 76
48 72
49 62
50 78
51 56
52 98
53 56
54 51
55 84
56 81
57 65
58 61
59 64
60 78
61 78
62 78
63 60
64 59
65 80
66 88
67 96
68 75
69 81
70 51
71 61
72 67
73 56
74 87
75 88
76 54
77 50
78 99
79 85
80 79
81 94
82 86
83 85
84 58
85 82
86 52
87 52
88 60
89 66
90 84
91 62
92 83
93 60
94 84
95 78
96 97
97 51
98 79
99 54
100 54
101 84
102 75
103 94
104 60
105 100
106 90
107 75
108 51
109 90
110 90
111 79
112 93
113 64
114 86
115 97
116 83
117 77
118 54
119 81
120 76
121 72
122 56
123 74
124 62
125 84
126 80
127 91
128 60
129 54
130 89
131 68
132 79
133 61
134 88
135 71
136 84
137 64
138 95
139 72
140 79
141 100
142 83
143 78
144 53
145 57
146 81
147 86
148 86
149 51
150 84
151 88
152 67
153 65
154 80
155 94
156 79
157 56
158 91
159 69
160 90
161 71
162 70
163 83
164 63
165 71
166 66
167 63
168 77
169 81
170 50
171 75
172 51
COVERAGE_SECTION
2 11 317 98 145 305 80 164 189 200 149 38 124 
3 11 345 170 61 381 225 341 419 50 308 399 68 
4 11 287 63 329 52 103 259 262 284 51 130 13 
5 11 408 138 193 409 273 383 108 36 10 75 291 
6 11 241 91 252 58 401 380 232 319 88 295 159 
7 11 311 217 230 350 59 261 288 404 229 136 97 
8 11 56 373 370 359 96 131 186 72 26 218 257 
9 11 309 307 41 74 360 113 376 388 123 293 84 
10 11 422 154 273 237 408 108 193 150 383 5 36 
11 11 225 399 419 126 249 146 79 27 40 170 61 
12 11 323 60 136 288 229 49 224 230 217 357 371 
13 11 387 76 403 329 63 4 52 103 132 287 160 
14 11 201 214 412 339 374 151 233 202 336 93 194 
15 11 324 159 196 199 252 421 401 6 64 380 319 
16 11 198 32 328 123 360 119 322 179 338 320 258 
17 11 222 117 90 114 330 240 42 166 290 315 265 
18 11 33 109 182 175 48 302 228 321 269 216 220 
19 11 107 260 349 106 165 64 172 392 84 157 405 
20 11 415 398 150 264 148 154 108 422 273 181 343 
21 11 276 82 133 234 395 71 88 295 285 210 66 
22 11 372 307 173 45 93 57 206 326 309 322 339 
23 11 263 281 298 272 247 251 143 44 87 219 407 
24 11 78 211 184 122 147 29 375 404 97 384 101 
25 11 102 334 209 26 224 160 158 417 218 221 132 
26 11 158 334 25 102 373 209 417 224 66 221 8 
27 11 65 390 99 249 226 79 225 11 345 146 297 
28 11 49 296 371 413 357 223 323 60 73 267 291 
29 11 101 122 104 147 205 246 78 24 207 348 145 
30 11 351 37 353 231 350 59 178 230 311 7 288 
31 11 300 47 344 215 120 406 279 87 44 313 420 
32 11 198 16 123 360 338 179 328 322 119 41 140 
33 11 175 18 182 48 228 269 109 216 302 321 354 
34 11 362 306 67 54 361 43 171 125 195 283 253 
35 11 379 410 140 157 113 392 388 41 84 338 106 
36 11 291 408 267 413 237 5 73 223 296 10 422 
37 11 59 30 350 351 311 178 7 230 353 217 261 
38 11 200 305 118 304 80 282 312 317 205 386 335 
39 11 236 275 181 235 343 318 264 174 409 138 383 
40 11 126 400 335 399 11 185 86 282 419 385 146 
41 11 113 140 388 338 35 123 9 84 392 360 157 
42 11 290 330 114 331 128 333 134 377 166 177 117 
43 11 306 362 34 253 75 67 171 409 89 125 54 
44 11 272 279 300 31 87 120 298 344 47 215 406 
45 11 206 173 326 233 93 336 339 342 214 22 322 
46 11 293 294 268 310 135 376 141 405 316 74 161 
47 11 31 300 406 344 120 215 279 313 87 274 420 
48 11 228 182 33 18 216 175 220 269 109 355 239 
49 11 371 357 28 296 323 238 221 413 417 60 224 
50 11 308 3 345 142 170 381 61 254 99 341 382 
51 11 262 396 367 259 284 131 292 186 103 72 213 
52 11 329 287 4 63 243 259 103 13 262 51 213 
53 11 192 337 167 280 121 81 366 378 148 414 168 
54 11 67 195 361 34 125 283 171 362 210 306 397 
55 11 325 342 336 119 233 151 206 328 45 214 326 
56 11 370 8 131 186 72 396 292 257 284 373 359 
57 11 372 141 74 22 100 307 309 293 93 46 9 
58 11 91 232 88 241 380 6 395 252 82 295 96 
59 11 311 350 7 37 261 230 217 404 288 97 384 
60 11 136 229 323 12 223 28 288 73 184 211 49 
61 11 170 381 3 341 419 345 225 68 399 11 50 
62 11 139 115 162 318 174 137 156 191 197 352 188 
63 11 103 4 287 130 329 132 284 72 299 186 52 
64 11 165 172 196 19 107 260 358 324 319 15 401 
65 11 390 27 249 226 79 99 297 146 11 124 225 
66 11 158 238 417 221 373 26 395 224 276 96 357 
67 11 54 361 195 34 125 283 362 306 210 171 397 
68 11 341 381 61 419 170 399 3 225 345 11 40 
69 11 389 112 303 274 416 190 411 110 250 278 364 
70 11 127 270 365 248 227 394 77 265 277 423 166 
71 11 133 276 285 301 21 82 238 371 357 66 296 
72 11 186 130 284 131 299 218 396 56 103 132 8 
73 11 223 267 184 211 78 229 60 28 24 136 296 
74 11 141 293 307 9 57 309 372 46 376 268 294 
75 11 285 301 306 43 283 125 362 34 361 67 195 
76 11 387 403 13 160 231 329 132 63 351 353 4 
77 11 394 266 227 277 270 70 365 248 187 127 177 
78 11 24 122 211 184 147 29 73 267 101 223 229 
79 11 249 146 390 65 164 124 11 27 126 297 226 
80 11 317 305 200 118 38 164 335 2 282 304 146 
81 11 337 197 192 414 393 53 255 418 156 280 188 
82 11 21 276 395 133 234 88 71 295 58 91 232 
83 11 168 332 251 143 121 378 366 203 167 247 153 
84 11 388 349 392 113 106 41 157 35 376 410 140 
85 11 212 163 397 316 319 295 161 358 401 135 210 
86 11 400 385 185 282 312 152 40 335 118 304 155 
87 11 344 215 300 298 420 31 44 406 47 153 272 
88 11 232 58 395 91 380 241 96 6 82 21 252 
89 11 253 171 100 43 362 34 242 306 176 236 67 
90 11 17 166 330 265 222 248 290 114 117 42 365 
91 11 58 241 6 232 88 252 380 395 295 401 319 
92 11 149 98 180 116 391 368 124 278 2 144 297 
93 11 339 326 173 45 206 214 233 22 14 336 201 
94 11 356 169 271 226 204 297 390 99 65 382 254 
95 11 111 421 199 257 359 327 370 292 380 96 56 
96 11 359 232 88 373 395 8 370 380 58 56 66 
97 11 384 404 375 261 386 152 155 311 24 211 184 
98 11 149 92 2 124 317 391 180 145 189 164 80 
99 11 27 65 390 345 254 226 3 382 225 142 249 
100 11 171 141 57 89 135 294 74 253 46 372 54 
101 11 29 205 104 122 147 246 348 145 78 24 207 
102 11 25 334 26 209 224 417 158 160 221 218 132 
103 11 63 130 284 4 72 186 299 132 287 131 396 
104 11 246 29 101 348 207 122 205 183 364 147 145 
105 11 314 178 155 385 185 347 86 152 312 400 59 
106 11 349 392 157 260 107 19 84 410 388 379 35 
107 11 19 260 349 106 165 64 172 392 84 157 405 
108 11 383 193 273 235 181 150 264 275 138 409 422 
109 11 302 18 321 175 33 182 48 228 363 354 269 
110 11 256 416 411 250 112 303 69 208 190 389 203 
111 11 95 257 327 421 359 199 370 292 56 380 96 
112 11 303 69 190 389 110 416 364 274 411 183 250 
113 11 41 140 388 35 392 84 338 157 379 410 123 
114 11 42 117 330 290 331 17 240 222 377 90 333 
115 11 62 162 139 318 188 197 137 156 343 393 174 
116 11 180 368 144 278 340 92 346 313 391 274 149 
117 11 222 240 17 114 286 330 42 90 290 418 331 
118 11 200 38 282 304 305 80 335 312 317 400 86 
119 11 328 322 325 16 198 32 55 360 342 206 320 
120 11 279 31 47 300 313 44 344 346 215 406 340 
121 11 378 366 168 280 167 53 192 315 83 332 414 
122 11 29 78 147 101 24 104 205 211 184 246 207 
123 11 338 32 360 198 16 41 140 113 179 9 309 
124 11 149 391 164 297 79 98 146 317 249 92 2 
125 11 283 361 195 210 67 54 34 234 306 362 75 
126 11 335 40 146 11 79 164 249 282 399 400 80 
127 11 70 248 365 265 270 423 227 394 166 77 90 
128 11 177 134 290 187 330 42 166 333 277 331 114 
129 11 369 407 219 265 332 423 315 143 247 366 90 
130 11 72 186 299 284 131 218 103 132 396 63 56 
131 11 186 284 396 72 130 56 292 51 299 370 103 
132 11 299 218 130 209 72 103 186 63 284 334 25 
133 11 276 21 71 82 234 285 301 283 395 210 125 
134 11 128 177 333 187 290 42 331 330 377 277 166 
135 11 294 46 310 316 293 163 268 141 161 405 376 
136 11 60 229 12 288 217 323 230 184 211 7 223 
137 11 156 393 418 162 255 197 115 286 62 81 139 
138 11 409 193 383 235 108 181 275 236 273 5 264 
139 11 62 162 115 174 318 352 191 402 137 156 188 
140 11 113 41 35 338 388 123 379 392 410 157 84 
141 11 74 46 293 100 57 294 135 268 310 376 372 
142 11 254 382 308 50 99 345 3 27 170 61 381 
143 11 247 251 332 281 83 168 263 298 219 23 407 
144 11 340 346 116 368 313 278 180 274 120 92 47 
145 11 189 2 205 364 348 305 246 101 104 38 98 
146 11 79 249 164 126 11 335 124 65 390 317 27 
147 11 122 29 101 24 205 78 375 386 104 384 97 
148 11 337 53 398 192 20 167 188 81 415 256 208 
149 11 98 92 124 391 297 2 180 116 164 317 368 
150 11 264 108 273 415 383 193 20 235 181 154 422 
151 11 194 214 336 233 201 14 342 339 412 326 206 
152 11 312 155 386 304 375 384 97 86 118 282 261 
153 11 420 203 208 250 411 215 87 344 83 406 416 
154 11 422 10 150 273 415 108 237 20 264 383 193 
155 11 152 312 384 97 386 375 105 261 314 86 304 
156 11 137 393 197 255 418 162 115 81 286 62 414 
157 11 410 379 392 35 106 388 113 349 84 140 41 
158 11 26 66 417 221 224 373 238 334 102 25 357 
159 11 324 15 252 196 199 421 6 401 380 241 91 
160 11 25 102 231 334 209 132 353 218 299 26 224 
161 11 316 405 310 268 294 163 135 46 376 85 293 
162 11 62 139 115 137 156 402 393 191 197 318 418 
163 11 85 212 316 397 135 294 161 310 46 54 405 
164 11 317 146 80 79 124 335 126 249 2 305 200 
165 11 64 172 19 107 260 196 358 349 319 106 324 
166 11 248 90 330 365 290 128 270 42 277 177 265 
167 11 53 121 192 378 366 168 280 337 203 83 208 
168 11 378 83 121 366 332 167 143 280 251 315 53 
169 11 356 271 204 94 226 297 391 368 390 65 340 
170 11 61 3 381 345 341 419 225 399 68 11 50 
171 11 34 54 67 362 100 253 89 306 195 361 43 
172 11 165 64 358 196 319 161 19 107 401 405 260 
173 11 45 206 326 93 233 339 336 214 342 22 322 
174 10 318 139 62 352 115 39 176 162 343 242 
175 11 33 18 269 109 182 48 354 228 302 321 216 
176 7 242 174 352 374 89 318 39 
177 11 128 187 134 277 290 330 42 333 166 331 270 
178 11 105 37 314 59 30 155 351 311 261 350 385 
179 11 258 198 245 320 244 289 16 32 123 338 328 
180 11 116 92 278 368 144 274 346 340 149 98 313 
181 11 235 275 108 383 264 193 236 273 138 39 150 
182 11 48 228 33 18 175 109 216 220 269 302 321 
183 11 207 348 246 190 104 364 237 303 189 29 101 
184 11 211 24 229 78 404 73 136 223 97 60 384 
185 11 385 347 86 400 40 314 105 282 312 126 335 
186 11 72 131 130 284 299 396 56 218 103 132 8 
187 11 177 128 134 277 290 227 166 333 42 270 330 
188 11 343 197 115 318 81 337 62 148 156 393 137 
189 11 364 145 348 246 2 205 104 98 183 303 190 
190 11 303 112 183 364 348 69 207 246 110 189 389 
191 9 402 269 352 139 162 62 216 175 33 
192 11 53 337 280 167 81 414 121 366 378 148 315 
193 11 383 108 273 235 138 181 409 150 264 275 5 
194 11 151 201 14 214 336 233 412 363 342 202 339 
195 11 361 125 67 283 54 210 34 234 397 362 306 
196 11 324 15 64 159 172 358 401 165 319 252 6 
197 11 393 81 156 137 188 255 115 337 418 162 414 
198 11 16 32 123 179 360 328 338 119 322 320 258 
199 11 421 95 111 159 380 15 324 359 257 252 232 
200 11 38 305 118 80 304 282 317 335 2 312 164 
201 11 14 412 214 339 374 151 233 202 336 93 194 
202 9 412 363 354 201 14 374 321 302 109 
203 11 208 153 420 167 83 256 411 250 168 416 121 
204 11 169 271 356 94 368 340 144 391 297 226 116 
205 11 101 29 145 147 104 122 246 38 305 348 189 
206 11 45 173 326 233 336 342 93 339 214 22 325 
207 11 183 246 104 237 348 29 101 364 190 122 189 
208 11 203 153 256 411 250 420 416 167 110 83 215 
209 11 334 218 25 102 299 132 26 130 160 72 373 
210 11 195 125 283 361 234 397 67 54 295 34 212 
211 11 184 24 229 78 404 73 136 223 97 384 60 
212 11 85 397 163 295 316 319 358 161 401 210 135 
213 11 367 259 262 51 243 287 396 292 327 284 4 
214 11 233 339 336 14 326 201 151 93 173 342 206 
215 11 344 406 300 31 47 420 87 250 120 153 279 
216 11 228 48 269 355 182 33 402 220 239 175 191 
217 11 230 7 311 288 350 261 136 229 59 404 60 
218 11 299 132 209 130 72 186 334 131 284 25 26 
219 11 407 423 281 129 369 247 143 332 263 251 265 
220 11 239 228 355 48 182 216 33 377 18 331 269 
221 11 417 224 238 357 371 158 49 66 323 102 26 
222 11 17 117 90 240 114 315 286 330 414 418 42 
223 11 73 267 28 60 229 184 211 296 78 136 413 
224 11 417 221 238 158 102 357 25 26 334 371 323 
225 11 419 11 399 170 61 345 3 341 381 27 249 
226 11 297 390 65 356 271 27 94 99 391 169 249 
227 11 394 77 270 277 365 266 70 248 127 187 166 
228 11 48 182 33 216 18 220 175 269 355 109 239 
229 11 136 184 60 211 217 73 223 404 230 288 7 
230 11 217 7 350 288 311 59 261 136 229 404 12 
231 11 353 351 160 30 288 350 37 230 12 76 217 
232 11 88 58 380 91 395 241 96 6 252 359 421 
233 11 336 214 339 326 342 206 173 45 151 14 93 
234 11 210 283 21 295 125 82 133 276 195 361 397 
235 11 181 275 383 108 193 264 273 138 236 409 150 
236 11 39 275 181 235 409 138 383 108 193 264 273 
237 11 207 183 10 422 154 36 104 246 348 408 190 
238 11 221 357 417 371 224 49 66 158 323 71 28 
239 11 355 220 377 331 216 228 333 48 182 114 42 
240 11 286 117 114 222 418 17 255 331 42 393 137 
241 11 6 91 58 252 232 401 88 380 295 319 395 
242 7 176 174 352 89 374 39 318 
243 11 213 259 287 52 4 262 367 329 51 63 103 
244 11 245 258 289 179 338 198 320 140 123 32 16 
245 11 244 258 289 179 338 198 320 123 140 32 16 
246 11 348 104 183 207 364 101 29 189 205 145 122 
247 11 143 281 251 332 263 23 83 219 298 407 168 
248 11 365 270 166 265 127 70 90 277 227 394 330 
249 11 79 146 65 390 27 11 164 126 124 225 226 
250 11 411 416 406 420 256 153 215 208 344 110 203 
251 11 143 247 83 332 281 298 168 23 263 87 153 
252 11 6 241 401 91 159 324 58 380 319 232 358 
253 11 89 43 362 171 34 306 67 100 54 409 138 
254 11 382 142 99 308 50 345 94 27 3 65 226 
255 11 418 393 156 137 414 286 197 81 240 337 117 
256 11 110 411 416 208 250 203 153 420 112 148 69 
257 11 327 292 111 370 95 56 359 396 131 8 421 
258 11 245 244 289 179 320 338 198 32 123 16 140 
259 11 262 51 367 213 287 4 396 103 243 284 63 
260 11 107 19 106 349 165 392 64 84 157 172 410 
261 11 404 311 97 384 7 59 217 230 375 155 350 
262 11 51 259 367 396 284 213 131 292 103 287 186 
263 11 23 281 298 247 272 251 143 219 44 87 407 
264 11 150 181 108 235 383 273 275 193 415 20 398 
265 11 248 90 127 365 369 129 423 166 70 270 17 
266 11 77 394 227 277 270 70 365 187 177 248 127 
267 11 73 223 36 78 291 28 413 296 184 211 229 
268 11 310 376 293 46 405 294 135 161 316 141 74 
269 11 402 33 191 175 216 48 228 182 18 354 109 
270 11 365 248 227 277 70 394 166 127 77 265 266 
271 11 356 169 297 226 94 204 391 368 390 65 124 
272 11 44 298 23 263 87 279 300 31 344 120 251 
273 11 108 193 383 150 235 264 422 181 10 138 154 
274 11 278 389 69 180 313 346 47 406 144 116 112 
275 11 181 235 236 39 383 108 264 138 193 409 273 
276 11 21 82 133 71 395 234 66 285 88 295 210 
277 11 227 270 187 365 177 394 77 128 166 248 266 
278 11 274 313 346 144 180 116 340 389 368 47 92 
279 11 120 44 31 300 47 313 344 215 87 346 406 
280 11 366 121 378 414 315 192 53 167 337 168 81 
281 11 247 143 263 23 251 219 407 332 298 83 129 
282 11 118 335 400 200 86 304 312 38 80 305 126 
283 11 125 361 195 210 67 234 54 34 306 362 75 
284 11 131 186 72 396 130 103 51 299 262 56 218 
285 11 301 75 133 71 283 125 276 234 21 306 361 
286 11 240 418 255 117 393 137 156 222 114 414 17 
287 11 4 52 329 259 63 103 262 51 243 284 213 
288 11 230 217 350 7 136 12 311 60 353 229 59 
289 11 258 244 245 179 320 338 198 32 123 16 140 
290 11 42 330 128 114 331 166 134 333 177 90 377 
291 11 413 36 296 267 408 28 223 73 301 5 49 
292 11 327 257 396 370 131 56 51 367 111 284 262 
293 11 46 268 376 310 294 135 141 74 405 316 161 
294 11 135 46 310 293 268 316 163 376 161 405 141 
295 11 397 234 210 241 212 85 91 6 82 58 195 
296 11 413 28 291 49 371 223 357 267 73 36 71 
297 11 226 391 271 390 356 65 124 79 149 249 27 
298 11 272 87 23 251 263 44 247 281 143 300 344 
299 11 218 130 132 72 186 209 284 131 103 63 56 
300 11 31 47 344 215 406 120 87 279 44 420 313 
301 11 285 75 71 133 413 291 283 296 125 276 306 
302 11 321 109 18 175 33 363 182 48 354 202 228 
303 11 112 190 69 389 364 110 183 416 348 189 274 
304 11 312 118 38 386 200 152 282 305 375 80 86 
305 11 200 38 80 118 317 2 304 282 145 335 205 
306 11 362 34 43 67 75 125 361 283 54 195 253 
307 11 309 9 372 22 74 360 322 57 141 45 123 
308 11 50 142 3 345 254 170 381 61 382 99 341 
309 11 307 9 360 74 372 322 22 123 41 57 32 
310 11 268 46 376 405 293 294 316 161 135 163 141 
311 11 7 217 230 59 261 350 404 288 97 384 37 
312 11 152 304 386 118 155 86 282 38 375 400 200 
313 11 346 144 278 340 120 47 274 279 31 116 300 
314 11 105 385 155 185 347 178 86 152 400 312 59 
315 11 280 366 378 414 121 222 168 369 129 192 332 
316 11 161 405 163 310 294 135 268 85 46 212 293 
317 11 80 164 2 305 200 335 124 38 118 98 146 
318 11 174 115 62 343 139 188 39 162 197 352 236 
319 11 401 358 252 6 85 212 241 172 196 91 295 
320 11 179 198 258 16 289 245 32 119 244 328 123 
321 9 302 109 363 18 175 33 202 354 182 
322 11 328 119 360 16 32 309 307 45 206 198 325 
323 11 12 60 49 357 371 136 28 221 224 417 238 
324 11 159 15 196 252 401 6 199 319 358 421 380 
325 11 55 342 119 328 206 336 45 322 173 233 326 
326 11 173 45 206 233 339 93 214 336 342 22 14 
327 11 257 292 111 370 95 396 56 367 131 51 359 
328 11 119 322 16 198 325 32 360 123 206 45 320 
329 11 52 4 287 63 13 103 259 243 132 262 387 
330 11 290 42 114 166 128 90 331 17 134 177 117 
331 11 377 333 42 290 114 330 134 239 128 355 117 
332 11 143 168 83 251 247 378 121 366 129 369 281 
333 11 377 331 134 42 290 128 177 330 114 239 187 
334 11 25 102 209 26 158 224 218 417 160 299 132 
335 11 282 126 80 118 400 164 200 40 317 146 305 
336 11 233 342 214 326 151 339 206 173 45 14 201 
337 11 192 81 53 414 280 148 197 167 188 393 121 
338 11 123 140 41 32 113 198 360 35 16 179 245 
339 11 214 93 233 326 14 173 201 336 45 206 151 
340 11 144 346 368 313 116 278 180 120 204 274 279 
341 11 68 381 61 170 419 3 399 225 345 11 50 
342 11 336 233 325 206 326 45 55 214 173 151 339 
343 11 188 318 115 39 398 62 197 264 174 275 181 
344 11 215 300 406 31 47 87 420 120 250 153 279 
345 11 3 170 61 225 381 50 419 341 99 308 27 
346 11 144 313 340 278 116 368 120 180 274 47 279 
347 11 185 385 314 86 400 40 105 68 399 282 126 
348 11 246 364 183 104 189 207 145 101 190 29 205 
349 11 106 84 392 260 107 19 388 157 410 35 113 
350 11 230 7 311 217 59 288 37 353 261 351 30 
351 11 30 353 231 37 350 59 230 288 7 311 217 
352 7 191 139 174 62 354 402 269 
353 11 231 351 288 350 30 230 160 37 12 217 7 
354 6 202 175 412 321 269 33 
355 11 239 220 216 377 228 331 48 182 333 240 286 
356 11 271 169 94 226 297 204 391 390 65 368 27 
357 11 371 238 49 221 417 224 28 323 296 158 66 
358 11 319 401 172 196 85 212 252 161 6 64 316 
359 11 96 370 95 111 8 257 56 421 380 232 373 
360 11 123 32 16 309 198 322 9 338 307 41 328 
361 11 195 125 283 67 54 210 34 362 306 234 397 
362 11 34 306 43 67 54 171 253 361 125 195 283 
363 9 202 321 412 302 109 354 194 201 14 
364 11 189 348 246 145 183 190 104 303 207 112 205 
365 11 270 248 227 70 166 277 127 394 265 77 90 
366 11 378 121 280 168 315 167 53 192 332 83 414 
367 11 262 51 213 259 292 396 327 284 131 257 186 
368 11 116 144 340 180 346 92 391 278 204 313 271 
369 11 129 407 265 219 332 423 315 143 90 366 247 
370 11 56 257 8 359 292 327 111 131 95 96 396 
371 11 357 49 238 28 221 323 417 296 224 413 71 
372 11 57 22 307 74 309 141 93 173 45 9 100 
373 11 8 26 158 96 56 66 370 359 209 334 218 
374 6 14 201 412 202 339 93 
375 11 386 384 97 404 152 147 261 24 304 312 155 
376 11 268 293 310 46 405 294 161 135 316 74 84 
377 11 331 333 239 42 355 134 290 114 330 128 220 
378 11 121 366 168 280 167 315 332 83 53 192 414 
379 11 410 157 35 392 140 113 388 106 41 84 349 
380 11 232 58 91 88 421 6 252 241 96 199 359 
381 11 61 341 170 3 68 345 419 225 399 50 308 
382 11 254 142 99 308 50 94 27 345 226 3 65 
383 11 108 193 273 235 181 138 264 150 275 409 422 
384 11 97 375 404 261 386 152 155 24 311 184 211 
385 11 185 347 86 400 314 105 40 155 282 312 152 
386 11 375 152 304 312 384 97 147 155 38 404 118 
387 11 76 403 13 160 329 231 63 132 4 351 52 
388 11 84 113 392 41 35 157 140 349 410 106 379 
389 11 69 274 112 303 278 416 250 180 406 411 47 
390 11 65 27 226 249 79 297 99 146 124 11 356 
391 11 149 297 124 92 271 368 98 226 116 356 180 
392 11 157 410 388 35 106 379 84 349 113 140 41 
393 11 156 137 255 418 197 81 286 414 162 115 337 
394 11 77 227 266 270 277 70 365 248 127 187 166 
395 11 88 82 21 232 58 276 96 91 66 380 133 
396 11 131 284 51 186 292 72 262 56 130 327 367 
397 11 212 85 163 295 210 195 361 54 234 67 125 
398 11 20 415 148 264 150 343 188 181 154 108 235 
399 11 419 225 11 61 170 341 68 40 381 126 3 
400 11 86 282 40 185 335 385 312 118 126 304 347 
401 11 319 358 252 6 241 91 196 324 85 212 159 
402 11 191 269 216 162 139 33 62 175 352 48 228 
403 11 76 387 13 160 231 329 351 30 132 63 353 
404 11 97 384 261 375 184 211 311 7 217 24 229 
405 11 161 310 268 316 376 46 293 294 135 163 84 
406 11 215 344 47 31 300 250 420 87 120 274 411 
407 11 219 423 129 369 281 247 143 332 265 251 127 
408 11 5 36 10 291 422 273 193 383 108 237 138 
409 11 138 193 235 275 236 383 181 108 5 273 43 
410 11 379 157 35 392 106 388 113 140 349 84 41 
411 11 416 250 256 110 208 153 420 203 406 69 389 
412 9 202 201 14 374 363 354 151 194 214 
413 11 296 291 28 49 36 267 223 371 301 73 357 
414 11 280 81 255 192 315 337 418 53 393 366 121 
415 11 20 398 150 264 154 422 273 108 148 383 181 
416 11 411 250 110 256 69 208 389 112 406 420 153 
417 11 221 224 238 158 357 26 102 371 66 25 334 
418 11 255 393 156 286 137 414 197 240 81 117 162 
419 11 399 225 61 170 341 11 68 381 3 345 40 
420 11 153 215 344 87 406 250 203 208 300 411 31 
421 11 199 95 111 380 359 159 232 257 252 96 58 
422 11 10 154 273 150 108 193 383 237 415 408 264 
423 11 407 219 127 265 129 369 70 248 281 365 247 
DEPOT_SECTION
   1
   -1
EOF
