NAME :  X-n480-kX-w47-c11.cctp
COMMENT : 	Adapted by Maziero, Usberti and Cavellucci from the Uchoa, Pecin, Pessoa, Poggi, Subramanian, and Vidal (2013)
TYPE :  CCTP
DIMENSION :    367
EDGE_WEIGHT_TYPE : 	EUC_2D	
CAPACITY : 	52
VERTICES_WITHIN_COVERAGE :  11
VERTICES_WITH_DEMAND : 	47
NODE_COORD_SECTION
1 628 103
2 291 573
3 129 447
4 973 643
5 830 868
6 398 563
7 731 423
8 201 995
9 167 174
10 31 358
11 480 619
12 323 555
13 205 208
14 187 767
15 775 445
16 745 369
17 188 965
18 44 585
19 405 706
20 185 315
21 505 636
22 482 543
23 830 860
24 344 498
25 762 379
26 761 399
27 869 844
28 114 420
29 890 491
30 440 802
31 929 676
32 524 456
33 361 434
34 377 478
35 191 496
36 646 352
37 795 962
38 483 492
39 174 597
40 208 464
41 693 461
42 56 114
43 877 898
44 483 596
45 757 915
46 833 803
47 676 597
48 818 695
49 494 648
50 5 167
51 170 313
52 603 437
53 773 462
54 75 183
55 442 485
56 269 543
57 770 869
58 342 542
59 799 441
60 935 918
61 790 696
62 857 459
63 319 541
64 337 529
65 152 735
66 302 491
67 508 567
68 490 571
69 818 425
70 743 377
71 725 477
72 839 403
73 333 557
74 421 589
75 515 601
76 791 669
77 935 639
78 238 198
79 1000 656
80 613 387
81 425 544
82 107 394
83 766 513
84 409 500
85 144 441
86 163 479
87 400 560
88 198 506
89 176 926
90 763 458
91 761 982
92 383 562
93 384 366
94 373 443
95 231 359
96 340 551
97 232 198
98 139 319
99 305 521
100 370 556
101 466 566
102 865 654
103 869 910
104 216 415
105 97 186
106 368 504
107 194 925
108 254 246
109 766 440
110 212 535
111 492 471
112 314 590
113 675 415
114 705 421
115 471 562
116 870 876
117 24 331
118 882 865
119 864 841
120 730 459
121 734 383
122 966 646
123 856 722
124 191 969
125 898 763
126 857 790
127 682 258
128 230 771
129 745 394
130 692 452
131 395 437
132 503 642
133 326 565
134 888 761
135 423 593
136 204 516
137 158 441
138 133 604
139 673 529
140 788 909
141 843 989
142 145 278
143 764 881
144 540 385
145 92 399
146 192 176
147 169 888
148 101 564
149 506 603
150 137 584
151 121 451
152 802 286
153 229 981
154 706 365
155 761 741
156 70 415
157 198 502
158 142 323
159 839 888
160 237 235
161 308 579
162 791 283
163 801 882
164 977 606
165 514 594
166 603 508
167 128 454
168 283 535
169 868 930
170 181 618
171 904 440
172 140 672
173 181 689
174 587 479
175 451 745
176 962 687
177 776 972
178 831 873
179 44 546
180 754 940
181 197 971
182 872 879
183 63 283
184 119 398
185 211 995
186 819 887
187 296 542
188 596 153
189 916 873
190 830 971
191 837 887
192 107 365
193 774 369
194 933 612
195 905 557
196 768 692
197 761 420
198 812 621
199 150 393
200 407 490
201 806 935
202 646 471
203 774 888
204 440 615
205 204 991
206 117 90
207 840 813
208 882 881
209 224 516
210 382 283
211 826 883
212 763 487
213 341 554
214 220 601
215 160 538
216 837 636
217 949 661
218 931 987
219 6 436
220 934 726
221 154 327
222 399 584
223 759 634
224 680 453
225 232 538
226 126 636
227 847 860
228 834 503
229 164 447
230 163 242
231 97 651
232 921 868
233 38 202
234 134 708
235 717 846
236 640 705
237 460 573
238 387 417
239 382 519
240 803 815
241 757 597
242 356 411
243 352 846
244 150 952
245 68 410
246 958 616
247 654 402
248 138 584
249 216 332
250 186 443
251 671 534
252 160 475
253 104 159
254 403 437
255 456 327
256 172 247
257 417 601
258 490 600
259 23 319
260 254 376
261 160 152
262 855 778
263 159 149
264 228 636
265 169 168
266 770 337
267 261 226
268 297 588
269 888 1000
270 989 575
271 736 422
272 893 829
273 221 975
274 372 588
275 814 849
276 431 513
277 817 382
278 209 252
279 369 460
280 4 252
281 114 48
282 932 709
283 468 470
284 851 660
285 774 798
286 526 611
287 993 516
288 134 190
289 988 634
290 960 699
291 989 609
292 332 575
293 114 199
294 986 630
295 198 981
296 599 858
297 47 518
298 616 451
299 284 599
300 440 645
301 825 894
302 229 186
303 142 637
304 77 417
305 368 714
306 224 194
307 228 763
308 839 860
309 170 453
310 141 55
311 395 569
312 124 795
313 784 319
314 265 609
315 579 588
316 968 971
317 374 588
318 953 903
319 101 427
320 434 539
321 874 663
322 340 555
323 265 215
324 169 312
325 845 973
326 758 336
327 287 585
328 794 253
329 726 382
330 487 551
331 592 837
332 279 547
333 820 692
334 926 852
335 991 659
336 478 410
337 443 568
338 625 630
339 577 761
340 379 548
341 999 672
342 863 505
343 178 937
344 364 490
345 160 197
346 186 335
347 757 408
348 497 647
349 322 484
350 768 833
351 392 601
352 414 573
353 367 682
354 743 601
355 835 509
356 823 812
357 141 474
358 446 325
359 415 483
360 311 526
361 791 365
362 951 686
363 298 520
364 140 179
365 848 729
366 315 451
367 160 413
DEMAND_SECTION
2 6
3 7
4 9
5 7
6 10
7 10
8 7
9 6
10 6
11 8
12 6
13 5
14 10
15 8
16 9
17 9
18 10
19 6
20 9
21 10
22 9
23 6
24 10
25 7
26 9
27 5
28 8
29 6
30 8
31 6
32 9
33 6
34 9
35 7
36 8
37 9
38 10
39 5
40 10
41 10
42 5
43 7
44 8
45 8
46 7
47 7
48 5
COVERAGE_SECTION
2 11 327 268 161 299 112 332 187 133 12 56 168 
3 11 167 151 85 137 357 28 319 229 309 252 367 
4 11 122 289 294 335 79 217 246 164 77 291 341 
5 11 178 23 308 211 227 191 159 186 275 301 163 
6 11 87 311 92 352 222 340 100 81 74 317 274 
7 11 271 114 197 347 129 120 26 109 121 329 90 
8 8 205 185 295 181 124 273 153 17 
9 7 265 261 345 146 263 364 288 
10 10 117 259 245 156 145 304 192 183 219 82 
11 11 258 44 21 149 49 132 348 75 204 165 286 
12 11 73 133 63 96 322 213 292 58 161 64 187 
13 11 306 97 302 78 146 160 278 345 9 256 230 
14 7 307 128 65 312 173 234 172 
15 11 109 53 90 59 197 347 212 271 69 120 26 
16 11 70 121 25 329 129 193 26 326 154 266 347 
17 11 124 181 295 343 205 8 273 185 107 244 89 
18 8 179 148 297 231 138 150 248 226 
19 5 305 353 175 300 204 
20 8 51 324 346 221 249 158 98 142 
21 11 132 348 49 11 149 286 75 258 165 44 300 
22 11 330 115 101 68 67 237 337 320 38 44 81 
23 11 5 308 178 227 275 211 191 159 186 301 163 
24 9 344 106 349 64 34 66 239 360 58 
25 11 193 70 16 26 129 121 347 361 329 197 266 
26 11 347 129 25 197 70 121 193 16 271 7 329 
27 11 119 118 227 272 116 308 182 208 23 207 5 
28 11 319 184 82 145 3 151 85 167 304 156 199 
29 9 342 62 171 228 355 195 69 72 59 
30 7 175 243 19 305 353 339 331 
31 11 362 217 282 176 77 290 122 220 4 321 194 
32 11 111 38 283 336 174 144 52 55 298 166 22 
33 11 94 242 279 238 131 254 34 366 344 349 24 
34 11 344 279 106 200 94 359 24 84 239 131 33 
35 11 157 88 136 86 40 252 209 110 309 215 250 
36 11 80 247 154 113 329 114 121 52 16 70 127 
37 11 177 201 190 91 180 325 140 141 45 301 203 
38 11 111 283 55 22 32 276 330 320 359 115 84 
39 10 170 248 150 138 214 303 215 226 264 110 
40 11 250 35 157 309 88 86 229 252 104 136 209 
41 11 130 224 71 120 114 202 113 7 271 90 139 
42 10 206 253 54 50 105 281 233 293 310 364 
43 11 103 208 182 116 118 169 159 191 189 227 178 
44 11 258 11 149 68 165 75 237 101 115 67 330 
45 11 180 140 203 143 57 201 163 37 177 91 186 
46 11 207 356 126 240 262 119 275 27 23 308 227 
47 9 338 251 354 139 241 223 315 236 166 
48 11 333 61 76 365 123 284 196 102 216 321 155 
49 11 348 132 21 11 149 258 286 75 44 300 165 
50 9 233 54 42 280 105 253 293 183 288 
51 8 324 20 221 346 158 98 142 249 
52 11 298 174 80 202 247 166 113 224 32 144 130 
53 10 90 15 109 212 59 120 197 71 83 271 
54 8 105 253 233 293 288 364 42 50 
55 11 359 276 283 200 84 38 111 320 81 254 34 
56 9 332 168 187 2 225 363 99 360 327 
57 11 143 203 163 350 140 45 275 186 211 235 5 
58 9 96 213 322 64 73 12 63 133 100 
59 11 15 69 53 109 90 197 347 72 26 212 62 
60 11 318 189 232 43 316 208 103 334 169 218 182 
61 11 196 76 48 333 155 365 223 123 284 216 198 
62 11 29 342 228 171 69 355 72 59 15 53 277 
63 11 12 360 73 64 58 96 187 99 133 322 213 
64 9 58 63 96 213 322 360 73 12 24 
65 10 234 14 173 172 312 307 128 303 231 226 
66 10 349 363 99 360 366 24 168 187 64 63 
67 11 68 330 165 22 75 149 115 44 258 101 237 
68 11 67 330 115 101 44 22 258 237 165 149 75 
69 11 59 72 277 15 62 109 197 53 26 347 90 
70 11 16 121 129 329 25 26 193 347 154 326 271 
71 10 120 41 212 130 90 53 224 7 83 109 
72 9 69 277 59 62 361 193 171 15 26 
73 9 322 96 213 12 133 58 292 63 64 
74 10 135 257 352 222 337 351 204 311 6 87 
75 11 165 149 286 258 44 67 21 11 68 132 348 
76 11 61 196 48 333 223 198 216 284 102 155 241 
77 9 217 194 122 246 31 4 362 294 164 
78 9 97 302 306 323 13 267 160 108 146 
79 11 335 341 289 4 294 122 291 176 217 164 362 
80 11 247 36 52 298 113 144 202 224 154 174 114 
81 11 320 87 337 352 276 6 311 74 237 92 340 
82 9 184 145 28 192 319 304 245 156 199 
83 7 212 53 71 90 120 15 228 
84 10 200 359 276 239 55 34 106 320 344 81 
85 11 137 3 167 229 151 309 367 357 28 252 86 
86 11 252 357 309 229 35 137 85 157 167 250 88 
87 11 6 311 92 352 222 340 81 100 74 317 135 
88 10 157 35 136 209 110 40 86 225 252 215 
89 8 343 107 244 147 17 124 181 295 
90 11 53 15 109 212 120 197 59 71 271 7 347 
91 11 177 37 180 201 45 190 140 141 325 203 143 
92 9 100 311 6 340 87 222 274 317 352 
93 11 238 242 33 131 254 358 94 255 210 279 336 
94 11 33 279 131 238 254 34 242 344 200 359 366 
95 7 260 249 346 104 20 51 324 
96 9 213 322 58 73 12 133 64 63 292 
97 9 78 306 302 13 160 323 267 146 108 
98 7 158 221 324 51 142 20 346 
99 11 363 360 187 63 168 66 64 332 12 349 56 
100 8 340 92 311 6 213 87 96 322 
101 11 115 237 337 68 330 22 44 67 258 320 81 
102 10 321 284 216 333 48 198 31 123 77 76 
103 11 43 169 182 208 116 159 191 118 301 211 178 
104 8 250 40 260 367 95 309 229 137 
105 8 293 54 253 288 364 233 345 9 
106 9 344 239 24 34 64 84 200 279 340 
107 6 89 343 17 124 147 181 
108 11 160 267 323 278 78 97 306 13 302 256 230 
109 11 15 90 197 53 59 347 271 7 26 120 212 
110 9 225 136 209 88 157 35 215 56 214 
111 11 38 283 32 55 336 22 276 359 330 200 84 
112 8 161 268 292 327 133 2 299 12 
113 11 247 114 224 130 41 7 154 271 329 202 121 
114 11 7 113 271 130 224 41 329 120 121 129 247 
115 11 101 237 330 68 22 337 44 67 258 320 81 
116 11 182 208 118 43 227 27 159 103 191 308 119 
117 8 259 10 183 280 192 245 145 156 
118 11 116 208 182 27 119 43 189 227 272 232 308 
119 11 27 227 118 272 308 116 207 23 182 5 208 
120 11 71 90 7 41 271 130 109 53 212 114 15 
121 11 329 70 129 16 25 26 154 347 271 7 193 
122 11 4 217 289 294 335 246 77 79 164 176 341 
123 11 365 48 333 134 262 125 284 321 126 102 61 
124 11 17 181 295 205 8 273 185 343 153 107 244 
125 9 134 262 126 220 123 365 282 272 46 
126 11 262 46 207 356 134 125 119 272 27 240 365 
127 11 36 326 154 162 328 266 313 152 16 329 70 
128 4 307 14 65 173 
129 11 121 26 70 347 329 25 16 271 197 7 193 
130 11 41 224 114 120 71 113 7 202 271 247 90 
131 11 254 238 94 33 279 34 242 359 200 344 84 
132 11 21 348 49 11 149 286 75 258 165 44 300 
133 10 12 73 292 322 213 96 161 63 58 112 
134 9 125 262 126 123 365 220 272 282 46 
135 10 74 257 352 222 204 337 351 311 6 87 
136 9 88 157 209 110 35 225 215 40 86 
137 11 229 85 309 250 367 3 167 252 357 86 151 
138 10 150 248 226 303 39 170 148 231 172 215 
139 9 251 202 47 41 166 71 224 130 120 
140 11 203 163 45 201 143 186 301 57 180 211 37 
141 11 325 190 269 37 169 201 177 91 103 218 43 
142 8 230 98 256 324 51 158 221 20 
143 11 203 57 45 140 163 350 186 235 275 180 211 
144 11 336 32 80 52 111 298 255 174 36 283 358 
145 9 82 304 245 156 184 319 28 192 199 
146 6 265 9 13 306 302 345 
147 6 89 107 343 244 17 124 
148 6 150 248 138 179 18 215 
149 11 75 165 258 286 44 11 21 67 68 132 348 
150 9 248 138 39 148 215 226 303 170 231 
151 10 167 3 85 357 319 28 137 229 252 309 
152 10 162 328 313 266 326 361 193 277 16 25 
153 6 273 185 205 8 295 181 
154 11 329 121 16 70 129 114 25 113 326 36 7 
155 11 196 61 285 48 333 76 240 365 350 356 46 
156 9 245 304 145 319 82 28 184 151 192 
157 11 88 35 136 209 110 40 86 252 225 215 309 
158 7 98 221 324 51 20 142 346 
159 11 191 211 301 178 186 5 308 23 227 116 182 
160 11 108 267 278 323 78 97 13 306 302 256 146 
161 11 112 268 2 327 133 292 12 299 73 187 63 
162 10 152 328 313 266 326 361 193 16 25 277 
163 11 186 211 301 203 140 178 5 57 275 23 191 
164 9 291 246 294 289 270 4 122 194 77 
165 11 75 149 286 258 67 44 68 11 21 132 330 
166 11 174 202 298 52 139 251 315 32 224 41 130 
167 11 3 151 85 357 137 28 229 252 319 309 86 
168 10 332 187 56 363 99 360 63 2 12 66 
169 11 103 43 325 159 182 208 191 116 190 301 201 
170 10 39 214 303 138 264 248 150 226 172 173 
171 9 62 29 72 342 69 228 355 59 277 
172 11 303 234 226 173 231 65 138 170 39 150 248 
173 9 172 234 65 303 170 264 226 14 307 
174 11 166 298 52 202 32 111 80 224 139 251 247 
175 10 30 19 305 300 353 49 348 132 21 339 
176 11 362 290 217 31 282 335 341 122 4 220 79 
177 11 91 37 180 201 190 45 140 141 325 203 143 
178 11 5 211 23 191 308 159 186 227 301 275 163 
179 3 297 18 148 
180 11 45 177 91 140 37 201 203 143 57 163 190 
181 9 124 295 17 205 8 273 185 153 343 
182 11 116 208 118 43 103 227 159 27 191 308 119 
183 6 259 117 280 10 142 98 
184 9 82 28 145 199 319 192 367 304 3 
185 8 205 8 295 273 153 181 124 17 
186 11 211 301 178 191 163 159 5 23 308 140 275 
187 11 168 332 360 363 63 99 56 12 2 133 161 
188 9 127 36 328 255 358 162 80 144 154 
189 11 232 334 118 208 182 43 116 318 60 272 27 
190 11 325 141 37 201 177 169 269 91 103 140 301 
191 11 159 211 301 178 186 5 308 23 227 116 163 
192 7 82 184 145 199 28 158 98 
193 11 25 361 16 70 266 26 326 129 121 347 277 
194 9 246 77 164 122 4 217 291 294 289 
195 7 194 342 29 246 355 270 77 
196 11 61 76 155 48 333 223 198 365 216 284 123 
197 11 347 26 109 271 15 7 129 90 25 59 53 
198 10 216 76 223 284 241 102 333 354 48 321 
199 6 367 184 82 28 85 137 
200 10 84 359 34 276 55 239 106 344 279 254 
201 11 37 140 190 301 177 186 180 45 163 325 211 
202 11 298 224 41 130 52 166 174 113 139 251 247 
203 11 143 57 140 163 45 186 301 211 350 180 275 
204 11 257 135 300 74 11 44 237 337 352 351 222 
205 8 8 185 295 181 273 124 153 17 
206 6 281 310 42 253 263 261 
207 11 46 356 126 119 240 262 27 275 308 23 227 
208 11 182 116 118 43 103 189 27 227 232 119 159 
209 9 136 110 225 88 157 35 56 40 168 
210 9 358 93 255 242 108 238 267 323 33 
211 11 186 178 301 191 159 5 23 163 308 227 275 
212 8 83 53 90 71 120 15 109 59 
213 9 322 96 73 58 12 133 292 64 63 
214 8 264 170 39 314 225 299 110 327 
215 9 136 88 150 248 35 110 157 86 39 
216 10 284 198 102 321 76 333 48 61 223 123 
217 11 122 31 362 77 176 4 290 335 246 289 294 
218 11 316 269 60 169 318 325 141 103 190 43 189 
219 7 156 245 304 10 297 145 319 
220 8 282 290 362 176 31 125 134 217 
221 7 158 98 51 324 20 346 142 
222 11 311 351 352 6 74 87 257 317 135 92 274 
223 10 241 354 76 198 196 61 216 333 48 47 
224 11 130 41 113 202 114 120 71 247 7 271 298 
225 9 110 209 136 56 88 332 157 168 35 
226 11 303 138 231 172 150 248 170 39 234 148 173 
227 11 308 23 5 178 119 27 116 159 191 182 211 
228 9 355 342 62 29 83 59 53 212 69 
229 11 137 309 85 250 252 86 367 3 357 167 151 
230 7 256 142 345 278 13 288 293 
231 11 226 303 172 138 234 150 248 18 148 170 173 
232 11 189 334 118 208 318 272 182 60 116 43 27 
233 8 54 50 280 105 293 253 183 42 
234 11 65 172 173 231 303 226 14 312 170 138 307 
235 11 350 57 143 203 285 45 163 240 140 275 180 
236 11 338 339 47 155 196 315 223 331 354 286 61 
237 11 101 115 337 68 44 330 22 258 74 135 320 
238 11 131 254 94 33 242 279 93 34 359 200 344 
239 8 106 340 84 344 200 100 34 24 
240 11 356 46 285 275 207 350 23 308 5 126 57 
241 7 354 223 198 76 47 83 216 
242 11 33 238 94 131 279 93 254 366 34 344 349 
243 2 30 305 
244 11 343 89 17 124 181 107 295 8 147 205 185 
245 10 156 304 145 319 82 28 184 192 10 151 
246 9 164 194 4 122 294 291 77 289 217 
247 11 113 80 36 114 224 52 298 130 154 202 41 
248 9 150 138 39 148 215 226 303 170 231 
249 7 346 95 20 51 324 260 221 
250 10 309 229 137 40 367 104 252 85 86 35 
251 9 139 47 202 166 41 71 224 130 120 
252 10 86 357 309 229 137 35 85 167 250 3 
253 11 105 54 293 364 288 261 263 9 42 265 345 
254 11 131 238 94 279 33 359 34 200 242 55 84 
255 11 358 93 210 336 144 238 254 131 242 33 94 
256 7 230 278 142 13 345 324 51 
257 10 135 74 222 351 204 352 311 6 337 87 
258 11 44 149 11 75 165 68 67 286 21 237 101 
259 8 117 10 183 280 192 245 145 156 
260 8 95 104 249 346 20 250 366 40 
261 6 263 265 9 364 146 345 
262 11 126 46 134 207 125 356 365 123 119 240 272 
263 5 261 265 9 364 146 
264 5 214 314 170 39 299 
265 7 9 261 263 146 345 364 288 
266 11 326 313 193 361 16 25 70 121 162 152 129 
267 9 323 108 160 78 97 306 302 278 13 
268 9 327 161 2 112 299 133 292 314 12 
269 11 218 141 325 190 169 316 103 60 37 43 201 
270 8 164 291 246 294 287 289 194 4 
271 11 7 197 347 129 114 26 109 120 121 329 15 
272 11 27 119 118 334 232 189 116 126 208 182 207 
273 7 153 185 205 181 295 8 124 
274 7 317 351 222 92 311 100 6 
275 11 23 5 308 178 163 227 211 240 186 356 191 
276 11 84 320 55 81 200 359 239 38 87 337 283 
277 9 72 361 69 193 25 26 59 266 347 
278 11 160 256 13 108 230 267 97 306 78 20 323 
279 11 94 34 33 344 131 254 106 24 238 200 242 
280 8 233 183 259 117 50 54 10 105 
281 6 310 206 42 253 263 261 
282 11 220 290 362 31 176 217 125 134 77 122 321 
283 11 111 38 55 359 276 32 336 200 84 254 22 
284 10 102 321 216 333 48 198 76 123 365 61 
285 11 240 350 356 155 46 275 207 57 235 126 262 
286 11 75 165 149 21 258 132 44 348 11 67 49 
287 8 270 164 291 195 29 246 194 294 
288 9 364 293 345 9 105 265 253 261 263 
289 11 294 4 79 122 291 335 164 246 341 217 77 
290 11 176 362 282 220 31 217 341 335 122 4 79 
291 9 164 294 289 246 270 4 122 79 335 
292 10 133 73 12 322 112 213 161 96 58 63 
293 7 105 288 364 253 54 345 9 
294 11 289 4 291 122 164 335 79 246 341 217 77 
295 9 181 205 8 124 17 185 273 153 343 
296 11 331 339 235 236 143 45 30 57 350 180 203 
297 3 179 18 148 
298 11 52 202 174 166 247 80 224 113 130 41 32 
299 7 327 268 314 2 112 161 332 
300 10 204 11 257 49 135 348 74 132 44 351 
301 11 186 211 191 159 178 5 163 23 308 140 227 
302 6 306 97 78 13 146 323 
303 11 226 138 172 170 231 39 150 248 173 234 148 
304 10 156 245 145 319 28 82 184 151 3 192 
305 2 353 19 
306 8 97 302 78 13 146 160 323 267 
307 4 128 14 65 173 
308 11 227 23 5 178 211 191 275 159 119 27 186 
309 11 229 137 250 252 86 85 357 40 3 367 167 
310 5 281 206 263 261 42 
311 11 6 87 92 222 352 340 100 317 274 351 74 
312 9 65 14 234 147 128 307 173 172 89 
313 11 266 326 162 152 361 193 16 25 328 70 277 
314 7 299 327 268 2 214 264 161 
315 11 286 338 75 165 67 149 166 21 258 68 132 
316 11 218 60 318 269 169 189 232 103 43 325 208 
317 8 274 351 222 92 311 100 6 87 
318 11 60 232 189 334 316 208 43 118 103 182 116 
319 11 28 304 145 151 156 3 82 184 245 167 85 
320 11 81 276 337 352 87 101 6 237 115 84 22 
321 10 102 284 216 31 333 123 48 77 365 282 
322 9 213 96 73 58 12 133 292 63 64 
323 9 267 78 108 160 97 302 306 13 278 
324 8 51 20 221 158 346 98 142 249 
325 11 190 141 169 37 269 201 103 177 301 43 91 
326 11 266 313 16 193 25 70 361 121 329 129 154 
327 10 268 2 299 161 112 314 332 133 187 56 
328 10 162 152 313 266 326 127 361 193 16 25 
329 11 121 70 129 16 154 25 26 347 7 271 114 
330 11 22 115 68 67 101 237 44 337 258 165 320 
331 11 296 339 235 236 30 175 350 143 57 45 285 
332 10 56 168 187 2 363 99 360 327 63 161 
333 11 48 61 76 284 365 123 196 102 216 321 198 
334 10 232 189 272 118 208 27 318 182 116 119 
335 11 79 341 4 289 122 294 176 217 362 291 290 
336 11 283 111 32 144 254 38 55 255 131 238 358 
337 11 237 101 115 352 74 81 320 135 257 87 6 
338 11 47 315 236 286 251 139 75 165 21 149 354 
339 11 331 236 296 175 348 49 132 338 30 21 286 
340 8 100 92 6 87 311 239 58 213 
341 11 335 79 4 176 289 122 294 290 362 217 291 
342 9 355 228 29 62 195 171 59 69 83 
343 8 89 107 17 244 124 181 295 147 
344 9 106 34 24 279 239 349 200 84 64 
345 9 9 288 364 265 146 230 261 13 293 
346 8 20 51 324 249 221 158 98 95 
347 11 26 197 129 271 25 7 109 70 121 329 15 
348 11 49 132 21 11 149 286 258 75 44 165 300 
349 11 66 24 366 99 344 360 363 64 106 279 34 
350 11 57 285 240 143 275 235 203 163 356 23 5 
351 10 222 317 274 257 74 135 311 352 6 92 
352 11 74 6 87 222 311 135 257 337 81 92 351 
353 2 305 19 
354 7 241 223 47 198 76 83 196 
355 9 228 342 62 29 83 212 59 53 195 
356 11 46 207 240 275 126 262 23 119 285 308 227 
357 9 252 86 167 3 151 85 229 309 137 
358 11 255 93 210 336 238 144 254 131 242 33 94 
359 11 200 84 55 276 34 254 239 131 106 279 344 
360 11 99 363 63 187 64 168 12 58 66 73 96 
361 11 193 277 25 266 326 26 16 313 70 129 347 
362 11 176 290 31 217 282 122 220 4 335 77 341 
363 10 99 360 168 187 66 63 332 56 64 12 
364 9 288 9 345 265 293 261 263 253 105 
365 11 123 48 333 262 134 125 126 61 284 321 46 
366 11 349 66 33 24 279 242 94 344 34 99 363 
367 9 199 137 85 229 250 309 184 3 28 
DEPOT_SECTION
   1
   -1
EOF
