NAME :  X-n411-kX-w82-c11.cctp
COMMENT : 	Adapted by Maziero, Usberti and Cavellucci from the Uchoa, Pecin, Pessoa, Poggi, Subramanian, and Vidal (2013)
TYPE :  CCTP
DIMENSION :    390
EDGE_WEIGHT_TYPE : 	EUC_2D	
CAPACITY : 	216
VERTICES_WITHIN_COVERAGE :  11
VERTICES_WITH_DEMAND : 	82
NODE_COORD_SECTION
1 175 821
2 62 495
3 662 959
4 109 216
5 156 748
6 178 957
7 120 571
8 75 480
9 44 98
10 386 1000
11 96 465
12 98 796
13 213 642
14 642 977
15 629 893
16 36 124
17 155 172
18 6 367
19 39 198
20 40 311
21 649 801
22 208 367
23 237 944
24 282 313
25 114 684
26 69 168
27 23 553
28 137 467
29 244 971
30 86 456
31 125 681
32 77 398
33 128 820
34 166 804
35 657 959
36 160 172
37 674 882
38 255 944
39 709 691
40 167 720
41 187 995
42 246 707
43 95 518
44 44 264
45 262 940
46 739 987
47 210 586
48 240 994
49 199 564
50 108 491
51 832 933
52 715 874
53 130 426
54 518 749
55 90 209
56 760 925
57 118 92
58 72 270
59 606 976
60 129 975
61 157 787
62 626 857
63 169 712
64 105 710
65 105 233
66 65 322
67 685 804
68 215 664
69 211 996
70 336 887
71 728 533
72 649 836
73 93 905
74 143 894
75 47 136
76 198 125
77 707 977
78 682 937
79 17 858
80 370 512
81 222 825
82 55 388
83 182 905
84 41 510
85 128 221
86 266 796
87 349 821
88 108 777
89 98 842
90 225 528
91 140 920
92 132 465
93 132 478
94 126 754
95 144 476
96 138 981
97 163 937
98 11 794
99 663 942
100 138 464
101 27 134
102 213 819
103 150 746
104 184 760
105 122 579
106 180 670
107 166 955
108 111 284
109 222 859
110 104 951
111 162 968
112 73 394
113 620 899
114 52 737
115 655 914
116 110 440
117 232 648
118 645 922
119 204 708
120 52 512
121 161 887
122 46 259
123 151 777
124 191 999
125 247 686
126 68 464
127 5 393
128 696 937
129 642 902
130 86 905
131 132 600
132 115 788
133 126 801
134 58 479
135 637 926
136 147 765
137 145 772
138 592 971
139 58 195
140 236 969
141 729 986
142 731 958
143 616 999
144 234 458
145 0 48
146 138 215
147 82 268
148 661 893
149 828 769
150 587 942
151 631 978
152 64 297
153 257 671
154 158 185
155 190 183
156 127 166
157 75 564
158 26 818
159 157 888
160 97 174
161 53 210
162 255 551
163 93 135
164 303 976
165 139 824
166 144 824
167 166 971
168 195 983
169 73 379
170 182 177
171 118 595
172 192 702
173 355 701
174 63 190
175 164 489
176 228 918
177 746 859
178 190 958
179 162 797
180 587 963
181 113 97
182 119 363
183 82 200
184 93 167
185 679 707
186 139 264
187 164 569
188 751 803
189 22 100
190 143 744
191 217 890
192 55 196
193 792 923
194 584 877
195 786 815
196 139 121
197 179 742
198 749 909
199 198 934
200 252 809
201 70 115
202 309 976
203 191 915
204 333 77
205 82 928
206 78 497
207 11 624
208 642 915
209 71 75
210 547 981
211 271 936
212 662 981
213 677 991
214 8 272
215 492 817
216 49 230
217 109 241
218 33 514
219 130 276
220 178 969
221 309 966
222 100 444
223 27 507
224 702 937
225 255 943
226 123 135
227 88 408
228 648 973
229 662 952
230 233 834
231 280 828
232 150 753
233 70 339
234 120 919
235 572 980
236 135 814
237 38 618
238 76 755
239 34 399
240 88 671
241 23 336
242 201 544
243 733 850
244 38 527
245 46 502
246 686 952
247 653 958
248 770 920
249 158 769
250 211 709
251 96 761
252 190 120
253 515 841
254 107 915
255 187 932
256 34 241
257 101 968
258 228 938
259 152 397
260 163 188
261 843 942
262 166 931
263 455 984
264 606 962
265 553 894
266 343 894
267 223 717
268 142 957
269 693 899
270 118 725
271 353 838
272 52 328
273 14 295
274 771 850
275 151 231
276 203 330
277 79 391
278 151 387
279 97 308
280 284 14
281 159 932
282 261 204
283 60 570
284 91 607
285 14 532
286 182 728
287 204 978
288 741 786
289 119 191
290 118 904
291 146 583
292 50 718
293 56 420
294 50 493
295 267 934
296 740 904
297 23 212
298 42 967
299 611 889
300 236 932
301 427 892
302 197 741
303 199 789
304 82 610
305 123 468
306 70 729
307 63 443
308 142 539
309 602 561
310 650 992
311 663 947
312 73 790
313 556 1000
314 196 361
315 240 972
316 42 552
317 72 256
318 271 641
319 69 193
320 138 389
321 140 486
322 173 996
323 138 797
324 10 520
325 297 643
326 92 946
327 104 549
328 290 691
329 131 996
330 233 702
331 82 351
332 177 923
333 118 903
334 69 740
335 59 163
336 48 503
337 14 424
338 170 717
339 719 946
340 176 497
341 245 503
342 174 535
343 167 891
344 668 911
345 236 621
346 197 529
347 152 714
348 585 950
349 587 930
350 182 640
351 219 944
352 98 706
353 278 544
354 216 873
355 76 744
356 138 183
357 12 916
358 150 954
359 20 596
360 178 189
361 144 219
362 643 943
363 728 986
364 125 874
365 158 198
366 215 625
367 107 321
368 110 461
369 101 592
370 96 684
371 579 816
372 645 947
373 777 894
374 806 973
375 118 790
376 195 927
377 157 944
378 235 784
379 256 895
380 15 431
381 233 962
382 793 774
383 127 185
384 704 965
385 234 634
386 664 948
387 29 604
388 278 697
389 686 985
390 151 795
DEMAND_SECTION
2 95
3 58
4 80
5 97
6 100
7 64
8 63
9 86
10 61
11 62
12 56
13 74
14 78
15 78
16 91
17 85
18 69
19 89
20 83
21 60
22 51
23 55
24 57
25 83
26 67
27 89
28 6
29 1
30 1
31 7
32 2
33 1
34 4
35 6
36 3
37 10
38 5
39 10
40 1
41 7
42 10
43 6
44 8
45 4
46 5
47 4
48 4
49 3
50 10
51 7
52 10
53 9
54 4
55 3
56 7
57 4
58 2
59 9
60 3
61 4
62 8
63 2
64 9
65 3
66 1
67 5
68 3
69 8
70 7
71 1
72 3
73 7
74 10
75 1
76 7
77 7
78 2
79 2
80 3
81 6
82 8
83 3
COVERAGE_SECTION
2 11 294 134 206 336 245 8 120 84 126 218 223 
3 11 35 229 247 386 311 99 228 372 212 246 362 
4 11 65 55 85 217 289 146 183 361 383 160 356 
5 11 103 232 190 136 249 197 137 123 40 104 94 
6 11 107 178 220 167 111 97 377 255 358 262 199 
7 11 105 171 327 369 291 131 308 187 157 284 304 
8 11 126 134 206 2 11 30 294 50 336 245 120 
9 11 189 16 201 209 75 101 163 145 335 181 26 
10 11 263 202 221 164 266 301 70 211 295 45 38 
11 11 30 368 222 8 305 126 50 116 92 206 93 
12 7 132 88 375 312 133 251 33 
13 11 366 117 68 385 345 350 106 153 47 125 318 
14 11 228 151 310 212 247 35 3 372 229 143 362 
15 11 113 129 299 208 148 115 118 135 62 344 37 
16 11 101 75 9 189 201 335 26 163 209 174 184 
17 11 36 154 260 356 365 170 156 360 383 155 289 
18 11 127 241 239 82 337 272 380 20 169 233 112 
19 11 192 161 139 297 174 319 216 335 26 183 256 
20 11 272 66 152 241 273 233 44 214 58 122 279 
21 11 72 67 62 371 37 148 288 15 299 243 52 
22 9 314 276 278 259 320 182 24 144 53 
23 11 258 300 38 225 351 381 45 140 29 176 315 
24 4 276 22 314 282 
25 11 31 370 352 64 240 270 347 63 306 40 338 
26 11 335 174 184 319 139 160 192 183 75 163 19 
27 10 316 285 244 324 218 283 359 223 84 120 
28 11 100 92 95 93 305 321 368 175 50 116 11 
29 11 315 140 381 48 23 38 225 45 258 351 300 
30 11 11 222 126 368 8 307 116 134 305 50 206 
31 11 25 370 64 352 240 347 270 63 106 40 338 
32 11 112 277 227 169 82 293 239 307 331 222 116 
33 10 236 165 166 133 323 375 390 132 89 12 
34 11 179 390 61 323 166 123 236 165 249 303 137 
35 11 247 3 229 311 386 228 372 99 362 14 212 
36 11 17 154 260 170 356 360 365 155 156 383 289 
37 11 148 269 344 115 129 52 15 208 118 72 62 
38 11 225 45 295 23 211 300 258 381 29 140 315 
39 11 185 288 67 382 188 21 149 195 72 71 243 
40 11 338 63 347 286 197 5 103 172 190 232 302 
41 11 124 168 322 69 287 220 167 111 178 6 107 
42 11 330 125 267 388 250 153 119 328 68 172 302 
43 11 206 50 327 2 8 120 336 157 294 308 245 
44 11 122 256 58 317 216 214 147 152 273 20 161 
45 11 38 225 295 211 23 300 258 29 381 140 315 
46 11 141 363 142 77 384 339 389 213 224 246 56 
47 11 49 366 242 345 187 385 13 162 346 90 350 
48 11 315 29 140 69 381 287 168 124 23 38 41 
49 11 242 47 187 346 342 90 291 162 308 366 345 
50 11 93 305 11 43 368 206 321 8 92 28 95 
51 11 261 193 374 248 373 56 198 296 274 142 46 
52 11 243 269 177 296 37 198 148 344 274 224 373 
53 11 116 222 259 320 92 100 368 28 305 278 227 
54 11 215 371 253 21 194 265 62 72 185 299 301 
55 11 183 4 319 65 174 289 139 160 161 192 217 
56 11 248 198 296 193 373 142 339 224 46 128 374 
57 11 181 196 226 163 209 201 9 156 252 184 75 
58 11 147 317 122 152 44 108 279 216 217 256 65 
59 11 264 138 180 143 151 348 235 14 150 228 310 
60 11 96 329 268 257 358 111 110 167 107 377 326 
61 9 390 179 123 249 34 137 323 136 133 
62 11 72 299 15 113 194 129 148 37 208 21 371 
63 11 338 40 347 286 172 197 119 5 103 302 190 
64 11 352 270 25 370 31 306 240 355 334 347 94 
65 11 217 4 85 55 146 183 317 361 147 289 186 
66 11 272 233 152 20 331 279 367 241 58 147 169 
67 11 21 72 288 188 243 52 37 62 177 148 269 
68 11 13 117 106 385 125 366 350 330 153 172 119 
69 11 287 124 168 41 48 140 315 322 381 29 178 
70 11 266 271 87 379 211 231 221 295 45 301 202 
71 11 309 39 185 382 288 149 188 67 21 195 54 
72 11 62 21 67 37 148 15 299 129 113 371 52 
73 11 130 254 205 290 333 234 326 364 110 91 74 
74 11 159 121 343 91 290 333 364 234 83 281 254 
75 11 16 101 335 201 9 26 189 163 184 174 139 
76 11 252 170 155 196 36 17 360 154 260 226 156 
77 11 384 389 363 141 142 213 246 339 46 224 128 
78 11 128 246 99 224 311 386 229 3 344 35 115 
79 11 158 357 98 89 130 312 73 205 12 254 364 
80 10 353 162 341 90 144 325 318 242 345 346 
81 11 102 230 109 200 303 378 354 86 231 34 191 
82 11 112 169 32 239 277 293 227 331 127 233 18 
83 9 203 332 343 376 255 121 159 262 199 
84 10 218 245 336 120 223 244 294 2 324 134 
85 11 146 361 4 275 65 217 289 383 365 356 55 
86 11 200 378 231 230 81 102 303 109 87 302 104 
87 11 271 70 231 266 86 200 301 230 379 173 378 
88 7 132 375 251 12 94 133 323 
89 10 33 364 165 12 236 166 133 375 132 312 
90 10 346 242 341 162 49 342 353 340 47 144 
91 11 234 281 74 290 262 333 97 377 254 358 159 
92 11 28 100 305 93 95 321 368 116 50 11 222 
93 11 321 28 95 92 305 100 50 368 175 11 116 
94 8 190 136 232 103 137 88 270 5 
95 11 28 321 93 100 92 305 175 368 340 50 11 
96 11 60 329 268 111 167 358 107 322 257 220 377 
97 11 281 262 377 107 332 358 6 255 91 268 111 
98 11 158 312 79 114 238 334 355 292 12 306 251 
99 11 311 386 229 3 35 247 372 78 362 246 118 
100 11 28 92 95 93 305 321 368 175 116 53 50 
101 11 16 75 189 9 335 201 26 19 163 174 139 
102 11 81 230 303 200 109 378 34 354 179 86 61 
103 10 5 190 232 136 249 94 137 197 40 123 
104 11 197 302 249 5 286 303 232 103 123 136 61 
105 11 7 171 131 291 369 327 284 187 308 157 304 
106 11 350 172 68 13 63 119 338 250 40 347 31 
107 11 6 111 377 167 358 97 220 178 262 268 281 
108 9 219 279 147 186 367 58 217 317 152 
109 9 354 230 191 81 102 379 200 176 83 
110 11 326 257 205 60 234 254 268 96 358 73 91 
111 11 167 107 220 358 6 268 377 96 178 322 97 
112 11 32 277 169 82 227 293 239 331 307 182 233 
113 11 15 299 129 208 135 118 115 148 62 194 349 
114 11 334 292 306 355 238 251 352 312 64 270 88 
115 11 118 208 344 129 135 148 99 362 15 311 372 
116 11 222 368 53 11 30 305 92 100 28 227 93 
117 11 385 13 68 345 366 153 318 125 350 330 106 
118 11 208 135 115 129 362 344 372 99 311 386 15 
119 11 250 172 267 286 330 302 63 338 40 42 197 
120 11 336 84 245 218 294 2 244 223 206 134 8 
121 11 159 343 74 83 364 91 332 203 262 281 290 
122 11 44 256 317 58 216 147 214 152 273 161 20 
123 8 137 249 61 136 390 179 232 323 
124 11 41 168 322 69 287 220 167 178 111 6 48 
125 11 153 42 330 388 68 267 117 250 328 119 318 
126 11 8 134 30 307 11 2 206 294 222 368 245 
127 10 18 239 337 380 82 293 241 112 169 32 
128 11 224 78 246 339 384 99 311 386 229 269 344 
129 11 208 15 115 118 148 113 135 344 299 37 362 
130 11 73 205 254 290 333 234 326 110 364 91 74 
131 11 171 291 105 7 369 284 187 304 327 308 350 
132 7 375 88 133 12 323 236 251 
133 9 323 375 236 132 33 165 390 12 166 
134 11 2 294 8 126 245 336 206 120 84 30 307 
135 11 118 208 362 115 372 129 99 113 311 15 344 
136 9 137 232 249 123 5 103 190 61 94 
137 8 136 123 249 61 232 390 5 94 
138 11 180 59 264 235 348 150 143 151 349 210 313 
139 11 192 174 319 161 19 183 26 335 55 216 297 
140 11 315 29 381 23 48 351 38 225 258 287 69 
141 11 363 46 77 142 384 339 389 213 246 224 128 
142 11 339 141 363 384 46 77 224 128 56 246 198 
143 11 59 151 14 310 138 264 228 180 235 212 247 
144 10 341 340 90 175 346 95 242 22 162 100 
145 11 189 9 209 16 101 201 75 181 57 163 335 
146 11 361 85 275 365 4 289 356 383 154 260 65 
147 11 58 317 108 152 122 44 217 65 279 219 216 
148 11 37 344 129 115 208 15 118 269 113 135 78 
149 11 382 195 188 288 274 177 243 373 39 67 52 
150 10 348 349 180 264 138 59 235 135 113 210 
151 11 14 228 310 59 143 247 264 212 35 372 3 
152 11 66 20 58 272 147 279 44 122 233 317 108 
153 11 125 318 388 117 42 328 330 68 385 325 13 
154 11 260 17 36 365 356 360 170 383 155 146 156 
155 10 170 360 260 36 154 365 17 356 361 76 
156 11 383 356 289 17 160 226 36 184 154 260 365 
157 11 283 327 316 369 7 284 304 105 43 244 27 
158 11 98 79 312 12 89 238 114 334 355 251 88 
159 11 121 343 74 83 364 91 332 290 333 203 262 
160 11 184 289 26 183 156 383 319 55 174 163 335 
161 11 192 139 19 216 174 319 297 183 256 55 26 
162 10 353 90 341 242 47 49 346 345 342 366 
163 11 201 226 184 160 26 181 335 75 156 196 57 
164 11 202 221 211 45 295 38 225 29 315 48 140 
165 10 166 236 33 133 323 390 34 179 375 61 
166 9 165 236 33 323 133 34 390 179 61 
167 11 111 220 107 6 358 322 178 268 377 96 168 
168 11 287 41 124 69 220 178 322 6 167 111 107 
169 11 277 112 32 82 331 227 233 239 293 182 272 
170 10 155 360 260 36 154 17 365 356 76 156 
171 11 131 105 369 7 284 291 304 327 157 187 308 
172 11 119 250 63 338 286 40 106 267 302 330 197 
173 11 328 388 325 153 318 42 125 87 330 86 267 
174 11 139 319 192 183 161 26 19 335 55 160 184 
175 10 340 95 321 93 28 100 92 305 342 346 
176 7 300 258 23 351 191 199 376 
177 11 243 274 52 296 373 198 188 195 248 269 56 
178 10 6 220 107 287 168 199 255 167 111 376 
179 9 34 61 390 123 323 249 137 166 236 
180 10 138 348 264 150 59 235 349 210 143 151 
181 11 57 196 226 163 201 209 9 156 184 75 160 
182 11 320 331 278 367 259 169 277 32 112 227 233 
183 11 55 319 174 139 192 160 4 161 26 184 289 
184 11 160 26 163 156 335 183 289 319 174 383 55 
185 11 39 67 21 288 188 72 382 371 195 243 62 
186 7 219 108 275 217 85 361 65 
187 11 291 49 342 308 105 7 131 242 47 346 171 
188 11 288 195 243 274 382 177 67 52 149 373 21 
189 11 9 16 101 75 201 209 145 335 163 26 181 
190 10 103 232 5 94 136 137 249 270 347 40 
191 7 354 176 109 203 83 379 376 
192 11 139 174 161 319 19 183 26 335 216 297 55 
193 11 248 56 373 51 198 374 261 296 142 274 339 
194 10 299 265 113 62 15 349 371 129 150 208 
195 11 188 274 382 288 177 149 243 373 52 296 198 
196 11 226 181 57 156 163 252 17 36 76 356 184 
197 11 286 302 104 5 40 338 103 232 63 249 190 
198 11 296 56 248 373 193 339 52 177 142 224 269 
199 8 376 255 203 351 332 178 6 258 
200 11 86 378 230 81 231 102 303 109 354 104 34 
201 11 163 9 75 16 209 101 181 335 189 26 57 
202 11 164 221 211 45 295 38 225 29 315 48 140 
203 8 83 376 332 255 199 262 343 97 
204 11 280 76 282 252 155 170 360 36 196 17 260 
205 11 326 130 73 254 110 234 290 257 333 298 91 
206 11 2 8 43 134 294 120 50 336 245 126 11 
207 11 387 237 359 27 304 283 316 284 157 240 285 
208 11 118 135 115 129 15 344 113 362 148 372 99 
209 11 9 201 181 57 189 16 163 75 101 145 226 
210 10 313 235 180 138 348 150 59 264 349 143 
211 11 295 45 225 38 23 300 258 29 379 381 176 
212 11 228 310 213 14 3 35 389 247 229 151 386 
213 11 389 212 310 77 228 3 384 14 35 246 247 
214 11 273 44 122 256 20 216 152 297 58 241 317 
215 10 253 54 371 265 301 194 299 62 271 87 
216 11 256 161 122 297 19 44 192 317 139 174 319 
217 11 65 4 85 55 147 186 146 317 219 361 108 
218 10 84 223 244 245 120 336 324 285 294 2 
219 7 186 108 217 279 147 65 275 
220 11 6 167 111 178 107 168 322 41 287 358 124 
221 11 202 164 211 295 45 38 225 29 315 140 48 
222 11 116 30 368 11 305 53 307 92 126 227 100 
223 10 218 84 245 324 336 244 120 294 285 2 
224 11 128 339 78 246 384 142 99 269 77 311 386 
225 11 38 45 295 211 23 300 258 381 29 140 315 
226 11 196 163 156 181 57 184 160 17 356 383 36 
227 11 32 277 112 169 293 222 82 116 307 53 30 
228 11 14 212 247 35 151 310 3 229 372 311 362 
229 11 386 311 3 35 99 247 372 362 246 78 228 
230 11 81 102 109 200 354 231 86 378 303 191 379 
231 11 200 86 230 81 378 109 102 87 379 271 354 
232 9 103 5 190 136 249 137 94 123 197 
233 11 331 66 272 169 20 279 367 152 241 82 277 
234 11 254 290 333 91 73 74 110 130 205 326 281 
235 11 138 180 210 313 348 59 264 150 143 349 151 
236 9 33 165 166 133 323 390 375 179 34 
237 11 387 207 359 304 283 284 157 316 27 369 240 
238 10 355 334 251 306 114 312 88 292 12 94 
239 11 82 127 293 337 380 112 18 32 169 277 307 
240 11 370 25 352 31 64 292 304 306 270 284 334 
241 11 20 272 18 273 66 233 152 127 82 331 239 
242 11 346 49 342 90 47 187 340 162 308 341 175 
243 11 177 52 274 188 296 198 373 269 195 288 67 
244 10 218 84 120 223 285 316 245 336 324 27 
245 11 336 84 294 120 2 218 223 134 244 206 8 
246 11 78 128 224 384 386 229 311 3 99 35 77 
247 11 35 3 229 372 311 386 228 362 99 14 212 
248 11 56 193 198 373 296 142 339 51 374 177 224 
249 10 123 136 137 61 232 5 103 390 104 179 
250 11 119 267 172 330 42 286 302 63 338 125 40 
251 9 88 238 355 94 132 334 12 375 312 
252 11 76 196 170 36 17 155 226 360 154 260 57 
253 10 215 265 371 194 54 301 299 62 349 113 
254 11 234 290 333 73 130 205 91 326 110 74 364 
255 9 376 199 332 203 262 97 178 6 83 
256 11 216 122 44 297 161 214 317 19 58 192 139 
257 11 110 326 60 96 329 268 205 358 234 254 298 
258 8 300 23 351 176 381 225 38 199 
259 11 278 320 53 182 314 116 22 227 100 222 92 
260 11 154 365 360 36 17 170 356 155 361 383 146 
261 11 51 374 193 248 373 56 198 296 46 142 274 
262 11 97 281 332 377 255 107 91 358 6 376 203 
263 10 10 210 301 313 235 265 180 348 138 150 
264 11 59 138 180 348 150 151 349 143 235 14 362 
265 10 194 349 299 150 348 253 113 15 180 62 
266 11 70 271 87 221 211 301 295 379 202 164 231 
267 11 250 330 119 42 172 302 125 286 197 338 63 
268 11 358 377 60 111 96 107 167 97 281 262 6 
269 11 37 344 52 148 128 224 78 115 296 129 99 
270 10 64 352 94 190 347 103 25 251 232 5 
271 11 87 70 266 231 301 86 200 379 230 211 295 
272 11 66 20 233 241 152 331 279 273 169 367 18 
273 11 214 20 241 44 122 152 272 66 256 58 317 
274 11 177 195 243 373 188 52 296 198 248 288 56 
275 8 361 146 85 365 186 217 4 260 
276 4 314 22 278 24 
277 11 32 112 169 227 82 293 331 239 182 233 307 
278 11 259 320 182 53 314 22 227 116 277 32 222 
279 10 367 108 66 152 233 147 58 219 331 272 
280 11 204 76 252 196 57 181 282 170 155 36 226 
281 11 97 262 377 332 91 107 358 255 268 6 83 
282 8 155 170 360 260 76 365 154 36 
283 11 157 316 27 304 387 369 244 284 359 327 237 
284 11 304 369 171 105 131 7 157 283 237 327 291 
285 10 324 27 244 218 223 316 84 120 245 336 
286 11 197 338 40 302 63 172 119 104 5 347 250 
287 11 168 69 41 178 124 220 6 140 381 315 322 
288 11 188 382 195 67 243 274 177 149 52 21 39 
289 11 383 356 156 4 160 85 146 55 184 183 361 
290 11 333 234 254 73 74 91 364 130 159 205 121 
291 11 131 187 105 7 171 308 369 327 49 342 284 
292 11 114 306 334 355 238 352 64 370 240 251 270 
293 11 307 32 239 112 82 227 277 337 380 169 126 
294 11 245 336 2 134 84 120 218 223 8 206 126 
295 11 211 45 225 38 300 23 258 379 176 29 381 
296 11 198 56 248 373 52 177 269 339 224 243 128 
297 11 19 161 256 216 192 139 174 319 122 44 183 
298 11 326 205 257 357 110 130 73 254 60 234 329 
299 11 113 15 194 129 62 208 135 118 349 148 115 
300 8 258 23 176 351 38 225 45 381 
301 11 266 70 271 263 215 253 87 10 265 221 202 
302 11 197 286 104 119 250 267 338 40 172 63 5 
303 11 102 104 34 378 179 61 81 249 302 390 123 
304 11 284 369 171 237 283 157 105 131 387 7 240 
305 11 92 93 28 368 100 95 321 11 50 116 222 
306 11 334 355 114 292 238 352 64 251 270 370 88 
307 10 126 293 30 134 222 8 11 227 32 116 
308 11 342 187 7 327 291 105 43 321 340 175 346 
309 11 71 185 39 54 80 21 371 67 288 72 215 
310 11 212 14 228 151 213 35 247 3 143 389 229 
311 11 386 99 229 3 35 247 372 362 78 246 228 
312 10 12 238 88 251 132 375 355 334 133 158 
313 11 210 235 138 180 59 348 143 264 150 349 151 
314 7 22 276 278 259 320 182 53 
315 11 29 140 381 48 23 38 225 351 258 287 69 
316 11 27 244 283 285 157 218 120 84 324 223 336 
317 11 58 147 122 44 216 65 217 256 152 108 55 
318 11 325 153 385 117 345 125 328 388 13 366 68 
319 11 174 139 192 183 161 26 55 19 335 160 184 
320 11 278 259 182 53 227 116 277 32 314 112 169 
321 11 93 95 28 92 100 175 305 50 340 368 11 
322 11 41 124 167 168 220 111 287 69 96 6 107 
323 9 133 390 236 61 375 123 179 33 132 
324 10 285 223 218 244 84 27 245 336 120 316 
325 11 318 153 328 388 385 117 345 125 42 173 13 
326 11 110 205 257 254 234 73 130 60 290 333 268 
327 11 7 43 157 105 308 369 171 283 291 50 131 
328 11 388 153 125 42 325 318 330 173 117 267 68 
329 11 96 60 257 268 111 322 167 358 110 107 220 
330 11 42 267 125 250 119 153 172 68 388 302 117 
331 11 233 169 66 272 182 367 277 112 82 279 32 
332 9 255 262 203 376 83 97 281 199 377 
333 11 290 234 254 73 74 91 364 130 159 205 121 
334 11 355 306 114 238 292 251 352 64 312 270 88 
335 11 26 174 75 139 319 192 184 19 160 101 163 
336 11 245 84 120 294 2 218 223 134 244 206 8 
337 9 380 127 239 293 307 82 18 112 126 
338 11 40 63 286 347 172 197 5 103 119 302 190 
339 11 142 224 384 128 77 246 78 141 363 46 56 
340 10 175 95 321 342 346 93 28 100 242 92 
341 10 90 144 162 353 346 242 340 49 342 175 
342 11 346 242 308 187 49 340 175 90 291 321 47 
343 11 121 159 83 74 203 332 91 262 281 364 97 
344 11 115 148 118 208 129 269 37 78 99 135 311 
345 11 385 366 117 13 318 47 68 153 350 325 125 
346 10 242 342 90 49 340 175 187 341 308 47 
347 11 40 63 338 190 103 286 5 270 197 232 172 
348 10 150 180 349 138 264 59 235 210 151 135 
349 10 150 348 180 264 138 113 299 59 135 265 
350 11 106 13 366 68 117 385 345 47 172 131 291 
351 8 258 23 300 199 381 176 376 140 
352 11 64 370 25 270 240 306 31 355 334 292 238 
353 10 162 341 90 242 47 49 346 345 80 144 
354 8 109 191 230 379 83 176 81 203 
355 11 334 238 306 114 251 292 352 64 88 270 312 
356 11 383 17 154 156 289 36 260 365 146 361 85 
357 11 79 298 205 130 73 326 254 110 158 257 290 
358 11 268 377 107 111 97 167 281 6 262 60 96 
359 11 387 237 207 27 283 316 157 285 304 244 284 
360 10 155 170 260 154 365 36 17 356 361 146 
361 11 146 275 85 365 4 260 356 154 289 383 65 
362 11 372 135 247 99 311 35 118 229 386 3 208 
363 11 141 46 77 142 384 339 389 213 246 224 128 
364 11 74 333 290 159 121 89 73 234 254 343 91 
365 11 260 154 360 356 361 17 36 146 170 275 383 
366 11 13 345 385 117 350 47 68 106 318 153 49 
367 10 279 108 331 233 66 182 152 219 272 147 
368 11 11 305 222 116 92 30 28 93 100 50 95 
369 11 171 284 105 304 7 131 157 327 291 283 187 
370 11 240 25 352 64 31 270 306 292 334 355 347 
371 11 194 62 253 21 72 299 265 215 54 15 113 
372 11 362 247 35 229 311 99 386 3 135 118 228 
373 11 248 198 193 56 296 274 177 243 52 51 339 
374 11 51 261 193 248 56 46 142 141 363 373 198 
375 7 132 133 88 12 323 236 33 
376 8 199 255 203 332 83 262 351 178 
377 11 97 281 358 107 262 268 6 111 167 91 332 
378 11 200 86 303 102 81 230 104 302 231 267 197 
379 9 176 191 295 300 211 45 354 225 38 
380 9 337 239 127 293 307 82 126 134 18 
381 11 140 315 29 23 351 258 38 225 300 48 287 
382 11 149 195 188 288 274 177 243 67 39 373 52 
383 11 289 356 156 17 154 146 160 365 36 4 85 
384 11 77 246 339 389 142 224 128 363 141 78 213 
385 11 345 117 366 13 68 318 153 350 47 125 325 
386 11 311 229 99 3 35 247 372 78 246 362 228 
387 11 359 237 207 283 27 304 316 157 284 369 285 
388 11 328 125 153 42 330 318 325 267 117 250 68 
389 11 213 77 212 384 246 3 310 35 228 229 363 
390 9 61 179 323 34 123 137 236 133 249 
DEPOT_SECTION
   1
   -1
EOF
