NAME :  X-n439-kX-w43-c9.cctp
COMMENT : 	Adapted by Maziero, Usberti and Cavellucci from the Uchoa, Pecin, Pessoa, Poggi, Subramanian, and Vidal (2013)
TYPE :  CCTP
DIMENSION :    250
EDGE_WEIGHT_TYPE : 	EUC_2D	
CAPACITY : 	12
VERTICES_WITHIN_COVERAGE :  9
VERTICES_WITH_DEMAND : 	43
NODE_COORD_SECTION
1 500 500
2 769 259
3 91 377
4 108 338
5 816 567
6 698 341
7 741 237
8 601 140
9 63 359
10 215 608
11 979 914
12 911 697
13 440 593
14 922 765
15 185 756
16 486 158
17 993 628
18 241 33
19 200 756
20 856 440
21 471 712
22 929 649
23 811 44
24 125 727
25 830 484
26 568 366
27 261 394
28 478 965
29 726 474
30 68 952
31 747 716
32 678 366
33 17 603
34 169 689
35 916 565
36 564 913
37 268 681
38 937 878
39 370 634
40 555 847
41 246 911
42 267 333
43 166 257
44 147 179
45 382 886
46 312 911
47 457 582
48 334 882
49 269 710
50 513 910
51 503 682
52 451 911
53 171 656
54 843 44
55 94 165
56 726 411
57 197 498
58 49 726
59 645 224
60 981 775
61 844 973
62 986 589
63 414 719
64 407 720
65 82 782
66 255 312
67 151 291
68 831 520
69 970 760
70 912 77
71 150 909
72 655 287
73 708 178
74 503 504
75 14 634
76 825 599
77 433 646
78 88 970
79 704 58
80 258 52
81 570 72
82 252 338
83 141 741
84 353 966
85 501 929
86 128 931
87 953 786
88 30 752
89 157 419
90 454 640
91 888 420
92 453 708
93 995 666
94 970 790
95 604 21
96 128 917
97 122 40
98 846 937
99 139 930
100 479 760
101 69 875
102 698 197
103 726 250
104 782 561
105 43 320
106 757 331
107 898 518
108 529 957
109 60 701
110 567 295
111 535 391
112 30 683
113 447 677
114 500 86
115 555 154
116 275 341
117 299 644
118 890 504
119 42 970
120 496 177
121 789 679
122 770 402
123 504 867
124 339 760
125 99 352
126 875 761
127 667 49
128 774 666
129 728 515
130 676 316
131 961 518
132 484 538
133 862 621
134 77 733
135 476 800
136 107 535
137 793 754
138 37 871
139 420 78
140 312 676
141 919 95
142 605 144
143 214 887
144 323 338
145 253 819
146 628 365
147 128 138
148 705 400
149 571 979
150 931 739
151 764 26
152 162 169
153 338 947
154 480 60
155 292 467
156 136 228
157 866 390
158 196 682
159 250 283
160 950 598
161 244 524
162 583 858
163 748 608
164 254 471
165 159 246
166 847 676
167 281 865
168 842 436
169 503 302
170 222 615
171 141 757
172 730 710
173 242 378
174 175 791
175 194 777
176 306 316
177 259 336
178 405 778
179 176 687
180 164 230
181 475 364
182 159 665
183 784 688
184 273 68
185 115 719
186 201 591
187 126 178
188 170 673
189 964 859
190 645 937
191 88 608
192 469 662
193 194 760
194 307 322
195 44 357
196 754 663
197 457 666
198 224 678
199 119 717
200 611 940
201 865 435
202 865 403
203 640 408
204 574 311
205 205 298
206 634 902
207 899 450
208 623 138
209 155 167
210 164 337
211 943 753
212 206 641
213 196 585
214 189 611
215 818 409
216 95 550
217 727 707
218 190 624
219 161 32
220 739 302
221 68 320
222 193 734
223 605 969
224 130 185
225 978 671
226 952 836
227 196 8
228 883 786
229 839 318
230 243 672
231 668 495
232 215 0
233 282 320
234 185 62
235 133 311
236 239 64
237 378 491
238 252 657
239 182 66
240 748 760
241 154 103
242 729 319
243 285 650
244 331 10
245 199 630
246 781 445
247 56 412
248 208 238
249 197 739
250 455 395
DEMAND_SECTION
2 1
3 1
4 1
5 1
6 1
7 1
8 1
9 1
10 1
11 1
12 1
13 1
14 1
15 1
16 1
17 1
18 1
19 1
20 1
21 1
22 1
23 1
24 1
25 1
26 1
27 1
28 1
29 1
30 1
31 1
32 1
33 1
34 1
35 1
36 1
37 1
38 1
39 1
40 1
41 1
42 1
43 1
44 1
COVERAGE_SECTION
2 8 7 103 220 242 106 229 102 73 
3 9 125 9 4 247 195 221 105 89 235 
4 9 125 235 3 221 9 210 67 105 195 
5 7 76 104 68 133 163 25 107 
6 9 32 130 242 220 148 106 72 146 56 
7 9 103 2 102 220 73 242 106 59 72 
8 9 142 208 115 81 59 120 127 102 73 
9 8 195 3 125 221 105 4 247 235 
10 7 170 186 214 245 213 218 212 
11 9 38 189 226 94 87 98 60 61 69 
12 9 150 22 211 166 14 225 126 69 93 
13 9 47 90 77 132 192 197 39 113 51 
14 9 211 150 87 228 126 69 94 60 12 
15 9 193 19 249 175 222 174 171 83 24 
16 3 120 115 114 
17 9 93 62 225 160 22 35 12 131 150 
18 7 80 236 232 184 227 234 239 
19 9 193 15 249 175 222 174 171 83 179 
20 8 201 168 91 202 207 215 25 157 
21 9 92 113 51 197 100 192 63 64 90 
22 9 12 225 160 17 93 133 62 35 166 
23 7 54 151 70 79 141 127 73 
24 9 199 185 83 171 134 34 179 15 222 
25 9 68 168 20 201 118 246 107 215 207 
26 8 111 204 146 110 203 169 181 32 
27 9 173 116 82 177 42 164 233 155 66 
28 9 85 108 52 50 149 36 123 45 84 
29 8 129 231 246 56 148 122 104 25 
30 9 78 119 86 96 99 101 138 71 143 
31 8 172 217 240 183 196 121 128 137 
32 9 6 148 130 146 203 56 242 72 106 
33 7 75 191 112 216 109 136 58 
34 7 179 188 182 158 53 222 198 
35 9 160 107 131 118 62 133 22 68 76 
36 9 50 200 108 162 85 149 40 223 206 
37 8 230 49 238 243 140 198 117 158 
38 9 189 226 11 87 94 228 98 60 14 
39 9 77 117 140 13 90 243 113 197 64 
40 4 162 123 36 50 
41 9 143 167 46 145 48 71 153 99 96 
42 9 177 116 82 233 66 194 176 173 159 
43 7 165 180 67 156 248 205 235 
44 9 209 152 224 187 147 156 180 55 165 
45 9 48 52 46 153 84 167 178 123 28 
46 9 48 153 167 41 84 45 143 145 52 
47 8 13 132 90 77 192 197 74 113 
48 9 46 45 167 153 84 41 145 143 52 
49 8 37 230 140 198 238 243 117 158 
50 9 85 123 108 36 52 28 40 162 149 
51 6 192 21 197 92 113 90 
52 9 85 28 50 123 45 108 84 36 135 
53 8 182 188 179 34 158 218 212 245 
54 6 23 70 151 141 79 127 
55 7 187 224 147 44 209 152 156 
56 9 148 122 29 246 32 6 106 203 215 
57 8 161 164 213 89 186 136 155 10 
58 9 109 134 88 112 65 185 199 24 83 
59 7 102 72 73 103 142 208 8 
60 9 69 94 87 211 14 150 226 189 228 
61 3 98 38 11 
62 9 160 17 35 131 93 225 22 107 118 
63 9 64 92 113 21 178 197 77 100 192 
64 9 63 92 178 113 21 197 77 124 100 
65 9 134 88 171 58 24 185 83 199 109 
66 6 42 177 82 233 159 116 
67 9 235 43 165 210 205 180 4 156 248 
68 9 25 5 118 104 107 76 20 168 246 
69 9 60 211 94 87 150 14 226 12 225 
70 3 141 54 23 
71 9 96 99 86 143 78 101 30 41 138 
72 7 130 59 6 103 242 32 146 
73 8 102 7 103 59 208 2 142 8 
74 6 132 47 13 111 250 237 
75 8 33 112 191 109 58 134 216 88 
76 6 5 133 104 163 68 166 
77 9 90 197 113 192 13 39 92 47 63 
78 9 30 119 86 99 96 71 101 138 143 
79 9 127 151 95 23 208 73 142 8 81 
80 6 184 236 18 232 234 227 
81 9 95 114 8 142 115 208 154 127 16 
82 9 177 42 116 66 233 173 159 27 194 
83 9 171 24 199 185 15 222 193 249 34 
84 9 153 46 45 48 52 41 167 28 85 
85 9 50 108 28 52 123 36 149 40 162 
86 9 99 96 71 78 30 101 119 143 138 
87 9 94 60 69 211 14 226 150 228 189 
88 9 58 134 109 65 112 185 199 24 171 
89 9 3 210 57 125 173 4 247 27 164 
90 9 77 197 192 113 13 47 51 92 21 
91 6 201 202 207 157 20 168 
92 9 21 113 63 197 64 192 51 100 77 
93 9 225 17 22 62 160 12 69 150 211 
94 9 87 60 69 211 226 14 150 189 228 
95 9 81 127 79 8 208 114 142 154 115 
96 9 86 99 71 78 30 101 143 119 138 
97 8 219 239 234 241 227 147 232 18 
98 3 61 38 11 
99 9 86 96 71 78 30 143 101 119 41 
100 6 135 21 92 178 63 51 
101 9 138 96 30 86 71 99 65 78 119 
102 8 73 7 59 103 2 208 72 142 
103 8 7 2 220 102 242 73 72 130 
104 6 5 76 163 68 129 25 
105 5 221 195 9 125 4 
106 8 242 220 6 122 2 130 229 32 
107 7 118 35 131 68 207 25 20 
108 9 85 149 50 28 36 223 200 52 123 
109 9 58 112 134 185 88 199 24 75 65 
110 5 204 169 26 72 146 
111 8 26 181 250 204 169 146 110 203 
112 9 109 58 75 88 134 33 185 191 199 
113 9 197 192 92 77 90 21 63 51 64 
114 8 154 81 16 139 115 120 8 142 
115 7 8 142 120 16 208 81 114 
116 9 42 177 233 82 66 194 176 144 173 
117 9 243 140 37 238 230 39 49 170 198 
118 7 107 207 68 25 35 20 131 
119 9 30 78 86 101 138 96 99 71 143 
120 3 16 115 114 
121 4 183 128 196 31 
122 7 246 56 215 148 106 168 29 
123 9 50 40 85 52 135 36 162 108 28 
124 9 178 64 63 49 140 145 37 167 48 
125 9 4 3 9 221 235 195 105 210 247 
126 5 228 14 150 211 12 
127 9 79 95 208 81 151 8 142 73 23 
128 5 121 196 183 31 172 
129 8 29 231 104 246 163 5 68 56 
130 8 6 72 32 242 220 146 106 103 
131 5 107 35 118 62 160 
132 6 74 47 13 90 237 77 
133 8 76 166 5 22 35 12 160 121 
134 9 58 109 185 199 24 65 88 83 171 
135 6 100 123 178 21 40 92 
136 7 216 191 57 213 186 214 33 
137 2 240 31 
138 9 101 30 119 65 96 86 78 99 71 
139 3 154 114 16 
140 9 117 243 37 49 238 230 39 124 198 
141 3 70 54 23 
142 8 8 208 115 81 59 102 73 127 
143 9 41 71 167 145 99 96 86 46 174 
144 5 194 176 233 116 42 
145 9 167 175 143 19 174 193 41 15 249 
146 9 203 32 26 130 6 204 72 148 110 
147 8 187 209 55 241 44 152 224 156 
148 9 56 32 6 122 203 29 242 146 106 
149 9 223 108 200 36 190 85 50 28 206 
150 9 211 14 69 12 87 126 60 94 228 
151 9 23 79 54 127 70 95 73 141 208 
152 9 209 44 224 187 147 180 156 241 55 
153 9 84 46 48 45 41 167 52 143 28 
154 7 114 139 81 16 120 115 95 
155 6 164 161 27 237 57 173 
156 9 180 165 43 224 44 187 152 209 67 
157 5 202 91 201 20 168 
158 7 179 34 188 198 53 182 212 
159 4 66 205 233 42 
160 9 62 35 17 22 225 131 93 133 107 
161 8 57 164 155 213 186 10 170 214 
162 4 40 36 206 123 
163 5 196 104 128 76 5 
164 8 155 161 57 27 173 89 237 213 
165 8 43 180 156 67 248 44 224 205 
166 5 133 121 183 12 128 
167 9 145 46 48 41 143 153 45 124 84 
168 9 20 201 215 202 25 91 157 207 246 
169 4 110 181 204 26 
170 7 10 245 212 186 214 218 213 
171 9 83 24 15 185 199 174 193 175 222 
172 7 217 31 196 240 183 128 121 
173 9 27 82 177 116 42 66 233 194 205 
174 9 175 15 193 19 171 249 83 222 24 
175 9 193 19 15 174 249 222 171 83 145 
176 5 194 233 144 116 42 
177 9 82 42 116 66 233 173 194 176 159 
178 9 64 63 124 135 100 92 21 113 45 
179 7 34 188 158 182 53 198 222 
180 8 165 43 156 248 44 224 152 67 
181 4 250 111 169 26 
182 8 188 53 34 179 158 218 212 245 
183 4 121 128 196 31 
184 4 80 236 18 244 
185 9 199 24 83 134 171 109 34 58 179 
186 8 213 10 214 170 218 245 212 53 
187 8 224 44 209 55 152 147 156 180 
188 7 182 179 34 53 158 212 245 
189 9 226 38 11 94 87 60 69 14 211 
190 5 200 206 223 36 149 
191 7 216 33 136 75 182 112 53 
192 9 197 90 113 51 77 92 21 13 63 
193 9 19 15 175 249 222 174 171 83 34 
194 6 176 144 233 116 42 177 
195 7 9 105 221 3 125 247 4 
196 5 128 121 183 217 31 
197 9 192 113 90 77 92 21 51 63 64 
198 7 230 158 238 212 37 179 188 
199 9 185 24 83 134 171 34 109 179 182 
200 7 223 190 206 36 149 108 162 
201 6 20 168 91 202 207 157 
202 6 157 91 201 20 168 215 
203 9 146 32 148 26 56 6 231 130 111 
204 6 110 26 169 146 72 111 
205 7 159 66 67 43 210 248 82 
206 4 190 200 162 36 
207 4 91 201 20 118 
208 8 142 8 115 81 59 73 102 127 
209 9 152 44 187 224 147 55 156 180 241 
210 9 235 67 4 205 125 43 89 3 82 
211 9 150 14 69 87 60 94 12 126 228 
212 7 245 218 170 10 214 53 198 
213 8 186 214 10 218 170 245 212 53 
214 8 218 245 186 10 213 170 212 53 
215 7 168 202 20 122 157 246 201 
216 7 136 191 33 213 214 57 186 
217 7 172 31 196 240 183 128 121 
218 8 245 214 212 10 170 186 53 213 
219 9 234 97 239 227 232 241 18 236 80 
220 9 242 106 2 103 6 7 130 72 32 
221 7 105 9 4 195 125 3 235 
222 9 249 15 19 193 175 179 34 83 158 
223 7 200 149 190 36 206 108 50 
224 8 187 44 209 152 55 156 147 180 
225 9 93 17 22 12 160 62 150 69 211 
226 9 189 38 94 87 60 14 69 11 211 
227 9 232 219 18 234 239 236 80 97 184 
228 7 126 14 150 211 87 226 94 
229 4 157 106 202 2 
230 7 238 198 37 49 243 158 212 
231 7 29 129 203 56 148 246 32 
232 9 227 18 219 80 236 234 239 184 97 
233 8 42 116 176 194 66 177 82 144 
234 9 239 219 241 236 227 18 97 232 80 
235 9 67 4 210 125 43 221 165 205 3 
236 6 80 18 184 234 239 232 
237 6 155 132 13 47 250 74 
238 8 230 37 243 198 117 212 170 49 
239 9 234 219 241 236 227 97 18 232 80 
240 3 31 137 172 
241 9 147 239 234 209 152 97 219 44 187 
242 9 220 106 6 130 32 103 2 72 7 
243 8 117 238 37 140 230 49 198 170 
244 5 184 80 18 236 139 
245 7 218 212 214 10 170 53 186 
246 9 122 215 29 168 25 56 20 201 129 
247 9 3 9 195 125 4 105 221 89 235 
248 2 180 43 
249 9 222 19 15 193 175 83 174 179 34 
250 4 181 111 169 26 
DEPOT_SECTION
   1
   -1
EOF
