NAME :  X-n420-kX-w167-c11.cctp
COMMENT : 	Adapted by Maziero, Usberti and Cavellucci from the Uchoa, Pecin, Pessoa, Poggi, Subramanian, and Vidal (2013)
TYPE :  CCTP
DIMENSION :    368
EDGE_WEIGHT_TYPE : 	EUC_2D	
CAPACITY : 	18
VERTICES_WITHIN_COVERAGE :  11
VERTICES_WITH_DEMAND : 	167
NODE_COORD_SECTION
1 500 500
2 707 633
3 405 122
4 811 419
5 11 667
6 336 612
7 366 50
8 98 836
9 414 996
10 243 713
11 100 232
12 891 946
13 132 204
14 25 642
15 994 18
16 636 897
17 214 651
18 108 619
19 882 399
20 863 607
21 409 585
22 247 882
23 553 507
24 677 258
25 673 644
26 25 182
27 251 111
28 263 799
29 660 359
30 351 288
31 172 127
32 382 441
33 231 650
34 966 485
35 964 107
36 876 164
37 949 328
38 936 70
39 229 744
40 161 214
41 581 594
42 154 860
43 23 374
44 736 600
45 594 542
46 846 684
47 355 471
48 675 597
49 663 653
50 61 889
51 685 150
52 129 248
53 161 301
54 180 836
55 427 670
56 833 860
57 669 251
58 411 403
59 450 926
60 591 505
61 468 157
62 288 484
63 574 955
64 795 521
65 41 65
66 175 486
67 74 436
68 907 13
69 579 912
70 765 835
71 176 189
72 972 351
73 470 22
74 577 469
75 561 672
76 110 670
77 811 614
78 460 344
79 862 486
80 22 369
81 898 295
82 89 934
83 164 871
84 487 617
85 731 565
86 470 722
87 509 209
88 860 845
89 515 312
90 434 712
91 388 521
92 573 250
93 155 316
94 143 923
95 247 971
96 641 297
97 763 749
98 585 887
99 987 361
100 153 215
101 150 669
102 76 153
103 456 635
104 778 497
105 334 529
106 764 789
107 963 378
108 262 404
109 32 672
110 118 874
111 764 315
112 931 462
113 168 831
114 443 2
115 571 812
116 185 964
117 368 628
118 366 788
119 48 374
120 8 464
121 459 77
122 345 357
123 315 149
124 458 286
125 974 86
126 167 854
127 441 425
128 172 20
129 646 948
130 444 937
131 950 129
132 866 18
133 915 849
134 119 279
135 319 332
136 832 902
137 421 365
138 963 71
139 478 741
140 443 54
141 509 966
142 70 520
143 311 207
144 648 127
145 726 506
146 371 345
147 154 221
148 475 537
149 322 738
150 118 284
151 297 415
152 530 967
153 752 797
154 394 589
155 482 59
156 497 863
157 171 716
158 610 528
159 405 568
160 638 940
161 940 914
162 4 886
163 215 994
164 294 675
165 121 701
166 143 460
167 14 530
168 383 815
169 982 781
170 424 566
171 358 11
172 902 869
173 490 744
174 567 535
175 424 613
176 820 574
177 125 213
178 164 351
179 605 589
180 844 145
181 978 462
182 503 582
183 673 603
184 643 721
185 831 659
186 137 502
187 939 228
188 999 456
189 722 196
190 390 650
191 288 304
192 895 896
193 514 985
194 32 202
195 20 476
196 400 947
197 794 478
198 681 487
199 398 522
200 889 98
201 226 257
202 858 168
203 343 182
204 511 170
205 699 283
206 954 856
207 183 100
208 208 169
209 923 501
210 170 88
211 722 458
212 153 129
213 917 390
214 879 482
215 799 437
216 853 476
217 91 194
218 860 607
219 159 131
220 925 291
221 713 394
222 705 361
223 863 371
224 181 47
225 232 70
226 780 515
227 833 494
228 24 239
229 369 28
230 803 450
231 897 396
232 176 310
233 983 470
234 917 370
235 754 457
236 969 335
237 194 4
238 796 468
239 680 629
240 175 153
241 207 142
242 221 99
243 290 232
244 834 424
245 990 502
246 960 462
247 862 259
248 208 38
249 633 344
250 187 350
251 110 275
252 823 508
253 907 303
254 160 11
255 795 482
256 773 350
257 865 555
258 726 319
259 169 121
260 816 609
261 894 327
262 54 27
263 895 569
264 348 150
265 883 463
266 298 65
267 229 190
268 201 12
269 470 60
270 923 737
271 978 312
272 89 97
273 645 398
274 279 85
275 792 330
276 750 169
277 827 402
278 180 86
279 713 461
280 871 410
281 919 526
282 615 466
283 713 648
284 268 124
285 912 446
286 821 402
287 887 399
288 819 560
289 827 508
290 794 432
291 159 134
292 29 81
293 2 63
294 907 245
295 881 592
296 864 410
297 765 352
298 876 318
299 956 648
300 784 417
301 881 413
302 329 214
303 950 499
304 787 292
305 880 359
306 887 497
307 772 348
308 263 36
309 801 491
310 159 215
311 555 303
312 834 491
313 813 434
314 708 495
315 664 522
316 656 391
317 879 583
318 224 329
319 726 321
320 810 389
321 863 263
322 887 641
323 811 503
324 835 481
325 959 431
326 76 115
327 891 414
328 813 425
329 234 75
330 762 300
331 252 50
332 350 278
333 732 558
334 192 142
335 883 462
336 712 63
337 118 193
338 171 165
339 644 466
340 807 418
341 807 149
342 955 230
343 238 113
344 912 579
345 836 492
346 192 32
347 868 379
348 773 293
349 987 568
350 297 185
351 711 376
352 171 155
353 729 544
354 930 410
355 130 123
356 799 418
357 861 382
358 971 288
359 918 397
360 791 419
361 774 308
362 782 407
363 210 93
364 768 507
365 768 342
366 417 125
367 818 400
368 856 637
DEMAND_SECTION
2 6
3 9
4 8
5 6
6 4
7 8
8 3
9 4
10 10
11 1
12 9
13 9
14 5
15 10
16 5
17 6
18 9
19 8
20 10
21 8
22 8
23 4
24 8
25 7
26 3
27 5
28 10
29 10
30 8
31 2
32 2
33 8
34 7
35 10
36 9
37 2
38 9
39 10
40 2
41 1
42 6
43 1
44 2
45 4
46 6
47 7
48 8
49 8
50 5
51 7
52 4
53 7
54 1
55 5
56 6
57 9
58 2
59 6
60 4
61 6
62 5
63 10
64 7
65 4
66 6
67 1
68 2
69 4
70 9
71 1
72 6
73 4
74 9
75 1
76 5
77 2
78 2
79 9
80 6
81 7
82 10
83 10
84 8
85 7
86 3
87 2
88 10
89 3
90 5
91 8
92 10
93 3
94 7
95 5
96 3
97 10
98 7
99 10
100 4
101 3
102 3
103 4
104 8
105 7
106 3
107 10
108 5
109 2
110 3
111 1
112 10
113 9
114 9
115 4
116 9
117 9
118 3
119 6
120 3
121 6
122 6
123 6
124 7
125 4
126 4
127 1
128 1
129 2
130 3
131 5
132 1
133 8
134 9
135 1
136 9
137 6
138 2
139 6
140 8
141 6
142 7
143 4
144 2
145 10
146 6
147 8
148 3
149 3
150 10
151 2
152 5
153 2
154 10
155 1
156 10
157 8
158 4
159 10
160 2
161 5
162 8
163 3
164 10
165 10
166 7
167 6
168 1
COVERAGE_SECTION
2 11 283 239 25 44 183 48 49 85 333 353 77 
3 11 366 264 121 61 140 7 203 269 123 155 229 
4 11 340 328 356 313 286 360 367 290 215 277 244 
5 11 109 14 76 18 165 167 101 142 157 8 195 
6 11 117 154 190 164 21 159 105 175 170 91 55 
7 10 229 171 266 140 3 114 366 274 121 264 
8 11 110 42 50 113 126 83 54 82 94 162 165 
9 11 196 130 59 141 193 152 156 63 95 168 69 
10 11 39 33 164 17 157 149 28 101 165 6 54 
11 11 177 52 217 13 337 251 134 147 150 100 310 
12 11 192 161 136 172 133 56 88 206 70 169 106 
13 11 177 337 100 147 310 40 217 11 52 71 338 
14 11 5 109 18 76 165 167 101 142 157 195 120 
15 11 138 125 38 68 35 131 132 200 36 180 202 
16 11 160 98 129 69 63 115 152 70 156 141 193 
17 11 33 101 10 157 164 39 76 165 18 6 149 
18 11 76 101 165 14 109 142 5 17 157 186 33 
19 10 287 301 231 280 327 296 347 357 223 213 
20 11 218 295 317 368 322 260 263 77 257 176 344 
21 11 154 159 170 175 117 199 91 190 103 6 148 
22 11 54 83 28 126 95 113 42 116 94 163 110 
23 11 174 60 74 45 158 282 148 182 41 179 339 
24 11 57 205 96 189 258 319 330 249 29 348 92 
25 11 49 239 2 283 183 48 44 184 179 85 333 
26 11 194 228 102 217 326 11 337 292 177 272 13 
27 10 343 284 242 274 329 225 363 241 331 266 
28 11 39 22 149 10 54 113 118 126 168 83 157 
29 9 249 316 273 222 351 221 96 319 258 
30 11 332 135 146 191 122 302 243 143 137 203 124 
31 11 259 219 291 212 334 240 352 207 241 338 210 
32 11 47 58 127 91 199 137 151 122 146 105 62 
33 11 17 10 164 101 157 39 6 165 76 18 149 
34 11 303 233 246 181 245 112 188 209 325 281 285 
35 11 125 131 138 38 200 15 36 68 202 342 187 
36 9 202 180 200 341 131 294 187 247 321 
37 11 236 72 271 220 358 253 99 107 234 261 81 
38 11 138 125 35 200 131 68 15 132 36 180 202 
39 11 10 157 28 149 17 33 164 54 113 101 165 
40 11 310 100 147 71 13 177 52 337 338 352 240 
41 11 179 45 174 158 182 75 60 23 183 48 84 
42 11 126 83 113 54 110 8 94 22 50 82 116 
43 11 80 119 67 120 195 150 251 134 228 178 93 
44 11 85 333 2 283 353 48 183 239 77 25 260 
45 11 158 174 60 179 23 41 315 74 282 339 48 
46 11 185 368 322 77 218 20 260 270 295 97 317 
47 11 32 91 105 199 62 151 58 127 159 122 108 
48 11 183 239 25 2 49 44 85 283 333 179 315 
49 11 25 239 2 283 183 48 184 179 44 41 75 
50 11 82 162 110 8 94 42 83 126 113 54 116 
51 10 144 189 276 336 57 24 341 205 92 96 
52 11 11 134 251 177 147 150 100 13 310 40 337 
53 11 93 232 150 134 178 250 251 52 318 201 147 
54 11 113 126 42 83 110 22 8 28 94 39 157 
55 11 190 90 103 175 86 117 84 21 139 154 173 
56 11 88 136 172 70 192 133 106 153 12 161 206 
57 11 24 205 96 189 258 319 92 249 51 330 29 
58 11 127 137 32 146 78 122 47 151 135 91 199 
59 11 130 196 141 9 156 193 152 63 69 168 98 
60 11 158 45 23 174 74 282 339 315 179 41 198 
61 11 204 366 87 3 121 269 155 140 264 203 124 
62 11 105 47 151 108 32 91 66 199 6 122 159 
63 11 69 152 141 160 193 98 129 16 156 59 130 
64 11 226 323 104 364 252 309 289 255 197 288 227 
65 11 292 293 262 272 326 102 355 26 212 210 254 
66 11 166 186 142 62 67 108 178 250 151 18 195 
67 11 119 195 120 166 43 142 80 186 167 66 178 
68 11 132 38 138 15 200 125 35 131 180 36 202 
69 11 98 63 16 160 152 129 141 156 193 115 59 
70 11 153 106 56 97 136 88 172 16 192 133 129 
71 11 338 40 310 352 100 240 208 147 13 334 267 
72 11 236 99 107 37 271 234 358 213 359 354 220 
73 11 114 269 155 140 121 229 7 171 366 3 61 
74 11 282 60 23 174 339 158 45 273 315 198 316 
75 11 41 84 179 184 173 49 86 182 139 103 25 
76 11 165 101 18 157 109 14 5 17 33 10 39 
77 11 260 176 185 218 368 20 288 295 317 44 46 
78 11 137 124 89 58 127 146 311 122 30 32 332 
79 9 216 214 306 324 345 312 227 265 335 
80 11 43 119 67 120 195 150 251 228 134 93 178 
81 9 253 220 261 298 321 247 294 37 305 
82 11 50 94 110 8 42 83 162 116 126 113 54 
83 11 42 126 54 113 110 94 8 22 116 82 50 
84 11 103 182 175 55 148 170 21 75 159 41 154 
85 11 333 353 44 145 48 183 364 226 2 314 64 
86 11 139 173 90 55 103 75 84 190 175 118 168 
87 11 204 61 92 124 89 311 366 3 121 78 155 
88 11 56 172 133 192 136 206 70 12 161 106 153 
89 11 311 124 78 92 87 137 249 96 127 58 204 
90 11 86 55 139 173 190 103 175 118 117 84 149 
91 11 199 159 105 170 47 21 154 32 148 175 6 
92 11 311 87 96 89 57 204 24 249 124 205 29 
93 11 53 232 178 250 150 134 251 318 52 201 147 
94 11 82 110 83 116 42 126 50 54 113 8 163 
95 11 163 116 22 94 83 126 42 54 196 110 113 
96 11 249 24 57 205 29 92 311 258 319 222 316 
97 11 106 153 70 46 185 283 184 2 56 88 25 
98 11 69 16 63 160 115 129 156 152 141 193 59 
99 11 72 107 236 37 271 234 325 354 358 213 359 
100 11 147 310 40 13 177 71 52 337 338 11 352 
101 11 76 165 157 18 17 33 10 39 109 14 5 
102 11 326 217 272 337 26 355 194 13 177 212 11 
103 11 84 175 55 190 21 182 170 154 90 159 86 
104 11 364 226 255 309 197 64 238 323 252 235 289 
105 11 91 47 62 199 159 6 154 21 170 32 117 
106 11 153 97 70 56 88 136 46 184 185 283 172 
107 11 72 99 236 354 234 213 359 37 325 231 271 
108 11 151 62 318 135 250 122 191 178 47 66 146 
109 11 5 14 76 18 165 101 167 157 142 8 17 
110 11 42 8 83 126 94 50 113 82 54 116 162 
111 11 361 330 348 365 275 304 307 256 297 258 319 
112 9 285 246 209 34 303 325 181 265 335 
113 11 54 126 42 83 110 8 22 94 28 39 157 
114 11 73 140 269 155 121 229 171 7 3 366 61 
115 11 98 156 69 173 16 184 139 86 75 63 160 
116 11 163 94 95 83 82 22 42 126 110 54 113 
117 11 190 6 154 175 21 159 55 170 103 164 105 
118 11 168 149 90 28 139 86 173 55 164 190 10 
119 11 43 80 67 120 195 150 251 178 134 93 166 
120 11 195 167 67 142 43 80 119 186 166 66 14 
121 11 269 140 155 73 366 3 114 61 7 229 204 
122 11 146 135 30 151 137 191 332 58 32 108 47 
123 11 264 350 203 284 143 302 274 27 343 266 243 
124 11 78 89 137 87 311 146 30 332 92 58 204 
125 11 138 35 38 131 15 200 68 36 132 202 180 
126 11 42 83 54 113 110 8 94 22 28 116 50 
127 11 58 32 137 78 47 146 199 91 148 122 89 
128 10 254 346 237 224 268 248 278 210 225 207 
129 11 160 16 63 69 98 152 193 141 115 70 156 
130 11 59 196 9 141 193 152 156 63 168 69 98 
131 11 35 125 138 38 200 36 187 202 342 180 15 
132 11 68 200 38 138 15 125 180 35 131 341 36 
133 11 172 206 192 88 161 56 169 136 12 270 70 
134 11 150 251 52 53 11 93 232 177 147 100 310 
135 11 122 191 30 146 332 151 108 318 243 137 58 
136 11 56 192 88 12 172 70 133 161 206 106 153 
137 11 58 78 146 127 122 32 124 30 135 89 332 
138 11 125 38 35 131 15 200 68 132 36 180 202 
139 11 173 86 90 55 75 103 115 168 118 156 84 
140 11 121 269 155 73 114 366 7 3 229 171 61 
141 11 193 152 63 59 130 69 9 156 98 196 160 
142 11 167 195 186 67 120 166 18 66 14 119 43 
143 11 302 350 243 203 123 264 332 267 30 284 201 
144 11 51 336 189 276 57 24 92 204 87 341 205 
145 11 314 353 364 279 211 198 333 104 226 235 85 
146 11 122 135 137 30 58 332 78 191 32 151 124 
147 11 100 310 40 13 177 52 71 337 11 338 134 
148 11 182 170 159 199 84 21 23 91 174 175 154 
149 11 118 164 10 28 39 168 190 90 117 55 6 
150 11 134 251 52 53 93 11 232 177 147 100 310 
151 11 108 62 122 47 135 32 146 191 318 58 105 
152 11 141 193 63 69 59 130 98 156 160 129 9 
153 11 106 70 97 56 88 136 184 46 16 283 185 
154 11 21 159 170 175 117 190 6 199 91 103 105 
155 11 269 121 73 140 114 366 3 61 204 7 229 
156 11 59 115 98 130 69 141 152 173 63 139 193 
157 11 101 165 39 10 76 17 33 113 18 54 28 
158 11 45 60 174 315 23 179 282 74 339 41 198 
159 11 21 170 154 199 175 91 117 148 105 6 190 
160 11 129 16 69 63 98 152 141 193 115 156 70 
161 11 192 12 172 206 133 88 136 56 169 270 70 
162 11 50 82 8 110 94 42 83 126 113 54 116 
163 11 95 116 94 22 83 82 42 126 110 54 113 
164 11 10 33 149 6 17 117 39 190 28 157 154 
165 11 76 101 157 18 109 17 14 5 39 33 10 
166 11 66 186 67 142 178 250 195 119 108 120 93 
167 11 195 142 120 67 14 186 18 5 109 166 43 
168 11 118 149 90 139 28 156 86 173 59 196 130 
169 11 270 206 133 172 299 88 161 192 46 56 322 
170 11 159 21 154 175 199 91 148 103 84 182 117 
171 10 229 7 266 114 140 308 274 73 331 3 
172 11 133 192 88 206 161 56 136 12 169 270 70 
173 11 139 86 90 55 75 115 103 156 84 168 118 
174 11 45 23 60 158 41 179 74 182 282 148 315 
175 11 21 154 103 170 159 190 55 117 84 182 6 
176 11 288 260 77 257 218 20 64 317 295 252 289 
177 11 13 337 100 147 11 310 52 40 217 71 251 
178 11 250 93 232 53 318 150 134 251 52 108 166 
179 11 41 45 158 174 183 48 60 239 49 25 315 
180 9 202 36 341 200 276 131 247 294 38 
181 11 233 246 188 34 325 245 303 112 209 285 354 
182 11 84 148 103 41 174 170 175 23 21 45 159 
183 11 48 239 25 2 49 283 44 85 179 333 315 
184 11 49 25 75 239 283 2 115 183 97 48 153 
185 11 46 368 77 260 322 218 20 295 176 317 288 
186 11 66 166 142 67 195 18 167 120 62 178 119 
187 11 342 294 220 358 81 253 247 321 36 271 37 
188 11 233 181 246 34 245 325 303 112 354 107 209 
189 9 276 51 57 24 205 341 144 348 330 
190 11 117 55 175 154 6 21 103 90 159 170 164 
191 11 135 30 332 318 243 122 201 146 302 143 108 
192 11 172 161 12 133 88 136 206 56 70 169 270 
193 11 141 152 63 130 59 69 9 196 98 156 160 
194 11 26 228 217 102 11 337 177 326 13 52 251 
195 11 120 167 67 142 43 119 80 186 166 66 14 
196 11 130 9 59 141 193 156 152 168 95 118 22 
197 11 255 238 309 104 230 323 364 226 215 324 227 
198 9 314 315 279 339 145 211 282 353 235 
199 11 91 159 170 21 105 47 154 148 32 175 127 
200 11 38 180 36 131 35 202 138 132 125 68 341 
201 11 267 243 318 232 40 53 191 310 147 71 100 
202 9 36 180 341 200 247 294 321 131 187 
203 11 264 302 143 123 350 243 3 366 284 332 30 
204 11 87 61 92 366 121 155 3 269 124 140 311 
205 11 24 57 258 319 96 330 111 348 222 361 29 
206 11 133 172 161 192 169 88 12 56 270 136 70 
207 10 278 210 259 363 31 242 219 212 291 334 
208 11 241 267 334 240 338 71 352 31 291 219 259 
209 10 281 303 306 112 34 214 246 265 285 335 
210 10 278 207 259 31 363 224 212 219 291 242 
211 7 279 235 314 145 198 221 364 
212 11 219 291 259 31 355 352 240 338 334 207 210 
213 10 359 234 231 354 287 327 19 301 107 305 
214 7 79 306 265 335 216 324 345 
215 11 290 230 313 328 356 360 340 4 300 238 362 
216 8 79 324 345 312 214 227 265 335 
217 11 337 11 177 13 102 194 100 52 26 147 310 
218 11 20 295 368 317 322 260 77 176 257 263 344 
219 11 291 212 31 259 240 352 355 334 338 207 210 
220 11 253 81 37 358 261 294 298 271 236 187 321 
221 5 351 222 316 29 211 
222 8 351 221 29 319 258 316 297 365 
223 5 347 357 305 19 287 
224 10 346 128 248 278 268 210 254 237 207 363 
225 10 329 331 242 363 248 343 27 308 274 278 
226 11 364 64 104 309 323 255 197 252 289 238 145 
227 11 312 345 324 289 252 323 216 79 309 255 197 
228 11 194 26 11 217 251 102 134 150 177 52 337 
229 10 171 7 114 140 266 3 73 121 269 308 
230 11 215 238 313 290 328 197 4 340 356 255 360 
231 11 287 19 327 213 359 301 280 234 347 296 354 
232 11 53 93 250 178 318 150 134 201 251 52 147 
233 11 181 188 34 246 245 303 325 112 209 285 354 
234 11 213 359 231 305 287 354 19 107 261 347 327 
235 9 211 279 238 197 104 290 255 215 230 
236 11 72 37 271 99 107 358 220 234 253 261 213 
237 10 268 128 346 254 248 224 331 225 308 329 
238 11 197 255 230 309 215 104 290 313 323 324 235 
239 11 25 2 183 49 48 283 44 85 179 333 353 
240 11 352 338 334 291 31 219 212 259 241 71 208 
241 11 334 208 240 31 352 343 259 338 242 207 219 
242 10 363 343 329 225 27 207 278 241 210 334 
243 11 143 302 350 201 191 203 267 332 30 123 264 
244 5 328 277 313 4 286 
245 11 34 233 303 181 188 246 349 209 112 281 325 
246 11 181 34 233 112 325 303 188 245 285 209 354 
247 5 321 294 81 298 253 
248 10 346 268 224 237 128 225 329 331 254 308 
249 11 29 96 316 273 222 351 311 205 221 258 319 
250 11 178 232 318 93 53 108 150 134 201 251 191 
251 11 134 150 52 11 53 93 177 147 13 100 232 
252 11 289 323 227 312 345 309 324 64 255 197 216 
253 10 81 220 261 298 37 294 321 305 247 358 
254 10 128 237 346 268 224 248 210 278 207 225 
255 11 197 309 238 104 323 230 226 364 252 64 227 
256 5 307 297 365 275 111 
257 11 317 263 295 288 176 20 218 344 289 281 306 
258 11 319 111 330 205 222 365 361 297 307 348 256 
259 11 31 219 291 212 207 334 210 240 352 278 355 
260 11 77 176 218 20 288 368 185 295 317 257 322 
261 8 298 253 81 305 220 234 223 37 
262 11 65 292 293 272 326 254 128 355 102 224 210 
263 9 344 317 295 257 281 20 218 306 322 
264 11 203 123 350 3 302 143 366 284 274 266 243 
265 6 335 214 79 216 285 306 
266 10 274 308 331 329 27 225 284 7 343 229 
267 11 208 71 241 334 338 240 201 350 352 40 243 
268 10 237 346 248 128 224 254 331 225 308 329 
269 11 155 121 140 73 114 366 3 61 7 229 204 
270 11 169 46 299 322 133 368 185 206 88 172 20 
271 11 236 358 37 72 99 220 107 253 81 234 261 
272 11 326 355 102 65 292 212 219 262 291 210 259 
273 9 316 29 249 221 339 222 351 282 279 
274 10 266 27 284 331 329 225 343 308 242 363 
275 5 307 365 256 361 111 
276 9 189 341 51 180 202 144 336 24 57 
277 6 286 367 320 4 244 340 
278 10 210 207 363 259 224 31 242 219 212 291 
279 7 211 314 198 235 145 221 339 
280 6 296 301 19 287 327 231 
281 9 209 303 306 263 344 214 257 34 112 
282 10 339 74 60 158 198 23 273 315 45 174 
283 11 2 239 25 49 44 183 48 85 333 184 77 
284 11 27 343 274 123 242 329 241 225 266 363 350 
285 7 112 335 265 327 354 301 214 
286 7 367 277 320 4 340 328 244 
287 10 19 231 301 327 280 296 347 213 357 359 
288 11 176 64 257 260 252 289 77 323 226 218 20 
289 11 252 227 323 312 345 324 309 64 79 216 255 
290 10 215 360 356 300 313 340 230 328 4 362 
291 11 219 212 31 259 352 240 355 338 334 207 210 
292 11 65 293 326 262 272 102 26 355 194 217 212 
293 11 292 65 262 326 272 102 26 355 194 217 212 
294 10 187 247 321 220 342 81 253 358 298 261 
295 10 317 20 218 263 344 257 322 368 176 260 
296 6 280 301 19 287 327 357 
297 5 256 307 365 275 111 
298 5 261 81 253 305 223 
299 9 322 344 349 295 270 263 317 368 20 
300 7 360 362 356 290 340 215 4 
301 6 280 327 19 287 296 231 
302 11 143 203 243 350 123 264 332 30 191 267 284 
303 11 34 209 246 245 281 112 233 181 306 188 285 
304 5 348 361 330 111 275 
305 8 223 347 357 261 234 19 231 287 
306 9 214 79 265 335 209 216 281 345 312 
307 5 256 365 297 275 111 
308 10 331 266 225 329 274 248 268 346 27 237 
309 11 255 197 323 104 238 252 64 289 226 227 312 
310 11 40 100 147 13 71 177 52 337 338 11 352 
311 11 89 92 96 249 124 78 87 29 57 24 273 
312 11 345 227 324 289 252 216 323 79 309 255 197 
313 10 328 215 4 340 230 290 356 244 360 286 
314 9 145 198 279 211 315 353 235 364 333 
315 11 198 314 158 339 145 353 45 282 60 48 333 
316 8 273 29 249 221 222 351 339 282 
317 11 295 263 20 218 257 344 322 368 176 288 260 
318 11 250 232 178 53 191 93 201 108 135 151 150 
319 11 258 111 330 222 205 365 297 361 307 256 348 
320 5 367 286 277 340 4 
321 5 247 81 294 298 253 
322 11 368 20 218 295 46 185 317 344 299 263 260 
323 11 252 309 289 64 227 255 312 345 197 226 324 
324 10 312 345 227 216 79 289 252 323 309 255 
325 11 246 181 354 112 233 188 285 107 359 34 213 
326 11 272 102 355 292 65 212 217 26 219 291 337 
327 7 301 287 19 231 280 296 359 
328 11 4 313 340 356 215 290 244 360 286 367 230 
329 10 225 242 363 331 343 27 248 274 308 278 
330 9 348 361 111 304 258 275 319 365 307 
331 9 308 225 329 274 248 266 242 363 27 
332 11 30 135 191 302 146 243 122 143 203 350 124 
333 11 85 353 44 145 364 226 314 48 64 183 104 
334 11 241 240 31 352 208 259 338 291 219 212 207 
335 6 265 214 79 216 285 306 
336 10 51 144 276 341 189 180 132 200 202 36 
337 11 13 177 217 100 11 147 310 40 52 71 102 
338 11 352 240 71 334 291 219 208 31 212 241 259 
339 10 282 198 315 60 74 273 279 314 158 316 
340 11 4 356 328 360 313 290 215 286 367 300 277 
341 8 180 202 276 36 189 200 51 247 
342 11 187 294 358 220 271 81 253 247 37 321 131 
343 10 27 242 284 363 329 241 225 274 334 207 
344 9 263 317 295 257 281 20 218 322 349 
345 11 312 227 324 289 252 216 79 323 309 255 197 
346 10 248 224 268 128 237 254 225 278 210 329 
347 8 357 223 305 19 287 280 296 231 
348 6 330 304 361 111 275 365 
349 9 245 344 303 281 34 299 263 209 233 
350 11 143 123 302 203 243 264 267 284 27 208 343 
351 7 222 221 29 316 319 258 297 
352 11 240 338 291 334 219 31 212 71 259 241 208 
353 11 333 85 145 314 364 44 226 104 315 64 198 
354 10 359 213 231 325 327 285 234 287 107 19 
355 11 212 219 291 259 31 272 352 210 240 326 207 
356 9 340 360 4 290 300 328 215 362 313 
357 7 347 223 19 296 280 305 287 
358 11 271 37 220 236 342 72 253 187 81 99 294 
359 10 213 354 231 234 287 327 19 301 107 280 
360 8 300 356 290 362 340 4 215 328 
361 9 111 330 348 304 275 365 307 256 297 
362 6 300 360 356 340 290 4 
363 10 242 207 329 278 225 343 210 27 241 259 
364 11 104 226 64 255 309 197 145 323 238 235 353 
365 7 307 256 297 111 275 361 330 
366 11 3 61 121 264 140 269 7 155 203 204 123 
367 7 286 277 320 4 340 328 356 
368 11 218 20 322 185 46 260 77 295 317 176 263 
DEPOT_SECTION
   1
   -1
EOF
