NAME :  X-n401-kX-w160-c9.cctp
COMMENT : 	Adapted by Maziero, Usberti and Cavellucci from the Uchoa, Pecin, Pessoa, Poggi, Subramanian, and Vidal (2013)
TYPE :  CCTP
DIMENSION :    400
EDGE_WEIGHT_TYPE : 	EUC_2D	
CAPACITY : 	745
VERTICES_WITHIN_COVERAGE :  9
VERTICES_WITH_DEMAND : 	160
NODE_COORD_SECTION
1 0 0
2 645 7
3 720 867
4 513 499
5 208 766
6 976 884
7 991 864
8 696 804
9 655 676
10 840 976
11 718 867
12 456 818
13 901 808
14 380 423
15 668 533
16 939 794
17 311 824
18 906 961
19 899 692
20 227 898
21 646 431
22 886 633
23 468 400
24 867 887
25 720 871
26 585 832
27 746 892
28 990 681
29 333 883
30 675 773
31 145 637
32 939 680
33 852 885
34 520 96
35 603 554
36 677 836
37 214 793
38 480 576
39 986 924
40 392 482
41 872 974
42 644 517
43 888 795
44 622 5
45 999 958
46 415 509
47 910 946
48 150 945
49 719 760
50 695 188
51 420 387
52 720 832
53 714 926
54 697 759
55 659 869
56 192 793
57 645 19
58 592 992
59 764 778
60 839 680
61 468 397
62 77 793
63 729 74
64 299 814
65 571 343
66 717 25
67 989 846
68 971 861
69 448 338
70 194 768
71 929 831
72 845 841
73 687 867
74 963 616
75 464 498
76 141 809
77 547 542
78 945 847
79 627 445
80 504 497
81 101 705
82 849 606
83 766 919
84 492 399
85 621 919
86 555 935
87 123 778
88 971 877
89 58 537
90 938 801
91 789 869
92 870 838
93 953 865
94 204 709
95 693 551
96 816 941
97 690 852
98 689 61
99 787 873
100 931 944
101 996 833
102 560 369
103 580 108
104 630 3
105 170 733
106 631 885
107 603 891
108 794 859
109 724 324
110 278 823
111 589 379
112 994 810
113 641 885
114 948 839
115 692 610
116 970 813
117 813 35
118 402 685
119 738 668
120 703 958
121 453 511
122 412 458
123 259 729
124 912 918
125 770 940
126 930 978
127 854 942
128 909 831
129 587 581
130 813 824
131 208 668
132 222 800
133 978 848
134 455 622
135 696 876
136 756 719
137 550 544
138 872 85
139 825 100
140 503 468
141 571 325
142 251 719
143 689 913
144 492 16
145 446 402
146 614 60
147 500 144
148 469 435
149 171 802
150 237 542
151 516 491
152 550 958
153 598 690
154 193 835
155 567 576
156 747 781
157 530 102
158 496 518
159 210 827
160 779 754
161 226 781
162 722 772
163 655 831
164 639 360
165 880 871
166 786 17
167 449 521
168 717 794
169 786 907
170 505 383
171 677 883
172 705 778
173 536 495
174 923 981
175 913 861
176 684 47
177 580 474
178 165 445
179 481 45
180 243 773
181 206 793
182 240 653
183 989 973
184 676 184
185 782 780
186 976 919
187 949 912
188 204 768
189 652 8
190 636 854
191 632 5
192 753 830
193 894 901
194 883 814
195 564 508
196 876 903
197 305 703
198 865 852
199 514 380
200 701 54
201 343 924
202 721 920
203 490 458
204 534 592
205 259 778
206 474 652
207 193 899
208 177 722
209 270 754
210 284 335
211 967 750
212 485 462
213 644 779
214 461 532
215 611 509
216 564 75
217 364 519
218 517 18
219 998 838
220 949 850
221 928 822
222 601 533
223 923 783
224 102 799
225 726 914
226 834 244
227 239 755
228 838 831
229 866 934
230 630 73
231 793 816
232 949 878
233 72 589
234 436 525
235 541 524
236 543 471
237 588 198
238 640 38
239 440 626
240 178 630
241 721 822
242 528 881
243 705 976
244 653 366
245 981 905
246 679 929
247 793 937
248 335 676
249 212 772
250 896 799
251 233 776
252 902 891
253 1000 799
254 169 693
255 45 654
256 868 917
257 152 749
258 233 943
259 316 594
260 408 600
261 945 853
262 509 590
263 843 915
264 471 500
265 775 770
266 303 689
267 579 103
268 935 853
269 659 857
270 426 546
271 932 920
272 996 850
273 237 642
274 840 94
275 706 671
276 190 756
277 163 677
278 734 882
279 403 754
280 669 187
281 947 869
282 783 848
283 747 889
284 710 131
285 851 992
286 157 888
287 964 968
288 550 923
289 320 759
290 881 806
291 941 885
292 333 404
293 990 838
294 171 759
295 647 47
296 296 835
297 655 146
298 243 669
299 475 535
300 197 879
301 565 50
302 985 834
303 784 970
304 546 65
305 144 788
306 870 661
307 508 521
308 669 386
309 845 859
310 268 693
311 860 854
312 768 700
313 196 769
314 245 941
315 411 529
316 535 56
317 327 947
318 789 831
319 145 726
320 708 76
321 808 838
322 657 144
323 686 66
324 514 578
325 894 933
326 909 814
327 579 57
328 938 972
329 435 803
330 730 857
331 819 787
332 861 742
333 251 785
334 497 40
335 969 748
336 990 860
337 701 863
338 195 682
339 610 942
340 103 703
341 802 833
342 260 726
343 221 735
344 777 692
345 984 821
346 912 928
347 475 554
348 959 862
349 646 31
350 991 886
351 735 812
352 707 889
353 333 824
354 824 954
355 197 855
356 487 514
357 570 729
358 653 40
359 850 803
360 630 47
361 563 493
362 216 737
363 689 858
364 688 876
365 883 783
366 334 767
367 847 890
368 966 862
369 524 554
370 181 847
371 886 743
372 241 760
373 995 751
374 663 926
375 660 593
376 807 731
377 124 687
378 282 720
379 704 58
380 950 824
381 825 869
382 795 770
383 150 720
384 664 408
385 222 837
386 930 938
387 313 960
388 819 911
389 906 880
390 180 749
391 914 961
392 357 506
393 649 780
394 975 865
395 687 737
396 258 723
397 543 546
398 660 70
399 650 873
400 541 495
DEMAND_SECTION
2 42
3 56
4 29
5 28
6 66
7 92
8 99
9 97
10 75
11 52
12 13
13 67
14 69
15 60
16 77
17 26
18 97
19 74
20 26
21 28
22 60
23 74
24 87
25 95
26 59
27 56
28 64
29 42
30 68
31 15
32 59
33 62
34 29
35 66
36 63
37 24
38 9
39 73
40 60
41 100
42 56
43 75
44 37
45 100
46 4
47 100
48 33
49 96
50 28
51 78
52 92
53 76
54 84
55 54
56 3
57 14
58 69
59 99
60 66
61 56
62 31
63 8
64 45
65 15
66 10
67 76
68 98
69 99
70 14
71 75
72 91
73 59
74 51
75 66
76 35
77 66
78 77
79 24
80 40
81 28
82 53
83 81
84 52
85 72
86 79
87 22
88 57
89 46
90 60
91 59
92 87
93 88
94 15
95 71
96 93
97 79
98 5
99 69
100 91
101 52
102 16
103 44
104 46
105 43
106 66
107 73
108 94
109 47
110 16
111 44
112 52
113 59
114 83
115 63
116 100
117 29
118 26
119 67
120 70
121 16
122 78
123 32
124 100
125 89
126 52
127 96
128 52
129 88
130 51
131 4
132 45
133 83
134 46
135 75
136 99
137 67
138 19
139 22
140 4
141 23
142 22
143 70
144 80
145 74
146 10
147 36
148 80
149 19
150 49
151 22
152 79
153 59
154 42
155 53
156 72
157 1
158 10
159 7
160 88
161 33
COVERAGE_SECTION
2 9 189 57 191 104 44 349 238 358 295 
3 9 11 25 330 337 278 135 352 363 73 
4 9 80 151 173 307 158 400 356 140 235 
5 9 188 249 313 70 276 161 181 251 37 
6 9 88 350 394 245 68 368 7 232 336 
7 9 336 272 394 67 68 133 350 88 6 
8 9 168 172 241 30 36 52 351 162 54 
9 9 275 153 395 115 119 375 54 30 357 
10 9 285 354 41 127 96 229 303 247 263 
11 9 3 25 330 337 278 135 352 363 73 
12 9 329 279 242 353 26 366 29 288 118 
13 9 250 326 43 194 290 128 221 365 223 
14 9 122 292 51 40 145 392 148 23 61 
15 9 42 95 375 215 222 35 115 129 79 
16 9 90 223 221 380 116 326 71 13 250 
17 9 64 296 353 110 366 29 289 205 333 
18 9 391 47 174 126 100 325 386 328 346 
19 9 32 306 371 22 60 332 211 335 28 
20 9 207 300 258 314 355 385 370 286 154 
21 9 79 384 308 244 164 111 177 215 42 
22 9 306 82 19 60 32 74 371 332 28 
23 9 61 145 84 148 170 51 199 203 212 
24 9 33 196 367 165 193 256 311 198 252 
25 9 3 11 330 278 337 352 135 283 364 
26 9 190 107 106 163 242 113 399 269 213 
27 9 283 278 225 25 83 3 11 202 330 
28 9 32 74 335 373 211 19 22 253 371 
29 9 201 353 296 17 317 64 387 110 314 
30 9 54 393 172 213 8 395 49 162 168 
31 9 240 277 377 254 338 131 340 81 383 
32 9 19 28 74 22 306 335 211 371 373 
33 9 367 24 309 196 165 263 381 311 198 
34 9 157 304 316 216 147 267 103 334 179 
35 9 222 129 155 215 137 42 77 195 397 
36 9 97 163 363 269 73 337 8 55 364 
37 9 181 132 161 249 56 251 188 5 313 
38 9 347 262 324 299 214 369 134 204 158 
39 9 186 245 45 350 187 6 88 183 287 
40 9 122 46 392 217 315 14 234 121 167 
41 9 285 10 18 127 229 391 47 325 174 
42 9 15 215 222 35 95 79 177 375 195 
43 9 250 290 365 13 194 326 223 359 128 
44 9 104 191 2 57 189 349 238 360 358 
45 9 183 39 287 186 245 328 187 100 126 
46 9 315 234 40 167 121 270 75 122 214 
47 9 18 391 346 100 325 386 124 271 174 
48 9 286 207 300 258 20 314 355 370 154 
49 9 162 54 172 168 156 395 30 59 8 
50 9 184 280 297 322 284 237 320 63 323 
51 9 145 61 23 14 69 148 122 84 170 
52 9 241 351 330 192 3 11 97 337 8 
53 9 202 225 143 120 246 352 27 278 283 
54 9 172 49 395 30 162 168 8 393 156 
55 9 399 269 171 113 190 73 364 106 363 
56 9 181 37 149 313 70 188 249 5 132 
57 9 2 349 189 191 238 104 358 44 295 
58 9 339 152 86 85 288 374 107 246 106 
59 9 265 156 185 160 382 162 351 49 231 
60 9 306 376 19 344 22 332 312 82 371 
61 9 23 145 84 148 170 51 199 69 203 
62 9 224 87 76 305 257 81 149 340 319 
63 9 320 379 200 98 323 66 176 284 398 
64 9 17 296 110 353 205 333 289 366 209 
65 9 141 102 111 199 164 170 244 84 308 
66 9 200 379 176 98 63 323 320 358 189 
67 9 272 293 133 219 302 336 101 7 68 
68 9 368 394 348 133 88 93 336 7 67 
69 9 51 61 145 23 170 84 199 148 14 
70 9 313 188 276 5 249 390 56 294 181 
71 9 221 128 114 380 78 268 326 261 220 
72 9 228 309 311 198 92 381 130 321 359 
73 9 363 364 135 97 337 171 55 269 352 
74 9 32 28 22 19 306 82 335 211 373 
75 9 264 121 167 356 214 158 234 299 80 
76 9 305 149 87 224 56 370 154 294 257 
77 9 137 397 235 369 195 155 307 400 173 
78 9 220 261 114 268 93 348 281 71 380 
79 9 21 384 177 215 308 42 111 361 244 
80 9 4 151 158 307 356 140 173 264 400 
81 9 340 377 319 383 257 277 254 105 87 
82 9 22 306 60 19 344 74 32 312 119 
83 9 125 169 247 27 283 225 202 278 99 
84 9 170 23 61 199 148 145 203 212 140 
85 9 339 107 106 113 374 399 246 55 171 
86 9 288 152 339 242 107 58 85 106 113 
87 9 305 224 76 257 62 294 149 319 383 
88 9 6 394 68 368 348 93 232 350 7 
89 9 233 255 31 178 240 377 340 81 277 
90 9 16 221 223 380 71 326 116 13 114 
91 9 99 108 282 321 381 169 318 341 283 
92 9 198 311 72 194 228 309 165 290 128 
93 9 281 348 368 232 261 220 68 78 88 
94 9 338 208 362 343 254 131 105 390 142 
95 9 15 375 115 42 35 215 222 129 275 
96 9 354 247 388 263 127 10 303 169 125 
97 9 363 73 337 36 364 135 269 11 3 
98 9 323 200 176 379 320 398 63 358 295 
99 9 91 108 282 169 381 321 318 283 341 
100 9 386 47 271 391 346 328 18 124 126 
101 9 219 293 302 67 272 345 112 133 336 
102 9 65 111 141 199 170 84 164 244 61 
103 9 267 216 157 327 304 146 301 34 230 
104 9 191 44 2 57 189 349 238 358 360 
105 9 208 390 257 383 294 319 276 254 70 
106 9 113 399 107 190 55 85 269 171 374 
107 9 106 85 113 190 399 339 55 26 288 
108 9 91 99 282 321 341 318 381 130 231 
109 9 244 308 164 384 21 226 50 111 184 
110 9 296 64 17 333 205 353 385 132 180 
111 9 102 65 164 141 244 199 79 21 308 
112 9 253 345 101 116 302 219 293 67 272 
113 9 106 399 55 190 269 171 107 85 374 
114 9 78 220 261 380 268 71 348 93 221 
115 9 375 95 275 119 9 15 35 42 129 
116 9 345 380 112 302 293 101 253 90 114 
117 9 166 274 139 138 63 66 379 320 200 
118 8 248 279 239 206 134 260 197 266 
119 9 275 312 344 136 115 9 395 376 49 
120 9 243 53 246 202 143 225 374 125 352 
121 9 167 75 264 214 234 299 356 46 158 
122 9 40 14 46 148 75 145 121 51 234 
123 9 342 396 142 378 209 227 372 310 343 
124 9 346 271 325 193 386 47 252 100 187 
125 9 83 247 303 169 96 225 202 27 283 
126 9 174 328 391 18 100 287 47 386 346 
127 9 229 256 263 354 10 41 96 325 196 
128 9 326 71 221 13 175 194 268 250 290 
129 9 155 35 222 137 204 77 397 369 235 
130 9 341 321 231 318 228 72 331 282 108 
131 9 338 182 298 273 94 254 277 240 208 
132 9 37 181 161 251 159 249 56 333 180 
133 9 67 68 293 302 336 394 272 368 7 
134 9 239 206 38 260 262 347 324 270 118 
135 9 364 73 337 352 363 171 11 25 97 
136 9 312 344 160 376 119 265 49 59 156 
137 9 77 397 235 369 155 195 307 324 400 
138 9 274 139 117 166 63 226 320 66 284 
139 9 274 138 117 166 63 284 320 379 66 
140 9 203 212 151 80 4 236 173 264 148 
141 9 65 102 111 164 199 170 244 84 308 
142 9 396 342 123 310 378 343 227 362 209 
143 9 246 53 374 352 171 202 225 364 135 
144 9 218 334 179 316 304 301 34 216 157 
145 9 23 61 51 148 84 170 69 122 14 
146 9 230 360 238 295 327 349 358 398 301 
147 9 34 157 103 267 304 216 316 179 237 
148 9 203 212 23 61 145 84 140 122 75 
149 9 56 305 76 181 154 70 313 294 37 
150 8 259 273 240 182 178 392 298 131 
151 9 4 80 173 400 140 307 158 236 356 
152 9 86 288 58 339 242 85 107 106 113 
153 9 357 9 213 395 393 129 275 30 375 
154 9 370 159 355 385 149 56 181 300 132 
155 9 129 137 204 397 77 35 369 324 222 
156 9 59 162 265 168 351 49 185 160 172 
157 9 34 304 216 316 267 103 147 301 327 
158 9 356 307 80 4 299 264 151 75 214 
159 9 385 154 132 355 37 181 370 56 149 
160 9 265 382 185 59 376 136 156 331 312 
161 9 251 37 249 132 180 5 181 333 188 
162 9 49 172 168 156 54 8 59 351 30 
163 9 36 269 190 55 97 399 363 73 8 
164 9 244 308 111 384 65 21 141 102 79 
165 9 24 198 311 389 252 33 196 193 92 
166 9 117 66 63 139 379 200 274 320 176 
167 9 121 234 214 75 264 299 270 46 315 
168 9 172 8 162 351 241 156 49 52 54 
169 9 83 247 388 99 125 91 27 283 96 
170 9 199 84 61 23 102 145 148 69 203 
171 9 364 73 135 55 363 399 337 352 143 
172 9 162 168 54 49 8 30 156 351 395 
173 9 400 151 4 236 361 235 195 80 307 
174 9 126 328 391 18 47 100 287 386 41 
175 9 389 268 128 252 261 71 165 78 281 
176 9 98 200 323 379 358 398 295 320 66 
177 9 361 236 195 400 215 173 79 222 235 
178 9 150 89 210 233 292 240 31 392 273 
179 9 334 144 218 316 34 304 157 301 216 
180 9 251 372 333 205 227 161 249 209 132 
181 9 37 56 132 249 161 188 313 5 70 
182 9 273 298 131 310 338 240 94 142 396 
183 9 45 287 39 328 186 126 100 174 245 
184 9 280 50 297 322 284 237 320 398 323 
185 9 265 382 59 160 156 231 331 318 130 
186 9 39 245 187 6 350 88 271 45 232 
187 9 271 186 291 386 245 232 100 124 6 
188 9 5 313 249 70 276 181 161 37 56 
189 9 2 57 191 104 349 44 238 358 295 
190 9 269 399 55 163 106 113 36 107 171 
191 9 104 44 2 57 189 349 238 358 360 
192 9 351 52 241 282 330 318 231 156 341 
193 9 252 196 389 124 24 256 325 346 165 
194 9 290 13 43 250 326 92 128 365 359 
195 9 361 400 235 173 77 177 137 236 397 
196 9 256 24 193 252 33 165 367 229 263 
197 9 266 378 310 248 342 396 123 142 289 
198 9 311 92 309 72 165 228 24 33 194 
199 9 170 84 102 61 23 65 145 148 111 
200 9 379 98 176 323 320 66 63 398 358 
201 9 317 29 387 314 353 296 17 258 64 
202 9 225 53 143 352 27 278 283 120 246 
203 9 212 140 148 80 151 264 4 75 236 
204 9 324 262 155 369 397 137 77 129 38 
205 9 333 180 372 209 251 227 161 132 37 
206 9 134 239 262 38 118 260 324 204 347 
207 9 300 20 286 355 370 258 48 154 314 
208 9 105 383 390 94 254 319 276 257 294 
209 9 205 123 342 372 227 180 396 333 378 
210 9 292 14 51 178 69 145 122 40 392 
211 9 335 373 16 223 90 253 116 112 28 
212 9 203 140 148 80 264 75 151 4 356 
213 9 393 30 163 54 8 395 172 36 168 
214 9 299 167 121 234 347 356 75 264 158 
215 9 222 42 35 177 195 361 15 79 137 
216 9 304 327 301 267 316 103 157 34 146 
217 9 392 40 315 46 270 234 122 167 121 
218 9 144 334 316 179 304 301 327 216 34 
219 9 101 293 67 272 302 133 345 336 7 
220 9 78 261 114 268 93 348 281 368 68 
221 9 71 128 326 380 90 114 13 16 78 
222 9 35 215 195 42 129 137 77 155 361 
223 9 16 90 250 13 326 43 221 365 71 
224 9 62 87 76 305 149 257 294 319 56 
225 9 202 53 27 352 278 283 143 83 25 
226 9 109 139 50 274 138 284 184 280 63 
227 9 372 180 251 343 161 362 205 209 249 
228 9 72 130 309 359 321 311 92 198 341 
229 9 127 256 325 263 196 41 193 47 346 
230 9 146 360 398 295 238 358 349 327 57 
231 9 318 341 130 321 282 185 331 192 108 
232 9 281 291 93 348 88 368 261 6 68 
233 9 89 255 31 377 240 340 81 277 254 
234 9 167 121 270 315 46 214 75 299 264 
235 9 77 137 397 195 173 400 307 369 4 
236 9 400 173 361 151 177 140 4 195 80 
237 9 280 297 322 184 103 267 147 50 157 
238 9 349 295 358 360 57 2 189 146 191 
239 9 134 260 206 38 118 262 347 270 324 
240 9 31 131 277 338 273 254 182 298 377 
241 9 52 351 168 8 192 330 97 3 11 
242 9 288 86 26 107 152 12 85 339 106 
243 9 120 53 246 202 143 225 374 125 303 
244 9 164 308 384 21 111 109 79 65 141 
245 9 186 39 350 6 88 187 394 7 232 
246 9 374 143 53 120 202 171 225 352 243 
247 9 96 125 169 83 303 354 388 263 10 
248 8 266 197 118 310 378 259 289 342 
249 9 5 188 313 161 70 37 251 181 276 
250 9 43 13 290 194 326 365 223 128 221 
251 9 161 180 372 333 249 227 37 132 205 
252 9 389 193 124 196 165 175 24 346 291 
253 9 112 345 116 101 302 219 293 67 373 
254 9 277 338 208 383 94 105 319 377 131 
255 9 233 81 340 377 31 89 277 319 383 
256 9 196 229 263 127 24 193 325 367 33 
257 9 294 105 319 390 383 208 276 305 87 
258 9 314 20 207 300 387 48 286 317 355 
259 8 248 217 260 273 150 182 266 392 
260 8 239 134 270 315 38 234 347 206 
261 9 220 78 268 93 114 281 348 368 232 
262 9 324 204 38 369 347 397 155 77 137 
263 9 388 256 367 127 229 33 196 24 96 
264 9 75 121 356 167 158 80 214 299 212 
265 9 185 59 160 382 156 331 231 376 162 
266 9 197 248 310 378 396 342 123 142 298 
267 9 103 216 327 157 304 146 301 34 230 
268 9 261 78 220 114 281 93 71 175 348 
269 9 55 399 190 163 36 73 363 97 171 
270 9 234 315 167 214 46 121 299 347 260 
271 9 386 187 124 346 100 47 291 325 193 
272 9 67 219 336 293 7 101 133 302 394 
273 9 182 298 131 338 240 310 94 142 266 
274 9 139 138 117 166 63 320 284 66 379 
275 9 119 9 115 312 136 395 344 54 49 
276 9 390 70 313 188 294 5 249 105 362 
277 9 254 338 377 31 383 131 208 240 94 
278 9 283 27 25 3 11 330 352 225 135 
279 9 329 118 366 12 289 353 248 197 17 
280 9 184 50 297 322 284 237 398 320 103 
281 9 93 232 348 261 291 220 268 368 78 
282 9 108 318 91 341 99 321 231 192 130 
283 9 27 278 25 225 3 11 83 330 202 
284 9 320 322 297 50 63 184 280 323 98 
285 9 10 41 354 127 229 96 18 391 303 
286 9 207 300 370 355 48 154 20 76 159 
287 9 183 328 126 45 100 174 386 39 186 
288 9 86 152 242 107 339 85 58 106 26 
289 9 366 209 378 197 64 205 17 353 123 
290 9 194 43 250 13 365 326 359 92 128 
291 9 232 281 93 187 348 88 261 268 368 
292 9 14 210 51 122 40 392 145 217 46 
293 9 302 67 101 219 272 133 345 336 7 
294 9 390 276 257 70 105 313 188 208 5 
295 9 358 238 349 360 398 57 230 146 176 
296 9 17 64 110 353 29 333 205 385 366 
297 9 322 184 280 284 50 398 230 103 237 
298 9 182 273 131 310 338 142 94 396 342 
299 9 214 347 356 158 167 121 264 307 75 
300 9 207 355 20 370 286 154 385 159 258 
301 9 327 304 216 316 146 267 218 103 157 
302 9 293 101 67 345 219 133 272 112 116 
303 9 125 247 96 354 83 10 169 388 285 
304 9 316 216 301 327 34 157 267 103 218 
305 9 76 87 149 257 294 224 56 390 70 
306 9 22 60 19 82 32 332 371 376 344 
307 9 158 356 4 80 151 235 299 369 173 
308 9 384 244 164 21 79 111 109 65 102 
309 9 311 72 198 381 33 228 367 92 24 
310 9 378 142 396 342 266 298 123 197 182 
311 9 198 309 92 72 165 33 228 24 367 
312 9 344 136 119 376 160 275 265 60 382 
313 9 70 188 5 276 249 56 181 390 294 
314 9 258 20 207 387 300 317 48 355 201 
315 9 46 270 234 167 121 217 214 40 392 
316 9 304 301 216 334 218 34 327 157 179 
317 9 387 201 29 314 258 20 296 353 17 
318 9 341 231 282 321 130 108 192 91 99 
319 9 383 257 105 208 254 294 390 377 340 
320 9 379 63 200 98 323 176 398 66 284 
321 9 341 130 318 108 231 282 228 381 91 
322 9 297 184 280 284 50 398 230 323 103 
323 9 98 176 200 379 320 398 358 295 63 
324 9 262 204 369 38 397 347 77 137 155 
325 9 346 47 124 229 18 256 193 391 196 
326 9 13 128 250 221 71 194 43 290 90 
327 9 301 216 304 146 316 267 103 360 230 
328 9 126 174 287 391 100 18 386 47 183 
329 9 12 279 353 366 242 118 289 17 29 
330 9 3 11 25 278 52 337 192 241 283 
331 9 382 359 130 185 231 265 228 341 160 
332 9 371 365 376 43 331 359 19 60 250 
333 9 205 180 251 161 372 227 132 209 37 
334 9 179 144 218 316 304 34 301 157 216 
335 9 211 373 16 223 253 90 116 112 28 
336 9 7 272 67 394 133 68 293 219 368 
337 9 363 135 73 97 11 364 3 25 352 
338 9 131 94 254 277 208 298 182 240 105 
339 9 85 107 58 86 374 106 152 288 113 
340 9 81 377 319 383 277 254 257 105 208 
341 9 321 318 130 231 282 108 228 91 99 
342 9 123 396 142 378 209 310 227 372 343 
343 9 362 227 94 372 5 142 188 276 123 
344 9 312 136 119 376 160 60 275 265 382 
345 9 302 112 116 101 293 219 67 253 133 
346 9 124 47 325 386 271 100 193 391 18 
347 9 299 38 214 158 167 356 324 307 121 
348 9 93 368 68 281 220 394 261 88 232 
349 9 238 358 57 295 360 2 189 191 104 
350 9 6 245 7 88 336 394 68 368 186 
351 9 241 52 168 192 156 8 162 59 172 
352 9 135 25 364 11 3 337 278 73 143 
353 9 17 64 296 110 366 29 289 205 333 
354 9 96 10 127 247 263 303 388 229 285 
355 9 370 154 300 159 385 207 20 286 149 
356 9 158 264 307 80 299 75 4 214 121 
357 9 153 213 393 9 26 30 395 206 54 
358 9 295 349 238 57 360 398 176 189 2 
359 9 228 290 194 331 72 43 365 92 130 
360 9 238 295 146 349 358 230 57 398 191 
361 9 195 400 177 173 236 235 151 4 215 
362 9 343 227 5 94 276 188 372 249 70 
363 9 97 73 337 364 135 36 171 11 269 
364 9 135 73 171 337 363 352 97 55 11 
365 9 43 250 290 13 194 359 223 326 371 
366 9 289 353 64 17 209 197 279 378 205 
367 9 33 24 263 381 309 196 256 388 165 
368 9 68 348 394 93 88 133 281 220 232 
369 9 397 77 324 137 235 307 204 262 158 
370 9 154 355 159 300 385 149 286 207 56 
371 9 332 365 43 19 223 250 290 13 359 
372 9 227 180 251 205 161 333 209 249 343 
373 9 335 211 253 112 116 28 16 345 90 
374 9 246 143 85 171 113 53 120 106 339 
375 9 115 95 15 35 129 42 9 222 275 
376 9 160 382 344 265 312 136 185 332 331 
377 9 340 81 277 383 319 254 31 208 105 
378 9 342 396 123 197 310 142 209 266 289 
379 9 200 98 320 323 176 63 66 398 358 
380 9 114 71 221 116 78 90 220 261 16 
381 9 309 367 33 108 72 321 91 99 311 
382 9 185 265 160 331 59 376 231 156 130 
383 9 319 105 208 257 254 377 390 294 277 
384 9 308 21 244 79 164 111 109 177 42 
385 9 159 154 355 132 370 37 181 300 56 
386 9 100 271 346 47 124 391 187 18 328 
387 9 317 201 314 29 258 20 296 207 17 
388 9 263 96 169 367 247 33 381 354 127 
389 9 252 175 193 165 291 124 196 24 268 
390 9 276 294 105 70 313 208 257 188 5 
391 9 18 47 174 126 100 328 386 346 325 
392 9 217 40 46 315 122 270 234 14 167 
393 9 213 30 163 54 8 172 395 36 168 
394 9 68 368 88 7 336 348 133 6 93 
395 9 54 30 49 172 162 393 213 168 8 
396 9 342 123 142 378 310 209 227 343 372 
397 9 77 137 369 235 155 195 307 324 204 
398 9 295 323 98 230 358 176 238 360 349 
399 9 55 113 269 106 190 171 73 364 163 
400 9 173 361 236 151 195 4 235 80 307 
DEPOT_SECTION
   1
   -1
EOF
