NAME :  X-n411-kX-w164-c9.cctp
COMMENT : 	Adapted by Maziero, Usberti and Cavellucci from the Uchoa, Pecin, Pessoa, Poggi, Subramanian, and Vidal (2013)
TYPE :  CCTP
DIMENSION :    411
EDGE_WEIGHT_TYPE : 	EUC_2D	
CAPACITY : 	216
VERTICES_WITHIN_COVERAGE :  9
VERTICES_WITH_DEMAND : 	164
NODE_COORD_SECTION
1 175 821
2 62 495
3 662 959
4 109 216
5 156 748
6 178 957
7 120 571
8 75 480
9 44 98
10 386 1000
11 96 465
12 98 796
13 213 642
14 642 977
15 629 893
16 36 124
17 155 172
18 6 367
19 39 198
20 40 311
21 649 801
22 208 367
23 237 944
24 282 313
25 114 684
26 69 168
27 23 553
28 137 467
29 244 971
30 86 456
31 125 681
32 77 398
33 128 820
34 166 804
35 657 959
36 160 172
37 674 882
38 255 944
39 709 691
40 167 720
41 187 995
42 246 707
43 95 518
44 44 264
45 262 940
46 739 987
47 210 586
48 240 994
49 199 564
50 108 491
51 832 933
52 715 874
53 130 426
54 518 749
55 90 209
56 760 925
57 118 92
58 72 270
59 606 976
60 129 975
61 157 787
62 626 857
63 169 712
64 105 710
65 105 233
66 65 322
67 685 804
68 215 664
69 211 996
70 336 887
71 728 533
72 649 836
73 93 905
74 143 894
75 47 136
76 198 125
77 707 977
78 682 937
79 17 858
80 370 512
81 222 825
82 55 388
83 182 905
84 41 510
85 128 221
86 266 796
87 349 821
88 108 777
89 98 842
90 225 528
91 140 920
92 132 465
93 132 478
94 126 754
95 144 476
96 138 981
97 127 302
98 163 937
99 11 794
100 663 942
101 138 464
102 27 134
103 213 819
104 150 746
105 184 760
106 122 579
107 180 670
108 166 955
109 111 284
110 222 859
111 104 951
112 162 968
113 73 394
114 620 899
115 193 257
116 52 737
117 655 914
118 110 440
119 232 648
120 645 922
121 204 708
122 52 512
123 161 887
124 46 259
125 151 777
126 191 999
127 125 766
128 247 686
129 68 464
130 5 393
131 696 937
132 642 902
133 86 905
134 132 600
135 115 788
136 126 801
137 58 479
138 637 926
139 147 765
140 145 772
141 592 971
142 58 195
143 236 969
144 729 986
145 204 931
146 731 958
147 616 999
148 234 458
149 0 48
150 138 215
151 82 268
152 661 893
153 828 769
154 587 942
155 631 978
156 64 297
157 257 671
158 158 185
159 190 183
160 127 166
161 75 564
162 26 818
163 157 888
164 97 174
165 53 210
166 255 551
167 93 135
168 303 976
169 139 824
170 144 824
171 166 971
172 23 468
173 195 983
174 73 379
175 182 177
176 118 595
177 192 702
178 355 701
179 63 190
180 164 489
181 228 918
182 746 859
183 190 958
184 162 797
185 587 963
186 113 97
187 119 363
188 82 200
189 93 167
190 679 707
191 139 264
192 164 569
193 751 803
194 22 100
195 143 744
196 217 890
197 55 196
198 792 923
199 226 907
200 584 877
201 786 815
202 139 121
203 179 742
204 749 909
205 198 934
206 252 809
207 70 115
208 309 976
209 191 915
210 333 77
211 82 928
212 78 497
213 11 624
214 642 915
215 71 75
216 547 981
217 271 936
218 662 981
219 214 918
220 677 991
221 8 272
222 492 817
223 49 230
224 109 241
225 33 514
226 130 276
227 178 969
228 309 966
229 100 444
230 27 507
231 702 937
232 255 943
233 123 135
234 88 408
235 124 772
236 648 973
237 662 952
238 233 834
239 280 828
240 150 753
241 70 339
242 120 919
243 572 980
244 135 814
245 3 464
246 38 618
247 76 755
248 34 399
249 88 671
250 23 336
251 201 544
252 733 850
253 38 527
254 46 502
255 686 952
256 653 958
257 770 920
258 158 769
259 211 709
260 96 761
261 190 120
262 515 841
263 107 915
264 187 932
265 34 241
266 101 968
267 228 938
268 152 397
269 163 188
270 843 942
271 208 922
272 166 931
273 455 984
274 606 962
275 553 894
276 343 894
277 223 717
278 142 957
279 693 899
280 118 725
281 353 838
282 52 328
283 14 295
284 771 850
285 151 231
286 203 330
287 79 391
288 151 387
289 97 308
290 284 14
291 159 932
292 261 204
293 60 570
294 91 607
295 14 532
296 182 728
297 204 978
298 741 786
299 119 191
300 118 904
301 146 583
302 164 263
303 50 718
304 56 420
305 50 493
306 267 934
307 740 904
308 23 212
309 42 967
310 611 889
311 236 932
312 427 892
313 9 509
314 169 271
315 197 741
316 199 789
317 82 610
318 123 468
319 70 729
320 63 443
321 142 539
322 196 229
323 602 561
324 650 992
325 663 947
326 73 790
327 135 782
328 556 1000
329 196 361
330 240 972
331 42 552
332 72 256
333 271 641
334 69 193
335 138 389
336 140 486
337 173 996
338 138 797
339 10 520
340 297 643
341 92 946
342 104 549
343 290 691
344 213 479
345 131 996
346 233 702
347 82 351
348 177 923
349 118 903
350 69 740
351 59 163
352 48 503
353 14 424
354 147 277
355 170 717
356 129 792
357 719 946
358 176 497
359 245 503
360 174 535
361 167 891
362 668 911
363 236 621
364 197 529
365 152 714
366 585 950
367 587 930
368 182 640
369 219 944
370 98 706
371 278 544
372 216 873
373 76 744
374 189 251
375 138 183
376 12 916
377 150 954
378 20 596
379 178 189
380 144 219
381 643 943
382 728 986
383 125 874
384 158 198
385 181 289
386 215 625
387 107 321
388 571 920
389 110 461
390 101 592
391 96 684
392 579 816
393 645 947
394 777 894
395 806 973
396 118 790
397 195 927
398 157 944
399 235 784
400 256 895
401 15 431
402 233 962
403 793 774
404 127 185
405 704 965
406 234 634
407 664 948
408 29 604
409 278 697
410 686 985
411 151 795
DEMAND_SECTION
2 95
3 58
4 80
5 97
6 100
7 64
8 63
9 86
10 61
11 62
12 56
13 74
14 78
15 78
16 91
17 85
18 69
19 89
20 83
21 60
22 51
23 55
24 57
25 83
26 67
27 89
28 6
29 1
30 1
31 7
32 2
33 1
34 4
35 6
36 3
37 10
38 5
39 10
40 1
41 7
42 10
43 6
44 8
45 4
46 5
47 4
48 4
49 3
50 10
51 7
52 10
53 9
54 4
55 3
56 7
57 4
58 2
59 9
60 3
61 4
62 8
63 2
64 9
65 3
66 1
67 5
68 3
69 8
70 7
71 1
72 3
73 7
74 10
75 1
76 7
77 7
78 2
79 2
80 3
81 6
82 8
83 3
84 7
85 5
86 5
87 8
88 6
89 3
90 4
91 3
92 5
93 2
94 5
95 7
96 1
97 2
98 2
99 3
100 8
101 8
102 9
103 8
104 1
105 1
106 5
107 9
108 3
109 7
110 9
111 1
112 9
113 9
114 2
115 9
116 1
117 4
118 8
119 2
120 3
121 8
122 3
123 2
124 5
125 9
126 3
127 6
128 2
129 3
130 9
131 2
132 2
133 1
134 2
135 3
136 7
137 2
138 7
139 4
140 8
141 6
142 8
143 5
144 4
145 3
146 4
147 6
148 5
149 7
150 3
151 5
152 9
153 10
154 9
155 9
156 5
157 5
158 5
159 1
160 2
161 7
162 6
163 4
164 6
165 1
COVERAGE_SECTION
2 9 305 137 212 352 254 8 122 84 129 
3 9 35 237 256 407 325 100 236 393 218 
4 9 65 55 85 224 299 150 188 380 404 
5 9 104 240 195 139 258 203 140 125 40 
6 9 108 183 227 171 112 98 398 264 377 
7 9 106 176 342 390 301 134 321 192 161 
8 9 129 137 212 2 11 30 305 50 352 
9 9 194 16 207 215 75 102 167 149 351 
10 9 273 208 228 168 276 312 70 217 306 
11 9 30 389 229 8 318 129 50 118 92 
12 9 135 88 396 326 136 356 235 260 33 
13 9 386 119 68 406 363 368 107 157 47 
14 9 236 155 324 218 256 35 3 393 237 
15 9 114 132 310 214 152 117 120 138 62 
16 9 102 75 9 194 207 351 26 167 215 
17 9 36 158 269 375 384 175 160 379 404 
18 9 130 250 248 82 353 282 401 20 174 
19 9 197 165 142 308 179 334 223 351 26 
20 9 282 66 156 250 283 241 44 221 58 
21 9 72 67 62 392 37 152 298 15 310 
22 9 329 286 288 268 335 385 187 24 148 
23 9 267 311 38 232 369 402 45 143 29 
24 9 286 22 329 385 115 292 374 322 314 
25 9 31 391 370 64 249 280 365 63 319 
26 9 351 179 189 334 142 164 197 188 75 
27 9 331 295 253 339 225 293 378 230 313 
28 9 101 92 95 93 318 336 389 180 50 
29 9 330 143 402 48 23 38 232 45 267 
30 9 11 229 129 389 8 320 118 137 318 
31 9 25 391 64 370 249 365 280 63 107 
32 9 113 287 234 174 82 304 248 320 347 
33 9 244 169 170 136 338 356 396 411 135 
34 9 184 411 61 338 170 125 244 169 258 
35 9 256 3 237 325 407 236 393 100 381 
36 9 17 158 269 175 375 379 384 159 160 
37 9 152 279 362 117 132 52 15 214 120 
38 9 232 45 306 23 217 311 267 402 29 
39 9 190 298 67 403 193 21 153 201 72 
40 9 355 63 365 296 203 5 104 177 195 
41 9 126 173 337 69 297 227 171 112 183 
42 9 346 128 277 409 259 157 121 343 68 
43 9 212 50 342 2 8 122 352 161 305 
44 9 124 265 58 332 223 221 151 156 283 
45 9 38 232 306 217 23 311 267 29 402 
46 9 144 382 146 77 405 357 410 220 231 
47 9 49 386 251 363 192 406 13 166 364 
48 9 330 29 143 69 402 297 173 126 23 
49 9 251 47 192 364 360 90 301 166 321 
50 9 93 318 11 43 389 212 336 8 92 
51 9 270 198 395 257 394 56 204 307 284 
52 9 252 279 182 307 37 204 152 362 284 
53 9 118 229 268 335 92 101 389 28 318 
54 9 222 392 262 21 200 275 62 72 190 
55 9 188 4 334 65 179 299 142 164 165 
56 9 257 204 307 198 394 146 357 231 46 
57 9 186 202 233 167 215 207 9 160 261 
58 9 151 332 124 156 44 109 289 223 224 
59 9 274 141 185 147 155 366 243 14 154 
60 9 96 345 278 266 377 112 111 171 108 
61 9 411 184 125 258 34 140 338 327 139 
62 9 72 310 15 114 200 132 152 37 214 
63 9 355 40 365 296 177 203 121 5 104 
64 9 370 280 25 391 31 319 249 373 350 
65 9 224 4 85 55 150 188 332 380 151 
66 9 282 241 156 20 347 289 387 250 58 
67 9 21 72 298 193 252 52 37 62 182 
68 9 13 119 107 406 128 386 368 346 157 
69 9 297 126 173 41 48 143 330 337 402 
70 9 276 281 87 400 217 239 228 306 45 
71 9 323 39 190 403 298 153 193 67 21 
72 9 62 21 67 37 152 15 310 132 114 
73 9 133 263 211 300 349 242 341 383 111 
74 9 163 123 361 91 300 349 383 242 83 
75 9 16 102 351 207 9 26 194 167 189 
76 9 261 175 159 202 36 17 379 158 269 
77 9 405 410 382 144 146 220 255 357 46 
78 9 131 255 100 231 325 407 237 3 362 
79 9 162 376 99 89 133 326 73 211 12 
80 9 371 166 359 90 148 340 344 333 251 
81 9 103 238 110 206 316 399 372 86 239 
82 9 113 174 32 248 287 304 234 347 130 
83 9 209 348 361 397 264 123 163 271 272 
84 9 225 254 352 122 230 253 305 2 313 
85 9 150 380 4 285 65 224 299 404 384 
86 9 206 399 239 238 81 103 316 110 87 
87 9 281 70 239 276 86 206 312 238 400 
88 9 135 396 235 127 260 12 356 327 94 
89 9 33 383 169 12 244 170 136 396 135 
90 9 364 251 359 166 49 344 360 371 358 
91 9 242 291 74 300 272 349 98 398 263 
92 9 28 101 318 93 95 336 389 118 50 
93 9 336 28 95 92 318 101 50 389 180 
94 9 127 235 195 139 240 104 140 88 327 
95 9 28 336 93 101 92 318 180 389 358 
96 9 60 345 278 112 171 377 108 337 266 
97 9 109 226 387 289 354 191 314 302 151 
98 9 291 272 398 108 348 377 6 264 91 
99 9 162 326 79 116 247 350 373 303 12 
100 9 325 407 237 3 35 256 393 78 381 
101 9 28 92 95 93 318 336 389 180 118 
102 9 16 75 194 9 351 207 26 19 167 
103 9 81 238 316 206 110 399 34 372 184 
104 9 5 195 240 139 258 94 140 203 40 
105 9 203 315 258 5 296 316 240 104 125 
106 9 7 176 134 301 390 342 294 192 321 
107 9 368 177 68 13 63 121 355 259 40 
108 9 6 112 398 171 377 98 227 183 272 
109 9 226 97 289 151 191 354 387 58 224 
110 9 372 238 196 81 103 199 400 206 181 
111 9 341 266 211 60 242 263 278 96 377 
112 9 171 108 227 377 6 278 398 96 183 
113 9 32 287 174 82 234 304 248 347 320 
114 9 15 310 132 214 138 120 117 152 62 
115 9 374 314 322 302 385 285 354 191 380 
116 9 350 303 319 373 247 260 370 326 64 
117 9 120 214 362 132 138 152 100 381 15 
118 9 229 389 53 11 30 318 92 101 28 
119 9 406 13 68 363 386 157 333 128 368 
120 9 214 138 117 132 381 362 393 100 325 
121 9 259 177 277 296 346 315 63 355 40 
122 9 352 84 254 225 305 2 253 230 212 
123 9 163 361 74 83 383 91 348 209 272 
124 9 44 265 332 58 223 151 221 156 283 
125 9 140 258 61 139 327 411 184 240 338 
126 9 41 173 337 69 297 227 171 183 112 
127 9 235 94 327 88 140 139 135 396 356 
128 9 157 42 346 409 68 277 119 259 343 
129 9 8 137 30 320 11 2 212 305 229 
130 9 18 248 353 401 82 304 250 113 174 
131 9 231 78 255 357 405 100 325 407 237 
132 9 214 15 117 120 152 114 138 362 310 
133 9 73 211 263 300 349 242 341 111 383 
134 9 176 301 106 7 390 294 192 317 342 
135 9 396 88 356 136 235 12 327 127 338 
136 9 356 338 396 244 135 33 327 169 411 
137 9 2 305 8 129 254 352 212 122 84 
138 9 120 214 381 117 393 132 100 114 325 
139 9 140 240 258 125 5 104 195 327 127 
140 9 139 125 258 327 61 240 127 235 411 
141 9 185 59 274 243 366 154 147 155 367 
142 9 197 179 334 165 19 188 26 351 55 
143 9 330 29 402 23 48 369 38 232 267 
144 9 382 46 77 146 405 357 410 220 255 
145 9 205 271 397 219 264 369 209 267 181 
146 9 357 144 382 405 46 77 231 131 56 
147 9 59 155 14 324 141 274 236 185 243 
148 9 344 359 358 90 180 364 95 251 22 
149 9 194 9 215 16 102 207 75 186 57 
150 9 380 85 285 384 4 299 375 404 158 
151 9 58 332 109 156 124 44 224 65 289 
152 9 37 362 132 117 214 15 120 279 114 
153 9 403 201 193 298 284 182 252 394 39 
154 9 366 367 185 388 274 141 59 243 138 
155 9 14 236 324 59 147 256 274 218 35 
156 9 66 20 58 282 151 289 44 124 241 
157 9 128 333 409 119 42 343 346 68 406 
158 9 269 17 36 384 375 379 175 404 159 
159 9 175 379 269 36 158 384 17 322 375 
160 9 404 375 299 17 164 233 36 189 158 
161 9 293 342 331 390 7 294 317 106 43 
162 9 99 79 326 12 89 247 116 350 373 
163 9 123 361 74 83 383 91 348 300 349 
164 9 189 299 26 188 160 404 334 55 179 
165 9 197 142 19 223 179 334 308 188 265 
166 9 371 90 359 251 47 49 364 363 344 
167 9 207 233 189 164 26 186 351 75 160 
168 9 208 228 217 45 306 38 232 29 330 
169 9 170 244 33 136 338 411 34 356 184 
170 9 169 244 33 338 136 34 411 184 356 
171 9 112 227 108 6 377 337 183 278 398 
172 9 245 137 305 401 230 254 313 352 129 
173 9 297 41 126 69 227 183 337 6 171 
174 9 287 113 32 82 347 234 241 248 304 
175 9 159 379 269 36 158 17 384 375 76 
176 9 134 106 390 7 294 301 317 342 161 
177 9 121 259 63 355 296 40 107 277 315 
178 9 343 409 340 157 333 42 128 87 346 
179 9 142 334 197 188 165 26 19 351 55 
180 9 358 95 336 93 28 101 92 318 360 
181 9 199 219 311 267 271 145 23 369 196 
182 9 252 284 52 307 394 204 193 201 257 
183 9 6 227 108 297 173 205 264 171 112 
184 9 34 61 411 125 338 258 140 327 170 
185 9 141 366 274 154 59 243 367 216 147 
186 9 57 202 233 167 207 215 9 160 189 
187 9 335 347 288 387 268 174 287 32 113 
188 9 55 334 179 142 197 164 4 165 26 
189 9 164 26 167 160 351 188 299 334 179 
190 9 39 67 21 298 193 72 403 392 201 
191 9 226 354 302 314 109 285 224 97 85 
192 9 301 49 360 321 106 7 134 251 47 
193 9 298 201 252 284 403 182 67 52 153 
194 9 9 16 102 75 207 215 149 351 167 
195 9 104 240 5 94 139 127 140 258 280 
196 9 372 199 219 181 110 271 209 83 400 
197 9 142 179 165 334 19 188 26 351 223 
198 9 257 56 394 51 204 395 270 307 146 
199 9 181 219 196 271 311 267 400 145 372 
200 9 310 275 114 388 62 15 367 392 132 
201 9 193 284 403 298 182 153 252 394 52 
202 9 233 186 57 160 167 261 17 36 76 
203 9 296 315 105 5 40 355 104 240 63 
204 9 307 56 257 394 198 357 52 182 146 
205 9 145 397 264 271 209 219 369 348 183 
206 9 86 399 238 81 239 103 316 110 372 
207 9 167 9 75 16 215 102 186 351 194 
208 9 168 228 217 45 306 38 232 29 330 
209 9 83 397 348 264 271 205 145 219 272 
210 9 290 76 292 261 159 175 379 36 202 
211 9 341 133 73 263 111 242 300 266 349 
212 9 2 8 43 137 305 122 50 352 254 
213 9 408 246 378 27 317 293 331 294 161 
214 9 120 138 117 132 15 362 114 381 152 
215 9 9 207 186 57 194 16 167 75 102 
216 9 328 243 185 141 366 154 59 274 367 
217 9 306 45 232 38 23 311 267 29 400 
218 9 236 324 220 14 3 35 410 256 237 
219 9 271 181 145 199 397 205 209 267 311 
220 9 410 218 324 77 236 3 405 14 35 
221 9 283 44 124 265 20 223 156 308 58 
222 9 262 54 392 275 312 200 388 310 62 
223 9 265 165 124 308 19 44 197 332 142 
224 9 65 4 85 55 151 191 150 332 226 
225 9 84 230 253 254 122 352 339 313 295 
226 9 191 354 109 97 302 314 224 289 151 
227 9 6 171 112 183 108 173 337 41 297 
228 9 208 168 217 306 45 38 232 29 330 
229 9 118 30 389 11 318 53 320 92 129 
230 9 225 84 313 254 339 352 253 122 305 
231 9 131 357 78 255 405 146 100 279 77 
232 9 38 45 306 217 23 311 267 402 29 
233 9 202 167 160 186 57 189 164 17 375 
234 9 32 287 113 174 304 229 82 118 320 
235 9 127 327 88 94 135 396 140 356 139 
236 9 14 218 256 35 155 324 3 237 393 
237 9 407 325 3 35 100 256 393 381 255 
238 9 81 103 110 206 372 239 86 399 316 
239 9 206 86 238 81 399 110 103 87 400 
240 9 104 5 195 139 258 140 94 125 127 
241 9 347 66 282 174 20 289 387 156 250 
242 9 263 300 349 91 73 74 111 133 211 
243 9 141 185 216 328 366 59 274 154 147 
244 9 33 169 170 136 338 356 411 396 184 
245 9 172 401 353 313 230 305 339 137 254 
246 9 408 213 378 317 293 294 161 331 27 
247 9 373 350 260 319 116 326 88 303 12 
248 9 82 130 304 353 401 113 18 32 174 
249 9 391 25 370 31 64 303 317 319 280 
250 9 20 282 18 283 66 241 156 130 82 
251 9 364 49 360 90 47 192 358 166 321 
252 9 182 52 284 193 307 204 394 279 201 
253 9 225 84 122 230 295 331 254 352 339 
254 9 352 84 305 122 2 225 230 137 253 
255 9 78 131 231 405 407 237 325 3 100 
256 9 35 3 237 393 325 407 236 381 100 
257 9 56 198 204 394 307 146 357 51 395 
258 9 125 139 140 61 240 5 104 327 411 
259 9 121 277 177 346 42 296 315 63 355 
260 9 88 247 373 127 235 94 135 350 12 
261 9 76 202 175 36 17 159 233 379 158 
262 9 222 275 392 200 54 388 312 310 62 
263 9 242 300 349 73 133 211 91 341 111 
264 9 397 205 348 145 209 272 271 98 183 
265 9 223 124 44 308 165 221 332 19 58 
266 9 111 341 60 96 345 278 211 377 242 
267 9 311 23 369 181 219 145 402 271 232 
268 9 288 335 53 187 329 118 22 234 101 
269 9 158 384 379 36 17 175 375 159 380 
270 9 51 395 198 257 394 56 204 307 46 
271 9 219 145 397 205 209 181 199 264 369 
272 9 98 291 348 398 264 108 91 377 6 
273 9 10 216 312 328 243 388 275 185 366 
274 9 59 141 185 366 154 155 367 147 243 
275 9 388 200 367 310 154 366 262 114 15 
276 9 70 281 87 228 217 312 306 400 208 
277 9 259 346 121 42 177 315 128 296 203 
278 9 377 398 60 112 96 108 171 98 291 
279 9 37 362 52 152 131 231 78 117 307 
280 9 64 370 94 195 365 104 25 127 260 
281 9 87 70 276 239 312 86 206 400 238 
282 9 66 20 241 250 156 347 289 283 174 
283 9 221 20 250 44 124 156 282 66 265 
284 9 182 201 252 394 193 52 307 204 257 
285 9 380 150 85 384 191 302 224 374 314 
286 9 329 22 385 314 115 288 354 302 374 
287 9 32 113 174 234 82 304 347 248 187 
288 9 268 335 187 53 329 22 234 118 287 
289 9 387 109 97 66 156 241 151 58 226 
290 9 210 76 261 202 57 186 292 175 159 
291 9 98 272 398 348 91 108 377 264 278 
292 9 322 159 175 379 115 374 269 76 384 
293 9 161 331 27 317 408 390 253 294 378 
294 9 317 390 176 106 134 7 161 293 246 
295 9 339 27 313 253 225 230 331 84 122 
296 9 203 355 40 315 63 177 121 105 5 
297 9 173 69 41 183 126 227 6 143 402 
298 9 193 403 201 67 252 284 182 153 52 
299 9 404 375 160 4 164 85 150 55 189 
300 9 349 242 263 73 74 91 383 133 163 
301 9 134 192 106 7 176 321 390 342 49 
302 9 314 354 191 374 115 385 285 226 322 
303 9 116 319 350 373 247 370 64 391 249 
304 9 320 32 248 113 82 234 287 353 401 
305 9 254 352 2 137 84 122 225 230 8 
306 9 217 45 232 38 311 23 267 400 181 
307 9 204 56 257 394 52 182 279 357 231 
308 9 19 165 265 223 197 142 179 334 124 
309 9 341 211 266 376 111 133 73 263 60 
310 9 114 15 200 132 62 214 138 120 367 
311 9 267 23 181 369 38 232 219 45 199 
312 9 276 70 281 273 222 262 87 10 275 
313 9 339 230 295 225 84 253 254 352 122 
314 9 302 385 354 115 374 191 226 285 322 
315 9 203 296 105 121 259 277 355 40 177 
316 9 103 105 34 399 184 61 81 258 315 
317 9 294 390 176 246 293 161 106 134 408 
318 9 92 93 28 389 101 95 336 11 50 
319 9 350 373 116 303 247 370 64 260 280 
320 9 129 304 30 137 229 8 11 234 32 
321 9 360 192 7 342 301 106 43 336 358 
322 9 374 115 379 285 159 302 384 314 269 
323 9 71 190 39 54 80 21 392 67 298 
324 9 218 14 236 155 220 35 256 3 147 
325 9 407 100 237 3 35 256 393 381 78 
326 9 12 247 88 260 135 396 373 350 136 
327 9 356 140 235 338 125 127 396 135 136 
328 9 216 243 141 185 59 366 147 274 154 
329 9 22 286 288 268 335 385 187 97 53 
330 9 29 143 402 48 23 38 232 369 267 
331 9 27 253 293 295 161 225 122 84 339 
332 9 58 151 124 44 223 65 224 265 156 
333 9 340 157 406 119 363 128 343 409 13 
334 9 179 142 197 188 165 26 55 19 351 
335 9 288 268 187 53 234 118 287 32 329 
336 9 93 95 28 92 101 180 318 50 358 
337 9 41 126 171 173 227 112 297 69 96 
338 9 356 136 411 327 244 61 396 125 184 
339 9 313 295 230 225 253 84 27 254 352 
340 9 333 157 343 409 406 119 363 128 42 
341 9 111 211 266 263 242 73 133 60 300 
342 9 7 43 161 106 321 390 176 293 301 
343 9 409 157 128 42 340 333 346 178 119 
344 9 148 359 358 90 180 364 251 360 95 
345 9 96 60 266 278 112 337 171 377 111 
346 9 42 277 128 259 121 157 177 68 409 
347 9 241 174 66 282 187 387 287 113 82 
348 9 264 272 209 397 83 98 291 205 145 
349 9 300 242 263 73 74 91 383 133 163 
350 9 373 319 116 247 303 260 370 64 326 
351 9 26 179 75 142 334 197 189 19 164 
352 9 254 84 122 305 2 225 230 137 253 
353 9 401 130 248 245 304 172 320 82 18 
354 9 191 226 302 314 97 385 109 285 374 
355 9 40 63 296 365 177 203 5 104 121 
356 9 136 338 396 327 135 235 411 244 88 
357 9 146 231 405 131 77 255 78 144 382 
358 9 180 95 336 360 364 344 93 28 101 
359 9 90 344 148 166 371 364 251 358 49 
360 9 364 251 321 192 49 358 180 90 301 
361 9 123 163 83 74 209 348 91 272 291 
362 9 117 152 120 214 132 279 37 78 100 
363 9 406 386 119 13 333 47 68 157 368 
364 9 251 360 90 49 358 180 192 344 359 
365 9 40 63 355 195 104 296 5 280 203 
366 9 154 185 367 141 274 59 243 388 216 
367 9 154 388 366 185 274 141 114 310 59 
368 9 107 13 386 68 119 406 363 47 177 
369 9 267 23 145 311 205 402 271 219 181 
370 9 64 391 25 280 249 319 31 373 350 
371 9 166 359 90 251 47 49 364 363 344 
372 9 110 196 199 238 219 400 83 181 81 
373 9 350 247 319 116 260 303 370 64 88 
374 9 115 322 302 314 385 285 354 191 380 
375 9 404 17 158 160 299 36 269 384 150 
376 9 79 309 211 133 73 341 263 111 162 
377 9 278 398 108 112 98 171 291 6 272 
378 9 408 246 213 27 293 331 161 295 317 
379 9 159 175 269 158 384 36 17 375 322 
380 9 150 285 85 384 4 269 375 158 299 
381 9 393 138 256 100 325 35 120 237 407 
382 9 144 46 77 146 405 357 410 220 255 
383 9 74 349 300 163 123 89 73 242 263 
384 9 269 158 379 375 380 17 36 150 175 
385 9 314 302 115 354 374 286 191 226 97 
386 9 13 363 406 119 368 47 68 107 333 
387 9 289 97 109 347 241 66 187 156 226 
388 9 367 154 275 366 200 185 310 114 141 
389 9 11 318 229 118 92 30 28 93 101 
390 9 176 294 106 317 7 134 161 342 301 
391 9 249 25 370 64 31 280 319 303 350 
392 9 200 62 262 21 72 310 275 222 54 
393 9 381 256 35 237 325 100 407 3 138 
394 9 257 204 198 56 307 284 182 252 52 
395 9 51 270 198 257 56 46 146 144 382 
396 9 135 356 136 88 235 327 12 338 127 
397 9 205 264 145 209 271 348 219 83 272 
398 9 98 291 377 108 272 278 6 112 171 
399 9 206 86 316 103 81 238 105 315 239 
400 9 199 181 196 306 311 217 45 372 219 
401 9 353 245 248 172 130 304 320 82 129 
402 9 143 330 29 23 369 267 38 232 311 
403 9 153 201 193 298 284 182 252 67 39 
404 9 299 375 160 17 158 150 164 384 36 
405 9 77 255 357 410 146 231 131 382 144 
406 9 363 119 386 13 68 333 157 368 47 
407 9 325 237 100 3 35 256 393 78 255 
408 9 378 246 213 293 27 317 331 161 294 
409 9 343 128 157 42 346 333 340 277 119 
410 9 220 77 218 405 255 3 324 35 236 
411 9 61 184 338 34 125 327 356 140 244 
DEPOT_SECTION
   1
   -1
EOF
