NAME :  X-n401-kX-w40-c7.cctp
COMMENT : 	Adapted by Maziero, Usberti and Cavellucci from the Uchoa, Pecin, Pessoa, Poggi, Subramanian, and Vidal (2013)
TYPE :  CCTP
DIMENSION :    224
EDGE_WEIGHT_TYPE : 	EUC_2D	
CAPACITY : 	745
VERTICES_WITHIN_COVERAGE :  7
VERTICES_WITH_DEMAND : 	40
NODE_COORD_SECTION
1 0 0
2 645 7
3 720 867
4 513 499
5 208 766
6 976 884
7 991 864
8 696 804
9 655 676
10 840 976
11 718 867
12 456 818
13 901 808
14 380 423
15 668 533
16 939 794
17 311 824
18 906 961
19 899 692
20 227 898
21 646 431
22 886 633
23 468 400
24 867 887
25 720 871
26 585 832
27 746 892
28 990 681
29 333 883
30 675 773
31 145 637
32 939 680
33 852 885
34 520 96
35 603 554
36 677 836
37 214 793
38 480 576
39 986 924
40 392 482
41 872 974
42 644 517
43 888 795
44 622 5
45 999 958
46 415 509
47 910 946
48 150 945
49 719 760
50 420 387
51 720 832
52 714 926
53 697 759
54 192 793
55 645 19
56 839 680
57 468 397
58 299 814
59 448 338
60 194 768
61 963 616
62 627 445
63 504 497
64 849 606
65 766 919
66 492 399
67 971 877
68 58 537
69 938 801
70 693 551
71 816 941
72 690 852
73 931 944
74 630 3
75 724 324
76 278 823
77 692 610
78 738 668
79 412 458
80 930 978
81 854 942
82 909 831
83 587 581
84 222 800
85 455 622
86 696 876
87 503 468
88 492 16
89 446 402
90 500 144
91 469 435
92 516 491
93 598 690
94 567 576
95 530 102
96 496 518
97 210 827
98 226 781
99 722 772
100 655 831
101 639 360
102 880 871
103 717 794
104 786 907
105 505 383
106 705 778
107 536 495
108 923 981
109 165 445
110 481 45
111 206 793
112 989 973
113 976 919
114 204 768
115 652 8
116 636 854
117 632 5
118 894 901
119 883 814
120 876 903
121 865 852
122 514 380
123 343 924
124 721 920
125 490 458
126 474 652
127 193 899
128 284 335
129 967 750
130 644 779
131 611 509
132 364 519
133 928 822
134 601 533
135 923 783
136 726 914
137 866 934
138 72 589
139 543 471
140 640 38
141 440 626
142 178 630
143 721 822
144 528 881
145 653 366
146 981 905
147 212 772
148 896 799
149 233 776
150 902 891
151 45 654
152 868 917
153 233 943
154 408 600
155 509 590
156 843 915
157 659 857
158 996 850
159 706 671
160 190 756
161 163 677
162 734 882
163 403 754
164 747 889
165 851 992
166 157 888
167 320 759
168 881 806
169 333 404
170 296 835
171 197 879
172 784 970
173 546 65
174 870 661
175 508 521
176 669 386
177 845 859
178 860 854
179 196 769
180 245 941
181 535 56
182 327 947
183 514 578
184 894 933
185 909 814
186 938 972
187 435 803
188 730 857
189 861 742
190 497 40
191 969 748
192 990 860
193 701 863
194 221 735
195 475 554
196 646 31
197 991 886
198 735 812
199 707 889
200 333 824
201 824 954
202 197 855
203 487 514
204 570 729
205 216 737
206 689 858
207 883 783
208 334 767
209 847 890
210 886 743
211 995 751
212 660 593
213 124 687
214 825 869
215 664 408
216 222 837
217 313 960
218 819 911
219 914 961
220 357 506
221 649 780
222 975 865
223 687 737
224 541 495
DEMAND_SECTION
2 42
3 56
4 29
5 28
6 66
7 92
8 99
9 97
10 75
11 52
12 13
13 67
14 69
15 60
16 77
17 26
18 97
19 74
20 26
21 28
22 60
23 74
24 87
25 95
26 59
27 56
28 64
29 42
30 68
31 15
32 59
33 62
34 29
35 66
36 63
37 24
38 9
39 73
40 60
41 100
COVERAGE_SECTION
2 7 115 55 117 74 44 196 140 
3 7 11 25 188 193 162 86 199 
4 7 63 92 107 175 96 224 203 
5 7 114 147 179 60 160 98 111 
6 5 67 197 222 146 7 
7 4 192 158 222 197 
8 7 103 106 143 30 36 51 198 
9 7 159 93 223 77 78 212 53 
10 7 165 201 41 81 71 137 172 
11 7 3 25 188 193 162 86 199 
12 7 187 163 144 200 26 208 29 
13 7 148 185 43 119 168 82 133 
14 7 79 169 50 40 89 220 91 
15 7 42 70 212 131 134 35 77 
16 4 69 135 133 185 
17 7 58 170 200 76 208 29 167 
18 6 219 47 108 80 73 184 
19 7 32 174 210 22 56 189 129 
20 6 127 171 153 180 202 216 
21 5 62 215 176 145 101 
22 7 174 64 19 56 32 61 210 
23 7 57 89 66 91 105 50 122 
24 7 33 120 209 102 118 152 178 
25 7 3 11 188 162 193 199 86 
26 3 116 100 144 
27 7 164 162 136 25 65 3 11 
28 7 32 61 191 211 129 19 22 
29 7 123 200 170 17 182 58 217 
30 7 53 221 106 130 8 223 49 
31 3 142 161 213 
32 7 19 28 61 22 174 191 129 
33 7 209 24 177 120 102 156 214 
34 4 95 173 181 90 
35 5 134 83 94 131 42 
36 6 72 100 206 157 193 8 
37 7 111 84 98 147 54 149 114 
38 4 195 155 183 85 
39 6 113 146 45 197 6 67 
40 5 79 46 220 132 14 
41 7 165 10 18 81 137 219 47 
42 6 15 131 134 35 70 62 
43 7 148 168 207 13 119 185 135 
44 7 74 117 2 55 115 196 140 
45 5 112 39 113 146 186 
46 1 40 
47 4 18 219 73 184 
48 7 166 127 171 153 20 180 202 
49 6 99 53 106 103 223 30 
50 7 89 57 23 14 59 91 79 
51 6 143 198 188 3 11 72 
52 4 124 136 199 27 
53 7 106 49 223 30 99 103 8 
54 6 111 37 179 60 114 147 
55 6 2 196 115 117 140 74 
56 4 174 19 22 189 
57 7 23 89 66 91 105 50 122 
58 5 17 170 76 200 167 
59 7 50 57 89 23 105 66 122 
60 6 179 114 160 5 147 54 
61 7 32 28 22 19 174 64 191 
62 5 21 215 131 176 42 
63 7 4 92 96 175 203 87 107 
64 6 22 174 56 19 61 32 
65 5 104 27 164 136 124 
66 7 105 23 57 122 91 89 125 
67 2 6 222 
68 6 138 151 31 109 142 213 
69 4 16 133 135 185 
70 7 15 212 77 42 35 131 134 
71 6 201 218 156 81 10 172 
72 5 206 193 36 86 157 
73 4 47 219 186 18 
74 7 117 44 2 55 115 196 140 
75 5 145 176 101 215 21 
76 5 170 58 17 200 216 
77 7 212 70 159 78 9 15 35 
78 4 159 77 9 223 
79 5 40 14 46 91 89 
80 6 108 186 219 18 73 47 
81 7 137 152 156 201 10 41 71 
82 4 185 133 13 119 
83 3 94 35 134 
84 7 37 111 98 149 97 147 54 
85 7 141 126 38 154 155 195 183 
86 4 193 199 206 11 
87 6 125 92 63 4 139 107 
88 5 190 110 181 173 34 
89 7 23 57 50 91 66 105 59 
90 4 34 95 173 181 
91 6 125 23 57 89 66 87 
92 7 4 63 107 224 87 175 96 
93 7 204 9 130 223 221 83 159 
94 2 83 35 
95 4 34 173 181 90 
96 5 203 175 63 4 92 
97 5 216 84 202 37 111 
98 6 149 37 147 84 5 111 
99 5 49 106 103 53 8 
100 5 36 157 116 72 206 
101 4 145 176 215 21 
102 6 24 121 178 150 33 120 
103 6 106 8 99 198 143 49 
104 3 65 218 27 
105 6 122 66 57 23 89 91 
106 6 99 103 53 49 8 30 
107 4 224 92 4 139 
108 6 80 186 219 18 47 73 
109 6 68 128 138 169 142 31 
110 6 190 88 181 34 173 95 
111 7 37 54 84 147 98 114 179 
112 6 45 39 186 113 80 73 
113 5 39 146 6 197 67 
114 7 5 179 147 60 160 111 98 
115 7 2 55 117 74 196 44 140 
116 3 157 100 36 
117 7 74 44 2 55 115 196 140 
118 5 150 120 24 152 184 
119 6 168 13 43 148 185 82 
120 7 152 24 118 150 33 102 209 
121 4 178 177 102 24 
122 5 105 66 57 23 89 
123 7 182 29 217 180 200 170 17 
124 6 136 52 199 27 162 164 
125 5 87 91 63 92 4 
126 6 85 141 155 38 154 183 
127 6 171 20 166 202 153 48 
128 7 169 14 50 109 59 89 79 
129 5 191 211 16 135 69 
130 7 221 30 100 53 8 223 106 
131 4 134 42 35 15 
132 4 220 40 46 79 
133 4 82 185 69 13 
134 4 35 131 42 83 
135 7 16 69 148 13 185 43 133 
136 6 124 52 27 199 162 164 
137 7 81 152 184 156 120 41 118 
138 5 68 151 31 213 142 
139 5 224 107 92 87 4 
140 4 196 55 2 115 
141 6 85 154 126 38 155 195 
142 2 31 161 
143 6 51 198 103 8 188 72 
144 2 26 12 
145 6 101 176 215 21 75 62 
146 6 113 39 197 6 67 222 
147 7 5 114 179 98 60 37 149 
148 7 43 13 168 119 185 207 135 
149 3 98 147 37 
150 4 118 120 102 24 
151 5 138 213 31 68 161 
152 7 120 137 156 81 24 118 184 
153 7 180 20 127 171 217 48 166 
154 3 141 85 38 
155 4 183 38 195 94 
156 7 218 152 209 81 137 33 120 
157 4 116 100 36 206 
158 2 192 7 
159 4 78 9 77 223 
160 5 60 179 114 5 147 
161 2 213 31 
162 7 164 27 25 3 11 188 199 
163 5 187 208 12 167 200 
164 7 27 162 25 136 3 11 65 
165 7 10 41 201 81 137 71 18 
166 5 127 171 202 48 20 
167 3 208 58 17 
168 6 119 43 148 13 207 185 
169 7 14 128 50 79 40 220 89 
170 5 17 58 76 200 29 
171 5 127 202 20 166 216 
172 5 71 201 65 10 104 
173 3 181 34 95 
174 7 22 56 19 64 32 189 210 
175 5 96 203 4 63 92 
176 6 215 145 101 21 62 75 
177 5 178 121 214 33 209 
178 4 121 177 102 33 
179 7 60 114 5 160 147 54 111 
180 7 153 20 127 217 171 182 48 
181 3 173 190 34 
182 7 217 123 29 180 153 20 170 
183 3 155 38 195 
184 5 47 137 18 152 118 
185 6 13 82 148 133 119 43 
186 5 80 108 219 73 18 
187 6 12 163 200 208 144 167 
188 6 3 11 25 162 51 193 
189 4 210 207 43 19 
190 5 110 88 181 173 34 
191 5 129 211 16 135 69 
192 3 7 158 222 
193 5 206 86 72 11 3 
194 3 205 5 114 
195 4 38 96 203 183 
196 4 140 55 2 115 
197 6 6 146 7 67 192 222 
198 5 143 51 103 8 99 
199 6 86 25 11 3 193 162 
200 7 17 58 170 76 208 29 167 
201 6 71 10 81 156 172 218 
202 5 171 97 216 127 20 
203 4 96 175 63 4 
204 7 93 130 221 9 26 30 223 
205 4 194 5 160 114 
206 4 72 193 86 36 
207 6 43 148 168 13 119 135 
208 5 167 200 58 17 163 
209 7 33 24 156 214 177 120 152 
210 7 189 207 43 19 135 148 168 
211 4 191 129 28 16 
212 7 77 70 15 35 83 42 9 
213 2 161 31 
214 3 177 209 33 
215 6 176 21 145 62 101 75 
216 5 97 202 84 37 111 
217 7 182 123 180 29 153 20 170 
218 6 156 71 104 209 33 214 
219 6 18 47 108 80 73 186 
220 4 132 40 46 79 
221 7 130 30 100 53 8 106 223 
222 3 67 7 192 
223 7 53 30 49 106 99 221 130 
224 4 107 139 92 4 
DEPOT_SECTION
   1
   -1
EOF
