NAME :  X-n401-kX-w80-c11.cctp
COMMENT : 	Adapted by Maziero, Usberti and Cavellucci from the Uchoa, Pecin, Pessoa, Poggi, Subramanian, and Vidal (2013)
TYPE :  CCTP
DIMENSION :    374
EDGE_WEIGHT_TYPE : 	EUC_2D	
CAPACITY : 	745
VERTICES_WITHIN_COVERAGE :  11
VERTICES_WITH_DEMAND : 	80
NODE_COORD_SECTION
1 0 0
2 645 7
3 720 867
4 513 499
5 208 766
6 976 884
7 991 864
8 696 804
9 655 676
10 840 976
11 718 867
12 456 818
13 901 808
14 380 423
15 668 533
16 939 794
17 311 824
18 906 961
19 899 692
20 227 898
21 646 431
22 886 633
23 468 400
24 867 887
25 720 871
26 585 832
27 746 892
28 990 681
29 333 883
30 675 773
31 145 637
32 939 680
33 852 885
34 520 96
35 603 554
36 677 836
37 214 793
38 480 576
39 986 924
40 392 482
41 872 974
42 644 517
43 888 795
44 622 5
45 999 958
46 415 509
47 910 946
48 150 945
49 719 760
50 695 188
51 420 387
52 720 832
53 714 926
54 697 759
55 659 869
56 192 793
57 645 19
58 592 992
59 764 778
60 839 680
61 468 397
62 77 793
63 729 74
64 299 814
65 571 343
66 717 25
67 989 846
68 971 861
69 448 338
70 194 768
71 929 831
72 845 841
73 687 867
74 963 616
75 464 498
76 141 809
77 547 542
78 945 847
79 627 445
80 504 497
81 101 705
82 849 606
83 766 919
84 492 399
85 621 919
86 555 935
87 123 778
88 971 877
89 58 537
90 938 801
91 789 869
92 870 838
93 953 865
94 693 551
95 816 941
96 690 852
97 689 61
98 787 873
99 931 944
100 996 833
101 560 369
102 580 108
103 630 3
104 170 733
105 631 885
106 603 891
107 724 324
108 278 823
109 589 379
110 994 810
111 641 885
112 948 839
113 692 610
114 970 813
115 813 35
116 738 668
117 703 958
118 453 511
119 412 458
120 912 918
121 770 940
122 930 978
123 854 942
124 909 831
125 587 581
126 813 824
127 222 800
128 978 848
129 455 622
130 696 876
131 756 719
132 550 544
133 872 85
134 825 100
135 503 468
136 571 325
137 689 913
138 492 16
139 446 402
140 614 60
141 500 144
142 469 435
143 171 802
144 237 542
145 516 491
146 550 958
147 598 690
148 193 835
149 567 576
150 747 781
151 530 102
152 496 518
153 210 827
154 779 754
155 226 781
156 722 772
157 655 831
158 639 360
159 880 871
160 786 17
161 449 521
162 717 794
163 786 907
164 505 383
165 677 883
166 705 778
167 536 495
168 923 981
169 913 861
170 684 47
171 580 474
172 165 445
173 481 45
174 243 773
175 206 793
176 989 973
177 676 184
178 782 780
179 976 919
180 949 912
181 204 768
182 652 8
183 636 854
184 632 5
185 753 830
186 894 901
187 883 814
188 564 508
189 876 903
190 865 852
191 514 380
192 701 54
193 343 924
194 721 920
195 490 458
196 534 592
197 259 778
198 474 652
199 193 899
200 284 335
201 967 750
202 485 462
203 644 779
204 461 532
205 611 509
206 564 75
207 364 519
208 517 18
209 998 838
210 949 850
211 928 822
212 601 533
213 923 783
214 102 799
215 726 914
216 834 244
217 239 755
218 838 831
219 866 934
220 630 73
221 949 878
222 72 589
223 436 525
224 541 524
225 543 471
226 588 198
227 640 38
228 440 626
229 178 630
230 721 822
231 528 881
232 705 976
233 653 366
234 981 905
235 679 929
236 793 937
237 212 772
238 896 799
239 233 776
240 902 891
241 1000 799
242 45 654
243 868 917
244 152 749
245 233 943
246 408 600
247 945 853
248 509 590
249 843 915
250 471 500
251 775 770
252 579 103
253 935 853
254 659 857
255 426 546
256 932 920
257 996 850
258 840 94
259 706 671
260 190 756
261 163 677
262 734 882
263 403 754
264 669 187
265 947 869
266 747 889
267 710 131
268 851 992
269 157 888
270 964 968
271 550 923
272 320 759
273 881 806
274 941 885
275 333 404
276 990 838
277 171 759
278 647 47
279 296 835
280 655 146
281 475 535
282 197 879
283 565 50
284 985 834
285 784 970
286 546 65
287 144 788
288 870 661
289 508 521
290 669 386
291 845 859
292 860 854
293 768 700
294 196 769
295 245 941
296 411 529
297 535 56
298 327 947
299 145 726
300 708 76
301 808 838
302 657 144
303 686 66
304 514 578
305 894 933
306 909 814
307 579 57
308 938 972
309 435 803
310 730 857
311 861 742
312 251 785
313 497 40
314 969 748
315 990 860
316 701 863
317 610 942
318 103 703
319 802 833
320 221 735
321 777 692
322 984 821
323 912 928
324 475 554
325 959 862
326 646 31
327 991 886
328 735 812
329 707 889
330 333 824
331 824 954
332 197 855
333 487 514
334 570 729
335 653 40
336 850 803
337 630 47
338 563 493
339 216 737
340 689 858
341 688 876
342 883 783
343 334 767
344 847 890
345 966 862
346 524 554
347 181 847
348 886 743
349 241 760
350 995 751
351 663 926
352 660 593
353 807 731
354 124 687
355 704 58
356 950 824
357 825 869
358 795 770
359 150 720
360 664 408
361 222 837
362 930 938
363 313 960
364 819 911
365 906 880
366 180 749
367 914 961
368 357 506
369 649 780
370 975 865
371 687 737
372 543 546
373 650 873
374 541 495
DEMAND_SECTION
2 42
3 56
4 29
5 28
6 66
7 92
8 99
9 97
10 75
11 52
12 13
13 67
14 69
15 60
16 77
17 26
18 97
19 74
20 26
21 28
22 60
23 74
24 87
25 95
26 59
27 56
28 64
29 42
30 68
31 15
32 59
33 62
34 29
35 66
36 63
37 24
38 9
39 73
40 60
41 100
42 56
43 75
44 37
45 100
46 4
47 100
48 33
49 96
50 28
51 78
52 92
53 76
54 84
55 54
56 3
57 14
58 69
59 99
60 66
61 56
62 31
63 8
64 45
65 15
66 10
67 76
68 98
69 99
70 14
71 75
72 91
73 59
74 51
75 66
76 35
77 66
78 77
79 24
80 40
81 28
COVERAGE_SECTION
2 11 182 57 184 103 44 326 227 335 278 337 170 
3 11 11 25 310 316 262 130 329 340 73 341 96 
4 11 80 145 167 289 152 374 333 135 224 225 250 
5 11 181 237 294 70 260 155 175 239 37 339 56 
6 11 88 327 370 234 68 345 7 221 315 325 93 
7 11 315 257 370 67 68 128 327 88 6 345 276 
8 11 162 166 230 30 36 52 328 156 54 96 157 
9 11 259 147 371 113 116 352 54 30 334 203 369 
10 11 268 331 41 123 95 219 285 236 249 243 18 
11 11 3 25 310 316 262 130 329 340 73 341 96 
12 10 309 263 231 330 26 343 29 271 17 334 
13 11 238 306 43 187 273 124 211 342 213 71 90 
14 11 119 275 51 40 139 368 142 23 61 46 207 
15 11 42 94 352 205 212 35 113 125 79 21 171 
16 11 90 213 211 356 114 306 71 13 238 112 124 
17 10 64 279 330 108 343 29 272 197 312 174 
18 11 367 47 168 122 99 305 362 308 323 41 120 
19 11 32 288 348 22 60 311 201 314 28 342 213 
20 11 199 282 245 295 332 361 347 269 148 153 48 
21 11 79 360 290 233 158 109 171 205 42 15 338 
22 11 288 82 19 60 32 74 348 311 28 321 353 
23 11 61 139 84 142 164 51 191 195 202 69 135 
24 11 33 189 344 159 186 243 292 190 240 291 249 
25 11 3 11 310 262 316 329 130 266 341 27 73 
26 11 183 106 105 157 231 111 373 254 203 369 55 
27 11 266 262 215 25 83 3 11 194 310 329 163 
28 11 32 74 314 350 201 19 22 241 348 213 288 
29 11 193 330 279 17 298 64 363 108 295 20 343 
30 11 54 369 166 203 8 371 49 156 162 157 36 
31 8 229 261 354 318 81 359 222 299 
32 11 19 28 74 22 288 314 201 348 350 60 311 
33 11 344 24 291 189 159 249 357 292 190 243 364 
34 11 151 286 297 206 141 252 102 313 173 283 307 
35 11 212 125 149 205 132 42 77 188 372 15 224 
36 11 96 157 340 254 73 316 8 55 341 52 130 
37 11 175 127 155 237 56 239 181 5 294 70 153 
38 11 324 248 304 281 204 346 129 196 152 255 289 
39 11 179 234 45 327 180 6 88 176 270 256 362 
40 11 119 46 368 207 296 14 223 118 161 255 75 
41 11 268 10 18 123 219 367 47 305 168 331 243 
42 11 15 205 212 35 94 79 171 352 188 338 21 
43 11 238 273 342 13 187 306 213 336 124 92 211 
44 11 103 184 2 57 182 326 227 337 335 278 140 
45 11 176 39 270 179 234 308 180 99 122 327 362 
46 11 296 223 40 161 118 255 75 119 204 207 250 
47 11 18 367 323 99 305 362 120 256 168 122 308 
48 11 269 199 282 245 20 295 332 347 148 361 153 
49 11 156 54 166 162 150 371 30 59 8 328 131 
50 10 177 264 280 302 267 226 300 63 303 97 
51 11 139 61 23 14 69 142 119 84 164 275 191 
52 11 230 328 310 185 3 11 96 316 8 162 25 
53 11 194 215 137 117 235 329 27 262 266 232 351 
54 11 166 49 371 30 156 162 8 369 150 203 328 
55 11 373 254 165 111 183 73 341 105 340 96 36 
56 11 175 37 143 294 70 181 237 5 127 155 260 
57 11 2 326 182 184 227 103 335 44 278 337 170 
58 11 317 146 86 85 271 351 106 235 105 232 117 
59 10 251 150 178 154 358 156 328 49 162 185 
60 11 288 353 19 321 22 311 293 82 348 131 154 
61 11 23 139 84 142 164 51 191 69 195 202 135 
62 11 214 87 76 287 244 81 143 318 299 277 359 
63 10 300 355 192 97 303 66 170 267 160 335 
64 10 17 279 108 330 197 312 272 343 174 239 
65 11 136 101 109 191 158 164 233 84 290 360 21 
66 11 192 355 170 97 63 303 300 335 182 160 326 
67 11 257 276 128 209 284 315 100 7 68 370 322 
68 11 345 370 325 128 88 93 315 7 67 6 210 
69 11 51 61 139 23 164 84 191 142 14 101 65 
70 11 294 181 260 5 237 366 56 277 175 37 155 
71 11 211 124 112 356 78 253 306 247 210 90 169 
72 11 218 291 292 190 92 357 126 301 336 319 33 
73 11 340 341 130 96 316 165 55 254 329 11 3 
74 11 32 28 22 19 288 82 314 201 350 60 348 
75 11 250 118 161 333 204 152 223 281 80 202 195 
76 11 287 143 87 214 56 347 148 277 244 62 70 
77 11 132 372 224 346 188 149 289 374 167 304 196 
78 11 210 247 112 253 93 325 265 71 356 345 68 
79 11 21 360 171 205 290 42 109 338 233 158 225 
80 11 4 145 152 289 333 135 167 250 374 75 202 
81 9 318 354 299 359 244 261 104 87 242 
82 11 22 288 60 19 321 74 32 293 116 353 311 
83 11 121 163 236 27 266 215 194 262 98 53 285 
84 11 164 23 61 191 142 139 195 202 135 51 101 
85 11 317 106 105 111 351 373 235 55 165 183 86 
86 11 271 146 317 231 106 58 85 105 111 26 351 
87 11 287 214 76 244 62 277 143 299 359 366 104 
88 11 6 370 68 345 325 93 221 327 7 265 315 
89 10 222 242 31 172 229 354 318 81 261 144 
90 11 16 211 213 356 71 306 114 13 112 124 238 
91 8 98 301 357 163 319 266 27 126 
92 11 190 292 72 187 218 291 159 273 124 336 13 
93 11 265 325 345 221 247 210 68 78 88 253 370 
94 11 15 352 113 42 35 205 212 125 259 79 116 
95 11 331 236 364 249 123 10 285 163 121 219 83 
96 11 340 73 316 36 341 130 254 11 3 165 55 
97 10 303 192 170 355 300 63 335 278 66 326 
98 8 91 163 357 301 266 319 27 364 
99 11 362 47 256 367 323 308 18 120 122 180 168 
100 11 209 276 284 67 257 322 110 128 315 7 114 
101 11 65 109 136 191 164 84 158 233 61 23 79 
102 11 252 206 151 307 286 140 283 34 220 297 337 
103 11 184 44 2 57 182 326 227 335 337 278 140 
104 8 366 244 359 277 299 260 70 294 
105 11 111 373 106 183 55 85 254 165 351 341 73 
106 11 105 85 111 183 373 317 55 26 271 86 254 
107 11 233 290 158 360 21 216 50 109 177 264 136 
108 11 279 64 17 312 197 330 361 127 174 239 155 
109 11 101 65 158 136 233 191 79 21 290 360 164 
110 11 241 322 100 114 284 209 276 67 257 128 356 
111 11 105 373 55 183 254 165 106 85 351 341 73 
112 11 78 210 247 356 253 71 325 93 211 345 265 
113 11 352 94 259 116 9 15 35 42 125 293 321 
114 11 322 356 110 284 276 100 241 90 112 16 128 
115 11 160 258 134 133 63 66 355 300 192 97 170 
116 11 259 293 321 131 113 9 371 353 49 154 54 
117 11 232 53 235 194 137 215 351 121 329 83 27 
118 11 161 75 250 204 223 281 333 46 152 255 296 
119 11 40 14 46 142 75 139 118 51 223 296 250 
120 11 323 256 305 186 362 47 240 99 180 365 189 
121 11 83 236 285 163 95 215 194 27 266 331 364 
122 11 168 308 367 18 99 270 47 362 323 41 256 
123 11 219 243 249 331 10 41 95 305 189 364 268 
124 11 306 71 211 13 169 187 253 238 273 78 92 
125 11 149 35 212 132 196 77 372 346 224 304 352 
126 6 319 301 218 72 336 291 
127 11 37 175 155 239 153 237 56 312 174 5 181 
128 11 67 68 276 284 315 370 257 345 7 209 100 
129 10 228 198 38 246 248 324 304 255 196 281 
130 11 341 73 316 329 340 165 11 25 96 3 55 
131 11 293 321 154 353 116 251 49 59 150 156 358 
132 11 77 372 224 346 149 188 289 304 374 167 196 
133 11 258 134 115 160 63 216 300 66 267 355 192 
134 11 258 133 115 160 63 267 300 355 66 192 97 
135 11 195 202 145 80 4 225 167 250 142 374 75 
136 11 65 101 109 158 191 164 233 84 290 69 360 
137 11 235 53 351 329 165 194 215 341 130 73 117 
138 11 208 313 173 297 286 283 34 206 151 307 252 
139 11 23 61 51 142 84 164 69 119 14 191 195 
140 10 220 337 227 278 307 326 335 283 57 206 
141 11 34 151 102 252 286 206 297 173 226 313 283 
142 11 195 202 23 61 139 84 135 119 75 164 250 
143 11 56 287 76 175 148 70 294 277 37 153 347 
144 5 229 172 368 207 31 
145 11 4 80 167 374 135 289 152 225 333 224 195 
146 11 86 271 58 317 231 85 106 105 111 351 26 
147 11 334 9 203 371 369 125 259 30 352 196 149 
148 11 347 153 332 361 143 56 175 282 127 37 76 
149 11 125 132 196 372 77 35 346 304 212 224 248 
150 11 59 156 251 162 328 49 178 154 166 185 230 
151 11 34 286 206 297 252 102 141 283 307 313 173 
152 11 333 289 80 4 281 250 145 75 204 324 118 
153 11 361 148 127 332 37 175 347 56 143 155 282 
154 10 251 358 178 59 353 131 150 293 49 156 
155 11 239 37 237 127 174 5 175 312 181 349 217 
156 11 49 166 162 150 54 8 59 328 30 371 230 
157 11 36 254 183 55 96 373 340 73 8 369 203 
158 11 233 290 109 360 65 21 136 101 79 107 191 
159 11 24 190 292 365 240 33 189 186 92 169 291 
160 11 115 66 63 134 355 192 258 300 170 97 133 
161 11 118 223 204 75 250 281 255 46 296 333 324 
162 11 166 8 156 328 230 150 49 52 54 30 59 
163 10 83 236 364 98 121 91 27 266 95 357 
164 11 191 84 61 23 101 139 142 69 195 65 202 
165 11 341 73 130 55 340 373 316 329 137 254 96 
166 11 156 162 54 49 8 30 150 328 371 230 52 
167 11 374 145 4 225 338 224 188 80 289 135 152 
168 11 122 308 367 18 47 99 270 362 41 323 305 
169 11 365 253 124 240 247 71 159 78 265 274 210 
170 10 97 192 303 355 335 278 300 66 326 227 
171 11 338 225 188 374 205 167 79 212 224 145 4 
172 9 144 89 200 222 275 229 31 368 207 
173 11 313 138 208 297 34 286 151 283 206 307 141 
174 10 239 349 312 197 217 155 237 127 37 5 
175 11 37 56 127 237 155 181 294 5 70 239 153 
176 11 45 270 39 308 179 122 99 168 234 362 180 
177 10 264 50 280 302 267 226 300 303 220 63 
178 8 251 358 59 154 150 126 353 319 
179 11 39 234 180 6 327 88 256 45 221 274 270 
180 11 256 179 274 362 234 221 99 120 6 39 323 
181 11 5 294 237 70 260 175 155 37 56 239 366 
182 11 2 57 184 103 326 44 227 335 278 337 170 
183 11 254 373 55 157 105 111 36 106 165 73 340 
184 11 103 44 2 57 182 326 227 335 337 278 140 
185 7 328 52 230 310 150 319 3 
186 11 240 189 365 120 24 243 305 323 159 256 219 
187 11 273 13 43 238 306 92 124 342 336 190 211 
188 11 338 374 224 167 77 171 132 225 372 212 205 
189 11 243 24 186 240 33 159 344 219 249 305 365 
190 11 292 92 291 72 159 218 24 33 187 344 357 
191 11 164 84 101 61 23 65 139 142 109 69 136 
192 10 355 97 170 303 300 66 63 335 278 326 
193 11 298 29 363 295 330 279 17 245 64 20 108 
194 11 215 53 137 329 27 262 266 117 235 83 25 
195 11 202 135 142 80 145 250 4 75 225 333 84 
196 11 304 248 149 346 372 132 77 125 38 224 324 
197 10 312 174 349 239 217 155 127 37 237 108 
198 10 129 228 248 38 246 304 196 324 346 255 
199 11 282 20 269 332 347 245 48 148 295 361 153 
200 11 275 14 51 172 69 139 119 40 368 61 23 
201 11 314 350 16 213 90 241 114 110 28 322 32 
202 11 195 135 142 80 250 75 145 4 333 152 118 
203 11 369 30 157 54 8 371 166 36 162 183 49 
204 11 281 161 118 223 324 333 75 250 152 255 38 
205 11 212 42 35 171 188 338 15 79 132 374 77 
206 11 286 307 283 252 297 102 151 34 140 220 337 
207 10 368 40 296 46 255 223 119 161 118 246 
208 11 138 313 297 173 286 283 307 206 34 151 252 
209 11 100 276 67 257 284 128 322 315 7 110 68 
210 11 78 247 112 253 93 325 265 345 68 356 71 
211 11 71 124 306 356 90 112 13 16 78 253 210 
212 11 35 205 188 42 125 132 77 149 338 372 224 
213 11 16 90 238 13 306 43 211 342 71 273 356 
214 11 62 87 76 287 143 244 277 299 56 347 359 
215 11 194 53 27 329 262 266 137 83 25 3 11 
216 11 107 134 50 258 133 267 177 264 63 302 280 
217 10 349 174 239 320 155 339 197 237 312 5 
218 10 72 126 291 336 301 292 92 190 319 357 
219 11 123 243 305 249 189 41 186 47 323 24 331 
220 10 140 337 278 227 335 326 307 57 303 252 
221 11 265 274 93 325 88 345 247 6 68 210 253 
222 9 89 242 31 354 229 318 81 261 359 
223 11 161 118 255 296 46 204 75 281 250 324 333 
224 11 77 132 372 188 167 374 289 346 4 338 145 
225 11 374 167 338 145 171 135 4 188 80 224 195 
226 11 264 280 302 177 102 252 141 50 151 34 206 
227 11 326 278 335 337 57 2 182 140 184 103 220 
228 10 129 246 198 38 248 324 255 304 204 281 
229 3 31 261 354 
230 11 52 328 162 8 185 310 96 3 11 36 316 
231 11 271 86 26 106 146 12 85 317 105 183 111 
232 11 117 53 235 194 137 215 351 121 285 83 329 
233 11 158 290 360 21 109 107 79 65 136 101 171 
234 11 179 39 327 6 88 180 370 7 221 68 274 
235 11 351 137 53 117 194 165 215 329 232 341 130 
236 11 95 121 163 83 285 331 364 249 10 123 98 
237 11 5 181 294 155 70 37 239 175 260 56 127 
238 11 43 13 273 187 306 342 213 124 211 90 16 
239 11 155 174 349 312 237 217 37 127 197 5 181 
240 11 365 186 120 189 159 169 24 323 274 256 243 
241 11 110 322 114 100 284 209 276 67 350 257 128 
242 10 222 81 318 354 31 89 261 299 359 229 
243 11 189 219 249 123 24 186 305 344 33 240 120 
244 10 277 104 299 366 359 260 287 87 70 294 
245 11 295 20 199 282 363 48 269 298 332 361 347 
246 9 228 129 255 296 38 223 324 198 204 
247 11 210 78 253 93 112 265 325 345 221 68 71 
248 11 304 196 38 346 324 372 149 77 132 129 281 
249 11 364 243 344 123 219 33 189 24 95 331 357 
250 11 75 118 333 161 152 80 204 281 202 4 223 
251 9 178 59 154 358 150 353 156 131 49 
252 11 102 206 307 151 286 140 283 34 220 297 337 
253 11 247 78 210 112 265 93 71 169 325 221 211 
254 11 55 373 183 157 36 73 340 96 165 111 341 
255 11 223 296 161 204 46 118 281 324 246 75 38 
256 11 362 180 120 323 99 47 274 305 186 240 179 
257 11 67 209 315 276 7 100 128 284 370 68 322 
258 11 134 133 115 160 63 300 267 66 355 192 216 
259 11 116 9 113 293 131 371 321 54 49 352 156 
260 10 366 70 294 181 277 5 237 104 339 56 
261 6 354 31 359 229 299 104 
262 11 266 27 25 3 11 310 329 215 130 316 194 
263 7 309 343 12 272 330 17 64 
264 10 177 50 280 302 267 226 300 102 220 303 
265 11 93 221 325 247 274 210 253 345 78 68 88 
266 11 27 262 25 215 3 11 83 310 194 329 98 
267 11 300 302 280 50 63 177 264 303 97 355 192 
268 11 10 41 331 123 219 95 18 367 285 168 305 
269 11 199 282 347 332 48 148 20 76 153 361 143 
270 11 176 308 122 45 99 168 362 39 179 367 18 
271 11 86 146 231 106 317 85 58 105 26 111 183 
272 5 343 64 197 17 330 
273 11 187 43 238 13 342 306 336 92 124 213 190 
274 11 221 265 93 180 325 88 247 253 345 6 365 
275 11 14 200 51 119 40 368 139 207 46 69 23 
276 11 284 67 100 209 257 128 322 315 7 110 68 
277 10 366 260 244 70 104 294 181 5 56 287 
278 10 335 227 326 337 57 220 140 170 182 2 
279 11 17 64 108 330 29 312 197 361 343 272 127 
280 10 302 177 264 267 50 220 102 226 303 252 
281 11 204 324 333 152 161 118 250 289 75 223 38 
282 11 199 332 20 347 269 148 361 153 245 295 48 
283 11 307 286 206 297 140 252 208 102 151 34 337 
284 11 276 100 67 322 209 128 257 110 114 315 68 
285 11 121 236 95 331 83 10 163 364 268 123 232 
286 11 297 206 283 307 34 151 252 102 208 313 140 
287 11 76 87 143 244 277 214 56 366 70 294 260 
288 11 22 60 19 82 32 311 348 353 321 74 293 
289 11 152 333 4 80 145 224 281 346 167 374 250 
290 11 360 233 158 21 79 109 107 65 101 136 171 
291 11 292 72 190 357 33 218 344 92 24 159 301 
292 11 190 291 92 72 159 33 218 24 344 357 187 
293 11 321 131 116 353 154 259 251 60 358 49 59 
294 11 70 181 5 260 237 56 175 366 277 37 155 
295 11 245 20 199 363 282 298 48 332 193 269 29 
296 11 46 255 223 161 118 207 204 40 368 75 281 
297 11 286 283 206 313 208 34 307 151 173 138 252 
298 11 363 193 29 295 245 20 279 330 17 108 64 
299 9 359 244 104 277 366 354 318 81 261 
300 10 355 63 192 97 303 170 66 267 335 278 
301 7 319 126 218 357 91 72 98 
302 10 280 177 264 267 50 220 303 102 300 226 
303 10 97 170 192 355 300 335 278 63 66 326 
304 11 248 196 346 38 372 324 77 132 149 289 281 
305 11 323 47 120 219 18 243 186 367 189 362 99 
306 11 13 124 238 211 71 187 43 273 90 213 16 
307 11 283 206 286 140 297 252 102 337 220 227 44 
308 11 122 168 270 367 99 18 362 47 176 323 256 
309 10 12 263 330 343 231 272 17 29 64 279 
310 11 3 11 25 262 52 316 185 230 266 27 130 
311 10 348 342 353 43 336 19 60 238 273 358 
312 10 197 174 239 155 349 217 127 37 237 175 
313 11 173 138 208 297 286 34 283 151 206 307 252 
314 11 201 350 16 213 241 90 114 110 28 32 322 
315 11 7 257 67 370 128 68 276 209 345 88 284 
316 11 340 130 73 96 11 341 3 25 329 310 165 
317 11 85 106 58 86 351 105 146 271 111 235 373 
318 9 81 354 299 359 261 244 104 242 31 
319 7 301 126 218 91 98 357 72 
320 7 339 217 349 5 181 260 237 
321 11 293 131 116 353 154 60 259 251 358 59 178 
322 11 284 110 114 100 276 209 67 241 128 257 356 
323 11 120 47 305 362 256 99 186 367 18 240 180 
324 11 281 38 204 152 161 333 304 289 118 223 346 
325 11 93 345 68 265 210 370 247 88 221 78 128 
326 11 227 335 57 278 337 2 182 184 103 44 170 
327 11 6 234 7 88 315 370 68 345 179 257 39 
328 11 230 52 162 185 150 8 156 59 166 310 49 
329 11 130 25 341 11 3 316 262 73 137 165 215 
330 10 17 64 279 108 343 29 272 197 312 263 
331 11 95 10 123 236 249 285 364 219 268 41 121 
332 11 347 148 282 153 361 199 20 269 143 127 56 
333 11 152 250 289 80 281 75 4 204 118 145 161 
334 11 147 203 369 9 26 30 371 198 54 157 183 
335 10 278 326 227 57 337 170 182 2 220 184 
336 10 218 273 187 72 43 342 92 126 238 13 
337 10 227 278 140 326 335 220 57 184 2 44 
338 11 188 374 171 167 225 224 145 4 205 77 132 
339 10 320 217 5 260 181 349 237 70 294 366 
340 11 96 73 316 341 130 36 165 11 254 3 55 
341 11 130 73 165 316 340 329 96 55 11 25 3 
342 11 43 238 273 13 187 336 213 306 348 311 124 
343 8 272 330 64 17 263 197 279 108 
344 11 33 24 249 357 291 189 243 364 159 292 190 
345 11 68 325 370 93 88 128 265 210 221 247 6 
346 11 372 77 304 132 224 289 196 248 152 149 38 
347 11 148 332 153 282 361 143 269 199 56 76 175 
348 11 311 342 43 19 213 238 273 13 336 187 16 
349 10 217 174 239 197 155 312 237 320 5 339 
350 11 314 201 241 110 114 28 16 322 90 213 100 
351 11 235 137 85 165 111 53 117 105 317 373 341 
352 11 113 94 15 35 125 42 9 212 259 149 205 
353 10 154 358 321 251 293 131 178 311 60 59 
354 8 318 81 261 359 299 31 104 244 
355 10 192 97 300 303 170 63 66 335 278 326 
356 11 112 71 211 114 78 90 210 247 16 253 322 
357 10 291 344 33 72 301 91 98 292 218 364 
358 8 178 251 154 59 353 150 126 319 
359 9 299 104 244 354 366 277 261 318 81 
360 11 290 21 233 79 158 109 107 171 42 101 65 
361 11 153 148 332 127 347 37 175 282 56 155 108 
362 11 99 256 323 47 120 367 180 18 308 305 122 
363 11 298 193 295 29 245 20 279 199 17 330 108 
364 11 249 95 163 344 236 33 357 331 123 243 98 
365 11 240 169 186 159 274 120 189 24 253 265 221 
366 10 260 277 104 70 294 244 181 5 339 237 
367 11 18 47 168 122 99 308 362 323 305 120 41 
368 10 207 40 46 296 119 255 223 14 161 118 
369 11 203 30 157 54 8 166 371 36 162 49 156 
370 11 68 345 88 7 315 325 128 6 93 67 257 
371 11 54 30 49 166 156 369 203 162 8 9 259 
372 11 77 132 346 224 149 188 289 304 196 167 374 
373 11 55 111 254 105 183 165 73 341 157 340 96 
374 11 167 338 225 145 188 4 224 80 289 171 77 
DEPOT_SECTION
   1
   -1
EOF
