NAME :  X-n491-kX-w98-c11.cctp
COMMENT : 	Adapted by Maziero, Usberti and Cavellucci from the Uchoa, Pecin, Pessoa, Poggi, Subramanian, and Vidal (2013)
TYPE :  CCTP
DIMENSION :    387
EDGE_WEIGHT_TYPE : 	EUC_2D	
CAPACITY : 	428
VERTICES_WITHIN_COVERAGE :  11
VERTICES_WITH_DEMAND : 	98
NODE_COORD_SECTION
1 894 510
2 463 887
3 704 177
4 424 368
5 420 800
6 492 610
7 607 749
8 363 85
9 160 398
10 733 274
11 952 199
12 56 370
13 714 12
14 569 230
15 187 681
16 550 581
17 506 863
18 838 469
19 842 107
20 595 966
21 292 185
22 327 121
23 21 664
24 145 164
25 654 735
26 281 959
27 910 295
28 857 705
29 501 276
30 896 894
31 269 217
32 590 509
33 575 96
34 819 481
35 941 408
36 908 388
37 941 492
38 652 413
39 341 111
40 577 544
41 493 279
42 452 25
43 969 339
44 64 67
45 456 289
46 227 792
47 898 365
48 45 442
49 881 867
50 437 830
51 280 233
52 894 41
53 146 375
54 498 393
55 849 249
56 188 631
57 461 690
58 277 381
59 410 486
60 211 863
61 359 706
62 595 831
63 353 281
64 448 785
65 206 832
66 726 420
67 143 741
68 84 332
69 692 490
70 896 968
71 823 232
72 513 831
73 338 623
74 787 934
75 515 893
76 829 499
77 993 184
78 30 917
79 918 121
80 327 945
81 331 646
82 714 159
83 810 86
84 10 665
85 358 495
86 877 42
87 547 218
88 81 551
89 907 733
90 12 587
91 564 716
92 446 381
93 136 379
94 565 957
95 872 42
96 216 326
97 37 967
98 434 954
99 562 426
100 203 448
101 926 44
102 473 523
103 302 363
104 947 678
105 985 248
106 839 112
107 597 917
108 573 948
109 229 856
110 497 199
111 645 338
112 106 449
113 918 709
114 680 917
115 194 86
116 176 795
117 714 316
118 368 822
119 72 175
120 239 112
121 736 825
122 621 236
123 811 510
124 82 545
125 55 520
126 146 385
127 319 751
128 195 332
129 446 715
130 514 988
131 891 404
132 632 329
133 558 893
134 567 695
135 297 220
136 191 246
137 620 569
138 447 829
139 73 857
140 887 849
141 249 874
142 457 527
143 298 729
144 141 976
145 695 556
146 851 526
147 259 467
148 561 309
149 412 755
150 700 344
151 831 297
152 556 499
153 447 454
154 316 773
155 212 653
156 487 210
157 300 434
158 257 805
159 46 856
160 268 199
161 837 819
162 625 636
163 250 650
164 165 167
165 450 924
166 975 100
167 822 545
168 148 707
169 866 77
170 814 172
171 335 318
172 389 801
173 104 468
174 443 511
175 764 323
176 631 938
177 762 744
178 376 930
179 350 537
180 569 883
181 152 396
182 481 356
183 598 964
184 232 267
185 613 98
186 714 334
187 14 540
188 701 695
189 220 306
190 497 271
191 265 137
192 981 259
193 432 580
194 77 946
195 699 51
196 93 860
197 316 369
198 883 505
199 836 775
200 650 638
201 768 280
202 473 396
203 63 935
204 137 774
205 344 230
206 712 37
207 184 58
208 434 502
209 149 342
210 292 48
211 402 160
212 365 500
213 287 35
214 394 695
215 674 817
216 109 754
217 187 972
218 802 453
219 5 16
220 421 581
221 720 439
222 333 681
223 981 743
224 411 723
225 278 830
226 459 907
227 999 105
228 603 751
229 512 804
230 642 674
231 22 715
232 449 0
233 631 543
234 299 63
235 440 40
236 362 758
237 833 46
238 942 561
239 845 191
240 487 372
241 796 267
242 59 660
243 114 909
244 59 523
245 542 96
246 910 182
247 958 201
248 392 55
249 532 197
250 795 674
251 904 278
252 932 486
253 469 41
254 612 196
255 904 116
256 916 259
257 355 511
258 556 113
259 665 33
260 581 564
261 919 134
262 143 600
263 846 339
264 879 221
265 49 668
266 103 407
267 700 164
268 962 709
269 873 240
270 942 75
271 425 254
272 936 548
273 605 53
274 135 777
275 954 503
276 392 27
277 446 20
278 368 126
279 692 278
280 940 181
281 815 137
282 855 406
283 558 105
284 32 642
285 927 542
286 899 656
287 147 552
288 51 598
289 701 98
290 951 209
291 803 252
292 221 667
293 497 189
294 144 710
295 970 224
296 846 297
297 830 215
298 643 508
299 547 83
300 553 109
301 665 197
302 858 263
303 684 243
304 719 138
305 555 90
306 819 130
307 519 199
308 135 327
309 892 158
310 843 154
311 817 538
312 572 220
313 928 76
314 932 244
315 564 209
316 828 691
317 111 810
318 911 116
319 929 534
320 140 724
321 783 521
322 894 520
323 132 648
324 571 47
325 886 325
326 614 103
327 107 612
328 34 850
329 558 230
330 53 665
331 969 251
332 994 370
333 648 174
334 891 360
335 912 670
336 471 261
337 147 549
338 680 222
339 807 474
340 421 10
341 440 68
342 836 278
343 903 428
344 744 268
345 845 444
346 486 196
347 119 715
348 902 674
349 950 493
350 539 216
351 850 514
352 853 259
353 553 256
354 424 39
355 594 76
356 0 651
357 0 706
358 557 264
359 839 228
360 778 365
361 414 128
362 374 22
363 467 24
364 910 196
365 960 708
366 736 566
367 793 528
368 689 62
369 197 718
370 70 923
371 0 609
372 968 307
373 472 47
374 840 480
375 798 105
376 555 110
377 869 531
378 924 360
379 829 181
380 865 507
381 54 462
382 756 524
383 585 61
384 666 236
385 917 287
386 919 199
387 94 553
DEMAND_SECTION
2 19
3 56
4 71
5 90
6 5
7 34
8 47
9 56
10 53
11 87
12 28
13 15
14 89
15 60
16 85
17 41
18 52
19 74
20 63
21 72
22 82
23 35
24 48
25 39
26 46
27 78
28 41
29 15
30 77
31 30
32 72
33 93
34 53
35 95
36 29
37 90
38 82
39 73
40 18
41 69
42 31
43 99
44 46
45 92
46 66
47 4
48 27
49 99
50 27
51 3
52 14
53 7
54 16
55 15
56 61
57 39
58 26
59 97
60 3
61 71
62 80
63 10
64 64
65 14
66 4
67 8
68 88
69 11
70 21
71 51
72 3
73 68
74 74
75 44
76 95
77 3
78 67
79 4
80 23
81 19
82 39
83 45
84 49
85 15
86 58
87 96
88 95
89 2
90 41
91 37
92 29
93 62
94 1
95 62
96 68
97 23
98 12
99 74
COVERAGE_SECTION
2 11 226 165 17 75 138 50 98 72 133 229 5 
3 9 267 82 304 301 338 333 303 384 289 
4 11 92 202 182 240 54 45 153 171 197 63 41 
5 11 172 64 50 138 149 118 236 224 129 229 2 
6 11 16 193 220 57 102 142 260 40 174 134 129 
7 11 228 25 91 134 62 230 215 188 229 162 200 
8 11 39 278 248 22 362 276 361 234 354 341 210 
9 11 181 126 53 93 209 266 100 112 128 308 173 
10 11 344 201 279 117 175 303 186 241 291 338 150 
11 9 247 290 280 295 386 364 77 246 314 
12 11 68 266 48 93 53 308 126 381 112 209 181 
13 5 206 195 259 368 289 
14 10 312 329 315 87 353 350 358 249 122 254 
15 10 292 155 369 168 56 294 320 323 163 67 
16 11 260 40 6 137 32 152 233 162 102 142 134 
17 11 75 72 2 229 133 226 180 138 50 165 62 
18 11 374 34 345 76 339 218 351 380 123 146 198 
19 11 106 306 83 169 281 375 310 237 255 318 170 
20 11 183 108 94 176 107 133 130 180 114 75 62 
21 11 160 135 31 51 191 205 22 39 120 278 184 
22 11 39 278 8 191 234 21 210 211 361 120 248 
23 9 84 284 356 265 330 242 357 231 371 
24 11 164 119 115 136 120 207 191 44 160 31 184 
25 11 7 228 188 230 215 91 134 200 162 177 62 
26 11 80 141 217 178 109 60 225 144 65 98 158 
27 9 385 251 256 325 314 372 302 296 269 
28 8 316 348 89 113 286 335 250 199 
29 11 190 41 336 45 353 358 156 148 350 329 87 
30 11 49 140 70 161 74 199 89 223 121 113 28 
31 11 160 51 135 21 184 205 191 136 189 63 120 
32 11 152 40 233 298 260 137 16 99 69 38 145 
33 10 283 305 376 258 300 355 299 245 383 185 
34 11 339 76 374 18 123 218 345 351 380 321 367 
35 11 36 343 131 378 47 332 334 43 252 37 349 
36 11 131 47 378 334 35 343 282 325 43 263 345 
37 11 349 252 275 319 285 322 272 198 238 343 380 
38 11 221 66 111 150 132 69 99 298 186 32 117 
39 11 22 278 8 234 361 248 211 191 210 21 213 
40 11 260 32 16 137 152 233 298 162 102 6 99 
41 11 29 190 336 45 353 358 156 271 148 182 350 
42 9 277 363 235 253 232 373 354 340 341 
43 11 372 332 378 27 35 385 47 36 192 334 325 
44 11 219 119 207 24 115 164 120 191 136 213 210 
45 10 336 41 190 29 271 182 4 156 240 92 
46 11 158 65 116 109 225 60 369 141 154 204 274 
47 11 334 36 378 131 325 263 282 35 343 27 43 
48 11 381 112 173 266 12 125 244 187 124 93 88 
49 11 140 30 161 70 199 74 89 121 223 113 28 
50 11 138 5 64 172 2 118 17 72 149 229 226 
51 11 31 135 160 21 184 205 63 136 189 191 171 
52 11 86 95 101 169 313 270 237 255 318 19 79 
53 11 126 93 181 9 209 308 266 128 68 112 96 
54 11 240 202 182 92 99 4 153 148 45 41 29 
55 9 352 302 359 269 71 342 297 264 291 
56 9 155 292 15 262 323 163 327 168 369 
57 11 129 224 214 149 6 64 61 91 134 193 220 
58 11 103 197 157 96 171 147 189 128 100 9 184 
59 11 208 174 212 153 85 257 142 102 179 220 193 
60 11 109 65 141 46 158 225 116 243 217 317 274 
61 11 222 214 236 224 127 143 81 149 154 73 129 
62 11 180 133 215 228 72 7 107 229 17 75 25 
63 10 171 205 271 135 51 197 103 45 31 4 
64 11 5 138 50 149 172 229 129 224 72 118 236 
65 11 60 109 46 116 158 141 225 204 274 317 67 
66 11 221 38 360 69 150 218 186 339 175 117 382 
67 9 320 294 168 204 347 216 274 369 116 
68 11 12 308 209 93 53 266 126 181 9 128 48 
69 11 298 221 145 382 66 233 38 366 321 32 137 
70 11 30 49 74 140 161 199 121 114 89 223 113 
71 11 359 297 291 55 352 241 239 302 342 269 379 
72 11 229 17 75 138 2 50 180 133 64 62 226 
73 11 81 222 61 179 214 163 220 193 143 257 224 
74 11 114 70 49 30 121 161 140 176 215 199 107 
75 11 17 133 2 180 226 72 165 108 94 107 229 
76 11 34 123 374 351 18 339 146 380 311 367 167 
77 11 247 11 295 290 280 105 331 192 386 227 246 
78 10 203 370 97 194 159 328 139 243 196 144 
79 10 318 261 255 309 313 270 166 246 280 169 
80 11 26 178 141 98 165 225 118 109 226 60 217 
81 11 73 222 61 214 163 143 127 179 220 224 292 
82 7 267 3 304 289 301 333 338 
83 11 375 19 106 306 237 281 169 95 310 86 170 
84 9 23 356 284 265 357 330 242 231 371 
85 11 212 257 179 59 208 157 174 153 147 142 220 
86 11 95 52 169 237 101 313 270 19 255 83 106 
87 10 350 329 315 14 312 249 307 353 358 110 
88 11 124 387 244 125 288 287 327 337 187 90 262 
89 11 113 28 348 365 268 335 104 223 286 199 316 
90 11 371 288 187 284 356 23 84 88 244 125 124 
91 11 134 228 7 230 25 162 229 57 200 129 62 
92 11 4 202 240 182 54 153 45 59 41 29 190 
93 11 53 126 181 9 209 266 308 68 128 112 12 
94 11 108 20 183 107 130 133 176 180 75 17 226 
95 11 86 52 169 237 101 313 19 83 106 270 255 
96 11 189 128 184 209 308 58 136 53 9 126 103 
97 11 203 194 78 370 243 144 159 139 328 196 217 
98 11 165 226 178 2 130 75 80 17 50 138 94 
99 11 54 152 32 38 240 202 182 298 148 153 40 
100 11 147 9 181 126 53 93 112 157 58 173 266 
101 11 52 313 270 86 95 169 166 318 255 79 261 
102 11 142 174 208 193 59 153 220 152 6 16 40 
103 11 197 58 171 157 96 63 189 128 147 184 4 
104 8 365 268 335 113 348 286 89 223 
105 11 192 331 295 290 314 247 11 372 77 256 385 
106 11 19 306 281 83 310 375 169 170 255 237 309 
107 11 108 176 180 133 183 20 94 114 75 62 17 
108 11 94 20 183 107 133 176 180 130 75 17 114 
109 11 60 141 65 225 158 46 116 26 154 204 217 
110 8 293 346 156 307 249 350 87 336 
111 11 132 150 186 117 38 279 148 303 384 122 10 
112 11 173 266 381 48 181 9 126 93 53 125 244 
113 10 89 348 335 104 365 268 286 28 223 316 
114 11 176 107 183 20 215 74 121 108 180 62 94 
115 11 207 120 164 191 24 210 213 234 44 160 22 
116 11 204 274 65 46 67 317 60 216 320 369 109 
117 11 186 150 279 10 175 344 201 111 303 360 132 
118 11 172 5 236 50 154 138 149 127 64 225 178 
119 11 24 164 44 136 115 68 207 308 219 120 209 
120 11 191 115 207 234 210 22 21 213 160 164 39 
121 11 215 177 161 114 199 74 25 188 62 7 49 
122 9 254 384 14 312 301 338 303 315 329 
123 11 76 367 311 34 321 339 167 351 374 146 18 
124 11 88 387 244 125 288 287 337 187 327 173 90 
125 11 244 124 88 187 387 381 173 288 48 90 112 
126 11 53 93 181 9 209 266 308 128 112 68 100 
127 11 154 143 236 61 222 158 118 172 225 149 214 
128 11 96 189 209 308 53 126 9 93 184 181 136 
129 11 57 224 149 214 64 61 5 236 172 229 138 
130 11 94 108 20 98 183 165 75 226 133 107 2 
131 11 36 343 282 47 334 35 378 345 263 325 18 
132 11 111 150 148 279 186 117 38 122 358 384 303 
133 11 180 75 107 108 17 94 62 72 183 20 176 
134 11 91 7 228 230 162 25 200 57 6 16 229 
135 11 51 31 21 160 205 184 63 191 22 171 136 
136 11 184 189 31 164 96 128 51 160 24 308 209 
137 11 233 260 40 298 32 162 16 200 145 152 69 
138 11 50 5 64 2 172 72 17 229 118 226 149 
139 9 196 159 328 317 243 370 78 203 194 
140 11 49 30 161 199 89 70 74 223 113 28 121 
141 11 109 60 225 65 158 46 26 80 116 217 154 
142 11 102 174 208 193 59 220 153 6 212 152 257 
143 11 127 154 222 61 236 158 81 163 46 292 214 
144 11 217 194 243 203 370 97 78 196 60 139 26 
145 9 366 233 69 382 298 137 200 321 367 
146 9 351 377 380 76 167 311 198 123 322 
147 11 157 100 58 85 257 212 103 197 179 9 181 
148 11 358 353 29 41 132 190 14 329 111 312 87 
149 11 224 5 64 236 172 129 214 61 50 118 57 
150 11 186 117 111 279 175 132 10 66 360 38 344 
151 10 296 342 302 352 263 241 55 291 325 71 
152 11 32 40 260 99 16 102 233 298 137 142 174 
153 11 59 208 174 202 92 102 142 54 4 240 212 
154 11 127 143 236 158 225 118 172 61 46 222 149 
155 10 292 56 15 163 369 323 168 262 294 320 
156 10 346 110 293 307 249 350 336 87 190 29 
157 11 147 58 197 103 85 212 257 100 179 171 59 
158 11 46 225 65 109 154 141 60 116 127 143 369 
159 8 328 139 196 78 370 317 203 243 
160 11 31 21 51 135 191 184 205 136 120 22 164 
161 11 199 140 49 30 121 177 89 28 74 316 113 
162 11 200 230 137 134 260 16 233 188 91 25 40 
163 11 292 155 56 15 81 369 222 73 143 168 262 
164 11 24 136 115 120 119 191 160 207 31 184 21 
165 11 226 98 2 75 178 17 130 50 138 72 133 
166 11 227 270 313 79 261 318 255 101 77 280 52 
167 7 311 367 146 123 351 321 76 
168 8 294 320 347 67 15 369 216 323 
169 11 95 86 19 106 237 52 255 83 318 313 79 
170 10 379 310 281 239 306 297 71 359 106 375 
171 11 63 197 103 58 205 51 4 135 271 184 189 
172 11 118 5 149 236 50 64 138 154 224 127 61 
173 11 112 381 266 48 125 244 124 88 387 181 9 
174 11 208 142 102 59 153 193 220 212 85 257 179 
175 10 201 360 117 186 10 344 241 150 151 291 
176 11 107 183 20 114 108 94 180 133 62 75 130 
177 9 250 188 199 121 316 28 161 25 215 
178 11 80 98 165 226 2 26 118 50 138 172 5 
179 11 257 212 85 59 220 73 208 193 174 142 81 
180 11 133 107 75 62 108 17 94 72 176 183 20 
181 11 9 126 53 93 266 209 112 308 100 128 173 
182 11 240 54 202 92 4 45 41 29 190 148 336 
183 11 20 108 94 176 107 133 180 130 114 75 62 
184 11 189 136 51 96 31 128 160 135 21 209 308 
185 3 326 355 33 
186 11 150 117 175 279 10 111 360 344 201 132 66 
187 11 125 90 244 88 124 288 371 387 381 48 284 
188 8 25 230 200 177 162 250 7 228 
189 11 96 128 184 136 209 308 51 58 103 53 31 
190 11 29 41 336 45 353 358 156 350 110 87 329 
191 11 120 21 160 22 31 39 234 115 135 210 51 
192 11 105 331 295 372 314 290 247 256 11 385 77 
193 11 220 142 6 102 174 208 179 59 73 257 212 
194 11 203 370 97 243 78 144 196 139 159 328 217 
195 5 368 206 259 13 289 
196 10 139 159 243 317 328 370 203 78 194 274 
197 11 103 58 171 157 63 4 96 147 189 128 92 
198 11 380 322 377 351 146 374 252 76 319 285 18 
199 11 161 28 177 89 316 140 49 113 250 121 348 
200 9 162 230 137 188 145 25 233 134 260 
201 11 344 241 10 175 291 117 151 342 71 186 279 
202 11 54 240 92 182 4 153 99 45 59 208 41 
203 11 370 194 78 97 243 139 159 196 144 328 217 
204 9 274 67 216 116 317 320 347 294 168 
205 10 135 63 51 21 31 160 271 171 211 278 
206 5 195 13 368 259 289 
207 11 115 120 213 210 164 24 191 234 44 22 119 
208 11 174 59 142 102 153 212 85 193 220 257 179 
209 11 308 53 93 126 128 181 9 68 96 189 266 
210 11 213 234 8 39 22 120 362 191 248 276 115 
211 7 361 278 39 8 22 205 346 
212 11 85 257 179 59 208 174 157 153 142 220 193 
213 11 210 234 362 8 120 39 22 191 276 115 207 
214 11 224 61 129 149 222 57 236 81 73 127 143 
215 11 121 62 25 7 228 114 177 180 188 107 176 
216 8 204 274 67 347 320 294 317 168 
217 11 144 26 243 60 194 141 109 370 203 65 80 
218 11 339 34 18 345 374 76 123 282 321 367 351 
219 11 44 119 207 115 24 164 120 213 191 210 136 
220 11 193 142 174 6 102 208 179 73 59 257 212 
221 11 66 69 38 218 382 339 360 150 298 321 186 
222 11 81 61 73 143 214 127 236 163 224 154 149 
223 10 268 365 113 104 89 335 348 286 28 140 
224 11 149 214 129 61 57 236 64 5 172 222 127 
225 11 158 141 109 46 154 65 60 127 118 143 116 
226 11 165 2 98 75 17 138 50 178 72 130 133 
227 11 166 270 313 77 79 261 318 101 255 280 247 
228 11 7 91 25 134 62 230 215 229 188 162 72 
229 11 72 17 64 138 50 62 75 5 2 180 133 
230 11 200 162 25 188 134 7 228 91 137 260 145 
231 3 357 23 84 
232 9 277 42 340 363 235 253 354 373 276 
233 11 137 298 32 40 260 145 69 152 16 162 200 
234 11 210 213 22 39 8 120 191 362 248 278 276 
235 9 354 42 277 341 253 363 373 340 232 
236 11 127 154 149 172 61 224 118 143 214 5 222 
237 11 95 86 169 83 52 19 106 375 306 101 281 
238 7 272 285 319 275 322 349 37 
239 7 379 297 170 310 359 264 71 
240 11 182 54 202 92 4 45 153 99 41 29 148 
241 11 291 201 342 71 151 344 55 296 352 359 297 
242 5 330 265 284 23 84 
243 11 370 194 196 203 139 144 78 159 97 217 317 
244 11 125 124 88 387 187 381 173 288 90 48 112 
245 7 299 305 300 283 376 258 33 
246 5 364 386 280 309 11 
247 11 11 290 295 280 77 386 364 314 331 246 105 
248 9 276 354 362 8 235 341 340 277 42 
249 10 307 350 87 315 110 293 329 312 346 156 
250 3 316 28 177 
251 8 385 27 256 314 302 269 325 352 
252 11 37 349 275 319 322 198 285 272 343 380 238 
253 6 373 363 42 235 277 341 
254 6 122 333 312 315 301 14 
255 10 318 79 261 309 313 169 270 19 106 246 
256 7 251 314 385 27 269 264 331 
257 11 212 85 179 59 208 174 157 220 142 193 147 
258 6 376 300 283 245 305 33 
259 5 195 368 206 13 273 
260 11 40 16 137 233 32 152 162 298 6 200 145 
261 9 79 318 255 309 246 280 313 270 364 
262 8 327 287 323 337 56 387 88 124 
263 10 296 325 151 334 47 342 282 360 302 27 
264 4 269 364 55 359 
265 5 330 242 23 284 84 
266 11 112 93 126 181 53 9 12 173 48 381 68 
267 8 3 82 304 301 333 338 289 384 
268 9 365 104 223 113 89 335 348 286 28 
269 6 264 55 302 352 359 256 
270 11 313 101 166 318 79 255 52 261 227 86 169 
271 10 45 336 41 190 156 63 29 205 346 110 
272 8 285 238 319 275 322 37 349 252 
273 6 383 355 324 185 326 33 
274 9 204 216 67 317 116 320 347 294 168 
275 11 349 37 252 319 285 272 238 322 198 377 380 
276 11 362 248 340 354 235 277 42 232 341 8 363 
277 9 42 232 235 363 340 354 253 373 341 
278 8 39 8 22 361 211 248 341 234 
279 11 303 10 117 384 344 338 186 150 111 201 132 
280 9 11 247 386 246 290 364 261 295 77 
281 10 306 310 106 170 375 19 379 83 239 169 
282 11 131 345 343 36 334 47 18 263 218 374 34 
283 7 300 376 258 305 245 33 299 
284 9 23 265 330 84 242 356 371 288 90 
285 10 319 272 238 322 275 37 349 252 198 377 
286 5 348 335 104 113 28 
287 11 337 262 387 124 88 327 56 244 173 125 323 
288 9 90 284 371 88 327 124 387 242 330 
289 5 368 304 195 82 206 
290 10 11 247 295 280 386 314 364 331 77 246 
291 11 241 71 342 359 201 55 297 352 151 302 344 
292 11 155 163 15 56 369 168 294 323 143 320 262 
293 7 110 346 156 307 249 350 87 
294 8 168 320 347 67 15 369 216 323 
295 10 290 247 331 105 11 192 314 77 280 386 
296 10 151 342 302 352 263 55 325 241 251 291 
297 10 359 71 239 379 55 170 291 264 269 352 
298 11 233 69 32 137 145 40 260 152 38 221 366 
299 7 305 245 283 300 376 33 258 
300 7 376 258 283 245 305 33 299 
301 9 333 338 384 3 267 303 254 122 82 
302 10 352 55 269 342 296 359 151 71 264 251 
303 11 384 338 279 301 10 122 344 3 333 117 267 
304 7 82 267 3 289 301 333 368 
305 7 299 245 283 300 376 33 258 
306 10 281 106 19 375 310 170 83 379 239 169 
307 10 249 110 293 350 346 87 156 315 329 312 
308 11 209 53 68 93 126 128 181 9 96 266 189 
309 8 246 261 364 255 79 318 310 386 
310 9 379 281 170 306 239 106 19 309 297 
311 8 167 367 123 146 321 76 351 377 
312 9 14 315 329 87 350 353 249 358 254 
313 11 270 101 318 79 255 52 166 261 86 169 95 
314 8 256 331 290 295 251 385 386 11 
315 9 312 87 14 329 350 249 307 353 254 
316 7 28 250 348 286 199 177 335 
317 8 274 204 196 216 139 116 67 159 
318 11 255 79 261 313 309 270 169 166 246 19 280 
319 10 285 272 238 322 275 37 349 252 198 377 
320 9 294 67 168 347 216 204 274 369 15 
321 11 367 382 123 311 167 76 339 34 366 351 146 
322 10 198 377 380 319 285 146 351 272 252 37 
323 5 327 262 56 168 294 
324 6 383 273 355 299 305 33 
325 10 334 27 47 263 296 385 251 378 151 36 
326 3 185 355 33 
327 5 262 323 288 387 88 
328 7 159 139 196 78 370 317 203 
329 10 14 87 312 315 350 353 358 249 307 122 
330 5 265 242 284 23 84 
331 10 192 105 295 314 290 247 256 11 372 385 
332 11 43 35 372 378 36 47 334 131 343 192 27 
333 5 301 254 267 3 338 
334 10 47 36 378 325 131 263 282 27 35 343 
335 8 348 286 104 113 365 89 268 28 
336 10 41 190 45 29 271 156 110 346 293 307 
337 11 287 262 387 124 88 327 56 173 244 125 323 
338 11 384 303 301 3 279 333 122 267 82 254 10 
339 11 34 218 18 76 374 123 345 321 367 351 311 
340 11 277 354 232 42 276 235 363 362 248 253 341 
341 6 235 354 373 253 42 277 
342 10 151 296 352 302 55 241 291 71 359 269 
343 11 131 36 35 282 345 47 252 334 378 37 18 
344 11 10 201 241 279 117 175 291 303 186 338 384 
345 11 18 374 282 218 34 339 76 343 131 380 351 
346 7 110 293 156 307 249 350 87 
347 6 320 294 168 67 216 204 
348 8 335 286 113 104 28 89 365 268 
349 11 37 275 252 319 285 272 322 198 238 343 35 
350 11 87 249 329 307 315 14 312 353 110 293 358 
351 10 146 380 377 76 198 374 123 311 167 322 
352 9 302 55 342 269 359 296 71 151 264 
353 11 358 329 14 87 312 350 315 148 29 190 249 
354 10 235 277 340 42 341 276 248 253 232 363 
355 9 383 273 33 185 326 324 305 283 299 
356 11 84 23 284 371 265 330 357 242 90 231 288 
357 4 231 84 23 356 
358 11 353 329 14 148 312 87 350 315 29 190 41 
359 9 71 297 55 352 269 239 302 264 291 
360 10 175 186 263 66 117 150 151 201 282 218 
361 6 211 278 341 8 39 248 
362 11 276 248 340 354 8 235 277 42 232 341 234 
363 7 42 253 277 373 232 235 354 
364 5 386 246 280 264 11 
365 9 268 104 223 113 89 335 348 286 28 
366 6 145 382 321 367 311 69 
367 10 321 123 311 167 382 76 34 339 146 351 
368 5 195 206 259 289 13 
369 11 15 168 294 292 320 67 155 347 46 116 204 
370 11 203 194 78 243 97 139 196 159 328 144 317 
371 10 90 356 284 288 84 23 187 265 330 242 
372 11 43 192 385 331 27 105 332 378 251 256 314 
373 6 253 363 42 235 277 341 
374 11 18 34 76 339 351 345 380 123 146 218 198 
375 11 83 306 281 106 19 310 170 237 169 379 304 
376 6 300 258 283 245 305 33 
377 8 146 380 351 322 198 167 76 311 
378 11 47 36 334 43 35 325 131 27 372 332 343 
379 8 170 239 310 297 281 359 71 306 
380 10 351 198 146 377 322 76 374 18 34 123 
381 11 48 173 112 125 244 266 124 187 12 88 387 
382 10 321 367 366 123 311 145 167 339 69 34 
383 7 355 324 273 33 305 299 185 
384 10 303 338 301 122 279 333 254 3 10 267 
385 8 27 251 256 314 325 372 331 269 
386 6 364 246 280 11 290 247 
387 11 88 124 244 125 287 337 327 288 262 187 173 
DEPOT_SECTION
   1
   -1
EOF
