NAME :  X-n429-kX-w42-c9.cctp
COMMENT : 	Adapted by Maziero, Usberti and Cavellucci from the Uchoa, Pecin, Pessoa, Poggi, Subramanian, and Vidal (2013)
TYPE :  CCTP
DIMENSION :    277
EDGE_WEIGHT_TYPE : 	EUC_2D	
CAPACITY : 	536
VERTICES_WITHIN_COVERAGE :  9
VERTICES_WITH_DEMAND : 	42
NODE_COORD_SECTION
1 238 446
2 749 750
3 960 879
4 914 116
5 517 477
6 554 143
7 850 488
8 739 177
9 229 160
10 539 573
11 901 821
12 787 399
13 974 203
14 89 387
15 561 27
16 103 139
17 174 826
18 40 578
19 359 23
20 440 649
21 588 265
22 182 275
23 401 993
24 751 564
25 797 274
26 756 252
27 871 882
28 693 417
29 710 620
30 960 422
31 530 904
32 124 126
33 67 587
34 440 336
35 219 38
36 609 504
37 936 474
38 800 689
39 358 530
40 914 753
41 210 96
42 95 816
43 441 389
44 506 963
45 545 892
46 59 618
47 698 385
48 977 931
49 951 91
50 439 290
51 756 147
52 252 284
53 588 168
54 895 501
55 759 442
56 967 855
57 888 148
58 442 18
59 847 877
60 683 267
61 446 301
62 997 815
63 613 331
64 704 494
65 265 216
66 511 373
67 981 261
68 723 558
69 839 828
70 803 737
71 589 252
72 277 82
73 904 681
74 474 908
75 609 185
76 346 382
77 158 866
78 572 161
79 704 828
80 142 331
81 672 178
82 827 566
83 728 793
84 888 917
85 718 636
86 792 283
87 866 141
88 682 640
89 299 23
90 358 22
91 27 552
92 220 76
93 128 795
94 167 789
95 827 698
96 68 190
97 561 928
98 719 595
99 152 111
100 486 302
101 877 775
102 62 854
103 581 299
104 37 832
105 778 453
106 194 65
107 939 983
108 719 709
109 845 806
110 753 610
111 384 707
112 741 825
113 457 590
114 35 357
115 518 607
116 249 16
117 724 269
118 567 58
119 865 296
120 813 784
121 426 19
122 116 881
123 961 860
124 388 315
125 433 70
126 264 540
127 76 564
128 42 866
129 988 538
130 77 75
131 46 609
132 761 523
133 954 696
134 22 882
135 682 723
136 8 378
137 469 286
138 502 45
139 104 123
140 638 65
141 806 705
142 87 388
143 70 459
144 736 661
145 635 631
146 808 238
147 761 524
148 84 342
149 509 878
150 98 641
151 835 478
152 33 673
153 193 813
154 702 480
155 748 318
156 925 844
157 814 904
158 59 627
159 845 468
160 904 365
161 613 161
162 532 267
163 382 505
164 603 595
165 166 753
166 554 159
167 925 3
168 667 660
169 355 936
170 852 837
171 381 911
172 554 116
173 387 383
174 908 985
175 85 31
176 861 58
177 348 13
178 850 535
179 393 995
180 680 498
181 115 593
182 466 983
183 477 550
184 406 531
185 596 274
186 550 949
187 354 963
188 856 708
189 493 303
190 557 353
191 910 91
192 833 437
193 72 12
194 94 829
195 619 456
196 516 212
197 655 419
198 439 945
199 523 905
200 13 539
201 827 661
202 788 713
203 455 357
204 200 213
205 982 944
206 199 197
207 859 498
208 855 650
209 605 903
210 791 757
211 291 577
212 490 126
213 25 95
214 20 522
215 121 204
216 755 392
217 549 56
218 84 184
219 953 127
220 108 836
221 76 779
222 45 791
223 791 266
224 854 741
225 162 83
226 110 342
227 987 835
228 339 605
229 508 883
230 946 885
231 986 694
232 309 48
233 873 461
234 949 410
235 890 388
236 704 356
237 469 110
238 687 142
239 158 154
240 471 294
241 439 348
242 730 134
243 698 366
244 219 270
245 728 209
246 137 420
247 814 593
248 60 763
249 226 7
250 613 135
251 989 857
252 904 996
253 828 569
254 951 678
255 819 618
256 991 254
257 253 75
258 840 877
259 260 38
260 620 219
261 417 647
262 938 810
263 898 705
264 507 121
265 154 615
266 993 267
267 817 539
268 527 863
269 555 502
270 439 480
271 237 9
272 79 432
273 636 429
274 454 640
275 734 311
276 946 827
277 523 585
DEMAND_SECTION
2 55
3 64
4 100
5 66
6 68
7 95
8 67
9 100
10 75
11 65
12 98
13 100
14 66
15 82
16 84
17 89
18 62
19 64
20 87
21 94
22 75
23 53
24 99
25 85
26 87
27 83
28 82
29 78
30 84
31 67
32 61
33 56
34 63
35 98
36 79
37 95
38 92
39 51
40 66
41 50
42 82
43 66
COVERAGE_SECTION
2 9 210 83 108 202 70 120 135 141 112 
3 9 230 123 56 251 156 227 276 48 205 
4 6 191 57 219 49 87 176 
5 5 269 270 183 36 10 
6 9 166 78 172 53 264 250 161 212 75 
7 8 207 151 159 233 54 178 192 267 
8 6 51 245 242 238 81 26 
9 8 206 204 41 65 239 92 257 99 
10 6 277 115 183 164 269 113 
11 9 156 262 276 101 170 109 69 27 40 
12 8 216 55 105 192 47 155 159 151 
13 8 256 67 266 219 57 4 49 87 
14 7 142 148 272 226 246 114 143 
15 8 217 118 138 140 172 264 6 58 
16 9 139 32 218 99 239 96 215 130 225 
17 9 153 94 77 93 220 165 42 122 194 
18 9 33 91 131 127 46 200 158 214 181 
19 9 90 177 232 89 121 58 125 259 72 
20 7 274 261 113 111 115 277 183 
21 9 185 71 103 162 260 63 75 196 190 
22 5 244 204 80 52 206 
23 8 179 187 198 182 169 171 44 74 
24 9 68 147 132 98 110 29 247 267 82 
25 8 86 223 146 26 155 119 117 275 
26 9 117 223 25 86 245 146 275 155 60 
27 9 59 258 84 170 157 69 156 11 230 
28 9 47 197 243 273 236 154 216 55 64 
29 9 85 98 88 110 144 168 68 24 145 
30 9 234 37 235 160 233 54 129 159 207 
31 9 199 45 229 149 97 268 186 74 44 
32 9 139 16 99 239 225 130 218 215 96 
33 9 127 18 131 46 158 181 91 150 200 
34 9 241 203 61 50 240 43 124 100 137 
35 9 249 271 106 116 92 259 257 41 72 
36 9 195 269 180 273 164 5 64 154 197 
37 9 54 30 233 234 207 129 7 159 235 
38 9 141 202 95 201 70 188 208 210 144 
39 6 163 184 228 211 126 270 
40 9 101 263 224 262 11 133 73 188 276 
41 9 92 106 257 225 35 99 9 72 259 
42 9 194 220 93 221 102 222 104 248 122 
43 9 203 241 34 173 66 61 124 270 76 
44 9 182 186 199 31 74 97 198 229 45 
45 9 31 199 268 229 97 149 186 209 74 
46 9 158 131 33 18 150 127 152 181 91 
47 7 243 236 28 197 216 273 275 
48 9 205 3 230 107 123 251 56 174 84 
49 8 219 191 4 57 167 176 87 13 
50 8 61 137 240 34 100 189 124 241 
51 2 242 8 
52 6 244 65 22 204 206 80 
53 9 78 161 75 166 250 6 260 172 71 
54 9 207 233 7 37 178 159 151 267 192 
55 8 105 216 12 154 28 192 64 132 
56 9 123 251 3 227 276 230 156 62 262 
57 4 87 4 191 219 
58 9 121 125 138 19 90 177 237 217 212 
59 8 258 27 170 157 69 84 109 11 
60 7 117 275 245 26 260 155 185 
61 8 50 240 137 34 100 189 241 203 
62 9 227 251 56 276 123 262 3 156 230 
63 7 103 185 190 21 71 243 236 
64 8 154 180 132 147 68 55 28 24 
65 5 204 9 52 206 244 
66 8 190 203 43 189 100 241 34 240 
67 8 256 266 13 119 160 219 57 234 
68 9 24 98 147 132 110 29 64 180 85 
69 8 170 109 258 59 120 11 27 101 
70 9 210 202 141 95 38 120 224 2 188 
71 9 21 185 260 103 162 75 63 196 53 
72 8 257 232 259 92 89 41 116 35 
73 8 263 254 133 188 208 40 224 95 
74 8 229 149 199 198 31 44 268 45 
75 9 161 53 260 78 250 166 81 6 71 
76 6 173 124 43 241 34 203 
77 7 17 122 220 153 194 93 94 
78 9 53 166 6 161 75 172 250 260 196 
79 3 112 83 2 
80 4 226 148 22 14 
81 9 238 161 75 245 260 8 242 250 53 
82 7 253 267 247 178 255 207 24 
83 6 112 79 2 210 108 135 
84 9 27 59 258 230 174 157 3 252 156 
85 8 29 144 88 98 110 168 108 68 
86 8 25 223 26 146 155 275 117 119 
87 3 57 4 191 
88 6 168 29 85 145 98 144 
89 9 232 259 116 177 90 19 72 271 257 
90 9 19 177 232 89 121 58 125 259 72 
91 8 200 18 214 127 33 131 46 158 
92 9 41 106 257 35 259 72 225 116 249 
93 9 42 94 220 194 221 17 165 153 248 
94 8 153 165 17 93 220 42 77 194 
95 9 141 38 188 201 202 70 224 208 210 
96 6 218 215 16 139 32 239 
97 8 186 31 45 199 209 44 229 149 
98 9 29 68 110 85 24 88 144 147 132 
99 9 225 32 239 139 16 41 106 92 130 
100 8 189 240 137 61 50 34 162 203 
101 9 224 40 109 11 69 120 170 188 262 
102 8 128 104 194 134 220 42 122 222 
103 8 185 21 63 71 162 190 189 260 
104 9 102 128 222 134 194 42 221 220 248 
105 8 55 12 192 151 216 159 132 147 
106 9 92 41 35 225 257 99 249 259 271 
107 9 174 252 205 48 84 230 3 27 123 
108 7 135 2 144 202 168 85 88 
109 8 69 170 120 101 11 224 59 258 
110 9 98 29 85 24 144 68 247 255 88 
111 3 261 20 274 
112 4 83 79 2 120 
113 3 183 274 20 
114 6 136 148 142 14 226 272 
115 7 277 10 113 183 274 164 20 
116 9 271 249 259 35 89 257 92 232 72 
117 7 26 60 275 155 245 223 86 
118 8 217 15 172 138 140 6 264 250 
119 6 25 86 160 223 146 235 
120 8 210 109 70 69 224 101 170 2 
121 9 58 125 19 90 177 138 237 232 212 
122 5 77 220 194 102 42 
123 9 56 3 251 230 227 276 156 262 62 
124 8 34 50 61 241 173 76 203 137 
125 8 121 58 237 138 212 19 90 264 
126 3 211 39 228 
127 8 33 18 181 91 131 46 158 200 
128 8 102 134 104 194 220 42 222 122 
129 6 37 54 30 234 207 178 
130 7 175 139 213 193 16 32 99 
131 9 46 158 33 18 127 91 150 152 181 
132 8 147 24 68 267 64 105 154 82 
133 7 254 231 73 263 40 188 208 
134 7 128 102 104 194 122 222 42 
135 6 108 168 2 144 88 83 
136 5 114 142 14 148 272 
137 7 240 100 61 189 50 34 162 
138 9 217 15 58 118 125 237 264 121 212 
139 9 16 32 99 130 239 218 225 96 215 
140 5 118 250 15 217 238 
141 9 38 202 95 70 201 188 210 224 2 
142 7 14 272 148 226 246 114 143 
143 5 272 142 14 246 214 
144 9 85 29 108 110 88 98 168 38 202 
145 5 168 88 164 29 85 
146 5 223 25 86 26 119 
147 8 132 24 68 267 64 105 154 82 
148 5 226 14 142 114 80 
149 7 229 268 199 31 45 74 97 
150 7 158 46 181 131 33 265 152 
151 8 159 7 207 192 233 178 105 54 
152 7 158 46 131 150 33 248 18 
153 6 17 94 77 165 93 220 
154 8 64 180 28 55 132 147 197 68 
155 7 275 117 86 236 25 26 223 
156 9 276 11 262 123 56 230 3 227 251 
157 4 258 59 27 84 
158 8 46 131 33 150 18 152 127 181 
159 8 151 7 233 192 207 54 178 105 
160 9 235 234 119 30 192 233 37 159 12 
161 9 75 53 250 78 260 166 81 6 172 
162 8 189 21 196 100 71 103 185 137 
163 3 39 184 270 
164 7 145 10 277 115 36 88 168 
165 6 94 93 153 17 221 42 
166 9 6 78 53 172 161 264 75 250 196 
167 5 176 191 49 4 219 
168 6 88 145 85 29 135 144 
169 5 187 171 179 23 198 
170 8 69 109 59 258 27 11 120 101 
171 5 169 187 198 23 179 
172 9 6 166 264 78 118 217 53 250 212 
173 8 76 43 241 124 34 203 61 50 
174 8 252 107 84 205 48 230 27 3 
175 7 193 130 213 225 139 32 99 
176 4 191 4 87 167 
177 9 90 19 89 232 121 259 58 72 116 
178 9 267 207 82 253 7 54 151 159 247 
179 7 23 187 198 169 182 171 44 
180 9 64 154 36 68 195 28 273 197 132 
181 8 265 33 127 150 46 158 131 18 
182 9 44 198 23 179 74 186 199 31 229 
183 3 113 277 10 
184 2 163 39 
185 9 21 71 103 63 260 162 60 190 75 
186 9 97 44 31 199 45 209 229 149 74 
187 5 169 179 23 171 198 
188 9 95 224 263 141 73 201 208 38 70 
189 8 100 240 137 61 162 50 34 203 
190 8 66 103 63 189 100 185 162 21 
191 7 4 49 219 176 57 87 167 
192 9 159 151 233 7 105 12 207 55 235 
193 7 175 130 213 225 139 32 99 
194 9 42 220 102 93 221 122 104 222 128 
195 8 273 36 197 180 269 28 154 64 
196 5 162 166 78 6 71 
197 9 273 28 195 47 243 154 236 180 64 
198 8 182 74 23 171 179 44 169 187 
199 9 31 45 229 149 268 97 74 186 44 
200 7 214 91 18 127 33 131 46 
201 8 208 95 38 255 141 188 202 247 
202 9 141 38 70 95 210 2 201 188 108 
203 9 241 34 43 61 66 100 240 189 50 
204 8 206 9 244 22 65 239 215 52 
205 9 48 107 3 230 174 123 251 56 252 
206 9 204 9 239 65 244 215 22 99 41 
207 9 7 151 159 54 178 233 267 192 82 
208 7 201 255 95 73 188 38 247 
209 4 97 45 186 31 
210 8 70 120 2 202 141 224 38 95 
211 3 126 228 39 
212 7 264 237 172 6 166 125 138 
213 7 130 139 175 16 193 32 96 
214 6 200 91 18 127 33 143 
215 7 218 96 239 16 32 206 204 
216 8 12 55 47 236 243 105 28 155 
217 9 118 15 138 172 264 6 140 212 237 
218 7 96 215 16 139 32 239 99 
219 8 49 4 191 57 13 87 176 167 
220 9 194 42 93 122 102 77 221 17 104 
221 8 248 222 42 194 93 220 104 102 
222 9 248 221 104 42 194 102 128 220 93 
223 8 25 86 146 26 117 155 275 119 
224 9 188 101 70 95 263 120 141 40 210 
225 9 99 106 41 32 92 139 239 35 16 
226 4 148 80 14 142 
227 9 62 251 56 123 276 3 262 156 230 
228 4 211 39 261 126 
229 7 149 199 268 31 45 74 97 
230 9 3 123 56 156 251 48 276 227 84 
231 7 133 254 73 263 40 62 262 
232 9 89 72 259 177 90 19 257 116 271 
233 9 159 7 207 151 54 192 37 235 178 
234 9 30 235 160 37 233 54 159 192 7 
235 9 160 234 192 233 30 159 119 37 12 
236 7 243 47 275 155 28 216 197 
237 6 212 264 125 138 172 6 
238 5 81 242 8 51 250 
239 9 99 32 16 206 139 215 9 225 204 
240 8 137 100 189 61 50 34 241 203 
241 9 34 203 43 61 50 124 173 240 100 
242 3 51 8 238 
243 7 236 47 28 216 275 197 155 
244 6 52 22 204 65 206 80 
245 9 8 26 117 81 51 60 242 238 146 
246 5 14 142 272 143 226 
247 8 255 253 82 267 110 178 24 201 
248 7 221 222 42 104 194 93 220 
249 9 271 116 35 259 106 92 257 89 41 
250 8 161 53 78 75 6 172 166 81 
251 9 56 227 123 3 62 230 276 156 262 
252 8 174 107 84 205 48 27 230 157 
253 7 82 247 267 178 255 24 207 
254 6 133 231 73 263 40 188 
255 7 247 201 208 253 82 110 38 
256 8 67 266 13 119 219 160 57 4 
257 9 72 92 259 41 35 116 106 232 271 
258 7 59 27 157 170 69 84 109 
259 9 116 271 257 35 89 249 72 232 92 
260 9 75 71 21 161 53 185 81 78 60 
261 6 20 274 111 113 228 115 
262 9 276 156 11 56 123 227 62 40 251 
263 9 73 188 40 133 224 254 208 95 101 
264 8 212 237 172 6 166 78 138 217 
265 4 181 150 33 127 
266 8 67 256 13 119 160 219 234 30 
267 9 82 253 178 247 132 147 207 7 151 
268 7 149 229 45 31 199 74 97 
269 6 5 36 10 195 277 183 
270 3 184 163 5 
271 9 249 116 35 259 89 257 92 106 232 
272 5 143 142 14 246 114 
273 8 197 195 28 47 36 180 154 243 
274 7 20 261 113 115 277 183 111 
275 7 155 117 236 26 86 243 60 
276 9 262 156 56 123 227 11 62 251 3 
277 6 10 115 183 113 164 274 
DEPOT_SECTION
   1
   -1
EOF
