NAME :  X-n469-kX-w187-c7.cctp
COMMENT : 	Adapted by Maziero, Usberti and Cavellucci from the Uchoa, Pecin, Pessoa, Poggi, Subramanian, and Vidal (2013)
TYPE :  CCTP
DIMENSION :    461
EDGE_WEIGHT_TYPE : 	EUC_2D	
CAPACITY : 	256
VERTICES_WITHIN_COVERAGE :  7
VERTICES_WITH_DEMAND : 	187
NODE_COORD_SECTION
1 0 0
2 363 697
3 120 259
4 555 718
5 522 918
6 239 935
7 304 517
8 856 96
9 38 904
10 174 951
11 294 935
12 942 324
13 402 176
14 766 450
15 473 862
16 262 550
17 661 92
18 440 655
19 678 291
20 345 691
21 564 903
22 952 802
23 698 352
24 297 930
25 66 244
26 882 642
27 777 818
28 302 212
29 824 647
30 143 946
31 108 600
32 121 755
33 697 32
34 473 995
35 342 252
36 596 534
37 248 211
38 940 88
39 81 468
40 144 796
41 244 385
42 437 42
43 381 583
44 263 549
45 153 646
46 187 688
47 248 71
48 27 70
49 649 477
50 244 370
51 145 49
52 589 402
53 105 251
54 986 452
55 486 773
56 679 851
57 102 734
58 619 809
59 139 138
60 107 489
61 921 579
62 681 336
63 925 185
64 260 655
65 46 832
66 534 440
67 117 590
68 604 453
69 667 428
70 871 548
71 943 171
72 181 252
73 172 696
74 211 597
75 82 390
76 114 189
77 659 852
78 404 544
79 169 845
80 101 663
81 422 503
82 124 861
83 289 778
84 923 842
85 464 148
86 377 32
87 482 570
88 933 156
89 987 678
90 995 62
91 241 242
92 565 805
93 898 871
94 137 970
95 11 959
96 834 251
97 307 897
98 796 286
99 693 522
100 827 725
101 27 818
102 284 562
103 136 875
104 214 719
105 75 85
106 749 863
107 648 603
108 743 494
109 169 42
110 664 268
111 485 432
112 736 577
113 232 420
114 329 374
115 360 726
116 598 258
117 890 844
118 374 794
119 937 993
120 308 95
121 970 326
122 257 653
123 333 378
124 928 411
125 4 773
126 764 96
127 620 171
128 91 795
129 729 479
130 507 782
131 321 298
132 516 599
133 581 631
134 429 383
135 914 830
136 495 443
137 201 805
138 299 90
139 327 474
140 400 714
141 936 468
142 217 110
143 447 82
144 180 61
145 329 479
146 109 163
147 607 144
148 864 903
149 633 586
150 228 986
151 98 291
152 56 919
153 302 929
154 658 831
155 664 797
156 442 558
157 492 535
158 808 967
159 998 71
160 283 534
161 562 828
162 918 176
163 250 170
164 921 325
165 577 116
166 555 259
167 523 285
168 272 677
169 802 102
170 112 530
171 371 252
172 335 99
173 205 379
174 315 321
175 304 45
176 684 368
177 962 930
178 715 476
179 281 282
180 970 23
181 944 627
182 188 859
183 218 717
184 426 876
185 232 735
186 446 846
187 483 747
188 360 494
189 608 408
190 522 830
191 396 911
192 661 720
193 279 720
194 732 386
195 292 154
196 265 524
197 912 441
198 216 492
199 798 670
200 125 229
201 438 432
202 799 900
203 231 26
204 207 149
205 306 573
206 496 745
207 379 21
208 395 564
209 632 389
210 167 874
211 71 215
212 505 662
213 547 517
214 668 216
215 11 995
216 872 947
217 42 480
218 933 471
219 605 641
220 154 936
221 65 939
222 472 601
223 462 825
224 842 664
225 879 336
226 896 105
227 751 178
228 242 700
229 319 671
230 422 436
231 527 45
232 552 530
233 41 364
234 261 659
235 143 846
236 705 914
237 869 444
238 835 5
239 400 676
240 910 716
241 267 601
242 429 646
243 333 945
244 889 960
245 185 385
246 591 244
247 407 737
248 731 485
249 956 536
250 255 405
251 969 429
252 28 973
253 854 256
254 349 853
255 931 120
256 719 109
257 321 722
258 851 158
259 87 931
260 943 972
261 628 621
262 189 530
263 311 745
264 546 526
265 373 661
266 749 318
267 51 714
268 575 131
269 982 61
270 364 513
271 835 755
272 780 35
273 208 60
274 827 247
275 768 48
276 115 878
277 637 410
278 379 291
279 35 544
280 237 188
281 176 879
282 215 559
283 399 454
284 5 888
285 566 749
286 986 603
287 699 758
288 984 786
289 873 320
290 292 117
291 354 700
292 938 85
293 992 408
294 190 437
295 861 290
296 336 879
297 146 844
298 688 35
299 293 805
300 852 648
301 387 973
302 245 29
303 805 286
304 861 768
305 94 156
306 279 676
307 126 40
308 941 0
309 475 272
310 656 871
311 67 140
312 373 2
313 65 214
314 196 652
315 14 925
316 645 819
317 228 390
318 174 699
319 433 497
320 942 386
321 656 224
322 818 828
323 367 227
324 656 29
325 869 658
326 806 501
327 938 250
328 881 967
329 714 645
330 772 316
331 844 968
332 915 807
333 804 516
334 866 546
335 758 47
336 337 182
337 940 481
338 356 416
339 614 577
340 952 221
341 672 232
342 752 777
343 389 177
344 874 793
345 447 934
346 63 91
347 194 17
348 90 431
349 164 388
350 383 589
351 842 158
352 921 685
353 676 540
354 377 764
355 347 51
356 508 619
357 285 973
358 793 876
359 430 40
360 325 314
361 252 411
362 955 452
363 14 857
364 675 367
365 288 222
366 266 783
367 723 124
368 186 389
369 57 912
370 709 425
371 386 859
372 316 507
373 677 626
374 340 704
375 535 963
376 851 866
377 219 654
378 799 204
379 403 121
380 206 923
381 799 283
382 934 353
383 917 951
384 116 502
385 634 559
386 262 403
387 159 542
388 879 100
389 676 416
390 235 349
391 231 102
392 378 569
393 876 507
394 399 48
395 56 351
396 950 398
397 259 247
398 5 250
399 892 26
400 884 218
401 433 319
402 507 93
403 922 302
404 81 170
405 61 608
406 247 681
407 761 62
408 467 514
409 416 712
410 550 552
411 930 830
412 469 221
413 894 272
414 390 966
415 388 863
416 652 334
417 74 677
418 838 136
419 839 121
420 545 143
421 680 257
422 399 40
423 856 383
424 321 632
425 263 860
426 37 293
427 92 189
428 856 674
429 704 344
430 668 651
431 780 346
432 226 532
433 708 89
434 656 510
435 226 427
436 217 363
437 312 489
438 324 409
439 321 270
440 811 711
441 380 451
442 445 526
443 27 480
444 696 12
445 102 900
446 747 180
447 890 926
448 764 94
449 501 274
450 409 329
451 529 242
452 609 673
453 924 31
454 566 75
455 144 331
456 28 857
457 546 142
458 803 158
459 16 859
460 522 645
461 873 593
DEMAND_SECTION
2 83
3 73
4 100
5 88
6 90
7 71
8 62
9 95
10 56
11 75
12 51
13 86
14 62
15 74
16 65
17 77
18 58
19 98
20 81
21 86
22 75
23 74
24 77
25 80
26 57
27 54
28 67
29 74
30 94
31 99
32 90
33 54
34 72
35 70
36 69
37 100
38 93
39 97
40 85
41 79
42 93
43 97
44 100
45 51
46 84
47 59
48 60
49 84
50 56
51 97
52 100
53 80
54 89
55 99
56 57
57 72
58 75
59 62
60 64
61 75
62 63
63 71
64 82
65 51
66 55
67 95
68 67
69 90
70 73
71 51
72 83
73 51
74 80
75 76
76 87
77 65
78 71
79 60
80 72
81 54
82 76
83 96
84 79
85 56
86 68
87 88
88 57
89 69
90 95
91 75
92 56
93 54
94 61
95 68
96 60
97 53
98 86
99 93
100 56
101 66
102 58
103 55
104 95
105 93
106 70
107 59
108 75
109 87
110 50
111 97
112 90
113 72
114 67
115 92
116 83
117 72
118 90
119 61
120 67
121 51
122 68
123 90
124 56
125 69
126 65
127 61
128 64
129 95
130 63
131 60
132 52
133 87
134 74
135 79
136 60
137 87
138 64
139 92
140 79
141 72
142 99
143 90
144 51
145 69
146 82
147 79
148 74
149 86
150 81
151 91
152 73
153 53
154 98
155 50
156 81
157 77
158 51
159 71
160 81
161 55
162 91
163 92
164 69
165 58
166 98
167 93
168 68
169 67
170 65
171 67
172 63
173 80
174 92
175 58
176 96
177 78
178 72
179 53
180 68
181 55
182 68
183 94
184 67
185 56
186 83
187 53
188 92
COVERAGE_SECTION
2 7 291 20 374 115 265 140 239 
3 7 53 200 151 25 72 211 76 
4 7 285 206 452 212 187 130 460 
5 7 21 375 15 345 190 34 161 
6 7 380 150 11 24 357 153 10 
7 7 372 160 437 196 145 102 139 
8 7 388 419 226 418 169 258 351 
9 7 369 152 315 284 221 456 459 
10 7 220 30 94 380 150 6 281 
11 7 24 153 357 97 243 6 296 
12 7 164 121 382 403 320 225 289 
13 7 343 379 323 336 85 412 171 
14 7 129 248 108 178 370 326 194 
15 7 186 223 184 190 5 345 415 
16 7 44 102 160 196 432 282 205 
17 7 433 256 298 324 33 367 147 
18 7 242 239 409 222 212 265 140 
19 7 110 421 62 416 341 429 23 
20 7 291 374 2 229 115 257 265 
21 7 5 375 161 190 310 92 15 
22 7 288 411 332 135 84 117 344 
23 7 429 176 62 364 194 416 266 
24 7 153 11 97 243 357 6 296 
25 5 211 313 53 3 151 
26 7 325 300 428 224 461 29 352 
27 7 322 342 106 358 202 271 376 
28 7 365 336 37 397 35 195 439 
29 7 224 300 199 428 325 26 440 
30 7 220 94 10 259 445 380 103 
31 7 67 405 80 45 170 387 417 
32 7 57 40 128 318 73 267 417 
33 7 298 444 324 433 335 17 407 
34 7 345 375 414 301 5 191 184 
35 7 439 171 323 131 278 28 365 
36 7 232 385 339 410 264 213 149 
37 7 280 91 397 163 365 28 195 
38 7 292 255 226 269 453 159 90 
39 7 60 348 217 384 443 170 75 
40 7 32 297 235 128 79 137 82 
41 7 50 317 250 386 361 436 113 
42 7 359 394 422 143 86 207 312 
43 7 350 392 208 78 156 270 205 
44 7 16 102 160 196 432 205 282 
45 7 314 73 46 80 318 31 377 
46 7 73 318 314 104 183 377 45 
47 7 391 273 302 203 142 138 175 
48 6 346 105 311 307 305 404 
49 7 434 68 69 99 178 389 277 
50 7 41 390 317 436 250 386 173 
51 7 307 109 144 347 273 105 59 
52 7 189 209 277 68 66 69 389 
53 7 3 200 25 151 211 313 76 
54 7 251 362 293 141 337 218 396 
55 7 130 187 206 223 190 186 285 
56 7 77 154 310 316 155 236 106 
57 7 32 267 128 417 80 40 73 
58 7 316 154 155 92 77 161 310 
59 7 146 305 76 404 204 427 311 
60 7 384 39 170 348 217 387 443 
61 7 461 181 249 70 334 286 26 
62 7 23 429 416 176 364 19 110 
63 7 162 71 88 340 400 255 327 
64 7 122 234 168 306 406 377 228 
65 7 101 456 459 363 128 284 9 
66 7 136 111 52 68 213 189 264 
67 7 31 405 170 387 45 80 384 
68 7 189 49 52 277 69 209 66 
69 7 389 277 370 49 209 176 189 
70 7 334 393 461 61 333 326 249 
71 7 88 63 162 340 255 400 327 
72 7 3 91 200 53 397 37 280 
73 7 318 46 104 314 183 45 377 
74 7 282 241 314 377 432 16 44 
75 7 348 395 233 39 349 455 217 
76 7 427 146 404 305 200 211 313 
77 7 310 56 154 316 155 58 236 
78 7 208 392 156 43 81 442 350 
79 7 297 182 235 210 281 103 82 
80 7 417 45 31 405 57 267 67 
81 7 319 442 78 408 283 156 270 
82 7 103 276 235 297 210 445 79 
83 7 366 299 263 193 257 185 118 
84 7 411 135 117 332 93 22 344 
85 7 379 13 143 402 412 343 420 
86 7 207 422 394 312 355 359 42 
87 7 222 157 156 132 356 442 408 
88 7 71 162 63 255 226 38 340 
89 6 352 181 286 240 288 26 
90 7 159 269 180 38 292 453 308 
91 7 397 37 365 280 179 72 28 
92 7 161 190 58 285 130 316 55 
93 7 117 84 135 148 376 411 447 
94 7 30 220 10 259 221 445 380 
95 7 252 315 215 221 152 9 369 
96 7 274 253 303 295 381 98 378 
97 7 153 24 296 11 243 425 254 
98 7 381 303 330 274 96 266 431 
99 7 353 434 178 248 129 108 49 
100 7 440 271 304 428 199 224 29 
101 7 65 456 363 459 125 128 284 
102 7 16 44 205 160 196 241 7 
103 7 82 276 235 210 297 281 445 
104 7 183 185 228 46 318 73 406 
105 7 346 48 311 307 305 51 59 
106 7 358 27 202 236 56 322 342 
107 7 149 261 373 339 385 430 219 
108 7 248 129 178 14 99 326 333 
109 7 144 51 347 273 307 203 302 
110 7 421 19 341 321 214 116 416 
111 7 136 201 66 230 134 319 408 
112 7 99 353 329 373 108 333 107 
113 7 435 361 250 317 386 41 294 
114 7 123 438 338 174 360 386 131 
115 7 291 2 374 20 257 140 354 
116 7 246 166 110 321 451 341 167 
117 7 93 135 84 411 332 376 344 
118 7 354 254 247 371 115 415 263 
119 7 260 383 244 328 177 216 447 
120 7 138 172 290 175 355 195 47 
121 7 12 382 164 403 320 396 327 
122 7 64 234 168 406 306 377 228 
123 7 114 438 338 174 360 386 131 
124 7 396 320 197 251 362 141 382 
125 7 101 65 267 363 456 459 128 
126 7 448 407 169 256 275 335 367 
127 7 147 268 321 214 165 246 457 
128 7 32 40 65 57 101 235 82 
129 7 248 178 108 14 99 370 434 
130 7 55 206 187 190 92 223 285 
131 7 360 174 439 179 35 278 171 
132 7 356 222 87 460 410 212 157 
133 7 219 261 452 460 339 149 132 
134 7 201 230 450 401 111 283 338 
135 7 84 411 332 117 93 22 344 
136 7 111 66 201 230 408 319 134 
137 7 79 182 40 297 366 235 185 
138 7 120 290 172 175 47 355 195 
139 7 145 437 372 188 7 270 441 
140 7 409 247 239 2 115 291 354 
141 7 218 337 362 197 251 54 124 
142 7 391 204 47 273 144 163 290 
143 7 42 359 379 394 402 422 85 
144 7 109 273 51 347 307 142 203 
145 7 139 437 372 188 7 270 441 
146 6 305 76 404 427 59 311 
147 7 127 268 165 457 420 17 454 
148 7 447 376 216 93 244 117 202 
149 7 339 107 385 261 373 219 353 
150 7 6 357 10 380 11 24 220 
151 7 3 53 25 426 455 200 395 
152 7 369 221 9 259 315 445 95 
153 7 24 11 97 243 357 296 6 
154 7 316 77 56 155 310 58 287 
155 7 316 154 58 287 77 56 310 
156 7 442 78 87 208 408 222 157 
157 7 408 87 442 156 264 213 232 
158 7 331 216 202 328 244 148 358 
159 7 90 269 180 38 292 255 453 
160 7 196 44 16 7 102 372 205 
161 7 92 190 58 130 21 285 316 
162 7 63 71 88 400 340 255 258 
163 7 280 37 195 204 365 28 142 
164 7 12 403 382 225 289 121 413 
165 7 268 457 147 420 454 127 402 
166 7 451 246 167 116 449 309 412 
167 7 449 166 451 309 246 116 412 
168 7 306 234 64 406 122 228 193 
169 7 126 448 419 418 8 458 407 
170 7 384 60 387 67 39 31 262 
171 7 323 35 278 439 131 343 360 
172 7 120 138 290 355 175 195 379 
173 7 436 245 368 317 41 50 349 
174 7 360 131 439 179 114 123 278 
175 7 355 138 120 302 47 172 290 
176 7 364 23 429 62 416 389 194 
177 7 260 383 119 447 244 93 328 
178 7 129 248 108 99 370 14 49 
179 7 397 439 131 174 360 91 365 
180 7 308 269 90 453 159 292 38 
181 7 286 61 352 26 89 461 325 
182 7 281 79 210 297 235 103 137 
183 7 104 185 228 46 406 318 73 
184 7 186 415 371 191 15 223 345 
185 7 183 104 228 193 406 366 46 
186 7 223 15 184 415 371 190 191 
187 7 206 55 130 409 247 4 223 
188 7 270 145 139 372 441 437 283 
189 7 52 277 209 68 69 389 364 
190 7 161 92 130 15 223 55 186 
191 7 184 415 371 414 345 301 296 
192 6 287 430 452 155 329 373 
193 7 263 228 257 168 306 185 406 
194 7 370 23 429 176 364 431 389 
195 7 290 163 336 28 120 138 280 
196 7 160 44 16 7 432 102 372 
197 7 124 141 218 237 362 337 396 
198 7 432 262 196 294 435 282 16 
199 7 29 440 224 300 428 100 325 
200 7 3 53 76 427 211 25 72 
201 7 230 283 111 134 136 441 319 
202 7 358 106 376 148 158 322 331 
203 7 302 347 273 47 144 109 175 
204 7 142 163 280 391 59 37 195 
205 7 102 160 241 44 16 7 424 
206 7 187 55 130 4 285 212 223 
207 7 86 312 422 394 355 359 42 
208 7 392 78 43 350 156 270 442 
209 7 277 189 52 364 69 389 176 
210 7 281 182 79 103 235 297 82 
211 4 313 25 427 404 
212 7 460 356 132 18 222 4 242 
213 7 264 232 410 36 157 66 408 
214 7 321 341 421 110 127 19 116 
215 7 252 95 315 221 152 9 369 
216 7 244 328 447 331 148 383 158 
217 7 443 39 279 60 348 384 170 
218 7 141 337 362 197 251 54 124 
219 7 133 261 452 107 149 430 339 
220 7 30 10 94 380 281 210 445 
221 7 152 259 369 9 252 315 445 
222 7 87 356 132 156 242 18 460 
223 7 186 15 55 190 130 184 187 
224 7 428 300 29 325 199 26 440 
225 7 289 164 295 423 403 382 12 
226 7 388 255 8 38 292 419 88 
227 7 446 378 458 367 256 126 448 
228 7 406 183 104 185 168 193 306 
229 7 20 374 424 306 291 168 2 
230 7 201 283 441 134 319 111 81 
231 7 454 402 165 143 42 359 268 
232 7 264 213 410 36 157 132 339 
233 7 395 75 426 348 151 455 39 
234 7 64 122 168 306 406 377 228 
235 7 297 82 79 103 210 276 182 
236 7 310 106 56 77 154 202 358 
237 7 197 423 393 124 218 141 337 
238 7 399 272 275 335 8 407 453 
239 7 265 140 409 242 2 18 291 
240 6 352 428 304 325 26 100 
241 7 102 205 16 44 122 64 74 
242 7 18 239 265 222 409 350 140 
243 7 153 24 11 97 357 301 414 
244 7 328 216 383 447 331 260 119 
245 7 368 173 349 436 317 294 41 
246 7 116 166 451 321 110 127 167 
247 7 140 409 354 115 2 239 291 
248 7 129 108 178 14 99 370 326 
249 7 61 337 218 141 286 362 393 
250 7 361 386 41 113 317 435 50 
251 7 362 54 293 396 124 141 320 
252 7 95 215 221 315 152 369 9 
253 7 96 274 295 413 400 303 381 
254 7 296 371 415 97 118 299 191 
255 7 38 88 292 226 71 388 162 
256 7 367 433 126 448 17 407 335 
257 7 263 374 20 115 291 193 2 
258 7 351 418 419 458 8 388 400 
259 7 221 152 445 369 9 30 276 
260 7 119 383 177 244 328 447 216 
261 7 107 219 149 339 133 373 430 
262 7 387 432 282 198 74 16 44 
263 7 257 83 193 374 115 366 291 
264 7 232 213 410 36 157 87 132 
265 7 239 2 20 291 374 229 242 
266 7 330 431 429 98 23 381 303 
267 7 417 57 80 125 32 128 405 
268 7 165 457 420 147 454 127 402 
269 7 90 159 180 38 292 453 308 
270 7 188 372 145 78 139 437 392 
271 6 304 100 440 344 322 428 
272 7 275 335 407 448 126 238 169 
273 7 144 47 203 109 347 302 391 
274 7 96 253 303 381 98 378 295 
275 7 335 407 272 448 126 169 33 
276 7 82 103 445 235 297 210 259 
277 7 209 189 69 389 52 68 364 
278 7 171 450 35 131 360 401 439 
279 7 217 443 405 170 39 60 384 
280 7 163 37 204 91 365 397 195 
281 7 210 182 79 103 297 235 380 
282 7 432 74 262 16 44 387 196 
283 7 441 230 201 81 319 188 338 
284 7 459 363 9 315 456 369 152 
285 7 4 92 130 206 161 58 187 
286 7 181 61 249 89 352 26 461 
287 6 155 192 342 316 154 56 
288 6 22 411 332 84 135 240 
289 7 225 295 164 403 413 423 253 
290 7 120 138 195 172 391 47 163 
291 7 2 20 374 115 257 265 229 
292 7 38 255 226 269 453 90 388 
293 7 251 396 54 320 362 124 382 
294 7 435 113 368 245 349 173 317 
295 7 289 253 413 96 225 274 303 
296 7 254 97 371 415 153 24 243 
297 7 235 79 82 103 210 182 276 
298 7 33 444 324 433 17 335 407 
299 7 83 366 263 425 254 118 193 
300 7 224 325 428 29 26 199 461 
301 7 414 243 191 345 34 153 11 
302 7 203 47 273 347 175 144 391 
303 7 381 98 96 274 330 295 253 
304 6 344 271 100 332 240 322 
305 6 146 404 311 427 76 59 
306 7 168 234 64 122 406 229 193 
307 7 51 109 144 105 347 346 273 
308 7 453 180 399 269 90 292 38 
309 7 449 167 412 451 401 166 450 
310 7 77 56 154 316 236 58 155 
311 6 305 404 146 346 427 105 
312 7 207 86 422 394 355 359 42 
313 3 211 25 427 
314 7 377 46 45 73 318 74 406 
315 7 9 95 284 152 369 252 221 
316 7 154 58 155 77 56 310 92 
317 7 41 173 50 436 113 250 361 
318 7 73 46 104 183 314 45 377 
319 7 81 442 408 78 283 156 230 
320 7 396 124 382 251 293 12 197 
321 7 214 341 421 110 127 116 246 
322 7 27 376 358 344 117 202 304 
323 7 171 35 336 343 13 439 278 
324 7 298 33 444 17 433 454 256 
325 7 300 26 428 224 29 352 461 
326 7 333 108 14 393 334 248 70 
327 7 340 413 403 400 63 12 162 
328 7 244 216 331 383 447 119 260 
329 6 373 430 112 107 199 261 
330 6 266 431 98 381 303 429 
331 7 216 158 328 244 447 148 383 
332 7 135 411 84 22 344 117 93 
333 7 326 108 334 393 70 14 248 
334 7 70 393 461 61 333 326 249 
335 7 275 407 272 448 126 33 433 
336 7 28 343 195 323 365 13 35 
337 7 218 141 362 197 54 249 251 
338 7 438 441 123 114 283 139 145 
339 7 149 385 107 261 36 133 219 
340 7 327 63 71 162 88 400 413 
341 7 214 321 421 110 19 116 127 
342 7 27 287 322 106 271 440 155 
343 7 13 336 323 379 171 85 35 
344 7 304 332 117 135 271 322 411 
345 7 191 184 414 34 301 5 15 
346 7 105 48 311 305 307 404 146 
347 7 109 203 273 144 302 51 307 
348 7 39 75 60 217 384 443 233 
349 7 245 368 173 294 436 455 317 
350 7 43 392 208 78 156 242 265 
351 7 258 418 419 458 378 8 169 
352 6 240 26 325 181 89 428 
353 7 99 434 385 149 49 107 112 
354 7 118 247 115 140 409 2 291 
355 7 86 175 207 172 394 422 312 
356 7 132 460 222 212 87 133 18 
357 7 11 24 153 243 150 6 97 
358 7 202 106 322 376 27 148 158 
359 7 42 422 394 143 86 207 312 
360 7 174 131 439 179 278 114 35 
361 7 250 386 113 41 435 317 50 
362 7 141 251 218 54 337 197 124 
363 7 459 456 284 65 101 9 315 
364 7 176 23 62 429 416 209 389 
365 7 28 397 37 91 439 179 280 
366 7 83 299 185 263 193 137 425 
367 7 256 433 126 448 227 446 17 
368 7 245 173 349 436 317 294 113 
369 7 152 9 221 259 315 445 284 
370 7 389 69 194 178 129 14 176 
371 7 415 254 184 191 296 186 118 
372 7 7 437 145 139 160 188 270 
373 7 430 107 329 261 149 219 112 
374 7 20 291 2 257 115 229 263 
375 7 5 21 34 345 15 190 161 
376 7 148 117 93 322 358 202 447 
377 7 314 122 406 64 234 46 228 
378 7 458 274 227 446 96 351 258 
379 7 13 343 143 85 172 394 422 
380 7 6 10 281 220 210 182 30 
381 7 98 303 330 274 96 253 266 
382 7 12 164 320 121 396 403 124 
383 7 244 260 447 328 216 119 177 
384 7 60 170 39 387 348 217 262 
385 7 149 339 36 107 353 434 261 
386 7 250 361 41 113 317 50 435 
387 7 262 170 282 384 67 432 60 
388 7 226 8 419 418 255 292 38 
389 7 69 370 277 176 364 209 194 
390 7 50 436 41 173 317 250 386 
391 7 142 47 273 204 290 144 138 
392 7 43 208 350 78 270 156 205 
393 7 334 70 237 218 337 326 141 
394 7 422 86 359 207 42 355 312 
395 7 233 75 426 151 348 455 25 
396 7 320 124 251 293 382 362 197 
397 7 91 37 365 179 28 280 439 
398 3 426 25 313 
399 7 453 308 238 292 388 38 180 
400 7 253 63 162 413 96 327 274 
401 7 450 278 309 134 449 171 167 
402 7 231 143 454 420 457 85 165 
403 7 164 12 413 289 382 121 327 
404 6 305 427 146 311 76 211 
405 7 31 67 80 279 417 170 45 
406 7 228 168 234 64 122 306 377 
407 7 335 275 448 272 126 169 433 
408 7 442 157 319 81 156 87 78 
409 7 140 247 239 2 115 18 291 
410 7 232 264 213 36 132 157 339 
411 7 84 135 332 22 117 93 344 
412 7 309 449 451 85 13 167 343 
413 7 295 403 253 327 289 400 164 
414 7 301 191 243 345 34 153 184 
415 7 371 184 254 191 296 186 118 
416 7 62 364 176 23 19 429 209 
417 7 80 267 57 405 31 45 32 
418 7 419 351 258 458 8 169 388 
419 7 418 8 351 258 169 388 458 
420 7 457 268 165 147 402 454 127 
421 7 110 341 19 321 214 62 116 
422 7 394 86 207 359 42 312 355 
423 6 225 237 289 124 197 382 
424 7 229 265 205 306 241 20 64 
425 7 97 299 182 296 366 24 6 
426 6 398 25 151 395 233 53 
427 6 76 404 146 211 305 313 
428 7 224 325 300 26 29 199 440 
429 7 23 62 176 364 194 266 416 
430 6 373 329 261 107 452 219 
431 6 330 266 98 194 303 381 
432 7 282 262 16 196 44 198 160 
433 7 256 367 17 126 448 33 298 
434 7 49 353 99 385 36 178 68 
435 7 113 361 250 294 317 386 41 
436 7 173 390 50 317 41 245 368 
437 7 372 145 139 7 188 160 270 
438 7 123 338 114 386 139 250 145 
439 7 35 131 179 360 174 171 365 
440 7 100 199 271 224 428 29 300 
441 7 283 338 230 188 139 145 201 
442 7 408 319 156 81 78 157 87 
443 7 217 39 279 348 60 384 170 
444 7 33 298 324 335 433 275 407 
445 7 276 259 103 82 369 152 221 
446 7 227 378 458 367 256 126 214 
447 7 216 244 148 383 328 93 331 
448 7 126 407 169 275 256 335 367 
449 7 167 309 451 166 412 401 246 
450 7 401 278 134 360 171 309 123 
451 7 166 167 449 246 309 412 116 
452 7 219 133 261 430 4 192 107 
453 7 399 308 180 292 38 269 90 
454 7 165 231 268 402 457 420 147 
455 7 349 151 245 368 3 173 436 
456 7 459 363 65 101 284 9 369 
457 7 420 268 165 147 402 454 127 
458 7 351 418 378 258 419 169 227 
459 7 363 456 284 65 101 9 315 
460 7 212 356 132 133 222 4 18 
461 7 70 334 26 61 300 325 29 
DEPOT_SECTION
   1
   -1
EOF
