NAME :  X-n411-kX-w82-c7.cctp
COMMENT : 	Adapted by Maziero, Usberti and Cavellucci from the Uchoa, Pecin, Pessoa, Poggi, Subramanian, and Vidal (2013)
TYPE :  CCTP
DIMENSION :    349
EDGE_WEIGHT_TYPE : 	EUC_2D	
CAPACITY : 	216
VERTICES_WITHIN_COVERAGE :  7
VERTICES_WITH_DEMAND : 	82
NODE_COORD_SECTION
1 175 821
2 62 495
3 662 959
4 109 216
5 156 748
6 178 957
7 120 571
8 75 480
9 44 98
10 386 1000
11 96 465
12 98 796
13 213 642
14 642 977
15 629 893
16 36 124
17 155 172
18 6 367
19 39 198
20 40 311
21 649 801
22 208 367
23 237 944
24 282 313
25 114 684
26 69 168
27 23 553
28 137 467
29 244 971
30 86 456
31 125 681
32 77 398
33 128 820
34 166 804
35 657 959
36 160 172
37 674 882
38 255 944
39 709 691
40 167 720
41 187 995
42 246 707
43 95 518
44 44 264
45 262 940
46 739 987
47 210 586
48 240 994
49 199 564
50 108 491
51 832 933
52 715 874
53 130 426
54 518 749
55 90 209
56 760 925
57 118 92
58 72 270
59 606 976
60 129 975
61 157 787
62 626 857
63 169 712
64 105 710
65 105 233
66 65 322
67 685 804
68 215 664
69 211 996
70 336 887
71 728 533
72 649 836
73 93 905
74 143 894
75 47 136
76 198 125
77 707 977
78 682 937
79 17 858
80 370 512
81 222 825
82 55 388
83 182 905
84 128 221
85 266 796
86 349 821
87 108 777
88 98 842
89 225 528
90 140 920
91 132 465
92 132 478
93 144 476
94 138 981
95 163 937
96 11 794
97 663 942
98 138 464
99 27 134
100 213 819
101 150 746
102 184 760
103 122 579
104 180 670
105 166 955
106 222 859
107 104 951
108 162 968
109 73 394
110 620 899
111 110 440
112 232 648
113 204 708
114 52 512
115 161 887
116 46 259
117 151 777
118 191 999
119 247 686
120 68 464
121 5 393
122 696 937
123 642 902
124 86 905
125 132 600
126 115 788
127 126 801
128 58 479
129 147 765
130 145 772
131 592 971
132 58 195
133 236 969
134 729 986
135 731 958
136 616 999
137 0 48
138 138 215
139 82 268
140 661 893
141 587 942
142 631 978
143 64 297
144 257 671
145 158 185
146 190 183
147 127 166
148 75 564
149 26 818
150 157 888
151 97 174
152 53 210
153 255 551
154 93 135
155 303 976
156 139 824
157 144 824
158 166 971
159 195 983
160 73 379
161 182 177
162 118 595
163 192 702
164 355 701
165 63 190
166 164 489
167 228 918
168 746 859
169 190 958
170 162 797
171 587 963
172 113 97
173 82 200
174 93 167
175 679 707
176 164 569
177 751 803
178 22 100
179 143 744
180 55 196
181 792 923
182 584 877
183 139 121
184 179 742
185 749 909
186 252 809
187 70 115
188 309 976
189 191 915
190 333 77
191 82 928
192 78 497
193 11 624
194 642 915
195 71 75
196 547 981
197 271 936
198 662 981
199 677 991
200 8 272
201 492 817
202 49 230
203 109 241
204 178 969
205 309 966
206 100 444
207 702 937
208 255 943
209 123 135
210 88 408
211 648 973
212 662 952
213 233 834
214 280 828
215 150 753
216 70 339
217 120 919
218 572 980
219 135 814
220 34 399
221 88 671
222 23 336
223 201 544
224 733 850
225 46 502
226 686 952
227 653 958
228 770 920
229 158 769
230 211 709
231 190 120
232 515 841
233 107 915
234 34 241
235 101 968
236 228 938
237 152 397
238 163 188
239 843 942
240 455 984
241 606 962
242 343 894
243 223 717
244 142 957
245 693 899
246 118 725
247 353 838
248 52 328
249 14 295
250 771 850
251 203 330
252 79 391
253 151 387
254 97 308
255 284 14
256 60 570
257 91 607
258 14 532
259 182 728
260 204 978
261 741 786
262 119 191
263 118 904
264 146 583
265 50 718
266 56 420
267 50 493
268 267 934
269 740 904
270 23 212
271 42 967
272 611 889
273 236 932
274 427 892
275 199 789
276 123 468
277 70 729
278 63 443
279 142 539
280 602 561
281 650 992
282 663 947
283 73 790
284 556 1000
285 196 361
286 240 972
287 42 552
288 72 256
289 69 193
290 138 389
291 140 486
292 173 996
293 138 797
294 10 520
295 92 946
296 104 549
297 290 691
298 131 996
299 233 702
300 82 351
301 177 923
302 118 903
303 59 163
304 48 503
305 170 717
306 719 946
307 174 535
308 167 891
309 668 911
310 236 621
311 197 529
312 152 714
313 585 950
314 182 640
315 219 944
316 98 706
317 278 544
318 216 873
319 138 183
320 12 916
321 20 596
322 178 189
323 144 219
324 643 943
325 728 986
326 125 874
327 158 198
328 215 625
329 107 321
330 110 461
331 101 592
332 96 684
333 579 816
334 645 947
335 777 894
336 806 973
337 118 790
338 157 944
339 235 784
340 256 895
341 233 962
342 127 185
343 704 965
344 234 634
345 664 948
346 29 604
347 278 697
348 686 985
349 151 795
DEMAND_SECTION
2 95
3 58
4 80
5 97
6 100
7 64
8 63
9 86
10 61
11 62
12 56
13 74
14 78
15 78
16 91
17 85
18 69
19 89
20 83
21 60
22 51
23 55
24 57
25 83
26 67
27 89
28 6
29 1
30 1
31 7
32 2
33 1
34 4
35 6
36 3
37 10
38 5
39 10
40 1
41 7
42 10
43 6
44 8
45 4
46 5
47 4
48 4
49 3
50 10
51 7
52 10
53 9
54 4
55 3
56 7
57 4
58 2
59 9
60 3
61 4
62 8
63 2
64 9
65 3
66 1
67 5
68 3
69 8
70 7
71 1
72 3
73 7
74 10
75 1
76 7
77 7
78 2
79 2
80 3
81 6
82 8
83 3
COVERAGE_SECTION
2 7 267 128 192 304 225 8 114 
3 7 35 212 227 345 282 97 211 
4 7 65 55 84 203 262 138 173 
5 7 101 215 179 129 229 184 130 
6 7 105 169 204 158 108 95 338 
7 7 103 162 296 331 264 125 279 
8 7 120 128 192 2 11 30 267 
9 7 178 16 187 195 75 99 154 
10 7 240 188 205 155 242 274 70 
11 7 30 330 206 8 276 120 50 
12 5 126 87 337 283 127 
13 7 328 112 68 344 310 314 104 
14 7 211 142 281 198 227 35 3 
15 5 110 123 272 194 140 
16 7 99 75 9 178 187 303 26 
17 7 36 145 238 319 327 161 147 
18 5 121 222 220 82 248 
19 7 180 152 132 270 165 289 202 
20 7 248 66 143 222 249 216 44 
21 7 72 67 62 333 37 140 261 
22 5 285 251 253 237 290 
23 7 236 273 38 208 315 341 45 
24 3 251 22 285 
25 7 31 332 316 64 221 246 312 
26 7 303 165 174 289 132 151 180 
27 5 287 258 294 256 321 
28 7 98 91 93 92 276 291 330 
29 7 286 133 341 48 23 38 208 
30 7 11 206 120 330 8 278 111 
31 7 25 332 64 316 221 312 246 
32 7 109 252 210 160 82 266 220 
33 6 219 156 157 127 293 337 
34 7 170 349 61 293 157 117 219 
35 7 227 3 212 282 345 211 334 
36 7 17 145 238 161 319 322 327 
37 6 140 245 309 123 52 15 
38 7 208 45 268 23 197 273 236 
39 5 175 261 67 177 21 
40 7 305 63 312 259 184 5 101 
41 7 118 159 292 69 260 204 158 
42 7 299 119 243 347 230 144 113 
43 7 192 50 296 2 8 114 304 
44 7 116 234 58 288 202 200 139 
45 7 38 208 268 197 23 273 236 
46 7 134 325 135 77 343 306 348 
47 7 49 328 223 310 176 344 13 
48 7 286 29 133 69 341 260 159 
49 7 223 47 176 311 307 89 264 
50 7 92 276 11 43 330 192 291 
51 7 239 181 336 228 335 56 185 
52 7 224 245 168 269 37 185 140 
53 7 111 206 237 290 91 98 330 
54 6 201 333 232 21 182 62 
55 7 173 4 289 65 165 262 132 
56 7 228 185 269 181 335 135 306 
57 7 172 183 209 154 195 187 9 
58 6 139 288 116 143 44 254 
59 7 241 131 171 136 142 313 218 
60 6 94 298 244 235 108 107 
61 7 349 170 117 229 34 130 293 
62 7 72 272 15 110 182 123 140 
63 7 305 40 312 259 163 184 113 
64 7 316 246 25 332 31 277 221 
65 7 203 4 84 55 138 173 288 
66 7 248 216 143 20 300 254 329 
67 7 21 72 261 177 224 52 37 
68 7 13 112 104 344 119 328 314 
69 7 260 118 159 41 48 133 286 
70 7 242 247 86 340 197 214 205 
71 5 280 39 175 261 177 
72 7 62 21 67 37 140 15 272 
73 7 124 233 191 263 302 217 295 
74 7 150 115 308 90 263 302 326 
75 7 16 99 303 187 9 26 178 
76 7 231 161 146 183 36 17 322 
77 7 343 348 325 134 135 199 226 
78 7 122 226 97 207 282 345 212 
79 7 149 320 96 88 124 283 73 
80 3 317 153 89 
81 7 100 213 106 186 275 339 318 
82 7 109 160 32 220 252 266 210 
83 5 189 301 308 115 150 
84 6 138 323 4 65 203 262 
85 7 186 339 214 213 81 100 275 
86 7 247 70 214 242 85 186 274 
87 3 126 337 12 
88 7 33 326 156 12 219 157 127 
89 5 311 223 153 49 307 
90 5 217 74 263 302 95 
91 7 28 98 276 92 93 291 330 
92 7 291 28 93 91 276 98 50 
93 7 28 291 92 98 91 276 166 
94 6 60 298 244 108 158 105 
95 4 338 105 301 6 
96 3 149 283 79 
97 7 282 345 212 3 35 227 334 
98 7 28 91 93 92 276 291 330 
99 7 16 75 178 9 303 187 26 
100 7 81 213 275 186 106 339 34 
101 6 5 179 215 129 229 130 
102 6 184 229 5 259 275 215 
103 7 7 162 125 264 331 296 257 
104 7 314 163 68 13 63 113 305 
105 6 6 108 338 158 95 204 
106 5 318 213 81 100 340 
107 7 295 235 191 60 217 233 244 
108 6 158 105 204 6 244 338 
109 7 32 252 160 82 210 266 220 
110 4 15 272 123 194 
111 7 206 330 53 11 30 276 91 
112 6 344 13 68 310 328 144 
113 6 230 163 243 259 299 63 
114 4 304 225 267 2 
115 7 150 308 74 83 326 90 301 
116 7 44 234 288 58 202 139 200 
117 6 130 229 61 129 349 170 
118 7 41 159 292 69 260 204 158 
119 7 144 42 299 347 68 243 112 
120 7 8 128 30 278 11 2 192 
121 5 18 220 82 266 222 
122 7 207 78 226 306 343 97 282 
123 4 194 15 140 110 
124 7 73 191 233 263 302 217 295 
125 7 162 264 103 7 331 257 176 
126 4 337 87 127 12 
127 5 293 337 219 126 33 
128 7 2 267 8 120 225 304 192 
129 7 130 215 229 117 5 101 179 
130 5 129 117 229 61 215 
131 7 171 59 241 218 313 141 136 
132 7 180 165 289 152 19 173 26 
133 7 286 29 341 23 48 315 38 
134 7 325 46 77 135 343 306 348 
135 7 306 134 325 343 46 77 207 
136 7 59 142 14 281 131 241 211 
137 7 178 9 195 16 99 187 75 
138 6 323 84 327 4 262 319 
139 6 58 288 143 116 44 203 
140 5 37 309 123 194 15 
141 5 313 171 241 131 59 
142 7 14 211 281 59 136 227 241 
143 7 66 20 58 248 139 254 44 
144 6 119 347 112 42 297 299 
145 7 238 17 36 327 319 322 161 
146 7 161 322 238 36 145 327 17 
147 7 342 319 262 17 151 209 36 
148 6 256 296 287 331 7 257 
149 5 96 79 283 12 88 
150 7 115 308 74 83 326 90 301 
151 7 174 262 26 173 147 342 289 
152 7 180 132 19 202 165 289 270 
153 6 317 89 223 47 49 311 
154 7 187 209 174 151 26 172 303 
155 7 188 205 197 45 268 38 208 
156 7 157 219 33 127 293 349 34 
157 7 156 219 33 293 127 34 349 
158 6 108 204 105 6 292 169 
159 7 260 41 118 69 204 169 292 
160 7 252 109 32 82 300 210 216 
161 7 146 322 238 36 145 17 327 
162 6 125 103 331 7 257 264 
163 7 113 230 63 305 259 40 104 
164 5 297 347 144 42 119 
165 7 132 289 180 173 152 26 19 
166 6 93 291 92 28 98 91 
167 3 273 236 23 
168 7 224 250 52 269 335 185 177 
169 5 6 204 105 260 159 
170 7 34 61 349 117 293 229 130 
171 6 131 313 241 141 59 218 
172 7 57 183 209 154 187 195 9 
173 7 55 289 165 132 180 151 4 
174 7 151 26 154 147 303 173 262 
175 6 39 67 21 261 177 72 
176 7 264 49 307 279 103 7 125 
177 5 261 224 250 168 67 
178 7 9 16 99 75 187 195 137 
179 5 101 215 5 129 130 
180 7 132 165 152 289 19 173 26 
181 7 228 56 335 51 185 336 239 
182 4 272 110 62 15 
183 7 209 172 57 147 154 231 17 
184 6 259 102 5 40 305 101 
185 7 269 56 228 335 181 306 52 
186 7 85 339 213 81 214 100 275 
187 7 154 9 75 16 195 99 172 
188 7 155 205 197 45 268 38 208 
189 2 83 301 
190 6 255 76 231 146 161 322 
191 7 295 124 73 233 107 217 263 
192 7 2 8 43 128 267 114 50 
193 5 346 321 27 256 287 
194 4 123 15 309 110 
195 7 9 187 172 57 178 16 154 
196 7 284 218 171 131 313 141 59 
197 7 268 45 208 38 23 273 236 
198 7 211 281 199 14 3 35 348 
199 7 348 198 281 77 211 3 343 
200 7 249 44 116 234 20 202 143 
201 5 232 54 333 274 182 
202 7 234 152 116 270 19 44 180 
203 6 65 4 84 55 139 138 
204 7 6 158 108 169 105 159 292 
205 7 188 155 197 268 45 38 208 
206 7 111 30 330 11 276 53 278 
207 7 122 306 78 226 343 135 97 
208 7 38 45 268 197 23 273 236 
209 7 183 154 147 172 57 174 151 
210 7 32 252 109 160 266 206 82 
211 7 14 198 227 35 142 281 3 
212 7 345 282 3 35 97 227 334 
213 7 81 100 106 186 318 214 85 
214 7 186 85 213 81 339 106 100 
215 6 101 5 179 129 229 130 
216 7 300 66 248 160 20 254 329 
217 7 233 263 302 90 73 74 107 
218 7 131 171 196 284 313 59 241 
219 6 33 156 157 127 293 349 
220 5 82 121 266 109 18 
221 6 332 25 316 31 64 265 
222 7 20 248 18 249 66 216 143 
223 6 311 49 307 89 47 176 
224 7 168 52 250 177 269 185 335 
225 4 304 267 114 2 
226 7 78 122 207 343 345 212 282 
227 7 35 3 212 334 282 345 211 
228 7 56 181 185 335 269 135 306 
229 7 117 129 130 61 215 5 101 
230 6 113 243 163 299 42 259 
231 7 76 183 161 36 17 146 209 
232 5 201 333 182 54 274 
233 7 217 263 302 73 124 191 90 
234 7 202 116 44 270 152 200 288 
235 7 107 295 60 94 298 244 191 
236 5 273 23 315 167 341 
237 6 253 290 53 285 111 22 
238 7 145 327 322 36 17 161 319 
239 7 51 336 181 228 335 56 185 
240 5 10 196 274 284 218 
241 6 59 131 171 313 141 142 
242 7 70 247 86 205 197 274 268 
243 6 230 299 113 42 163 119 
244 6 338 60 108 94 105 158 
245 7 37 309 52 140 122 207 78 
246 6 64 316 179 312 101 25 
247 7 86 70 242 214 274 85 186 
248 7 66 20 216 222 143 300 254 
249 7 200 20 222 44 116 143 248 
250 6 168 224 335 177 52 269 
251 3 285 22 253 
252 7 32 109 160 210 82 266 300 
253 6 237 290 53 285 22 210 
254 5 329 66 143 216 139 
255 6 190 76 231 183 57 172 
256 5 148 287 27 346 331 
257 6 331 162 103 125 7 148 
258 3 294 27 287 
259 6 184 305 40 63 163 113 
260 7 159 69 41 169 118 204 6 
261 5 177 67 224 250 168 
262 7 342 319 147 4 151 84 138 
263 7 302 217 233 73 74 90 326 
264 7 125 176 103 7 162 279 331 
265 3 277 316 64 
266 7 278 32 220 109 82 210 252 
267 5 225 304 2 128 114 
268 7 197 45 208 38 273 23 236 
269 7 185 56 228 335 52 168 245 
270 7 19 152 234 202 180 132 165 
271 7 295 191 235 320 107 124 73 
272 6 110 15 182 123 62 194 
273 6 236 23 167 315 38 208 
274 7 242 70 247 240 201 232 86 
275 7 100 102 34 339 170 61 81 
276 7 91 92 28 330 98 93 291 
277 3 265 316 64 
278 7 120 266 30 128 206 8 11 
279 7 307 176 7 296 264 103 43 
280 7 71 175 39 54 80 21 333 
281 7 198 14 211 142 199 35 227 
282 7 345 97 212 3 35 227 334 
283 4 12 87 126 337 
284 7 196 218 131 171 59 313 136 
285 5 22 251 253 237 290 
286 7 29 133 341 48 23 38 208 
287 5 27 256 258 148 114 
288 7 58 139 116 44 202 65 203 
289 7 165 132 180 173 152 26 55 
290 6 253 237 53 210 111 252 
291 7 92 93 28 91 98 166 276 
292 7 41 118 158 159 204 108 260 
293 5 127 349 219 61 337 
294 2 258 27 
295 7 107 191 235 233 217 73 124 
296 7 7 43 148 103 279 331 162 
297 5 347 144 119 42 299 
298 7 94 60 235 244 108 292 158 
299 7 42 243 119 230 113 144 163 
300 6 216 160 66 248 329 252 
301 3 189 83 95 
302 7 263 217 233 73 74 90 326 
303 7 26 165 75 132 289 180 174 
304 4 225 114 267 2 
305 7 40 63 259 312 163 184 5 
306 7 135 207 343 122 77 226 78 
307 6 311 223 279 176 49 166 
308 7 115 150 83 74 189 301 90 
309 5 140 194 123 245 37 
310 6 344 328 112 13 47 68 
311 6 223 307 89 49 166 176 
312 7 40 63 305 179 101 259 5 
313 6 141 171 131 241 59 218 
314 7 104 13 328 68 112 344 310 
315 4 236 23 273 341 
316 7 64 332 25 246 221 277 31 
317 6 153 89 223 47 49 311 
318 4 106 213 340 83 
319 7 342 17 145 147 262 36 238 
320 7 79 271 191 124 73 295 233 
321 6 346 193 27 256 287 148 
322 7 146 161 238 145 327 36 17 
323 6 138 84 327 4 238 319 
324 5 334 227 97 282 35 
325 7 134 46 77 135 343 306 348 
326 7 74 302 263 150 115 88 73 
327 7 238 145 322 319 323 17 36 
328 7 13 310 344 112 314 47 68 
329 4 254 300 216 66 
330 7 11 276 206 111 91 30 28 
331 6 162 257 103 7 125 148 
332 7 221 25 316 64 31 246 277 
333 6 182 62 232 21 72 272 
334 7 324 227 35 212 282 97 345 
335 7 228 185 181 56 269 250 168 
336 7 51 239 181 228 56 46 135 
337 4 126 127 87 12 
338 4 95 105 244 6 
339 7 186 85 275 100 81 213 102 
340 5 167 268 273 197 45 
341 7 133 286 29 23 315 236 38 
342 7 262 319 147 17 145 138 151 
343 7 77 226 306 348 135 207 122 
344 6 310 112 328 13 68 144 
345 7 282 212 97 3 35 227 334 
346 5 321 193 256 27 287 
347 5 297 119 144 42 299 
348 7 199 77 198 343 226 3 281 
349 5 61 170 293 34 117 
DEPOT_SECTION
   1
   -1
EOF
