NAME :  X-n401-kX-w160-c11.cctp
COMMENT : 	Adapted by Maziero, Usberti and Cavellucci from the Uchoa, Pecin, Pessoa, Poggi, Subramanian, and Vidal (2013)
TYPE :  CCTP
DIMENSION :    401
EDGE_WEIGHT_TYPE : 	EUC_2D	
CAPACITY : 	745
VERTICES_WITHIN_COVERAGE :  11
VERTICES_WITH_DEMAND : 	160
NODE_COORD_SECTION
1 0 0
2 645 7
3 720 867
4 513 499
5 208 766
6 976 884
7 991 864
8 696 804
9 655 676
10 840 976
11 718 867
12 456 818
13 901 808
14 380 423
15 668 533
16 939 794
17 311 824
18 906 961
19 899 692
20 227 898
21 646 431
22 886 633
23 468 400
24 867 887
25 720 871
26 585 832
27 746 892
28 990 681
29 333 883
30 675 773
31 145 637
32 939 680
33 852 885
34 520 96
35 603 554
36 677 836
37 214 793
38 480 576
39 986 924
40 392 482
41 872 974
42 644 517
43 888 795
44 622 5
45 999 958
46 415 509
47 910 946
48 150 945
49 719 760
50 695 188
51 420 387
52 720 832
53 714 926
54 697 759
55 659 869
56 192 793
57 645 19
58 592 992
59 764 778
60 839 680
61 468 397
62 77 793
63 729 74
64 299 814
65 571 343
66 717 25
67 989 846
68 971 861
69 448 338
70 194 768
71 929 831
72 845 841
73 687 867
74 963 616
75 464 498
76 141 809
77 547 542
78 945 847
79 627 445
80 504 497
81 101 705
82 849 606
83 766 919
84 492 399
85 621 919
86 555 935
87 123 778
88 971 877
89 58 537
90 938 801
91 789 869
92 870 838
93 953 865
94 204 709
95 693 551
96 816 941
97 690 852
98 689 61
99 787 873
100 931 944
101 996 833
102 560 369
103 580 108
104 630 3
105 170 733
106 631 885
107 603 891
108 794 859
109 724 324
110 278 823
111 589 379
112 994 810
113 641 885
114 948 839
115 692 610
116 970 813
117 813 35
118 402 685
119 738 668
120 703 958
121 453 511
122 412 458
123 259 729
124 912 918
125 770 940
126 930 978
127 854 942
128 909 831
129 587 581
130 813 824
131 208 668
132 222 800
133 978 848
134 455 622
135 696 876
136 756 719
137 550 544
138 872 85
139 825 100
140 503 468
141 571 325
142 251 719
143 689 913
144 492 16
145 446 402
146 614 60
147 500 144
148 469 435
149 171 802
150 237 542
151 516 491
152 550 958
153 598 690
154 193 835
155 567 576
156 747 781
157 530 102
158 496 518
159 210 827
160 779 754
161 226 781
162 722 772
163 655 831
164 639 360
165 880 871
166 786 17
167 449 521
168 717 794
169 786 907
170 505 383
171 677 883
172 705 778
173 536 495
174 923 981
175 913 861
176 684 47
177 580 474
178 165 445
179 481 45
180 243 773
181 206 793
182 240 653
183 989 973
184 676 184
185 782 780
186 976 919
187 949 912
188 204 768
189 652 8
190 636 854
191 632 5
192 753 830
193 894 901
194 883 814
195 564 508
196 876 903
197 305 703
198 865 852
199 514 380
200 701 54
201 343 924
202 721 920
203 490 458
204 534 592
205 259 778
206 474 652
207 193 899
208 177 722
209 270 754
210 284 335
211 967 750
212 485 462
213 644 779
214 461 532
215 611 509
216 564 75
217 364 519
218 517 18
219 998 838
220 949 850
221 928 822
222 601 533
223 923 783
224 102 799
225 726 914
226 834 244
227 239 755
228 838 831
229 866 934
230 630 73
231 793 816
232 949 878
233 72 589
234 436 525
235 541 524
236 543 471
237 588 198
238 640 38
239 440 626
240 178 630
241 721 822
242 528 881
243 705 976
244 653 366
245 981 905
246 679 929
247 793 937
248 335 676
249 212 772
250 896 799
251 233 776
252 902 891
253 1000 799
254 328 612
255 169 693
256 45 654
257 868 917
258 152 749
259 233 943
260 316 594
261 408 600
262 945 853
263 509 590
264 843 915
265 471 500
266 775 770
267 303 689
268 579 103
269 935 853
270 659 857
271 426 546
272 932 920
273 996 850
274 237 642
275 840 94
276 706 671
277 190 756
278 163 677
279 734 882
280 403 754
281 669 187
282 947 869
283 783 848
284 747 889
285 710 131
286 851 992
287 157 888
288 964 968
289 550 923
290 320 759
291 881 806
292 941 885
293 333 404
294 990 838
295 171 759
296 647 47
297 296 835
298 655 146
299 243 669
300 475 535
301 197 879
302 565 50
303 985 834
304 784 970
305 546 65
306 144 788
307 870 661
308 508 521
309 669 386
310 845 859
311 268 693
312 860 854
313 768 700
314 196 769
315 245 941
316 411 529
317 535 56
318 327 947
319 789 831
320 145 726
321 708 76
322 808 838
323 657 144
324 686 66
325 514 578
326 894 933
327 909 814
328 579 57
329 938 972
330 435 803
331 730 857
332 819 787
333 861 742
334 251 785
335 497 40
336 969 748
337 990 860
338 701 863
339 195 682
340 610 942
341 103 703
342 802 833
343 260 726
344 221 735
345 777 692
346 984 821
347 912 928
348 475 554
349 959 862
350 646 31
351 991 886
352 735 812
353 707 889
354 333 824
355 824 954
356 197 855
357 487 514
358 570 729
359 653 40
360 850 803
361 630 47
362 563 493
363 216 737
364 689 858
365 688 876
366 883 783
367 334 767
368 847 890
369 966 862
370 524 554
371 181 847
372 886 743
373 241 760
374 995 751
375 663 926
376 660 593
377 807 731
378 124 687
379 282 720
380 704 58
381 950 824
382 825 869
383 795 770
384 150 720
385 664 408
386 222 837
387 930 938
388 313 960
389 819 911
390 906 880
391 180 749
392 914 961
393 357 506
394 649 780
395 975 865
396 687 737
397 258 723
398 543 546
399 660 70
400 650 873
401 541 495
DEMAND_SECTION
2 42
3 56
4 29
5 28
6 66
7 92
8 99
9 97
10 75
11 52
12 13
13 67
14 69
15 60
16 77
17 26
18 97
19 74
20 26
21 28
22 60
23 74
24 87
25 95
26 59
27 56
28 64
29 42
30 68
31 15
32 59
33 62
34 29
35 66
36 63
37 24
38 9
39 73
40 60
41 100
42 56
43 75
44 37
45 100
46 4
47 100
48 33
49 96
50 28
51 78
52 92
53 76
54 84
55 54
56 3
57 14
58 69
59 99
60 66
61 56
62 31
63 8
64 45
65 15
66 10
67 76
68 98
69 99
70 14
71 75
72 91
73 59
74 51
75 66
76 35
77 66
78 77
79 24
80 40
81 28
82 53
83 81
84 52
85 72
86 79
87 22
88 57
89 46
90 60
91 59
92 87
93 88
94 15
95 71
96 93
97 79
98 5
99 69
100 91
101 52
102 16
103 44
104 46
105 43
106 66
107 73
108 94
109 47
110 16
111 44
112 52
113 59
114 83
115 63
116 100
117 29
118 26
119 67
120 70
121 16
122 78
123 32
124 100
125 89
126 52
127 96
128 52
129 88
130 51
131 4
132 45
133 83
134 46
135 75
136 99
137 67
138 19
139 22
140 4
141 23
142 22
143 70
144 80
145 74
146 10
147 36
148 80
149 19
150 49
151 22
152 79
153 59
154 42
155 53
156 72
157 1
158 10
159 7
160 88
161 33
COVERAGE_SECTION
2 11 189 57 191 104 44 350 238 359 296 361 176 
3 11 11 25 331 338 279 135 353 364 73 365 97 
4 11 80 151 173 308 158 401 357 140 235 236 265 
5 11 188 249 314 70 277 161 181 251 37 363 56 
6 11 88 351 395 245 68 369 7 232 337 349 93 
7 11 337 273 395 67 68 133 351 88 6 369 294 
8 11 168 172 241 30 36 52 352 162 54 97 163 
9 11 276 153 396 115 119 376 54 30 358 213 394 
10 11 286 355 41 127 96 229 304 247 264 257 18 
11 11 3 25 331 338 279 135 353 364 73 365 97 
12 11 330 280 242 354 26 367 29 289 118 17 358 
13 11 250 327 43 194 291 128 221 366 223 71 90 
14 11 122 293 51 40 145 393 148 23 61 46 217 
15 11 42 95 376 215 222 35 115 129 79 21 177 
16 11 90 223 221 381 116 327 71 13 250 114 128 
17 11 64 297 354 110 367 29 290 205 334 209 180 
18 11 392 47 174 126 100 326 387 329 347 41 124 
19 11 32 307 372 22 60 333 211 336 28 366 223 
20 11 207 301 259 315 356 386 371 287 154 159 48 
21 11 79 385 309 244 164 111 177 215 42 15 362 
22 11 307 82 19 60 32 74 372 333 28 345 377 
23 11 61 145 84 148 170 51 199 203 212 69 140 
24 11 33 196 368 165 193 257 312 198 252 310 264 
25 11 3 11 331 279 338 353 135 284 365 27 73 
26 11 190 107 106 163 242 113 400 270 213 394 55 
27 11 284 279 225 25 83 3 11 202 331 353 169 
28 11 32 74 336 374 211 19 22 253 372 223 307 
29 11 201 354 297 17 318 64 388 110 315 20 367 
30 11 54 394 172 213 8 396 49 162 168 163 36 
31 11 240 278 378 255 339 131 341 81 384 233 320 
32 11 19 28 74 22 307 336 211 372 374 60 333 
33 11 368 24 310 196 165 264 382 312 198 257 389 
34 11 157 305 317 216 147 268 103 335 179 302 328 
35 11 222 129 155 215 137 42 77 195 398 15 235 
36 11 97 163 364 270 73 338 8 55 365 52 135 
37 11 181 132 161 249 56 251 188 5 314 70 159 
38 11 348 263 325 300 214 370 134 204 158 271 308 
39 11 186 245 45 351 187 6 88 183 288 272 387 
40 11 122 46 393 217 316 14 234 121 167 271 75 
41 11 286 10 18 127 229 392 47 326 174 355 257 
42 11 15 215 222 35 95 79 177 376 195 362 21 
43 11 250 291 366 13 194 327 223 360 128 92 221 
44 11 104 191 2 57 189 350 238 361 359 296 146 
45 11 183 39 288 186 245 329 187 100 126 351 387 
46 11 316 234 40 167 121 271 75 122 214 217 265 
47 11 18 392 347 100 326 387 124 272 174 126 329 
48 11 287 207 301 259 20 315 356 371 154 386 159 
49 11 162 54 172 168 156 396 30 59 8 352 136 
50 11 184 281 298 323 285 237 321 63 324 399 98 
51 11 145 61 23 14 69 148 122 84 170 293 199 
52 11 241 352 331 192 3 11 97 338 8 168 25 
53 11 202 225 143 120 246 353 27 279 284 243 375 
54 11 172 49 396 30 162 168 8 394 156 213 352 
55 11 400 270 171 113 190 73 365 106 364 97 36 
56 11 181 37 149 314 70 188 249 5 132 161 277 
57 11 2 350 189 191 238 104 359 44 296 361 176 
58 11 340 152 86 85 289 375 107 246 106 243 120 
59 11 266 156 185 160 383 162 352 49 231 168 192 
60 11 307 377 19 345 22 333 313 82 372 136 160 
61 11 23 145 84 148 170 51 199 69 203 212 140 
62 11 224 87 76 306 258 81 149 341 320 295 384 
63 11 321 380 200 98 324 66 176 285 399 166 359 
64 11 17 297 110 354 205 334 290 367 209 180 251 
65 11 141 102 111 199 164 170 244 84 309 385 21 
66 11 200 380 176 98 63 324 321 359 189 166 350 
67 11 273 294 133 219 303 337 101 7 68 395 346 
68 11 369 395 349 133 88 93 337 7 67 6 220 
69 11 51 61 145 23 170 84 199 148 14 102 65 
70 11 314 188 277 5 249 391 56 295 181 37 161 
71 11 221 128 114 381 78 269 327 262 220 90 175 
72 11 228 310 312 198 92 382 130 322 360 342 33 
73 11 364 365 135 97 338 171 55 270 353 11 3 
74 11 32 28 22 19 307 82 336 211 374 60 372 
75 11 265 121 167 357 214 158 234 300 80 212 203 
76 11 306 149 87 224 56 371 154 295 258 62 70 
77 11 137 398 235 370 195 155 308 401 173 325 204 
78 11 220 262 114 269 93 349 282 71 381 369 68 
79 11 21 385 177 215 309 42 111 362 244 164 236 
80 11 4 151 158 308 357 140 173 265 401 75 212 
81 11 341 378 320 384 258 278 255 105 87 256 208 
82 11 22 307 60 19 345 74 32 313 119 377 333 
83 11 125 169 247 27 284 225 202 279 99 53 304 
84 11 170 23 61 199 148 145 203 212 140 51 102 
85 11 340 107 106 113 375 400 246 55 171 190 86 
86 11 289 152 340 242 107 58 85 106 113 26 375 
87 11 306 224 76 258 62 295 149 320 384 391 105 
88 11 6 395 68 369 349 93 232 351 7 282 337 
89 11 233 256 31 178 240 378 341 81 278 150 255 
90 11 16 221 223 381 71 327 116 13 114 128 250 
91 11 99 108 283 322 382 169 319 342 284 27 130 
92 11 198 312 72 194 228 310 165 291 128 360 13 
93 11 282 349 369 232 262 220 68 78 88 269 395 
94 11 339 208 363 344 255 131 105 391 142 277 278 
95 11 15 376 115 42 35 215 222 129 276 79 119 
96 11 355 247 389 264 127 10 304 169 125 229 83 
97 11 364 73 338 36 365 135 270 11 3 171 55 
98 11 324 200 176 380 321 399 63 359 296 66 350 
99 11 91 108 283 169 382 322 319 284 342 27 389 
100 11 387 47 272 392 347 329 18 124 126 187 174 
101 11 219 294 303 67 273 346 112 133 337 7 116 
102 11 65 111 141 199 170 84 164 244 61 23 79 
103 11 268 216 157 328 305 146 302 34 230 317 361 
104 11 191 44 2 57 189 350 238 359 361 296 146 
105 11 208 391 258 384 295 320 277 255 70 94 314 
106 11 113 400 107 190 55 85 270 171 375 365 73 
107 11 106 85 113 190 400 340 55 26 289 86 270 
108 11 91 99 283 322 342 319 382 130 231 169 192 
109 11 244 309 164 385 21 226 50 111 184 281 141 
110 11 297 64 17 334 205 354 386 132 180 251 161 
111 11 102 65 164 141 244 199 79 21 309 385 170 
112 11 253 346 101 116 303 219 294 67 273 133 381 
113 11 106 400 55 190 270 171 107 85 375 365 73 
114 11 78 220 262 381 269 71 349 93 221 369 282 
115 11 376 95 276 119 9 15 35 42 129 313 345 
116 11 346 381 112 303 294 101 253 90 114 16 133 
117 11 166 275 139 138 63 66 380 321 200 98 176 
118 11 248 280 239 206 134 261 197 267 254 367 290 
119 11 276 313 345 136 115 9 396 377 49 160 54 
120 11 243 53 246 202 143 225 375 125 353 83 27 
121 11 167 75 265 214 234 300 357 46 158 271 316 
122 11 40 14 46 148 75 145 121 51 234 316 265 
123 11 343 397 142 379 209 227 373 311 344 363 180 
124 11 347 272 326 193 387 47 252 100 187 390 196 
125 11 83 247 304 169 96 225 202 27 284 355 389 
126 11 174 329 392 18 100 288 47 387 347 41 272 
127 11 229 257 264 355 10 41 96 326 196 389 286 
128 11 327 71 221 13 175 194 269 250 291 78 92 
129 11 155 35 222 137 204 77 398 370 235 325 376 
130 11 342 322 231 319 228 72 332 283 108 360 310 
131 11 339 182 299 274 94 255 278 240 208 311 142 
132 11 37 181 161 251 159 249 56 334 180 5 188 
133 11 67 68 294 303 337 395 273 369 7 219 101 
134 11 239 206 38 261 263 348 325 271 118 204 300 
135 11 365 73 338 353 364 171 11 25 97 3 55 
136 11 313 345 160 377 119 266 49 59 156 162 383 
137 11 77 398 235 370 155 195 308 325 401 173 204 
138 11 275 139 117 166 63 226 321 66 285 380 200 
139 11 275 138 117 166 63 285 321 380 66 200 98 
140 11 203 212 151 80 4 236 173 265 148 401 75 
141 11 65 102 111 164 199 170 244 84 309 69 385 
142 11 397 343 123 311 379 344 227 363 209 373 94 
143 11 246 53 375 353 171 202 225 365 135 73 120 
144 11 218 335 179 317 305 302 34 216 157 328 268 
145 11 23 61 51 148 84 170 69 122 14 199 203 
146 11 230 361 238 296 328 350 359 399 302 57 216 
147 11 34 157 103 268 305 216 317 179 237 335 302 
148 11 203 212 23 61 145 84 140 122 75 170 265 
149 11 56 306 76 181 154 70 314 295 37 159 371 
150 11 260 274 240 182 254 178 393 299 131 217 31 
151 11 4 80 173 401 140 308 158 236 357 235 203 
152 11 86 289 58 340 242 85 107 106 113 375 26 
153 11 358 9 213 396 394 129 276 30 376 204 155 
154 11 371 159 356 386 149 56 181 301 132 37 76 
155 11 129 137 204 398 77 35 370 325 222 235 263 
156 11 59 162 266 168 352 49 185 160 172 192 241 
157 11 34 305 216 317 268 103 147 302 328 335 179 
158 11 357 308 80 4 300 265 151 75 214 348 121 
159 11 386 154 132 356 37 181 371 56 149 161 301 
160 11 266 383 185 59 377 136 156 332 313 49 162 
161 11 251 37 249 132 180 5 181 334 188 373 227 
162 11 49 172 168 156 54 8 59 352 30 396 241 
163 11 36 270 190 55 97 400 364 73 8 394 213 
164 11 244 309 111 385 65 21 141 102 79 109 199 
165 11 24 198 312 390 252 33 196 193 92 175 310 
166 11 117 66 63 139 380 200 275 321 176 98 138 
167 11 121 234 214 75 265 300 271 46 316 357 348 
168 11 172 8 162 352 241 156 49 52 54 30 59 
169 11 83 247 389 99 125 91 27 284 96 108 382 
170 11 199 84 61 23 102 145 148 69 203 65 212 
171 11 365 73 135 55 364 400 338 353 143 270 97 
172 11 162 168 54 49 8 30 156 352 396 241 52 
173 11 401 151 4 236 362 235 195 80 308 140 158 
174 11 126 329 392 18 47 100 288 387 41 347 326 
175 11 390 269 128 252 262 71 165 78 282 292 220 
176 11 98 200 324 380 359 399 296 321 66 350 238 
177 11 362 236 195 401 215 173 79 222 235 151 4 
178 11 150 89 210 233 293 240 31 393 274 217 260 
179 11 335 144 218 317 34 305 157 302 216 328 147 
180 11 251 373 334 205 227 161 249 209 132 37 5 
181 11 37 56 132 249 161 188 314 5 70 251 159 
182 11 274 299 131 311 339 240 94 142 397 267 343 
183 11 45 288 39 329 186 126 100 174 245 387 187 
184 11 281 50 298 323 285 237 321 399 324 230 63 
185 11 266 383 59 160 156 231 332 319 130 377 342 
186 11 39 245 187 6 351 88 272 45 232 292 288 
187 11 272 186 292 387 245 232 100 124 6 39 347 
188 11 5 314 249 70 277 181 161 37 56 251 391 
189 11 2 57 191 104 350 44 238 359 296 361 176 
190 11 270 400 55 163 106 113 36 107 171 73 364 
191 11 104 44 2 57 189 350 238 359 361 296 146 
192 11 352 52 241 283 331 319 231 156 342 3 108 
193 11 252 196 390 124 24 257 326 347 165 272 229 
194 11 291 13 43 250 327 92 128 366 360 198 221 
195 11 362 401 235 173 77 177 137 236 398 222 215 
196 11 257 24 193 252 33 165 368 229 264 326 390 
197 11 267 379 311 248 343 397 123 142 290 209 367 
198 11 312 92 310 72 165 228 24 33 194 368 382 
199 11 170 84 102 61 23 65 145 148 111 69 141 
200 11 380 98 176 324 321 66 63 399 359 296 350 
201 11 318 29 388 315 354 297 17 259 64 20 110 
202 11 225 53 143 353 27 279 284 120 246 83 25 
203 11 212 140 148 80 151 265 4 75 236 357 84 
204 11 325 263 155 370 398 137 77 129 38 235 348 
205 11 334 180 373 209 251 227 161 132 37 249 110 
206 11 134 239 263 38 118 261 325 204 348 370 271 
207 11 301 20 287 356 371 259 48 154 315 386 159 
208 11 105 384 391 94 255 320 277 258 295 363 339 
209 11 205 123 343 373 227 180 397 334 379 142 251 
210 11 293 14 51 178 69 145 122 40 393 61 23 
211 11 336 374 16 223 90 253 116 112 28 346 32 
212 11 203 140 148 80 265 75 151 4 357 158 121 
213 11 394 30 163 54 8 396 172 36 168 190 49 
214 11 300 167 121 234 348 357 75 265 158 271 38 
215 11 222 42 35 177 195 362 15 79 137 401 77 
216 11 305 328 302 268 317 103 157 34 146 230 361 
217 11 393 40 316 46 271 234 122 167 121 260 261 
218 11 144 335 317 179 305 302 328 216 34 157 268 
219 11 101 294 67 273 303 133 346 337 7 112 68 
220 11 78 262 114 269 93 349 282 369 68 381 71 
221 11 71 128 327 381 90 114 13 16 78 269 220 
222 11 35 215 195 42 129 137 77 155 362 398 235 
223 11 16 90 250 13 327 43 221 366 71 291 381 
224 11 62 87 76 306 149 258 295 320 56 371 384 
225 11 202 53 27 353 279 284 143 83 25 3 11 
226 11 109 139 50 275 138 285 184 281 63 323 298 
227 11 373 180 251 344 161 363 205 209 249 334 5 
228 11 72 130 310 360 322 312 92 198 342 382 231 
229 11 127 257 326 264 196 41 193 47 347 24 355 
230 11 146 361 399 296 238 359 350 328 57 324 268 
231 11 319 342 130 322 283 185 332 192 108 383 228 
232 11 282 292 93 349 88 369 262 6 68 220 269 
233 11 89 256 31 378 240 341 81 278 255 384 339 
234 11 167 121 271 316 46 214 75 300 265 348 357 
235 11 77 137 398 195 173 401 308 370 4 362 151 
236 11 401 173 362 151 177 140 4 195 80 235 203 
237 11 281 298 323 184 103 268 147 50 157 34 216 
238 11 350 296 359 361 57 2 189 146 191 104 230 
239 11 134 261 206 38 118 263 348 271 325 214 300 
240 11 31 131 278 339 274 255 182 299 378 94 208 
241 11 52 352 168 8 192 331 97 3 11 36 338 
242 11 289 86 26 107 152 12 85 340 106 190 113 
243 11 120 53 246 202 143 225 375 125 304 83 353 
244 11 164 309 385 21 111 109 79 65 141 102 177 
245 11 186 39 351 6 88 187 395 7 232 68 292 
246 11 375 143 53 120 202 171 225 353 243 365 135 
247 11 96 125 169 83 304 355 389 264 10 127 99 
248 11 267 197 254 118 311 379 260 290 343 397 367 
249 11 5 188 314 161 70 37 251 181 277 56 132 
250 11 43 13 291 194 327 366 223 128 221 90 16 
251 11 161 180 373 334 249 227 37 132 205 5 188 
252 11 390 193 124 196 165 175 24 347 292 272 257 
253 11 112 346 116 101 303 219 294 67 374 273 133 
254 11 260 248 261 267 197 274 182 217 311 299 118 
255 11 278 339 208 384 94 105 320 378 131 391 258 
256 11 233 81 341 378 31 89 278 320 384 255 240 
257 11 196 229 264 127 24 193 326 368 33 252 124 
258 11 295 105 320 391 384 208 277 306 87 70 314 
259 11 315 20 207 301 388 48 287 318 356 386 371 
260 11 254 248 217 261 274 150 182 267 393 299 197 
261 11 239 134 271 316 38 234 254 348 206 118 214 
262 11 220 78 269 93 114 282 349 369 232 68 71 
263 11 325 204 38 370 348 398 155 77 137 134 300 
264 11 389 257 368 127 229 33 196 24 96 355 382 
265 11 75 121 357 167 158 80 214 300 212 4 234 
266 11 185 59 160 383 156 332 231 377 162 136 49 
267 11 197 248 311 379 397 343 123 142 299 290 182 
268 11 103 216 328 157 305 146 302 34 230 317 361 
269 11 262 78 220 114 282 93 71 175 349 232 221 
270 11 55 400 190 163 36 73 364 97 171 113 365 
271 11 234 316 167 214 46 121 300 348 261 75 38 
272 11 387 187 124 347 100 47 292 326 193 252 186 
273 11 67 219 337 294 7 101 133 303 395 68 346 
274 11 182 299 131 339 240 311 94 142 267 278 397 
275 11 139 138 117 166 63 321 285 66 380 200 226 
276 11 119 9 115 313 136 396 345 54 49 376 162 
277 11 391 70 314 188 295 5 249 105 363 208 56 
278 11 255 339 378 31 384 131 208 240 94 320 105 
279 11 284 27 25 3 11 331 353 225 135 338 202 
280 11 330 118 367 12 290 354 248 197 17 267 64 
281 11 184 50 298 323 285 237 399 321 103 230 324 
282 11 93 232 349 262 292 220 269 369 78 68 88 
283 11 108 319 91 342 99 322 231 192 130 382 331 
284 11 27 279 25 225 3 11 83 331 202 353 99 
285 11 321 323 298 50 63 184 281 324 98 380 200 
286 11 10 41 355 127 229 96 18 392 304 174 326 
287 11 207 301 371 356 48 154 20 76 159 386 149 
288 11 183 329 126 45 100 174 387 39 186 392 18 
289 11 86 152 242 107 340 85 58 106 26 113 190 
290 11 367 209 379 197 64 205 17 354 123 343 267 
291 11 194 43 250 13 366 327 360 92 128 223 198 
292 11 232 282 93 187 349 88 262 269 369 6 390 
293 11 14 210 51 122 40 393 145 217 46 69 23 
294 11 303 67 101 219 273 133 346 337 7 112 68 
295 11 391 277 258 70 105 314 188 208 5 56 306 
296 11 359 238 350 361 399 57 230 146 176 189 2 
297 11 17 64 110 354 29 334 205 386 367 290 132 
298 11 323 184 281 285 50 399 230 103 237 324 268 
299 11 182 274 131 311 339 142 94 397 343 123 267 
300 11 214 348 357 158 167 121 265 308 75 234 38 
301 11 207 356 20 371 287 154 386 159 259 315 48 
302 11 328 305 216 317 146 268 218 103 157 34 361 
303 11 294 101 67 346 219 133 273 112 116 337 68 
304 11 125 247 96 355 83 10 169 389 286 127 243 
305 11 317 216 302 328 34 157 268 103 218 335 146 
306 11 76 87 149 258 295 224 56 391 70 314 277 
307 11 22 60 19 82 32 333 372 377 345 74 313 
308 11 158 357 4 80 151 235 300 370 173 401 265 
309 11 385 244 164 21 79 111 109 65 102 141 177 
310 11 312 72 198 382 33 228 368 92 24 165 322 
311 11 379 142 397 343 267 299 123 197 182 274 209 
312 11 198 310 92 72 165 33 228 24 368 382 194 
313 11 345 136 119 377 160 276 266 60 383 49 59 
314 11 70 188 5 277 249 56 181 391 295 37 161 
315 11 259 20 207 388 301 318 48 356 201 287 29 
316 11 46 271 234 167 121 217 214 40 393 75 300 
317 11 305 302 216 335 218 34 328 157 179 144 268 
318 11 388 201 29 315 259 20 297 354 17 110 64 
319 11 342 231 283 322 130 108 192 91 99 228 185 
320 11 384 258 105 208 255 295 391 378 341 81 278 
321 11 380 63 200 98 324 176 399 66 285 359 296 
322 11 342 130 319 108 231 283 228 382 91 72 99 
323 11 298 184 281 285 50 399 230 324 103 321 237 
324 11 98 176 200 380 321 399 359 296 63 66 350 
325 11 263 204 370 38 398 348 77 137 155 308 300 
326 11 347 47 124 229 18 257 193 392 196 387 100 
327 11 13 128 250 221 71 194 43 291 90 223 16 
328 11 302 216 305 146 317 268 103 361 230 238 44 
329 11 126 174 288 392 100 18 387 47 183 347 272 
330 11 12 280 354 367 242 118 290 17 29 64 297 
331 11 3 11 25 279 52 338 192 241 284 27 135 
332 11 383 360 130 185 231 266 228 342 160 322 319 
333 11 372 366 377 43 332 360 19 60 250 291 383 
334 11 205 180 251 161 373 227 132 209 37 249 181 
335 11 179 144 218 317 305 34 302 157 216 328 268 
336 11 211 374 16 223 253 90 116 112 28 32 346 
337 11 7 273 67 395 133 68 294 219 369 88 303 
338 11 364 135 73 97 11 365 3 25 353 331 171 
339 11 131 94 255 278 208 299 182 240 105 274 344 
340 11 85 107 58 86 375 106 152 289 113 246 400 
341 11 81 378 320 384 278 255 258 105 208 256 31 
342 11 322 319 130 231 283 108 228 91 99 382 72 
343 11 123 397 142 379 209 311 227 373 344 363 180 
344 11 363 227 94 373 5 142 188 277 123 249 397 
345 11 313 136 119 377 160 60 276 266 383 59 185 
346 11 303 112 116 101 294 219 67 253 133 273 381 
347 11 124 47 326 387 272 100 193 392 18 252 187 
348 11 300 38 214 158 167 357 325 308 121 234 370 
349 11 93 369 68 282 220 395 262 88 232 78 133 
350 11 238 359 57 296 361 2 189 191 104 44 176 
351 11 6 245 7 88 337 395 68 369 186 273 39 
352 11 241 52 168 192 156 8 162 59 172 331 49 
353 11 135 25 365 11 3 338 279 73 143 171 225 
354 11 17 64 297 110 367 29 290 205 334 209 280 
355 11 96 10 127 247 264 304 389 229 286 41 125 
356 11 371 154 301 159 386 207 20 287 149 132 56 
357 11 158 265 308 80 300 75 4 214 121 151 167 
358 11 153 213 394 9 26 30 396 206 54 163 190 
359 11 296 350 238 57 361 399 176 189 2 230 191 
360 11 228 291 194 332 72 43 366 92 130 250 13 
361 11 238 296 146 350 359 230 57 399 191 2 44 
362 11 195 401 177 173 236 235 151 4 215 77 137 
363 11 344 227 5 94 277 188 373 249 70 314 391 
364 11 97 73 338 365 135 36 171 11 270 3 55 
365 11 135 73 171 338 364 353 97 55 11 25 3 
366 11 43 250 291 13 194 360 223 327 372 333 128 
367 11 290 354 64 17 209 197 280 379 205 297 110 
368 11 33 24 264 382 310 196 257 389 165 312 198 
369 11 68 349 395 93 88 133 282 220 232 262 6 
370 11 398 77 325 137 235 308 204 263 158 155 38 
371 11 154 356 159 301 386 149 287 207 56 76 181 
372 11 333 366 43 19 223 250 291 13 360 194 16 
373 11 227 180 251 205 161 334 209 249 344 5 363 
374 11 336 211 253 112 116 28 16 346 90 223 101 
375 11 246 143 85 171 113 53 120 106 340 400 365 
376 11 115 95 15 35 129 42 9 222 276 155 215 
377 11 160 383 345 266 313 136 185 333 332 60 59 
378 11 341 81 278 384 320 255 31 208 105 258 339 
379 11 343 397 123 197 311 142 209 267 290 227 373 
380 11 200 98 321 324 176 63 66 399 359 296 350 
381 11 114 71 221 116 78 90 220 262 16 269 346 
382 11 310 368 33 108 72 322 91 99 312 228 389 
383 11 185 266 160 332 59 377 231 156 130 319 342 
384 11 320 105 208 258 255 378 391 295 278 341 81 
385 11 309 21 244 79 164 111 109 177 42 102 65 
386 11 159 154 356 132 371 37 181 301 56 161 110 
387 11 100 272 347 47 124 392 187 18 329 326 126 
388 11 318 201 315 29 259 20 297 207 17 354 110 
389 11 264 96 169 368 247 33 382 355 127 257 99 
390 11 252 175 193 165 292 124 196 24 269 282 232 
391 11 277 295 105 70 314 208 258 188 5 363 249 
392 11 18 47 174 126 100 329 387 347 326 124 41 
393 11 217 40 46 316 122 271 234 14 167 121 260 
394 11 213 30 163 54 8 172 396 36 168 49 162 
395 11 68 369 88 7 337 349 133 6 93 67 273 
396 11 54 30 49 172 162 394 213 168 8 9 276 
397 11 343 123 142 379 311 209 227 344 373 363 197 
398 11 77 137 370 235 155 195 308 325 204 173 401 
399 11 296 324 98 230 359 176 238 361 350 200 380 
400 11 55 113 270 106 190 171 73 365 163 364 97 
401 11 173 362 236 151 195 4 235 80 308 177 77 
DEPOT_SECTION
   1
   -1
EOF
