NAME :  X-n439-kX-w87-c7.cctp
COMMENT : 	Adapted by Maziero, Usberti and Cavellucci from the Uchoa, Pecin, Pessoa, Poggi, Subramanian, and Vidal (2013)
TYPE :  CCTP
DIMENSION :    301
EDGE_WEIGHT_TYPE : 	EUC_2D	
CAPACITY : 	12
VERTICES_WITHIN_COVERAGE :  7
VERTICES_WITH_DEMAND : 	87
NODE_COORD_SECTION
1 500 500
2 769 259
3 91 377
4 108 338
5 816 567
6 698 341
7 741 237
8 601 140
9 63 359
10 215 608
11 979 914
12 911 697
13 440 593
14 922 765
15 185 756
16 486 158
17 993 628
18 241 33
19 200 756
20 856 440
21 471 712
22 929 649
23 811 44
24 125 727
25 830 484
26 568 366
27 261 394
28 478 965
29 726 474
30 68 952
31 747 716
32 678 366
33 17 603
34 169 689
35 916 565
36 564 913
37 268 681
38 937 878
39 370 634
40 555 847
41 246 911
42 267 333
43 166 257
44 147 179
45 418 383
46 382 886
47 312 911
48 416 186
49 457 582
50 334 882
51 269 710
52 513 910
53 739 882
54 503 682
55 451 911
56 171 656
57 843 44
58 94 165
59 726 411
60 197 498
61 49 726
62 645 224
63 915 247
64 981 775
65 844 973
66 519 268
67 291 97
68 986 589
69 414 719
70 407 720
71 82 782
72 255 312
73 151 291
74 831 520
75 970 760
76 912 77
77 150 909
78 638 624
79 585 630
80 655 287
81 708 178
82 503 504
83 14 634
84 261 106
85 825 599
86 433 646
87 298 153
88 88 970
89 704 58
90 258 52
91 930 209
92 570 72
93 252 338
94 141 741
95 353 966
96 718 880
97 581 608
98 623 619
99 501 929
100 128 931
101 953 786
102 30 752
103 157 419
104 637 668
105 454 640
106 888 420
107 937 231
108 453 708
109 995 666
110 998 151
111 977 113
112 970 790
113 604 21
114 128 917
115 846 937
116 586 561
117 312 123
118 139 930
119 479 760
120 69 875
121 698 197
122 726 250
123 782 561
124 43 320
125 757 331
126 898 518
127 133 541
128 497 279
129 25 118
130 880 166
131 529 957
132 60 701
133 567 295
134 66 72
135 535 391
136 30 683
137 447 677
138 362 365
139 500 86
140 555 154
141 275 341
142 299 644
143 890 504
144 42 970
145 496 177
146 770 402
147 504 867
148 708 580
149 339 760
150 710 910
151 99 352
152 564 708
153 875 761
154 376 398
155 667 49
156 728 515
157 676 316
158 961 518
159 551 563
160 484 538
161 862 621
162 589 636
163 77 733
164 476 800
165 107 535
166 642 249
167 37 871
168 312 676
169 919 95
170 605 144
171 763 884
172 9 106
173 214 887
174 253 819
175 628 365
176 128 138
177 705 400
178 571 979
179 931 739
180 764 26
181 162 169
182 338 947
183 769 882
184 480 60
185 635 657
186 292 467
187 136 228
188 271 154
189 196 682
190 250 283
191 950 598
192 244 524
193 583 858
194 254 471
195 115 623
196 159 246
197 281 865
198 842 436
199 503 302
200 222 615
201 589 627
202 400 209
203 141 757
204 730 710
205 242 378
206 175 791
207 194 777
208 190 651
209 390 185
210 767 916
211 950 134
212 259 336
213 405 778
214 176 687
215 164 230
216 475 364
217 430 195
218 159 665
219 784 688
220 273 68
221 115 719
222 201 591
223 126 178
224 328 138
225 170 673
226 964 859
227 645 937
228 88 608
229 469 662
230 194 760
231 307 322
232 44 357
233 457 666
234 302 159
235 224 678
236 119 717
237 611 940
238 359 422
239 727 839
240 865 435
241 865 403
242 640 408
243 574 311
244 205 298
245 290 86
246 439 192
247 899 450
248 623 138
249 246 268
250 155 167
251 164 337
252 432 202
253 296 166
254 943 753
255 206 641
256 796 849
257 196 585
258 189 611
259 818 409
260 95 550
261 727 707
262 190 624
263 161 32
264 739 302
265 68 320
266 952 269
267 193 734
268 605 969
269 130 185
270 418 214
271 978 671
272 952 836
273 196 8
274 266 151
275 878 317
276 68 190
277 883 786
278 243 672
279 652 671
280 668 495
281 343 94
282 215 0
283 269 280
284 676 898
285 282 320
286 185 62
287 133 311
288 239 64
289 378 491
290 252 657
291 182 66
292 748 760
293 729 319
294 285 650
295 331 10
296 199 630
297 781 445
298 590 258
299 56 412
300 197 739
301 455 395
DEMAND_SECTION
2 1
3 1
4 1
5 1
6 1
7 1
8 1
9 1
10 1
11 1
12 1
13 1
14 1
15 1
16 1
17 1
18 1
19 1
20 1
21 1
22 1
23 1
24 1
25 1
26 1
27 1
28 1
29 1
30 1
31 1
32 1
33 1
34 1
35 1
36 1
37 1
38 1
39 1
40 1
41 1
42 1
43 1
44 1
45 1
46 1
47 1
48 1
49 1
50 1
51 1
52 1
53 1
54 1
55 1
56 1
57 1
58 1
59 1
60 1
61 1
62 1
63 1
64 1
65 1
66 1
67 1
68 1
69 1
70 1
71 1
72 1
73 1
74 1
75 1
76 1
77 1
78 1
79 1
80 1
81 1
82 1
83 1
84 1
85 1
86 1
87 1
88 1
COVERAGE_SECTION
2 6 7 122 264 293 125 121 
3 7 151 9 4 299 232 265 124 
4 7 151 287 3 265 9 251 73 
5 5 85 123 74 161 25 
6 7 32 157 293 264 177 125 80 
7 7 122 2 121 264 81 293 125 
8 7 170 248 140 92 62 145 155 
9 7 232 3 151 265 124 4 299 
10 7 200 222 258 296 257 262 255 
11 7 38 226 272 112 101 115 64 
12 6 179 22 254 14 271 153 
13 7 49 105 86 160 229 233 39 
14 7 254 179 101 277 153 75 112 
15 7 230 19 300 207 267 206 203 
16 6 145 246 217 140 252 139 
17 7 109 68 271 191 22 35 12 
18 7 90 288 282 220 273 286 291 
19 7 230 15 300 207 267 206 203 
20 7 240 198 106 241 247 259 25 
21 7 108 137 54 233 119 229 69 
22 7 12 271 191 17 109 161 68 
23 7 57 180 76 89 169 130 155 
24 7 236 221 94 203 163 34 214 
25 7 74 198 20 240 143 297 126 
26 7 135 243 175 133 242 199 216 
27 7 205 141 93 212 42 194 285 
28 7 99 131 55 52 178 36 147 
29 7 156 280 297 59 177 146 123 
30 7 88 144 100 114 118 120 167 
31 4 204 261 292 219 
32 7 6 177 157 175 242 59 293 
33 7 83 228 136 260 195 132 165 
34 7 214 225 218 189 56 208 267 
35 7 191 126 158 143 68 161 22 
36 7 52 237 131 193 99 178 40 
37 7 278 51 290 294 168 235 142 
38 7 226 272 11 101 112 277 115 
39 7 86 142 168 13 105 294 137 
40 4 193 147 36 52 
41 7 173 197 47 174 50 77 182 
42 6 212 141 93 285 72 231 
43 5 196 215 73 187 244 
44 7 250 181 269 223 176 187 215 
45 5 301 154 138 216 238 
46 7 50 55 47 182 95 197 213 
47 7 50 182 197 41 95 46 173 
48 6 217 252 246 209 202 270 
49 7 13 160 105 86 229 233 82 
50 7 47 46 197 182 95 41 174 
51 6 37 278 168 235 290 294 
52 7 99 147 131 36 55 28 40 
53 7 96 171 183 150 210 239 284 
54 7 229 21 233 108 137 105 152 
55 7 99 28 52 147 46 131 95 
56 7 218 225 208 214 34 189 262 
57 7 23 76 180 169 130 89 211 
58 7 223 276 269 176 44 250 181 
59 7 177 146 29 297 32 6 125 
60 7 192 194 127 257 103 222 165 
61 7 132 163 102 136 71 221 236 
62 7 166 121 80 298 81 122 170 
63 5 107 91 266 275 130 
64 7 75 112 101 254 14 179 272 
65 7 115 210 183 171 38 256 53 
66 5 128 199 133 243 298 
67 7 245 84 117 220 281 224 87 
68 7 191 17 35 158 109 271 22 
69 7 70 108 137 21 213 233 86 
70 7 69 108 213 137 21 233 86 
71 7 163 102 203 61 24 221 94 
72 7 42 212 93 285 190 141 283 
73 7 287 43 196 251 244 215 4 
74 7 25 5 143 123 126 85 20 
75 7 64 254 112 101 179 14 272 
76 7 169 211 111 57 130 23 110 
77 7 114 118 100 173 88 120 30 
78 7 98 185 104 201 279 162 79 
79 7 201 162 97 98 78 185 104 
80 7 157 166 62 6 298 122 293 
81 7 121 7 122 62 248 166 2 
82 7 160 159 49 116 13 135 301 
83 7 33 136 228 132 61 195 163 
84 7 67 245 220 274 288 188 90 
85 3 5 161 123 
86 7 105 233 137 229 13 39 108 
87 6 234 253 188 274 117 224 
88 7 30 144 100 118 114 77 120 
89 7 155 180 113 23 248 81 170 
90 7 220 288 18 245 84 67 282 
91 7 107 63 266 130 211 110 111 
92 7 113 139 8 170 140 248 184 
93 7 212 42 141 72 285 205 190 
94 7 203 24 236 221 15 267 230 
95 7 182 47 46 50 55 41 197 
96 6 53 150 239 171 284 183 
97 7 201 79 162 98 116 159 78 
98 7 78 201 162 79 185 97 104 
99 7 52 131 28 55 147 36 178 
100 7 118 114 77 88 30 120 144 
101 7 112 64 75 254 14 272 179 
102 7 61 163 132 71 136 221 236 
103 7 3 251 60 151 205 4 299 
104 7 185 279 78 98 162 201 79 
105 7 86 233 229 137 13 49 54 
106 4 240 241 247 20 
107 7 91 63 266 130 211 110 275 
108 7 21 137 69 233 70 229 54 
109 7 271 17 22 68 191 12 75 
110 7 111 211 91 169 107 76 130 
111 7 211 110 169 76 91 130 107 
112 7 101 64 75 254 272 14 179 
113 7 92 155 89 8 248 139 170 
114 7 100 118 77 88 30 120 173 
115 7 65 210 183 171 256 38 53 
116 7 159 97 201 79 98 162 78 
117 7 224 67 87 234 281 245 253 
118 7 100 114 77 88 30 173 120 
119 4 164 21 108 213 
120 7 167 114 30 100 77 118 71 
121 7 81 7 62 122 166 2 248 
122 7 7 2 264 121 293 81 80 
123 5 5 85 74 156 148 
124 4 265 232 9 151 
125 6 293 264 6 146 2 157 
126 6 143 35 158 74 247 25 
127 7 165 260 60 257 228 195 222 
128 4 199 66 133 243 
129 6 172 134 58 276 176 223 
130 7 91 211 169 107 63 76 111 
131 7 99 178 52 28 36 268 237 
132 7 61 136 163 221 102 236 24 
133 7 243 298 66 199 26 128 80 
134 5 129 172 176 58 263 
135 7 26 216 301 243 199 175 133 
136 7 132 61 83 102 163 33 221 
137 7 233 229 108 86 105 21 69 
138 3 154 238 45 
139 6 184 92 16 140 145 8 
140 7 8 170 145 16 248 92 139 
141 6 42 212 285 93 72 231 
142 7 294 168 37 290 278 39 51 
143 5 126 247 74 25 35 
144 7 30 88 100 120 167 114 118 
145 6 16 246 140 217 252 48 
146 7 297 59 259 177 125 198 29 
147 7 52 40 99 55 164 36 193 
148 3 156 123 78 
149 7 213 70 69 51 168 174 37 
150 6 96 284 53 210 171 183 
151 7 4 3 9 265 287 232 124 
152 1 54 
153 4 277 14 179 254 
154 4 238 138 45 301 
155 7 89 113 248 92 180 8 170 
156 6 29 280 148 123 297 5 
157 7 6 80 32 293 264 175 166 
158 5 126 35 143 68 191 
159 7 116 97 160 201 79 82 162 
160 7 82 49 13 159 116 105 289 
161 5 85 5 22 35 12 
162 7 79 201 97 98 78 185 104 
163 7 61 132 221 236 24 71 102 
164 5 119 147 213 21 40 
165 7 260 127 228 195 60 257 222 
166 7 62 80 298 157 121 122 133 
167 7 120 30 144 71 114 100 88 
168 7 142 294 37 51 290 278 39 
169 7 76 211 111 130 57 110 91 
170 7 8 248 140 92 62 121 81 
171 7 183 53 210 96 256 239 150 
172 5 129 134 58 276 176 
173 7 41 77 197 174 118 114 100 
174 7 197 207 173 19 206 230 41 
175 7 242 32 26 157 6 243 80 
176 6 223 250 58 44 181 269 
177 7 59 32 6 146 242 29 293 
178 7 268 131 237 36 227 99 52 
179 7 254 14 75 12 101 153 64 
180 7 23 89 57 155 76 113 81 
181 7 250 44 269 223 176 215 187 
182 7 95 47 50 46 41 197 55 
183 7 171 53 210 256 96 239 150 
184 5 139 92 16 145 140 
185 7 104 279 78 98 162 201 79 
186 7 194 192 27 238 289 60 205 
187 7 215 196 43 269 44 223 181 
188 4 274 87 253 234 
189 6 214 34 225 235 208 56 
190 5 249 283 72 244 285 
191 7 68 35 17 22 271 158 109 
192 7 60 194 186 257 222 10 200 
193 2 40 36 
194 7 186 192 60 27 205 103 238 
195 7 228 218 56 225 258 262 260 
196 5 43 215 187 73 44 
197 7 174 47 50 41 173 182 46 
198 6 20 240 259 241 25 106 
199 5 128 66 133 216 243 
200 7 10 296 255 222 258 262 257 
201 7 79 162 97 98 78 185 104 
202 3 270 209 48 
203 7 94 24 15 221 236 206 230 
204 4 261 31 292 219 
205 7 27 93 212 141 42 72 285 
206 7 207 15 230 19 203 300 94 
207 7 230 19 15 206 300 267 203 
208 6 255 56 296 262 225 189 
209 2 48 202 
210 7 171 183 53 150 96 256 115 
211 7 111 169 110 76 130 91 107 
212 7 93 42 141 72 285 205 231 
213 7 70 69 149 164 119 108 21 
214 6 34 225 189 218 56 208 
215 5 196 43 187 44 269 
216 6 301 45 135 199 128 26 
217 6 252 246 48 270 202 209 
218 7 225 56 34 214 208 189 262 
219 1 31 
220 7 90 245 67 288 84 18 117 
221 7 236 24 94 163 203 132 34 
222 7 257 10 258 200 262 296 255 
223 7 269 44 250 58 181 176 187 
224 4 117 234 87 253 
225 7 218 214 34 56 189 208 255 
226 7 272 38 11 112 101 64 75 
227 5 237 284 268 150 36 
228 7 195 260 33 165 83 127 218 
229 7 233 105 137 54 86 108 21 
230 7 19 15 207 300 267 206 203 
231 3 285 141 42 
232 7 9 124 265 3 151 299 4 
233 7 229 137 105 86 108 21 54 
234 5 87 253 188 224 117 
235 6 278 189 290 255 208 37 
236 7 221 24 94 163 203 34 132 
237 5 268 227 36 178 284 
238 5 154 138 45 289 186 
239 3 96 53 171 
240 5 20 198 106 241 247 
241 4 106 240 20 198 
242 7 175 32 177 26 59 6 280 
243 7 133 26 298 66 199 175 128 
244 6 190 249 72 73 43 251 
245 7 67 220 84 117 90 281 288 
246 5 217 252 48 270 202 
247 3 106 240 20 
248 7 170 8 140 92 62 81 121 
249 3 190 283 72 
250 7 181 44 223 269 176 58 187 
251 7 287 73 4 244 151 43 103 
252 5 217 246 270 48 202 
253 4 234 87 188 274 
254 7 179 14 75 101 64 112 12 
255 6 296 208 262 200 10 258 
256 3 183 171 53 
257 7 222 258 10 262 200 296 255 
258 7 262 296 222 10 257 200 255 
259 6 198 241 20 146 297 240 
260 7 165 127 228 195 33 257 258 
261 4 204 31 292 219 
262 7 296 258 255 208 10 200 222 
263 5 286 291 273 282 18 
264 7 293 125 2 122 6 7 157 
265 6 124 9 4 232 151 3 
266 4 107 63 91 275 
267 7 300 15 19 230 207 214 34 
268 5 237 178 227 36 131 
269 7 223 44 250 181 58 187 176 
270 5 252 202 217 48 246 
271 7 109 17 22 12 191 68 179 
272 7 226 38 112 101 64 14 75 
273 7 282 263 18 286 291 288 90 
274 4 188 87 253 234 
275 1 63 
276 2 58 223 
277 6 153 14 179 254 101 272 
278 6 290 235 37 51 294 189 
279 7 104 185 78 98 162 201 79 
280 7 29 156 242 148 59 177 116 
281 4 117 224 67 245 
282 7 273 18 263 90 288 286 291 
283 3 190 249 72 
284 4 150 96 227 53 
285 6 42 141 231 72 212 93 
286 5 291 263 288 273 18 
287 7 73 4 251 151 43 265 196 
288 7 90 18 220 84 286 245 291 
289 7 238 186 154 45 160 13 49 
290 6 278 37 294 235 142 255 
291 5 286 263 288 273 18 
292 2 31 204 
293 7 264 125 6 157 32 122 2 
294 7 142 290 37 168 278 51 235 
295 7 220 90 281 245 18 67 288 
296 7 262 255 258 208 10 200 56 
297 7 146 259 29 198 25 59 20 
298 7 133 166 243 62 80 66 128 
299 7 3 9 232 151 4 124 265 
300 7 267 19 15 230 207 94 206 
301 7 216 45 154 135 138 238 199 
DEPOT_SECTION
   1
   -1
EOF
