NAME :  X-n459-kX-w183-c9.cctp
COMMENT : 	Adapted by Maziero, Usberti and Cavellucci from the Uchoa, Pecin, Pessoa, Poggi, Subramanian, and Vidal (2013)
TYPE :  CCTP
DIMENSION :    459
EDGE_WEIGHT_TYPE : 	EUC_2D	
CAPACITY : 	1106
VERTICES_WITHIN_COVERAGE :  9
VERTICES_WITH_DEMAND : 	183
NODE_COORD_SECTION
1 500 500
2 832 885
3 777 632
4 406 257
5 620 467
6 343 166
7 355 345
8 393 299
9 631 767
10 384 340
11 643 630
12 786 593
13 789 727
14 443 205
15 679 408
16 845 535
17 732 820
18 890 861
19 645 689
20 800 517
21 951 643
22 828 746
23 862 625
24 606 432
25 672 984
26 580 338
27 629 494
28 809 663
29 738 595
30 604 320
31 645 532
32 688 728
33 390 680
34 842 517
35 525 404
36 697 719
37 837 853
38 741 585
39 628 506
40 354 280
41 726 834
42 721 635
43 448 363
44 963 702
45 570 484
46 389 281
47 708 380
48 522 439
49 771 523
50 778 645
51 402 318
52 817 717
53 730 655
54 814 925
55 743 362
56 568 298
57 555 132
58 937 637
59 542 678
60 822 854
61 711 697
62 603 310
63 864 674
64 850 879
65 280 198
66 502 417
67 764 610
68 729 822
69 307 258
70 896 958
71 774 732
72 684 446
73 691 793
74 905 888
75 664 411
76 875 981
77 477 226
78 607 624
79 823 875
80 558 543
81 410 237
82 712 692
83 804 678
84 491 317
85 475 280
86 881 872
87 371 269
88 520 562
89 590 431
90 420 245
91 811 647
92 501 507
93 684 647
94 739 969
95 854 717
96 844 268
97 520 823
98 866 966
99 720 645
100 564 493
101 653 541
102 831 758
103 694 804
104 661 469
105 417 251
106 683 364
107 648 479
108 255 225
109 836 934
110 811 960
111 888 492
112 111 261
113 866 827
114 822 876
115 672 419
116 750 974
117 545 420
118 140 267
119 925 749
120 505 282
121 701 477
122 427 272
123 293 242
124 757 929
125 856 861
126 848 809
127 331 214
128 682 480
129 804 638
130 349 234
131 426 194
132 499 348
133 692 700
134 331 318
135 738 644
136 967 900
137 604 563
138 701 540
139 523 429
140 834 880
141 714 644
142 369 222
143 720 566
144 606 512
145 840 926
146 786 354
147 667 709
148 670 508
149 456 202
150 827 687
151 871 800
152 556 837
153 810 589
154 537 360
155 456 275
156 688 214
157 346 163
158 880 569
159 360 215
160 849 686
161 617 420
162 308 466
163 734 534
164 880 638
165 751 763
166 616 485
167 719 744
168 371 346
169 379 420
170 565 524
171 377 138
172 864 721
173 823 535
174 367 218
175 614 761
176 659 383
177 867 910
178 717 895
179 865 793
180 588 663
181 595 488
182 408 268
183 713 863
184 652 409
185 920 394
186 819 367
187 653 425
188 618 425
189 657 290
190 709 839
191 739 541
192 909 732
193 373 218
194 375 283
195 278 391
196 843 873
197 443 229
198 756 702
199 365 293
200 821 637
201 477 191
202 401 102
203 359 290
204 791 751
205 938 787
206 709 469
207 329 178
208 559 543
209 916 882
210 758 635
211 855 710
212 797 783
213 428 238
214 802 823
215 730 542
216 797 464
217 217 29
218 939 745
219 911 889
220 829 679
221 678 523
222 709 224
223 550 429
224 821 933
225 798 482
226 686 615
227 735 658
228 728 531
229 736 452
230 721 459
231 818 377
232 421 479
233 768 524
234 498 441
235 601 454
236 851 574
237 662 511
238 526 279
239 447 601
240 889 610
241 891 930
242 483 278
243 728 845
244 451 299
245 308 215
246 643 486
247 758 963
248 439 458
249 830 608
250 387 233
251 837 948
252 561 410
253 721 439
254 778 640
255 826 627
256 644 724
257 515 465
258 728 651
259 666 474
260 759 94
261 525 419
262 927 692
263 597 228
264 448 218
265 575 349
266 921 883
267 406 172
268 840 847
269 787 660
270 301 545
271 668 880
272 594 416
273 791 861
274 740 581
275 438 272
276 500 259
277 600 464
278 965 412
279 614 568
280 829 644
281 556 518
282 660 676
283 525 793
284 623 482
285 369 195
286 805 668
287 820 936
288 879 886
289 713 679
290 728 597
291 833 719
292 720 473
293 744 569
294 739 539
295 644 446
296 896 850
297 393 284
298 708 586
299 694 612
300 446 162
301 383 213
302 738 669
303 726 702
304 749 641
305 499 397
306 335 416
307 828 951
308 634 368
309 720 559
310 428 272
311 664 226
312 772 626
313 602 466
314 592 394
315 627 408
316 754 637
317 643 572
318 699 167
319 880 867
320 493 305
321 698 630
322 819 640
323 819 577
324 860 866
325 303 326
326 523 470
327 780 647
328 630 579
329 893 578
330 545 465
331 782 723
332 639 609
333 313 267
334 810 893
335 407 307
336 808 666
337 621 427
338 841 943
339 761 602
340 513 340
341 335 150
342 807 564
343 715 936
344 818 834
345 881 870
346 300 679
347 628 402
348 697 551
349 342 373
350 819 859
351 830 955
352 651 493
353 378 248
354 675 424
355 700 76
356 398 303
357 890 373
358 799 623
359 812 806
360 770 860
361 776 711
362 661 839
363 829 895
364 392 227
365 891 565
366 569 489
367 824 716
368 827 436
369 380 217
370 527 376
371 838 855
372 537 432
373 468 195
374 714 807
375 553 104
376 448 331
377 846 863
378 815 689
379 639 332
380 748 365
381 577 442
382 572 461
383 431 304
384 731 688
385 415 256
386 933 687
387 461 392
388 827 906
389 786 737
390 825 375
391 583 513
392 793 632
393 540 374
394 604 445
395 303 293
396 802 534
397 443 308
398 298 118
399 500 353
400 818 892
401 487 444
402 744 657
403 701 547
404 297 237
405 660 436
406 580 450
407 591 411
408 877 905
409 377 314
410 868 819
411 750 857
412 643 336
413 770 609
414 873 547
415 746 949
416 771 418
417 736 788
418 676 521
419 934 919
420 673 493
421 817 914
422 493 28
423 322 227
424 746 617
425 754 950
426 523 296
427 675 488
428 860 848
429 466 251
430 772 307
431 396 235
432 796 976
433 792 646
434 417 267
435 871 536
436 285 205
437 474 257
438 854 648
439 602 262
440 950 821
441 698 633
442 760 957
443 418 292
444 690 602
445 669 683
446 565 562
447 832 811
448 797 722
449 594 646
450 597 358
451 944 834
452 776 610
453 719 441
454 832 908
455 702 378
456 604 494
457 757 832
458 647 400
459 601 706
DEMAND_SECTION
2 71
3 54
4 74
5 9
6 91
7 98
8 72
9 67
10 70
11 68
12 92
13 93
14 97
15 23
16 75
17 61
18 91
19 61
20 89
21 70
22 63
23 93
24 18
25 65
26 33
27 11
28 80
29 88
30 7
31 71
32 68
33 38
34 79
35 28
36 63
37 99
38 99
39 94
40 69
41 78
42 76
43 90
44 57
45 29
46 82
47 42
48 18
49 58
50 89
51 85
52 66
53 57
54 75
55 1
56 49
57 8
58 51
59 67
60 58
61 66
62 13
63 69
64 85
65 53
66 30
67 67
68 79
69 79
70 90
71 81
72 33
73 80
74 78
75 6
76 93
77 60
78 60
79 83
80 97
81 76
82 60
83 94
84 59
85 72
86 58
87 59
88 97
89 11
90 70
91 90
92 54
93 73
94 61
95 52
96 46
97 77
98 60
99 100
100 10
101 100
102 76
103 67
104 45
105 84
106 14
107 49
108 61
109 97
110 55
111 9
112 52
113 99
114 83
115 26
116 85
117 43
118 74
119 98
120 28
121 5
122 66
123 71
124 58
125 90
126 75
127 59
128 3
129 95
130 62
131 54
132 78
133 93
134 54
135 57
136 100
137 89
138 72
139 19
140 55
141 81
142 86
143 64
144 87
145 97
146 7
147 75
148 76
149 98
150 68
151 67
152 59
153 76
154 27
155 67
156 50
157 72
158 91
159 54
160 54
161 11
162 55
163 62
164 89
165 61
166 19
167 79
168 71
169 56
170 75
171 97
172 51
173 93
174 54
175 93
176 47
177 95
178 67
179 77
180 93
181 26
182 82
183 78
184 17
COVERAGE_SECTION
2 9 140 363 79 114 196 400 64 388 334 
3 9 254 312 50 327 392 210 433 452 316 
4 9 385 182 105 434 90 81 431 122 310 
5 9 284 166 313 277 235 394 27 107 246 
6 9 157 207 341 285 171 127 159 174 193 
7 9 168 10 349 134 409 199 51 203 325 
8 9 356 297 335 46 51 409 194 443 199 
9 9 175 256 73 147 459 32 103 362 19 
10 9 168 409 51 7 335 356 8 199 349 
11 9 332 78 93 226 282 449 328 299 321 
12 9 452 413 153 339 67 358 312 342 323 
13 9 331 448 389 71 361 204 52 367 198 
14 9 149 264 131 197 373 213 201 77 300 
15 9 115 75 354 184 187 176 458 405 72 
16 9 34 173 435 414 236 396 20 342 158 
17 9 68 41 374 243 457 190 417 103 411 
18 9 319 296 345 86 288 324 74 209 428 
19 9 282 445 147 256 459 133 93 32 11 
20 9 396 173 49 233 225 34 16 342 216 
21 9 58 386 262 44 240 164 329 23 63 
22 9 102 291 367 52 204 95 448 13 389 
23 9 164 438 240 249 255 280 200 322 63 
24 9 394 188 89 161 337 272 235 407 381 
25 9 343 94 116 415 247 425 442 178 124 
26 9 265 450 30 62 56 154 393 314 379 
27 9 39 284 166 246 352 107 456 5 144 
28 9 336 286 83 91 269 433 129 322 220 
29 9 38 290 274 424 339 293 67 298 143 
30 9 62 26 379 450 265 56 412 308 439 
31 9 101 237 39 418 221 148 352 317 27 
32 9 36 133 147 167 61 82 256 303 445 
33 9 346 239 59 270 88 283 97 180 232 
34 9 16 173 435 20 396 414 111 225 236 
35 9 261 139 66 117 305 370 372 393 48 
36 9 32 133 61 82 147 167 303 289 384 
37 9 371 268 377 60 350 125 196 428 79 
38 9 274 29 293 290 339 143 424 298 309 
39 9 27 144 166 246 284 352 456 31 107 
40 9 203 199 87 194 46 297 353 409 8 
41 9 243 68 17 190 374 457 183 411 103 
42 9 99 141 258 135 53 441 321 227 304 
43 9 376 387 132 399 397 305 383 84 51 
44 9 386 262 218 21 119 192 58 205 172 
45 9 366 100 382 181 330 391 406 456 277 
46 9 297 194 8 87 182 356 199 4 203 
47 9 455 106 55 15 380 176 115 75 354 
48 9 139 372 261 234 257 66 117 223 326 
49 9 233 20 396 294 191 163 228 215 225 
50 9 327 254 3 433 269 312 392 210 316 
51 9 335 356 8 409 10 443 383 297 46 
52 9 367 291 448 378 13 22 150 331 95 
53 9 258 227 99 135 402 302 141 42 304 
54 9 224 421 287 388 109 454 145 307 334 
55 9 380 47 146 455 106 430 416 186 231 
56 9 62 26 30 426 238 439 265 120 450 
57 9 375 201 263 373 300 149 422 77 14 
58 9 21 386 240 262 164 44 329 23 63 
59 9 180 449 459 78 19 175 11 256 283 
60 9 350 37 371 268 344 79 114 377 196 
61 9 82 303 289 133 384 36 32 302 445 
62 9 30 26 56 379 265 412 439 450 189 
63 9 160 438 220 211 150 164 95 280 172 
64 9 196 140 324 377 2 125 363 79 371 
65 9 436 245 108 404 123 423 127 207 69 
66 9 305 261 139 234 35 48 401 372 117 
67 9 413 339 452 312 424 3 210 12 316 
68 9 17 41 374 243 190 457 417 103 411 
69 9 333 123 404 423 395 245 130 127 40 
70 9 241 76 98 419 177 408 338 251 145 
71 9 331 389 13 361 204 448 198 165 52 
72 9 354 405 115 104 259 128 206 121 453 
73 9 103 374 417 68 17 190 41 362 167 
74 9 219 209 266 288 86 345 18 319 408 
75 9 115 184 15 354 187 458 405 176 315 
76 9 98 70 251 338 351 241 307 109 145 
77 9 429 264 437 149 373 197 201 14 276 
78 9 449 332 11 180 328 279 137 317 282 
79 9 114 140 2 350 400 196 60 363 334 
80 9 208 170 446 281 391 88 100 137 366 
81 9 90 431 105 213 4 385 364 250 182 
82 9 61 289 303 384 133 36 302 53 227 
83 9 286 336 28 378 150 220 269 91 433 
84 9 320 132 340 399 120 426 85 242 244 
85 9 242 155 437 120 429 244 320 276 275 
86 9 345 319 18 288 324 125 296 74 64 
87 9 194 40 46 353 203 199 297 4 8 
88 9 80 208 446 281 92 170 391 100 239 
89 9 24 272 381 394 407 406 235 161 188 
90 9 105 213 385 81 4 434 182 431 122 
91 9 129 322 200 28 280 336 433 286 392 
92 9 326 257 281 88 330 100 401 170 234 
93 9 441 321 141 226 99 299 282 42 445 
94 9 116 247 415 425 442 343 124 432 25 
95 9 211 172 291 367 160 52 22 150 63 
96 9 430 186 146 390 231 357 380 55 222 
97 9 283 152 175 9 362 459 59 256 271 
98 9 76 70 251 338 351 307 109 241 145 
99 9 141 42 258 53 135 227 441 321 402 
100 9 366 45 281 391 170 181 382 330 456 
101 9 31 418 221 237 317 148 39 328 348 
102 9 22 291 204 212 52 367 95 179 172 
103 9 73 374 190 68 17 41 417 362 243 
104 9 259 107 128 427 246 352 420 295 72 
105 9 385 90 4 81 434 213 182 122 310 
106 9 455 47 176 15 308 412 75 458 379 
107 9 246 352 104 259 27 284 427 420 5 
108 9 436 65 123 404 245 69 423 333 127 
109 9 145 338 251 224 287 307 351 54 454 
110 9 307 351 432 287 224 251 338 54 109 
111 9 435 34 414 16 365 158 173 368 329 
112 9 118 108 65 123 436 404 395 69 245 
113 9 410 428 126 151 268 179 125 296 447 
114 9 79 2 140 400 350 363 196 334 60 
115 9 354 75 15 187 405 184 72 458 176 
116 9 94 247 442 425 415 124 432 343 110 
117 9 223 372 252 261 139 35 48 381 66 
118 9 112 108 123 65 436 404 395 69 325 
119 9 218 192 205 262 44 386 172 151 179 
120 9 238 242 426 276 320 85 84 437 155 
121 9 206 128 292 230 427 420 72 259 453 
122 9 310 275 434 182 385 443 105 4 90 
123 9 404 69 245 333 423 436 108 65 127 
124 9 425 415 442 247 343 94 116 178 54 
125 9 324 377 428 196 64 371 37 268 319 
126 9 447 410 179 113 151 359 268 344 428 
127 9 423 245 130 159 174 207 142 404 193 
128 9 427 420 259 121 104 206 148 72 107 
129 9 91 392 433 322 358 200 28 255 254 
130 9 159 142 174 127 423 193 353 369 250 
131 9 14 267 149 264 300 197 373 213 81 
132 9 399 340 84 154 370 320 305 393 43 
133 9 61 36 82 147 32 445 289 303 282 
134 9 325 7 395 203 199 40 409 168 333 
135 9 304 258 53 227 402 316 99 42 210 
136 9 419 266 209 219 74 451 440 241 18 
137 9 279 328 446 317 208 80 31 144 101 
138 9 403 348 309 228 215 221 418 143 163 
139 9 48 261 372 66 117 35 223 234 257 
140 9 2 196 79 114 64 363 400 377 371 
141 9 99 42 258 53 441 321 135 227 93 
142 9 174 193 159 369 301 250 130 364 285 
143 9 309 298 293 274 215 348 403 38 191 
144 9 456 39 391 181 27 166 284 170 31 
145 9 109 338 224 454 251 287 388 54 421 
146 9 186 231 380 55 390 430 416 47 455 
147 9 445 133 256 32 19 36 282 61 82 
148 9 237 418 420 221 427 352 128 259 31 
149 9 14 373 264 201 197 131 77 300 213 
150 9 220 378 160 83 336 286 367 28 52 
151 9 179 410 126 113 447 428 268 296 102 
152 9 97 283 175 9 362 271 459 73 103 
153 9 323 12 342 249 358 452 255 236 413 
154 9 393 370 340 399 132 265 35 26 305 
155 9 275 85 244 437 429 242 310 122 397 
156 9 222 311 318 189 263 439 430 62 379 
157 9 6 341 207 285 171 127 159 174 193 
158 9 365 329 414 236 435 240 16 23 323 
159 9 174 142 193 369 130 285 301 127 250 
160 9 63 220 150 211 95 378 291 172 438 
161 9 188 337 24 315 347 272 394 407 89 
162 9 306 270 195 169 349 232 7 248 168 
163 9 228 294 191 215 309 138 143 233 403 
164 9 23 438 240 63 280 255 58 160 249 
165 9 417 167 71 204 389 212 331 13 374 
166 9 284 456 27 5 181 39 313 277 246 
167 9 36 32 165 303 417 61 82 133 71 
168 9 10 7 409 349 51 134 356 8 199 
169 9 306 349 248 232 168 7 10 162 387 
170 9 281 80 208 391 100 366 446 45 144 
171 9 157 202 6 341 267 285 207 300 131 
172 9 95 211 291 160 367 22 192 52 63 
173 9 396 16 34 20 342 323 236 435 414 
174 9 142 193 159 369 301 285 130 250 364 
175 9 9 256 459 147 19 32 73 103 362 
176 9 458 184 75 308 106 15 347 115 315 
177 9 408 288 145 241 64 454 109 86 388 
178 9 183 343 411 243 271 124 190 415 41 
179 9 151 126 410 113 447 102 359 428 22 
180 9 449 78 459 59 19 11 282 332 256 
181 9 456 166 313 45 277 144 366 391 284 
182 9 434 4 385 105 122 310 297 46 90 
183 9 243 190 41 178 411 68 17 271 457 
184 9 458 75 187 115 315 347 15 176 354 
185 9 357 278 390 368 111 231 186 146 216 
186 9 231 390 146 368 416 357 380 55 430 
187 9 405 184 75 115 354 295 458 15 315 
188 9 337 161 24 315 394 347 272 89 407 
189 9 379 412 62 30 439 311 106 308 156 
190 9 41 243 183 68 17 374 103 411 362 
191 9 294 163 215 228 309 293 143 233 49 
192 9 119 218 262 172 386 95 211 44 205 
193 9 142 174 369 301 159 250 364 285 130 
194 9 46 199 87 203 297 40 8 356 409 
195 9 306 349 325 162 7 134 395 168 169 
196 9 64 377 140 2 125 324 371 79 37 
197 9 264 213 14 90 149 429 77 81 105 
198 9 361 384 303 331 71 302 13 61 82 
199 9 203 194 40 409 87 46 8 297 356 
200 9 322 255 280 91 129 358 392 28 249 
201 9 373 149 77 14 264 300 131 197 429 
202 9 171 267 300 157 341 6 131 285 398 
203 9 199 40 194 87 409 46 8 297 134 
204 9 389 13 71 331 448 212 22 102 165 
205 9 440 119 218 451 192 151 179 296 410 
206 9 121 292 230 128 453 229 253 72 427 
207 9 6 157 341 127 245 285 159 423 436 
208 9 80 170 446 281 391 88 137 100 366 
209 9 266 219 74 18 86 288 345 296 319 
210 9 316 304 312 3 254 50 135 424 327 
211 9 95 172 291 160 367 150 63 52 220 
212 9 359 204 214 102 447 389 22 165 344 
213 9 90 105 197 81 385 264 4 434 431 
214 9 344 359 447 60 212 273 350 268 37 
215 9 163 191 294 228 309 143 138 403 293 
216 9 225 368 20 416 229 49 233 34 396 
217 9 398 341 65 6 157 207 436 171 202 
218 9 119 192 205 44 262 386 440 172 151 
219 9 74 209 266 288 86 18 345 319 408 
220 9 150 378 160 83 336 28 286 63 280 
221 9 418 148 237 138 420 101 403 31 348 
222 9 156 311 318 189 430 263 439 379 412 
223 9 117 372 252 139 261 48 381 35 330 
224 9 287 54 109 307 421 145 251 338 351 
225 9 216 20 49 233 396 368 34 173 229 
226 9 299 444 321 441 93 298 42 141 99 
227 9 53 402 258 302 135 99 304 141 42 
228 9 163 215 294 191 138 309 403 143 348 
229 9 230 253 453 292 206 121 416 72 128 
230 9 292 206 229 453 253 121 72 128 427 
231 9 390 186 146 368 416 380 357 55 430 
232 9 248 169 401 92 234 257 387 66 326 
233 9 49 20 294 191 163 396 228 215 293 
234 9 401 48 66 139 257 261 326 372 305 
235 9 394 277 313 406 5 24 89 381 382 
236 9 158 323 414 16 249 365 329 435 153 
237 9 148 418 221 352 420 427 31 101 246 
238 9 426 120 276 320 242 56 85 84 437 
239 9 88 33 92 59 446 80 232 208 281 
240 9 164 23 329 158 365 236 438 58 249 
241 9 70 408 177 74 98 419 219 288 145 
242 9 85 120 437 276 155 320 429 244 84 
243 9 41 190 68 183 17 411 457 374 360 
244 9 397 383 155 275 85 376 443 310 122 
245 9 423 127 404 436 123 65 69 207 130 
246 9 107 352 27 284 39 104 259 166 5 
247 9 442 116 425 415 94 124 432 343 110 
248 9 232 401 234 387 169 66 257 92 48 
249 9 255 153 200 323 322 358 23 280 129 
250 9 364 431 353 369 301 142 193 81 174 
251 9 338 307 351 109 287 145 224 110 54 
252 9 117 223 407 372 272 314 35 89 381 
253 9 453 229 230 206 292 72 121 354 15 
254 9 50 327 3 312 433 392 210 269 316 
255 9 200 322 280 249 91 129 358 392 438 
256 9 147 19 32 9 459 175 445 282 36 
257 9 326 48 234 330 401 139 372 92 261 
258 9 53 99 227 135 141 42 402 302 304 
259 9 104 128 427 107 420 352 246 72 148 
260 9 355 318 156 222 311 96 375 57 263 
261 9 139 35 372 48 117 66 223 305 234 
262 9 386 44 192 218 21 58 119 63 172 
263 9 439 311 56 62 189 238 30 156 426 
264 9 197 14 149 213 77 373 131 429 90 
265 9 26 450 154 30 393 62 314 56 370 
266 9 209 219 74 18 419 86 296 288 345 
267 9 131 300 285 171 301 14 369 193 364 
268 9 37 371 377 60 428 125 350 196 344 
269 9 327 433 50 286 28 254 336 83 91 
270 9 162 306 346 232 169 195 239 33 248 
271 9 362 183 178 190 243 343 41 103 68 
272 9 407 89 24 314 161 188 337 381 394 
273 9 360 350 60 114 79 334 344 214 400 
274 9 38 293 29 290 143 309 339 298 424 
275 9 310 122 155 434 385 443 105 182 244 
276 9 120 242 437 85 238 429 77 426 155 
277 9 313 235 394 5 406 181 166 382 284 
278 9 185 357 111 368 390 231 186 435 34 
279 9 137 328 317 101 31 332 446 78 144 
280 9 200 322 255 91 438 129 28 336 286 
281 9 170 80 208 100 391 366 45 446 181 
282 9 445 19 147 93 133 11 256 289 82 
283 9 97 152 175 9 59 459 256 180 362 
284 9 166 27 5 246 456 39 107 313 181 
285 9 159 174 193 301 369 142 6 157 364 
286 9 336 28 83 269 91 378 220 433 150 
287 9 224 54 109 307 251 351 145 338 421 
288 9 86 345 319 408 74 18 177 324 64 
289 9 82 61 384 303 302 53 133 227 258 
290 9 29 38 274 298 424 143 293 339 299 
291 9 367 52 95 211 22 172 150 378 448 
292 9 206 230 121 229 453 253 128 72 427 
293 9 274 38 143 309 29 191 215 294 290 
294 9 191 163 215 228 309 293 143 233 49 
295 9 405 187 104 337 5 107 188 259 161 
296 9 18 319 345 86 428 113 209 74 324 
297 9 46 8 194 356 182 443 87 335 199 
298 9 143 290 444 299 309 29 274 38 226 
299 9 226 444 321 441 298 42 93 290 141 
300 9 131 373 149 267 201 14 264 197 77 
301 9 369 193 142 174 364 250 159 285 431 
302 9 227 402 53 384 258 135 289 99 304 
303 9 384 61 82 289 198 36 133 302 167 
304 9 316 135 210 402 227 258 53 424 312 
305 9 66 35 261 370 387 139 234 399 393 
306 9 169 349 162 195 7 168 10 325 134 
307 9 351 251 338 287 109 110 224 145 54 
308 9 176 412 347 458 379 450 315 184 106 
309 9 143 215 403 348 191 293 138 294 163 
310 9 122 275 434 182 385 443 105 4 90 
311 9 156 222 189 263 318 439 62 379 30 
312 9 3 254 452 210 413 67 50 316 327 
313 9 277 235 5 394 181 166 284 406 456 
314 9 407 272 252 161 450 89 347 315 24 
315 9 347 161 188 337 458 184 187 24 272 
316 9 210 304 135 312 402 424 3 254 50 
317 9 328 279 101 332 31 137 444 11 348 
318 9 156 222 311 355 260 263 189 439 57 
319 9 345 86 18 288 324 296 125 428 64 
320 9 84 120 242 85 426 340 238 244 132 
321 9 441 299 226 141 93 42 99 444 258 
322 9 200 91 280 129 255 28 358 392 336 
323 9 153 342 236 249 12 173 396 16 255 
324 9 125 377 64 196 428 319 345 86 371 
325 9 134 395 7 333 349 203 69 40 195 
326 9 257 330 48 234 372 139 92 401 100 
327 9 50 254 433 3 269 392 312 210 129 
328 9 317 279 137 332 101 31 78 11 444 
329 9 365 158 240 414 236 435 23 164 16 
330 9 326 382 257 45 100 366 372 48 223 
331 9 13 71 361 389 448 204 198 52 367 
332 9 11 328 78 317 226 279 444 299 137 
333 9 69 395 123 404 423 40 130 203 245 
334 9 400 363 114 388 79 421 2 140 454 
335 9 356 51 8 443 383 297 409 46 397 
336 9 28 286 83 91 269 378 220 433 129 
337 9 188 161 24 315 394 347 272 295 89 
338 9 251 109 307 351 145 224 287 54 98 
339 9 67 413 452 424 29 38 312 12 274 
340 9 132 399 154 84 370 320 393 426 120 
341 9 157 6 207 171 398 285 127 159 245 
342 9 323 153 396 173 12 236 16 20 249 
343 9 415 94 178 425 124 442 247 116 25 
344 9 214 60 350 268 37 447 359 371 273 
345 9 86 319 18 288 324 296 125 74 428 
346 9 33 270 239 162 232 59 88 283 248 
347 9 315 458 161 184 188 337 187 308 176 
348 9 403 138 309 143 215 221 228 298 418 
349 9 7 168 306 10 134 169 325 195 409 
350 9 60 79 114 37 371 268 344 140 377 
351 9 307 251 338 110 287 109 224 145 54 
352 9 246 107 237 27 420 148 259 427 39 
353 9 250 87 431 364 142 4 193 369 130 
354 9 115 15 75 405 187 72 184 458 295 
355 9 260 318 156 222 375 311 57 263 439 
356 9 8 335 51 297 443 46 409 194 383 
357 9 185 390 186 231 278 368 146 96 111 
358 9 392 129 3 433 200 322 452 91 254 
359 9 214 447 212 344 126 60 268 102 37 
360 9 411 273 457 243 214 350 41 60 334 
361 9 331 13 71 198 448 389 52 83 204 
362 9 271 103 190 73 183 374 41 243 68 
363 9 2 388 400 454 140 334 114 79 421 
364 9 250 431 369 301 81 193 142 353 174 
365 9 158 329 414 435 236 240 16 23 34 
366 9 45 100 181 382 391 281 330 170 456 
367 9 52 291 378 448 150 22 95 211 13 
368 9 216 225 416 231 390 186 34 111 20 
369 9 301 193 142 174 364 250 159 431 285 
370 9 393 154 35 305 399 340 132 261 66 
371 9 37 268 377 60 125 196 350 428 79 
372 9 223 117 139 48 261 35 252 330 66 
373 9 201 149 14 264 77 300 131 197 429 
374 9 103 68 17 73 417 41 190 243 457 
375 9 57 422 201 300 373 263 149 77 14 
376 9 397 43 244 383 84 51 335 443 320 
377 9 125 196 371 37 324 64 268 140 428 
378 9 150 83 220 286 336 28 52 367 160 
379 9 412 308 30 62 189 450 106 176 26 
380 9 55 146 47 455 416 430 106 186 231 
381 9 406 89 382 235 394 223 24 272 277 
382 9 406 381 45 330 277 366 235 313 100 
383 9 397 443 244 335 51 122 310 376 275 
384 9 303 82 289 302 61 198 227 53 402 
385 9 105 4 434 90 182 81 122 310 213 
386 9 262 44 21 58 192 218 119 63 164 
387 9 43 305 66 399 132 401 234 376 35 
388 9 454 363 421 400 334 2 54 145 140 
389 9 13 71 204 331 448 361 52 22 367 
390 9 231 186 146 368 357 416 380 55 430 
391 9 170 144 281 100 181 366 456 45 208 
392 9 358 129 433 3 254 50 327 312 91 
393 9 370 154 35 252 265 340 399 117 261 
394 9 235 24 277 89 313 188 337 406 5 
395 9 333 325 69 134 123 40 203 404 199 
396 9 20 173 342 49 233 16 34 323 225 
397 9 244 383 376 443 155 275 335 122 310 
398 9 341 6 157 207 171 65 436 245 127 
399 9 132 340 370 84 154 305 393 320 43 
400 9 334 363 2 114 388 79 140 454 421 
401 9 234 66 48 257 139 326 261 305 248 
402 9 227 302 53 135 258 304 316 210 99 
403 9 348 138 309 143 215 228 221 163 418 
404 9 123 69 245 423 333 436 127 65 108 
405 9 187 295 354 115 75 72 184 104 15 
406 9 381 382 89 235 277 394 313 24 45 
407 9 272 314 89 24 161 188 252 337 381 
408 9 177 288 241 74 86 345 64 219 319 
409 9 8 199 356 51 10 203 194 335 168 
410 9 113 151 126 179 428 447 268 296 125 
411 9 360 243 457 41 183 17 68 273 190 
412 9 379 308 30 62 189 106 176 450 26 
413 9 67 452 339 312 12 3 424 210 254 
414 9 435 158 365 16 236 329 34 173 111 
415 9 425 442 247 94 124 116 343 432 178 
416 9 229 216 253 453 380 368 231 55 230 
417 9 165 374 17 68 73 103 41 167 457 
418 9 221 148 237 420 101 138 31 427 403 
419 9 136 219 266 209 74 241 70 408 288 
420 9 427 148 128 259 237 352 104 418 107 
421 9 54 388 454 224 287 334 363 400 145 
422 9 375 202 57 300 171 201 267 373 149 
423 9 127 245 404 130 123 69 159 333 436 
424 9 67 339 210 316 29 304 413 290 135 
425 9 415 442 247 124 94 116 343 432 110 
426 9 238 120 320 84 242 276 56 340 85 
427 9 420 128 259 148 104 352 237 107 121 
428 9 125 324 268 377 113 371 37 319 196 
429 9 437 155 77 85 197 242 275 276 264 
430 9 146 55 380 186 96 231 390 47 455 
431 9 250 364 81 353 4 369 90 105 301 
432 9 110 247 351 307 442 116 287 425 224 
433 9 327 50 129 392 254 269 91 3 28 
434 9 182 122 385 310 4 105 90 275 443 
435 9 414 16 158 34 365 236 111 329 173 
436 9 65 245 404 108 123 423 127 207 69 
437 9 429 85 242 155 276 77 275 120 197 
438 9 23 280 63 164 200 255 322 160 220 
439 9 263 62 56 30 189 311 238 26 379 
440 9 451 205 296 266 209 18 119 218 219 
441 9 321 141 93 299 226 42 99 444 258 
442 9 247 425 415 116 94 124 432 343 110 
443 9 383 335 122 310 356 434 8 182 297 
444 9 299 226 298 321 441 290 42 93 143 
445 9 282 19 147 133 93 61 82 289 36 
446 9 80 208 170 137 88 281 279 391 144 
447 9 126 359 344 214 268 410 113 179 151 
448 9 13 331 389 52 361 71 367 204 291 
449 9 180 78 11 332 459 59 19 282 328 
450 9 265 26 314 308 30 62 379 412 407 
451 9 440 205 296 266 209 18 219 74 136 
452 9 413 67 312 339 12 3 358 392 254 
453 9 253 230 229 206 292 72 121 354 15 
454 9 388 363 421 145 400 2 54 109 224 
455 9 47 106 15 176 55 380 75 115 354 
456 9 181 166 144 284 27 39 313 391 277 
457 9 411 17 68 41 360 243 273 214 190 
458 9 184 347 75 176 315 187 115 15 308 
459 9 180 19 256 175 449 59 147 282 9 
DEPOT_SECTION
   1
   -1
EOF
