NAME :  X-n459-kX-w91-c7.cctp
COMMENT : 	Adapted by Maziero, Usberti and Cavellucci from the Uchoa, Pecin, Pessoa, Poggi, Subramanian, and Vidal (2013)
TYPE :  CCTP
DIMENSION :    383
EDGE_WEIGHT_TYPE : 	EUC_2D	
CAPACITY : 	1106
VERTICES_WITHIN_COVERAGE :  7
VERTICES_WITH_DEMAND : 	91
NODE_COORD_SECTION
1 500 500
2 832 885
3 777 632
4 406 257
5 620 467
6 343 166
7 355 345
8 393 299
9 631 767
10 384 340
11 643 630
12 786 593
13 789 727
14 443 205
15 679 408
16 845 535
17 732 820
18 890 861
19 645 689
20 800 517
21 951 643
22 828 746
23 862 625
24 606 432
25 672 984
26 580 338
27 629 494
28 809 663
29 738 595
30 604 320
31 645 532
32 688 728
33 390 680
34 842 517
35 525 404
36 697 719
37 837 853
38 741 585
39 628 506
40 354 280
41 726 834
42 721 635
43 448 363
44 963 702
45 570 484
46 389 281
47 708 380
48 522 439
49 771 523
50 778 645
51 402 318
52 817 717
53 730 655
54 814 925
55 743 362
56 568 298
57 555 132
58 937 637
59 542 678
60 822 854
61 711 697
62 603 310
63 864 674
64 850 879
65 280 198
66 502 417
67 764 610
68 729 822
69 307 258
70 896 958
71 774 732
72 684 446
73 691 793
74 905 888
75 664 411
76 875 981
77 477 226
78 607 624
79 823 875
80 558 543
81 410 237
82 712 692
83 804 678
84 491 317
85 475 280
86 881 872
87 371 269
88 520 562
89 590 431
90 420 245
91 811 647
92 501 507
93 854 717
94 520 823
95 866 966
96 720 645
97 564 493
98 653 541
99 831 758
100 694 804
101 417 251
102 683 364
103 648 479
104 255 225
105 888 492
106 111 261
107 822 876
108 672 419
109 545 420
110 140 267
111 925 749
112 505 282
113 701 477
114 293 242
115 856 861
116 804 638
117 426 194
118 499 348
119 692 700
120 331 318
121 738 644
122 967 900
123 604 563
124 523 429
125 834 880
126 714 644
127 606 512
128 786 354
129 667 709
130 456 202
131 827 687
132 556 837
133 810 589
134 537 360
135 456 275
136 346 163
137 880 569
138 849 686
139 617 420
140 308 466
141 880 638
142 751 763
143 616 485
144 719 744
145 371 346
146 379 420
147 565 524
148 377 138
149 864 721
150 823 535
151 614 761
152 659 383
153 867 910
154 588 663
155 595 488
156 408 268
157 713 863
158 652 409
159 653 425
160 618 425
161 657 290
162 709 839
163 375 283
164 278 391
165 843 873
166 443 229
167 756 702
168 365 293
169 821 637
170 477 191
171 401 102
172 359 290
173 791 751
174 329 178
175 559 543
176 916 882
177 758 635
178 855 710
179 797 783
180 428 238
181 802 823
182 797 464
183 217 29
184 939 745
185 911 889
186 829 679
187 550 429
188 821 933
189 798 482
190 686 615
191 735 658
192 721 459
193 421 479
194 768 524
195 498 441
196 601 454
197 851 574
198 662 511
199 526 279
200 447 601
201 889 610
202 891 930
203 483 278
204 728 845
205 451 299
206 308 215
207 643 486
208 439 458
209 830 608
210 561 410
211 721 439
212 778 640
213 826 627
214 644 724
215 515 465
216 728 651
217 525 419
218 927 692
219 597 228
220 448 218
221 575 349
222 921 883
223 406 172
224 840 847
225 787 660
226 668 880
227 594 416
228 791 861
229 740 581
230 500 259
231 600 464
232 614 568
233 829 644
234 556 518
235 660 676
236 525 793
237 623 482
238 369 195
239 805 668
240 820 936
241 879 886
242 713 679
243 728 597
244 833 719
245 744 569
246 644 446
247 896 850
248 393 284
249 708 586
250 694 612
251 446 162
252 738 669
253 726 702
254 749 641
255 499 397
256 335 416
257 664 226
258 772 626
259 602 466
260 592 394
261 754 637
262 643 572
263 880 867
264 493 305
265 698 630
266 819 640
267 819 577
268 860 866
269 303 326
270 523 470
271 780 647
272 630 579
273 893 578
274 545 465
275 782 723
276 639 609
277 313 267
278 810 893
279 407 307
280 808 666
281 621 427
282 761 602
283 513 340
284 335 150
285 807 564
286 818 834
287 881 870
288 300 679
289 342 373
290 819 859
291 651 493
292 378 248
293 675 424
294 700 76
295 398 303
296 799 623
297 812 806
298 770 860
299 776 711
300 661 839
301 829 895
302 392 227
303 891 565
304 569 489
305 824 716
306 827 436
307 527 376
308 838 855
309 537 432
310 468 195
311 714 807
312 553 104
313 448 331
314 846 863
315 815 689
316 639 332
317 748 365
318 577 442
319 572 461
320 431 304
321 731 688
322 415 256
323 933 687
324 461 392
325 827 906
326 786 737
327 793 632
328 540 374
329 604 445
330 303 293
331 802 534
332 298 118
333 500 353
334 818 892
335 487 444
336 744 657
337 297 237
338 660 436
339 580 450
340 591 411
341 877 905
342 377 314
343 750 857
344 643 336
345 770 609
346 873 547
347 736 788
348 676 521
349 934 919
350 817 914
351 493 28
352 322 227
353 746 617
354 523 296
355 860 848
356 466 251
357 772 307
358 396 235
359 792 646
360 417 267
361 871 536
362 285 205
363 474 257
364 854 648
365 602 262
366 950 821
367 698 633
368 418 292
369 690 602
370 669 683
371 565 562
372 797 722
373 594 646
374 597 358
375 944 834
376 776 610
377 719 441
378 832 908
379 702 378
380 604 494
381 757 832
382 647 400
383 601 706
DEMAND_SECTION
2 71
3 54
4 74
5 9
6 91
7 98
8 72
9 67
10 70
11 68
12 92
13 93
14 97
15 23
16 75
17 61
18 91
19 61
20 89
21 70
22 63
23 93
24 18
25 65
26 33
27 11
28 80
29 88
30 7
31 71
32 68
33 38
34 79
35 28
36 63
37 99
38 99
39 94
40 69
41 78
42 76
43 90
44 57
45 29
46 82
47 42
48 18
49 58
50 89
51 85
52 66
53 57
54 75
55 1
56 49
57 8
58 51
59 67
60 58
61 66
62 13
63 69
64 85
65 53
66 30
67 67
68 79
69 79
70 90
71 81
72 33
73 80
74 78
75 6
76 93
77 60
78 60
79 83
80 97
81 76
82 60
83 94
84 59
85 72
86 58
87 59
88 97
89 11
90 70
91 90
92 54
COVERAGE_SECTION
2 7 125 301 79 107 165 334 64 
3 7 212 258 50 271 327 177 359 
4 7 322 156 101 360 90 81 358 
5 7 237 143 259 231 196 329 27 
6 5 136 174 284 238 148 
7 7 145 10 289 120 342 168 51 
8 7 295 248 279 46 51 342 163 
9 7 151 214 73 129 383 32 100 
10 7 145 342 51 7 279 295 8 
11 6 276 78 190 235 373 272 
12 7 376 345 133 282 67 296 258 
13 7 275 372 326 71 299 173 52 
14 7 130 220 117 166 310 180 170 
15 7 108 75 293 158 159 152 382 
16 7 34 150 361 346 197 331 20 
17 7 68 41 311 204 381 162 347 
18 7 263 247 287 86 241 268 74 
19 6 235 370 129 214 383 119 
20 7 331 150 49 194 189 34 16 
21 7 58 323 218 44 201 141 273 
22 7 99 244 305 52 173 93 372 
23 7 141 364 201 209 213 233 169 
24 7 329 160 89 139 281 227 196 
25 0 
26 7 221 374 30 62 56 134 328 
27 7 39 237 143 207 291 103 380 
28 7 280 239 83 91 225 359 116 
29 7 38 243 229 353 282 245 67 
30 7 62 26 316 374 221 56 344 
31 5 98 198 39 348 291 
32 7 36 119 129 144 61 82 214 
33 6 288 200 59 88 236 94 
34 7 16 150 361 20 331 346 105 
35 7 217 124 66 109 255 307 309 
36 7 32 119 61 82 129 144 253 
37 7 308 224 314 60 290 115 165 
38 6 229 29 245 243 282 353 
39 7 27 127 143 207 237 291 380 
40 7 172 168 87 163 46 248 292 
41 7 204 68 17 162 311 381 157 
42 7 96 126 216 121 53 367 265 
43 6 313 324 118 333 255 320 
44 6 323 218 184 21 111 58 
45 6 304 97 319 155 274 339 
46 7 248 163 8 87 156 295 168 
47 7 379 102 55 15 317 152 108 
48 7 124 309 217 195 215 66 109 
49 3 194 20 331 
50 7 271 212 3 359 225 258 327 
51 7 279 295 8 342 10 368 320 
52 7 305 244 372 315 13 22 131 
53 7 216 191 96 121 336 252 126 
54 5 188 350 240 325 378 
55 6 317 47 128 379 102 357 
56 7 62 26 30 354 199 365 221 
57 7 312 170 219 310 251 130 351 
58 7 21 323 201 218 141 44 273 
59 7 154 373 383 78 19 151 11 
60 7 290 37 308 224 286 79 107 
61 7 82 253 242 119 321 36 32 
62 7 30 26 56 316 221 344 365 
63 7 138 364 186 178 131 141 93 
64 7 165 125 268 314 2 115 301 
65 6 362 206 104 337 114 352 
66 7 255 217 124 195 35 48 335 
67 7 345 282 376 258 353 3 177 
68 7 17 41 311 204 162 381 347 
69 6 277 114 337 352 330 206 
70 6 202 76 95 349 153 341 
71 7 275 326 13 299 173 372 167 
72 3 293 338 108 
73 7 100 311 347 68 17 162 41 
74 7 185 176 222 241 86 287 18 
75 7 108 158 15 293 159 382 338 
76 3 95 70 202 
77 7 356 220 363 130 310 166 170 
78 7 373 276 11 154 272 232 123 
79 7 107 125 2 290 334 165 60 
80 6 175 147 371 234 88 97 
81 7 90 358 101 180 4 322 302 
82 7 61 242 253 321 119 36 252 
83 7 239 280 28 315 131 186 225 
84 7 264 118 283 333 112 354 85 
85 7 203 135 363 112 356 205 264 
86 7 287 263 18 241 268 115 247 
87 7 163 40 46 292 172 168 248 
88 6 80 175 371 234 92 147 
89 7 24 227 318 329 340 339 196 
90 7 101 180 322 81 4 360 156 
91 7 116 266 169 28 233 280 359 
92 7 270 215 234 88 274 97 335 
93 7 178 149 244 305 138 52 22 
94 7 236 132 151 9 300 383 59 
95 2 76 70 
96 7 126 42 216 53 121 191 367 
97 6 304 45 234 147 155 319 
98 5 31 348 198 262 39 
99 7 22 244 173 179 52 305 93 
100 7 73 311 162 68 17 41 347 
101 7 322 90 4 81 360 180 156 
102 6 379 47 152 15 344 75 
103 4 207 291 27 237 
104 7 362 65 114 337 206 69 352 
105 7 361 34 346 16 303 137 150 
106 7 110 104 65 114 362 337 330 
107 7 79 2 125 334 290 301 165 
108 7 293 75 15 159 338 158 72 
109 7 187 309 210 217 124 35 48 
110 7 106 104 114 65 362 337 330 
111 5 184 218 44 323 149 
112 7 199 203 354 230 264 85 84 
113 2 192 72 
114 7 337 69 206 277 352 362 104 
115 7 268 314 355 165 64 308 37 
116 7 91 327 359 266 296 169 28 
117 7 14 223 130 220 251 166 310 
118 7 333 283 84 134 307 264 255 
119 7 61 36 82 129 32 370 242 
120 7 269 7 330 172 168 40 342 
121 7 254 216 53 191 336 261 96 
122 7 349 222 176 185 74 375 366 
123 7 232 272 371 262 175 80 31 
124 7 48 217 309 66 109 35 187 
125 7 2 165 79 107 64 301 334 
126 7 96 42 216 53 367 265 121 
127 6 380 39 155 27 143 237 
128 3 317 55 357 
129 7 370 119 214 32 19 36 235 
130 7 14 310 220 170 166 117 77 
131 7 186 315 138 83 280 239 305 
132 7 94 236 151 9 300 226 383 
133 7 267 12 285 209 296 376 213 
134 7 328 307 283 333 118 221 35 
135 5 85 205 363 356 203 
136 5 6 284 174 238 148 
137 7 303 273 346 197 361 201 16 
138 7 63 186 131 178 93 315 244 
139 5 160 281 24 227 329 
140 6 256 164 146 289 193 7 
141 7 23 364 201 63 233 213 58 
142 7 347 144 71 173 326 179 275 
143 7 237 380 27 5 155 39 259 
144 7 36 32 142 253 347 61 82 
145 7 10 7 342 289 51 120 295 
146 7 256 289 208 193 145 7 10 
147 6 234 80 175 97 304 371 
148 7 136 171 6 284 223 238 174 
149 6 93 178 244 138 305 22 
150 7 331 16 34 20 285 267 197 
151 7 9 214 383 129 19 32 73 
152 5 382 158 75 102 15 
153 5 341 241 202 64 378 
154 7 373 78 383 59 19 11 235 
155 7 380 143 259 45 231 127 304 
156 5 360 4 322 101 248 
157 6 204 162 41 343 68 17 
158 5 382 75 159 108 15 
159 7 338 158 75 108 293 246 382 
160 5 281 139 24 329 227 
161 7 316 344 62 30 365 257 102 
162 7 41 204 157 68 17 311 100 
163 7 46 168 87 172 248 40 8 
164 7 256 289 269 140 7 120 330 
165 7 64 314 125 2 115 268 308 
166 7 220 180 14 90 130 356 77 
167 7 299 321 253 275 71 252 13 
168 7 172 163 40 342 87 46 8 
169 7 266 213 233 91 116 296 327 
170 7 310 130 77 14 220 251 117 
171 7 148 223 251 136 284 6 117 
172 7 168 40 163 87 342 46 8 
173 7 326 13 71 275 372 179 22 
174 5 6 136 284 206 238 
175 6 80 147 371 234 88 123 
176 7 222 185 74 18 86 241 287 
177 7 261 254 258 3 212 50 121 
178 7 93 149 244 138 305 131 63 
179 6 297 173 181 99 326 22 
180 7 90 101 166 81 322 220 4 
181 6 286 297 60 179 228 290 
182 5 189 306 20 49 194 
183 7 332 284 65 6 136 174 362 
184 5 111 44 218 323 366 
185 7 74 176 222 241 86 18 287 
186 7 131 315 138 83 280 28 239 
187 7 109 309 210 124 217 48 318 
188 3 240 54 350 
189 7 182 20 49 194 331 306 34 
190 6 250 369 265 367 249 42 
191 7 53 336 216 252 121 96 254 
192 4 377 211 113 72 
193 7 208 146 335 92 195 215 324 
194 3 49 20 331 
195 7 335 48 66 124 215 217 270 
196 7 329 231 259 339 5 24 89 
197 7 137 267 346 16 209 303 273 
198 3 348 291 31 
199 7 354 112 230 264 203 56 85 
200 7 88 33 92 59 371 80 193 
201 7 141 23 273 137 303 197 364 
202 7 70 341 153 74 95 349 185 
203 7 85 112 363 230 135 264 356 
204 7 41 162 68 157 17 343 381 
205 5 320 135 85 313 368 
206 6 352 337 362 114 65 69 
207 5 103 291 27 237 39 
208 7 193 335 195 324 146 66 215 
209 7 213 133 169 267 266 296 23 
210 7 109 187 340 309 227 260 35 
211 4 377 192 72 113 
212 7 50 271 3 258 359 327 177 
213 7 169 266 233 209 91 116 296 
214 7 129 19 32 9 383 151 370 
215 7 270 48 195 274 335 124 309 
216 7 53 96 191 121 126 42 336 
217 7 124 35 309 48 109 66 187 
218 6 323 44 184 21 58 111 
219 7 365 257 56 62 161 199 30 
220 7 166 14 130 180 77 310 117 
221 7 26 374 134 30 328 62 260 
222 7 176 185 74 18 349 86 247 
223 5 117 251 238 148 14 
224 7 37 308 314 60 355 115 290 
225 7 271 359 50 239 28 212 280 
226 5 300 157 162 204 41 
227 7 340 89 24 260 139 160 281 
228 7 298 290 60 107 79 278 286 
229 5 38 245 29 243 282 
230 7 112 203 363 85 199 356 77 
231 7 259 196 329 5 339 155 143 
232 7 123 272 262 98 31 276 371 
233 7 169 266 213 91 364 116 28 
234 6 147 80 175 97 304 45 
235 6 370 19 129 119 11 214 
236 7 94 132 151 9 59 383 214 
237 7 143 27 5 207 380 39 103 
238 1 6 
239 7 280 28 83 225 91 315 186 
240 2 188 54 
241 7 86 287 263 341 74 18 153 
242 7 82 61 321 253 252 53 119 
243 6 29 38 229 249 353 245 
244 7 305 52 93 178 22 149 131 
245 3 229 38 29 
246 6 338 159 281 5 103 160 
247 6 18 263 287 86 355 176 
248 7 46 8 163 295 156 368 87 
249 5 243 369 250 29 229 
250 6 190 369 265 367 249 42 
251 7 117 310 130 223 170 14 220 
252 7 191 336 53 321 216 121 242 
253 7 321 61 82 242 167 36 119 
254 7 261 121 177 336 191 216 53 
255 7 66 35 217 307 324 124 195 
256 7 146 289 140 164 7 145 10 
257 4 161 219 365 62 
258 7 3 212 376 177 345 67 50 
259 7 231 196 5 329 155 143 237 
260 6 340 227 210 139 374 89 
261 7 177 254 121 258 336 353 3 
262 7 272 232 98 276 31 123 369 
263 7 287 86 18 241 268 247 115 
264 7 84 112 203 85 354 283 199 
265 6 367 250 190 126 42 96 
266 7 169 91 233 116 213 28 296 
267 7 133 285 197 209 12 150 331 
268 7 115 314 64 165 355 263 287 
269 7 120 330 7 277 289 172 69 
270 7 215 274 48 195 309 124 92 
271 7 50 212 359 3 225 327 258 
272 7 262 232 123 276 98 31 78 
273 7 303 137 201 346 197 361 23 
274 7 270 319 215 45 97 304 309 
275 7 13 71 299 326 372 173 167 
276 7 11 272 78 262 190 232 369 
277 6 69 330 114 337 352 40 
278 7 334 301 107 325 79 350 2 
279 7 295 51 8 368 320 248 342 
280 7 28 239 83 91 225 315 186 
281 5 160 139 24 329 227 
282 7 67 345 376 353 29 38 258 
283 7 118 333 134 84 307 264 328 
284 6 136 6 174 148 332 238 
285 7 267 133 331 150 12 197 16 
286 6 181 60 290 224 37 297 
287 7 86 263 18 241 268 247 115 
288 6 33 200 140 193 59 88 
289 7 7 145 256 10 120 146 269 
290 7 60 79 107 37 308 224 286 
291 4 207 103 198 27 
292 4 87 358 302 4 
293 7 108 15 75 338 159 72 158 
294 3 312 257 57 
295 7 8 279 51 248 368 46 342 
296 7 327 116 3 359 169 266 376 
297 5 181 179 286 60 224 
298 7 343 228 381 204 181 290 41 
299 7 275 13 71 167 372 326 52 
300 7 226 100 162 73 157 311 41 
301 7 2 325 334 378 125 278 107 
302 2 358 81 
303 7 137 273 346 361 197 201 16 
304 6 45 97 155 319 234 274 
305 7 52 244 315 372 131 22 93 
306 3 182 189 34 
307 7 328 134 35 255 333 283 118 
308 7 37 224 314 60 115 165 290 
309 7 187 109 124 48 217 35 210 
310 7 170 130 14 220 77 251 117 
311 7 100 68 17 73 347 41 162 
312 7 57 351 170 251 310 219 130 
313 6 43 205 320 84 51 279 
314 7 115 165 308 37 268 64 224 
315 7 131 83 186 239 280 28 52 
316 6 344 30 62 161 374 102 
317 6 55 128 47 379 357 102 
318 7 339 89 319 196 329 187 24 
319 7 339 318 45 274 231 304 196 
320 4 368 205 279 51 
321 7 253 82 242 252 61 167 191 
322 6 101 4 360 90 156 81 
323 6 218 44 21 58 184 111 
324 7 43 255 66 333 118 335 195 
325 7 378 301 350 334 278 2 54 
326 7 13 71 173 275 372 299 52 
327 7 296 116 359 3 212 50 271 
328 7 307 134 35 210 221 283 333 
329 7 196 24 231 89 259 160 281 
330 7 277 269 69 120 114 40 172 
331 7 20 150 285 49 194 16 34 
332 7 284 6 136 174 148 65 362 
333 7 118 283 307 84 134 255 328 
334 7 278 301 2 107 325 79 125 
335 7 195 66 48 215 124 270 217 
336 7 191 252 53 121 216 254 261 
337 6 114 69 206 352 277 362 
338 7 159 246 293 108 75 72 158 
339 7 318 319 89 196 231 329 259 
340 7 227 260 89 24 139 160 210 
341 7 153 241 202 74 86 287 64 
342 7 8 168 295 51 10 172 163 
343 7 298 204 381 41 157 17 68 
344 6 316 30 62 161 102 152 
345 7 67 376 282 258 12 3 353 
346 7 361 137 303 16 197 273 34 
347 7 142 311 17 68 73 100 41 
348 3 198 98 31 
349 7 122 185 222 176 74 202 70 
350 7 54 325 378 188 240 278 301 
351 7 312 171 57 251 148 170 223 
352 4 206 337 114 69 
353 7 67 282 177 261 29 254 345 
354 7 199 112 264 84 203 230 56 
355 6 115 268 224 314 308 37 
356 6 363 135 77 85 166 203 
357 3 128 55 317 
358 5 302 81 292 4 90 
359 7 271 50 116 327 212 225 91 
360 5 156 322 4 101 90 
361 7 346 16 137 34 303 197 105 
362 6 65 206 337 104 114 352 
363 6 356 85 203 135 230 77 
364 7 23 233 63 141 169 213 266 
365 7 219 62 56 30 161 257 199 
366 6 375 247 222 176 18 111 
367 6 265 126 250 190 42 96 
368 5 320 279 295 360 8 
369 7 250 190 249 265 367 243 42 
370 6 235 19 129 119 61 82 
371 7 80 175 147 123 88 234 232 
372 7 13 275 326 52 299 71 305 
373 7 154 78 11 276 383 59 19 
374 6 221 26 260 30 62 316 
375 6 366 247 222 176 18 185 
376 7 345 67 258 282 12 3 296 
377 4 211 192 72 113 
378 6 325 301 350 334 2 54 
379 7 47 102 15 152 55 317 75 
380 7 155 143 127 237 27 39 259 
381 7 343 17 68 41 298 204 228 
382 5 158 75 152 159 108 
383 7 154 19 214 151 373 59 129 
DEPOT_SECTION
   1
   -1
EOF
