NAME :  X-n469-kX-w93-c7.cctp
COMMENT : 	Adapted by Maziero, Usberti and Cavellucci from the Uchoa, Pecin, Pessoa, Poggi, Subramanian, and Vidal (2013)
TYPE :  CCTP
DIMENSION :    378
EDGE_WEIGHT_TYPE : 	EUC_2D	
CAPACITY : 	256
VERTICES_WITHIN_COVERAGE :  7
VERTICES_WITH_DEMAND : 	93
NODE_COORD_SECTION
1 0 0
2 363 697
3 120 259
4 555 718
5 522 918
6 239 935
7 304 517
8 856 96
9 38 904
10 174 951
11 294 935
12 942 324
13 402 176
14 766 450
15 473 862
16 262 550
17 661 92
18 440 655
19 678 291
20 345 691
21 564 903
22 952 802
23 698 352
24 297 930
25 66 244
26 882 642
27 777 818
28 302 212
29 824 647
30 143 946
31 108 600
32 121 755
33 697 32
34 473 995
35 342 252
36 596 534
37 248 211
38 940 88
39 81 468
40 144 796
41 244 385
42 437 42
43 381 583
44 263 549
45 153 646
46 187 688
47 248 71
48 27 70
49 649 477
50 244 370
51 145 49
52 589 402
53 105 251
54 986 452
55 486 773
56 679 851
57 102 734
58 619 809
59 139 138
60 107 489
61 921 579
62 681 336
63 925 185
64 260 655
65 46 832
66 534 440
67 117 590
68 604 453
69 667 428
70 871 548
71 943 171
72 181 252
73 172 696
74 211 597
75 82 390
76 114 189
77 659 852
78 404 544
79 169 845
80 101 663
81 422 503
82 124 861
83 289 778
84 923 842
85 464 148
86 377 32
87 482 570
88 933 156
89 987 678
90 995 62
91 241 242
92 565 805
93 898 871
94 137 970
95 11 959
96 307 897
97 693 522
98 827 725
99 27 818
100 284 562
101 136 875
102 214 719
103 75 85
104 749 863
105 743 494
106 169 42
107 664 268
108 485 432
109 232 420
110 360 726
111 890 844
112 308 95
113 970 326
114 257 653
115 4 773
116 91 795
117 729 479
118 507 782
119 321 298
120 516 599
121 914 830
122 495 443
123 201 805
124 299 90
125 327 474
126 400 714
127 936 468
128 217 110
129 447 82
130 180 61
131 329 479
132 109 163
133 607 144
134 864 903
135 228 986
136 98 291
137 56 919
138 302 929
139 658 831
140 664 797
141 442 558
142 492 535
143 998 71
144 283 534
145 562 828
146 918 176
147 250 170
148 921 325
149 272 677
150 802 102
151 112 530
152 371 252
153 205 379
154 304 45
155 684 368
156 962 930
157 715 476
158 281 282
159 970 23
160 944 627
161 188 859
162 218 717
163 426 876
164 232 735
165 446 846
166 483 747
167 608 408
168 522 830
169 732 386
170 292 154
171 265 524
172 216 492
173 798 670
174 125 229
175 231 26
176 207 149
177 306 573
178 496 745
179 379 21
180 395 564
181 632 389
182 167 874
183 71 215
184 505 662
185 547 517
186 668 216
187 11 995
188 42 480
189 933 471
190 154 936
191 65 939
192 472 601
193 462 825
194 842 664
195 879 336
196 896 105
197 319 671
198 422 436
199 527 45
200 552 530
201 41 364
202 261 659
203 143 846
204 705 914
205 835 5
206 400 676
207 910 716
208 267 601
209 429 646
210 333 945
211 185 385
212 407 737
213 731 485
214 956 536
215 255 405
216 969 429
217 28 973
218 931 120
219 719 109
220 321 722
221 851 158
222 87 931
223 189 530
224 311 745
225 546 526
226 373 661
227 749 318
228 51 714
229 982 61
230 364 513
231 208 60
232 768 48
233 115 878
234 637 410
235 379 291
236 35 544
237 237 188
238 176 879
239 215 559
240 399 454
241 5 888
242 566 749
243 986 603
244 699 758
245 984 786
246 292 117
247 354 700
248 938 85
249 992 408
250 336 879
251 146 844
252 688 35
253 293 805
254 852 648
255 387 973
256 245 29
257 94 156
258 279 676
259 126 40
260 941 0
261 656 871
262 373 2
263 65 214
264 196 652
265 14 925
266 645 819
267 228 390
268 174 699
269 433 497
270 942 386
271 818 828
272 367 227
273 656 29
274 869 658
275 806 501
276 938 250
277 915 807
278 804 516
279 866 546
280 758 47
281 337 182
282 940 481
283 614 577
284 952 221
285 672 232
286 752 777
287 389 177
288 447 934
289 63 91
290 194 17
291 90 431
292 383 589
293 842 158
294 921 685
295 676 540
296 377 764
297 347 51
298 508 619
299 285 973
300 793 876
301 430 40
302 325 314
303 252 411
304 955 452
305 14 857
306 675 367
307 288 222
308 266 783
309 723 124
310 57 912
311 709 425
312 316 507
313 340 704
314 535 963
315 851 866
316 219 654
317 403 121
318 206 923
319 934 353
320 116 502
321 634 559
322 262 403
323 159 542
324 879 100
325 676 416
326 235 349
327 231 102
328 378 569
329 876 507
330 399 48
331 56 351
332 259 247
333 5 250
334 892 26
335 884 218
336 507 93
337 922 302
338 81 170
339 61 608
340 247 681
341 467 514
342 416 712
343 550 552
344 930 830
345 469 221
346 390 966
347 652 334
348 74 677
349 838 136
350 839 121
351 680 257
352 399 40
353 321 632
354 263 860
355 37 293
356 92 189
357 856 674
358 704 344
359 226 532
360 708 89
361 656 510
362 226 427
363 217 363
364 312 489
365 321 270
366 811 711
367 445 526
368 27 480
369 696 12
370 102 900
371 890 926
372 609 673
373 924 31
374 144 331
375 28 857
376 16 859
377 522 645
378 873 593
DEMAND_SECTION
2 83
3 73
4 100
5 88
6 90
7 71
8 62
9 95
10 56
11 75
12 51
13 86
14 62
15 74
16 65
17 77
18 58
19 98
20 81
21 86
22 75
23 74
24 77
25 80
26 57
27 54
28 67
29 74
30 94
31 99
32 90
33 54
34 72
35 70
36 69
37 100
38 93
39 97
40 85
41 79
42 93
43 97
44 100
45 51
46 84
47 59
48 60
49 84
50 56
51 97
52 100
53 80
54 89
55 99
56 57
57 72
58 75
59 62
60 64
61 75
62 63
63 71
64 82
65 51
66 55
67 95
68 67
69 90
70 73
71 51
72 83
73 51
74 80
75 76
76 87
77 65
78 71
79 60
80 72
81 54
82 76
83 96
84 79
85 56
86 68
87 88
88 57
89 69
90 95
91 75
92 56
93 54
94 61
COVERAGE_SECTION
2 7 247 20 313 110 226 126 206 
3 7 53 174 136 25 72 183 76 
4 7 242 178 372 184 166 118 377 
5 7 21 314 15 288 168 34 145 
6 7 318 135 11 24 299 138 10 
7 7 312 144 364 171 131 100 125 
8 7 324 350 196 349 150 221 293 
9 7 310 137 265 241 191 375 376 
10 7 190 30 94 318 135 6 238 
11 7 24 138 299 96 210 6 250 
12 6 148 113 319 337 270 195 
13 7 287 317 272 281 85 345 152 
14 7 117 213 105 157 311 275 169 
15 6 165 193 163 168 5 288 
16 7 44 100 144 171 359 239 177 
17 7 360 219 252 273 33 309 133 
18 7 209 206 342 192 184 226 126 
19 7 107 351 62 347 285 358 23 
20 7 247 313 2 197 110 220 226 
21 7 5 314 145 168 261 92 15 
22 6 245 344 277 121 84 111 
23 7 358 155 62 306 169 347 227 
24 7 138 11 96 210 299 6 250 
25 5 183 263 53 3 136 
26 7 274 254 357 194 378 29 294 
27 5 271 286 104 300 315 
28 7 307 281 37 332 35 170 365 
29 7 194 254 173 357 274 26 366 
30 7 190 94 10 222 370 318 101 
31 7 67 339 80 45 151 323 348 
32 7 57 40 116 268 73 228 348 
33 6 252 369 273 360 280 17 
34 6 288 314 346 255 5 163 
35 7 365 152 272 119 235 28 307 
36 6 200 321 283 343 225 185 
37 7 237 91 332 147 307 28 170 
38 7 248 218 196 229 373 143 90 
39 7 60 291 188 320 368 151 75 
40 7 32 251 203 116 79 123 82 
41 7 50 267 215 322 303 363 109 
42 7 301 330 352 129 86 179 262 
43 7 292 328 180 78 141 230 177 
44 7 16 100 144 171 359 177 239 
45 7 264 73 46 80 268 31 316 
46 7 73 268 264 102 162 316 45 
47 7 327 231 256 175 128 124 154 
48 5 289 103 259 257 338 
49 7 361 68 69 97 157 325 234 
50 7 41 326 267 363 215 322 153 
51 7 259 106 130 290 231 103 59 
52 7 167 181 234 68 66 69 325 
53 7 3 174 25 136 183 263 76 
54 6 216 304 249 127 282 189 
55 7 118 166 178 193 168 165 242 
56 7 77 139 261 266 140 204 104 
57 7 32 228 116 348 80 40 73 
58 7 266 139 140 92 77 145 261 
59 6 132 257 76 338 176 356 
60 7 320 39 151 291 188 323 368 
61 7 378 160 214 70 279 243 26 
62 7 23 358 347 155 306 19 107 
63 7 146 71 88 284 335 218 276 
64 6 114 202 149 258 340 316 
65 7 99 375 376 305 116 241 9 
66 7 122 108 52 68 185 167 225 
67 7 31 339 151 323 45 80 320 
68 7 167 49 52 234 69 181 66 
69 7 325 234 311 49 181 155 167 
70 7 279 329 378 61 278 275 214 
71 7 88 63 146 284 218 335 276 
72 7 3 91 174 53 332 37 237 
73 7 268 46 102 264 162 45 316 
74 7 239 208 264 316 359 16 44 
75 6 291 331 201 39 374 188 
76 7 356 132 338 257 174 183 263 
77 7 261 56 139 266 140 58 204 
78 7 180 328 141 43 81 367 292 
79 7 251 161 203 182 238 101 82 
80 7 348 45 31 339 57 228 67 
81 7 269 367 78 341 240 141 230 
82 7 101 233 203 251 182 370 79 
83 5 308 253 224 220 164 
84 6 344 121 111 277 93 22 
85 6 317 13 129 336 345 287 
86 7 179 352 330 262 297 301 42 
87 7 192 142 141 120 298 367 341 
88 7 71 146 63 218 196 38 284 
89 6 294 160 243 207 245 26 
90 7 143 229 159 38 248 373 260 
91 7 332 37 307 237 158 72 28 
92 7 145 168 58 242 118 266 55 
93 7 111 84 121 134 315 344 371 
94 7 30 190 10 222 191 370 318 
95 7 217 265 187 191 137 9 310 
96 6 138 24 250 11 210 354 
97 7 295 361 157 213 117 105 49 
98 5 366 357 173 194 29 
99 7 65 375 305 376 115 116 241 
100 7 16 44 177 144 171 208 7 
101 7 82 233 203 182 251 238 370 
102 6 162 164 46 268 73 340 
103 6 289 48 259 257 51 59 
104 6 300 27 204 56 271 286 
105 7 213 117 157 14 97 275 278 
106 7 130 51 290 231 259 175 256 
107 5 351 19 285 186 347 
108 5 122 66 198 269 341 
109 6 362 303 215 267 322 41 
110 7 247 2 313 20 220 126 296 
111 6 93 121 84 344 277 315 
112 6 124 246 154 297 170 47 
113 6 12 319 148 337 270 276 
114 6 64 202 149 340 258 316 
115 7 99 65 228 305 375 376 116 
116 7 32 40 65 57 99 203 82 
117 7 213 157 105 14 97 311 361 
118 7 55 178 166 168 92 193 242 
119 6 302 365 158 35 235 152 
120 7 298 192 87 377 343 184 142 
121 6 84 344 277 111 93 22 
122 5 108 66 198 341 269 
123 7 79 161 40 251 308 203 164 
124 6 112 246 154 47 297 170 
125 5 131 364 312 7 230 
126 7 342 212 206 2 110 247 296 
127 5 189 282 304 216 54 
128 7 327 176 47 231 130 147 246 
129 7 42 301 317 330 336 352 85 
130 7 106 231 51 290 259 128 175 
131 5 125 364 312 7 230 
132 5 257 76 338 356 59 
133 1 17 
134 4 371 315 93 111 
135 7 6 299 10 318 11 24 190 
136 7 3 53 25 355 374 174 331 
137 7 310 191 9 222 265 370 95 
138 7 24 11 96 210 299 250 6 
139 7 266 77 56 140 261 58 244 
140 7 266 139 58 244 77 56 261 
141 7 367 78 87 180 341 192 142 
142 7 341 87 367 141 225 185 200 
143 7 90 229 159 38 248 218 373 
144 7 171 44 16 7 100 312 177 
145 7 92 168 58 118 21 242 266 
146 7 63 71 88 335 284 218 221 
147 7 237 37 170 176 307 28 128 
148 5 12 337 319 195 113 
149 5 258 202 64 340 114 
150 3 350 349 8 
151 7 320 60 323 67 39 31 223 
152 7 272 35 235 365 119 287 302 
153 5 363 211 267 41 50 
154 6 297 124 112 256 47 246 
155 7 306 23 358 62 347 325 169 
156 2 371 93 
157 7 117 213 105 97 311 14 49 
158 6 332 365 119 302 91 307 
159 7 260 229 90 373 143 248 38 
160 7 243 61 294 26 89 378 274 
161 7 238 79 182 251 203 101 123 
162 6 102 164 46 340 268 73 
163 4 165 15 193 288 
164 5 162 102 340 308 46 
165 4 193 15 163 168 
166 7 178 55 118 342 212 4 193 
167 7 52 234 181 68 69 325 306 
168 7 145 92 118 15 193 55 165 
169 6 311 23 358 155 306 325 
170 7 246 147 281 28 112 124 237 
171 7 144 44 16 7 359 100 312 
172 6 359 223 171 362 239 16 
173 7 29 366 194 254 357 98 274 
174 7 3 53 76 356 183 25 72 
175 7 256 290 231 47 130 106 154 
176 7 128 147 237 327 59 37 170 
177 7 100 144 208 44 16 7 353 
178 7 166 55 118 4 242 184 193 
179 7 86 262 352 330 297 301 42 
180 7 328 78 43 292 141 230 367 
181 7 234 167 52 306 69 325 155 
182 7 238 161 79 101 203 251 82 
183 4 263 25 356 338 
184 7 377 298 120 18 192 4 209 
185 7 225 200 343 36 142 66 341 
186 4 285 351 107 19 
187 7 217 95 265 191 137 9 310 
188 7 368 39 236 60 291 320 151 
189 5 127 282 304 216 54 
190 7 30 10 94 318 238 182 370 
191 7 137 222 310 9 217 265 370 
192 7 87 298 120 141 209 18 377 
193 7 165 15 55 168 118 163 166 
194 7 357 254 29 274 173 26 366 
195 4 148 337 319 12 
196 7 324 218 8 38 248 350 88 
197 7 20 313 353 258 247 149 2 
198 4 240 269 108 81 
199 4 336 129 42 301 
200 7 225 185 343 36 142 120 283 
201 7 331 75 355 291 136 374 39 
202 6 64 114 149 258 340 316 
203 7 251 82 79 101 182 233 161 
204 6 261 104 56 77 139 300 
205 5 334 232 280 8 373 
206 7 226 126 342 209 2 18 247 
207 5 294 357 274 26 98 
208 7 100 177 16 44 114 64 74 
209 7 18 206 226 192 342 292 126 
210 7 138 24 11 96 299 255 346 
211 4 153 363 267 41 
212 7 126 342 296 110 2 206 247 
213 7 117 105 157 14 97 311 275 
214 7 61 282 189 127 243 304 329 
215 7 303 322 41 109 267 362 50 
216 5 304 54 249 127 270 
217 7 95 187 191 265 137 310 9 
218 7 38 88 248 196 71 324 146 
219 4 309 360 17 280 
220 6 224 313 20 110 247 2 
221 6 293 349 350 8 324 335 
222 7 191 137 370 310 9 30 233 
223 7 323 359 239 172 74 16 44 
224 6 220 83 313 110 308 247 
225 7 200 185 343 36 142 87 120 
226 7 206 2 20 247 313 197 209 
227 2 358 23 
228 7 348 57 80 115 32 116 339 
229 7 90 143 159 38 248 373 260 
230 6 312 131 78 125 364 328 
231 7 130 47 175 106 290 256 327 
232 3 280 150 33 
233 7 82 101 370 203 251 182 222 
234 7 181 167 69 325 52 68 306 
235 5 152 35 119 302 365 
236 7 188 368 339 151 39 60 320 
237 7 147 37 176 91 307 332 170 
238 7 182 161 79 101 251 203 318 
239 7 359 74 223 16 44 323 171 
240 3 198 81 269 
241 7 376 305 9 265 375 310 137 
242 7 4 92 118 178 145 58 166 
243 7 160 61 214 89 294 26 378 
244 5 140 286 266 139 56 
245 6 22 344 277 84 121 207 
246 6 112 124 170 327 47 147 
247 7 2 20 313 110 220 226 197 
248 7 38 218 196 229 373 90 324 
249 5 216 54 270 304 319 
250 4 96 138 24 210 
251 7 203 79 82 101 182 161 233 
252 6 33 369 273 360 17 280 
253 4 83 308 224 354 
254 7 194 274 357 29 26 173 378 
255 6 346 210 288 34 138 11 
256 7 175 47 231 290 154 130 327 
257 5 132 338 356 76 59 
258 6 149 202 64 114 340 197 
259 7 51 106 130 103 290 289 231 
260 7 373 159 334 229 90 248 38 
261 7 77 56 139 266 204 58 140 
262 7 179 86 352 330 297 301 42 
263 3 183 25 356 
264 7 316 46 45 73 268 74 340 
265 7 9 95 241 137 310 217 191 
266 7 139 58 140 77 56 261 92 
267 7 41 153 50 363 109 215 303 
268 7 73 46 102 162 264 45 316 
269 7 81 367 341 78 240 141 198 
270 4 319 216 249 12 
271 4 27 315 300 111 
272 7 152 35 281 287 13 365 235 
273 6 252 33 369 17 360 219 
274 7 254 26 357 194 29 294 378 
275 7 278 105 14 329 279 213 70 
276 6 284 337 335 63 12 146 
277 6 121 344 84 22 111 93 
278 7 275 105 279 329 70 14 213 
279 7 70 329 378 61 278 275 214 
280 3 232 33 360 
281 7 28 287 170 272 307 13 35 
282 6 189 127 304 54 214 216 
283 2 321 36 
284 6 276 63 71 146 88 335 
285 4 186 351 107 19 
286 6 27 244 271 104 366 140 
287 7 13 281 272 317 152 85 35 
288 6 163 346 34 255 5 15 
289 6 103 48 257 259 338 132 
290 7 106 175 231 130 256 51 259 
291 7 39 75 60 188 320 368 201 
292 7 43 328 180 78 141 209 226 
293 5 221 349 350 8 150 
294 6 207 26 274 160 89 357 
295 4 97 361 321 49 
296 6 212 110 126 342 2 247 
297 6 86 154 179 330 352 262 
298 6 120 377 192 184 87 18 
299 7 11 24 138 210 135 6 96 
300 5 104 271 315 27 134 
301 7 42 352 330 129 86 179 262 
302 5 119 365 158 235 35 
303 7 215 322 109 41 362 267 50 
304 5 127 216 189 54 282 
305 7 376 375 241 65 99 9 265 
306 7 155 23 62 358 347 181 325 
307 7 28 332 37 91 365 158 237 
308 6 83 253 164 224 123 354 
309 3 219 360 17 
310 7 137 9 191 222 265 370 241 
311 7 325 69 169 157 117 14 155 
312 6 7 364 131 125 144 230 
313 7 20 247 2 220 110 197 224 
314 7 5 21 34 288 15 168 145 
315 6 134 111 93 271 300 371 
316 6 264 114 340 64 202 46 
317 6 13 287 129 85 330 352 
318 7 6 10 238 190 182 161 30 
319 5 12 148 270 113 337 
320 7 60 151 39 323 291 188 223 
321 4 283 36 295 361 
322 7 215 303 41 109 267 50 362 
323 7 223 151 239 320 67 359 60 
324 7 196 8 350 349 218 248 38 
325 7 69 311 234 155 306 181 169 
326 7 50 363 41 153 267 215 322 
327 7 128 47 231 176 246 130 124 
328 7 43 180 292 78 230 141 177 
329 6 279 70 189 282 275 127 
330 7 352 86 301 179 42 297 262 
331 7 201 75 355 136 291 374 25 
332 7 91 37 307 158 28 237 365 
333 3 355 25 263 
334 7 373 260 205 248 324 38 159 
335 3 63 146 276 
336 3 199 129 85 
337 5 148 12 319 113 276 
338 5 257 356 132 76 183 
339 7 31 67 80 236 348 151 45 
340 6 149 202 64 114 258 316 
341 7 367 142 269 81 141 87 78 
342 7 126 212 206 2 110 18 247 
343 7 200 225 185 36 120 142 283 
344 6 84 121 277 22 111 93 
345 3 85 13 287 
346 6 255 210 288 34 138 163 
347 7 62 306 155 23 19 358 181 
348 7 80 228 57 339 31 45 32 
349 6 350 293 221 8 150 324 
350 6 349 8 293 221 150 324 
351 5 107 285 19 186 62 
352 7 330 86 179 301 42 262 297 
353 7 197 226 177 258 208 20 64 
354 7 96 253 161 250 308 24 6 
355 6 333 25 136 331 201 53 
356 6 76 338 132 183 257 263 
357 7 194 274 254 26 29 173 366 
358 7 23 62 155 306 169 227 347 
359 7 239 223 16 171 44 172 144 
360 5 219 309 17 33 252 
361 7 49 295 97 321 36 157 68 
362 6 109 303 215 267 322 41 
363 6 153 326 50 267 41 211 
364 6 312 131 125 7 144 230 
365 6 35 119 158 302 152 307 
366 6 98 173 194 357 29 254 
367 7 341 269 141 81 78 142 87 
368 7 188 39 236 291 60 320 151 
369 6 33 252 273 280 360 232 
370 7 233 222 101 82 310 137 191 
371 2 134 93 
372 1 4 
373 7 334 260 159 248 38 229 90 
374 5 136 211 3 153 363 
375 7 376 305 65 99 241 9 310 
376 7 305 375 241 65 99 9 265 
377 6 184 298 120 192 4 18 
378 7 70 279 26 61 254 274 29 
DEPOT_SECTION
   1
   -1
EOF
