NAME :  X-n480-kX-w47-c9.cctp
COMMENT : 	Adapted by Maziero, Usberti and Cavellucci from the Uchoa, Pecin, Pessoa, Poggi, Subramanian, and Vidal (2013)
TYPE :  CCTP
DIMENSION :    338
EDGE_WEIGHT_TYPE : 	EUC_2D	
CAPACITY : 	52
VERTICES_WITHIN_COVERAGE :  9
VERTICES_WITH_DEMAND : 	47
NODE_COORD_SECTION
1 628 103
2 291 573
3 129 447
4 973 643
5 830 868
6 398 563
7 731 423
8 201 995
9 167 174
10 31 358
11 480 619
12 323 555
13 205 208
14 187 767
15 775 445
16 745 369
17 188 965
18 44 585
19 405 706
20 185 315
21 505 636
22 482 543
23 830 860
24 344 498
25 762 379
26 761 399
27 869 844
28 114 420
29 890 491
30 440 802
31 929 676
32 524 456
33 361 434
34 377 478
35 191 496
36 646 352
37 795 962
38 483 492
39 174 597
40 208 464
41 693 461
42 56 114
43 877 898
44 483 596
45 757 915
46 833 803
47 676 597
48 818 695
49 494 648
50 5 167
51 170 313
52 603 437
53 773 462
54 442 485
55 269 543
56 770 869
57 342 542
58 799 441
59 935 918
60 790 696
61 857 459
62 319 541
63 337 529
64 152 735
65 302 491
66 508 567
67 490 571
68 818 425
69 743 377
70 725 477
71 333 557
72 421 589
73 515 601
74 791 669
75 935 639
76 238 198
77 1000 656
78 613 387
79 425 544
80 107 394
81 409 500
82 144 441
83 163 479
84 400 560
85 198 506
86 176 926
87 763 458
88 761 982
89 383 562
90 384 366
91 373 443
92 231 359
93 340 551
94 232 198
95 139 319
96 305 521
97 370 556
98 466 566
99 865 654
100 869 910
101 216 415
102 368 504
103 194 925
104 254 246
105 766 440
106 212 535
107 492 471
108 314 590
109 675 415
110 705 421
111 471 562
112 870 876
113 24 331
114 882 865
115 864 841
116 730 459
117 734 383
118 966 646
119 856 722
120 191 969
121 857 790
122 682 258
123 230 771
124 745 394
125 692 452
126 395 437
127 503 642
128 326 565
129 423 593
130 204 516
131 158 441
132 133 604
133 673 529
134 788 909
135 843 989
136 764 881
137 540 385
138 92 399
139 192 176
140 169 888
141 101 564
142 506 603
143 137 584
144 121 451
145 229 981
146 706 365
147 761 741
148 70 415
149 198 502
150 142 323
151 839 888
152 237 235
153 308 579
154 791 283
155 801 882
156 977 606
157 514 594
158 603 508
159 128 454
160 283 535
161 868 930
162 181 618
163 904 440
164 140 672
165 587 479
166 451 745
167 962 687
168 776 972
169 831 873
170 44 546
171 754 940
172 197 971
173 872 879
174 63 283
175 119 398
176 211 995
177 819 887
178 296 542
179 596 153
180 916 873
181 830 971
182 837 887
183 107 365
184 774 369
185 933 612
186 905 557
187 768 692
188 761 420
189 150 393
190 407 490
191 806 935
192 646 471
193 774 888
194 440 615
195 204 991
196 117 90
197 840 813
198 882 881
199 224 516
200 826 883
201 763 487
202 341 554
203 220 601
204 160 538
205 837 636
206 949 661
207 6 436
208 934 726
209 154 327
210 399 584
211 759 634
212 680 453
213 126 636
214 847 860
215 834 503
216 164 447
217 163 242
218 97 651
219 134 708
220 717 846
221 640 705
222 460 573
223 387 417
224 382 519
225 803 815
226 757 597
227 356 411
228 352 846
229 150 952
230 68 410
231 958 616
232 654 402
233 138 584
234 216 332
235 186 443
236 671 534
237 160 475
238 104 159
239 403 437
240 172 247
241 417 601
242 490 600
243 23 319
244 254 376
245 160 152
246 855 778
247 159 149
248 169 168
249 770 337
250 261 226
251 297 588
252 888 1000
253 736 422
254 893 829
255 221 975
256 372 588
257 814 849
258 431 513
259 817 382
260 209 252
261 369 460
262 4 252
263 114 48
264 932 709
265 468 470
266 851 660
267 774 798
268 526 611
269 993 516
270 134 190
271 988 634
272 960 699
273 989 609
274 332 575
275 986 630
276 198 981
277 599 858
278 284 599
279 440 645
280 825 894
281 229 186
282 142 637
283 77 417
284 368 714
285 224 194
286 228 763
287 839 860
288 170 453
289 395 569
290 124 795
291 784 319
292 265 609
293 579 588
294 968 971
295 374 588
296 953 903
297 101 427
298 434 539
299 874 663
300 340 555
301 265 215
302 169 312
303 845 973
304 758 336
305 287 585
306 726 382
307 487 551
308 592 837
309 279 547
310 820 692
311 926 852
312 991 659
313 478 410
314 625 630
315 577 761
316 379 548
317 999 672
318 863 505
319 178 937
320 364 490
321 160 197
322 186 335
323 757 408
324 497 647
325 322 484
326 414 573
327 367 682
328 743 601
329 835 509
330 823 812
331 141 474
332 415 483
333 311 526
334 791 365
335 951 686
336 140 179
337 848 729
338 315 451
DEMAND_SECTION
2 6
3 7
4 9
5 7
6 10
7 10
8 7
9 6
10 6
11 8
12 6
13 5
14 10
15 8
16 9
17 9
18 10
19 6
20 9
21 10
22 9
23 6
24 10
25 7
26 9
27 5
28 8
29 6
30 8
31 6
32 9
33 6
34 9
35 7
36 8
37 9
38 10
39 5
40 10
41 10
42 5
43 7
44 8
45 8
46 7
47 7
48 5
COVERAGE_SECTION
2 9 305 251 153 278 108 309 178 128 12 
3 9 159 144 82 131 331 28 297 216 288 
4 9 118 271 275 312 77 206 231 156 75 
5 9 169 23 287 200 214 182 151 177 257 
6 9 84 289 89 326 210 316 97 79 72 
7 9 253 110 188 323 124 116 26 105 117 
8 8 195 176 276 172 120 255 145 17 
9 7 248 245 321 139 247 336 270 
10 8 113 243 230 148 138 283 183 174 
11 9 242 44 21 142 49 127 324 73 194 
12 9 71 128 62 93 300 202 274 57 153 
13 9 285 94 281 76 139 152 260 321 9 
14 6 286 123 64 290 219 164 
15 9 105 53 87 58 188 323 201 253 68 
16 9 69 117 25 306 124 184 26 304 146 
17 9 120 172 276 319 195 8 255 176 103 
18 6 170 141 218 132 143 233 
19 4 284 327 166 279 
20 7 51 302 322 209 234 150 95 
21 9 127 324 49 11 142 268 73 242 157 
22 8 307 111 98 67 66 222 298 38 
23 9 5 287 169 214 257 200 182 151 177 
24 7 320 102 325 63 34 65 224 
25 9 184 69 16 26 124 117 323 334 306 
26 9 323 124 25 188 69 117 184 16 253 
27 9 115 114 214 254 112 287 173 198 23 
28 9 297 175 80 138 3 144 82 159 283 
29 7 318 61 163 215 329 186 68 
30 6 166 228 19 284 327 315 
31 9 335 206 264 167 75 272 118 208 4 
32 8 107 38 265 313 165 137 52 54 
33 9 91 227 261 223 126 239 34 338 320 
34 9 320 261 102 190 91 332 24 81 224 
35 9 149 85 130 83 40 237 199 106 288 
36 9 78 232 146 109 306 110 117 52 16 
37 9 168 191 181 88 171 303 134 135 45 
38 9 107 265 54 22 32 258 307 298 332 
39 8 162 233 143 132 203 282 204 213 
40 9 235 35 149 288 85 83 216 237 101 
41 9 125 212 70 116 110 192 109 7 253 
42 4 196 238 50 263 
43 9 100 198 173 112 114 161 151 182 180 
44 9 242 11 142 67 157 73 222 98 111 
45 9 171 134 193 136 56 191 155 37 168 
46 9 197 330 121 225 246 115 257 27 23 
47 7 314 236 328 133 226 211 293 
48 9 310 60 74 337 119 266 187 99 205 
49 9 324 127 21 11 142 242 268 73 44 
50 4 42 262 238 174 
51 6 302 20 209 322 150 95 
52 8 165 78 192 232 158 109 212 32 
53 8 87 15 105 201 58 116 188 70 
54 9 332 258 265 190 81 38 107 298 79 
55 5 309 160 178 2 96 
56 8 136 193 155 134 45 257 177 200 
57 7 93 202 300 63 71 12 62 
58 8 15 68 53 105 87 188 323 26 
59 8 296 180 43 294 198 100 311 161 
60 9 187 74 48 310 147 337 211 119 266 
61 8 29 318 215 163 68 329 58 15 
62 9 12 333 71 63 57 93 178 96 128 
63 8 57 62 93 202 300 333 71 12 
64 8 219 14 164 290 286 123 282 218 
65 8 325 96 333 338 24 160 178 63 
66 9 67 307 157 22 73 142 111 44 242 
67 9 66 307 111 98 44 22 242 222 157 
68 8 58 259 15 61 105 188 53 26 
69 9 16 117 124 306 25 26 184 323 146 
70 8 116 41 201 125 87 53 212 7 
71 8 300 93 202 12 128 57 274 62 
72 7 129 241 326 210 194 289 6 
73 9 157 142 268 242 44 66 21 11 67 
74 8 60 187 48 310 211 205 266 99 
75 8 206 185 118 231 31 4 335 275 
76 8 94 281 285 301 13 250 152 104 
77 9 312 317 271 4 275 118 273 167 206 
78 8 232 36 52 109 137 192 212 146 
79 8 298 84 326 258 6 289 72 222 
80 7 175 138 28 183 297 283 230 
81 9 190 332 258 224 54 34 102 298 320 
82 8 131 3 159 216 144 288 331 28 
83 9 237 331 288 216 35 131 82 149 159 
84 9 6 289 89 326 210 316 79 97 72 
85 8 149 35 130 199 106 40 83 237 
86 7 319 103 229 140 17 120 172 
87 9 53 15 105 201 116 188 58 70 253 
88 9 168 37 171 191 45 181 134 135 303 
89 8 97 289 6 316 84 210 256 295 
90 6 223 227 33 126 239 91 
91 9 33 261 126 223 239 34 227 320 190 
92 6 244 234 322 101 20 51 
93 7 202 300 57 71 12 128 63 
94 8 76 285 281 13 152 301 250 139 
95 5 150 209 302 51 20 
96 8 333 178 62 160 65 63 309 12 
97 6 316 89 289 6 202 84 
98 8 111 222 67 307 22 44 66 242 
99 7 299 266 205 310 48 31 119 
100 9 43 161 173 198 112 151 182 114 280 
101 5 235 40 244 92 288 
102 7 320 224 24 34 63 81 190 
103 5 86 319 17 120 140 
104 9 152 250 301 260 76 94 285 13 281 
105 9 15 87 188 53 58 323 253 7 26 
106 6 130 199 85 149 35 204 
107 9 38 265 32 54 313 22 258 332 307 
108 7 153 251 274 305 128 2 278 
109 9 232 110 212 125 41 7 146 253 306 
110 9 7 109 253 125 212 41 306 116 117 
111 8 98 222 307 67 22 44 66 242 
112 9 173 198 114 43 214 27 151 100 182 
113 6 243 10 174 262 183 230 
114 9 112 198 173 27 115 43 180 214 254 
115 9 27 214 114 254 287 112 197 23 173 
116 9 70 87 7 41 253 125 105 53 201 
117 9 306 69 124 16 25 26 146 323 253 
118 9 4 206 271 275 312 231 75 77 156 
119 7 337 48 310 246 266 299 121 
120 9 17 172 276 195 8 255 176 319 145 
121 7 246 46 197 330 115 254 27 
122 7 36 304 146 154 249 291 16 
123 3 286 14 64 
124 9 117 26 69 323 306 25 16 253 188 
125 9 41 212 110 116 70 109 7 192 253 
126 9 239 223 91 33 261 34 227 332 190 
127 9 21 324 49 11 142 268 73 242 157 
128 9 12 71 274 300 202 93 153 62 57 
129 7 72 241 326 210 194 289 6 
130 7 85 149 199 106 35 204 40 
131 8 216 82 288 235 3 159 237 331 
132 9 143 233 213 282 39 162 141 218 164 
133 8 236 192 47 41 158 70 212 125 
134 9 193 155 45 191 136 177 280 56 171 
135 9 303 181 252 37 161 191 168 88 100 
136 8 193 56 45 134 155 177 220 257 
137 7 313 32 78 52 107 165 36 
138 8 80 283 230 148 175 297 28 183 
139 5 248 9 13 285 281 
140 5 86 103 319 229 17 
141 6 143 233 132 170 18 204 
142 9 73 157 242 268 44 11 21 66 67 
143 8 233 132 39 141 204 213 282 162 
144 9 159 3 82 331 297 28 131 216 237 
145 6 255 176 195 8 276 172 
146 9 306 117 16 69 124 110 25 109 304 
147 8 187 60 267 48 310 74 225 337 
148 8 230 283 138 297 80 28 175 144 
149 8 85 35 130 199 106 40 83 237 
150 5 95 209 302 51 20 
151 9 182 200 280 169 177 5 287 23 214 
152 9 104 250 260 301 76 94 13 285 281 
153 9 108 251 2 305 128 274 12 278 71 
154 6 291 249 304 334 184 16 
155 9 177 200 280 193 134 169 5 56 257 
156 7 273 231 275 271 4 118 185 
157 9 73 142 268 242 66 44 67 11 21 
158 8 165 192 52 133 236 293 32 212 
159 9 3 144 82 331 131 28 216 237 297 
160 7 309 178 55 96 333 62 2 
161 9 100 43 303 151 173 198 182 112 181 
162 8 39 203 282 132 233 143 213 164 
163 6 61 29 318 68 215 329 
164 8 282 219 213 218 64 132 162 39 
165 8 158 52 192 32 107 78 212 133 
166 9 30 19 284 279 327 49 324 127 21 
167 9 335 272 206 31 264 312 317 118 4 
168 9 88 37 171 191 181 45 134 135 303 
169 9 5 200 23 182 287 151 177 214 280 
170 2 18 141 
171 9 45 168 88 134 37 191 193 136 56 
172 8 120 276 17 195 8 255 176 145 
173 9 112 198 114 43 100 214 151 27 182 
174 4 243 113 262 10 
175 6 80 28 138 189 297 183 
176 8 195 8 276 255 145 172 120 17 
177 9 200 280 169 182 155 151 5 23 287 
178 8 160 309 333 62 96 55 12 2 
179 4 122 36 154 78 
180 8 311 114 198 173 43 112 296 59 
181 9 303 135 37 191 168 161 252 88 100 
182 9 151 200 280 169 177 5 287 23 214 
183 5 80 175 138 189 28 
184 9 25 334 16 69 249 26 304 124 117 
185 7 231 75 156 118 4 206 273 
186 5 185 318 29 231 329 
187 8 60 74 147 48 310 211 337 205 
188 9 323 26 105 253 15 7 124 87 25 
189 3 175 80 28 
190 9 81 332 34 258 54 224 102 320 261 
191 9 37 134 181 280 168 177 171 45 155 
192 8 212 41 125 52 158 165 109 133 
193 8 136 56 134 155 45 177 280 200 
194 8 241 129 279 72 11 44 222 326 
195 8 8 176 276 172 255 120 145 17 
196 5 263 42 238 247 245 
197 9 46 330 121 115 225 246 27 257 287 
198 8 173 112 114 43 100 180 27 214 
199 6 130 106 85 149 35 55 
200 9 177 169 280 182 151 5 23 155 287 
201 5 53 87 70 116 15 
202 7 300 93 71 57 12 128 274 
203 5 162 39 292 278 106 
204 7 130 85 143 233 35 106 149 
205 7 266 99 299 74 310 48 60 
206 9 118 31 335 75 167 4 272 312 231 
207 4 148 230 283 10 
208 5 264 272 335 167 31 
209 6 150 95 51 302 20 322 
210 8 289 326 6 72 84 241 295 129 
211 8 226 328 74 187 60 205 310 48 
212 9 125 41 109 192 110 116 70 232 7 
213 9 282 132 218 164 143 233 162 39 219 
214 9 287 23 5 169 115 27 112 151 182 
215 6 329 318 61 29 58 53 
216 8 131 288 82 235 237 83 3 331 
217 4 240 321 260 13 
218 9 213 282 164 132 219 143 233 18 141 
219 8 64 164 218 282 213 14 290 162 
220 8 56 136 193 267 45 155 225 134 
221 9 314 315 47 147 187 293 211 308 328 
222 8 98 111 67 44 307 22 242 72 
223 9 126 239 91 33 227 261 90 34 332 
224 7 102 316 81 320 190 97 34 
225 8 330 46 267 257 197 23 287 5 
226 4 328 211 74 47 
227 9 33 223 91 126 261 90 239 338 34 
228 1 30 
229 9 319 86 17 120 172 103 276 8 140 
230 8 148 283 138 297 80 28 175 183 
231 8 156 185 4 118 275 273 75 271 
232 8 109 78 36 110 212 52 125 146 
233 8 143 132 39 141 204 213 282 162 
234 7 322 92 20 51 302 244 209 
235 8 288 216 131 40 101 237 82 83 
236 7 133 47 192 158 41 70 212 
237 9 83 331 288 216 131 35 82 159 235 
238 6 336 270 245 247 9 42 
239 9 126 223 91 261 33 332 34 190 227 
240 4 217 260 13 321 
241 7 129 72 210 194 326 289 6 
242 9 44 142 11 73 157 67 66 268 21 
243 6 113 10 174 262 183 230 
244 6 92 101 234 322 20 235 
245 5 247 248 9 336 139 
246 7 121 46 197 330 337 119 115 
247 5 245 248 9 336 139 
248 7 9 245 247 139 321 336 270 
249 9 304 291 184 334 16 25 69 117 154 
250 9 301 104 152 76 94 285 281 260 13 
251 8 305 153 2 108 278 128 274 292 
252 8 135 303 181 161 294 100 59 37 
253 9 7 188 323 124 110 26 105 116 117 
254 8 27 115 114 311 180 112 121 198 
255 7 145 176 195 172 276 8 120 
256 6 295 210 89 289 97 6 
257 9 23 5 287 169 155 214 200 225 177 
258 9 81 298 54 79 190 332 224 38 84 
259 6 334 68 184 25 26 58 
260 9 152 240 13 104 217 250 94 285 76 
261 9 91 34 33 320 126 239 102 24 223 
262 5 174 243 113 50 10 
263 4 196 42 238 247 
264 7 208 272 335 31 167 206 75 
265 9 107 38 54 332 258 32 313 190 81 
266 7 99 299 205 310 48 74 119 
267 8 225 330 147 46 257 197 56 220 
268 9 73 157 142 21 242 127 44 324 11 
269 5 156 273 186 29 231 
270 5 336 321 9 248 238 
271 9 275 4 77 118 273 312 156 231 317 
272 9 167 335 264 208 31 206 317 312 118 
273 8 156 275 271 231 4 118 77 312 
274 9 128 71 12 300 108 202 153 93 57 
275 9 271 4 273 118 156 312 77 231 317 
276 8 172 195 8 120 17 176 255 145 
277 8 308 315 220 221 136 45 30 56 
278 6 305 251 292 2 108 153 
279 8 194 11 241 49 129 324 72 127 
280 9 177 200 182 151 169 5 155 23 287 
281 5 285 94 76 13 139 
282 8 213 132 164 162 218 39 143 233 
283 9 148 230 138 297 28 80 175 144 3 
284 2 327 19 
285 8 94 281 76 13 139 152 301 250 
286 3 123 14 64 
287 9 214 23 5 169 200 182 257 151 115 
288 9 216 131 235 237 83 82 331 40 3 
289 9 6 84 89 210 326 316 97 295 256 
290 7 64 14 219 140 123 286 164 
291 7 249 304 154 334 184 16 25 
292 5 278 305 251 2 203 
293 9 268 314 73 157 66 142 158 21 242 
294 7 59 296 252 161 180 100 43 
295 6 256 210 89 289 97 6 
296 8 59 180 311 294 198 43 114 100 
297 9 28 283 138 144 148 3 80 175 230 
298 8 79 258 326 84 98 6 222 111 
299 8 99 266 205 31 310 119 48 75 
300 7 202 93 71 57 12 128 274 
301 8 250 76 104 152 94 281 285 13 
302 6 51 20 209 150 322 95 
303 9 181 135 161 37 252 191 100 168 280 
304 9 249 291 16 184 25 69 334 117 306 
305 8 251 2 278 153 108 292 309 128 
306 9 117 69 124 16 146 25 26 323 7 
307 8 22 111 67 66 98 222 44 242 
308 8 277 315 220 221 30 166 136 56 
309 7 55 160 178 2 96 333 305 
310 9 48 60 74 266 337 119 187 99 205 
311 8 180 254 114 198 27 296 173 112 
312 9 77 317 4 271 118 275 167 206 335 
313 8 265 107 32 137 239 38 54 126 
314 9 47 293 221 268 236 133 73 157 21 
315 9 308 221 277 166 324 49 127 314 30 
316 6 97 89 6 84 289 224 
317 9 312 77 4 167 271 118 275 272 335 
318 8 329 215 29 61 186 163 58 68 
319 8 86 103 17 229 120 172 276 140 
320 8 102 34 24 261 224 325 190 81 
321 8 9 270 336 248 139 217 245 13 
322 6 20 51 302 234 209 150 
323 9 26 188 124 253 25 7 105 69 117 
324 9 49 127 21 11 142 268 242 73 44 
325 8 65 24 338 96 320 333 63 102 
326 8 72 6 84 210 289 129 241 79 
327 2 284 19 
328 4 226 211 47 74 
329 6 215 318 61 29 201 58 
330 9 46 197 225 257 121 246 23 115 267 
331 8 237 83 159 3 144 82 216 288 
332 9 190 81 54 258 34 239 224 126 102 
333 8 96 62 178 63 160 12 57 65 
334 9 184 259 25 249 304 26 16 291 69 
335 9 167 272 31 206 264 118 208 4 312 
336 7 270 9 321 248 245 247 238 
337 7 119 48 310 246 121 60 266 
338 9 325 65 33 24 261 227 91 320 34 
DEPOT_SECTION
   1
   -1
EOF
