NAME :  X-n449-kX-w44-c11.cctp
COMMENT : 	Adapted by Maziero, Usberti and Cavellucci from the Uchoa, Pecin, Pessoa, Poggi, Subramanian, and Vidal (2013)
TYPE :  CCTP
DIMENSION :    283
EDGE_WEIGHT_TYPE : 	EUC_2D	
CAPACITY : 	777
VERTICES_WITHIN_COVERAGE :  11
VERTICES_WITH_DEMAND : 	44
NODE_COORD_SECTION
1 0 0
2 300 71
3 434 4
4 257 798
5 718 17
6 879 206
7 929 330
8 353 793
9 389 540
10 202 55
11 417 253
12 921 572
13 94 788
14 870 327
15 281 124
16 411 288
17 882 116
18 307 240
19 359 935
20 352 858
21 502 776
22 269 33
23 440 814
24 850 461
25 909 404
26 339 458
27 767 535
28 86 47
29 758 532
30 426 282
31 534 10
32 826 830
33 911 79
34 270 791
35 391 794
36 908 787
37 929 858
38 938 281
39 941 579
40 752 162
41 579 68
42 323 570
43 238 700
44 853 970
45 329 805
46 291 631
47 286 481
48 855 547
49 972 378
50 205 741
51 462 532
52 340 54
53 929 941
54 936 46
55 339 10
56 324 595
57 190 659
58 900 929
59 228 662
60 897 292
61 958 546
62 312 781
63 320 557
64 226 264
65 470 746
66 439 15
67 371 115
68 703 31
69 798 932
70 170 723
71 700 554
72 801 849
73 139 150
74 907 964
75 490 37
76 311 927
77 210 657
78 357 320
79 379 863
80 355 233
81 974 313
82 315 294
83 846 911
84 997 585
85 407 584
86 775 225
87 244 761
88 433 941
89 771 792
90 381 345
91 188 643
92 292 735
93 540 762
94 392 298
95 748 473
96 123 885
97 896 666
98 882 844
99 475 831
100 430 827
101 765 883
102 388 981
103 767 488
104 414 436
105 308 756
106 985 906
107 45 137
108 664 79
109 363 607
110 425 296
111 714 61
112 152 660
113 991 139
114 320 583
115 317 732
116 437 745
117 362 207
118 319 725
119 216 807
120 284 793
121 380 466
122 879 171
123 23 49
124 304 234
125 304 700
126 525 767
127 997 129
128 200 771
129 191 188
130 965 27
131 602 777
132 994 807
133 912 153
134 367 905
135 707 243
136 247 86
137 951 396
138 622 68
139 435 179
140 829 919
141 302 515
142 831 70
143 917 369
144 981 425
145 876 779
146 485 294
147 439 979
148 373 336
149 445 807
150 898 130
151 582 152
152 795 991
153 469 520
154 482 33
155 906 903
156 582 69
157 570 103
158 816 427
159 286 816
160 344 97
161 763 175
162 784 886
163 947 357
164 283 214
165 979 69
166 716 484
167 349 425
168 658 154
169 722 540
170 457 775
171 321 894
172 438 207
173 666 5
174 790 584
175 835 367
176 460 1
177 531 101
178 351 913
179 432 956
180 75 828
181 724 22
182 921 532
183 833 413
184 969 601
185 334 591
186 979 904
187 910 520
188 886 385
189 539 808
190 836 442
191 147 144
192 923 928
193 324 85
194 387 412
195 484 17
196 427 591
197 933 93
198 990 355
199 536 845
200 296 1000
201 130 810
202 255 761
203 336 521
204 703 45
205 760 984
206 833 412
207 982 954
208 889 715
209 958 642
210 850 134
211 272 789
212 417 46
213 411 740
214 925 548
215 980 299
216 330 462
217 829 128
218 966 431
219 249 633
220 24 912
221 2 667
222 300 206
223 5 919
224 862 885
225 251 533
226 788 560
227 365 273
228 512 96
229 879 619
230 77 850
231 989 364
232 486 57
233 475 14
234 382 331
235 307 581
236 996 593
237 977 840
238 990 13
239 458 762
240 464 348
241 746 109
242 828 428
243 798 863
244 947 294
245 333 230
246 813 426
247 943 15
248 868 284
249 443 317
250 500 710
251 815 983
252 969 727
253 740 523
254 647 40
255 999 394
256 438 242
257 297 913
258 162 816
259 725 582
260 178 67
261 808 54
262 843 80
263 1000 36
264 53 823
265 554 145
266 962 430
267 307 292
268 799 580
269 273 266
270 507 816
271 534 864
272 254 162
273 427 857
274 339 265
275 303 930
276 266 296
277 456 972
278 866 302
279 337 390
280 933 496
281 448 357
282 267 811
283 821 367
DEMAND_SECTION
2 35
3 74
4 5
5 43
6 27
7 97
8 68
9 77
10 78
11 8
12 66
13 15
14 92
15 3
16 90
17 39
18 57
19 29
20 82
21 81
22 4
23 90
24 9
25 95
26 6
27 82
28 66
29 50
30 83
31 48
32 4
33 54
34 45
35 64
36 77
37 96
38 56
39 44
40 25
41 18
42 23
43 74
44 69
45 8
COVERAGE_SECTION
2 10 193 52 22 160 136 15 55 67 10 272 
3 9 66 176 233 212 195 154 75 232 55 
4 11 34 282 211 120 159 202 87 119 62 128 105 
5 11 181 68 204 111 173 254 108 241 261 138 142 
6 11 122 133 150 210 248 60 17 217 38 278 86 
7 11 163 244 143 81 38 60 14 215 49 198 231 
8 11 45 35 62 105 20 120 115 159 79 118 213 
9 9 85 203 196 63 42 109 51 121 185 
10 11 260 136 22 2 15 191 73 28 272 193 129 
11 11 256 30 16 110 94 172 227 80 249 117 139 
12 11 39 214 182 61 187 184 229 48 84 280 236 
13 10 201 180 264 230 258 70 96 128 50 119 
14 11 278 248 60 175 7 188 143 283 38 163 244 
15 10 272 136 2 193 160 222 67 164 22 52 
16 11 30 110 94 11 249 227 234 256 148 78 90 
17 11 150 210 33 133 262 217 122 197 142 54 6 
18 11 124 245 164 222 274 269 80 267 82 117 227 
19 11 178 134 76 102 171 275 257 88 79 179 20 
20 11 79 171 134 178 45 8 35 273 19 159 257 
21 11 126 93 270 65 170 239 189 99 149 250 116 
22 11 2 136 10 52 55 193 15 260 160 272 67 
23 11 149 100 99 170 273 35 239 270 116 21 65 
24 11 190 242 158 183 246 206 25 187 188 48 103 
25 11 188 143 137 266 163 218 49 144 206 7 183 
26 11 216 167 121 47 203 194 141 279 104 9 63 
27 11 29 253 226 169 103 174 268 259 95 71 166 
28 8 123 260 107 191 10 73 136 129 
29 11 27 253 169 226 103 95 259 174 71 268 166 
30 11 110 16 11 94 249 256 146 227 234 148 172 
31 11 195 75 154 233 232 41 176 156 228 177 66 
32 11 72 243 98 224 89 162 145 101 83 140 36 
33 11 197 54 17 150 262 165 247 133 130 142 210 
34 11 211 120 4 282 159 202 87 62 105 119 92 
35 11 8 100 23 149 213 45 116 170 79 273 239 
36 10 145 98 37 208 252 237 132 32 224 155 
37 11 98 155 237 186 192 224 36 106 58 53 132 
38 11 244 60 215 81 7 248 278 163 14 143 198 
39 11 12 214 184 61 182 84 236 209 187 229 280 
40 11 161 241 86 217 135 168 210 111 108 142 261 
41 11 156 157 138 177 31 228 254 265 151 108 75 
42 10 63 114 235 185 56 203 109 141 46 9 
43 11 59 77 50 87 57 202 92 125 219 70 91 
44 10 251 74 140 83 58 152 69 53 192 155 
45 11 8 62 159 120 105 20 211 34 282 35 4 
46 10 219 56 235 114 185 42 59 125 109 63 
47 9 141 216 26 225 203 63 167 121 42 
48 9 187 268 182 226 214 12 174 229 24 
49 11 231 137 198 255 163 144 218 266 143 7 81 
50 11 128 70 87 43 202 119 4 34 59 211 57 
51 4 153 196 9 85 
52 9 193 2 160 55 67 22 212 15 136 
53 11 192 58 74 155 207 186 106 44 37 224 83 
54 11 247 130 33 197 165 238 263 17 150 262 127 
55 11 52 2 22 193 212 160 3 66 67 136 176 
56 9 185 114 235 42 63 109 46 203 141 
57 8 91 77 59 112 43 219 70 50 
58 11 192 155 53 74 83 224 44 140 37 186 207 
59 10 77 219 57 43 91 46 112 50 70 125 
60 11 248 278 38 14 7 244 81 143 163 215 6 
61 11 214 39 182 12 84 187 184 280 236 209 48 
62 11 105 45 120 211 8 34 159 115 92 282 118 
63 11 42 114 235 185 56 203 141 109 9 225 46 
64 4 269 276 164 18 
65 9 239 170 116 21 250 126 213 149 93 
66 9 3 176 233 212 195 154 75 232 31 
67 6 160 193 52 212 2 15 
68 11 204 5 181 111 173 254 108 138 241 261 156 
69 8 140 162 83 251 101 152 205 44 
70 10 50 128 112 57 43 77 91 87 59 202 
71 4 169 259 253 29 
72 10 243 32 162 101 89 224 140 83 98 69 
73 6 191 129 260 107 10 28 
74 11 53 58 192 44 155 207 83 140 224 186 251 
75 9 154 232 195 233 176 31 66 228 3 
76 8 275 257 171 178 19 134 200 20 
77 9 59 57 91 219 43 112 70 50 46 
78 9 148 234 90 94 227 82 267 274 16 
79 11 20 134 273 178 100 171 35 8 19 45 23 
80 11 245 117 274 227 18 124 222 11 82 164 94 
81 11 215 244 198 7 38 163 231 49 60 143 255 
82 8 267 274 78 276 269 227 18 124 
83 10 140 224 69 58 44 155 162 243 98 72 
84 11 236 184 61 39 209 12 214 182 187 280 229 
85 4 196 9 109 185 
86 6 161 40 135 6 248 217 
87 11 202 4 34 211 50 128 120 119 92 282 43 
88 9 179 147 277 102 19 134 273 178 79 
89 5 72 32 243 101 162 
90 9 148 234 78 94 279 16 110 194 249 
91 7 57 77 112 59 219 43 70 
92 11 115 105 118 125 202 62 87 211 120 34 43 
93 9 126 21 189 270 131 250 65 239 199 
94 10 16 110 234 227 30 78 148 90 11 249 
95 10 103 166 253 29 27 169 246 158 242 190 
96 7 230 180 201 258 264 13 220 
97 6 208 229 209 252 12 39 
98 11 224 37 32 36 155 145 83 72 243 58 140 
99 10 270 149 23 100 273 170 21 199 189 271 
100 11 23 149 273 99 35 170 79 239 270 116 8 
101 6 162 243 72 69 140 32 
102 10 147 179 19 88 277 178 134 76 200 275 
103 10 95 253 29 27 166 169 226 246 158 190 
104 9 194 121 167 26 281 216 279 90 153 
105 11 62 92 115 118 120 211 34 45 202 125 8 
106 11 186 207 53 192 237 37 155 58 74 132 98 
107 5 123 73 28 191 260 
108 11 138 254 204 111 68 173 168 5 156 181 41 
109 7 185 56 114 85 42 235 63 
110 11 30 16 249 94 11 234 256 146 227 240 281 
111 11 204 68 181 5 108 241 254 173 138 261 40 
112 7 57 91 77 70 59 43 50 
113 11 127 165 197 133 150 33 263 54 17 130 122 
114 9 42 56 235 185 63 109 46 203 141 
115 11 118 92 105 125 62 202 120 8 211 45 34 
116 9 213 239 65 170 149 35 23 21 250 
117 10 80 245 222 274 18 124 227 11 172 139 
118 10 115 92 125 105 62 202 8 120 211 45 
119 11 128 4 282 87 258 34 211 202 50 120 159 
120 11 211 34 159 282 4 62 202 105 45 87 92 
121 10 26 104 216 167 194 203 9 279 141 47 
122 11 6 133 150 210 17 217 197 33 262 142 248 
123 6 28 107 73 191 260 10 
124 11 18 222 164 245 269 274 80 267 82 117 227 
125 10 118 115 92 105 43 46 202 62 59 87 
126 10 93 21 189 270 65 250 239 170 131 199 
127 11 113 165 197 133 263 33 150 54 130 17 238 
128 11 50 119 87 202 70 258 4 34 211 282 201 
129 7 191 73 272 64 164 15 222 
130 11 247 238 54 263 165 197 33 127 113 17 150 
131 5 93 189 126 199 21 
132 11 237 37 252 36 186 106 98 145 155 192 208 
133 11 150 122 17 6 197 210 33 113 217 127 262 
134 11 178 19 79 171 20 76 275 257 88 273 102 
135 3 86 161 40 
136 11 15 2 10 22 260 272 193 52 160 129 191 
137 11 49 266 218 163 144 25 143 255 231 198 188 
138 11 254 156 41 108 157 173 204 68 111 151 168 
139 6 172 256 11 117 67 80 
140 10 83 69 224 44 162 243 251 58 101 72 
141 11 203 47 63 225 42 216 235 26 114 185 56 
142 11 262 261 217 210 17 33 150 241 197 54 122 
143 11 163 188 25 7 137 49 14 231 198 266 218 
144 11 218 266 255 137 49 231 198 25 163 143 280 
145 10 36 98 208 32 37 72 89 224 252 97 
146 7 249 240 30 110 256 281 16 
147 7 277 179 88 102 19 134 178 
148 9 234 90 78 94 16 227 279 110 82 
149 11 23 100 170 99 239 273 35 116 270 21 65 
150 11 17 133 122 210 197 33 217 262 6 142 54 
151 8 265 157 177 168 156 41 228 138 
152 8 251 205 69 44 140 83 162 101 
153 3 51 9 196 
154 9 75 195 233 232 176 66 3 31 212 
155 11 58 192 53 224 37 74 83 98 186 106 140 
156 11 41 157 138 177 254 228 31 265 108 151 75 
157 11 41 156 177 265 151 228 138 232 108 254 31 
158 10 246 242 183 206 190 24 283 175 103 95 
159 11 282 120 34 211 4 45 62 202 105 87 8 
160 9 193 67 52 2 15 55 212 136 22 
161 10 40 86 241 217 135 210 168 122 6 111 
162 7 101 243 72 69 140 83 32 
163 11 7 143 49 137 198 231 81 25 244 255 188 
164 11 222 124 18 245 269 272 80 64 274 117 267 
165 11 263 130 54 197 238 127 247 33 113 150 133 
166 7 95 253 103 169 29 27 71 
167 9 26 279 194 216 121 104 47 90 148 
168 10 108 151 138 40 241 135 157 265 161 111 
169 7 253 71 29 259 27 166 103 
170 11 239 65 149 116 23 21 213 99 100 270 126 
171 9 257 76 178 275 134 20 19 79 159 
172 8 139 256 11 30 117 16 80 110 
173 11 254 68 5 204 181 108 111 138 156 41 241 
174 5 268 226 27 29 259 
175 11 283 206 183 14 188 242 158 246 278 190 143 
176 9 233 66 3 195 154 75 212 232 31 
177 9 228 157 265 41 156 232 151 75 154 
178 11 134 19 171 76 275 257 20 79 102 88 179 
179 8 88 147 277 102 19 134 178 273 
180 11 230 264 13 201 96 258 220 223 128 70 119 
181 11 5 68 204 111 173 254 108 241 261 138 142 
182 11 187 214 280 12 61 39 48 184 84 229 236 
183 10 206 242 158 246 190 175 283 24 188 25 
184 11 236 84 39 209 12 61 214 182 229 97 187 
185 9 56 114 42 235 109 63 46 203 85 
186 11 106 207 192 53 237 37 155 58 74 132 98 
187 11 182 214 280 12 61 48 39 24 184 229 266 
188 11 25 143 175 206 14 183 137 163 283 7 242 
189 8 270 199 126 93 21 271 99 131 
190 10 242 24 158 246 183 206 175 188 283 25 
191 6 73 129 260 107 10 272 
192 11 53 58 155 74 186 207 106 37 224 83 44 
193 9 160 2 52 67 15 22 55 136 212 
194 10 104 167 121 279 26 90 216 148 234 281 
195 9 233 154 75 176 232 66 31 3 212 
196 4 85 9 109 51 
197 11 33 54 150 165 17 133 127 130 113 247 263 
198 11 231 49 255 163 81 137 215 7 144 143 244 
199 5 271 189 270 99 21 
200 6 275 76 257 19 102 178 
201 11 258 13 180 230 96 264 128 119 70 50 87 
202 11 87 211 34 4 120 92 282 105 50 128 62 
203 11 141 63 42 9 216 26 47 114 235 121 185 
204 11 68 111 181 5 108 173 254 241 138 261 168 
205 7 152 251 69 44 140 101 162 
206 10 183 242 158 246 190 175 283 24 188 25 
207 11 106 186 53 192 74 58 155 37 237 44 224 
208 6 97 145 36 252 229 209 
209 10 184 236 39 97 84 12 229 252 61 208 
210 11 217 17 122 150 262 133 142 6 33 261 197 
211 11 34 120 4 282 159 202 87 62 105 92 45 
212 8 66 3 176 154 233 232 195 75 
213 8 116 239 35 170 65 149 8 23 
214 11 182 12 187 61 39 280 184 48 84 236 229 
215 11 81 244 38 198 7 231 163 49 60 143 255 
216 11 26 167 47 121 203 141 279 194 104 63 9 
217 11 210 262 17 142 122 150 261 161 40 241 133 
218 11 266 144 137 255 49 25 231 280 163 143 198 
219 10 59 46 77 91 57 43 235 56 114 125 
220 8 223 230 264 180 96 13 201 258 
221 2 112 13 
222 11 164 124 18 245 80 117 272 269 274 15 267 
223 8 220 230 264 180 96 13 201 258 
224 11 83 98 140 155 58 32 243 72 37 192 162 
225 6 141 47 63 235 42 114 
226 8 268 174 27 29 253 259 48 169 
227 10 274 94 80 16 78 82 245 11 234 267 
228 8 177 232 157 75 265 154 41 156 
229 7 97 12 39 48 209 214 268 
230 10 180 264 96 13 201 220 258 223 119 128 
231 11 198 49 255 163 137 81 144 215 7 218 266 
232 9 75 154 195 233 228 176 66 177 31 
233 9 195 154 176 75 66 3 232 31 212 
234 9 148 90 78 94 16 110 227 249 30 
235 11 114 42 56 63 185 46 109 141 203 225 219 
236 11 84 184 39 61 209 12 214 182 187 280 229 
237 11 132 37 186 106 36 98 155 192 53 252 207 
238 11 263 130 247 165 54 197 33 127 113 17 150 
239 10 170 65 116 21 149 213 23 126 250 99 
240 6 281 249 146 110 30 16 
241 11 40 111 161 204 261 217 108 68 181 142 5 
242 10 158 246 183 190 206 24 175 283 188 25 
243 9 72 162 101 32 140 83 224 69 89 
244 11 38 81 215 7 60 163 198 248 143 278 231 
245 11 80 18 124 274 117 222 164 227 82 267 269 
246 10 158 242 183 206 190 24 283 175 103 95 
247 11 130 54 238 263 165 33 197 17 262 150 142 
248 11 278 60 14 38 7 6 244 175 283 143 188 
249 9 110 240 30 281 16 146 94 234 90 
250 5 65 126 21 93 239 
251 9 152 44 69 205 140 83 74 58 162 
252 9 208 132 36 209 97 145 237 184 37 
253 9 29 169 27 103 166 71 95 226 259 
254 11 138 173 108 204 68 111 156 41 5 181 157 
255 11 49 231 144 198 137 218 266 163 81 143 25 
256 11 11 172 30 16 110 139 146 94 249 227 80 
257 8 275 76 171 178 19 134 20 200 
258 11 201 119 128 13 96 50 180 230 70 4 87 
259 5 71 169 29 253 27 
260 10 10 136 191 73 28 22 15 2 129 272 
261 11 142 262 217 241 181 210 111 5 17 204 33 
262 11 142 261 217 17 210 33 150 197 122 54 133 
263 11 238 130 165 247 54 197 127 33 113 150 17 
264 10 180 230 13 201 96 220 223 258 70 128 
265 8 151 157 177 228 41 156 138 168 
266 11 218 144 137 255 49 25 231 280 163 143 198 
267 9 82 276 274 269 18 78 124 227 245 
268 5 174 226 27 29 48 
269 9 276 18 267 124 64 82 164 222 274 
270 10 189 99 21 199 126 271 93 149 170 23 
271 5 199 270 189 99 21 
272 10 15 164 222 129 136 124 18 2 193 245 
273 10 100 23 79 149 99 35 20 134 88 170 
274 10 227 80 245 82 18 267 124 78 94 117 
275 7 76 257 171 178 19 134 200 
276 5 269 267 82 64 18 
277 6 147 179 88 102 19 134 
278 11 248 14 60 7 175 38 283 244 143 188 6 
279 8 167 194 90 148 26 216 78 234 
280 11 187 182 214 61 266 218 12 39 144 24 48 
281 8 240 249 110 90 234 146 16 30 
282 11 4 34 159 211 120 119 202 62 87 45 105 
283 9 175 206 183 158 246 242 14 188 190 
DEPOT_SECTION
   1
   -1
EOF
