NAME :  X-n401-kX-w40-c9.cctp
COMMENT : 	Adapted by Maziero, Usberti and Cavellucci from the Uchoa, Pecin, Pessoa, Poggi, Subramanian, and Vidal (2013)
TYPE :  CCTP
DIMENSION :    257
EDGE_WEIGHT_TYPE : 	EUC_2D	
CAPACITY : 	745
VERTICES_WITHIN_COVERAGE :  9
VERTICES_WITH_DEMAND : 	40
NODE_COORD_SECTION
1 0 0
2 645 7
3 720 867
4 513 499
5 208 766
6 976 884
7 991 864
8 696 804
9 655 676
10 840 976
11 718 867
12 456 818
13 901 808
14 380 423
15 668 533
16 939 794
17 311 824
18 906 961
19 899 692
20 227 898
21 646 431
22 886 633
23 468 400
24 867 887
25 720 871
26 585 832
27 746 892
28 990 681
29 333 883
30 675 773
31 145 637
32 939 680
33 852 885
34 520 96
35 603 554
36 677 836
37 214 793
38 480 576
39 986 924
40 392 482
41 872 974
42 644 517
43 888 795
44 622 5
45 999 958
46 415 509
47 910 946
48 150 945
49 719 760
50 420 387
51 720 832
52 714 926
53 697 759
54 192 793
55 645 19
56 839 680
57 468 397
58 299 814
59 989 846
60 971 861
61 448 338
62 194 768
63 963 616
64 627 445
65 504 497
66 849 606
67 766 919
68 492 399
69 971 877
70 58 537
71 938 801
72 693 551
73 816 941
74 690 852
75 931 944
76 580 108
77 630 3
78 603 891
79 724 324
80 278 823
81 589 379
82 692 610
83 738 668
84 412 458
85 770 940
86 930 978
87 854 942
88 909 831
89 587 581
90 222 800
91 978 848
92 455 622
93 696 876
94 503 468
95 492 16
96 446 402
97 500 144
98 469 435
99 171 802
100 516 491
101 598 690
102 567 576
103 530 102
104 496 518
105 210 827
106 226 781
107 722 772
108 655 831
109 639 360
110 880 871
111 717 794
112 786 907
113 505 383
114 705 778
115 536 495
116 923 981
117 165 445
118 481 45
119 206 793
120 989 973
121 976 919
122 949 912
123 204 768
124 652 8
125 636 854
126 632 5
127 894 901
128 883 814
129 876 903
130 865 852
131 514 380
132 343 924
133 721 920
134 490 458
135 534 592
136 259 778
137 474 652
138 193 899
139 284 335
140 967 750
141 485 462
142 644 779
143 611 509
144 564 75
145 364 519
146 517 18
147 998 838
148 928 822
149 601 533
150 923 783
151 726 914
152 866 934
153 949 878
154 72 589
155 541 524
156 543 471
157 640 38
158 440 626
159 178 630
160 721 822
161 528 881
162 653 366
163 981 905
164 793 937
165 212 772
166 896 799
167 233 776
168 902 891
169 45 654
170 868 917
171 233 943
172 408 600
173 509 590
174 843 915
175 579 103
176 659 857
177 996 850
178 706 671
179 190 756
180 163 677
181 734 882
182 403 754
183 747 889
184 851 992
185 157 888
186 964 968
187 550 923
188 320 759
189 881 806
190 333 404
191 990 838
192 171 759
193 296 835
194 197 879
195 784 970
196 546 65
197 870 661
198 508 521
199 669 386
200 845 859
201 860 854
202 196 769
203 245 941
204 411 529
205 535 56
206 327 947
207 514 578
208 894 933
209 909 814
210 938 972
211 435 803
212 730 857
213 861 742
214 251 785
215 497 40
216 969 748
217 990 860
218 701 863
219 221 735
220 912 928
221 475 554
222 646 31
223 991 886
224 735 812
225 707 889
226 333 824
227 824 954
228 197 855
229 487 514
230 570 729
231 653 40
232 563 493
233 216 737
234 689 858
235 688 876
236 883 783
237 334 767
238 847 890
239 886 743
240 995 751
241 660 593
242 124 687
243 950 824
244 825 869
245 664 408
246 222 837
247 930 938
248 313 960
249 819 911
250 906 880
251 180 749
252 914 961
253 357 506
254 649 780
255 975 865
256 687 737
257 541 495
DEMAND_SECTION
2 42
3 56
4 29
5 28
6 66
7 92
8 99
9 97
10 75
11 52
12 13
13 67
14 69
15 60
16 77
17 26
18 97
19 74
20 26
21 28
22 60
23 74
24 87
25 95
26 59
27 56
28 64
29 42
30 68
31 15
32 59
33 62
34 29
35 66
36 63
37 24
38 9
39 73
40 60
41 100
COVERAGE_SECTION
2 8 124 55 126 77 44 222 157 231 
3 8 11 25 212 218 181 93 225 234 
4 9 65 100 115 198 104 257 229 94 155 
5 9 123 165 202 62 179 106 119 167 37 
6 8 69 223 255 163 60 7 153 217 
7 9 217 177 255 59 60 91 223 69 6 
8 9 111 114 160 30 36 51 224 107 53 
9 9 178 101 256 82 83 241 53 30 230 
10 9 184 227 41 87 73 152 195 164 174 
11 8 3 25 212 218 181 93 225 234 
12 8 211 182 161 226 26 237 29 187 
13 9 166 209 43 128 189 88 148 236 150 
14 9 84 190 50 40 96 253 98 23 57 
15 9 42 72 241 143 149 35 82 89 64 
16 7 71 150 148 243 209 13 166 
17 9 58 193 226 80 237 29 188 136 214 
18 9 252 47 116 86 75 208 247 210 220 
19 9 32 197 239 22 56 213 140 216 28 
20 7 138 194 171 203 228 246 185 
21 8 64 245 199 162 109 81 143 42 
22 9 197 66 19 56 32 63 239 213 28 
23 9 57 96 68 98 113 50 131 134 141 
24 9 33 129 238 110 127 170 201 130 168 
25 9 3 11 212 181 218 225 93 183 235 
26 6 125 78 108 161 176 142 
27 9 183 181 151 25 67 3 11 133 212 
28 8 32 63 216 240 140 19 22 239 
29 9 132 226 193 17 206 58 248 80 203 
30 9 53 254 114 142 8 256 49 107 111 
31 3 159 180 242 
32 9 19 28 63 22 197 216 140 239 240 
33 9 238 24 200 129 110 174 244 201 130 
34 9 103 196 205 144 97 175 76 215 118 
35 5 149 89 102 143 42 
36 7 74 108 234 176 218 8 235 
37 9 119 90 106 165 54 167 123 5 202 
38 6 221 173 207 92 135 104 
39 9 121 163 45 223 122 6 69 120 186 
40 6 84 46 253 145 204 14 
41 9 184 10 18 87 152 252 47 208 116 
42 7 15 143 149 35 72 64 241 
43 8 166 189 236 13 128 209 150 88 
44 8 77 126 2 55 124 222 157 231 
45 9 120 39 186 121 163 210 122 75 86 
46 3 204 40 84 
47 7 18 252 220 75 208 247 116 
48 7 185 138 194 171 20 203 228 
49 7 107 53 114 111 256 30 8 
50 9 96 57 23 14 61 98 84 68 113 
51 8 160 224 212 3 11 74 218 8 
52 6 133 151 225 27 181 183 
53 8 114 49 256 30 107 111 8 254 
54 9 119 37 99 202 62 123 165 5 90 
55 8 2 222 124 126 157 77 231 44 
56 6 197 19 22 213 66 239 
57 9 23 96 68 98 113 50 131 61 134 
58 8 17 193 80 226 136 214 188 237 
59 7 177 191 91 147 217 7 60 
60 6 255 91 69 217 7 59 
61 9 50 57 96 23 113 68 131 98 14 
62 9 202 123 179 5 165 251 54 192 119 
63 9 32 28 22 19 197 66 216 140 240 
64 8 21 245 143 199 42 81 232 162 
65 8 4 100 104 198 229 94 115 257 
66 7 22 197 56 19 63 32 83 
67 8 85 112 164 27 183 151 133 181 
68 9 113 23 57 131 98 96 134 141 94 
69 6 6 255 60 153 223 7 
70 7 154 169 31 117 159 242 180 
71 6 16 148 150 243 209 13 
72 9 15 241 82 42 35 143 149 89 178 
73 9 227 164 249 174 87 10 195 112 85 
74 8 234 218 36 235 93 176 11 3 
75 7 247 47 252 220 210 18 86 
76 5 175 144 103 196 34 
77 8 126 44 2 55 124 222 157 231 
78 3 125 26 187 
79 6 162 199 109 245 21 81 
80 8 193 58 17 214 136 226 246 90 
81 6 109 162 131 64 21 199 
82 9 241 72 178 83 9 15 35 42 89 
83 5 178 82 9 256 49 
84 6 40 14 46 98 96 50 
85 9 67 164 195 112 73 151 133 27 183 
86 9 116 210 252 18 75 186 47 247 220 
87 9 152 170 174 227 10 41 73 208 129 
88 6 209 148 13 128 166 189 
89 5 102 35 149 135 155 
90 8 37 119 106 167 105 165 54 214 
91 7 59 60 191 217 255 177 7 
92 7 158 137 38 172 173 221 207 
93 7 235 218 225 234 11 25 74 
94 8 134 141 100 65 4 156 115 98 
95 8 146 215 118 205 196 34 144 103 
96 9 23 57 50 98 68 113 61 84 14 
97 8 34 103 76 175 196 144 205 118 
98 8 134 141 23 57 96 68 94 84 
99 6 54 119 62 202 192 37 
100 9 4 65 115 257 94 198 104 156 229 
101 9 230 9 142 256 254 89 178 30 241 
102 5 89 135 35 207 149 
103 7 34 196 144 205 175 76 97 
104 5 229 198 65 4 100 
105 7 246 90 228 37 119 54 99 
106 8 167 37 165 90 5 119 214 123 
107 7 49 114 111 53 8 224 30 
108 6 36 176 125 74 234 8 
109 6 162 199 81 245 21 64 
110 8 24 130 201 250 168 33 129 127 
111 8 114 8 107 224 160 49 51 53 
112 7 67 164 249 85 27 183 73 
113 8 131 68 57 23 96 98 61 134 
114 8 107 111 53 49 8 30 224 256 
115 8 257 100 4 156 232 155 65 198 
116 9 86 210 252 18 47 75 186 247 41 
117 7 70 139 154 190 159 31 253 
118 8 215 95 146 205 34 196 103 144 
119 9 37 54 90 165 106 123 202 5 62 
120 9 45 186 39 210 121 86 75 116 163 
121 8 39 163 122 6 223 69 45 153 
122 6 121 247 163 153 75 6 
123 9 5 202 165 62 179 119 106 37 54 
124 8 2 55 126 77 222 44 157 231 
125 4 176 108 36 78 
126 8 77 44 2 55 124 222 157 231 
127 8 168 129 250 24 170 208 220 110 
128 7 189 13 43 166 209 88 236 
129 9 170 24 127 168 33 110 238 152 174 
130 6 201 200 110 24 33 128 
131 7 113 68 57 23 96 98 81 
132 9 206 29 248 203 226 193 17 171 58 
133 6 151 52 225 27 181 183 
134 7 141 94 98 65 100 4 156 
135 5 207 173 102 89 38 
136 5 214 167 106 90 37 
137 8 92 158 173 38 172 207 135 221 
138 7 194 20 185 228 171 48 203 
139 9 190 14 50 117 61 96 84 40 253 
140 6 216 240 16 150 71 28 
141 7 134 94 98 65 100 4 229 
142 9 254 30 108 53 8 256 114 36 111 
143 6 149 42 35 232 15 64 
144 6 196 175 205 76 103 34 
145 5 253 40 204 46 84 
146 7 95 215 205 118 196 144 34 
147 6 191 59 177 91 217 7 
148 6 88 209 243 71 13 16 
149 6 35 143 42 89 102 232 
150 8 16 71 166 13 209 43 148 236 
151 8 133 52 27 225 181 183 67 25 
152 9 87 170 208 174 129 41 127 47 220 
153 3 69 6 60 
154 6 70 169 31 242 159 180 
155 4 115 257 198 4 
156 7 257 115 232 100 94 4 65 
157 6 222 231 55 2 124 126 
158 7 92 172 137 38 173 221 207 
159 3 31 180 242 
160 8 51 224 111 8 212 74 3 11 
161 4 187 26 78 12 
162 7 109 199 245 21 81 79 64 
163 9 121 39 223 6 69 122 255 7 153 
164 9 73 85 112 67 195 227 249 174 10 
165 9 5 123 202 106 62 37 167 119 179 
166 9 43 13 189 128 209 236 150 88 148 
167 6 106 214 165 37 90 136 
168 6 250 127 129 110 24 220 
169 5 154 242 31 70 180 
170 9 129 152 174 87 24 127 208 238 33 
171 9 203 20 138 194 248 48 185 206 228 
172 6 158 92 204 38 221 137 
173 5 207 135 38 221 102 
174 9 249 170 238 87 152 33 129 24 73 
175 5 76 144 103 196 34 
176 5 125 108 36 234 74 
177 7 59 147 217 191 7 91 255 
178 6 83 9 82 256 53 49 
179 8 251 62 202 123 192 5 165 233 
180 3 242 31 159 
181 9 183 27 25 3 11 212 225 151 93 
182 6 211 237 12 188 226 17 
183 9 27 181 25 151 3 11 67 212 133 
184 9 10 41 227 87 152 73 18 252 195 
185 6 138 194 228 48 20 105 
186 9 120 210 86 45 75 116 247 39 121 
187 3 161 78 26 
188 5 237 58 136 17 226 
189 7 128 43 166 13 236 209 88 
190 9 14 139 50 84 40 253 96 145 46 
191 6 59 147 177 91 217 7 
192 6 251 179 62 202 123 5 
193 9 17 58 80 226 29 214 136 246 237 
194 7 138 228 20 185 246 105 171 
195 9 85 164 73 227 67 10 112 249 184 
196 7 205 144 34 103 175 76 146 
197 7 22 56 19 66 32 213 239 
198 7 104 229 4 65 100 155 115 
199 7 245 162 109 21 64 81 79 
200 6 201 130 244 33 238 24 
201 6 130 200 110 33 24 238 
202 9 62 123 5 179 165 54 119 251 192 
203 9 171 20 138 248 194 206 48 228 132 
204 4 46 145 40 253 
205 7 196 144 215 146 34 103 118 
206 9 248 132 29 203 171 20 193 226 17 
207 5 173 135 38 221 102 
208 8 220 47 152 18 170 127 252 129 
209 8 13 88 166 148 128 43 189 71 
210 9 86 116 186 252 75 18 247 47 120 
211 8 12 182 226 237 161 188 17 29 
212 8 3 11 25 181 51 218 160 183 
213 6 239 236 43 19 56 166 
214 5 136 167 106 90 37 
215 8 118 95 146 205 196 34 103 144 
216 6 140 240 16 150 71 28 
217 8 7 177 59 255 91 60 191 147 
218 8 234 93 74 11 235 3 25 225 
219 4 233 5 123 179 
220 7 47 208 247 75 127 252 18 
221 5 38 104 229 207 198 
222 7 157 231 55 2 124 126 77 
223 8 6 163 7 69 217 255 60 121 
224 6 160 51 111 8 107 114 
225 7 93 25 235 11 3 218 181 
226 9 17 58 193 80 237 29 188 136 214 
227 9 73 10 87 164 174 195 249 152 184 
228 7 194 105 246 138 20 185 99 
229 4 104 198 65 4 
230 9 101 142 254 9 26 30 256 137 53 
231 5 222 157 55 124 2 
232 7 257 115 156 155 100 4 143 
233 6 219 5 179 123 165 62 
234 7 74 218 235 93 36 11 176 
235 6 93 218 234 225 74 11 
236 8 43 166 189 13 128 150 209 239 
237 6 188 226 58 17 182 136 
238 9 33 24 174 244 200 129 170 249 110 
239 8 213 236 43 19 150 166 189 13 
240 5 216 140 28 16 71 
241 9 82 72 15 35 89 42 9 149 178 
242 2 180 31 
243 3 148 71 16 
244 4 200 238 33 201 
245 8 199 21 162 64 109 81 79 42 
246 7 105 228 90 37 119 194 54 
247 7 75 220 47 252 122 18 210 
248 9 206 132 203 29 171 20 193 138 17 
249 9 174 73 112 238 164 33 244 227 87 
250 5 168 127 110 129 24 
251 6 179 192 62 202 123 5 
252 9 18 47 116 86 75 210 247 220 208 
253 6 145 40 46 204 84 14 
254 9 142 30 108 53 8 114 256 36 111 
255 6 60 69 7 217 91 6 
256 9 53 30 49 114 107 254 142 111 8 
257 8 115 232 156 100 4 155 65 198 
DEPOT_SECTION
   1
   -1
EOF
