NAME :  X-n420-kX-w167-c9.cctp
COMMENT : 	Adapted by Maziero, Usberti and Cavellucci from the Uchoa, Pecin, Pessoa, Poggi, Subramanian, and Vidal (2013)
TYPE :  CCTP
DIMENSION :    359
EDGE_WEIGHT_TYPE : 	EUC_2D	
CAPACITY : 	18
VERTICES_WITHIN_COVERAGE :  9
VERTICES_WITH_DEMAND : 	167
NODE_COORD_SECTION
1 500 500
2 707 633
3 405 122
4 811 419
5 11 667
6 336 612
7 366 50
8 98 836
9 414 996
10 243 713
11 100 232
12 891 946
13 132 204
14 25 642
15 994 18
16 636 897
17 214 651
18 108 619
19 882 399
20 863 607
21 409 585
22 247 882
23 553 507
24 677 258
25 673 644
26 25 182
27 251 111
28 263 799
29 660 359
30 351 288
31 172 127
32 382 441
33 231 650
34 966 485
35 964 107
36 876 164
37 949 328
38 936 70
39 229 744
40 161 214
41 581 594
42 154 860
43 23 374
44 736 600
45 594 542
46 846 684
47 355 471
48 675 597
49 663 653
50 61 889
51 685 150
52 129 248
53 161 301
54 180 836
55 427 670
56 833 860
57 669 251
58 411 403
59 450 926
60 591 505
61 468 157
62 288 484
63 574 955
64 795 521
65 41 65
66 175 486
67 74 436
68 907 13
69 579 912
70 765 835
71 176 189
72 972 351
73 470 22
74 577 469
75 561 672
76 110 670
77 811 614
78 460 344
79 862 486
80 22 369
81 898 295
82 89 934
83 164 871
84 487 617
85 731 565
86 470 722
87 509 209
88 860 845
89 515 312
90 434 712
91 388 521
92 573 250
93 155 316
94 143 923
95 247 971
96 641 297
97 763 749
98 585 887
99 987 361
100 153 215
101 150 669
102 76 153
103 456 635
104 778 497
105 334 529
106 764 789
107 963 378
108 262 404
109 32 672
110 118 874
111 764 315
112 931 462
113 168 831
114 443 2
115 571 812
116 185 964
117 368 628
118 366 788
119 48 374
120 8 464
121 459 77
122 345 357
123 315 149
124 458 286
125 974 86
126 167 854
127 441 425
128 172 20
129 646 948
130 444 937
131 950 129
132 866 18
133 915 849
134 119 279
135 319 332
136 832 902
137 421 365
138 963 71
139 478 741
140 443 54
141 509 966
142 70 520
143 311 207
144 648 127
145 726 506
146 371 345
147 154 221
148 475 537
149 322 738
150 118 284
151 297 415
152 530 967
153 752 797
154 394 589
155 482 59
156 497 863
157 171 716
158 610 528
159 405 568
160 638 940
161 940 914
162 4 886
163 215 994
164 294 675
165 121 701
166 143 460
167 14 530
168 383 815
169 982 781
170 424 566
171 358 11
172 902 869
173 490 744
174 567 535
175 424 613
176 820 574
177 125 213
178 164 351
179 605 589
180 844 145
181 978 462
182 503 582
183 673 603
184 643 721
185 831 659
186 137 502
187 939 228
188 999 456
189 722 196
190 390 650
191 288 304
192 895 896
193 514 985
194 32 202
195 20 476
196 400 947
197 794 478
198 681 487
199 398 522
200 889 98
201 226 257
202 858 168
203 343 182
204 511 170
205 699 283
206 954 856
207 183 100
208 208 169
209 923 501
210 170 88
211 722 458
212 153 129
213 917 390
214 879 482
215 799 437
216 853 476
217 91 194
218 860 607
219 159 131
220 925 291
221 705 361
222 863 371
223 181 47
224 232 70
225 780 515
226 833 494
227 24 239
228 369 28
229 803 450
230 897 396
231 176 310
232 983 470
233 917 370
234 754 457
235 969 335
236 194 4
237 796 468
238 680 629
239 175 153
240 207 142
241 221 99
242 290 232
243 834 424
244 990 502
245 960 462
246 862 259
247 208 38
248 633 344
249 187 350
250 110 275
251 823 508
252 907 303
253 160 11
254 795 482
255 865 555
256 726 319
257 169 121
258 816 609
259 894 327
260 54 27
261 895 569
262 348 150
263 883 463
264 298 65
265 229 190
266 201 12
267 470 60
268 923 737
269 978 312
270 89 97
271 645 398
272 279 85
273 792 330
274 750 169
275 827 402
276 180 86
277 713 461
278 871 410
279 919 526
280 615 466
281 713 648
282 268 124
283 912 446
284 821 402
285 887 399
286 819 560
287 827 508
288 794 432
289 159 134
290 29 81
291 2 63
292 907 245
293 881 592
294 864 410
295 765 352
296 876 318
297 881 413
298 329 214
299 950 499
300 787 292
301 880 359
302 887 497
303 772 348
304 801 491
305 159 215
306 555 303
307 834 491
308 813 434
309 708 495
310 664 522
311 656 391
312 879 583
313 224 329
314 726 321
315 863 263
316 887 641
317 811 503
318 835 481
319 959 431
320 76 115
321 891 414
322 813 425
323 234 75
324 762 300
325 350 278
326 732 558
327 192 142
328 883 462
329 712 63
330 118 193
331 171 165
332 644 466
333 807 418
334 807 149
335 955 230
336 238 113
337 912 579
338 836 492
339 192 32
340 868 379
341 773 293
342 987 568
343 297 185
344 711 376
345 171 155
346 729 544
347 130 123
348 799 418
349 861 382
350 971 288
351 918 397
352 791 419
353 774 308
354 210 93
355 768 507
356 768 342
357 417 125
358 818 400
359 856 637
DEMAND_SECTION
2 6
3 9
4 8
5 6
6 4
7 8
8 3
9 4
10 10
11 1
12 9
13 9
14 5
15 10
16 5
17 6
18 9
19 8
20 10
21 8
22 8
23 4
24 8
25 7
26 3
27 5
28 10
29 10
30 8
31 2
32 2
33 8
34 7
35 10
36 9
37 2
38 9
39 10
40 2
41 1
42 6
43 1
44 2
45 4
46 6
47 7
48 8
49 8
50 5
51 7
52 4
53 7
54 1
55 5
56 6
57 9
58 2
59 6
60 4
61 6
62 5
63 10
64 7
65 4
66 6
67 1
68 2
69 4
70 9
71 1
72 6
73 4
74 9
75 1
76 5
77 2
78 2
79 9
80 6
81 7
82 10
83 10
84 8
85 7
86 3
87 2
88 10
89 3
90 5
91 8
92 10
93 3
94 7
95 5
96 3
97 10
98 7
99 10
100 4
101 3
102 3
103 4
104 8
105 7
106 3
107 10
108 5
109 2
110 3
111 1
112 10
113 9
114 9
115 4
116 9
117 9
118 3
119 6
120 3
121 6
122 6
123 6
124 7
125 4
126 4
127 1
128 1
129 2
130 3
131 5
132 1
133 8
134 9
135 1
136 9
137 6
138 2
139 6
140 8
141 6
142 7
143 4
144 2
145 10
146 6
147 8
148 3
149 3
150 10
151 2
152 5
153 2
154 10
155 1
156 10
157 8
158 4
159 10
160 2
161 5
162 8
163 3
164 10
165 10
166 7
167 6
168 1
COVERAGE_SECTION
2 9 281 238 25 44 183 48 49 85 326 
3 9 357 262 121 61 140 7 203 267 123 
4 9 333 322 348 308 284 352 358 288 215 
5 9 109 14 76 18 165 167 101 142 157 
6 9 117 154 190 164 21 159 105 175 170 
7 9 228 171 264 140 3 114 357 272 121 
8 9 110 42 50 113 126 83 54 82 94 
9 9 196 130 59 141 193 152 156 63 95 
10 9 39 33 164 17 157 149 28 101 165 
11 9 177 52 217 13 330 250 134 147 150 
12 9 192 161 136 172 133 56 88 206 70 
13 9 177 330 100 147 305 40 217 11 52 
14 9 5 109 18 76 165 167 101 142 157 
15 9 138 125 38 68 35 131 132 200 36 
16 9 160 98 129 69 63 115 152 70 156 
17 9 33 101 10 157 164 39 76 165 18 
18 9 76 101 165 14 109 142 5 17 157 
19 8 285 297 230 278 321 294 340 349 
20 9 218 293 312 359 316 258 261 77 255 
21 9 154 159 170 175 117 199 91 190 103 
22 9 54 83 28 126 95 113 42 116 94 
23 9 174 60 74 45 158 280 148 182 41 
24 9 57 205 96 189 256 314 324 248 29 
25 9 49 238 2 281 183 48 44 184 179 
26 9 194 227 102 217 320 11 330 290 177 
27 8 336 282 241 272 323 224 354 240 
28 9 39 22 149 10 54 113 118 126 168 
29 7 248 311 271 221 344 96 314 
30 9 325 135 146 191 122 298 242 143 137 
31 9 257 219 289 212 327 239 345 207 240 
32 9 47 58 127 91 199 137 151 122 146 
33 9 17 10 164 101 157 39 6 165 76 
34 9 299 232 245 181 244 112 188 209 319 
35 9 125 131 138 38 200 15 36 68 202 
36 7 202 180 200 334 131 292 187 
37 9 235 72 269 220 350 252 99 107 233 
38 9 138 125 35 200 131 68 15 132 36 
39 9 10 157 28 149 17 33 164 54 113 
40 9 305 100 147 71 13 177 52 330 331 
41 9 179 45 174 158 182 75 60 23 183 
42 9 126 83 113 54 110 8 94 22 50 
43 9 80 119 67 120 195 150 250 134 227 
44 9 85 326 2 281 346 48 183 238 77 
45 9 158 174 60 179 23 41 310 74 280 
46 9 185 359 316 77 218 20 258 268 293 
47 9 32 91 105 199 62 151 58 127 159 
48 9 183 238 25 2 49 44 85 281 326 
49 9 25 238 2 281 183 48 184 179 44 
50 9 82 162 110 8 94 42 83 126 113 
51 8 144 189 274 329 57 24 334 205 
52 9 11 134 250 177 147 150 100 13 305 
53 9 93 231 150 134 178 249 250 52 313 
54 9 113 126 42 83 110 22 8 28 94 
55 9 190 90 103 175 86 117 84 21 139 
56 9 88 136 172 70 192 133 106 153 12 
57 9 24 205 96 189 256 314 92 248 51 
58 9 127 137 32 146 78 122 47 151 135 
59 9 130 196 141 9 156 193 152 63 69 
60 9 158 45 23 174 74 280 332 310 179 
61 9 204 357 87 3 121 267 155 140 262 
62 9 105 47 151 108 32 91 66 199 6 
63 9 69 152 141 160 193 98 129 16 156 
64 9 225 317 104 355 251 304 287 254 197 
65 9 290 291 260 270 320 102 347 26 212 
66 9 166 186 142 62 67 108 178 249 151 
67 9 119 195 120 166 43 142 80 186 167 
68 9 132 38 138 15 200 125 35 131 180 
69 9 98 63 16 160 152 129 141 156 193 
70 9 153 106 56 97 136 88 172 16 192 
71 9 331 40 305 345 100 239 208 147 13 
72 9 235 99 107 37 269 233 350 213 351 
73 9 114 267 155 140 121 228 7 171 357 
74 9 280 60 23 174 332 158 45 271 310 
75 9 41 84 179 184 173 49 86 182 139 
76 9 165 101 18 157 109 14 5 17 33 
77 9 258 176 185 218 359 20 286 293 312 
78 9 137 124 89 58 127 146 306 122 30 
79 9 216 214 302 318 338 307 226 263 328 
80 9 43 119 67 120 195 150 250 227 134 
81 8 252 220 259 296 315 246 292 37 
82 9 50 94 110 8 42 83 162 116 126 
83 9 42 126 54 113 110 94 8 22 116 
84 9 103 182 175 55 148 170 21 75 159 
85 9 326 346 44 145 48 183 355 225 2 
86 9 139 173 90 55 103 75 84 190 175 
87 9 204 61 92 124 89 306 357 3 121 
88 9 56 172 133 192 136 206 70 12 161 
89 9 306 124 78 92 87 137 248 96 127 
90 9 86 55 139 173 190 103 175 118 117 
91 9 199 159 105 170 47 21 154 32 148 
92 9 306 87 96 89 57 204 24 248 124 
93 9 53 231 178 249 150 134 250 313 52 
94 9 82 110 83 116 42 126 50 54 113 
95 9 163 116 22 94 83 126 42 54 196 
96 9 248 24 57 205 29 92 306 256 314 
97 9 106 153 70 46 185 281 184 2 56 
98 9 69 16 63 160 115 129 156 152 141 
99 8 72 107 235 37 269 233 319 350 
100 9 147 305 40 13 177 71 52 330 331 
101 9 76 165 157 18 17 33 10 39 109 
102 9 320 217 270 330 26 347 194 13 177 
103 9 84 175 55 190 21 182 170 154 90 
104 9 355 225 254 304 197 64 237 317 251 
105 9 91 47 62 199 159 6 154 21 170 
106 9 153 97 70 56 88 136 46 184 185 
107 8 72 99 235 233 213 351 37 319 
108 9 151 62 313 135 249 122 191 178 47 
109 9 5 14 76 18 165 101 167 157 142 
110 9 42 8 83 126 94 50 113 82 54 
111 8 353 324 341 356 273 300 303 295 
112 7 283 245 209 34 299 319 181 
113 9 54 126 42 83 110 8 22 94 28 
114 9 73 140 267 155 121 228 171 7 3 
115 9 98 156 69 173 16 184 139 86 75 
116 9 163 94 95 83 82 22 42 126 110 
117 9 190 6 154 175 21 159 55 170 103 
118 9 168 149 90 28 139 86 173 55 164 
119 9 43 80 67 120 195 150 250 178 134 
120 9 195 167 67 142 43 80 119 186 166 
121 9 267 140 155 73 357 3 114 61 7 
122 9 146 135 30 151 137 191 325 58 32 
123 9 262 343 203 282 143 298 272 27 336 
124 9 78 89 137 87 306 146 30 325 92 
125 9 138 35 38 131 15 200 68 36 132 
126 9 42 83 54 113 110 8 94 22 28 
127 9 58 32 137 78 47 146 199 91 148 
128 8 253 339 236 223 266 247 276 210 
129 9 160 16 63 69 98 152 193 141 115 
130 9 59 196 9 141 193 152 156 63 168 
131 9 35 125 138 38 200 36 187 202 335 
132 9 68 200 38 138 15 125 180 35 131 
133 9 172 206 192 88 161 56 169 136 12 
134 9 150 250 52 53 11 93 231 177 147 
135 9 122 191 30 146 325 151 108 313 242 
136 9 56 192 88 12 172 70 133 161 206 
137 9 58 78 146 127 122 32 124 30 135 
138 9 125 38 35 131 15 200 68 132 36 
139 9 173 86 90 55 75 103 115 168 118 
140 9 121 267 155 73 114 357 7 3 228 
141 9 193 152 63 59 130 69 9 156 98 
142 9 167 195 186 67 120 166 18 66 14 
143 9 298 343 242 203 123 262 325 265 30 
144 9 51 329 189 274 57 24 92 204 87 
145 9 309 346 355 277 211 198 326 104 225 
146 9 122 135 137 30 58 325 78 191 32 
147 9 100 305 40 13 177 52 71 330 11 
148 9 182 170 159 199 84 21 23 91 174 
149 9 118 164 10 28 39 168 190 90 117 
150 9 134 250 52 53 93 11 231 177 147 
151 9 108 62 122 47 135 32 146 191 313 
152 9 141 193 63 69 59 130 98 156 160 
153 9 106 70 97 56 88 136 184 46 16 
154 9 21 159 170 175 117 190 6 199 91 
155 9 267 121 73 140 114 357 3 61 204 
156 9 59 115 98 130 69 141 152 173 63 
157 9 101 165 39 10 76 17 33 113 18 
158 9 45 60 174 310 23 179 280 74 332 
159 9 21 170 154 199 175 91 117 148 105 
160 9 129 16 69 63 98 152 141 193 115 
161 9 192 12 172 206 133 88 136 56 169 
162 9 50 82 8 110 94 42 83 126 113 
163 9 95 116 94 22 83 82 42 126 110 
164 9 10 33 149 6 17 117 39 190 28 
165 9 76 101 157 18 109 17 14 5 39 
166 9 66 186 67 142 178 249 195 119 108 
167 9 195 142 120 67 14 186 18 5 109 
168 9 118 149 90 139 28 156 86 173 59 
169 8 268 206 133 172 88 161 192 46 
170 9 159 21 154 175 199 91 148 103 84 
171 7 228 7 264 114 140 272 73 
172 9 133 192 88 206 161 56 136 12 169 
173 9 139 86 90 55 75 115 103 156 84 
174 9 45 23 60 158 41 179 74 182 280 
175 9 21 154 103 170 159 190 55 117 84 
176 9 286 258 77 255 218 20 64 312 293 
177 9 13 330 100 147 11 305 52 40 217 
178 9 249 93 231 53 313 150 134 250 52 
179 9 41 45 158 174 183 48 60 238 49 
180 7 202 36 334 200 274 131 246 
181 9 232 245 188 34 319 244 299 112 209 
182 9 84 148 103 41 174 170 175 23 21 
183 9 48 238 25 2 49 281 44 85 179 
184 9 49 25 75 238 281 2 115 183 97 
185 9 46 359 77 258 316 218 20 293 176 
186 9 66 166 142 67 195 18 167 120 62 
187 9 335 292 220 350 81 252 246 315 36 
188 8 232 181 245 34 244 319 299 112 
189 7 274 51 57 24 205 334 144 
190 9 117 55 175 154 6 21 103 90 159 
191 9 135 30 325 313 242 122 201 146 298 
192 9 172 161 12 133 88 136 206 56 70 
193 9 141 152 63 130 59 69 9 196 98 
194 9 26 227 217 102 11 330 177 320 13 
195 9 120 167 67 142 43 119 80 186 166 
196 9 130 9 59 141 193 156 152 168 95 
197 9 254 237 304 104 229 317 355 225 215 
198 8 309 310 277 332 145 211 280 346 
199 9 91 159 170 21 105 47 154 148 32 
200 9 38 180 36 131 35 202 138 132 125 
201 9 265 242 313 231 40 53 191 305 147 
202 7 36 180 334 200 246 292 315 
203 9 262 298 143 123 343 242 3 357 282 
204 9 87 61 92 357 121 155 3 267 124 
205 9 24 57 256 314 96 324 111 341 221 
206 9 133 172 161 192 169 88 12 56 268 
207 8 276 210 257 354 31 241 219 212 
208 9 240 265 327 239 331 71 345 31 289 
209 9 279 299 302 112 34 214 245 263 283 
210 8 276 207 257 31 354 223 212 219 
211 5 277 234 309 145 198 
212 9 219 289 257 31 347 345 239 331 327 
213 8 351 233 230 285 321 19 297 107 
214 5 79 302 263 328 216 
215 8 288 229 308 322 348 352 333 4 
216 8 79 318 338 307 214 226 263 328 
217 9 330 11 177 13 102 194 100 52 26 
218 9 20 293 359 312 316 258 77 176 255 
219 9 289 212 31 257 239 345 347 327 331 
220 9 252 81 37 350 259 292 296 269 235 
221 5 344 29 314 256 311 
222 4 340 349 301 19 
223 8 339 128 247 276 266 210 253 236 
224 6 323 241 354 247 336 27 
225 9 355 64 104 304 317 254 197 251 287 
226 9 307 338 318 287 251 317 216 79 304 
227 9 194 26 11 217 250 102 134 150 177 
228 8 171 7 114 140 264 3 73 121 
229 9 215 237 308 288 322 197 4 333 348 
230 9 285 19 321 213 351 297 278 233 340 
231 9 53 93 249 178 313 150 134 201 250 
232 9 181 188 34 245 244 299 319 112 209 
233 8 213 351 230 301 285 19 107 259 
234 7 211 277 237 197 104 288 254 
235 9 72 37 269 99 107 350 220 233 252 
236 7 266 128 339 253 247 223 224 
237 9 197 254 229 304 215 104 288 308 317 
238 9 25 2 183 49 48 281 44 85 179 
239 9 345 331 327 289 31 219 212 257 240 
240 9 327 208 239 31 345 336 257 331 241 
241 8 354 336 323 224 27 207 276 240 
242 9 143 298 343 201 191 203 265 325 30 
243 4 322 275 308 4 
244 9 34 232 299 181 188 245 342 209 112 
245 9 181 34 232 112 319 299 188 244 283 
246 3 315 292 81 
247 7 339 266 223 236 128 224 323 
248 8 29 96 311 271 221 344 306 205 
249 9 178 231 313 93 53 108 150 134 201 
250 9 134 150 52 11 53 93 177 147 13 
251 9 287 317 226 307 338 304 318 64 254 
252 8 81 220 259 296 37 292 315 301 
253 8 128 236 339 266 223 247 210 276 
254 9 197 304 237 104 317 229 225 355 251 
255 9 312 261 293 286 176 20 218 337 287 
256 9 314 111 324 205 221 356 353 295 303 
257 9 31 219 289 212 207 327 210 239 345 
258 9 77 176 218 20 286 359 185 293 312 
259 6 296 252 81 301 220 233 
260 9 65 290 291 270 320 253 128 347 102 
261 7 337 312 293 255 279 20 218 
262 9 203 123 343 3 298 143 357 282 272 
263 4 328 214 79 216 
264 6 272 323 27 224 282 7 
265 9 208 71 240 327 331 239 201 343 345 
266 7 236 339 247 128 223 253 224 
267 9 155 121 140 73 114 357 3 61 7 
268 8 169 46 316 133 359 185 206 88 
269 9 235 350 37 72 99 220 107 252 81 
270 9 320 347 102 65 290 212 219 260 289 
271 7 311 29 248 332 221 344 280 
272 7 264 27 282 323 224 336 241 
273 4 303 356 353 111 
274 7 189 334 51 180 202 144 329 
275 3 284 358 4 
276 8 210 207 354 257 223 31 241 219 
277 5 211 309 198 234 145 
278 5 294 297 19 285 321 
279 8 209 299 302 261 337 214 255 34 
280 9 332 74 60 158 198 23 271 310 45 
281 9 2 238 25 49 44 183 48 85 326 
282 9 27 336 272 123 241 323 240 224 264 
283 4 112 328 263 321 
284 4 358 275 4 333 
285 9 19 230 297 321 278 294 340 213 349 
286 9 176 64 255 258 251 287 77 317 225 
287 9 251 226 317 307 338 318 304 64 79 
288 8 215 352 348 308 333 229 322 4 
289 9 219 212 31 257 345 239 347 331 327 
290 9 65 291 320 260 270 102 26 347 194 
291 9 290 65 260 320 270 102 26 347 194 
292 9 187 246 315 220 335 81 252 350 296 
293 9 312 20 218 261 337 255 316 359 176 
294 4 278 297 19 285 
295 4 303 356 273 111 
296 4 259 81 252 301 
297 6 278 321 19 285 294 230 
298 9 143 203 242 343 123 262 325 30 191 
299 9 34 209 245 244 279 112 232 181 302 
300 5 341 353 324 111 273 
301 6 222 340 349 259 233 19 
302 8 214 79 263 328 209 216 279 338 
303 4 356 295 273 111 
304 9 254 197 317 104 237 251 64 287 225 
305 9 40 100 147 13 71 177 52 330 331 
306 9 89 92 96 248 124 78 87 29 57 
307 9 338 226 318 287 251 216 317 79 304 
308 8 322 215 4 333 229 288 348 243 
309 8 145 198 277 211 310 346 234 355 
310 9 198 309 158 332 145 346 45 280 60 
311 6 271 29 248 221 344 332 
312 9 293 261 20 218 255 337 316 359 176 
313 9 249 231 178 53 191 93 201 108 135 
314 9 256 111 324 221 205 356 295 353 303 
315 3 246 81 292 
316 8 359 20 218 293 46 185 312 337 
317 9 251 304 287 64 226 254 307 338 197 
318 8 307 338 226 216 79 287 251 317 
319 8 245 181 112 232 188 283 107 351 
320 9 270 102 347 290 65 212 217 26 219 
321 6 297 285 19 230 278 294 
322 9 4 308 333 348 215 288 243 352 284 
323 7 224 241 354 336 27 247 272 
324 9 341 353 111 300 256 273 314 356 303 
325 9 30 135 191 298 146 242 122 143 203 
326 9 85 346 44 145 355 225 309 48 64 
327 9 240 239 31 345 208 257 331 289 219 
328 4 263 214 79 216 
329 8 51 144 274 334 189 180 132 200 
330 9 13 177 217 100 11 147 305 40 52 
331 9 345 239 71 327 289 219 208 31 212 
332 8 280 198 310 60 74 271 277 309 
333 9 4 348 322 352 308 288 215 284 358 
334 7 180 202 274 36 189 200 51 
335 9 187 292 350 220 269 81 252 246 37 
336 8 27 241 282 354 323 240 224 272 
337 7 261 312 293 255 279 20 218 
338 9 307 226 318 287 251 216 79 317 304 
339 8 247 223 266 128 236 253 224 276 
340 7 349 222 301 19 285 278 294 
341 5 324 300 353 111 273 
342 6 244 337 299 279 34 261 
343 9 143 123 298 203 242 262 265 282 27 
344 4 221 29 311 314 
345 9 239 331 289 327 219 31 212 71 257 
346 9 326 85 145 309 355 44 225 104 310 
347 9 212 219 289 257 31 270 345 210 239 
348 7 333 352 4 288 322 215 308 
349 6 340 222 19 294 278 301 
350 9 269 37 220 235 335 72 252 187 81 
351 7 213 230 233 285 321 19 297 
352 5 348 288 333 4 215 
353 7 111 324 341 300 273 356 303 
354 8 241 207 323 276 224 336 210 27 
355 9 104 225 64 254 304 197 145 317 237 
356 5 303 295 111 273 353 
357 9 3 61 121 262 140 267 7 155 203 
358 4 284 275 4 333 
359 9 218 20 316 185 46 258 77 293 312 
DEPOT_SECTION
   1
   -1
EOF
