NAME :  X-n411-kX-w41-c9.cctp
COMMENT : 	Adapted by Maziero, Usberti and Cavellucci from the Uchoa, Pecin, Pessoa, Poggi, Subramanian, and Vidal (2013)
TYPE :  CCTP
DIMENSION :    273
EDGE_WEIGHT_TYPE : 	EUC_2D	
CAPACITY : 	216
VERTICES_WITHIN_COVERAGE :  9
VERTICES_WITH_DEMAND : 	41
NODE_COORD_SECTION
1 175 821
2 62 495
3 662 959
4 109 216
5 156 748
6 178 957
7 120 571
8 75 480
9 44 98
10 386 1000
11 96 465
12 98 796
13 213 642
14 642 977
15 629 893
16 36 124
17 155 172
18 6 367
19 39 198
20 40 311
21 649 801
22 208 367
23 237 944
24 282 313
25 114 684
26 69 168
27 23 553
28 137 467
29 244 971
30 86 456
31 125 681
32 77 398
33 128 820
34 166 804
35 657 959
36 160 172
37 674 882
38 255 944
39 709 691
40 167 720
41 187 995
42 246 707
43 95 518
44 262 940
45 210 586
46 240 994
47 108 491
48 715 874
49 130 426
50 518 749
51 90 209
52 118 92
53 606 976
54 157 787
55 626 857
56 169 712
57 105 710
58 105 233
59 65 322
60 685 804
61 215 664
62 211 996
63 728 533
64 649 836
65 47 136
66 198 125
67 682 937
68 17 858
69 55 388
70 41 510
71 128 221
72 108 777
73 98 842
74 132 465
75 132 478
76 144 476
77 163 937
78 11 794
79 663 942
80 138 464
81 27 134
82 213 819
83 150 746
84 184 760
85 122 579
86 180 670
87 166 955
88 162 968
89 73 394
90 620 899
91 655 914
92 110 440
93 232 648
94 204 708
95 52 512
96 191 999
97 247 686
98 68 464
99 5 393
100 642 902
101 132 600
102 115 788
103 126 801
104 58 479
105 147 765
106 58 195
107 236 969
108 616 999
109 234 458
110 0 48
111 138 215
112 661 893
113 828 769
114 631 978
115 64 297
116 257 671
117 158 185
118 190 183
119 127 166
120 75 564
121 26 818
122 97 174
123 53 210
124 93 135
125 303 976
126 139 824
127 144 824
128 166 971
129 195 983
130 73 379
131 182 177
132 118 595
133 192 702
134 355 701
135 63 190
136 164 489
137 228 918
138 190 958
139 162 797
140 113 97
141 119 363
142 82 200
143 93 167
144 679 707
145 164 569
146 22 100
147 143 744
148 55 196
149 584 877
150 139 121
151 179 742
152 70 115
153 309 976
154 333 77
155 78 497
156 11 624
157 642 915
158 71 75
159 271 936
160 662 981
161 677 991
162 8 272
163 49 230
164 109 241
165 178 969
166 309 966
167 100 444
168 255 943
169 123 135
170 88 408
171 648 973
172 662 952
173 150 753
174 70 339
175 135 814
176 38 618
177 76 755
178 34 399
179 88 671
180 23 336
181 46 502
182 686 952
183 653 958
184 158 769
185 211 709
186 96 761
187 190 120
188 34 241
189 228 938
190 152 397
191 163 188
192 166 931
193 455 984
194 553 894
195 223 717
196 693 899
197 118 725
198 52 328
199 14 295
200 203 330
201 79 391
202 151 387
203 60 570
204 91 607
205 14 532
206 182 728
207 204 978
208 119 191
209 146 583
210 56 420
211 50 493
212 267 934
213 23 212
214 611 889
215 236 932
216 427 892
217 197 741
218 199 789
219 123 468
220 63 443
221 142 539
222 602 561
223 650 992
224 663 947
225 73 790
226 196 361
227 240 972
228 42 552
229 271 641
230 69 193
231 138 389
232 140 486
233 173 996
234 10 520
235 297 643
236 104 549
237 290 691
238 233 702
239 59 163
240 48 503
241 14 424
242 170 717
243 176 497
244 668 911
245 236 621
246 152 714
247 182 640
248 219 944
249 98 706
250 138 183
251 150 954
252 20 596
253 178 189
254 144 219
255 643 943
256 158 198
257 215 625
258 110 461
259 101 592
260 96 684
261 579 816
262 645 947
263 118 790
264 157 944
265 233 962
266 793 774
267 127 185
268 234 634
269 664 948
270 29 604
271 278 697
272 686 985
273 151 795
DEMAND_SECTION
2 95
3 58
4 80
5 97
6 100
7 64
8 63
9 86
10 61
11 62
12 56
13 74
14 78
15 78
16 91
17 85
18 69
19 89
20 83
21 60
22 51
23 55
24 57
25 83
26 67
27 89
28 6
29 1
30 1
31 7
32 2
33 1
34 4
35 6
36 3
37 10
38 5
39 10
40 1
41 7
42 10
COVERAGE_SECTION
2 9 211 104 155 240 181 8 95 70 98 
3 9 35 172 183 269 224 79 171 262 160 
4 9 58 51 71 164 208 111 142 254 267 
5 7 83 173 147 105 184 151 40 
6 8 87 138 165 128 88 77 264 251 
7 9 85 132 236 259 209 101 221 145 120 
8 9 98 104 155 2 11 30 211 47 240 
9 9 146 16 152 158 65 81 124 110 239 
10 7 193 153 166 125 216 159 212 
11 9 30 258 167 8 219 98 47 92 74 
12 7 102 72 263 225 103 186 33 
13 9 257 93 61 268 245 247 86 116 45 
14 9 171 114 223 160 183 35 3 262 172 
15 7 90 100 214 157 112 91 55 
16 9 81 65 9 146 152 239 26 124 158 
17 9 36 117 191 250 256 131 119 253 267 
18 8 99 180 178 69 241 198 20 130 
19 9 148 123 106 213 135 230 163 239 26 
20 7 198 59 115 180 199 174 162 
21 8 64 60 55 261 37 112 15 214 
22 8 226 200 202 190 231 141 24 109 
23 9 189 215 38 168 248 265 44 107 29 
24 3 200 22 226 
25 8 31 260 249 57 179 197 246 56 
26 9 239 135 143 230 106 122 148 142 65 
27 5 228 205 234 203 252 
28 9 80 74 76 75 219 232 258 136 47 
29 9 227 107 265 46 23 38 168 44 189 
30 9 11 167 98 258 8 220 92 104 219 
31 9 25 260 57 249 179 246 197 56 86 
32 8 89 201 170 130 69 210 178 220 
33 7 175 126 127 103 263 273 102 
34 7 139 273 54 127 175 126 184 
35 9 183 3 172 224 269 171 262 79 255 
36 9 17 117 191 131 250 253 256 118 119 
37 8 112 196 244 91 100 48 15 157 
38 9 168 44 212 23 159 215 189 265 29 
39 6 144 60 266 21 113 64 
40 9 242 56 246 206 151 5 83 133 147 
41 9 96 129 233 62 207 165 128 88 138 
42 9 238 97 195 271 185 116 94 237 61 
43 9 155 47 236 2 8 95 240 120 211 
44 9 38 168 212 159 23 215 189 29 265 
45 5 257 245 145 268 13 
46 9 227 29 107 62 265 207 129 96 23 
47 9 75 219 11 43 258 155 232 8 74 
48 4 196 37 112 244 
49 9 92 167 190 231 74 80 258 28 219 
50 7 261 21 149 194 55 64 144 
51 9 142 4 230 58 135 208 106 122 123 
52 9 140 150 169 124 158 152 9 119 187 
53 3 108 114 14 
54 5 273 139 184 34 105 
55 9 64 214 15 90 149 100 112 37 157 
56 9 242 40 246 206 133 151 94 5 83 
57 6 249 197 25 260 31 179 
58 7 164 4 71 51 111 142 254 
59 5 198 174 115 20 180 
60 5 21 64 48 37 55 
61 9 13 93 86 268 97 257 247 238 116 
62 9 207 96 129 41 46 107 227 233 265 
63 7 222 39 144 266 113 60 21 
64 9 55 21 60 37 112 15 214 100 90 
65 9 16 81 239 152 9 26 146 124 143 
66 9 187 131 118 150 36 17 253 117 191 
67 7 182 79 224 269 172 3 244 
68 5 121 78 73 225 12 
69 8 89 130 32 178 201 210 170 99 
70 5 181 240 95 211 2 
71 8 111 254 4 58 164 208 267 256 
72 4 102 263 186 12 
73 8 33 126 12 175 127 103 263 102 
74 9 28 80 219 75 76 232 258 92 47 
75 9 232 28 76 74 219 80 47 258 136 
76 9 28 232 75 80 74 219 136 258 243 
77 5 192 264 87 251 6 
78 5 121 225 68 177 12 
79 9 224 269 172 3 35 183 262 67 255 
80 9 28 74 76 75 219 232 258 136 92 
81 9 16 65 146 9 239 152 26 19 124 
82 3 218 34 139 
83 7 5 147 173 105 184 151 40 
84 8 151 217 184 5 206 218 173 83 
85 9 7 132 101 209 259 236 204 145 221 
86 9 247 133 61 13 56 94 242 185 40 
87 9 6 88 264 128 251 77 165 138 192 
88 7 128 87 165 251 6 264 138 
89 8 32 201 130 69 170 210 178 220 
90 7 15 214 100 157 91 112 55 
91 7 157 244 100 112 79 255 15 
92 9 167 258 49 11 30 219 74 80 28 
93 9 268 13 61 245 257 116 229 97 247 
94 9 185 133 195 206 238 217 56 242 40 
95 6 240 70 181 211 2 155 
96 9 41 129 233 62 207 165 128 138 88 
97 9 116 42 238 271 61 195 93 185 237 
98 9 8 104 30 220 11 2 155 211 167 
99 8 18 178 241 69 210 180 89 130 
100 7 157 15 91 112 90 244 214 
101 8 132 209 85 7 259 204 145 236 
102 4 263 72 103 12 
103 6 263 175 102 33 126 273 
104 9 2 211 8 98 181 240 155 95 70 
105 5 173 184 5 83 147 
106 9 148 135 230 123 19 142 26 239 51 
107 9 227 29 265 23 46 248 38 168 189 
108 5 53 114 14 223 171 
109 4 243 136 76 22 
110 9 146 9 158 16 81 152 65 140 52 
111 8 254 71 256 4 208 250 267 117 
112 8 37 244 100 91 157 15 196 90 
113 2 266 39 
114 8 14 171 223 53 108 183 160 35 
115 4 59 20 198 174 
116 9 97 229 271 93 42 237 238 61 268 
117 9 191 17 36 256 250 253 131 267 118 
118 8 131 253 191 36 117 256 17 250 
119 9 267 250 208 17 122 169 36 143 117 
120 8 203 236 228 259 7 204 85 43 
121 6 78 68 225 12 73 177 
122 9 143 208 26 142 119 267 230 51 135 
123 9 148 106 19 163 135 230 213 142 188 
124 9 152 169 143 122 26 140 239 65 119 
125 9 153 166 159 44 212 38 168 29 227 
126 7 127 175 33 103 273 34 139 
127 7 126 175 33 103 34 273 139 
128 8 88 165 87 6 251 233 138 264 
129 9 207 41 96 62 165 138 233 6 128 
130 8 201 89 32 69 170 174 178 210 
131 9 118 253 191 36 117 17 256 250 66 
132 8 101 85 259 7 204 209 236 120 
133 9 94 185 56 242 206 40 86 195 217 
134 8 237 271 235 116 229 42 97 238 
135 9 106 230 148 142 123 26 19 239 51 
136 8 243 76 232 75 28 80 74 219 
137 4 215 189 23 248 
138 7 6 165 87 207 129 128 88 
139 5 34 54 273 184 127 
140 9 52 150 169 124 152 158 9 119 143 
141 7 231 202 190 130 201 32 89 
142 9 51 230 135 106 148 122 4 123 26 
143 9 122 26 124 119 239 142 208 230 135 
144 6 39 60 21 64 266 261 
145 6 209 221 85 7 101 45 
146 9 9 16 81 65 152 158 110 239 124 
147 6 83 173 5 105 184 197 
148 9 106 135 123 230 19 142 26 239 163 
149 7 214 194 90 55 15 261 100 
150 9 169 140 52 119 124 187 17 36 66 
151 9 206 217 84 5 40 242 83 173 56 
152 9 124 9 65 16 158 81 140 239 146 
153 9 125 166 159 44 212 38 168 29 227 
154 7 66 187 118 131 253 36 150 
155 9 2 8 43 104 211 95 47 240 181 
156 8 270 176 252 27 203 228 204 120 
157 7 91 100 15 244 90 255 112 
158 9 9 152 140 52 146 16 124 65 81 
159 8 212 44 168 38 23 215 189 29 
160 9 171 223 161 14 3 35 272 183 172 
161 7 272 160 223 171 3 14 35 
162 6 199 188 20 163 115 213 
163 6 188 123 213 19 148 106 
164 5 58 4 71 51 111 
165 9 6 128 88 138 87 129 233 41 207 
166 9 153 125 159 212 44 38 168 29 227 
167 9 92 30 258 11 219 49 220 74 98 
168 9 38 44 212 159 23 215 189 265 29 
169 9 150 124 119 140 52 143 122 17 250 
170 9 32 201 89 130 210 167 69 92 220 
171 9 14 160 183 35 114 223 3 172 262 
172 9 269 224 3 35 79 183 262 255 182 
173 5 83 5 147 105 184 
174 6 59 198 130 20 115 180 
175 7 33 126 127 103 273 263 139 
176 8 270 156 252 203 204 120 228 27 
177 4 186 225 72 12 
178 8 69 99 210 241 89 18 32 130 
179 6 260 25 249 31 57 197 
180 9 20 198 18 199 59 174 115 99 69 
181 6 240 70 211 95 2 104 
182 6 67 269 172 224 3 79 
183 9 35 3 172 262 224 269 171 255 79 
184 6 105 54 173 5 83 273 
185 9 94 195 133 238 42 206 217 56 242 
186 4 72 177 102 12 
187 9 66 150 131 36 17 118 169 253 117 
188 5 163 213 123 162 19 
189 6 215 23 248 137 265 168 
190 9 202 231 49 141 226 92 22 170 80 
191 9 117 256 253 36 17 131 250 118 254 
192 5 77 264 87 251 6 
193 3 10 216 194 
194 4 149 214 90 15 
195 9 185 238 94 42 133 217 97 206 151 
196 6 37 244 48 112 67 91 
197 7 57 249 147 246 83 25 186 
198 7 59 20 174 180 115 199 130 
199 7 162 20 180 115 198 59 188 
200 3 226 22 202 
201 8 32 89 130 170 69 210 178 141 
202 9 190 231 141 49 226 22 170 92 201 
203 7 120 228 27 270 259 204 252 
204 8 259 132 85 101 7 120 203 176 
205 5 234 27 228 70 95 
206 9 151 242 40 217 56 133 94 84 5 
207 9 129 62 41 138 96 165 6 107 265 
208 9 267 250 119 4 122 71 111 51 143 
209 8 101 145 85 7 132 221 259 236 
210 8 220 32 178 89 69 170 201 241 
211 7 181 240 2 104 70 95 8 
212 8 159 44 168 38 215 23 189 137 
213 8 19 123 188 163 148 106 135 230 
214 6 90 15 149 100 55 157 
215 7 189 23 137 248 38 168 44 
216 3 193 10 194 
217 9 151 206 84 94 185 195 242 40 133 
218 7 82 84 34 139 54 184 217 
219 9 74 75 28 258 80 76 232 11 47 
220 9 98 210 30 104 167 8 11 170 32 
221 8 145 7 236 209 85 43 232 243 
222 7 63 144 39 50 21 261 60 
223 9 160 14 171 114 161 35 183 3 108 
224 9 269 79 172 3 35 183 262 255 67 
225 7 12 177 72 186 102 263 103 
226 7 22 200 202 190 231 141 49 
227 9 29 107 265 46 23 38 168 248 189 
228 7 27 203 205 120 95 70 234 
229 9 235 116 268 93 245 97 237 271 13 
230 9 135 106 148 142 123 26 51 19 239 
231 9 202 190 141 49 170 92 201 32 226 
232 9 75 76 28 74 80 136 219 47 243 
233 8 41 96 128 129 165 88 207 62 
234 5 205 70 27 181 240 
235 9 229 116 237 271 268 93 245 97 42 
236 9 7 43 120 85 221 259 132 203 209 
237 9 271 116 97 42 235 229 238 134 93 
238 9 42 195 97 185 94 116 133 61 271 
239 9 26 135 65 106 230 148 143 19 122 
240 6 181 70 95 211 2 104 
241 6 99 178 210 220 69 18 
242 9 40 56 206 246 133 151 5 83 94 
243 6 136 76 232 75 28 80 
244 8 91 112 157 100 196 37 67 79 
245 9 268 257 93 13 229 45 61 116 247 
246 9 40 56 242 147 83 206 5 197 151 
247 9 86 13 257 61 93 268 245 45 133 
248 5 189 23 215 265 137 
249 6 57 260 25 197 179 31 
250 9 267 17 117 119 208 36 191 256 111 
251 7 264 87 88 77 128 6 192 
252 8 270 176 156 27 203 228 120 205 
253 8 118 131 191 117 256 36 17 250 
254 8 111 71 256 4 191 250 117 208 
255 7 262 183 79 224 35 172 269 
256 9 191 117 253 250 254 17 36 111 131 
257 9 13 245 268 93 247 45 61 86 229 
258 9 11 219 167 92 74 30 28 75 80 
259 8 132 204 85 7 101 120 236 209 
260 6 179 25 249 57 31 197 
261 7 149 55 21 64 214 194 50 
262 8 255 183 35 172 224 79 269 3 
263 4 102 103 72 12 
264 7 77 251 87 192 6 88 128 
265 9 107 227 29 23 248 189 38 168 215 
266 3 113 60 39 
267 9 208 250 119 17 117 111 122 256 36 
268 9 245 93 257 13 61 229 116 247 45 
269 9 224 172 79 3 35 183 262 67 182 
270 8 252 176 156 203 27 228 120 204 
271 9 237 97 116 42 238 229 235 195 93 
272 7 161 160 182 3 223 35 171 
273 4 54 139 34 175 
DEPOT_SECTION
   1
   -1
EOF
