NAME :  X-n491-kX-w49-c9.cctp
COMMENT : 	Adapted by Maziero, Usberti and Cavellucci from the Uchoa, Pecin, Pessoa, Poggi, Subramanian, and Vidal (2013)
TYPE :  CCTP
DIMENSION :    277
EDGE_WEIGHT_TYPE : 	EUC_2D	
CAPACITY : 	428
VERTICES_WITHIN_COVERAGE :  9
VERTICES_WITH_DEMAND : 	49
NODE_COORD_SECTION
1 894 510
2 463 887
3 704 177
4 424 368
5 420 800
6 492 610
7 607 749
8 363 85
9 160 398
10 733 274
11 952 199
12 56 370
13 714 12
14 569 230
15 187 681
16 550 581
17 506 863
18 838 469
19 842 107
20 595 966
21 292 185
22 327 121
23 21 664
24 145 164
25 654 735
26 281 959
27 910 295
28 857 705
29 501 276
30 896 894
31 269 217
32 590 509
33 575 96
34 819 481
35 941 408
36 908 388
37 941 492
38 652 413
39 341 111
40 577 544
41 493 279
42 452 25
43 969 339
44 64 67
45 456 289
46 227 792
47 898 365
48 45 442
49 881 867
50 437 830
51 280 233
52 146 375
53 498 393
54 188 631
55 461 690
56 211 863
57 595 831
58 353 281
59 448 785
60 206 832
61 726 420
62 84 332
63 692 490
64 896 968
65 513 831
66 787 934
67 515 893
68 829 499
69 993 184
70 327 945
71 714 159
72 810 86
73 10 665
74 877 42
75 547 218
76 907 733
77 12 587
78 564 716
79 446 381
80 136 379
81 565 957
82 872 42
83 216 326
84 434 954
85 562 426
86 203 448
87 473 523
88 985 248
89 839 112
90 597 917
91 573 948
92 229 856
93 645 338
94 106 449
95 918 709
96 680 917
97 194 86
98 176 795
99 714 316
100 368 822
101 72 175
102 239 112
103 736 825
104 621 236
105 811 510
106 55 520
107 146 385
108 195 332
109 446 715
110 514 988
111 891 404
112 632 329
113 558 893
114 567 695
115 297 220
116 191 246
117 620 569
118 447 829
119 887 849
120 249 874
121 457 527
122 298 729
123 561 309
124 412 755
125 700 344
126 556 499
127 447 454
128 316 773
129 212 653
130 257 805
131 268 199
132 837 819
133 625 636
134 250 650
135 165 167
136 450 924
137 148 707
138 866 77
139 335 318
140 389 801
141 104 468
142 764 323
143 631 938
144 762 744
145 376 930
146 569 883
147 152 396
148 481 356
149 598 964
150 232 267
151 613 98
152 714 334
153 701 695
154 497 271
155 265 137
156 981 259
157 432 580
158 699 51
159 316 369
160 836 775
161 650 638
162 768 280
163 473 396
164 344 230
165 712 37
166 184 58
167 149 342
168 292 48
169 402 160
170 287 35
171 674 817
172 187 972
173 802 453
174 5 16
175 421 581
176 720 439
177 411 723
178 278 830
179 459 907
180 603 751
181 512 804
182 642 674
183 449 0
184 631 543
185 299 63
186 440 40
187 833 46
188 487 372
189 59 660
190 910 182
191 958 201
192 392 55
193 795 674
194 904 278
195 932 486
196 469 41
197 904 116
198 916 259
199 665 33
200 581 564
201 846 339
202 49 668
203 103 407
204 700 164
205 425 254
206 936 548
207 605 53
208 954 503
209 392 27
210 446 20
211 368 126
212 692 278
213 940 181
214 815 137
215 855 406
216 558 105
217 32 642
218 927 542
219 899 656
220 951 209
221 221 667
222 144 710
223 970 224
224 643 508
225 547 83
226 665 197
227 684 243
228 719 138
229 555 90
230 819 130
231 135 327
232 843 154
233 572 220
234 564 209
235 828 691
236 929 534
237 783 521
238 886 325
239 558 230
240 53 665
241 969 251
242 994 370
243 891 360
244 471 261
245 680 222
246 807 474
247 421 10
248 903 428
249 744 268
250 845 444
251 902 674
252 950 493
253 539 216
254 553 256
255 424 39
256 594 76
257 0 651
258 0 706
259 557 264
260 414 128
261 374 22
262 467 24
263 793 528
264 197 718
265 0 609
266 968 307
267 472 47
268 840 480
269 798 105
270 555 110
271 924 360
272 865 507
273 54 462
274 585 61
275 666 236
276 917 287
277 919 199
DEMAND_SECTION
2 19
3 56
4 71
5 90
6 5
7 34
8 47
9 56
10 53
11 87
12 28
13 15
14 89
15 60
16 85
17 41
18 52
19 74
20 63
21 72
22 82
23 35
24 48
25 39
26 46
27 78
28 41
29 15
30 77
31 30
32 72
33 93
34 53
35 95
36 29
37 90
38 82
39 73
40 18
41 69
42 31
43 99
44 46
45 92
46 66
47 4
48 27
49 99
50 27
COVERAGE_SECTION
2 9 179 136 17 67 118 50 84 65 113 
3 7 204 71 228 226 245 227 275 
4 9 79 163 148 188 53 45 127 139 159 
5 8 140 59 50 118 124 100 177 109 
6 8 16 157 175 55 87 121 200 40 
7 9 180 25 78 114 57 182 171 153 181 
8 9 39 211 192 22 261 209 260 185 255 
9 9 147 107 52 80 167 203 86 94 108 
10 7 249 162 212 99 142 227 152 
11 7 191 220 213 223 277 69 190 
12 9 62 203 48 80 52 231 107 273 94 
13 3 165 158 199 
14 8 233 239 234 75 254 253 259 104 
15 7 221 129 264 137 54 222 134 
16 9 200 40 6 117 32 126 184 133 87 
17 9 67 65 2 181 113 179 146 118 50 
18 8 268 34 250 68 246 173 272 105 
19 9 89 230 72 138 214 269 232 187 197 
20 9 149 91 81 143 90 113 110 146 96 
21 9 131 115 31 51 155 164 22 39 102 
22 9 39 211 8 155 185 21 168 169 260 
23 7 73 217 257 202 240 189 258 
24 9 135 101 97 116 102 166 155 44 131 
25 9 7 180 153 182 171 78 114 161 133 
26 8 70 120 172 145 92 56 178 60 
27 5 276 194 198 238 266 
28 7 235 251 76 95 219 193 160 
29 8 154 41 244 45 254 259 123 253 
30 8 49 119 64 132 66 160 76 103 
31 8 131 51 115 21 150 164 155 116 
32 9 126 40 184 224 200 117 16 85 63 
33 5 216 229 270 256 225 
34 8 246 68 268 18 105 173 250 272 
35 9 36 248 111 271 47 242 243 43 195 
36 9 111 47 271 243 35 248 215 238 43 
37 6 252 195 208 236 218 206 
38 9 176 61 93 125 112 63 85 224 152 
39 9 22 211 8 185 260 192 169 155 168 
40 9 200 32 16 117 126 184 224 133 87 
41 8 29 154 244 45 254 259 205 123 
42 8 210 262 186 196 183 267 255 247 
43 9 266 242 271 27 35 276 47 36 156 
44 9 174 101 166 24 97 135 102 155 116 
45 8 244 41 154 29 205 148 4 188 
46 9 130 60 98 92 178 56 264 120 128 
47 9 243 36 271 111 238 201 215 35 248 
48 6 273 94 141 203 12 106 
49 8 119 30 132 64 160 66 76 103 
50 9 118 5 59 140 2 100 17 65 124 
51 8 31 115 131 21 150 164 58 116 
52 9 107 80 147 9 167 231 203 108 62 
53 9 188 163 148 79 85 4 127 123 45 
54 5 129 221 15 134 137 
55 7 109 177 124 6 59 78 114 
56 8 92 60 120 46 130 178 98 172 
57 9 146 113 171 180 65 7 90 181 17 
58 8 139 164 205 115 51 159 45 31 
59 9 5 118 50 124 140 181 109 177 65 
60 7 56 92 46 98 130 120 178 
61 8 176 38 63 125 173 152 246 142 
62 9 12 231 167 80 52 203 107 147 9 
63 6 224 176 61 184 38 237 
64 9 30 49 66 119 132 160 103 96 76 
65 9 181 17 67 118 2 50 146 113 59 
66 9 96 64 49 30 103 132 119 143 171 
67 9 17 113 2 146 179 65 136 91 81 
68 6 34 105 268 18 246 272 
69 9 191 11 223 220 213 88 241 156 277 
70 9 26 145 120 84 136 178 100 92 179 
71 5 204 3 228 226 245 
72 9 269 19 89 230 187 214 138 82 232 
73 8 23 257 217 202 258 240 189 265 
74 5 82 138 187 19 197 
75 7 253 239 234 14 233 254 259 
76 4 95 28 251 219 
77 5 265 217 257 23 73 
78 9 114 180 7 182 25 133 181 55 161 
79 8 4 163 188 148 53 127 45 41 
80 9 52 107 147 9 167 203 231 62 108 
81 9 91 20 149 90 110 113 143 146 67 
82 6 74 138 187 19 72 89 
83 7 108 150 167 231 116 52 9 
84 9 136 179 145 2 110 67 70 17 50 
85 9 53 126 32 38 188 163 148 224 123 
86 6 9 147 107 52 80 94 
87 6 121 157 127 175 126 6 
88 8 156 241 223 220 191 11 266 69 
89 8 19 230 214 72 232 269 138 197 
90 9 91 143 146 113 149 20 81 96 67 
91 9 81 20 149 90 113 143 146 110 67 
92 9 56 120 60 178 130 46 98 26 128 
93 9 112 125 152 99 38 212 123 227 275 
94 9 141 203 273 48 147 9 107 80 52 
95 4 76 251 219 28 
96 9 143 90 149 20 171 66 103 91 146 
97 9 166 102 135 155 24 168 170 185 44 
98 3 60 46 56 
99 9 152 125 212 10 142 249 162 93 227 
100 7 140 5 50 128 118 124 59 
101 9 24 135 44 116 97 62 166 231 174 
102 9 155 97 166 185 168 22 21 170 131 
103 9 171 144 132 96 160 66 25 153 57 
104 7 275 14 233 226 245 227 234 
105 6 68 263 34 237 246 268 
106 3 273 141 48 
107 9 52 80 147 9 167 203 231 108 94 
108 8 83 167 231 52 107 9 80 150 
109 6 55 177 124 59 5 140 
110 9 81 91 20 84 149 136 67 179 113 
111 9 36 248 215 47 243 35 271 250 201 
112 9 93 125 123 212 152 99 38 104 259 
113 9 146 67 90 91 17 81 57 65 149 
114 9 78 7 180 182 133 25 161 55 6 
115 9 51 31 21 131 164 150 58 155 22 
116 8 150 31 135 83 108 51 131 24 
117 8 184 200 40 224 32 133 16 161 
118 9 50 5 59 2 140 65 17 181 100 
119 8 49 30 132 160 76 64 66 95 
120 9 92 56 178 60 130 46 26 70 98 
121 5 87 157 175 127 6 
122 4 128 130 134 46 
123 9 259 254 29 41 112 154 14 239 93 
124 6 177 5 59 140 109 50 
125 8 152 99 93 212 142 112 10 61 
126 9 32 40 200 85 16 87 184 224 117 
127 6 163 79 87 121 53 4 
128 6 122 130 178 100 140 46 
129 7 221 54 15 134 264 137 222 
130 8 46 178 60 92 128 120 56 98 
131 9 31 21 51 115 155 150 164 116 102 
132 9 160 119 49 30 103 144 76 28 66 
133 9 161 182 117 114 200 16 184 153 78 
134 6 221 129 54 15 264 122 
135 9 24 116 97 102 101 155 131 166 31 
136 9 179 84 2 67 145 17 110 50 118 
137 3 222 15 264 
138 7 82 74 19 89 187 197 72 
139 7 58 159 164 51 4 115 205 
140 8 100 5 124 50 59 118 128 177 
141 5 94 273 203 48 106 
142 6 162 99 152 10 249 125 
143 9 90 149 20 96 91 81 146 113 57 
144 9 193 153 160 103 235 28 132 25 171 
145 9 70 84 136 179 2 26 100 50 118 
146 9 113 90 67 57 91 17 81 65 143 
147 9 9 107 52 80 203 167 94 231 86 
148 9 188 53 163 79 4 45 41 29 154 
149 9 20 91 81 143 90 113 146 110 96 
150 8 116 51 83 31 108 131 115 21 
151 2 256 33 
152 8 125 99 142 212 10 93 249 162 
153 7 25 182 161 144 133 193 7 
154 7 29 41 244 45 254 259 253 
155 9 102 21 131 22 31 39 185 97 115 
156 8 88 241 223 266 220 191 198 11 
157 4 175 121 6 87 
158 3 165 199 13 
159 4 139 58 4 83 
160 9 132 28 144 76 235 119 49 95 193 
161 8 133 182 117 153 25 184 114 200 
162 4 249 10 142 99 
163 8 53 188 79 148 4 127 85 45 
164 8 115 58 51 21 31 131 205 139 
165 3 158 13 199 
166 9 97 102 170 168 135 24 155 185 44 
167 9 231 52 80 107 108 147 9 62 83 
168 9 170 185 8 39 22 102 261 155 192 
169 6 260 211 39 8 22 164 
170 9 168 185 261 8 102 39 22 155 209 
171 9 103 57 25 7 180 96 144 146 153 
172 4 26 56 120 92 
173 9 246 34 18 250 268 68 105 215 237 
174 9 44 101 166 97 24 135 102 170 155 
175 4 157 121 6 87 
176 7 61 63 38 173 246 125 224 
177 6 124 109 55 59 5 140 
178 8 130 120 92 46 128 60 56 100 
179 9 136 2 84 67 17 118 50 145 65 
180 9 7 78 25 114 57 182 171 181 153 
181 9 65 17 59 118 50 57 67 5 2 
182 9 161 133 25 153 114 7 180 78 117 
183 8 210 42 247 262 186 196 255 267 
184 8 117 224 32 40 200 63 126 16 
185 9 168 170 22 39 8 102 155 261 192 
186 7 255 42 210 196 262 267 247 
187 8 82 74 138 72 19 89 269 230 
188 9 148 53 163 79 4 45 127 85 41 
189 4 240 202 217 23 
190 3 277 213 11 
191 7 11 220 223 213 69 277 241 
192 7 209 255 261 8 186 247 210 
193 3 235 28 144 
194 4 276 27 198 238 
195 7 37 252 208 236 218 206 248 
196 5 267 262 42 186 210 
197 3 138 19 89 
198 3 194 276 27 
199 4 158 165 13 207 
200 9 40 16 117 184 32 126 133 224 6 
201 4 238 243 47 215 
202 5 240 189 23 217 73 
203 9 94 80 107 147 52 9 12 141 48 
204 5 3 71 228 226 245 
205 7 45 244 41 154 58 29 164 
206 5 218 236 208 37 252 
207 4 274 256 151 33 
208 6 252 37 195 236 218 206 
209 8 261 192 247 255 186 210 42 183 
210 8 42 183 186 262 247 255 196 267 
211 6 39 8 22 260 169 192 
212 9 227 10 99 275 249 245 152 125 93 
213 5 11 191 277 190 220 
214 6 230 232 89 269 19 72 
215 9 111 250 248 36 243 47 18 201 173 
216 4 270 229 33 225 
217 7 23 202 240 73 189 257 265 
218 6 236 206 208 37 252 195 
219 3 251 95 28 
220 6 11 191 223 213 277 241 
221 8 129 134 15 54 264 137 222 122 
222 3 137 15 264 
223 8 220 191 241 88 11 156 69 213 
224 8 184 63 32 117 40 200 126 38 
225 4 229 216 270 33 
226 6 245 275 3 204 227 104 
227 8 275 245 212 226 10 104 249 3 
228 4 71 204 3 226 
229 4 225 216 270 33 
230 6 214 89 19 269 232 72 
231 9 167 52 62 80 107 108 147 9 83 
232 4 214 230 89 19 
233 7 14 234 239 75 253 254 259 
234 5 233 75 14 239 253 
235 5 28 193 251 219 160 
236 6 218 206 208 37 252 195 
237 5 263 105 68 246 34 
238 7 243 27 47 201 276 194 271 
239 7 14 75 233 234 253 254 259 
240 5 202 189 217 23 73 
241 8 156 88 223 220 191 198 11 266 
242 9 43 35 266 271 36 47 243 111 248 
243 9 47 36 271 238 111 201 215 27 35 
244 5 41 154 45 29 205 
245 8 275 227 226 3 212 104 204 71 
246 9 34 173 18 68 268 105 250 237 263 
247 9 210 255 183 42 209 186 262 261 192 
248 9 111 36 35 215 250 47 195 243 271 
249 7 10 162 212 99 142 227 152 
250 9 18 268 215 173 34 246 68 248 111 
251 4 219 95 28 76 
252 6 37 208 195 236 218 206 
253 6 75 239 234 14 233 254 
254 9 259 239 14 75 233 253 234 123 29 
255 8 186 210 247 42 209 192 196 183 
256 5 274 207 33 151 229 
257 9 73 23 217 265 202 240 258 189 77 
258 3 73 23 257 
259 9 254 239 14 123 233 75 253 234 29 
260 3 169 211 8 
261 9 209 192 247 255 8 186 210 42 183 
262 6 42 196 210 267 183 186 
263 5 237 105 68 34 246 
264 6 15 137 222 221 129 46 
265 7 77 257 217 73 23 202 240 
266 9 43 156 276 241 27 88 242 271 194 
267 4 196 262 42 186 
268 7 18 34 68 246 250 272 105 
269 8 72 230 214 89 19 232 187 138 
270 3 216 229 33 
271 9 47 36 243 43 35 238 111 27 266 
272 4 68 268 18 34 
273 6 48 141 94 106 203 12 
274 5 256 207 33 229 225 
275 7 227 245 226 104 212 3 10 
276 5 27 194 198 238 266 
277 4 190 213 11 220 
DEPOT_SECTION
   1
   -1
EOF
