NAME :  X-n429-kX-w171-c9.cctp
COMMENT : 	Adapted by Maziero, Usberti and Cavellucci from the Uchoa, Pecin, Pessoa, Poggi, Subramanian, and Vidal (2013)
TYPE :  CCTP
DIMENSION :    422
EDGE_WEIGHT_TYPE : 	EUC_2D	
CAPACITY : 	536
VERTICES_WITHIN_COVERAGE :  9
VERTICES_WITH_DEMAND : 	171
NODE_COORD_SECTION
1 238 446
2 749 750
3 960 879
4 914 116
5 517 477
6 554 143
7 850 488
8 739 177
9 229 160
10 539 573
11 901 821
12 787 399
13 974 203
14 89 387
15 561 27
16 103 139
17 174 826
18 40 578
19 359 23
20 440 649
21 588 265
22 182 275
23 401 993
24 751 564
25 797 274
26 756 252
27 871 882
28 693 417
29 710 620
30 960 422
31 530 904
32 124 126
33 67 587
34 440 336
35 219 38
36 609 504
37 936 474
38 800 689
39 358 530
40 914 753
41 210 96
42 95 816
43 441 389
44 506 963
45 114 285
46 333 191
47 545 892
48 59 618
49 698 385
50 977 931
51 822 79
52 951 91
53 341 759
54 439 290
55 1 258
56 756 147
57 252 284
58 588 168
59 895 501
60 759 442
61 967 855
62 244 601
63 888 148
64 442 18
65 847 877
66 683 267
67 446 301
68 997 815
69 586 777
70 129 986
71 613 331
72 811 156
73 704 494
74 265 216
75 511 373
76 981 261
77 48 985
78 723 558
79 839 828
80 803 737
81 296 719
82 589 252
83 374 862
84 277 82
85 451 183
86 904 681
87 474 908
88 609 185
89 346 382
90 158 866
91 572 161
92 704 828
93 142 331
94 801 969
95 680 88
96 672 178
97 827 566
98 728 793
99 888 917
100 326 298
101 718 636
102 792 283
103 866 141
104 682 640
105 961 604
106 299 23
107 358 22
108 460 546
109 27 552
110 508 739
111 692 85
112 582 748
113 220 76
114 128 795
115 268 622
116 673 871
117 167 789
118 827 698
119 68 190
120 561 928
121 328 817
122 719 595
123 152 111
124 780 824
125 486 302
126 877 775
127 156 976
128 62 854
129 257 906
130 824 163
131 796 134
132 848 204
133 581 299
134 37 832
135 364 210
136 778 453
137 229 676
138 448 488
139 234 586
140 194 65
141 300 238
142 939 983
143 354 914
144 647 901
145 719 709
146 845 806
147 753 610
148 384 707
149 741 825
150 457 590
151 35 357
152 862 623
153 447 838
154 518 607
155 886 602
156 235 680
157 249 16
158 724 269
159 567 58
160 865 296
161 387 143
162 222 629
163 419 205
164 813 784
165 426 19
166 116 881
167 361 788
168 346 845
169 762 959
170 961 860
171 388 315
172 433 70
173 116 292
174 264 540
175 76 564
176 247 445
177 42 866
178 988 538
179 77 75
180 664 842
181 419 541
182 46 609
183 624 658
184 761 523
185 954 696
186 807 151
187 22 882
188 320 646
189 682 723
190 591 702
191 163 587
192 327 755
193 467 531
194 8 378
195 469 286
196 502 45
197 278 681
198 104 123
199 638 65
200 806 705
201 87 388
202 70 459
203 427 812
204 727 965
205 736 661
206 108 285
207 635 631
208 442 797
209 808 238
210 494 268
211 761 524
212 455 188
213 843 3
214 84 342
215 509 878
216 98 641
217 835 478
218 814 202
219 285 973
220 33 673
221 729 323
222 193 813
223 702 480
224 748 318
225 925 844
226 814 904
227 68 961
228 59 627
229 773 483
230 845 468
231 904 365
232 613 161
233 79 325
234 532 267
235 426 537
236 382 505
237 603 595
238 700 327
239 58 709
240 166 753
241 554 159
242 251 439
243 925 3
244 97 16
245 97 24
246 667 660
247 355 936
248 130 923
249 852 837
250 507 813
251 381 911
252 554 116
253 387 383
254 908 985
255 236 723
256 479 755
257 728 93
258 85 31
259 861 58
260 348 13
261 850 535
262 833 72
263 393 995
264 433 581
265 184 919
266 20 992
267 680 498
268 330 163
269 115 593
270 100 942
271 768 928
272 466 983
273 477 550
274 599 837
275 406 531
276 596 274
277 60 921
278 622 862
279 550 949
280 301 792
281 354 963
282 856 708
283 493 303
284 817 131
285 557 353
286 183 731
287 910 91
288 833 437
289 72 12
290 94 829
291 619 456
292 761 88
293 317 184
294 357 202
295 516 212
296 655 419
297 789 881
298 439 945
299 823 190
300 523 905
301 561 376
302 13 539
303 591 737
304 827 661
305 788 713
306 455 357
307 200 213
308 982 944
309 199 197
310 344 164
311 859 498
312 855 650
313 605 903
314 961 616
315 266 819
316 391 167
317 791 757
318 291 577
319 490 126
320 25 95
321 20 522
322 121 204
323 755 392
324 549 56
325 43 240
326 110 305
327 739 76
328 84 184
329 953 127
330 108 836
331 76 779
332 331 883
333 45 791
334 791 266
335 854 741
336 66 316
337 322 731
338 162 83
339 110 342
340 648 917
341 987 835
342 53 290
343 339 605
344 508 883
345 946 885
346 628 906
347 986 694
348 660 678
349 309 48
350 873 461
351 949 410
352 193 531
353 890 388
354 81 698
355 778 937
356 704 356
357 469 110
358 687 142
359 158 154
360 471 294
361 439 348
362 25 467
363 661 710
364 113 935
365 316 819
366 807 40
367 687 897
368 255 902
369 730 134
370 698 366
371 219 270
372 728 209
373 137 420
374 814 593
375 315 153
376 60 763
377 324 822
378 226 7
379 613 135
380 989 857
381 904 996
382 460 538
383 828 569
384 951 678
385 819 618
386 991 254
387 253 75
388 588 802
389 840 877
390 750 865
391 260 38
392 244 697
393 63 980
394 620 219
395 800 109
396 467 220
397 417 647
398 938 810
399 898 705
400 507 121
401 154 615
402 993 267
403 817 539
404 358 136
405 527 863
406 275 964
407 555 502
408 439 480
409 237 9
410 501 789
411 79 432
412 636 429
413 272 761
414 454 640
415 515 783
416 734 311
417 226 723
418 946 827
419 473 856
420 641 87
421 523 585
422 231 980
DEMAND_SECTION
2 55
3 64
4 100
5 66
6 68
7 95
8 67
9 100
10 75
11 65
12 98
13 100
14 66
15 82
16 84
17 89
18 62
19 64
20 87
21 94
22 75
23 53
24 99
25 85
26 87
27 83
28 82
29 78
30 84
31 67
32 61
33 56
34 63
35 98
36 79
37 95
38 92
39 51
40 66
41 50
42 82
43 66
44 75
45 73
46 83
47 76
48 72
49 62
50 78
51 56
52 98
53 56
54 51
55 84
56 81
57 65
58 61
59 64
60 78
61 78
62 78
63 60
64 59
65 80
66 88
67 96
68 75
69 81
70 51
71 61
72 67
73 56
74 87
75 88
76 54
77 50
78 99
79 85
80 79
81 94
82 86
83 85
84 58
85 82
86 52
87 52
88 60
89 66
90 84
91 62
92 83
93 60
94 84
95 78
96 97
97 51
98 79
99 54
100 54
101 84
102 75
103 94
104 60
105 100
106 90
107 75
108 51
109 90
110 90
111 79
112 93
113 64
114 86
115 97
116 83
117 77
118 54
119 81
120 76
121 72
122 56
123 74
124 62
125 84
126 80
127 91
128 60
129 54
130 89
131 68
132 79
133 61
134 88
135 71
136 84
137 64
138 95
139 72
140 79
141 100
142 83
143 78
144 53
145 57
146 81
147 86
148 86
149 51
150 84
151 88
152 67
153 65
154 80
155 94
156 79
157 56
158 91
159 69
160 90
161 71
162 70
163 83
164 63
165 71
166 66
167 63
168 77
169 81
170 50
171 75
172 51
COVERAGE_SECTION
2 9 317 98 145 305 80 164 189 200 149 
3 9 345 170 61 380 225 341 418 50 308 
4 9 287 63 329 52 103 259 262 284 51 
5 9 407 138 193 408 273 382 108 36 10 
6 9 241 91 252 58 400 379 232 319 88 
7 9 311 217 230 350 59 261 288 403 229 
8 9 56 372 369 358 96 131 186 72 26 
9 9 309 307 41 74 359 113 375 387 123 
10 9 421 154 273 237 407 108 193 150 382 
11 9 225 398 418 126 249 146 79 27 40 
12 9 323 60 136 288 229 49 224 230 217 
13 9 386 76 402 329 63 4 52 103 132 
14 9 201 214 411 339 373 151 233 202 336 
15 9 324 159 196 199 252 420 400 6 64 
16 9 198 32 328 123 359 119 322 179 338 
17 9 222 117 90 114 330 240 42 166 290 
18 9 33 109 182 175 48 302 228 321 269 
19 9 107 260 349 106 165 64 172 391 84 
20 9 414 397 150 264 148 154 108 421 273 
21 9 276 82 133 234 394 71 88 295 285 
22 9 371 307 173 45 93 57 206 326 309 
23 9 263 281 298 272 247 251 143 44 87 
24 9 78 211 184 122 147 29 374 403 97 
25 9 102 334 209 26 224 160 158 416 218 
26 9 158 334 25 102 372 209 416 224 66 
27 9 65 389 99 249 226 79 225 11 345 
28 9 49 296 370 412 356 223 323 60 73 
29 9 101 122 104 147 205 246 78 24 207 
30 9 351 37 353 231 350 59 178 230 311 
31 9 300 47 344 215 120 405 279 87 44 
32 9 198 16 123 359 338 179 328 322 119 
33 9 175 18 182 48 228 269 109 216 302 
34 9 361 306 67 54 360 43 171 125 195 
35 9 378 409 140 157 113 391 387 41 84 
36 9 291 407 267 412 237 5 73 223 296 
37 9 59 30 350 351 311 178 7 230 353 
38 9 200 305 118 304 80 282 312 317 205 
39 9 236 275 181 235 343 318 264 174 408 
40 9 126 399 335 398 11 185 86 282 418 
41 9 113 140 387 338 35 123 9 84 391 
42 9 290 330 114 331 128 333 134 376 166 
43 9 306 361 34 253 75 67 171 408 89 
44 9 272 279 300 31 87 120 298 344 47 
45 9 206 173 326 233 93 336 339 342 214 
46 9 293 294 268 310 135 375 141 404 316 
47 9 31 300 405 344 120 215 279 313 87 
48 9 228 182 33 18 216 175 220 269 109 
49 9 370 356 28 296 323 238 221 412 416 
50 9 308 3 345 142 170 380 61 254 99 
51 9 262 395 366 259 284 131 292 186 103 
52 9 329 287 4 63 243 259 103 13 262 
53 9 192 337 167 280 121 81 365 377 148 
54 9 67 195 360 34 125 283 171 361 210 
55 9 325 342 336 119 233 151 206 328 45 
56 9 369 8 131 186 72 395 292 257 284 
57 9 371 141 74 22 100 307 309 293 93 
58 9 91 232 88 241 379 6 394 252 82 
59 9 311 350 7 37 261 230 217 403 288 
60 9 136 229 323 12 223 28 288 73 184 
61 9 170 380 3 341 418 345 225 68 398 
62 9 139 115 162 318 174 137 156 191 197 
63 9 103 4 287 130 329 132 284 72 299 
64 9 165 172 196 19 107 260 357 324 319 
65 9 389 27 249 226 79 99 297 146 11 
66 9 158 238 416 221 372 26 394 224 276 
67 9 54 360 195 34 125 283 361 306 210 
68 9 341 380 61 418 170 398 3 225 345 
69 9 388 112 303 274 415 190 410 110 250 
70 9 127 270 364 248 227 393 77 265 277 
71 9 133 276 285 301 21 82 238 370 356 
72 9 186 130 284 131 299 218 395 56 103 
73 9 223 267 184 211 78 229 60 28 24 
74 9 141 293 307 9 57 309 371 46 375 
75 9 285 301 306 43 283 125 361 34 360 
76 9 386 402 13 160 231 329 132 63 351 
77 9 393 266 227 277 270 70 364 248 187 
78 9 24 122 211 184 147 29 73 267 101 
79 9 249 146 389 65 164 124 11 27 126 
80 9 317 305 200 118 38 164 335 2 282 
81 9 337 197 192 413 392 53 255 417 156 
82 9 21 276 394 133 234 88 71 295 58 
83 9 168 332 251 143 121 377 365 203 167 
84 9 387 349 391 113 106 41 157 35 375 
85 9 212 163 396 316 319 295 161 357 400 
86 9 399 384 185 282 312 152 40 335 118 
87 9 344 215 300 298 419 31 44 405 47 
88 9 232 58 394 91 379 241 96 6 82 
89 9 253 171 100 43 361 34 242 306 176 
90 9 17 166 330 265 222 248 290 114 117 
91 9 58 241 6 232 88 252 379 394 295 
92 9 149 98 180 116 390 367 124 278 2 
93 9 339 326 173 45 206 214 233 22 14 
94 9 355 169 271 226 204 297 389 99 65 
95 9 111 420 199 257 358 327 369 292 379 
96 9 358 232 88 372 394 8 369 379 58 
97 9 383 403 374 261 385 152 155 311 24 
98 9 149 92 2 124 317 390 180 145 189 
99 9 27 65 389 345 254 226 3 381 225 
100 9 171 141 57 89 135 294 74 253 46 
101 9 29 205 104 122 147 246 348 145 78 
102 9 25 334 26 209 224 416 158 160 221 
103 9 63 130 284 4 72 186 299 132 287 
104 9 246 29 101 348 207 122 205 183 363 
105 9 314 178 155 384 185 347 86 152 312 
106 9 349 391 157 260 107 19 84 409 387 
107 9 19 260 349 106 165 64 172 391 84 
108 9 382 193 273 235 181 150 264 275 138 
109 9 302 18 321 175 33 182 48 228 362 
110 9 256 415 410 250 112 303 69 208 190 
111 9 95 257 327 420 358 199 369 292 56 
112 9 303 69 190 388 110 415 363 274 410 
113 9 41 140 387 35 391 84 338 157 378 
114 9 42 117 330 290 331 17 240 222 376 
115 9 62 162 139 318 188 197 137 156 343 
116 9 180 367 144 278 340 92 346 313 390 
117 9 222 240 17 114 286 330 42 90 290 
118 9 200 38 282 304 305 80 335 312 317 
119 9 328 322 325 16 198 32 55 359 342 
120 9 279 31 47 300 313 44 344 346 215 
121 9 377 365 168 280 167 53 192 315 83 
122 9 29 78 147 101 24 104 205 211 184 
123 9 338 32 359 198 16 41 140 113 179 
124 9 149 390 164 297 79 98 146 317 249 
125 9 283 360 195 210 67 54 34 234 306 
126 9 335 40 146 11 79 164 249 282 398 
127 9 70 248 364 265 270 422 227 393 166 
128 9 177 134 290 187 330 42 166 333 277 
129 9 368 406 219 265 332 422 315 143 247 
130 9 72 186 299 284 131 218 103 132 395 
131 9 186 284 395 72 130 56 292 51 299 
132 9 299 218 130 209 72 103 186 63 284 
133 9 276 21 71 82 234 285 301 283 394 
134 9 128 177 333 187 290 42 331 330 376 
135 9 294 46 310 316 293 163 268 141 161 
136 9 60 229 12 288 217 323 230 184 211 
137 9 156 392 417 162 255 197 115 286 62 
138 9 408 193 382 235 108 181 275 236 273 
139 9 62 162 115 174 318 352 191 401 137 
140 9 113 41 35 338 387 123 378 391 409 
141 9 74 46 293 100 57 294 135 268 310 
142 9 254 381 308 50 99 345 3 27 170 
143 9 247 251 332 281 83 168 263 298 219 
144 9 340 346 116 367 313 278 180 274 120 
145 9 189 2 205 363 348 305 246 101 104 
146 9 79 249 164 126 11 335 124 65 389 
147 9 122 29 101 24 205 78 374 385 104 
148 9 337 53 397 192 20 167 188 81 414 
149 9 98 92 124 390 297 2 180 116 164 
150 9 264 108 273 414 382 193 20 235 181 
151 9 194 214 336 233 201 14 342 339 411 
152 9 312 155 385 304 374 383 97 86 118 
153 9 419 203 208 250 410 215 87 344 83 
154 9 421 10 150 273 414 108 237 20 264 
155 9 152 312 383 97 385 374 105 261 314 
156 9 137 392 197 255 417 162 115 81 286 
157 9 409 378 391 35 106 387 113 349 84 
158 9 26 66 416 221 224 372 238 334 102 
159 9 324 15 252 196 199 420 6 400 379 
160 9 25 102 231 334 209 132 353 218 299 
161 9 316 404 310 268 294 163 135 46 375 
162 9 62 139 115 137 156 401 392 191 197 
163 9 85 212 316 396 135 294 161 310 46 
164 9 317 146 80 79 124 335 126 249 2 
165 9 64 172 19 107 260 196 357 349 319 
166 9 248 90 330 364 290 128 270 42 277 
167 9 53 121 192 377 365 168 280 337 203 
168 9 377 83 121 365 332 167 143 280 251 
169 9 355 271 204 94 226 297 390 367 389 
170 9 61 3 380 345 341 418 225 398 68 
171 9 34 54 67 361 100 253 89 306 195 
172 9 165 64 357 196 319 161 19 107 400 
173 9 45 206 326 93 233 339 336 214 342 
174 9 318 139 62 352 115 39 176 162 343 
175 8 33 18 269 109 182 48 228 302 
176 5 242 174 352 373 89 
177 9 128 187 134 277 290 330 42 333 166 
178 9 105 37 314 59 30 155 351 311 261 
179 9 258 198 245 320 244 289 16 32 123 
180 9 116 92 278 367 144 274 346 340 149 
181 9 235 275 108 382 264 193 236 273 138 
182 9 48 228 33 18 175 109 216 220 269 
183 9 207 348 246 190 104 363 237 303 189 
184 9 211 24 229 78 403 73 136 223 97 
185 9 384 347 86 399 40 314 105 282 312 
186 9 72 131 130 284 299 395 56 218 103 
187 9 177 128 134 277 290 227 166 333 42 
188 9 343 197 115 318 81 337 62 148 156 
189 9 363 145 348 246 2 205 104 98 183 
190 9 303 112 183 363 348 69 207 246 110 
191 8 401 269 352 139 162 62 216 175 
192 9 53 337 280 167 81 413 121 365 377 
193 9 382 108 273 235 138 181 408 150 264 
194 9 151 201 14 214 336 233 411 362 342 
195 9 360 125 67 283 54 210 34 234 396 
196 9 324 15 64 159 172 357 400 165 319 
197 9 392 81 156 137 188 255 115 337 417 
198 9 16 32 123 179 359 328 338 119 322 
199 9 420 95 111 159 379 15 324 358 257 
200 9 38 305 118 80 304 282 317 335 2 
201 9 14 411 214 339 373 151 233 202 336 
202 6 411 362 201 14 373 321 
203 9 208 153 419 167 83 256 410 250 168 
204 9 169 271 355 94 367 340 144 390 297 
205 9 101 29 145 147 104 122 246 38 305 
206 9 45 173 326 233 336 342 93 339 214 
207 9 183 246 104 237 348 29 101 363 190 
208 9 203 153 256 410 250 419 415 167 110 
209 9 334 218 25 102 299 132 26 130 160 
210 9 195 125 283 360 234 396 67 54 295 
211 9 184 24 229 78 403 73 136 223 97 
212 9 85 396 163 295 316 319 357 161 400 
213 9 366 259 262 51 243 287 395 292 327 
214 9 233 339 336 14 326 201 151 93 173 
215 9 344 405 300 31 47 419 87 250 120 
216 9 228 48 269 354 182 33 401 220 239 
217 9 230 7 311 288 350 261 136 229 59 
218 9 299 132 209 130 72 186 334 131 284 
219 9 406 422 281 129 368 247 143 332 263 
220 9 239 228 354 48 182 216 33 376 18 
221 9 416 224 238 356 370 158 49 66 323 
222 9 17 117 90 240 114 315 286 330 413 
223 9 73 267 28 60 229 184 211 296 78 
224 9 416 221 238 158 102 356 25 26 334 
225 9 418 11 398 170 61 345 3 341 380 
226 9 297 389 65 355 271 27 94 99 390 
227 9 393 77 270 277 364 266 70 248 127 
228 9 48 182 33 216 18 220 175 269 354 
229 9 136 184 60 211 217 73 223 403 230 
230 9 217 7 350 288 311 59 261 136 229 
231 9 353 351 160 30 288 350 37 230 12 
232 9 88 58 379 91 394 241 96 6 252 
233 9 336 214 339 326 342 206 173 45 151 
234 9 210 283 21 295 125 82 133 276 195 
235 9 181 275 382 108 193 264 273 138 236 
236 9 39 275 181 235 408 138 382 108 193 
237 9 207 183 10 421 154 36 104 246 348 
238 9 221 356 416 370 224 49 66 158 323 
239 9 354 220 376 331 216 228 333 48 182 
240 9 286 117 114 222 417 17 255 331 42 
241 9 6 91 58 252 232 400 88 379 295 
242 5 176 174 352 89 373 
243 9 213 259 287 52 4 262 366 329 51 
244 9 245 258 289 179 338 198 320 140 123 
245 9 244 258 289 179 338 198 320 123 140 
246 9 348 104 183 207 363 101 29 189 205 
247 9 143 281 251 332 263 23 83 219 298 
248 9 364 270 166 265 127 70 90 277 227 
249 9 79 146 65 389 27 11 164 126 124 
250 9 410 415 405 419 256 153 215 208 344 
251 9 143 247 83 332 281 298 168 23 263 
252 9 6 241 400 91 159 324 58 379 319 
253 9 89 43 361 171 34 306 67 100 54 
254 9 381 142 99 308 50 345 94 27 3 
255 9 417 392 156 137 413 286 197 81 240 
256 9 110 410 415 208 250 203 153 419 112 
257 9 327 292 111 369 95 56 358 395 131 
258 9 245 244 289 179 320 338 198 32 123 
259 9 262 51 366 213 287 4 395 103 243 
260 9 107 19 106 349 165 391 64 84 157 
261 9 403 311 97 383 7 59 217 230 374 
262 9 51 259 366 395 284 213 131 292 103 
263 9 23 281 298 247 272 251 143 219 44 
264 9 150 181 108 235 382 273 275 193 414 
265 9 248 90 127 364 368 129 422 166 70 
266 9 77 393 227 277 270 70 364 187 177 
267 9 73 223 36 78 291 28 412 296 184 
268 9 310 375 293 46 404 294 135 161 316 
269 9 401 33 191 175 216 48 228 182 18 
270 9 364 248 227 277 70 393 166 127 77 
271 9 355 169 297 226 94 204 390 367 389 
272 9 44 298 23 263 87 279 300 31 344 
273 9 108 193 382 150 235 264 421 181 10 
274 9 278 388 69 180 313 346 47 405 144 
275 9 181 235 236 39 382 108 264 138 193 
276 9 21 82 133 71 394 234 66 285 88 
277 9 227 270 187 364 177 393 77 128 166 
278 9 274 313 346 144 180 116 340 388 367 
279 9 120 44 31 300 47 313 344 215 87 
280 9 365 121 377 413 315 192 53 167 337 
281 9 247 143 263 23 251 219 406 332 298 
282 9 118 335 399 200 86 304 312 38 80 
283 9 125 360 195 210 67 234 54 34 306 
284 9 131 186 72 395 130 103 51 299 262 
285 9 301 75 133 71 283 125 276 234 21 
286 9 240 417 255 117 392 137 156 222 114 
287 9 4 52 329 259 63 103 262 51 243 
288 9 230 217 350 7 136 12 311 60 353 
289 9 258 244 245 179 320 338 198 32 123 
290 9 42 330 128 114 331 166 134 333 177 
291 9 412 36 296 267 407 28 223 73 301 
292 9 327 257 395 369 131 56 51 366 111 
293 9 46 268 375 310 294 135 141 74 404 
294 9 135 46 310 293 268 316 163 375 161 
295 9 396 234 210 241 212 85 91 6 82 
296 9 412 28 291 49 370 223 356 267 73 
297 9 226 390 271 389 355 65 124 79 149 
298 9 272 87 23 251 263 44 247 281 143 
299 9 218 130 132 72 186 209 284 131 103 
300 9 31 47 344 215 405 120 87 279 44 
301 9 285 75 71 133 412 291 283 296 125 
302 8 321 109 18 175 33 362 182 48 
303 9 112 190 69 388 363 110 183 415 348 
304 9 312 118 38 385 200 152 282 305 374 
305 9 200 38 80 118 317 2 304 282 145 
306 9 361 34 43 67 75 125 360 283 54 
307 9 309 9 371 22 74 359 322 57 141 
308 9 50 142 3 345 254 170 380 61 381 
309 9 307 9 359 74 371 322 22 123 41 
310 9 268 46 375 404 293 294 316 161 135 
311 9 7 217 230 59 261 350 403 288 97 
312 9 152 304 385 118 155 86 282 38 374 
313 9 346 144 278 340 120 47 274 279 31 
314 9 105 384 155 185 347 178 86 152 399 
315 9 280 365 377 413 121 222 168 368 129 
316 9 161 404 163 310 294 135 268 85 46 
317 9 80 164 2 305 200 335 124 38 118 
318 9 174 115 62 343 139 188 39 162 197 
319 9 400 357 252 6 85 212 241 172 196 
320 9 179 198 258 16 289 245 32 119 244 
321 7 302 109 362 18 175 33 202 
322 9 328 119 359 16 32 309 307 45 206 
323 9 12 60 49 356 370 136 28 221 224 
324 9 159 15 196 252 400 6 199 319 357 
325 9 55 342 119 328 206 336 45 322 173 
326 9 173 45 206 233 339 93 214 336 342 
327 9 257 292 111 369 95 395 56 366 131 
328 9 119 322 16 198 325 32 359 123 206 
329 9 52 4 287 63 13 103 259 243 132 
330 9 290 42 114 166 128 90 331 17 134 
331 9 376 333 42 290 114 330 134 239 128 
332 9 143 168 83 251 247 377 121 365 129 
333 9 376 331 134 42 290 128 177 330 114 
334 9 25 102 209 26 158 224 218 416 160 
335 9 282 126 80 118 399 164 200 40 317 
336 9 233 342 214 326 151 339 206 173 45 
337 9 192 81 53 413 280 148 197 167 188 
338 9 123 140 41 32 113 198 359 35 16 
339 9 214 93 233 326 14 173 201 336 45 
340 9 144 346 367 313 116 278 180 120 204 
341 9 68 380 61 170 418 3 398 225 345 
342 9 336 233 325 206 326 45 55 214 173 
343 9 188 318 115 39 397 62 197 264 174 
344 9 215 300 405 31 47 87 419 120 250 
345 9 3 170 61 225 380 50 418 341 99 
346 9 144 313 340 278 116 367 120 180 274 
347 9 185 384 314 86 399 40 105 68 398 
348 9 246 363 183 104 189 207 145 101 190 
349 9 106 84 391 260 107 19 387 157 409 
350 9 230 7 311 217 59 288 37 353 261 
351 9 30 353 231 37 350 59 230 288 7 
352 5 191 139 174 62 401 
353 9 231 351 288 350 30 230 160 37 12 
354 9 239 220 216 376 228 331 48 182 333 
355 9 271 169 94 226 297 204 390 389 65 
356 9 370 238 49 221 416 224 28 323 296 
357 9 319 400 172 196 85 212 252 161 6 
358 9 96 369 95 111 8 257 56 420 379 
359 9 123 32 16 309 198 322 9 338 307 
360 9 195 125 283 67 54 210 34 361 306 
361 9 34 306 43 67 54 171 253 360 125 
362 6 202 321 411 302 109 194 
363 9 189 348 246 145 183 190 104 303 207 
364 9 270 248 227 70 166 277 127 393 265 
365 9 377 121 280 168 315 167 53 192 332 
366 9 262 51 213 259 292 395 327 284 131 
367 9 116 144 340 180 346 92 390 278 204 
368 9 129 406 265 219 332 422 315 143 90 
369 9 56 257 8 358 292 327 111 131 95 
370 9 356 49 238 28 221 323 416 296 224 
371 9 57 22 307 74 309 141 93 173 45 
372 9 8 26 158 96 56 66 369 358 209 
373 5 14 201 411 202 339 
374 9 385 383 97 403 152 147 261 24 304 
375 9 268 293 310 46 404 294 161 135 316 
376 9 331 333 239 42 354 134 290 114 330 
377 9 121 365 168 280 167 315 332 83 53 
378 9 409 157 35 391 140 113 387 106 41 
379 9 232 58 91 88 420 6 252 241 96 
380 9 61 341 170 3 68 345 418 225 398 
381 9 254 142 99 308 50 94 27 345 226 
382 9 108 193 273 235 181 138 264 150 275 
383 9 97 374 403 261 385 152 155 24 311 
384 9 185 347 86 399 314 105 40 155 282 
385 9 374 152 304 312 383 97 147 155 38 
386 9 76 402 13 160 329 231 63 132 4 
387 9 84 113 391 41 35 157 140 349 409 
388 9 69 274 112 303 278 415 250 180 405 
389 9 65 27 226 249 79 297 99 146 124 
390 9 149 297 124 92 271 367 98 226 116 
391 9 157 409 387 35 106 378 84 349 113 
392 9 156 137 255 417 197 81 286 413 162 
393 9 77 227 266 270 277 70 364 248 127 
394 9 88 82 21 232 58 276 96 91 66 
395 9 131 284 51 186 292 72 262 56 130 
396 9 212 85 163 295 210 195 360 54 234 
397 9 20 414 148 264 150 343 188 181 154 
398 9 418 225 11 61 170 341 68 40 380 
399 9 86 282 40 185 335 384 312 118 126 
400 9 319 357 252 6 241 91 196 324 85 
401 9 191 269 216 162 139 33 62 175 352 
402 9 76 386 13 160 231 329 351 30 132 
403 9 97 383 261 374 184 211 311 7 217 
404 9 161 310 268 316 375 46 293 294 135 
405 9 215 344 47 31 300 250 419 87 120 
406 9 219 422 129 368 281 247 143 332 265 
407 9 5 36 10 291 421 273 193 382 108 
408 9 138 193 235 275 236 382 181 108 5 
409 9 378 157 35 391 106 387 113 140 349 
410 9 415 250 256 110 208 153 419 203 405 
411 6 202 201 14 373 362 151 
412 9 296 291 28 49 36 267 223 370 301 
413 9 280 81 255 192 315 337 417 53 392 
414 9 20 397 150 264 154 421 273 108 148 
415 9 410 250 110 256 69 208 388 112 405 
416 9 221 224 238 158 356 26 102 370 66 
417 9 255 392 156 286 137 413 197 240 81 
418 9 398 225 61 170 341 11 68 380 3 
419 9 153 215 344 87 405 250 203 208 300 
420 9 199 95 111 379 358 159 232 257 252 
421 9 10 154 273 150 108 193 382 237 414 
422 9 406 219 127 265 129 368 70 248 281 
DEPOT_SECTION
   1
   -1
EOF
