NAME :  X-n459-kX-w91-c11.cctp
COMMENT : 	Adapted by Maziero, Usberti and Cavellucci from the Uchoa, Pecin, Pessoa, Poggi, Subramanian, and Vidal (2013)
TYPE :  CCTP
DIMENSION :    444
EDGE_WEIGHT_TYPE : 	EUC_2D	
CAPACITY : 	1106
VERTICES_WITHIN_COVERAGE :  11
VERTICES_WITH_DEMAND : 	91
NODE_COORD_SECTION
1 500 500
2 832 885
3 777 632
4 406 257
5 620 467
6 343 166
7 355 345
8 393 299
9 631 767
10 384 340
11 643 630
12 786 593
13 789 727
14 443 205
15 679 408
16 845 535
17 732 820
18 890 861
19 645 689
20 800 517
21 951 643
22 828 746
23 862 625
24 606 432
25 672 984
26 580 338
27 629 494
28 809 663
29 738 595
30 604 320
31 645 532
32 688 728
33 390 680
34 842 517
35 525 404
36 697 719
37 837 853
38 741 585
39 628 506
40 354 280
41 726 834
42 721 635
43 448 363
44 963 702
45 570 484
46 389 281
47 708 380
48 522 439
49 771 523
50 778 645
51 402 318
52 817 717
53 730 655
54 814 925
55 743 362
56 568 298
57 555 132
58 937 637
59 542 678
60 822 854
61 711 697
62 603 310
63 864 674
64 850 879
65 280 198
66 502 417
67 764 610
68 729 822
69 307 258
70 896 958
71 774 732
72 684 446
73 691 793
74 905 888
75 664 411
76 875 981
77 477 226
78 607 624
79 823 875
80 558 543
81 410 237
82 712 692
83 804 678
84 491 317
85 475 280
86 881 872
87 371 269
88 520 562
89 590 431
90 420 245
91 811 647
92 501 507
93 684 647
94 739 969
95 854 717
96 844 268
97 520 823
98 866 966
99 720 645
100 564 493
101 653 541
102 831 758
103 694 804
104 661 469
105 417 251
106 683 364
107 648 479
108 255 225
109 836 934
110 811 960
111 888 492
112 111 261
113 866 827
114 822 876
115 672 419
116 750 974
117 545 420
118 140 267
119 925 749
120 505 282
121 701 477
122 427 272
123 293 242
124 757 929
125 856 861
126 848 809
127 682 480
128 804 638
129 349 234
130 426 194
131 499 348
132 692 700
133 331 318
134 738 644
135 967 900
136 604 563
137 523 429
138 834 880
139 714 644
140 720 566
141 606 512
142 840 926
143 786 354
144 667 709
145 670 508
146 456 202
147 827 687
148 871 800
149 556 837
150 810 589
151 537 360
152 456 275
153 688 214
154 346 163
155 880 569
156 849 686
157 617 420
158 308 466
159 734 534
160 880 638
161 751 763
162 616 485
163 719 744
164 371 346
165 379 420
166 565 524
167 377 138
168 864 721
169 823 535
170 614 761
171 659 383
172 867 910
173 717 895
174 865 793
175 588 663
176 595 488
177 408 268
178 713 863
179 652 409
180 920 394
181 819 367
182 653 425
183 618 425
184 657 290
185 709 839
186 739 541
187 909 732
188 375 283
189 278 391
190 843 873
191 443 229
192 756 702
193 365 293
194 821 637
195 477 191
196 401 102
197 359 290
198 791 751
199 938 787
200 709 469
201 329 178
202 559 543
203 916 882
204 758 635
205 855 710
206 797 783
207 428 238
208 802 823
209 797 464
210 217 29
211 939 745
212 911 889
213 829 679
214 678 523
215 709 224
216 550 429
217 821 933
218 798 482
219 686 615
220 735 658
221 736 452
222 721 459
223 818 377
224 421 479
225 768 524
226 498 441
227 601 454
228 851 574
229 662 511
230 526 279
231 447 601
232 889 610
233 891 930
234 483 278
235 728 845
236 451 299
237 308 215
238 643 486
239 758 963
240 439 458
241 830 608
242 387 233
243 837 948
244 561 410
245 721 439
246 778 640
247 826 627
248 644 724
249 515 465
250 728 651
251 666 474
252 759 94
253 525 419
254 927 692
255 597 228
256 448 218
257 575 349
258 921 883
259 406 172
260 840 847
261 787 660
262 301 545
263 668 880
264 594 416
265 791 861
266 740 581
267 438 272
268 500 259
269 600 464
270 965 412
271 614 568
272 829 644
273 556 518
274 660 676
275 525 793
276 623 482
277 369 195
278 805 668
279 820 936
280 879 886
281 713 679
282 728 597
283 833 719
284 720 473
285 744 569
286 739 539
287 644 446
288 896 850
289 393 284
290 708 586
291 694 612
292 446 162
293 383 213
294 738 669
295 726 702
296 749 641
297 499 397
298 335 416
299 828 951
300 634 368
301 428 272
302 664 226
303 772 626
304 602 466
305 592 394
306 627 408
307 754 637
308 643 572
309 699 167
310 880 867
311 493 305
312 698 630
313 819 640
314 819 577
315 860 866
316 303 326
317 523 470
318 780 647
319 630 579
320 893 578
321 545 465
322 782 723
323 639 609
324 313 267
325 810 893
326 407 307
327 808 666
328 621 427
329 841 943
330 761 602
331 513 340
332 335 150
333 807 564
334 715 936
335 818 834
336 881 870
337 300 679
338 628 402
339 342 373
340 819 859
341 830 955
342 651 493
343 378 248
344 675 424
345 700 76
346 398 303
347 799 623
348 812 806
349 770 860
350 776 711
351 661 839
352 829 895
353 392 227
354 891 565
355 569 489
356 824 716
357 827 436
358 527 376
359 838 855
360 537 432
361 468 195
362 714 807
363 553 104
364 448 331
365 846 863
366 815 689
367 639 332
368 748 365
369 577 442
370 572 461
371 431 304
372 731 688
373 415 256
374 933 687
375 461 392
376 827 906
377 786 737
378 825 375
379 583 513
380 793 632
381 540 374
382 604 445
383 303 293
384 802 534
385 443 308
386 298 118
387 500 353
388 818 892
389 487 444
390 744 657
391 297 237
392 660 436
393 580 450
394 591 411
395 877 905
396 377 314
397 868 819
398 750 857
399 643 336
400 770 609
401 873 547
402 746 949
403 771 418
404 736 788
405 676 521
406 934 919
407 817 914
408 493 28
409 322 227
410 746 617
411 754 950
412 523 296
413 860 848
414 466 251
415 772 307
416 396 235
417 796 976
418 792 646
419 417 267
420 871 536
421 285 205
422 474 257
423 854 648
424 602 262
425 950 821
426 698 633
427 760 957
428 418 292
429 690 602
430 669 683
431 565 562
432 832 811
433 797 722
434 594 646
435 597 358
436 944 834
437 776 610
438 719 441
439 832 908
440 702 378
441 604 494
442 757 832
443 647 400
444 601 706
DEMAND_SECTION
2 71
3 54
4 74
5 9
6 91
7 98
8 72
9 67
10 70
11 68
12 92
13 93
14 97
15 23
16 75
17 61
18 91
19 61
20 89
21 70
22 63
23 93
24 18
25 65
26 33
27 11
28 80
29 88
30 7
31 71
32 68
33 38
34 79
35 28
36 63
37 99
38 99
39 94
40 69
41 78
42 76
43 90
44 57
45 29
46 82
47 42
48 18
49 58
50 89
51 85
52 66
53 57
54 75
55 1
56 49
57 8
58 51
59 67
60 58
61 66
62 13
63 69
64 85
65 53
66 30
67 67
68 79
69 79
70 90
71 81
72 33
73 80
74 78
75 6
76 93
77 60
78 60
79 83
80 97
81 76
82 60
83 94
84 59
85 72
86 58
87 59
88 97
89 11
90 70
91 90
92 54
COVERAGE_SECTION
2 11 138 352 79 114 190 388 64 376 325 439 365 
3 11 246 303 50 318 380 204 418 437 307 347 400 
4 11 373 177 105 419 90 81 416 122 301 46 207 
5 11 276 162 304 269 227 382 27 107 238 441 287 
6 6 154 201 332 277 167 237 
7 11 164 10 339 133 396 193 51 197 316 8 346 
8 11 346 289 326 46 51 396 188 428 193 177 197 
9 11 170 248 73 144 444 32 103 351 19 36 132 
10 11 164 396 51 7 326 346 8 193 339 197 133 
11 11 323 78 93 219 274 434 319 291 312 426 429 
12 11 437 400 150 330 67 347 303 333 314 3 380 
13 11 322 433 377 71 350 198 52 356 192 22 283 
14 11 146 256 130 191 361 207 195 77 292 81 90 
15 11 115 75 344 179 182 171 443 392 72 440 47 
16 11 34 169 420 401 228 384 20 333 155 314 354 
17 11 68 41 362 235 442 185 404 103 398 178 73 
18 11 310 288 336 86 280 315 74 203 413 125 212 
19 11 274 430 144 248 444 132 93 32 11 36 175 
20 11 384 169 49 225 218 34 16 333 209 314 286 
21 11 58 374 254 44 232 160 320 23 63 423 187 
22 11 102 283 356 52 198 95 433 13 377 168 205 
23 11 160 423 232 241 247 272 194 313 63 228 91 
24 11 382 183 89 157 328 264 227 394 369 306 393 
25 11 334 94 116 402 239 411 427 173 124 263 417 
26 11 257 435 30 62 56 151 381 305 367 300 399 
27 11 39 276 162 238 342 107 441 5 141 176 229 
28 11 327 278 83 91 261 418 128 313 213 366 272 
29 10 38 282 266 410 330 285 67 290 140 400 
30 11 62 26 367 435 257 56 399 300 424 184 305 
31 11 101 229 39 405 214 145 342 308 27 141 238 
32 11 36 132 144 163 61 82 248 295 430 281 19 
33 11 337 231 59 262 88 275 97 175 224 92 434 
34 11 16 169 420 20 384 401 111 218 228 333 155 
35 11 253 137 66 117 297 358 360 381 48 216 244 
36 11 32 132 61 82 144 163 295 281 372 430 248 
37 11 359 260 365 60 340 125 190 413 79 315 114 
38 10 266 29 285 282 330 140 410 290 67 400 
39 11 27 141 162 238 276 342 441 31 107 229 176 
40 11 197 193 87 188 46 289 343 396 8 324 133 
41 11 235 68 17 185 362 442 178 398 103 404 349 
42 11 99 139 250 134 53 426 312 220 296 410 390 
43 11 364 375 131 387 385 297 371 84 51 236 10 
44 11 374 254 211 21 119 187 58 199 168 63 160 
45 11 355 100 370 176 321 379 393 441 269 273 304 
46 11 289 188 8 87 177 346 193 4 197 419 428 
47 11 440 106 55 15 368 171 115 75 344 245 438 
48 11 137 360 253 226 249 66 117 216 317 35 321 
49 9 225 20 384 286 186 159 218 169 285 
50 11 318 246 3 418 261 303 380 204 307 128 296 
51 11 326 346 8 396 10 428 371 289 46 164 385 
52 11 356 283 433 366 13 22 147 322 95 377 205 
53 11 250 220 99 134 390 294 139 42 296 281 307 
54 11 217 407 279 376 109 439 142 299 325 329 243 
55 11 368 47 143 440 106 415 403 181 223 15 245 
56 11 62 26 30 412 230 424 257 120 435 151 331 
57 11 363 195 255 361 292 146 408 77 14 256 268 
58 11 21 374 232 254 160 44 320 23 63 423 354 
59 11 175 434 444 78 19 170 11 248 275 88 274 
60 11 340 37 359 260 335 79 114 365 190 138 265 
61 11 82 295 281 132 372 36 32 294 430 192 53 
62 11 30 26 56 367 257 399 424 435 184 300 412 
63 11 156 423 213 205 147 160 95 272 168 23 366 
64 11 190 138 315 365 2 125 352 79 359 114 37 
65 10 421 237 108 391 123 409 201 69 6 332 
66 11 297 253 137 226 35 48 389 360 117 358 375 
67 11 400 330 437 303 410 3 204 12 307 29 246 
68 11 17 41 362 235 185 442 404 103 398 178 73 
69 10 324 123 391 409 383 237 129 40 421 197 
70 11 233 76 98 406 172 395 329 243 142 109 341 
71 11 322 377 13 350 198 433 192 161 52 356 22 
72 11 344 392 115 104 251 127 200 121 438 182 15 
73 11 103 362 404 68 17 185 41 351 163 235 9 
74 11 212 203 258 280 86 336 18 310 395 288 406 
75 11 115 179 15 344 182 443 392 171 306 338 72 
76 11 98 70 243 329 341 233 299 109 142 110 172 
77 11 414 256 422 146 361 191 195 14 268 207 234 
78 11 434 323 11 175 319 271 136 308 274 19 431 
79 11 114 138 2 340 388 190 60 352 325 359 37 
80 11 202 166 431 273 379 88 100 136 355 141 45 
81 11 90 416 105 207 4 373 353 242 177 419 191 
82 11 61 281 295 372 132 36 294 53 220 32 250 
83 11 278 327 28 366 147 213 261 91 418 318 128 
84 11 311 131 331 387 120 412 85 234 236 364 385 
85 11 234 152 422 120 414 236 311 268 267 84 385 
86 11 336 310 18 280 315 125 288 74 64 413 395 
87 11 188 40 46 343 197 193 289 4 8 177 242 
88 11 80 202 431 273 92 166 379 100 231 136 355 
89 11 24 264 369 382 394 393 227 157 183 328 269 
90 11 105 207 373 81 4 419 177 416 122 191 301 
91 11 128 313 194 28 272 327 418 278 380 247 261 
92 11 317 249 273 88 321 100 389 166 226 80 202 
93 11 426 312 139 219 99 291 274 42 430 281 11 
94 11 116 239 402 411 427 334 124 417 25 110 173 
95 11 205 168 283 356 156 52 22 147 63 213 102 
96 10 415 181 143 378 223 368 55 215 180 153 
97 11 275 149 170 9 351 444 59 248 263 73 175 
98 11 76 70 243 329 341 299 109 233 142 110 279 
99 11 139 42 250 53 134 220 426 312 390 296 294 
100 11 355 45 273 379 166 176 370 321 441 141 269 
101 9 31 405 214 229 308 145 39 319 271 
102 11 22 283 198 206 52 356 95 174 168 377 433 
103 11 73 362 185 68 17 41 404 351 235 178 163 
104 9 251 107 127 238 342 287 72 392 145 
105 11 373 90 4 81 419 207 177 122 301 416 267 
106 11 440 47 171 15 300 399 75 443 367 179 115 
107 9 238 342 104 251 27 276 5 162 287 
108 10 421 65 123 391 237 69 409 324 383 201 
109 11 142 329 243 217 279 299 341 54 439 407 376 
110 11 299 341 417 279 217 243 329 54 109 142 407 
111 11 420 34 401 16 354 155 169 357 320 228 20 
112 11 118 108 65 123 421 391 383 69 237 324 316 
113 11 397 413 126 148 260 174 125 288 432 37 315 
114 11 79 2 138 388 340 352 190 325 60 359 37 
115 11 344 75 15 182 392 179 72 443 171 287 306 
116 11 94 239 427 411 402 124 417 334 110 25 279 
117 11 216 360 244 253 137 35 48 369 66 321 89 
118 11 112 108 123 65 421 391 383 69 316 324 237 
119 11 211 187 199 254 44 374 168 148 174 425 95 
120 11 230 234 412 268 311 85 84 422 152 414 236 
121 9 200 127 284 222 72 251 438 104 221 
122 11 301 267 419 177 373 428 105 4 90 152 371 
123 10 391 69 237 324 409 421 108 65 383 129 
124 11 411 402 427 239 334 94 116 173 54 417 110 
125 11 315 365 413 190 64 359 37 260 310 86 336 
126 11 432 397 174 113 148 348 260 335 413 37 359 
127 9 251 121 104 200 145 72 107 342 229 
128 11 91 380 418 313 347 194 28 247 246 272 318 
129 5 409 343 242 293 87 
130 11 14 259 146 256 292 191 361 207 81 293 353 
131 11 387 331 84 151 358 311 297 381 43 364 412 
132 11 61 36 82 144 32 430 281 295 274 372 19 
133 11 316 7 383 197 193 40 396 164 324 188 339 
134 11 296 250 53 220 390 307 99 42 204 139 294 
135 11 406 258 203 212 74 436 425 233 18 288 280 
136 11 271 319 431 308 202 80 31 141 101 379 166 
137 11 48 253 360 66 117 35 216 226 249 389 297 
138 11 2 190 79 114 64 352 388 365 359 340 37 
139 11 99 42 250 53 426 312 134 220 93 390 281 
140 6 290 285 266 38 186 282 
141 11 441 39 379 176 27 162 276 166 31 355 238 
142 11 109 329 217 439 243 279 376 54 407 299 172 
143 11 181 223 368 55 378 415 403 47 440 357 106 
144 11 430 132 248 32 19 36 274 61 82 281 295 
145 9 229 405 214 342 127 251 31 238 107 
146 11 14 361 256 195 191 130 77 292 207 414 90 
147 11 213 366 156 83 327 278 356 28 52 283 205 
148 11 174 397 126 113 432 413 260 288 102 348 37 
149 11 97 275 170 9 351 263 444 73 103 248 185 
150 11 314 12 333 241 347 437 247 228 400 380 128 
151 11 381 358 331 387 131 257 35 26 297 244 253 
152 11 267 85 236 422 414 234 301 122 385 371 419 
153 11 215 302 309 184 255 424 415 62 367 399 30 
154 7 6 332 201 277 167 259 293 
155 11 354 320 401 228 420 232 16 23 314 241 34 
156 11 63 213 147 205 95 366 283 168 423 356 52 
157 11 183 328 24 306 338 264 382 394 89 182 305 
158 11 298 262 189 165 339 224 7 240 164 316 10 
159 6 286 186 140 225 285 49 
160 11 23 423 232 63 272 247 58 156 241 194 313 
161 11 404 163 71 198 377 206 322 13 362 350 17 
162 11 276 441 27 5 176 39 304 269 238 141 107 
163 11 36 32 161 295 404 61 82 132 71 73 192 
164 11 10 7 396 339 51 133 346 8 193 326 197 
165 11 298 339 240 224 164 7 10 158 375 43 51 
166 11 273 80 202 379 100 355 431 45 141 176 441 
167 10 154 196 6 332 259 277 201 292 130 293 
168 11 95 205 283 156 356 22 187 52 63 102 147 
169 11 384 16 34 20 333 314 228 420 401 49 150 
170 11 9 248 444 144 19 32 73 103 351 36 275 
171 11 443 179 75 300 106 15 338 115 306 182 440 
172 11 395 280 142 233 64 439 109 86 376 352 329 
173 11 178 334 398 235 263 124 185 402 41 349 411 
174 11 148 126 397 113 432 102 348 413 22 260 335 
175 11 434 78 444 59 19 11 274 323 248 430 144 
176 11 441 162 304 45 269 141 355 379 276 100 5 
177 11 419 4 373 105 122 301 289 46 90 428 267 
178 11 235 185 41 173 398 68 17 263 442 362 349 
179 11 443 75 182 115 306 338 15 171 344 392 328 
180 10 270 378 357 111 223 181 143 209 34 96 
181 10 223 378 143 357 403 368 55 415 209 96 
182 11 392 179 75 115 344 287 443 15 306 328 338 
183 11 328 157 24 306 382 338 264 89 394 287 227 
184 11 367 399 62 30 424 302 106 300 153 215 255 
185 11 41 235 178 68 17 362 103 398 351 73 442 
186 6 286 159 285 140 225 49 
187 11 119 211 254 168 374 95 205 44 199 63 174 
188 11 46 193 87 197 289 40 8 346 396 343 177 
189 11 298 339 316 158 7 133 383 164 165 10 396 
190 11 64 365 138 2 125 315 359 79 37 114 260 
191 11 256 207 14 90 146 414 77 81 105 130 373 
192 11 350 372 295 322 71 294 13 61 82 377 433 
193 11 197 188 40 396 87 46 8 289 346 133 326 
194 11 313 247 272 91 128 347 380 28 241 418 327 
195 11 361 146 77 14 256 292 130 191 414 422 207 
196 11 167 259 292 154 332 6 130 277 386 201 14 
197 11 193 40 188 87 396 46 8 289 133 346 343 
198 11 377 13 71 322 433 206 22 102 161 52 350 
199 11 425 119 211 436 187 148 174 288 397 113 18 
200 9 121 284 222 127 438 221 245 72 251 
201 8 6 154 332 237 277 409 421 65 
202 11 80 166 431 273 379 88 136 100 355 141 45 
203 11 258 212 74 18 86 280 336 288 310 406 395 
204 11 307 296 303 3 246 50 134 410 318 67 390 
205 11 95 168 283 156 356 147 63 52 213 22 366 
206 11 348 198 208 102 432 377 22 161 335 71 13 
207 11 90 105 191 81 373 256 4 419 416 122 301 
208 11 335 348 432 60 206 265 340 260 37 442 126 
209 11 218 357 20 403 221 49 225 34 384 169 222 
210 11 386 332 65 6 154 201 421 167 196 108 237 
211 11 119 187 199 44 254 374 425 168 148 174 95 
212 11 74 203 258 280 86 18 336 310 395 406 288 
213 11 147 366 156 83 327 28 278 63 272 91 356 
214 6 405 145 229 101 31 342 
215 11 153 302 309 184 415 255 424 367 399 62 252 
216 11 117 360 244 137 253 48 369 35 321 393 370 
217 11 279 54 109 299 407 142 243 329 341 439 376 
218 11 209 20 49 225 384 357 34 169 221 403 16 
219 11 291 429 312 426 93 290 42 139 99 11 282 
220 11 53 390 250 294 134 99 296 139 42 307 281 
221 11 222 245 438 284 200 121 403 72 127 209 344 
222 10 284 200 221 438 245 121 72 127 251 344 
223 10 378 181 143 357 403 368 55 415 209 180 
224 11 240 165 389 92 226 249 375 66 317 298 48 
225 9 49 20 286 186 159 384 285 218 169 
226 11 389 48 66 137 249 253 317 360 297 35 117 
227 11 382 269 304 393 5 24 89 369 370 162 183 
228 11 155 314 401 16 241 354 320 420 150 333 169 
229 9 145 405 214 342 31 101 238 39 107 
230 11 412 120 268 311 234 56 85 84 422 331 414 
231 11 88 33 92 59 431 80 224 202 273 166 240 
232 11 160 23 320 155 354 228 423 58 241 247 401 
233 11 70 395 172 74 98 406 212 280 142 329 76 
234 11 85 120 422 268 152 311 414 236 84 230 412 
235 11 41 185 68 178 17 398 442 362 349 173 103 
236 11 385 371 152 267 85 364 428 301 122 234 311 
237 9 409 391 421 123 65 69 201 129 324 
238 10 107 342 27 276 39 104 251 162 5 229 
239 11 427 116 411 402 94 124 417 334 110 54 279 
240 11 224 389 226 375 165 66 249 92 48 317 297 
241 11 247 150 194 314 313 347 23 272 128 228 91 
242 6 353 416 343 293 81 4 
243 11 329 299 341 109 279 142 217 110 54 98 407 
244 11 117 216 394 360 264 305 35 89 369 253 137 
245 11 438 221 222 200 284 72 121 344 15 115 403 
246 11 50 318 3 303 418 380 204 261 307 128 347 
247 11 194 313 272 241 91 128 347 380 423 23 418 
248 11 144 19 32 9 444 170 430 274 36 132 61 
249 11 317 48 226 321 389 137 360 92 253 66 216 
250 11 53 99 220 134 139 42 390 294 296 307 281 
251 9 104 127 107 342 238 72 145 121 287 
252 11 345 309 153 215 302 96 363 57 255 415 184 
253 11 137 35 360 48 117 66 216 297 226 244 358 
254 11 374 44 187 211 21 58 119 63 168 160 205 
255 11 424 302 56 62 184 230 30 153 412 268 57 
256 11 191 14 146 207 77 361 130 414 90 195 81 
257 11 26 435 151 30 381 62 305 56 358 300 244 
258 11 203 212 74 18 406 86 288 280 336 310 135 
259 8 130 292 277 167 293 14 353 146 
260 11 37 359 365 60 413 125 340 190 335 315 79 
261 11 318 418 50 278 28 246 327 83 91 128 380 
262 11 158 298 337 224 165 189 231 33 240 339 92 
263 11 351 178 173 185 235 334 41 103 68 398 362 
264 11 394 89 24 305 157 183 328 369 382 244 306 
265 11 349 340 60 114 79 325 335 208 388 398 442 
266 10 38 285 29 282 140 330 290 410 67 186 
267 11 301 122 152 419 373 428 105 177 236 90 371 
268 11 120 234 422 85 230 414 77 412 152 311 84 
269 11 304 227 382 5 393 176 162 370 276 441 369 
270 10 180 111 357 378 223 181 420 34 401 354 
271 11 136 319 308 101 31 323 431 78 141 202 80 
272 11 194 313 247 91 423 128 28 327 278 213 241 
273 11 166 80 202 100 379 355 45 431 176 141 321 
274 11 430 19 144 93 132 11 248 281 82 61 36 
275 11 97 149 170 9 59 444 248 175 351 19 434 
276 11 162 27 5 238 441 39 107 304 176 269 342 
277 5 293 6 154 353 242 
278 11 327 28 83 261 91 366 213 418 147 128 313 
279 11 217 54 109 299 243 341 142 329 407 110 439 
280 11 86 336 310 395 74 18 172 315 64 212 125 
281 11 82 61 372 295 294 53 132 220 250 99 139 
282 11 29 38 266 290 410 140 285 330 291 67 429 
283 11 356 52 95 205 22 168 147 366 433 156 102 
284 9 200 222 121 221 438 245 127 72 251 
285 9 266 38 140 29 186 286 282 159 330 
286 6 186 159 285 140 225 49 
287 11 392 182 104 328 5 107 183 251 157 179 344 
288 11 18 310 336 86 413 113 203 74 315 280 125 
289 11 46 8 188 346 177 428 87 326 193 419 4 
290 9 140 282 429 291 29 266 38 219 285 
291 11 219 429 312 426 290 42 93 282 139 99 29 
292 11 130 361 146 259 195 14 256 191 77 167 196 
293 6 353 242 277 416 343 81 
294 11 220 390 53 372 250 134 281 99 296 82 139 
295 11 372 61 82 281 192 36 132 294 163 220 32 
296 11 307 134 204 390 220 250 53 410 303 3 42 
297 11 66 35 253 358 375 137 226 387 381 48 131 
298 11 165 339 158 189 7 164 10 316 133 224 396 
299 11 341 243 329 279 109 110 217 142 54 407 98 
300 11 171 399 338 443 367 435 306 179 106 305 75 
301 11 122 267 419 177 373 428 105 4 90 152 371 
302 11 153 215 184 255 309 424 62 367 30 399 56 
303 11 3 246 437 204 400 67 50 307 318 380 330 
304 11 269 227 5 382 176 162 276 393 441 370 24 
305 11 394 264 244 157 435 89 338 306 24 183 328 
306 11 338 157 183 328 443 179 182 24 264 394 75 
307 11 204 296 134 303 390 410 3 246 50 220 318 
308 10 319 271 101 323 31 136 429 11 214 219 
309 11 153 215 302 345 252 255 184 424 57 415 363 
310 11 336 86 18 280 315 288 125 413 64 74 365 
311 11 84 120 234 85 412 331 230 236 131 268 152 
312 11 426 291 219 139 93 42 99 429 250 53 134 
313 11 194 91 272 128 247 28 347 380 327 418 278 
314 11 150 333 228 241 12 169 384 16 247 347 437 
315 11 125 365 64 190 413 310 336 86 359 37 260 
316 11 133 383 7 324 339 197 69 40 189 193 164 
317 11 249 321 48 226 360 137 92 389 100 45 216 
318 11 50 246 418 3 261 380 303 204 128 307 91 
319 11 308 271 136 323 101 31 78 11 429 219 431 
320 11 354 155 232 401 228 420 23 160 16 241 58 
321 11 317 370 249 45 100 355 360 48 216 393 369 
322 11 13 71 350 377 433 198 192 52 356 366 83 
323 11 11 319 78 308 219 271 429 291 136 434 93 
324 10 69 383 123 391 409 40 129 197 237 133 
325 11 388 352 114 376 79 407 2 138 439 54 340 
326 11 346 51 8 428 371 289 396 46 385 177 10 
327 11 28 278 83 91 261 366 213 418 128 147 313 
328 11 183 157 24 306 382 338 264 287 89 182 227 
329 11 243 109 299 341 142 217 279 54 98 110 439 
330 11 67 400 437 410 29 38 303 12 266 204 282 
331 11 131 387 151 84 358 311 381 412 120 297 230 
332 9 154 6 201 167 386 277 237 65 259 
333 11 314 150 384 169 12 228 16 20 241 49 437 
334 11 402 94 173 411 124 427 239 116 25 178 263 
335 11 208 60 340 260 37 432 348 359 265 126 365 
336 11 86 310 18 280 315 288 125 74 413 64 395 
337 11 33 262 231 158 224 59 88 275 240 97 92 
338 11 306 443 157 179 183 328 182 300 171 24 75 
339 11 7 164 298 10 133 165 316 189 396 51 193 
340 11 60 79 114 37 359 260 335 138 365 190 265 
341 11 299 243 329 110 279 109 217 142 54 98 417 
342 9 238 107 229 27 145 251 39 104 276 
343 7 242 87 416 353 4 129 81 
344 11 115 15 75 392 182 72 179 443 287 171 104 
345 11 252 309 153 215 363 302 57 255 424 408 184 
346 11 8 326 51 289 428 46 396 188 371 193 177 
347 11 380 128 3 418 194 313 437 91 246 247 303 
348 11 208 432 206 335 126 60 260 102 37 340 174 
349 11 398 265 442 235 208 340 41 60 325 114 17 
350 11 322 13 71 192 433 377 52 83 198 366 356 
351 11 263 103 185 73 178 362 41 235 68 17 9 
352 11 2 376 388 439 138 325 114 79 407 64 190 
353 7 242 416 293 81 343 4 90 
354 11 155 320 401 420 228 232 16 23 34 111 314 
355 11 45 100 176 370 379 273 321 166 441 269 304 
356 11 52 283 366 433 147 22 95 205 13 213 156 
357 10 209 218 403 223 378 181 34 111 20 143 
358 11 381 151 35 297 387 331 131 253 66 117 244 
359 11 37 260 365 60 125 190 340 413 79 138 315 
360 11 216 117 137 48 253 35 244 321 66 226 249 
361 11 195 146 14 256 77 292 130 191 414 207 422 
362 11 103 68 17 73 404 41 185 235 442 178 161 
363 11 57 408 195 292 361 255 146 77 14 345 196 
364 11 385 43 236 371 84 51 326 428 311 131 387 
365 11 125 190 359 37 315 64 260 138 413 2 60 
366 11 147 83 213 278 327 28 52 356 156 283 433 
367 11 399 300 30 62 184 435 106 171 26 257 443 
368 11 55 143 47 440 403 415 106 181 223 378 245 
369 11 393 89 370 227 382 216 24 264 269 394 304 
370 11 393 369 45 321 269 355 227 304 100 89 176 
371 11 385 428 236 326 51 122 301 364 267 346 8 
372 11 295 82 281 294 61 192 220 53 390 250 132 
373 11 105 4 419 90 177 81 122 301 207 267 416 
374 11 254 44 21 58 187 211 119 63 160 168 205 
375 11 43 297 66 387 131 389 226 364 35 358 253 
376 11 439 352 407 388 325 2 54 142 138 217 109 
377 11 13 71 198 322 433 350 52 22 356 161 192 
378 10 223 181 143 357 403 368 55 415 209 180 
379 11 166 141 273 100 176 355 441 45 202 80 162 
380 11 347 128 418 3 246 50 318 303 91 313 194 
381 11 358 151 35 244 257 331 387 117 253 297 131 
382 11 227 24 269 89 304 183 328 393 5 369 157 
383 11 324 316 69 133 123 40 197 391 193 409 87 
384 11 20 169 333 49 225 16 34 314 218 150 12 
385 11 236 371 364 428 152 267 326 122 301 51 85 
386 10 332 6 154 201 167 65 421 237 196 277 
387 11 131 331 358 84 151 297 381 311 43 375 364 
388 11 325 352 2 114 376 79 138 439 407 190 54 
389 11 226 66 48 249 137 317 253 297 240 360 35 
390 11 220 294 53 134 250 296 307 204 99 42 139 
391 10 123 69 237 409 324 421 65 108 129 383 
392 11 182 287 344 115 75 72 179 104 15 251 443 
393 11 369 370 89 227 269 382 304 24 45 216 264 
394 11 264 305 89 24 157 183 244 328 369 306 382 
395 11 172 280 233 74 86 336 64 212 310 142 315 
396 11 8 193 346 51 10 197 188 326 164 289 46 
397 11 113 148 126 174 413 432 260 288 125 37 18 
398 11 349 235 442 41 178 17 68 265 185 173 208 
399 11 367 300 30 62 184 106 171 435 26 443 338 
400 11 67 437 330 303 12 3 410 204 246 307 347 
401 11 420 155 354 16 228 320 34 169 111 314 232 
402 11 411 427 239 94 124 116 334 417 173 110 54 
403 11 221 209 245 438 368 357 223 55 222 143 218 
404 11 161 362 17 68 73 103 41 163 442 185 235 
405 6 214 145 229 101 31 342 
406 11 135 212 258 203 74 233 70 395 280 172 86 
407 11 54 376 439 217 279 325 352 388 142 109 2 
408 11 363 196 57 292 167 195 259 361 146 130 14 
409 7 237 391 129 123 69 324 421 
410 11 67 330 204 307 29 296 400 282 134 303 42 
411 11 402 427 239 124 94 116 334 417 110 54 173 
412 11 230 120 311 84 234 268 56 331 85 131 387 
413 11 125 315 260 365 113 359 37 310 190 336 397 
414 11 422 152 77 85 191 234 267 268 256 207 301 
415 11 143 55 368 181 96 223 378 47 440 215 106 
416 9 242 353 81 343 4 90 105 293 373 
417 11 110 239 341 299 427 116 279 411 217 243 54 
418 11 318 50 128 380 246 261 91 3 28 347 278 
419 11 177 122 373 301 4 105 90 267 428 289 46 
420 11 401 16 155 34 354 228 111 320 169 314 384 
421 10 65 237 391 108 123 409 201 69 324 6 
422 11 414 85 234 152 268 77 267 120 191 256 236 
423 11 23 272 63 160 194 247 313 156 213 91 28 
424 11 255 62 56 30 184 302 230 26 367 399 412 
425 11 436 199 288 258 203 18 119 211 212 74 135 
426 11 312 139 93 291 219 42 99 429 250 53 134 
427 11 239 411 402 116 94 124 417 334 110 54 279 
428 11 371 326 122 301 346 419 8 177 289 267 385 
429 11 291 219 290 312 426 282 42 93 140 139 29 
430 11 274 19 144 132 93 61 82 281 36 248 32 
431 11 80 202 166 136 88 273 271 379 141 319 100 
432 11 126 348 335 208 260 397 113 174 148 37 60 
433 11 13 322 377 52 350 71 356 198 283 366 22 
434 11 175 78 11 323 444 59 19 274 319 271 136 
435 11 257 26 305 300 30 62 367 399 394 338 264 
436 11 425 199 288 258 203 18 212 74 135 310 336 
437 11 400 67 303 330 12 3 347 380 246 204 410 
438 11 245 222 221 200 284 72 121 344 15 115 127 
439 11 376 352 407 142 388 2 54 109 217 325 138 
440 11 47 106 15 171 55 368 75 115 344 179 443 
441 11 176 162 141 276 27 39 304 379 269 5 45 
442 11 398 17 68 41 349 235 265 208 185 404 362 
443 11 179 338 75 171 306 182 115 15 300 157 328 
444 11 175 19 248 170 434 59 144 274 9 430 78 
DEPOT_SECTION
   1
   -1
EOF
