NAME :  X-n449-kX-w44-c7.cctp
COMMENT : 	Adapted by Maziero, Usberti and Cavellucci from the Uchoa, Pecin, Pessoa, Poggi, Subramanian, and Vidal (2013)
TYPE :  CCTP
DIMENSION :    232
EDGE_WEIGHT_TYPE : 	EUC_2D	
CAPACITY : 	777
VERTICES_WITHIN_COVERAGE :  7
VERTICES_WITH_DEMAND : 	44
NODE_COORD_SECTION
1 0 0
2 300 71
3 434 4
4 257 798
5 718 17
6 879 206
7 929 330
8 353 793
9 389 540
10 202 55
11 417 253
12 921 572
13 94 788
14 870 327
15 281 124
16 411 288
17 882 116
18 307 240
19 359 935
20 352 858
21 502 776
22 269 33
23 440 814
24 850 461
25 909 404
26 339 458
27 767 535
28 86 47
29 758 532
30 426 282
31 534 10
32 826 830
33 911 79
34 270 791
35 391 794
36 908 787
37 929 858
38 938 281
39 941 579
40 752 162
41 579 68
42 323 570
43 238 700
44 853 970
45 329 805
46 291 631
47 286 481
48 855 547
49 205 741
50 462 532
51 340 54
52 936 46
53 339 10
54 324 595
55 190 659
56 900 929
57 228 662
58 897 292
59 958 546
60 312 781
61 320 557
62 470 746
63 439 15
64 703 31
65 170 723
66 801 849
67 907 964
68 490 37
69 311 927
70 210 657
71 379 863
72 355 233
73 974 313
74 846 911
75 997 585
76 407 584
77 775 225
78 244 761
79 433 941
80 771 792
81 540 762
82 392 298
83 748 473
84 882 844
85 475 831
86 430 827
87 388 981
88 767 488
89 414 436
90 308 756
91 985 906
92 45 137
93 363 607
94 425 296
95 714 61
96 991 139
97 320 583
98 437 745
99 362 207
100 216 807
101 284 793
102 380 466
103 879 171
104 23 49
105 304 234
106 304 700
107 525 767
108 997 129
109 200 771
110 965 27
111 994 807
112 912 153
113 367 905
114 247 86
115 951 396
116 622 68
117 435 179
118 829 919
119 302 515
120 831 70
121 917 369
122 876 779
123 485 294
124 439 979
125 373 336
126 445 807
127 898 130
128 795 991
129 482 33
130 906 903
131 582 69
132 570 103
133 816 427
134 286 816
135 344 97
136 763 175
137 947 357
138 283 214
139 716 484
140 349 425
141 658 154
142 722 540
143 457 775
144 321 894
145 438 207
146 666 5
147 790 584
148 835 367
149 460 1
150 531 101
151 351 913
152 432 956
153 75 828
154 724 22
155 921 532
156 969 601
157 334 591
158 979 904
159 910 520
160 886 385
161 539 808
162 836 442
163 324 85
164 387 412
165 484 17
166 427 591
167 933 93
168 130 810
169 255 761
170 336 521
171 703 45
172 760 984
173 889 715
174 958 642
175 850 134
176 272 789
177 417 46
178 411 740
179 925 548
180 980 299
181 330 462
182 829 128
183 966 431
184 249 633
185 24 912
186 300 206
187 5 919
188 862 885
189 251 533
190 788 560
191 365 273
192 879 619
193 77 850
194 475 14
195 382 331
196 307 581
197 996 593
198 977 840
199 990 13
200 458 762
201 746 109
202 828 428
203 798 863
204 947 294
205 333 230
206 813 426
207 943 15
208 868 284
209 443 317
210 815 983
211 969 727
212 740 523
213 438 242
214 162 816
215 178 67
216 843 80
217 53 823
218 554 145
219 962 430
220 307 292
221 799 580
222 273 266
223 507 816
224 254 162
225 427 857
226 339 265
227 303 930
228 866 302
229 337 390
230 933 496
231 267 811
232 821 367
DEMAND_SECTION
2 35
3 74
4 5
5 43
6 27
7 97
8 68
9 77
10 78
11 8
12 66
13 15
14 92
15 3
16 90
17 39
18 57
19 29
20 82
21 81
22 4
23 90
24 9
25 95
26 6
27 82
28 66
29 50
30 83
31 48
32 4
33 54
34 45
35 64
36 77
37 96
38 56
39 44
40 25
41 18
42 23
43 74
44 69
45 8
COVERAGE_SECTION
2 7 163 51 22 135 114 15 53 
3 7 63 149 194 177 165 129 68 
4 7 34 231 176 101 134 169 78 
5 5 154 64 171 95 146 
6 7 103 112 127 175 208 58 17 
7 7 137 204 121 73 38 58 14 
8 6 45 35 60 90 20 101 
9 7 76 170 166 61 42 93 50 
10 5 215 114 22 2 15 
11 7 213 30 16 94 82 145 191 
12 7 39 179 155 59 159 156 192 
13 6 168 153 217 193 214 65 
14 7 228 208 58 148 7 160 121 
15 6 224 114 2 163 135 186 
16 7 30 94 82 11 209 191 195 
17 7 127 175 33 112 216 182 103 
18 7 105 205 138 186 226 222 72 
19 6 151 113 69 87 144 227 
20 7 71 144 113 151 45 8 35 
21 7 107 81 223 62 143 200 161 
22 7 2 114 10 51 53 163 15 
23 7 126 86 85 143 225 35 200 
24 5 162 202 133 206 25 
25 6 160 121 115 219 137 183 
26 7 181 140 102 47 170 164 119 
27 7 29 212 190 142 88 147 221 
28 4 104 215 92 10 
29 6 27 212 142 190 88 83 
30 7 94 16 11 82 209 213 123 
31 6 165 68 129 194 41 149 
32 6 66 203 84 188 80 122 
33 6 167 52 17 127 216 207 
34 7 176 101 4 231 134 169 78 
35 7 8 86 23 126 178 45 98 
36 7 122 84 37 173 211 198 111 
37 6 84 130 198 158 188 36 
38 7 204 58 180 73 7 208 228 
39 7 12 179 156 59 155 75 197 
40 6 136 201 77 182 141 175 
41 5 131 132 116 150 31 
42 7 61 97 196 157 54 170 93 
43 6 57 70 49 78 55 169 
44 6 210 67 118 74 56 128 
45 7 8 60 134 101 90 20 176 
46 7 184 54 196 97 157 42 57 
47 7 119 181 26 189 170 61 140 
48 6 159 221 155 190 179 12 
49 7 109 65 78 43 169 100 4 
50 2 166 9 
51 6 163 2 135 53 22 177 
52 5 207 110 33 167 199 
53 7 51 2 22 163 177 135 3 
54 7 157 97 196 42 61 93 46 
55 4 70 57 43 184 
56 5 130 67 74 188 44 
57 5 70 184 55 43 46 
58 7 208 228 38 14 7 204 73 
59 7 179 39 155 12 75 159 156 
60 7 90 45 101 176 8 34 134 
61 7 42 97 196 157 54 170 119 
62 4 200 143 98 21 
63 7 3 149 194 177 165 129 68 
64 5 171 5 154 95 146 
65 5 49 109 55 43 70 
66 4 203 32 80 188 
67 4 56 44 130 74 
68 6 129 165 194 149 31 63 
69 5 227 144 151 19 113 
70 4 57 55 184 43 
71 7 20 113 225 151 86 144 35 
72 7 205 99 226 191 18 105 186 
73 5 180 204 7 38 137 
74 5 118 188 56 44 130 
75 7 197 156 59 39 174 12 179 
76 3 166 9 93 
77 2 136 40 
78 7 169 4 34 176 49 109 101 
79 4 152 124 87 19 
80 3 66 32 203 
81 4 107 21 161 223 
82 6 16 94 195 191 30 125 
83 6 88 139 212 29 27 142 
84 7 188 37 32 36 130 122 74 
85 7 223 126 23 86 225 143 21 
86 7 23 126 225 85 35 143 71 
87 6 124 152 19 79 151 113 
88 6 83 212 29 27 139 142 
89 4 164 102 140 26 
90 4 60 101 176 34 
91 4 158 198 37 130 
92 2 104 28 
93 5 157 54 97 76 42 
94 7 30 16 209 82 11 195 213 
95 5 171 64 154 5 201 
96 5 108 167 112 127 33 
97 7 42 54 196 157 61 93 46 
98 6 178 200 62 143 126 35 
99 6 72 205 186 226 18 105 
100 7 109 4 231 78 214 34 176 
101 7 176 34 134 231 4 60 169 
102 7 26 89 181 140 164 170 9 
103 7 6 112 127 175 17 182 167 
104 3 28 92 215 
105 7 18 186 138 205 222 226 72 
106 3 90 43 46 
107 6 81 21 161 223 62 200 
108 5 96 167 112 33 127 
109 7 49 100 78 169 65 214 4 
110 5 207 199 52 167 33 
111 7 198 37 211 36 158 91 84 
112 7 127 103 17 6 167 175 33 
113 7 151 19 71 144 20 69 227 
114 7 15 2 10 22 215 224 163 
115 5 219 183 137 25 121 
116 5 131 41 132 146 171 
117 4 145 213 11 99 
118 4 74 188 44 203 
119 7 170 47 61 189 42 181 196 
120 6 216 182 175 17 33 127 
121 6 137 160 25 7 115 14 
122 6 36 84 173 32 37 66 
123 3 209 30 94 
124 4 152 79 87 19 
125 3 195 82 16 
126 7 23 86 143 85 200 225 35 
127 7 17 112 103 175 167 33 182 
128 4 210 172 44 118 
129 6 68 165 194 149 63 3 
130 5 56 188 37 67 74 
131 5 41 132 116 150 31 
132 5 41 131 150 218 116 
133 4 206 202 162 24 
134 7 231 101 34 176 4 45 60 
135 4 163 51 2 15 
136 6 40 77 201 182 175 141 
137 4 7 121 115 73 
138 7 186 105 18 205 222 224 72 
139 5 83 212 88 142 29 
140 6 26 229 164 181 102 89 
141 4 116 40 201 132 
142 3 212 29 27 
143 7 200 62 126 98 23 21 178 
144 6 69 151 227 113 20 19 
145 6 117 213 11 30 99 16 
146 5 64 5 171 154 95 
147 3 221 190 27 
148 5 232 14 160 202 133 
149 7 194 63 3 165 129 68 177 
150 4 132 218 41 131 
151 6 113 19 144 69 227 20 
152 4 79 124 87 19 
153 6 193 217 13 168 214 185 
154 5 5 64 171 95 146 
155 7 159 179 230 12 59 39 48 
156 7 197 75 39 174 12 59 179 
157 6 54 97 42 196 93 61 
158 4 91 198 37 130 
159 7 155 179 230 12 59 48 39 
160 5 25 121 148 14 115 
161 4 223 107 81 21 
162 5 202 24 133 206 148 
163 6 135 2 51 15 22 53 
164 5 89 140 102 229 26 
165 6 194 129 68 149 63 31 
166 2 76 9 
167 6 33 52 127 17 112 108 
168 6 214 13 153 193 217 109 
169 6 78 176 34 4 101 231 
170 7 119 61 42 9 181 26 47 
171 5 64 95 154 5 146 
172 3 128 210 44 
173 3 122 36 211 
174 6 156 197 39 75 12 192 
175 7 182 17 103 127 216 112 120 
176 7 34 101 4 231 134 169 78 
177 4 63 3 149 129 
178 5 98 200 35 143 62 
179 7 155 12 159 59 39 230 156 
180 5 73 204 38 7 137 
181 7 26 140 47 102 170 119 229 
182 6 175 216 17 120 103 127 
183 3 219 115 25 
184 5 57 46 70 55 43 
185 5 187 193 217 153 13 
186 7 138 105 18 205 72 99 224 
187 5 185 193 217 153 13 
188 7 74 84 118 130 56 32 203 
189 5 119 47 61 196 42 
190 5 221 147 27 29 212 
191 4 226 82 72 16 
192 2 12 39 
193 6 153 217 13 168 185 214 
194 6 165 129 149 68 63 3 
195 3 125 82 16 
196 7 97 42 54 61 157 46 93 
197 7 75 156 39 59 174 12 179 
198 7 111 37 158 91 36 84 130 
199 5 110 207 52 167 33 
200 7 143 62 98 21 126 178 23 
201 5 40 95 136 171 182 
202 5 133 206 162 24 148 
203 4 66 32 118 74 
204 6 38 73 180 7 58 137 
205 7 72 18 105 226 99 186 138 
206 4 133 202 162 24 
207 5 110 52 199 33 167 
208 7 228 58 14 38 7 6 204 
209 5 94 30 16 123 82 
210 5 128 44 172 118 74 
211 6 173 111 36 174 122 198 
212 6 29 142 27 88 139 83 
213 7 11 145 30 16 94 117 123 
214 6 168 100 109 13 49 153 
215 5 10 114 28 22 15 
216 6 120 182 17 175 33 127 
217 6 153 193 13 168 185 187 
218 4 132 150 41 131 
219 3 183 115 25 
220 3 226 222 18 
221 3 147 190 27 
222 4 18 220 105 138 
223 5 161 85 21 107 81 
224 5 15 138 186 114 105 
225 6 86 23 71 126 85 35 
226 5 191 72 205 18 220 
227 4 69 144 151 19 
228 7 208 14 58 7 148 38 232 
229 4 140 164 125 26 
230 7 159 155 179 59 219 183 12 
231 7 4 34 134 176 101 100 169 
232 5 148 133 206 202 14 
DEPOT_SECTION
   1
   -1
EOF
