NAME :  X-n439-kX-w175-c9.cctp
COMMENT : 	Adapted by Maziero, Usberti and Cavellucci from the Uchoa, Pecin, Pessoa, Poggi, Subramanian, and Vidal (2013)
TYPE :  CCTP
DIMENSION :    409
EDGE_WEIGHT_TYPE : 	EUC_2D	
CAPACITY : 	12
VERTICES_WITHIN_COVERAGE :  9
VERTICES_WITH_DEMAND : 	175
NODE_COORD_SECTION
1 500 500
2 769 259
3 91 377
4 108 338
5 816 567
6 698 341
7 741 237
8 601 140
9 63 359
10 215 608
11 979 914
12 911 697
13 440 593
14 922 765
15 185 756
16 486 158
17 993 628
18 241 33
19 200 756
20 856 440
21 471 712
22 929 649
23 811 44
24 125 727
25 830 484
26 568 366
27 261 394
28 478 965
29 726 474
30 68 952
31 747 716
32 678 366
33 17 603
34 169 689
35 916 565
36 564 913
37 268 681
38 937 878
39 370 634
40 555 847
41 246 911
42 267 333
43 166 257
44 147 179
45 418 383
46 382 886
47 312 911
48 416 186
49 457 582
50 334 882
51 269 710
52 513 910
53 739 882
54 503 682
55 451 911
56 171 656
57 843 44
58 94 165
59 726 411
60 197 498
61 49 726
62 645 224
63 915 247
64 981 775
65 844 973
66 519 268
67 291 97
68 986 589
69 414 719
70 407 720
71 82 782
72 255 312
73 151 291
74 831 520
75 970 760
76 912 77
77 150 909
78 638 624
79 585 630
80 655 287
81 708 178
82 503 504
83 14 634
84 261 106
85 825 599
86 433 646
87 298 153
88 88 970
89 704 58
90 258 52
91 930 209
92 570 72
93 252 338
94 141 741
95 353 966
96 718 880
97 581 608
98 69 246
99 469 225
100 623 619
101 501 929
102 359 117
103 128 931
104 953 786
105 30 752
106 157 419
107 637 668
108 454 640
109 888 420
110 937 231
111 252 161
112 453 708
113 995 666
114 998 151
115 687 778
116 350 281
117 977 113
118 970 790
119 604 21
120 128 917
121 664 777
122 310 275
123 122 40
124 846 937
125 586 561
126 806 751
127 312 123
128 139 930
129 479 760
130 69 875
131 698 197
132 726 250
133 782 561
134 43 320
135 757 331
136 898 518
137 133 541
138 497 279
139 418 234
140 25 118
141 880 166
142 529 957
143 565 758
144 60 701
145 567 295
146 66 72
147 535 391
148 30 683
149 447 677
150 362 365
151 618 766
152 540 747
153 972 449
154 500 86
155 555 154
156 275 341
157 299 644
158 890 504
159 42 970
160 496 177
161 789 679
162 770 402
163 229 264
164 545 735
165 504 867
166 708 580
167 218 232
168 339 760
169 710 910
170 99 352
171 564 708
172 875 761
173 376 398
174 667 49
175 774 666
176 728 515
177 676 316
178 961 518
179 811 724
180 551 563
181 484 538
182 862 621
183 589 636
184 574 712
185 879 326
186 77 733
187 476 800
188 107 535
189 642 249
190 793 754
191 37 871
192 760 614
193 420 78
194 312 676
195 329 322
196 919 95
197 605 144
198 763 884
199 528 760
200 9 106
201 214 887
202 323 338
203 253 819
204 628 365
205 597 761
206 128 138
207 705 400
208 571 979
209 931 739
210 764 26
211 162 169
212 338 947
213 718 807
214 769 882
215 480 60
216 635 657
217 292 467
218 136 228
219 593 769
220 866 390
221 813 727
222 12 260
223 642 817
224 271 154
225 196 682
226 330 261
227 250 283
228 358 273
229 950 598
230 244 524
231 583 858
232 388 295
233 677 853
234 748 608
235 254 471
236 301 270
237 115 623
238 159 246
239 900 400
240 393 252
241 847 676
242 271 197
243 429 275
244 281 865
245 842 436
246 320 268
247 232 202
248 503 302
249 362 128
250 222 615
251 952 426
252 589 627
253 400 209
254 141 757
255 730 710
256 242 378
257 175 791
258 194 777
259 190 651
260 730 646
261 50 248
262 353 270
263 652 784
264 306 316
265 390 185
266 767 916
267 648 820
268 950 134
269 259 336
270 218 666
271 405 778
272 176 687
273 687 796
274 164 230
275 631 800
276 475 364
277 644 787
278 387 115
279 430 195
280 159 665
281 385 195
282 777 779
283 784 688
284 802 671
285 273 68
286 115 719
287 201 591
288 126 178
289 328 138
290 170 673
291 43 227
292 964 859
293 949 412
294 282 187
295 645 937
296 88 608
297 469 662
298 194 760
299 307 322
300 814 726
301 44 357
302 249 222
303 754 663
304 457 666
305 302 159
306 685 772
307 224 678
308 119 717
309 660 817
310 392 252
311 611 940
312 421 282
313 360 280
314 312 272
315 359 422
316 930 449
317 727 839
318 865 435
319 865 403
320 652 771
321 640 408
322 574 311
323 205 298
324 634 902
325 290 86
326 904 421
327 439 192
328 899 450
329 623 138
330 230 220
331 246 268
332 155 167
333 164 337
334 23 271
335 432 202
336 296 166
337 347 322
338 943 753
339 206 641
340 795 780
341 796 849
342 196 585
343 189 611
344 818 409
345 95 550
346 727 707
347 190 624
348 161 32
349 739 302
350 769 778
351 68 320
352 952 269
353 193 734
354 605 969
355 130 185
356 418 214
357 978 671
358 952 836
359 344 269
360 270 271
361 771 647
362 397 238
363 196 8
364 238 225
365 49 245
366 826 339
367 266 151
368 914 448
369 878 317
370 68 190
371 298 259
372 883 786
373 865 354
374 839 318
375 243 672
376 652 671
377 66 242
378 668 495
379 343 94
380 215 0
381 269 280
382 676 898
383 282 320
384 185 62
385 994 368
386 251 159
387 56 273
388 133 311
389 239 64
390 378 491
391 252 657
392 182 66
393 748 760
394 154 103
395 656 923
396 230 160
397 363 344
398 1 293
399 729 319
400 285 650
401 331 10
402 199 630
403 781 445
404 590 258
405 56 412
406 208 238
407 197 739
408 455 395
409 242 222
DEMAND_SECTION
2 1
3 1
4 1
5 1
6 1
7 1
8 1
9 1
10 1
11 1
12 1
13 1
14 1
15 1
16 1
17 1
18 1
19 1
20 1
21 1
22 1
23 1
24 1
25 1
26 1
27 1
28 1
29 1
30 1
31 1
32 1
33 1
34 1
35 1
36 1
37 1
38 1
39 1
40 1
41 1
42 1
43 1
44 1
45 1
46 1
47 1
48 1
49 1
50 1
51 1
52 1
53 1
54 1
55 1
56 1
57 1
58 1
59 1
60 1
61 1
62 1
63 1
64 1
65 1
66 1
67 1
68 1
69 1
70 1
71 1
72 1
73 1
74 1
75 1
76 1
77 1
78 1
79 1
80 1
81 1
82 1
83 1
84 1
85 1
86 1
87 1
88 1
89 1
90 1
91 1
92 1
93 1
94 1
95 1
96 1
97 1
98 1
99 1
100 1
101 1
102 1
103 1
104 1
105 1
106 1
107 1
108 1
109 1
110 1
111 1
112 1
113 1
114 1
115 1
116 1
117 1
118 1
119 1
120 1
121 1
122 1
123 1
124 1
125 1
126 1
127 1
128 1
129 1
130 1
131 1
132 1
133 1
134 1
135 1
136 1
137 1
138 1
139 1
140 1
141 1
142 1
143 1
144 1
145 1
146 1
147 1
148 1
149 1
150 1
151 1
152 1
153 1
154 1
155 1
156 1
157 1
158 1
159 1
160 1
161 1
162 1
163 1
164 1
165 1
166 1
167 1
168 1
169 1
170 1
171 1
172 1
173 1
174 1
175 1
176 1
COVERAGE_SECTION
2 9 7 132 349 399 135 374 131 366 81 
3 9 170 9 4 405 301 351 134 106 388 
4 9 170 388 3 351 9 333 73 134 301 
5 9 85 133 74 182 192 234 25 361 136 
6 9 32 177 399 349 207 135 80 204 59 
7 9 132 2 131 349 81 399 135 62 80 
8 9 197 329 155 92 62 160 174 131 81 
9 9 301 3 170 351 134 4 405 388 387 
10 9 250 287 343 402 342 347 339 259 270 
11 9 38 292 358 118 104 124 64 65 75 
12 9 209 22 338 241 14 357 172 75 113 
13 9 49 108 86 181 297 304 39 149 54 
14 9 338 209 104 372 172 75 118 64 12 
15 9 298 19 407 258 353 257 254 94 24 
16 9 160 327 279 99 155 335 154 48 356 
17 9 113 68 357 229 22 35 12 178 209 
18 9 90 389 380 285 363 384 392 325 84 
19 9 298 15 407 258 353 257 254 94 272 
20 9 318 245 109 319 328 344 25 220 326 
21 9 112 149 54 304 129 297 69 70 108 
22 9 12 357 229 17 113 182 68 35 241 
23 9 57 210 76 89 196 141 174 268 81 
24 9 308 286 94 254 186 34 272 15 353 
25 9 74 245 20 318 158 403 136 344 328 
26 9 147 322 204 145 321 248 276 32 66 
27 9 256 156 93 269 42 235 383 217 72 
28 9 101 142 55 52 208 36 165 46 95 
29 9 176 378 403 59 207 162 133 25 166 
30 9 88 159 103 120 128 130 191 77 201 
31 9 255 346 393 283 303 161 175 190 179 
32 9 6 207 177 204 321 59 399 80 135 
33 9 83 296 148 345 237 144 188 61 137 
34 9 272 290 280 225 56 259 353 270 307 
35 9 229 136 178 158 68 182 22 74 85 
36 9 52 311 142 231 101 208 40 354 324 
37 9 375 51 391 400 194 307 157 270 225 
38 9 292 358 11 104 118 372 124 64 14 
39 9 86 157 194 13 108 400 149 304 70 
40 7 231 165 36 52 219 275 143 
41 9 201 244 47 203 50 77 212 128 120 
42 9 269 156 93 383 72 299 264 256 227 
43 9 238 274 73 218 406 323 167 163 388 
44 9 332 211 355 288 206 218 274 58 238 
45 9 408 173 150 276 397 315 232 337 312 
46 9 50 55 47 212 95 244 271 165 28 
47 9 50 212 244 41 95 46 201 203 55 
48 7 279 335 327 265 253 356 281 
49 9 13 181 108 86 297 304 82 149 180 
50 9 47 46 244 212 95 41 203 201 55 
51 9 37 375 194 307 391 400 270 157 225 
52 9 101 165 142 36 55 28 40 231 208 
53 9 96 198 214 169 266 317 382 341 233 
54 9 297 21 304 112 149 108 171 164 152 
55 9 101 28 52 165 46 142 95 36 187 
56 9 280 290 259 272 34 225 347 339 402 
57 9 23 76 210 196 141 89 268 117 174 
58 9 288 370 355 206 44 332 211 218 291 
59 9 207 162 29 403 32 6 135 321 344 
60 9 230 235 137 342 106 287 188 217 10 
61 9 144 186 105 148 71 286 308 24 94 
62 9 189 131 80 404 81 132 197 329 8 
63 9 110 91 352 369 185 141 374 268 373 
64 9 75 118 104 338 14 209 358 292 372 
65 9 124 266 214 198 38 341 53 11 169 
66 9 138 248 145 99 322 404 243 160 312 
67 9 325 84 127 285 379 289 87 90 224 
68 9 229 17 35 178 113 357 22 136 158 
69 9 70 112 149 21 271 304 86 129 297 
70 9 69 112 271 149 21 304 86 168 129 
71 9 186 105 254 61 24 286 94 308 144 
72 9 42 269 93 383 227 156 381 360 331 
73 9 388 43 238 333 323 274 4 218 406 
74 9 25 5 158 133 136 85 20 245 403 
75 9 64 338 118 104 209 14 358 12 357 
76 9 196 268 117 57 141 23 114 91 110 
77 9 120 128 103 201 88 130 30 41 191 
78 9 100 216 107 252 376 183 79 97 125 
79 9 252 183 97 100 78 216 107 125 180 
80 9 177 189 62 6 404 132 399 32 204 
81 9 131 7 132 62 329 189 2 197 8 
82 9 181 180 49 125 13 147 408 390 97 
83 9 33 148 296 144 61 237 186 345 105 
84 9 67 325 285 367 389 224 90 127 386 
85 9 5 182 133 192 361 284 234 74 241 
86 9 108 304 149 297 13 39 112 49 69 
87 8 305 336 224 367 127 289 294 111 
88 9 30 159 103 128 120 77 130 191 201 
89 9 174 210 119 23 329 81 197 8 92 
90 9 285 389 18 325 84 67 380 384 363 
91 9 110 63 352 141 268 114 117 196 369 
92 9 119 154 8 197 155 329 215 174 16 
93 9 269 42 156 72 383 256 227 27 299 
94 9 254 24 308 286 15 353 298 407 34 
95 9 212 47 46 50 55 41 244 28 101 
96 9 53 169 317 198 382 233 214 266 213 
97 9 252 79 183 100 125 180 78 216 107 
98 9 377 261 365 387 291 334 370 222 218 
99 9 335 327 279 139 356 160 138 243 48 
100 9 78 252 183 79 216 97 107 376 125 
101 9 52 142 28 55 165 36 208 40 231 
102 5 249 278 379 289 127 
103 9 128 120 77 88 30 130 159 201 191 
104 9 118 64 75 338 14 358 209 372 292 
105 9 61 186 144 71 148 286 308 24 254 
106 9 3 333 60 170 256 4 405 27 235 
107 9 216 376 78 100 183 252 79 184 97 
108 9 86 304 297 149 13 49 54 112 21 
109 9 326 239 318 319 328 220 20 368 245 
110 9 91 63 352 141 268 114 369 185 117 
111 9 386 367 224 396 294 242 336 247 87 
112 9 21 149 69 304 70 297 54 129 86 
113 9 357 17 22 68 229 12 75 209 338 
114 9 117 268 91 196 110 76 141 63 352 
115 9 306 273 121 263 320 213 277 309 267 
116 9 313 228 262 359 226 246 314 122 232 
117 9 268 114 196 76 91 141 110 63 57 
118 9 104 64 75 338 358 14 209 292 372 
119 9 92 174 89 8 329 154 197 215 155 
120 9 103 128 77 88 30 130 201 159 191 
121 9 320 263 277 306 115 273 275 309 223 
122 8 314 236 246 371 226 359 116 360 
123 9 348 146 392 384 394 363 206 380 18 
124 8 65 266 214 198 341 38 53 11 
125 9 180 97 252 79 100 183 78 82 181 
126 9 190 221 300 179 340 282 350 393 283 
127 9 289 67 87 305 379 325 336 102 249 
128 9 103 120 77 88 30 201 130 159 41 
129 9 187 21 199 112 152 164 271 69 54 
130 9 191 120 30 103 77 128 71 88 159 
131 9 81 7 62 132 189 2 329 80 197 
132 9 7 2 349 131 399 81 80 177 189 
133 9 5 85 192 234 74 176 166 361 25 
134 9 351 301 9 387 398 334 170 4 222 
135 9 399 349 6 366 162 2 177 374 32 
136 9 158 35 178 74 328 368 25 316 20 
137 9 188 345 60 342 296 237 287 343 347 
138 9 248 66 99 243 145 312 322 276 139 
139 8 356 362 240 253 310 335 279 243 
140 9 200 146 58 370 206 291 288 123 355 
141 9 91 268 196 110 63 76 117 114 352 
142 9 101 208 52 28 36 354 311 55 165 
143 9 152 164 219 205 199 184 171 151 275 
144 9 61 148 186 286 105 308 24 83 71 
145 9 322 404 66 248 26 138 80 189 204 
146 9 140 123 200 206 394 58 348 392 370 
147 9 26 276 408 322 248 204 145 321 45 
148 9 144 61 83 105 186 33 286 296 308 
149 9 304 297 112 86 108 21 69 54 70 
150 9 397 173 337 202 195 315 45 299 264 
151 9 205 219 277 320 275 263 121 143 223 
152 9 164 199 143 171 184 219 205 129 54 
153 9 251 316 293 368 178 328 326 385 239 
154 9 215 92 16 193 155 160 8 278 197 
155 9 8 197 160 16 329 92 154 404 99 
156 9 42 269 383 93 72 299 264 202 256 
157 9 400 194 37 391 375 39 51 250 307 
158 9 136 328 74 368 25 35 316 20 178 
159 9 30 88 103 130 191 120 128 77 201 
160 9 16 99 327 155 279 335 48 356 154 
161 9 283 284 175 361 303 179 300 221 31 
162 8 403 59 344 207 135 245 29 366 
163 9 331 227 406 167 364 323 360 381 330 
164 9 152 143 199 171 184 205 219 54 129 
165 9 52 40 101 55 187 36 231 142 28 
166 9 234 192 176 260 133 78 361 100 378 
167 9 406 330 364 409 247 302 163 331 274 
168 9 271 70 69 51 194 203 37 244 50 
169 9 96 382 53 395 266 198 214 233 295 
170 9 4 3 9 351 388 301 134 333 405 
171 9 184 164 152 143 205 199 54 219 183 
172 9 372 14 209 338 126 300 221 12 179 
173 9 315 150 45 397 408 202 337 195 390 
174 9 89 119 329 92 210 8 197 81 23 
175 9 361 161 303 283 284 260 192 31 255 
176 9 29 378 166 133 403 234 5 74 59 
177 9 6 80 32 399 349 204 189 135 132 
178 9 136 35 153 158 68 316 229 368 251 
179 9 221 300 126 190 283 161 284 340 241 
180 9 125 97 181 252 79 82 183 100 49 
181 9 82 49 13 180 125 108 390 86 97 
182 9 85 241 5 22 35 284 12 229 161 
183 9 79 252 97 100 78 216 107 376 125 
184 9 171 164 143 152 205 219 199 151 54 
185 8 369 373 374 366 220 239 319 63 
186 9 61 144 286 308 24 71 105 94 254 
187 9 129 199 165 271 152 21 40 112 164 
188 9 345 137 296 237 60 342 287 343 33 
189 9 62 80 404 177 131 132 145 322 81 
190 9 126 340 282 221 350 179 300 393 31 
191 9 130 30 159 71 120 103 88 128 77 
192 9 234 361 260 303 175 133 166 85 161 
193 7 278 215 102 249 379 154 16 
194 9 157 400 37 51 391 375 39 168 307 
195 9 202 337 299 264 397 116 383 122 313 
196 9 76 268 117 141 57 114 91 23 110 
197 9 8 329 155 92 62 131 81 189 174 
198 7 214 53 266 96 341 317 169 
199 9 152 164 143 129 171 184 187 219 205 
200 9 140 146 58 370 206 291 123 288 355 
201 9 41 77 244 203 128 120 103 47 257 
202 9 195 299 264 337 397 383 150 156 42 
203 9 244 258 201 19 257 298 41 15 407 
204 9 321 32 26 177 6 322 80 207 145 
205 9 219 151 143 275 184 277 320 164 152 
206 9 288 332 58 394 44 211 355 370 218 
207 9 59 32 6 162 321 29 399 204 135 
208 9 354 142 311 36 295 101 52 28 324 
209 9 338 14 75 12 104 172 64 118 372 
210 9 23 89 57 174 76 119 81 196 329 
211 9 332 44 355 288 206 274 218 394 58 
212 9 95 47 50 46 41 244 55 201 28 
213 7 273 317 115 306 393 309 350 
214 7 198 53 266 341 96 317 169 
215 9 154 193 92 16 278 160 155 119 102 
216 9 107 376 78 100 183 252 79 97 184 
217 9 235 230 27 315 390 60 256 173 150 
218 9 274 238 43 355 44 288 211 332 73 
219 9 205 151 143 275 277 152 164 320 184 
220 8 319 239 373 109 318 326 20 245 
221 9 300 179 126 190 283 161 340 284 241 
222 9 334 398 261 365 291 387 377 98 134 
223 7 267 309 275 277 263 121 320 
224 9 367 111 386 87 336 305 294 396 242 
225 9 272 270 34 290 307 259 56 280 339 
226 7 246 359 314 122 262 116 228 
227 9 331 381 360 163 72 323 383 42 236 
228 9 262 313 116 359 226 232 246 310 240 
229 9 68 35 17 22 357 178 113 182 136 
230 9 60 235 217 342 287 10 250 343 137 
231 7 40 36 324 223 267 275 165 
232 9 313 312 228 116 240 262 310 243 337 
233 7 309 267 382 96 223 317 273 
234 9 192 260 361 166 303 133 175 85 5 
235 9 217 230 60 27 256 106 315 390 342 
236 7 122 314 371 246 226 360 381 
237 9 296 280 56 290 343 347 345 259 137 
238 9 43 274 218 73 406 167 44 355 323 
239 9 326 109 220 319 318 293 328 368 316 
240 8 310 362 139 228 312 232 243 313 
241 9 284 182 161 179 300 221 283 12 175 
242 6 294 302 409 247 336 111 
243 9 312 139 240 310 232 362 356 99 138 
244 9 203 47 50 41 201 212 46 168 95 
245 9 20 318 344 319 25 109 220 328 403 
246 8 314 122 226 236 359 371 116 262 
247 9 330 409 364 302 167 242 396 406 111 
248 9 138 66 145 276 322 243 99 312 26 
249 5 102 278 289 379 127 
250 9 10 402 339 287 343 347 342 259 270 
251 9 293 153 316 368 326 239 328 109 385 
252 9 79 183 97 100 78 216 107 125 180 
253 7 356 281 265 48 362 139 279 
254 9 94 24 15 286 308 257 298 258 353 
255 9 346 31 303 393 283 175 260 161 361 
256 9 27 93 269 156 42 72 383 299 323 
257 9 258 15 298 19 254 407 94 353 24 
258 9 298 19 15 257 407 353 254 94 203 
259 9 339 56 402 347 290 225 270 280 272 
260 9 303 361 234 192 175 346 255 161 283 
261 9 365 377 98 291 387 334 222 370 398 
262 9 228 359 116 313 226 246 314 122 232 
263 9 277 320 121 275 223 309 306 115 267 
264 9 299 195 383 202 156 122 337 42 314 
265 3 281 48 253 
266 9 198 214 53 169 96 341 124 317 382 
267 7 223 309 275 277 263 233 121 
268 9 117 196 114 76 141 91 110 63 352 
269 9 93 42 156 72 383 256 299 264 227 
270 9 307 375 225 339 259 391 402 272 56 
271 9 70 69 168 187 129 112 21 149 46 
272 9 34 290 225 280 56 259 270 307 353 
273 9 115 306 121 213 309 263 320 277 267 
274 9 238 43 218 406 44 167 355 211 73 
275 8 277 223 263 267 309 151 320 121 
276 9 408 45 147 248 138 26 312 243 173 
277 9 263 275 320 121 223 151 267 309 115 
278 5 102 249 379 193 289 
279 8 335 327 48 356 253 139 265 281 
280 9 290 56 34 272 259 225 347 339 402 
281 3 265 253 48 
282 6 350 340 190 393 126 221 
283 9 161 175 284 303 361 179 31 300 221 
284 9 161 283 175 361 241 303 179 300 221 
285 9 90 325 67 389 84 18 127 379 401 
286 9 308 24 94 186 254 144 34 61 272 
287 9 342 10 343 250 347 402 339 259 56 
288 9 355 44 332 58 211 206 218 370 274 
289 7 127 305 87 249 102 336 379 
290 9 280 272 34 56 225 259 339 270 402 
291 9 365 261 377 98 222 370 334 387 398 
292 9 358 38 11 118 104 64 75 14 338 
293 9 251 316 153 326 239 368 109 328 385 
294 6 242 336 305 224 87 367 
295 8 395 311 324 382 354 169 36 208 
296 9 237 345 33 188 83 137 280 148 56 
297 9 304 108 149 54 86 112 21 13 69 
298 9 19 15 258 407 353 257 254 94 34 
299 9 264 195 202 383 156 337 42 122 269 
300 9 221 179 126 190 283 161 284 340 241 
301 9 9 134 351 3 170 405 4 398 387 
302 8 409 364 330 247 167 242 406 331 
303 9 175 361 260 161 283 192 284 346 31 
304 9 297 149 108 86 112 21 54 69 70 
305 7 87 336 224 289 294 127 367 
306 9 115 121 273 320 263 277 213 309 267 
307 9 270 375 225 391 339 259 37 272 290 
308 9 286 24 94 186 254 34 144 272 280 
309 8 267 223 263 273 275 277 121 233 
310 7 240 362 139 228 312 232 262 
311 9 354 295 324 395 36 208 382 142 231 
312 9 243 232 240 310 139 362 313 228 356 
313 9 228 116 262 359 232 226 246 240 310 
314 7 122 246 236 371 226 359 116 
315 9 173 150 45 390 397 217 202 408 337 
316 9 368 328 251 326 153 293 109 239 318 
317 7 213 96 53 233 198 273 214 
318 9 20 245 109 319 328 326 220 239 368 
319 9 220 109 318 239 20 245 326 344 373 
320 9 121 263 277 306 151 115 275 273 223 
321 9 204 32 207 26 59 6 378 177 147 
322 9 145 26 404 66 248 204 138 80 147 
323 9 163 227 331 72 73 43 333 406 93 
324 7 395 295 382 311 233 231 36 
325 9 67 285 84 127 90 379 389 289 87 
326 9 109 239 328 368 316 318 319 293 251 
327 9 279 335 48 356 253 99 139 265 281 
328 9 368 326 316 109 318 20 239 158 251 
329 9 197 8 155 92 62 81 131 174 189 
330 9 364 409 167 247 302 406 163 242 331 
331 9 227 163 360 381 364 72 167 302 409 
332 9 211 44 288 355 206 58 218 274 394 
333 9 388 73 4 323 170 43 106 3 93 
334 9 222 398 387 261 365 291 98 377 134 
335 8 279 327 356 48 253 139 99 265 
336 7 305 87 294 224 367 242 289 
337 9 195 397 202 299 116 264 313 150 232 
338 9 209 14 75 104 64 118 12 172 372 
339 9 402 259 347 270 250 10 343 56 307 
340 6 282 190 350 126 393 221 
341 6 214 198 53 340 317 266 
342 9 287 343 10 347 250 402 339 259 56 
343 9 347 402 287 10 342 250 339 259 56 
344 8 245 319 20 162 220 403 318 366 
345 9 188 137 296 237 33 342 343 60 287 
346 9 255 31 303 393 283 260 175 161 361 
347 9 402 343 339 259 10 250 287 56 342 
348 9 384 123 392 363 380 394 18 389 90 
349 9 399 135 2 132 6 7 177 80 32 
350 6 282 340 393 190 126 213 
351 9 134 9 4 301 170 387 3 388 334 
352 9 110 63 91 369 185 385 373 374 141 
353 9 407 15 19 298 258 272 34 94 225 
354 9 311 208 295 36 395 324 142 382 52 
355 9 288 44 332 211 58 218 206 274 370 
356 8 335 253 139 279 48 327 362 281 
357 9 113 17 22 12 229 68 209 75 338 
358 9 292 38 118 104 64 14 75 11 338 
359 8 262 116 228 226 313 246 314 122 
360 8 381 227 331 371 236 122 163 314 
361 9 175 303 192 161 284 260 283 234 85 
362 6 240 310 139 253 356 281 
363 9 380 348 18 384 392 389 90 123 285 
364 9 409 330 302 167 247 406 163 242 331 
365 9 261 377 291 98 387 334 222 370 398 
366 8 374 373 185 369 220 135 344 319 
367 9 224 111 386 87 336 305 396 294 84 
368 9 328 316 326 109 251 239 293 318 153 
369 8 185 373 374 366 220 63 239 319 
370 9 58 291 377 98 365 288 261 355 218 
371 6 236 314 122 246 360 226 
372 9 172 14 209 338 104 126 358 118 340 
373 8 185 220 369 366 374 319 239 109 
374 8 366 369 185 373 220 135 319 2 
375 9 391 307 270 37 51 400 225 339 259 
376 9 107 216 78 100 183 252 79 260 346 
377 9 98 261 365 291 387 334 370 222 218 
378 9 29 176 321 166 59 207 125 403 32 
379 8 102 249 127 289 278 67 325 87 
380 9 363 18 348 90 389 384 392 285 123 
381 9 360 227 331 236 72 371 122 383 163 
382 7 395 169 324 233 96 295 53 
383 9 42 156 264 299 72 269 93 381 202 
384 9 392 348 394 389 363 18 123 380 90 
385 9 293 251 153 239 316 326 352 368 109 
386 9 111 367 224 396 294 242 336 87 247 
387 9 261 365 98 334 377 222 291 134 351 
388 9 73 4 333 170 43 351 238 323 3 
389 9 90 18 285 84 384 325 392 67 380 
390 9 315 217 173 45 181 13 49 408 82 
391 9 375 37 400 270 307 157 339 250 51 
392 9 384 348 394 389 363 123 18 380 90 
393 7 350 282 31 190 340 255 213 
394 9 206 392 384 332 211 123 348 44 288 
395 8 295 324 382 311 169 354 233 96 
396 9 386 111 367 224 247 242 294 330 84 
397 9 150 337 195 202 232 173 299 116 264 
398 9 334 222 134 387 261 365 351 301 291 
399 9 349 135 6 177 32 132 2 80 7 
400 9 157 391 37 194 375 51 307 270 250 
401 9 285 90 379 325 18 67 389 102 193 
402 9 347 339 343 259 10 250 56 287 270 
403 9 162 344 29 245 25 59 20 318 176 
404 9 145 189 322 62 80 66 138 248 177 
405 9 3 9 301 170 4 134 351 106 388 
406 9 167 330 163 364 409 247 302 274 43 
407 9 353 19 15 298 258 94 257 272 34 
408 9 276 45 173 147 150 315 248 397 26 
409 9 364 302 330 247 167 242 406 163 331 
DEPOT_SECTION
   1
   -1
EOF
