NAME :  X-n469-kX-w93-c9.cctp
COMMENT : 	Adapted by Maziero, Usberti and Cavellucci from the Uchoa, Pecin, Pessoa, Poggi, Subramanian, and Vidal (2013)
TYPE :  CCTP
DIMENSION :    410
EDGE_WEIGHT_TYPE : 	EUC_2D	
CAPACITY : 	256
VERTICES_WITHIN_COVERAGE :  9
VERTICES_WITH_DEMAND : 	93
NODE_COORD_SECTION
1 0 0
2 363 697
3 120 259
4 555 718
5 522 918
6 239 935
7 304 517
8 856 96
9 38 904
10 174 951
11 294 935
12 942 324
13 402 176
14 766 450
15 473 862
16 262 550
17 661 92
18 440 655
19 678 291
20 345 691
21 564 903
22 952 802
23 698 352
24 297 930
25 66 244
26 882 642
27 777 818
28 302 212
29 824 647
30 143 946
31 108 600
32 121 755
33 697 32
34 473 995
35 342 252
36 596 534
37 248 211
38 940 88
39 81 468
40 144 796
41 244 385
42 437 42
43 381 583
44 263 549
45 153 646
46 187 688
47 248 71
48 27 70
49 649 477
50 244 370
51 145 49
52 589 402
53 105 251
54 986 452
55 486 773
56 679 851
57 102 734
58 619 809
59 139 138
60 107 489
61 921 579
62 681 336
63 925 185
64 260 655
65 46 832
66 534 440
67 117 590
68 604 453
69 667 428
70 871 548
71 943 171
72 181 252
73 172 696
74 211 597
75 82 390
76 114 189
77 659 852
78 404 544
79 169 845
80 101 663
81 422 503
82 124 861
83 289 778
84 923 842
85 464 148
86 377 32
87 482 570
88 933 156
89 987 678
90 995 62
91 241 242
92 565 805
93 898 871
94 137 970
95 11 959
96 307 897
97 693 522
98 827 725
99 27 818
100 284 562
101 136 875
102 214 719
103 75 85
104 749 863
105 743 494
106 169 42
107 664 268
108 485 432
109 232 420
110 329 374
111 360 726
112 890 844
113 308 95
114 970 326
115 257 653
116 4 773
117 91 795
118 729 479
119 507 782
120 321 298
121 516 599
122 914 830
123 495 443
124 201 805
125 299 90
126 327 474
127 400 714
128 936 468
129 217 110
130 447 82
131 180 61
132 329 479
133 109 163
134 607 144
135 864 903
136 633 586
137 228 986
138 98 291
139 56 919
140 302 929
141 658 831
142 664 797
143 442 558
144 492 535
145 998 71
146 283 534
147 562 828
148 918 176
149 250 170
150 921 325
151 577 116
152 272 677
153 802 102
154 112 530
155 371 252
156 335 99
157 205 379
158 315 321
159 304 45
160 684 368
161 962 930
162 715 476
163 281 282
164 970 23
165 944 627
166 188 859
167 218 717
168 426 876
169 232 735
170 446 846
171 483 747
172 360 494
173 608 408
174 522 830
175 661 720
176 279 720
177 732 386
178 292 154
179 265 524
180 216 492
181 798 670
182 125 229
183 438 432
184 799 900
185 231 26
186 207 149
187 306 573
188 496 745
189 379 21
190 395 564
191 632 389
192 167 874
193 71 215
194 505 662
195 547 517
196 668 216
197 11 995
198 872 947
199 42 480
200 933 471
201 154 936
202 65 939
203 472 601
204 462 825
205 842 664
206 14 197
207 879 336
208 896 105
209 242 700
210 319 671
211 422 436
212 527 45
213 552 530
214 41 364
215 261 659
216 143 846
217 705 914
218 835 5
219 400 676
220 910 716
221 267 601
222 429 646
223 333 945
224 185 385
225 407 737
226 731 485
227 956 536
228 255 405
229 969 429
230 28 973
231 931 120
232 719 109
233 321 722
234 851 158
235 87 931
236 189 530
237 311 745
238 546 526
239 373 661
240 749 318
241 51 714
242 575 131
243 982 61
244 364 513
245 835 755
246 780 35
247 208 60
248 768 48
249 115 878
250 637 410
251 379 291
252 35 544
253 237 188
254 176 879
255 215 559
256 399 454
257 5 888
258 566 749
259 986 603
260 699 758
261 984 786
262 873 320
263 292 117
264 354 700
265 938 85
266 992 408
267 336 879
268 146 844
269 688 35
270 293 805
271 852 648
272 387 973
273 245 29
274 94 156
275 279 676
276 126 40
277 941 0
278 656 871
279 373 2
280 65 214
281 196 652
282 14 925
283 645 819
284 228 390
285 174 699
286 433 497
287 942 386
288 656 224
289 818 828
290 367 227
291 656 29
292 869 658
293 806 501
294 938 250
295 772 316
296 915 807
297 804 516
298 866 546
299 758 47
300 337 182
301 940 481
302 614 577
303 952 221
304 672 232
305 752 777
306 389 177
307 874 793
308 447 934
309 63 91
310 194 17
311 90 431
312 383 589
313 842 158
314 921 685
315 676 540
316 377 764
317 347 51
318 508 619
319 285 973
320 793 876
321 430 40
322 325 314
323 252 411
324 955 452
325 14 857
326 675 367
327 288 222
328 266 783
329 723 124
330 186 389
331 57 912
332 709 425
333 386 859
334 316 507
335 340 704
336 535 963
337 851 866
338 219 654
339 403 121
340 206 923
341 934 353
342 116 502
343 634 559
344 262 403
345 159 542
346 879 100
347 676 416
348 235 349
349 231 102
350 378 569
351 876 507
352 399 48
353 56 351
354 950 398
355 259 247
356 5 250
357 892 26
358 884 218
359 507 93
360 819 380
361 922 302
362 81 170
363 61 608
364 247 681
365 761 62
366 467 514
367 27 213
368 416 712
369 550 552
370 930 830
371 469 221
372 390 966
373 388 863
374 652 334
375 74 677
376 838 136
377 839 121
378 545 143
379 680 257
380 399 40
381 321 632
382 263 860
383 37 293
384 92 189
385 856 674
386 704 344
387 780 346
388 226 532
389 708 89
390 656 510
391 226 427
392 217 363
393 312 489
394 321 270
395 811 711
396 380 451
397 445 526
398 27 480
399 696 12
400 102 900
401 890 926
402 609 673
403 924 31
404 566 75
405 144 331
406 28 857
407 546 142
408 16 859
409 522 645
410 873 593
DEMAND_SECTION
2 83
3 73
4 100
5 88
6 90
7 71
8 62
9 95
10 56
11 75
12 51
13 86
14 62
15 74
16 65
17 77
18 58
19 98
20 81
21 86
22 75
23 74
24 77
25 80
26 57
27 54
28 67
29 74
30 94
31 99
32 90
33 54
34 72
35 70
36 69
37 100
38 93
39 97
40 85
41 79
42 93
43 97
44 100
45 51
46 84
47 59
48 60
49 84
50 56
51 97
52 100
53 80
54 89
55 99
56 57
57 72
58 75
59 62
60 64
61 75
62 63
63 71
64 82
65 51
66 55
67 95
68 67
69 90
70 73
71 51
72 83
73 51
74 80
75 76
76 87
77 65
78 71
79 60
80 72
81 54
82 76
83 96
84 79
85 56
86 68
87 88
88 57
89 69
90 95
91 75
92 56
93 54
94 61
COVERAGE_SECTION
2 9 264 20 335 111 239 127 219 233 210 
3 9 53 182 138 25 72 193 76 280 384 
4 9 258 188 402 194 171 119 409 55 92 
5 9 21 336 15 308 174 34 147 168 170 
6 9 340 137 11 24 319 140 10 96 382 
7 9 334 146 393 179 132 100 126 44 16 
8 9 346 377 208 376 153 234 313 231 357 
9 9 331 139 282 257 202 406 408 325 235 
10 9 201 30 94 340 137 6 254 192 101 
11 9 24 140 319 96 223 6 267 382 137 
12 8 150 114 341 361 287 207 262 294 
13 9 306 339 290 300 85 371 155 35 156 
14 9 118 226 105 162 332 293 177 297 360 
15 9 170 204 168 174 5 308 373 119 333 
16 9 44 100 146 179 388 255 187 221 7 
17 9 389 232 269 291 33 329 134 151 399 
18 9 222 219 368 203 194 239 127 318 409 
19 9 107 379 62 374 304 386 23 288 196 
20 9 264 335 2 210 111 233 239 219 127 
21 9 5 336 147 174 278 92 15 77 58 
22 8 261 370 296 122 84 112 307 93 
23 9 386 160 62 326 177 374 240 19 347 
24 9 140 11 96 223 319 6 267 382 137 
25 8 193 280 53 367 3 138 383 182 
26 9 292 271 385 205 410 29 314 165 61 
27 8 289 305 104 320 184 245 337 260 
28 9 327 300 37 355 35 178 394 149 290 
29 9 205 271 181 385 292 26 395 410 98 
30 9 201 94 10 235 400 340 101 249 254 
31 9 67 363 80 45 154 345 375 252 342 
32 9 57 40 117 285 73 241 375 268 46 
33 9 269 399 291 389 299 17 365 248 232 
34 8 308 336 372 272 5 168 21 15 
35 9 394 155 290 120 251 28 327 322 163 
36 9 213 343 302 369 238 195 136 390 49 
37 9 253 91 355 149 327 28 178 186 163 
38 9 265 231 208 243 403 145 90 346 88 
39 9 60 311 199 342 398 154 75 252 345 
40 9 32 268 216 117 79 124 82 57 166 
41 9 50 284 228 344 323 392 109 348 157 
42 9 321 352 380 130 86 189 279 339 359 
43 9 312 350 190 78 143 244 187 381 239 
44 9 16 100 146 179 388 187 255 7 221 
45 9 281 73 46 80 285 31 338 67 74 
46 9 73 285 281 102 167 338 45 209 364 
47 9 349 247 273 185 129 125 159 263 113 
48 6 309 103 276 274 362 51 
49 9 390 68 69 97 162 347 250 315 36 
50 9 41 348 284 392 228 344 157 323 109 
51 9 276 106 131 310 247 103 59 185 309 
52 9 173 191 250 68 66 69 347 326 374 
53 9 3 182 25 138 193 280 76 384 72 
54 7 229 324 266 128 301 200 354 
55 9 119 171 188 204 174 170 258 92 225 
56 9 77 141 278 283 142 217 104 58 260 
57 9 32 241 117 375 80 40 73 285 46 
58 9 283 141 142 92 77 147 278 56 258 
59 8 133 274 76 362 186 384 103 129 
60 9 342 39 154 311 199 345 398 252 236 
61 9 410 165 227 70 298 259 26 351 292 
62 9 23 386 374 160 326 19 107 240 177 
63 9 148 71 88 303 358 231 294 234 208 
64 9 115 215 152 275 364 338 209 221 210 
65 9 99 406 408 325 117 257 9 116 331 
66 9 123 108 52 68 195 173 238 213 183 
67 9 31 363 154 345 45 80 342 74 236 
68 9 173 49 52 250 69 191 66 390 36 
69 9 347 250 332 49 191 160 173 326 68 
70 9 298 351 410 61 297 293 227 26 301 
71 9 88 63 148 303 231 358 294 208 38 
72 9 3 91 182 53 355 37 253 405 76 
73 9 285 46 102 281 167 45 338 209 169 
74 9 255 221 281 338 388 16 44 236 115 
75 8 311 353 214 39 405 199 138 60 
76 8 384 133 362 274 182 193 280 59 
77 9 278 56 141 283 142 58 217 104 147 
78 9 190 350 143 43 81 397 312 244 286 
79 9 268 166 216 192 254 101 82 124 40 
80 9 375 45 31 363 57 241 67 73 285 
81 9 286 397 78 366 256 143 244 172 190 
82 9 101 249 216 268 192 400 79 254 166 
83 8 328 270 237 176 233 169 382 111 
84 9 370 122 112 296 93 22 307 337 261 
85 9 339 13 130 359 371 306 378 407 42 
86 9 189 380 352 279 317 321 42 159 156 
87 9 203 144 143 121 318 397 366 369 238 
88 9 71 148 63 231 208 38 303 265 346 
89 8 314 165 259 220 261 26 61 292 
90 9 145 243 164 38 265 403 277 231 208 
91 9 355 37 327 253 163 72 28 149 394 
92 9 147 174 58 258 119 283 55 4 188 
93 9 112 84 122 135 337 370 401 296 198 
94 9 30 201 10 235 202 400 340 137 101 
95 9 230 282 197 202 139 9 331 257 235 
96 8 140 24 267 11 223 382 6 319 
97 8 315 390 162 226 118 105 49 343 
98 7 395 245 385 181 205 29 292 
99 9 65 406 325 408 116 117 257 9 331 
100 9 16 44 187 146 179 221 7 334 388 
101 9 82 249 216 192 268 254 400 79 166 
102 9 167 169 209 46 285 73 364 176 338 
103 8 309 48 276 274 51 59 133 362 
104 9 320 27 184 217 56 289 305 77 278 
105 9 226 118 162 14 97 293 297 332 315 
106 9 131 51 310 247 276 185 273 129 47 
107 7 379 19 304 288 196 374 62 
108 8 123 183 66 211 286 366 256 81 
109 8 391 323 228 284 344 41 157 50 
110 6 158 322 344 120 228 50 
111 9 264 2 335 20 233 127 316 225 237 
112 9 93 122 84 370 296 337 307 135 289 
113 9 125 156 263 159 317 178 47 349 273 
114 9 12 341 150 361 287 354 294 266 207 
115 9 64 215 152 364 275 338 209 221 281 
116 9 99 65 241 325 406 408 117 57 257 
117 9 32 40 65 57 99 216 82 268 249 
118 9 226 162 105 14 97 332 390 49 69 
119 9 55 188 171 174 92 204 258 147 4 
120 9 322 158 394 163 35 251 155 110 355 
121 8 318 203 87 409 369 194 144 213 
122 8 84 370 296 112 93 22 307 337 
123 8 108 66 183 211 366 286 195 144 
124 9 79 166 40 268 328 216 169 192 254 
125 9 113 263 156 159 47 317 178 349 273 
126 7 132 393 334 172 7 244 396 
127 9 368 225 219 2 111 264 316 239 20 
128 6 200 301 324 229 54 227 
129 9 349 186 47 247 131 149 263 253 59 
130 9 42 321 339 352 359 380 85 86 212 
131 9 106 247 51 310 276 129 185 349 47 
132 7 126 393 334 172 7 244 396 
133 7 274 76 362 384 59 193 280 
134 8 242 151 407 378 17 404 196 288 
135 6 401 337 198 93 112 184 
136 4 302 343 315 36 
137 9 6 319 10 340 11 24 201 94 140 
138 9 3 53 25 383 405 182 353 193 280 
139 9 331 202 9 235 282 400 95 257 230 
140 8 24 11 96 223 319 267 6 382 
141 9 283 77 56 142 278 58 260 217 104 
142 9 283 141 58 260 77 56 278 175 305 
143 9 397 78 87 190 366 203 144 81 286 
144 9 366 87 397 143 238 195 213 369 121 
145 9 90 243 164 38 265 231 403 277 88 
146 9 179 44 16 7 100 334 187 393 388 
147 9 92 174 58 119 21 258 283 55 15 
148 9 63 71 88 358 303 231 234 208 294 
149 9 253 37 178 186 327 28 129 263 349 
150 7 12 361 341 207 262 114 287 
151 8 242 407 134 378 404 359 17 212 
152 9 275 215 64 364 115 209 176 210 338 
153 6 377 376 8 365 248 313 
154 9 342 60 345 67 39 31 236 252 199 
155 9 290 35 251 394 120 306 322 300 28 
156 9 113 125 263 317 159 178 339 86 352 
157 8 392 224 330 284 41 50 348 109 
158 8 322 120 394 163 110 251 35 348 
159 9 317 125 113 273 47 156 263 86 185 
160 9 326 23 386 62 374 347 177 191 69 
161 4 401 93 198 84 
162 9 118 226 105 97 332 14 49 69 390 
163 9 355 394 120 158 322 91 327 35 28 
164 9 277 243 90 403 145 265 38 357 231 
165 9 259 61 314 26 89 410 292 227 271 
166 9 254 79 192 268 216 101 124 82 340 
167 9 102 169 209 46 364 285 73 176 338 
168 7 170 373 333 15 204 308 267 
169 9 167 102 209 176 364 328 46 285 152 
170 8 204 15 168 373 333 174 55 119 
171 9 188 55 119 368 225 4 204 258 194 
172 9 244 132 126 334 396 393 256 7 81 
173 9 52 250 191 68 69 347 326 49 66 
174 9 147 92 119 15 204 55 170 21 5 
175 4 260 402 142 58 
176 9 237 209 233 152 275 169 364 83 167 
177 9 332 23 386 160 326 387 347 240 62 
178 9 263 149 300 28 113 125 253 327 156 
179 9 146 44 16 7 388 100 334 180 393 
180 8 388 236 179 391 255 16 44 109 
181 8 29 395 205 271 385 98 292 26 
182 9 3 53 76 384 193 25 72 280 133 
183 7 211 256 108 123 396 286 81 
184 7 320 104 337 135 289 27 198 
185 9 273 310 247 47 131 106 159 349 129 
186 9 129 149 253 349 59 37 178 47 247 
187 9 100 146 221 44 16 7 381 179 334 
188 9 171 55 119 4 258 194 204 368 174 
189 9 86 279 380 352 317 321 42 159 156 
190 9 350 78 43 312 143 244 397 81 286 
191 9 250 173 52 326 69 347 160 374 68 
192 9 254 166 79 101 216 268 82 249 201 
193 7 280 25 384 367 362 53 76 
194 8 409 318 121 18 203 4 222 188 
195 9 238 213 369 36 144 66 366 87 68 
196 5 288 304 379 107 19 
197 9 230 95 282 202 139 9 331 235 257 
198 3 401 135 93 
199 9 398 39 252 60 311 342 154 75 214 
200 6 128 301 324 229 54 351 
201 9 30 10 94 340 254 192 400 101 235 
202 9 139 235 331 9 230 282 400 95 30 
203 9 87 318 121 143 222 18 409 144 194 
204 9 170 15 55 174 119 168 171 333 373 
205 9 385 271 29 292 181 26 395 98 410 
206 6 367 280 356 193 25 362 
207 6 262 150 361 341 12 360 
208 9 346 231 8 38 265 377 88 376 234 
209 9 364 167 102 169 152 176 275 215 64 
210 9 20 335 381 275 264 152 2 233 239 
211 7 183 256 396 286 108 81 123 
212 9 404 359 151 130 42 321 242 407 378 
213 9 238 195 369 36 144 121 302 87 366 
214 9 353 75 383 311 138 405 39 199 398 
215 9 64 115 152 275 364 338 209 221 210 
216 9 268 82 79 101 192 249 166 254 40 
217 8 278 104 56 77 141 184 320 283 
218 9 357 246 248 299 8 365 403 153 346 
219 9 239 127 368 222 2 18 264 20 225 
220 7 314 385 292 26 98 245 307 
221 9 100 187 16 44 115 64 74 215 381 
222 9 18 219 239 203 368 312 127 194 43 
223 8 140 24 11 96 319 272 372 267 
224 7 330 157 392 284 41 109 391 
225 8 127 368 316 111 2 219 264 335 
226 9 118 105 162 14 97 332 293 315 297 
227 9 61 301 200 128 259 324 351 70 54 
228 9 323 344 41 109 284 391 50 157 392 
229 7 324 54 266 354 128 287 200 
230 9 95 197 202 282 139 331 9 235 257 
231 9 38 88 265 208 71 346 148 63 243 
232 5 329 389 17 365 299 
233 9 237 335 20 111 264 176 2 210 275 
234 7 313 376 377 8 346 358 148 
235 9 202 139 400 331 9 30 249 94 201 
236 9 345 388 255 180 74 16 44 179 154 
237 9 233 83 176 335 111 328 264 270 20 
238 9 213 195 369 36 144 87 121 366 302 
239 9 219 2 20 264 335 210 222 127 381 
240 6 295 387 386 23 62 177 
241 9 375 57 80 116 32 117 363 99 65 
242 8 151 407 378 134 404 359 17 212 
243 9 90 145 164 38 265 403 277 231 208 
244 9 172 334 132 78 126 393 350 81 7 
245 7 98 395 307 289 385 220 27 
246 7 248 299 365 218 153 33 399 
247 9 131 47 185 106 310 273 349 129 51 
248 7 299 365 246 153 33 389 232 
249 9 82 101 400 216 268 192 235 254 79 
250 9 191 173 69 347 52 68 326 160 49 
251 7 155 35 120 322 394 290 158 
252 9 199 398 363 154 39 60 342 31 67 
253 9 149 37 186 91 327 355 178 28 129 
254 9 192 166 79 101 268 216 340 82 201 
255 9 388 74 236 16 44 345 179 180 221 
256 8 396 211 183 81 286 172 244 132 
257 9 408 325 9 282 406 331 139 65 95 
258 9 4 92 119 188 147 58 171 55 402 
259 9 165 61 227 89 314 26 410 70 292 
260 8 142 175 305 283 141 56 58 27 
261 8 22 370 296 84 122 220 89 112 
262 5 207 150 361 12 341 
263 9 113 125 178 156 349 47 149 159 129 
264 9 2 20 335 111 233 239 210 127 219 
265 9 38 231 208 243 403 90 346 145 164 
266 8 229 354 54 287 324 341 128 114 
267 7 96 333 373 140 24 223 11 
268 9 216 79 82 101 192 166 249 254 40 
269 9 33 399 291 389 17 299 365 232 248 
270 7 83 328 237 382 176 267 233 
271 9 205 292 385 29 26 181 410 395 314 
272 8 372 223 308 34 140 11 24 319 
273 9 185 47 247 310 159 131 349 106 125 
274 7 133 362 384 76 59 193 280 
275 9 152 215 64 115 364 210 176 209 381 
276 9 51 106 131 103 310 309 247 59 48 
277 9 403 164 357 243 90 265 38 145 218 
278 9 77 56 141 283 217 58 142 104 21 
279 9 189 86 380 352 317 321 42 159 156 
280 6 193 25 384 367 362 53 
281 9 338 46 45 73 285 74 364 115 64 
282 9 9 95 257 139 331 230 202 408 325 
283 9 141 58 142 77 56 278 92 260 147 
284 9 41 157 50 392 109 228 323 344 391 
285 9 73 46 102 167 281 45 338 169 209 
286 9 81 397 366 78 256 143 211 183 144 
287 7 354 341 229 266 12 150 114 
288 6 196 304 379 107 19 134 
289 8 27 337 320 307 112 184 245 104 
290 9 155 35 300 306 13 394 251 28 327 
291 9 269 33 399 17 389 404 232 299 365 
292 9 271 26 385 205 29 314 410 220 181 
293 8 297 105 14 351 298 226 70 118 
294 8 303 361 358 63 12 148 150 71 
295 6 240 387 386 360 177 23 
296 8 122 370 84 22 307 112 93 261 
297 8 293 105 298 351 70 14 226 118 
298 9 70 351 410 61 297 293 227 26 301 
299 7 248 365 246 33 389 153 269 
300 9 28 306 178 290 327 13 35 155 263 
301 7 200 128 324 54 227 229 351 
302 5 136 343 36 369 315 
303 8 294 63 71 148 88 358 361 12 
304 5 196 288 379 107 19 
305 8 27 260 289 104 245 395 142 98 
306 9 13 300 290 339 155 85 35 371 28 
307 7 296 112 122 245 289 370 84 
308 8 168 372 34 272 5 15 170 373 
309 8 103 48 274 276 362 133 59 51 
310 9 106 185 247 131 273 51 276 47 349 
311 8 39 75 60 199 342 398 214 353 
312 9 43 350 190 78 143 222 239 381 244 
313 7 234 376 377 8 153 346 358 
314 8 220 26 292 165 89 385 271 205 
315 7 97 390 343 136 49 302 162 
316 8 225 111 127 368 2 264 237 233 
317 9 86 159 189 156 352 380 279 113 125 
318 8 121 409 203 194 87 18 369 222 
319 9 11 24 140 223 137 6 96 340 272 
320 8 184 104 289 337 27 135 217 112 
321 9 42 380 352 130 86 189 279 317 339 
322 8 158 120 394 163 251 110 35 155 
323 9 228 344 109 41 391 284 50 157 392 
324 7 128 229 200 54 301 354 266 
325 9 408 406 257 65 99 9 282 331 139 
326 9 160 23 62 386 374 191 347 250 177 
327 9 28 355 37 91 394 163 253 35 300 
328 9 83 270 169 237 176 124 382 102 167 
329 5 232 389 17 365 153 
330 7 224 157 392 284 109 391 41 
331 9 139 9 202 235 282 400 257 406 95 
332 9 347 69 177 162 118 14 160 226 326 
333 6 373 168 267 170 204 15 
334 9 7 393 132 126 146 172 244 179 100 
335 9 20 264 2 233 111 210 237 239 127 
336 9 5 21 34 308 15 174 147 168 372 
337 9 135 112 93 289 320 184 401 122 84 
338 9 281 115 364 64 215 46 209 74 152 
339 9 13 306 130 85 156 352 380 321 42 
340 9 6 10 254 201 192 166 30 137 94 
341 8 12 150 287 114 354 361 207 262 
342 9 60 154 39 345 311 199 236 67 252 
343 6 136 302 36 315 390 97 
344 9 228 323 41 109 284 50 391 348 392 
345 9 236 154 255 342 67 388 60 74 180 
346 9 208 8 377 376 231 265 38 234 313 
347 9 69 332 250 160 326 191 177 49 23 
348 9 50 392 41 157 284 228 344 224 330 
349 9 129 47 247 186 263 131 125 149 273 
350 9 43 190 312 78 244 143 187 172 81 
351 7 298 70 200 301 293 128 297 
352 9 380 86 321 189 42 317 279 130 339 
353 9 214 75 383 138 311 405 25 53 3 
354 7 287 229 266 341 324 54 128 
355 9 91 37 327 163 28 253 394 72 149 
356 6 367 206 383 25 280 193 
357 9 403 277 218 265 346 38 164 8 208 
358 5 63 148 294 234 303 
359 9 212 130 404 378 407 85 151 242 42 
360 7 387 207 295 262 177 14 240 
361 7 150 12 262 341 114 294 207 
362 6 274 384 133 76 193 280 
363 9 31 67 80 252 375 154 45 241 345 
364 9 209 152 215 64 115 275 338 167 102 
365 7 299 248 246 153 389 232 33 
366 9 397 144 286 81 143 87 78 123 195 
367 6 206 280 356 193 25 362 
368 9 127 225 219 2 111 18 264 316 222 
369 9 213 238 195 36 121 144 302 87 318 
370 9 84 122 296 22 112 93 307 261 337 
371 4 85 13 306 290 
372 8 272 223 308 34 140 168 24 11 
373 6 333 168 267 170 204 15 
374 9 62 326 160 23 19 386 191 107 250 
375 9 80 241 57 363 31 45 32 67 73 
376 7 377 313 234 8 153 346 208 
377 7 376 8 313 234 153 346 208 
378 8 407 242 151 134 359 404 85 212 
379 7 107 304 19 288 196 62 374 
380 9 352 86 189 321 42 279 317 130 339 
381 9 210 239 187 275 221 20 64 215 115 
382 9 96 270 166 267 328 24 6 140 11 
383 9 356 25 138 353 214 53 367 280 193 
384 7 76 362 133 193 274 280 182 
385 9 205 292 271 26 29 181 395 98 314 
386 9 23 62 160 326 177 240 374 19 295 
387 6 295 240 360 177 386 23 
388 9 255 236 16 179 44 180 146 100 74 
389 7 232 329 17 33 269 365 299 
390 9 49 315 97 343 36 162 68 118 136 
391 8 109 323 228 284 344 41 157 330 
392 9 157 348 50 284 41 224 330 228 109 
393 9 334 132 126 7 172 146 244 179 44 
394 9 35 120 163 322 158 155 327 28 251 
395 8 98 181 245 205 385 29 271 292 
396 8 256 211 172 126 132 183 244 81 
397 9 366 286 143 81 78 144 87 190 203 
398 9 199 39 252 311 60 342 154 75 214 
399 9 33 269 291 299 389 248 365 17 246 
400 9 249 235 101 82 331 139 202 30 201 
401 4 198 135 93 161 
402 3 4 175 258 
403 9 357 277 164 265 38 243 90 208 346 
404 9 151 212 242 359 407 378 134 17 291 
405 8 138 224 330 3 157 392 75 72 
406 9 408 325 65 99 257 9 331 139 282 
407 8 378 242 151 134 359 404 85 212 
408 9 325 406 257 65 99 9 282 331 139 
409 7 194 318 121 203 4 18 87 
410 9 70 298 26 61 271 292 29 205 165 
DEPOT_SECTION
   1
   -1
EOF
