NAME :  X-n469-kX-w46-c11.cctp
COMMENT : 	Adapted by Maziero, Usberti and Cavellucci from the Uchoa, Pecin, Pessoa, Poggi, Subramanian, and Vidal (2013)
TYPE :  CCTP
DIMENSION :    356
EDGE_WEIGHT_TYPE : 	EUC_2D	
CAPACITY : 	256
VERTICES_WITHIN_COVERAGE :  11
VERTICES_WITH_DEMAND : 	46
NODE_COORD_SECTION
1 0 0
2 363 697
3 120 259
4 555 718
5 522 918
6 239 935
7 304 517
8 856 96
9 38 904
10 174 951
11 294 935
12 942 324
13 402 176
14 766 450
15 473 862
16 262 550
17 661 92
18 440 655
19 678 291
20 345 691
21 564 903
22 952 802
23 698 352
24 297 930
25 66 244
26 882 642
27 777 818
28 302 212
29 824 647
30 143 946
31 108 600
32 121 755
33 697 32
34 473 995
35 342 252
36 596 534
37 248 211
38 940 88
39 81 468
40 144 796
41 244 385
42 437 42
43 381 583
44 263 549
45 153 646
46 187 688
47 248 71
48 649 477
49 244 370
50 105 251
51 486 773
52 679 851
53 102 734
54 107 489
55 921 579
56 681 336
57 46 832
58 117 590
59 604 453
60 871 548
61 943 171
62 181 252
63 172 696
64 211 597
65 82 390
66 404 544
67 169 845
68 101 663
69 124 861
70 923 842
71 464 148
72 377 32
73 933 156
74 987 678
75 995 62
76 241 242
77 565 805
78 137 970
79 11 959
80 307 897
81 827 725
82 27 818
83 284 562
84 136 875
85 214 719
86 749 863
87 743 494
88 169 42
89 664 268
90 232 420
91 329 374
92 360 726
93 598 258
94 890 844
95 308 95
96 970 326
97 333 378
98 4 773
99 620 171
100 91 795
101 729 479
102 507 782
103 321 298
104 914 830
105 201 805
106 299 90
107 327 474
108 400 714
109 217 110
110 447 82
111 180 61
112 329 479
113 607 144
114 633 586
115 228 986
116 98 291
117 56 919
118 302 929
119 442 558
120 998 71
121 283 534
122 562 828
123 250 170
124 921 325
125 577 116
126 802 102
127 112 530
128 371 252
129 205 379
130 315 321
131 304 45
132 684 368
133 715 476
134 281 282
135 970 23
136 944 627
137 218 717
138 426 876
139 232 735
140 446 846
141 483 747
142 360 494
143 522 830
144 56 192
145 732 386
146 292 154
147 265 524
148 216 492
149 798 670
150 125 229
151 29 187
152 799 900
153 231 26
154 207 149
155 306 573
156 496 745
157 379 21
158 395 564
159 632 389
160 71 215
161 505 662
162 547 517
163 668 216
164 11 995
165 42 480
166 605 641
167 154 936
168 65 939
169 472 601
170 462 825
171 842 664
172 14 197
173 879 336
174 896 105
175 319 671
176 527 45
177 552 530
178 41 364
179 143 846
180 705 914
181 835 5
182 400 676
183 910 716
184 267 601
185 429 646
186 333 945
187 31 190
188 185 385
189 407 737
190 731 485
191 255 405
192 28 973
193 349 853
194 931 120
195 719 109
196 321 722
197 851 158
198 87 931
199 628 621
200 189 530
201 311 745
202 546 526
203 373 661
204 749 318
205 51 714
206 575 131
207 982 61
208 364 513
209 835 755
210 780 35
211 208 60
212 768 48
213 379 291
214 35 544
215 237 188
216 176 879
217 215 559
218 5 888
219 566 749
220 986 603
221 699 758
222 984 786
223 873 320
224 292 117
225 354 700
226 938 85
227 190 437
228 336 879
229 146 844
230 688 35
231 852 648
232 387 973
233 245 29
234 941 0
235 656 871
236 373 2
237 65 214
238 196 652
239 14 925
240 228 390
241 174 699
242 942 386
243 656 224
244 818 828
245 367 227
246 656 29
247 869 658
248 806 501
249 938 250
250 772 316
251 915 807
252 804 516
253 866 546
254 758 47
255 337 182
256 614 577
257 952 221
258 672 232
259 752 777
260 389 177
261 874 793
262 447 934
263 194 17
264 90 431
265 164 388
266 383 589
267 842 158
268 921 685
269 676 540
270 377 764
271 508 619
272 285 973
273 793 876
274 430 40
275 325 314
276 252 411
277 14 857
278 675 367
279 288 222
280 723 124
281 186 389
282 57 912
283 709 425
284 386 859
285 316 507
286 340 704
287 535 963
288 219 654
289 906 732
290 403 121
291 206 923
292 934 353
293 116 502
294 634 559
295 262 403
296 159 542
297 879 100
298 676 416
299 235 349
300 231 102
301 378 569
302 399 48
303 56 351
304 950 398
305 259 247
306 5 250
307 892 26
308 433 319
309 507 93
310 819 380
311 922 302
312 61 608
313 761 62
314 27 213
315 416 712
316 550 552
317 930 830
318 469 221
319 894 272
320 390 966
321 388 863
322 652 334
323 74 677
324 838 136
325 839 121
326 680 257
327 399 40
328 321 632
329 263 860
330 37 293
331 92 189
332 856 674
333 704 344
334 780 346
335 226 532
336 708 89
337 656 510
338 226 427
339 217 363
340 312 489
341 324 409
342 321 270
343 811 711
344 27 480
345 696 12
346 102 900
347 409 329
348 609 673
349 924 31
350 566 75
351 144 331
352 28 857
353 803 158
354 16 859
355 522 645
356 873 593
DEMAND_SECTION
2 83
3 73
4 100
5 88
6 90
7 71
8 62
9 95
10 56
11 75
12 51
13 86
14 62
15 74
16 65
17 77
18 58
19 98
20 81
21 86
22 75
23 74
24 77
25 80
26 57
27 54
28 67
29 74
30 94
31 99
32 90
33 54
34 72
35 70
36 69
37 100
38 93
39 97
40 85
41 79
42 93
43 97
44 100
45 51
46 84
47 59
COVERAGE_SECTION
2 11 225 20 286 92 203 108 182 196 175 315 189 
3 10 50 150 116 25 62 160 237 331 351 330 
4 10 219 156 348 161 141 102 355 51 77 166 
5 11 21 287 15 262 143 34 122 138 140 170 77 
6 11 291 115 11 24 272 118 10 80 329 216 167 
7 11 285 121 340 147 112 83 107 44 16 155 208 
8 11 297 325 174 324 126 197 267 194 307 353 226 
9 11 282 117 239 218 168 352 354 277 198 79 346 
10 10 167 30 78 291 115 6 216 84 346 198 
11 11 24 118 272 80 186 6 228 329 115 291 193 
12 10 124 96 292 311 242 173 223 319 249 304 
13 10 260 290 245 255 71 318 128 35 110 28 
14 10 101 190 87 133 283 248 145 252 310 298 
15 10 140 170 138 143 5 262 321 102 284 51 
16 11 44 83 121 147 335 217 155 184 7 64 285 
17 11 336 195 230 246 33 280 113 125 345 99 206 
18 11 185 182 315 169 161 203 108 271 355 266 2 
19 11 89 326 56 322 258 333 23 243 163 204 278 
20 11 225 286 2 175 92 196 203 182 108 201 328 
21 7 5 287 122 143 235 77 15 
22 9 222 317 251 104 70 94 261 289 183 
23 11 333 132 56 278 145 322 204 19 298 283 159 
24 11 118 11 80 186 272 6 228 329 115 291 193 
25 11 160 237 50 314 144 3 116 330 150 306 331 
26 11 247 231 332 171 356 29 268 136 55 183 149 
27 9 244 259 86 273 152 209 221 261 52 
28 11 279 255 37 305 35 146 342 123 245 76 215 
29 11 171 231 149 332 247 26 343 356 81 268 209 
30 9 167 78 10 198 346 291 84 216 168 
31 11 58 312 68 45 127 296 323 214 293 238 64 
32 11 53 40 100 241 63 205 323 229 46 68 105 
33 10 230 345 246 336 254 17 313 212 195 210 
34 10 262 287 320 232 5 138 21 15 186 140 
35 11 342 128 245 103 213 28 279 275 134 255 130 
36 11 177 294 256 316 202 162 114 337 48 269 59 
37 11 215 76 305 123 279 28 146 154 134 62 255 
38 11 226 194 174 207 349 120 75 297 73 135 307 
39 11 54 264 165 293 344 127 65 214 296 178 227 
40 9 32 229 179 100 67 105 69 53 84 
41 11 49 240 191 295 276 339 90 299 129 338 281 
42 10 274 302 327 110 72 157 236 290 309 176 
43 10 266 301 158 66 119 208 155 328 203 185 
44 11 16 83 121 147 335 155 217 7 184 285 64 
45 11 238 63 46 68 241 31 288 58 64 323 85 
46 8 63 241 238 85 137 288 45 139 
47 11 300 211 233 153 109 106 131 224 95 111 263 
48 8 337 59 133 298 269 36 283 101 
49 11 41 299 240 339 191 295 129 276 90 338 188 
50 10 3 150 25 116 160 237 331 62 144 330 
51 11 102 141 156 170 143 140 219 77 189 4 15 
52 6 235 180 86 221 27 259 
53 11 32 205 100 323 68 40 63 241 46 45 98 
54 11 293 39 127 264 165 296 344 214 200 227 58 
55 8 356 136 60 253 220 26 247 231 
56 11 23 333 322 132 278 19 89 204 145 159 326 
57 10 82 352 354 277 100 218 9 98 282 69 
58 11 31 312 127 296 45 68 293 64 200 214 323 
59 6 48 159 337 36 298 162 
60 7 253 356 55 252 248 26 231 
61 8 73 257 194 249 174 38 226 197 
62 10 3 76 150 50 305 37 215 351 116 134 
63 9 241 46 85 238 137 45 288 139 32 
64 9 217 184 238 288 335 16 44 200 45 
65 11 264 303 178 39 265 351 165 116 54 188 281 
66 7 158 301 119 43 266 208 142 
67 8 229 179 216 84 69 105 40 291 
68 11 323 45 31 312 53 205 58 63 241 46 32 
69 8 84 179 229 346 67 216 40 100 
70 7 317 104 94 251 22 261 222 
71 9 290 13 110 309 318 260 42 206 274 
72 9 157 327 302 236 274 42 131 110 95 
73 8 61 194 174 38 257 226 297 197 
74 11 268 136 220 183 289 222 26 55 247 22 332 
75 11 120 207 135 38 226 349 234 194 174 307 73 
76 11 305 37 279 215 134 62 28 123 342 103 154 
77 8 122 143 219 102 51 4 156 21 
78 10 30 167 10 198 168 346 291 115 84 117 
79 11 192 239 164 168 117 9 282 218 198 354 277 
80 11 118 24 228 11 186 329 193 6 272 284 321 
81 10 343 209 332 149 171 29 247 289 231 183 
82 11 57 352 277 354 98 100 218 9 282 117 69 
83 11 16 44 155 121 147 184 7 285 335 217 340 
84 8 69 179 229 216 346 67 167 30 
85 7 137 139 46 241 63 288 238 
86 8 273 27 152 180 52 244 259 235 
87 9 190 101 133 14 248 252 283 269 337 
88 8 111 263 211 153 233 109 47 300 
89 10 326 19 258 243 163 93 322 56 333 23 
90 11 338 276 191 240 295 41 227 129 49 281 188 
91 10 97 341 130 275 295 103 191 49 276 41 
92 11 225 2 286 20 196 108 270 189 201 315 182 
93 7 89 243 258 163 326 19 99 
94 7 104 70 317 251 261 244 22 
95 9 106 224 131 146 47 300 233 109 255 
96 9 12 292 124 311 242 304 249 173 319 
97 9 91 341 130 275 295 103 191 276 41 
98 11 82 57 205 277 352 354 100 53 218 32 323 
99 8 113 206 243 163 125 258 17 93 
100 10 32 40 57 53 82 179 69 229 352 98 
101 9 190 133 87 14 283 337 48 248 269 
102 11 51 156 141 143 77 170 219 122 4 15 140 
103 11 275 130 342 134 35 213 128 91 305 97 279 
104 7 70 317 251 94 22 261 222 
105 8 67 40 229 179 139 216 329 85 
106 9 95 224 131 47 146 300 233 109 153 
107 8 112 340 285 142 7 208 341 121 
108 11 315 189 182 2 92 225 270 203 20 286 18 
109 10 300 154 47 211 111 123 224 215 88 106 
110 11 42 274 290 302 309 327 71 72 176 157 13 
111 8 88 211 263 109 153 300 47 233 
112 8 107 340 285 142 7 208 341 121 
113 8 99 206 125 17 350 163 243 258 
114 7 256 294 199 166 269 36 337 
115 11 6 272 10 291 11 24 167 78 118 30 186 
116 11 3 50 25 330 351 150 303 160 237 62 178 
117 10 282 168 9 198 239 346 79 218 192 352 
118 11 24 11 80 186 272 228 6 329 193 115 320 
119 5 66 158 169 301 43 
120 11 75 207 135 38 226 194 349 234 73 174 61 
121 11 147 44 16 7 83 285 155 340 335 184 112 
122 8 77 143 102 21 219 51 15 5 
123 11 215 37 146 154 279 28 109 224 300 76 305 
124 10 12 311 292 173 223 96 319 242 249 304 
125 9 206 113 350 99 309 17 176 71 246 
126 9 325 324 8 353 313 212 267 254 210 
127 11 293 54 296 58 39 31 200 214 165 312 344 
128 11 245 35 213 342 103 260 275 255 28 13 347 
129 11 339 188 281 240 41 49 265 299 90 338 191 
130 11 275 103 342 134 91 97 213 35 299 49 341 
131 9 106 95 233 47 224 72 153 157 236 
132 9 278 23 333 56 322 298 145 159 283 
133 9 101 190 87 283 14 48 337 298 269 
134 11 305 342 103 130 275 76 279 35 28 37 299 
135 11 234 207 75 349 120 226 38 307 194 174 297 
136 10 220 55 268 26 74 356 247 231 183 332 
137 7 85 139 46 241 63 288 238 
138 9 140 321 284 15 170 262 193 228 320 
139 5 137 85 46 241 63 
140 9 170 15 138 321 284 143 51 102 262 
141 11 156 51 102 315 189 4 170 219 161 108 143 
142 7 208 112 107 285 340 7 66 
143 11 122 77 102 15 170 51 140 21 5 156 141 
144 8 237 187 151 160 314 331 172 25 
145 10 283 23 333 132 278 334 298 204 56 14 
146 10 224 123 255 28 95 106 215 279 37 300 
147 11 121 44 16 7 335 83 285 148 340 217 155 
148 11 335 200 147 227 338 217 16 44 90 296 121 
149 9 29 343 171 231 332 81 247 26 209 
150 8 3 50 331 160 25 62 237 116 
151 9 187 172 314 144 237 160 331 306 25 
152 5 273 86 244 27 180 
153 10 233 263 211 47 111 88 131 300 109 106 
154 10 109 123 215 300 37 146 47 211 224 111 
155 11 83 121 184 44 16 7 328 147 285 301 43 
156 11 141 51 102 4 219 161 170 315 143 189 77 
157 9 72 236 327 302 274 42 131 110 95 
158 8 301 66 43 266 119 208 142 169 
159 7 278 298 132 322 59 56 23 
160 9 237 144 25 331 314 187 50 151 150 
161 8 355 271 18 169 4 185 156 141 
162 5 202 177 316 36 59 
163 8 243 258 326 89 99 19 93 113 
164 11 192 79 239 168 117 9 282 198 218 78 346 
165 11 344 39 214 54 264 293 127 65 178 312 303 
166 7 199 348 114 256 355 294 4 
167 9 30 10 78 291 216 346 84 198 69 
168 11 117 198 282 9 192 239 346 79 30 78 164 
169 7 271 119 185 18 355 161 158 
170 10 140 15 51 143 102 138 141 284 321 156 
171 11 332 231 29 247 149 26 343 81 356 268 183 
172 9 151 187 314 144 237 306 160 25 331 
173 8 223 124 311 292 12 319 310 242 
174 10 297 194 8 38 226 325 73 324 197 267 
175 7 20 286 328 225 2 196 203 
176 9 350 309 125 110 42 274 206 71 113 
177 6 202 162 316 36 256 294 
178 11 303 65 330 264 116 351 39 165 344 306 25 
179 8 229 69 67 84 216 40 346 105 
180 6 235 86 52 152 273 27 
181 10 307 210 212 254 8 313 349 126 297 234 
182 11 203 108 315 185 2 18 225 20 189 92 286 
183 10 289 268 332 247 26 81 209 261 74 171 
184 8 83 155 16 44 64 328 217 121 
185 11 18 182 203 169 315 266 108 161 43 2 271 
186 10 118 24 11 80 272 232 320 228 193 6 
187 9 151 172 314 144 237 160 331 25 306 
188 11 281 129 265 339 240 227 41 90 338 49 299 
189 10 108 315 270 92 2 182 225 286 20 141 
190 10 101 87 133 14 283 248 269 252 337 48 
191 11 276 295 41 90 240 338 49 129 339 299 341 
192 11 79 164 168 239 117 282 9 198 218 346 78 
193 8 228 284 321 80 138 329 118 24 
194 9 38 73 226 174 61 297 207 8 120 
195 7 280 336 17 313 254 212 33 
196 7 201 286 20 92 225 2 175 
197 8 267 324 325 353 8 297 174 126 
198 10 168 117 346 282 9 30 78 167 192 239 
199 6 166 114 256 348 294 36 
200 11 296 335 217 148 64 16 44 147 127 293 54 
201 7 196 286 92 225 20 270 2 
202 6 177 162 316 36 256 59 
203 11 182 2 20 225 286 175 185 108 328 92 18 
204 8 250 334 333 23 56 145 19 132 
205 11 323 53 68 98 32 100 312 82 57 63 45 
206 8 125 113 350 99 309 17 176 71 
207 11 75 120 135 38 226 349 234 194 174 307 73 
208 9 142 285 112 66 107 340 301 7 158 
209 10 81 343 261 244 289 332 183 27 259 171 
210 9 212 254 313 181 126 33 345 336 230 
211 9 111 47 153 88 263 233 300 109 154 
212 9 254 313 210 126 33 336 195 181 345 
213 11 128 347 35 103 275 308 342 245 130 91 97 
214 11 165 344 312 127 39 54 293 31 58 296 264 
215 11 123 37 154 76 279 305 146 28 109 62 300 
216 8 67 84 229 179 291 69 167 10 
217 11 335 64 200 16 44 296 147 148 184 83 121 
218 11 354 277 9 239 352 282 117 57 79 82 168 
219 9 4 77 102 156 122 141 51 348 143 
220 9 136 55 74 268 26 356 60 247 253 
221 3 259 52 27 
222 11 22 317 251 70 104 289 183 74 94 261 268 
223 6 173 124 311 319 12 292 
224 9 95 106 146 300 47 123 131 109 255 
225 11 2 20 286 92 196 203 175 108 182 201 315 
226 11 38 194 174 207 349 75 297 120 135 73 307 
227 11 338 90 281 188 265 129 240 148 276 191 41 
228 9 193 80 284 321 118 24 186 11 329 
229 8 179 67 69 84 216 40 105 346 
230 11 33 345 246 336 17 254 313 195 212 210 280 
231 11 171 247 332 29 26 149 356 343 268 81 183 
232 10 320 186 262 34 118 11 24 272 138 228 
233 11 153 47 211 263 131 111 300 88 106 109 95 
234 11 349 135 307 207 75 226 38 120 181 174 297 
235 6 52 180 86 21 122 77 
236 9 157 72 327 302 274 42 131 110 95 
237 9 160 144 25 331 314 187 151 50 172 
238 6 288 46 45 63 241 64 
239 11 9 79 218 117 282 192 168 354 277 352 164 
240 11 41 129 49 339 90 191 276 295 338 281 299 
241 9 63 46 85 137 238 45 288 139 32 
242 5 304 292 12 124 96 
243 8 163 258 326 89 99 93 19 113 
244 8 27 273 261 94 152 209 86 259 
245 11 128 35 255 260 13 342 213 28 279 103 275 
246 11 230 33 345 17 336 350 195 254 313 212 280 
247 11 231 26 332 171 29 268 356 183 149 81 343 
248 8 252 87 14 253 190 60 101 133 
249 7 257 319 311 12 124 61 96 
250 6 204 334 333 310 145 23 
251 8 104 317 70 22 261 94 222 289 
252 8 248 87 253 60 14 190 101 133 
253 6 60 356 55 252 248 26 
254 9 212 313 210 33 336 126 230 345 195 
255 10 28 260 146 245 279 13 35 128 224 123 
256 9 114 294 199 36 166 316 269 177 337 
257 7 249 61 73 319 311 12 194 
258 8 163 243 326 89 19 93 99 56 
259 8 27 221 244 86 209 343 81 52 
260 10 13 255 245 290 128 71 35 318 28 146 
261 9 251 94 104 209 244 317 70 289 22 
262 10 138 320 34 232 5 15 140 321 287 284 
263 9 88 153 211 111 233 47 300 109 131 
264 11 39 65 54 165 293 344 178 265 303 227 127 
265 11 188 281 129 227 339 351 240 338 90 41 299 
266 11 43 301 158 66 119 185 203 328 208 155 18 
267 8 197 324 325 353 8 126 297 174 
268 10 183 289 26 247 136 74 332 231 171 81 
269 8 337 294 114 48 256 133 190 36 
270 10 189 92 108 315 2 225 201 196 286 20 
271 7 355 169 161 18 316 185 119 
272 11 11 24 118 186 115 6 80 291 232 320 228 
273 6 152 86 244 27 180 94 
274 10 42 327 302 110 72 157 236 290 309 176 
275 11 130 103 342 134 213 91 35 97 128 347 305 
276 11 191 295 90 41 338 240 49 129 339 299 227 
277 11 354 352 218 57 82 9 239 282 117 98 168 
278 9 132 23 56 333 322 159 298 145 283 
279 11 28 305 37 76 342 134 215 35 255 123 146 
280 7 195 336 17 313 126 254 353 
281 11 188 129 265 339 240 227 90 338 41 49 299 
282 10 117 9 168 198 239 346 218 352 79 354 
283 9 298 145 133 101 14 132 190 278 23 
284 9 321 193 138 228 140 170 15 80 270 
285 11 7 340 112 107 121 142 208 147 83 155 44 
286 10 20 225 2 196 92 175 201 203 108 182 
287 10 5 21 34 262 15 143 122 138 320 140 
288 5 238 46 64 63 137 
289 10 183 268 261 209 251 332 81 247 22 26 
290 9 13 260 110 71 302 327 274 42 255 
291 9 6 10 216 167 30 115 78 84 329 
292 8 12 124 242 96 304 311 173 223 
293 11 54 127 39 296 264 165 200 58 214 344 31 
294 8 114 256 36 269 337 199 48 316 
295 11 191 276 41 90 240 49 338 299 339 129 341 
296 11 200 127 217 293 58 335 54 64 148 31 16 
297 11 174 8 325 324 194 226 38 197 267 307 126 
298 8 283 132 278 159 145 48 23 133 
299 11 49 339 41 129 240 191 295 188 281 276 90 
300 11 109 47 211 154 224 111 106 123 233 153 95 
301 9 43 158 266 66 208 119 155 142 328 
302 9 327 72 274 157 42 236 110 290 131 
303 11 178 65 330 116 264 351 25 50 3 306 265 
304 4 242 292 12 96 
305 11 76 37 279 134 28 215 342 62 123 103 35 
306 11 314 172 330 25 187 151 237 160 144 50 116 
307 11 349 234 181 226 297 38 135 8 174 207 194 
308 6 347 213 128 318 275 35 
309 9 176 110 350 71 125 206 42 274 290 
310 7 334 173 250 223 145 14 204 
311 9 124 12 319 223 292 96 249 173 242 
312 11 31 58 68 214 323 127 45 205 296 293 54 
313 9 254 212 210 126 336 195 33 280 230 
314 10 172 187 151 144 237 306 160 25 331 330 
315 11 108 189 182 2 92 18 225 270 185 203 20 
316 7 177 202 162 36 256 271 294 
317 7 70 104 251 22 94 261 222 
318 6 71 13 260 245 128 308 
319 6 311 249 223 124 173 12 
320 10 232 186 262 34 118 138 24 11 228 321 
321 9 284 138 193 228 140 170 15 80 262 
322 10 56 278 132 23 19 333 159 89 326 298 
323 11 68 205 53 312 31 45 32 58 63 241 46 
324 8 325 267 197 353 8 126 297 174 
325 9 324 8 267 197 126 297 353 174 194 
326 10 89 258 19 243 163 56 93 322 333 204 
327 9 302 72 157 274 42 236 110 290 131 
328 6 175 203 155 184 20 286 
329 8 80 228 24 6 118 11 105 291 
330 11 306 25 116 303 178 50 314 237 160 3 172 
331 6 160 144 237 150 25 187 
332 11 171 247 231 26 29 149 343 81 268 183 289 
333 11 23 56 132 278 145 204 322 19 250 334 298 
334 7 250 204 310 145 333 23 223 
335 11 217 200 16 147 44 148 121 83 64 296 7 
336 9 195 280 17 33 230 313 254 212 345 
337 10 48 269 294 36 133 59 101 114 190 256 
338 11 90 276 191 227 240 295 41 129 281 188 49 
339 11 129 299 49 240 41 188 281 191 90 265 276 
340 10 285 112 107 7 142 121 208 147 44 83 
341 9 97 91 295 107 191 112 276 340 41 
342 11 35 103 134 275 130 128 279 28 213 245 305 
343 10 81 149 209 171 332 29 231 247 259 289 
344 11 165 39 214 264 54 293 127 65 178 303 312 
345 10 33 230 246 254 336 212 313 17 210 195 
346 10 198 84 69 282 117 168 30 167 9 179 
347 9 308 213 275 128 97 91 103 130 35 
348 6 166 199 4 219 114 355 
349 11 307 234 135 226 38 207 75 174 297 120 194 
350 9 125 176 206 309 113 17 246 99 110 
351 11 265 116 188 281 3 129 339 65 62 50 303 
352 11 354 277 57 82 218 9 282 117 239 346 98 
353 6 267 324 197 325 126 8 
354 11 277 352 218 57 82 9 239 282 117 98 168 
355 8 161 271 169 4 18 166 348 185 
356 10 60 253 26 55 231 247 29 171 136 332 
DEPOT_SECTION
   1
   -1
EOF
