NAME :  X-n429-kX-w42-c7.cctp
COMMENT : 	Adapted by Maziero, Usberti and Cavellucci from the Uchoa, Pecin, Pessoa, Poggi, Subramanian, and Vidal (2013)
TYPE :  CCTP
DIMENSION :    250
EDGE_WEIGHT_TYPE : 	EUC_2D	
CAPACITY : 	536
VERTICES_WITHIN_COVERAGE :  7
VERTICES_WITH_DEMAND : 	42
NODE_COORD_SECTION
1 238 446
2 749 750
3 960 879
4 914 116
5 517 477
6 554 143
7 850 488
8 739 177
9 229 160
10 539 573
11 901 821
12 787 399
13 974 203
14 89 387
15 561 27
16 103 139
17 174 826
18 40 578
19 359 23
20 440 649
21 588 265
22 182 275
23 401 993
24 751 564
25 797 274
26 756 252
27 871 882
28 693 417
29 710 620
30 960 422
31 530 904
32 124 126
33 67 587
34 440 336
35 219 38
36 609 504
37 936 474
38 800 689
39 358 530
40 914 753
41 210 96
42 95 816
43 441 389
44 506 963
45 545 892
46 59 618
47 698 385
48 977 931
49 951 91
50 439 290
51 756 147
52 252 284
53 588 168
54 895 501
55 759 442
56 967 855
57 888 148
58 442 18
59 847 877
60 683 267
61 446 301
62 997 815
63 613 331
64 265 216
65 511 373
66 981 261
67 723 558
68 839 828
69 803 737
70 589 252
71 277 82
72 904 681
73 474 908
74 346 382
75 158 866
76 572 161
77 672 178
78 728 793
79 888 917
80 718 636
81 792 283
82 866 141
83 682 640
84 299 23
85 358 22
86 27 552
87 220 76
88 128 795
89 167 789
90 827 698
91 68 190
92 561 928
93 719 595
94 152 111
95 486 302
96 877 775
97 62 854
98 581 299
99 37 832
100 778 453
101 194 65
102 939 983
103 719 709
104 845 806
105 753 610
106 384 707
107 741 825
108 457 590
109 35 357
110 518 607
111 249 16
112 724 269
113 567 58
114 865 296
115 426 19
116 961 860
117 388 315
118 433 70
119 264 540
120 76 564
121 42 866
122 988 538
123 77 75
124 46 609
125 761 523
126 954 696
127 682 723
128 8 378
129 469 286
130 502 45
131 104 123
132 638 65
133 806 705
134 87 388
135 70 459
136 736 661
137 635 631
138 808 238
139 761 524
140 84 342
141 509 878
142 98 641
143 835 478
144 33 673
145 193 813
146 702 480
147 748 318
148 925 844
149 814 904
150 59 627
151 845 468
152 904 365
153 532 267
154 382 505
155 603 595
156 166 753
157 554 159
158 925 3
159 667 660
160 355 936
161 852 837
162 554 116
163 387 383
164 861 58
165 348 13
166 850 535
167 393 995
168 680 498
169 115 593
170 466 983
171 406 531
172 596 274
173 550 949
174 354 963
175 910 91
176 833 437
177 94 829
178 619 456
179 655 419
180 439 945
181 523 905
182 13 539
183 827 661
184 788 713
185 455 357
186 200 213
187 982 944
188 199 197
189 859 498
190 791 757
191 291 577
192 490 126
193 25 95
194 20 522
195 121 204
196 755 392
197 549 56
198 84 184
199 953 127
200 108 836
201 76 779
202 45 791
203 791 266
204 162 83
205 110 342
206 987 835
207 339 605
208 508 883
209 946 885
210 986 694
211 309 48
212 873 461
213 949 410
214 890 388
215 704 356
216 687 142
217 158 154
218 471 294
219 439 348
220 730 134
221 698 366
222 219 270
223 728 209
224 137 420
225 60 763
226 226 7
227 613 135
228 989 857
229 904 996
230 951 678
231 991 254
232 253 75
233 840 877
234 260 38
235 620 219
236 417 647
237 938 810
238 898 705
239 507 121
240 154 615
241 993 267
242 527 863
243 555 502
244 237 9
245 79 432
246 636 429
247 454 640
248 734 311
249 946 827
250 523 585
DEMAND_SECTION
2 55
3 64
4 100
5 66
6 68
7 95
8 67
9 100
10 75
11 65
12 98
13 100
14 66
15 82
16 84
17 89
18 62
19 64
20 87
21 94
22 75
23 53
24 99
25 85
26 87
27 83
28 82
29 78
30 84
31 67
32 61
33 56
34 63
35 98
36 79
37 95
38 92
39 51
40 66
41 50
42 82
43 66
COVERAGE_SECTION
2 6 190 78 103 184 69 127 
3 7 209 116 56 228 148 206 249 
4 6 175 57 199 49 82 164 
5 1 243 
6 6 157 76 162 53 239 227 
7 7 189 143 151 212 54 166 176 
8 5 51 223 220 216 77 
9 6 188 186 41 64 217 87 
10 4 250 110 155 243 
11 7 148 237 249 96 161 104 68 
12 6 196 55 100 176 47 147 
13 7 231 66 241 199 57 4 49 
14 6 134 140 245 205 224 109 
15 6 197 113 130 132 162 239 
16 7 131 32 198 94 217 91 195 
17 7 145 89 75 88 200 156 42 
18 7 33 86 124 120 46 182 150 
19 7 85 165 211 84 115 58 118 
20 5 247 236 108 106 110 
21 6 172 70 98 153 235 63 
22 3 222 186 52 
23 5 167 174 180 170 160 
24 6 67 139 125 93 105 29 
25 7 81 203 138 26 147 114 112 
26 7 112 203 25 81 223 138 248 
27 7 59 233 79 161 149 68 148 
28 7 47 179 221 246 215 146 196 
29 7 80 93 83 105 136 159 67 
30 7 213 37 214 152 212 54 122 
31 7 181 45 208 141 92 242 173 
32 7 131 16 94 217 204 123 198 
33 7 120 18 124 46 150 169 86 
34 7 219 185 61 50 218 43 117 
35 7 226 244 101 111 87 234 232 
36 6 178 243 168 246 155 5 
37 7 54 30 212 213 189 122 7 
38 5 133 184 90 183 69 
39 4 154 171 207 191 
40 6 96 238 237 11 126 72 
41 7 87 101 232 204 35 94 9 
42 7 177 200 88 201 97 202 99 
43 7 185 219 34 163 65 61 117 
44 7 170 173 181 31 73 92 180 
45 7 31 181 242 208 92 141 173 
46 7 150 124 33 18 142 120 144 
47 5 221 215 28 179 196 
48 7 187 3 209 102 116 228 56 
49 7 199 175 4 57 158 164 82 
50 6 61 129 218 34 95 117 
51 2 220 8 
52 5 222 64 22 186 188 
53 5 76 157 227 6 235 
54 7 189 212 7 37 166 151 143 
55 6 100 196 12 146 28 176 
56 7 116 228 3 206 249 209 148 
57 4 82 4 175 199 
58 6 115 118 130 19 85 165 
59 6 233 27 161 149 68 79 
60 5 112 248 223 26 235 
61 6 50 218 129 34 95 219 
62 7 206 228 56 249 116 237 3 
63 4 98 172 21 70 
64 5 186 9 52 188 222 
65 4 185 43 95 219 
66 6 231 241 13 114 152 199 
67 6 24 93 139 125 105 29 
68 5 161 104 233 59 11 
69 5 190 184 133 90 38 
70 6 21 172 235 98 153 63 
71 7 232 211 234 87 84 41 111 
72 4 238 230 126 40 
73 6 208 141 181 180 31 44 
74 5 163 117 43 219 34 
75 4 17 200 145 177 
76 5 53 157 6 162 227 
77 5 216 223 235 8 220 
78 3 107 2 190 
79 6 27 59 233 209 149 3 
80 6 29 136 83 93 105 159 
81 7 25 203 26 138 147 248 112 
82 2 57 4 
83 6 159 29 80 137 93 136 
84 7 211 234 111 165 85 19 71 
85 7 19 165 211 84 115 58 118 
86 7 182 18 194 120 33 124 46 
87 7 41 101 232 35 234 71 204 
88 7 42 89 200 177 201 17 156 
89 6 145 156 17 88 200 42 
90 5 133 38 183 184 69 
91 5 198 195 16 131 32 
92 6 173 31 45 181 44 208 
93 7 29 67 105 80 24 83 136 
94 7 204 32 217 131 16 41 101 
95 5 218 129 61 50 34 
96 5 40 104 11 68 161 
97 5 121 99 177 200 42 
98 5 172 21 63 70 153 
99 6 97 121 202 177 42 201 
100 6 55 12 176 143 196 151 
101 7 87 41 35 204 232 94 226 
102 6 229 187 48 79 209 3 
103 5 127 2 136 184 159 
104 4 68 161 96 11 
105 6 93 29 80 24 136 67 
106 2 236 20 
107 2 78 2 
108 2 247 20 
109 4 128 140 134 14 
110 5 250 10 108 247 155 
111 7 244 226 234 35 84 232 87 
112 5 26 60 248 147 223 
113 6 197 15 162 130 132 6 
114 6 25 81 152 203 138 214 
115 6 58 118 19 85 165 130 
116 7 56 3 228 209 206 249 148 
117 6 34 50 61 219 163 74 
118 5 115 58 130 192 19 
119 2 191 39 
120 6 33 18 169 86 124 46 
121 5 97 99 177 200 42 
122 4 37 54 30 213 
123 3 131 193 16 
124 7 46 150 33 18 120 86 142 
125 4 139 24 67 100 
126 5 230 210 72 238 40 
127 5 103 159 2 136 83 
128 5 109 134 14 140 245 
129 5 218 95 61 50 34 
130 6 197 15 58 113 118 239 
131 7 16 32 94 123 217 198 204 
132 4 113 227 15 197 
133 6 38 184 90 69 183 190 
134 6 14 245 140 205 224 109 
135 3 245 134 14 
136 7 80 29 103 105 83 93 159 
137 5 159 83 155 29 80 
138 4 203 25 81 26 
139 4 125 24 67 100 
140 4 205 14 134 109 
141 6 208 242 181 31 45 73 
142 6 150 46 169 124 33 240 
143 7 151 7 189 176 212 166 100 
144 5 150 46 124 142 33 
145 5 17 89 75 156 88 
146 5 168 28 55 125 139 
147 5 248 112 81 215 25 
148 7 249 11 237 116 56 209 3 
149 3 233 59 27 
150 7 46 124 33 142 18 144 120 
151 7 143 7 212 176 189 54 166 
152 7 214 213 114 30 176 212 37 
153 4 21 95 70 98 
154 2 39 171 
155 6 137 10 250 110 36 83 
156 4 89 88 145 17 
157 5 6 76 53 162 239 
158 4 164 175 49 4 
159 4 83 137 80 29 
160 3 174 167 23 
161 6 68 104 59 233 27 11 
162 7 6 157 239 76 113 197 53 
163 7 74 43 219 117 34 185 61 
164 2 175 4 
165 7 85 19 84 211 115 234 58 
166 4 189 7 54 143 
167 5 23 174 180 160 170 
168 6 146 36 67 178 28 246 
169 6 240 33 120 142 46 150 
170 7 44 180 23 167 73 173 181 
171 2 154 39 
172 7 21 70 98 63 235 153 60 
173 6 92 44 31 181 45 208 
174 3 160 167 23 
175 6 4 49 199 164 57 82 
176 7 151 143 212 7 100 12 189 
177 6 42 200 97 88 201 99 
178 7 246 36 179 168 243 28 146 
179 7 246 28 178 47 221 146 215 
180 6 170 73 23 167 44 160 
181 7 31 45 208 141 242 92 73 
182 6 194 86 18 120 33 124 
183 3 90 38 133 
184 7 133 38 69 90 190 2 183 
185 7 219 34 43 61 65 95 218 
186 7 188 9 222 22 64 217 195 
187 6 48 102 3 209 116 228 
188 7 186 9 217 64 222 195 22 
189 6 7 143 151 54 166 212 
190 4 69 2 184 133 
191 3 119 207 39 
192 4 239 162 6 157 
193 4 123 131 16 32 
194 6 182 86 18 120 33 135 
195 7 198 91 217 16 32 188 186 
196 7 12 55 47 215 221 100 28 
197 7 113 15 130 162 239 6 132 
198 6 91 195 16 131 32 217 
199 7 49 4 175 57 13 82 164 
200 6 177 42 88 97 75 201 
201 7 225 202 42 177 88 200 99 
202 7 225 201 99 42 177 97 121 
203 6 25 81 138 26 112 147 
204 7 94 101 41 32 87 131 217 
205 3 140 14 134 
206 7 62 228 56 116 249 3 237 
207 3 191 39 236 
208 6 141 181 242 31 45 73 
209 7 3 116 56 148 228 48 249 
210 5 126 230 72 238 40 
211 7 84 71 234 165 85 19 232 
212 7 151 7 189 143 54 176 37 
213 7 30 214 152 37 212 54 151 
214 7 152 213 176 212 30 151 114 
215 5 221 47 248 147 28 
216 4 77 220 8 51 
217 7 94 32 16 188 131 195 9 
218 5 129 95 61 50 34 
219 7 34 185 43 61 50 117 163 
220 3 51 8 216 
221 5 215 47 28 196 248 
222 5 52 22 186 64 188 
223 7 8 26 112 77 51 60 220 
224 3 14 134 245 
225 5 201 202 42 99 177 
226 7 244 111 35 234 101 87 232 
227 4 53 76 6 162 
228 7 56 206 116 3 62 209 249 
229 5 102 79 187 48 27 
230 5 126 210 72 238 40 
231 7 66 241 13 114 199 152 57 
232 7 71 87 234 41 35 111 101 
233 6 59 27 149 161 68 79 
234 7 111 244 232 35 84 226 71 
235 5 70 21 53 172 77 
236 5 20 247 106 108 207 
237 7 249 148 11 56 116 206 62 
238 4 72 40 126 230 
239 6 192 162 6 157 76 130 
240 3 169 142 33 
241 7 66 231 13 114 152 199 213 
242 5 141 208 45 31 181 
243 5 5 36 10 178 250 
244 7 226 111 35 234 84 232 87 
245 4 135 134 14 224 
246 7 179 178 28 47 36 168 146 
247 5 20 236 108 110 250 
248 5 147 112 215 26 81 
249 7 237 148 56 116 206 11 62 
250 3 10 110 108 
DEPOT_SECTION
   1
   -1
EOF
