NAME :  X-n480-kX-w191-c11.cctp
COMMENT : 	Adapted by Maziero, Usberti and Cavellucci from the Uchoa, Pecin, Pessoa, Poggi, Subramanian, and Vidal (2013)
TYPE :  CCTP
DIMENSION :    480
EDGE_WEIGHT_TYPE : 	EUC_2D	
CAPACITY : 	52
VERTICES_WITHIN_COVERAGE :  11
VERTICES_WITH_DEMAND : 	191
NODE_COORD_SECTION
1 628 103
2 291 573
3 129 447
4 973 643
5 830 868
6 398 563
7 731 423
8 201 995
9 167 174
10 31 358
11 480 619
12 323 555
13 205 208
14 187 767
15 775 445
16 745 369
17 188 965
18 44 585
19 405 706
20 185 315
21 505 636
22 482 543
23 830 860
24 344 498
25 762 379
26 761 399
27 869 844
28 114 420
29 890 491
30 440 802
31 929 676
32 524 456
33 361 434
34 377 478
35 191 496
36 646 352
37 795 962
38 483 492
39 174 597
40 208 464
41 693 461
42 56 114
43 877 898
44 483 596
45 757 915
46 833 803
47 676 597
48 818 695
49 494 648
50 5 167
51 197 146
52 170 313
53 354 624
54 603 437
55 773 462
56 386 610
57 75 183
58 442 485
59 269 543
60 770 869
61 342 542
62 103 508
63 799 441
64 935 918
65 790 696
66 857 459
67 319 541
68 195 131
69 328 617
70 297 697
71 337 529
72 337 620
73 152 735
74 302 491
75 229 909
76 508 567
77 940 591
78 490 571
79 262 962
80 818 425
81 357 82
82 743 377
83 927 322
84 335 633
85 725 477
86 839 403
87 333 557
88 421 589
89 515 601
90 791 669
91 935 639
92 314 623
93 238 198
94 1000 656
95 613 387
96 425 544
97 299 730
98 359 986
99 107 394
100 766 513
101 409 500
102 144 441
103 163 479
104 400 560
105 198 506
106 176 926
107 763 458
108 761 982
109 986 312
110 94 492
111 183 372
112 383 562
113 384 366
114 204 147
115 373 443
116 231 359
117 340 551
118 751 545
119 232 198
120 271 629
121 139 319
122 305 521
123 370 556
124 273 895
125 466 566
126 865 654
127 869 910
128 216 415
129 41 244
130 304 153
131 97 186
132 368 504
133 194 925
134 254 246
135 766 440
136 212 535
137 492 471
138 314 590
139 153 22
140 235 976
141 70 484
142 748 521
143 675 415
144 705 421
145 267 658
146 471 562
147 870 876
148 24 331
149 882 865
150 864 841
151 730 459
152 734 383
153 200 392
154 367 641
155 966 646
156 856 722
157 336 971
158 191 969
159 898 763
160 857 790
161 206 143
162 682 258
163 230 771
164 745 394
165 692 452
166 395 437
167 503 642
168 326 565
169 888 761
170 134 223
171 300 695
172 423 593
173 204 516
174 158 441
175 133 604
176 140 79
177 673 529
178 788 909
179 954 788
180 843 989
181 145 278
182 764 881
183 125 504
184 301 977
185 540 385
186 92 399
187 192 176
188 169 888
189 101 564
190 506 603
191 137 584
192 121 451
193 802 286
194 229 981
195 706 365
196 761 741
197 70 415
198 198 502
199 142 323
200 839 888
201 772 526
202 237 235
203 308 579
204 791 283
205 801 882
206 873 368
207 977 606
208 514 594
209 123 227
210 848 261
211 603 508
212 128 454
213 283 535
214 934 787
215 868 930
216 181 618
217 904 440
218 140 672
219 181 689
220 587 479
221 451 745
222 402 34
223 962 687
224 776 972
225 223 915
226 242 683
227 149 353
228 831 873
229 332 672
230 44 546
231 754 940
232 197 971
233 872 879
234 63 283
235 119 398
236 211 995
237 819 887
238 296 542
239 596 153
240 916 873
241 239 931
242 830 971
243 837 887
244 107 365
245 774 369
246 933 612
247 312 807
248 905 557
249 768 692
250 761 420
251 812 621
252 350 667
253 150 393
254 407 490
255 806 935
256 646 471
257 286 627
258 774 888
259 440 615
260 204 991
261 117 90
262 277 979
263 840 813
264 313 708
265 882 881
266 234 889
267 257 56
268 224 516
269 349 921
270 214 144
271 382 283
272 826 883
273 967 562
274 763 487
275 341 554
276 61 494
277 329 948
278 220 601
279 160 538
280 217 126
281 837 636
282 949 661
283 931 987
284 6 436
285 934 726
286 154 327
287 98 361
288 399 584
289 759 634
290 680 453
291 869 362
292 232 538
293 126 636
294 847 860
295 834 503
296 164 447
297 330 175
298 163 242
299 97 651
300 139 530
301 921 868
302 48 486
303 38 202
304 134 708
305 717 846
306 640 705
307 305 727
308 197 891
309 460 573
310 387 417
311 382 519
312 124 241
313 803 815
314 757 597
315 356 411
316 352 846
317 112 299
318 916 589
319 150 952
320 170 391
321 68 410
322 100 500
323 958 616
324 205 147
325 654 402
326 981 766
327 138 584
328 216 332
329 186 443
330 671 534
331 160 475
332 104 159
333 240 951
334 161 74
335 403 437
336 456 327
337 172 247
338 417 601
339 490 600
340 23 319
341 254 376
342 160 152
343 855 778
344 159 149
345 228 636
346 169 168
347 274 684
348 176 108
349 770 337
350 261 226
351 345 615
352 297 588
353 888 1000
354 989 575
355 736 422
356 292 17
357 893 829
358 221 975
359 139 252
360 372 588
361 854 612
362 814 849
363 431 513
364 292 780
365 817 382
366 209 252
367 369 460
368 4 252
369 114 48
370 364 113
371 932 709
372 468 470
373 851 660
374 774 798
375 526 611
376 202 136
377 993 516
378 228 142
379 370 528
380 327 636
381 134 190
382 988 634
383 310 663
384 960 699
385 989 609
386 332 575
387 114 199
388 22 461
389 986 630
390 233 947
391 198 981
392 599 858
393 47 518
394 616 451
395 153 358
396 284 599
397 440 645
398 825 894
399 229 186
400 142 637
401 77 417
402 368 714
403 234 547
404 224 194
405 228 763
406 839 860
407 170 453
408 141 55
409 395 569
410 124 795
411 784 319
412 367 655
413 241 949
414 265 609
415 309 109
416 579 588
417 968 971
418 374 588
419 953 903
420 268 995
421 101 427
422 434 539
423 874 663
424 340 555
425 265 215
426 169 312
427 845 973
428 240 670
429 758 336
430 287 585
431 258 525
432 794 253
433 726 382
434 487 551
435 592 837
436 279 547
437 820 692
438 926 852
439 991 659
440 478 410
441 443 568
442 625 630
443 128 364
444 577 761
445 379 548
446 999 672
447 863 505
448 178 937
449 364 490
450 160 197
451 186 335
452 757 408
453 240 154
454 497 647
455 322 484
456 768 833
457 392 601
458 355 536
459 414 573
460 349 615
461 367 682
462 358 552
463 78 516
464 743 601
465 766 516
466 835 509
467 823 812
468 141 474
469 446 325
470 415 483
471 303 134
472 311 526
473 791 365
474 951 686
475 298 520
476 140 179
477 848 729
478 315 451
479 160 413
480 341 997
DEMAND_SECTION
2 6
3 7
4 9
5 7
6 10
7 10
8 7
9 6
10 6
11 8
12 6
13 5
14 10
15 8
16 9
17 9
18 10
19 6
20 9
21 10
22 9
23 6
24 10
25 7
26 9
27 5
28 8
29 6
30 8
31 6
32 9
33 6
34 9
35 7
36 8
37 9
38 10
39 5
40 10
41 10
42 5
43 7
44 8
45 8
46 7
47 7
48 5
49 8
50 8
51 9
52 7
53 9
54 7
55 8
56 9
57 6
58 6
59 10
60 8
61 7
62 8
63 9
64 10
65 5
66 10
67 6
68 8
69 10
70 8
71 9
72 9
73 6
74 8
75 5
76 9
77 5
78 9
79 6
80 5
81 5
82 9
83 8
84 8
85 6
86 10
87 10
88 8
89 10
90 10
91 9
92 5
93 8
94 7
95 10
96 6
97 5
98 6
99 8
100 7
101 6
102 5
103 5
104 5
105 6
106 9
107 9
108 8
109 10
110 7
111 9
112 7
113 5
114 9
115 9
116 6
117 8
118 5
119 5
120 8
121 10
122 7
123 7
124 6
125 7
126 10
127 9
128 5
129 10
130 6
131 9
132 7
133 10
134 7
135 5
136 7
137 9
138 10
139 6
140 10
141 7
142 6
143 8
144 8
145 6
146 8
147 5
148 7
149 10
150 7
151 7
152 6
153 7
154 6
155 5
156 5
157 10
158 6
159 6
160 9
161 7
162 10
163 9
164 5
165 7
166 10
167 10
168 5
169 6
170 9
171 9
172 9
173 10
174 9
175 10
176 9
177 6
178 8
179 9
180 9
181 8
182 10
183 7
184 10
185 9
186 6
187 8
188 5
189 8
190 9
191 8
192 9
COVERAGE_SECTION
2 11 430 352 203 396 138 436 238 168 12 59 213 
3 11 212 192 102 174 468 28 421 296 407 331 479 
4 11 155 382 389 439 94 282 323 207 91 385 446 
5 11 228 23 406 272 294 243 200 237 362 398 205 
6 11 104 409 112 459 288 445 123 96 88 418 360 
7 11 355 144 250 452 164 151 26 135 152 433 107 
8 11 260 236 391 232 158 358 194 17 140 390 333 
9 11 346 342 450 187 344 476 381 51 114 324 161 
10 11 148 340 321 287 197 186 401 244 234 284 99 
11 11 339 44 21 190 49 167 454 89 259 208 375 
12 11 87 168 67 117 424 275 386 61 203 71 238 
13 11 404 119 399 93 187 202 366 450 9 337 298 
14 11 405 163 73 410 219 304 226 218 364 428 97 
15 11 135 55 107 63 250 452 274 355 80 151 26 
16 11 82 152 25 433 164 245 26 429 195 349 452 
17 11 158 232 391 448 260 8 358 236 133 319 106 
18 11 230 189 393 463 299 175 191 276 327 62 293 
19 11 402 461 221 412 252 397 154 229 264 53 259 
20 11 52 426 451 286 328 199 121 227 181 395 111 
21 11 167 454 49 11 190 375 89 339 208 44 397 
22 11 434 146 125 78 76 309 441 422 38 44 96 
23 11 5 406 228 294 362 272 243 200 237 398 205 
24 11 449 132 455 71 34 379 458 74 311 472 61 
25 11 245 82 16 26 164 152 452 473 433 250 349 
26 11 452 164 25 250 82 152 245 16 355 7 433 
27 11 150 149 294 357 147 406 233 265 23 263 5 
28 11 421 235 99 186 3 192 102 212 401 197 253 
29 11 447 66 217 295 466 248 80 318 86 63 273 
30 11 221 316 19 402 247 461 444 269 364 307 435 
31 11 474 282 371 223 91 384 155 285 4 423 246 
32 11 137 38 372 440 220 185 54 58 394 211 22 
33 11 115 315 367 310 166 335 34 478 449 455 24 
34 11 449 367 132 254 115 470 24 101 311 166 33 
35 11 198 105 173 103 40 331 268 136 407 279 329 
36 11 95 325 195 143 433 144 152 54 16 82 162 
37 11 224 255 242 108 231 427 178 180 45 398 258 
38 11 137 372 58 22 32 363 434 422 470 146 101 
39 11 216 327 191 175 278 400 279 293 345 136 300 
40 11 329 35 198 407 105 103 296 331 128 173 268 
41 11 165 290 85 151 144 256 143 7 355 107 177 
42 11 261 332 57 50 131 369 303 176 387 408 476 
43 11 127 265 233 147 149 215 200 243 240 294 228 
44 11 339 11 190 78 208 89 309 125 146 76 434 
45 11 231 178 258 182 60 255 205 37 224 108 237 
46 11 263 467 160 313 343 150 362 27 23 406 294 
47 11 442 330 464 177 314 118 289 416 142 306 211 
48 11 437 65 90 477 156 373 249 126 281 423 196 
49 11 454 167 21 11 190 339 375 89 44 397 208 
50 11 303 57 42 129 368 131 332 387 234 381 209 
51 11 114 324 161 376 68 270 280 187 378 346 342 
52 11 426 20 286 451 199 121 181 227 395 328 111 
53 11 460 351 72 84 154 69 380 412 56 92 360 
54 11 394 220 95 256 325 211 143 290 32 185 165 
55 11 107 15 135 274 63 151 250 85 100 355 465 
56 11 457 418 360 288 338 53 154 460 88 172 351 
57 11 131 332 303 387 381 209 476 129 170 42 50 
58 11 470 363 372 254 101 38 137 422 96 335 34 
59 11 436 213 431 238 403 2 292 475 122 472 430 
60 11 182 258 205 456 178 45 362 237 272 305 5 
61 11 117 275 424 71 458 87 462 12 67 168 123 
62 11 322 110 183 463 141 300 276 468 189 393 302 
63 11 15 80 55 135 107 250 452 86 26 274 66 
64 11 419 240 301 43 417 265 127 438 215 283 233 
65 11 249 90 48 437 196 477 289 156 373 281 251 
66 11 29 447 295 217 80 466 86 63 15 55 365 
67 11 12 472 87 71 61 117 238 122 168 424 275 
68 11 376 51 161 114 324 270 280 348 378 344 342 
69 11 72 92 84 351 380 460 53 138 352 386 203 
70 11 171 264 347 307 97 383 229 145 226 252 428 
71 11 61 458 67 117 275 424 472 87 12 462 24 
72 11 69 351 84 460 53 380 92 154 138 386 412 
73 11 304 14 219 218 410 405 163 400 299 293 226 
74 11 455 475 122 472 478 24 213 238 71 67 431 
75 11 225 266 241 308 133 390 413 333 124 106 448 
76 11 78 434 208 22 89 190 146 44 339 125 309 
77 11 246 318 323 207 273 91 248 354 385 389 155 
78 11 76 434 146 125 44 22 339 309 208 190 89 
79 11 262 333 413 140 390 420 194 241 184 358 225 
80 11 63 86 365 15 66 135 250 55 26 452 107 
81 11 370 415 222 471 130 356 297 267 453 378 280 
82 11 16 152 164 433 25 26 245 452 195 429 355 
83 11 109 291 206 210 86 217 365 193 204 411 473 
84 11 380 72 69 53 351 92 460 154 252 229 383 
85 11 151 41 274 165 107 55 142 290 7 100 135 
86 11 80 365 206 291 63 66 473 245 217 15 26 
87 11 424 117 275 12 168 61 386 67 462 71 458 
88 11 172 338 459 288 441 457 259 409 6 104 56 
89 11 208 190 375 339 44 76 21 11 78 167 454 
90 11 65 249 48 437 289 251 281 373 126 196 314 
91 11 282 246 155 323 31 4 77 474 389 207 318 
92 11 69 380 72 84 257 351 138 460 396 352 53 
93 11 119 399 404 425 13 350 202 453 134 187 378 
94 11 439 446 382 4 389 155 385 223 282 207 474 
95 11 325 36 54 394 143 185 256 290 195 220 144 
96 11 422 104 441 459 363 6 409 88 309 112 445 
97 11 307 264 70 171 364 347 229 383 402 226 247 
98 11 480 157 277 184 269 262 420 79 140 333 413 
99 11 235 186 28 244 287 421 443 401 321 197 253 
100 11 465 201 142 274 118 55 85 107 151 15 295 
101 11 254 470 363 311 58 34 132 422 449 96 379 
102 11 174 3 212 296 192 407 479 468 28 331 103 
103 11 331 468 407 296 35 174 102 198 212 329 105 
104 11 6 409 112 459 288 445 96 123 88 418 172 
105 11 198 35 173 268 136 40 103 292 331 279 403 
106 11 448 133 319 188 17 308 158 225 232 75 391 
107 11 55 15 135 274 151 250 63 85 355 7 452 
108 11 224 37 231 255 45 242 178 180 427 258 182 
109 11 83 206 291 210 217 86 365 193 66 204 432 
110 11 322 62 141 463 183 276 302 192 468 212 393 
111 11 320 153 395 451 227 253 479 116 328 128 286 
112 11 123 409 6 445 104 288 462 360 418 459 379 
113 11 310 315 33 166 335 469 115 336 271 367 440 
114 11 324 161 51 270 376 68 280 378 187 453 346 
115 11 33 367 166 310 335 34 315 449 254 470 478 
116 11 341 328 153 111 451 128 20 320 52 395 426 
117 11 275 424 61 87 12 462 168 458 71 67 386 
118 11 142 201 465 100 314 464 274 85 177 330 55 
119 11 93 404 399 13 202 425 350 453 187 134 378 
120 11 257 414 145 396 92 345 430 352 428 383 347 
121 11 199 286 426 52 317 227 181 395 20 443 451 
122 11 475 472 238 67 213 74 71 436 12 455 59 
123 11 445 462 112 458 379 409 6 275 104 117 424 
124 11 266 75 241 225 413 333 390 79 308 277 269 
125 11 146 309 441 78 434 22 44 76 339 422 96 
126 11 423 373 281 361 437 48 251 31 156 91 90 
127 11 43 215 233 265 147 200 243 149 398 272 228 
128 11 153 329 40 320 111 341 479 116 407 296 174 
129 11 368 303 234 57 340 131 312 209 50 387 148 
130 11 471 297 415 453 370 425 378 93 399 119 350 
131 11 387 57 332 381 476 209 170 303 312 450 9 
132 11 449 311 379 24 34 458 71 101 254 367 445 
133 11 106 448 225 308 75 17 158 188 241 390 232 
134 11 202 350 425 366 93 119 404 13 399 337 298 
135 11 15 107 250 55 63 452 355 7 26 151 274 
136 11 292 173 268 403 105 198 35 431 279 59 278 
137 11 38 372 32 58 440 22 363 470 434 254 101 
138 11 203 352 386 430 168 2 69 396 92 12 72 
139 11 408 369 334 176 261 348 267 68 280 376 344 
140 11 194 358 333 413 390 79 236 260 391 232 420 
141 11 276 302 110 463 322 62 393 388 183 192 212 
142 11 465 100 118 201 274 85 55 107 151 177 314 
143 11 325 144 290 165 41 7 195 355 433 256 152 
144 11 7 143 355 165 290 41 433 151 152 164 325 
145 11 347 120 428 226 257 383 345 70 414 171 92 
146 11 125 309 434 78 22 441 44 76 339 422 96 
147 11 233 265 149 43 294 27 200 127 243 406 150 
148 11 340 10 234 287 368 129 244 321 317 186 197 
149 11 147 265 233 27 150 43 240 294 357 301 406 
150 11 27 294 149 357 406 147 263 23 233 5 265 
151 11 85 107 7 41 355 165 135 55 274 144 15 
152 11 433 82 164 16 25 26 195 452 355 7 245 
153 11 111 128 320 116 479 253 329 341 395 451 328 
154 11 412 53 252 460 84 351 56 72 380 461 69 
155 11 4 282 382 389 439 323 91 94 207 223 446 
156 11 477 48 437 169 343 159 373 423 160 126 65 
157 11 277 480 98 184 269 262 420 79 333 413 124 
158 11 17 232 391 260 8 358 236 448 194 133 319 
159 11 169 214 343 160 285 156 477 179 371 357 46 
160 11 343 46 263 467 169 159 150 357 27 313 477 
161 11 114 324 270 376 51 68 280 378 187 453 346 
162 11 36 429 195 204 432 349 411 193 16 433 82 
163 11 405 14 364 97 73 307 226 247 219 347 70 
164 11 152 26 82 452 433 25 16 355 250 7 245 
165 11 41 290 144 151 85 143 7 256 355 325 107 
166 11 335 310 115 33 367 34 315 470 254 449 101 
167 11 21 454 49 11 190 375 89 339 208 44 397 
168 11 12 87 386 424 275 117 203 67 61 138 462 
169 11 159 343 160 156 477 214 285 357 371 46 179 
170 11 209 312 359 387 381 298 450 476 337 131 181 
171 11 70 264 347 307 383 97 229 145 252 226 380 
172 11 88 338 459 288 259 441 457 409 6 104 56 
173 11 105 198 268 136 35 292 403 279 40 103 431 
174 11 296 102 407 329 479 3 212 331 468 103 192 
175 11 191 327 293 400 39 216 189 299 218 279 300 
176 11 334 408 261 369 348 139 344 68 342 376 51 
177 11 330 256 47 41 211 85 142 290 165 118 151 
178 11 258 205 45 255 182 237 398 60 231 272 37 
179 11 214 326 159 285 438 169 357 371 301 384 240 
180 11 427 242 353 37 215 255 224 108 127 283 43 
181 11 359 317 298 121 337 426 52 312 199 286 20 
182 11 258 60 45 178 205 456 237 305 362 231 272 
183 11 62 322 300 110 468 103 331 279 463 212 192 
184 11 262 157 420 277 79 480 98 140 333 413 194 
185 11 440 32 95 54 137 394 336 220 36 372 469 
186 11 99 401 321 197 235 421 28 244 287 443 253 
187 11 346 9 51 114 324 13 161 404 399 450 270 
188 11 308 106 133 448 225 75 266 319 17 241 158 
189 11 191 327 175 300 463 62 230 18 279 322 183 
190 11 89 208 339 375 44 11 21 76 78 167 454 
191 11 327 175 39 189 279 293 400 300 216 299 183 
192 11 212 3 102 468 421 28 174 296 331 110 407 
193 11 204 432 411 210 349 429 473 245 365 16 25 
194 11 140 358 236 260 8 391 333 232 390 413 79 
195 11 433 152 16 82 164 144 25 143 429 36 7 
196 11 249 65 374 48 437 90 313 477 456 467 46 
197 11 321 401 186 421 99 28 235 287 192 244 388 
198 11 105 35 173 268 136 40 103 331 292 279 407 
199 11 121 286 426 52 227 395 317 443 20 181 451 
200 11 243 272 398 228 237 5 406 23 294 147 233 
201 11 465 100 142 118 274 55 466 295 85 107 314 
202 11 134 350 366 425 93 119 13 404 399 337 187 
203 11 138 352 2 430 168 386 12 396 87 238 67 
204 11 193 432 411 349 210 429 473 245 16 25 365 
205 11 237 272 398 258 178 228 5 60 362 23 243 
206 11 291 86 365 83 217 80 473 66 245 411 63 
207 11 385 323 389 382 354 4 77 155 246 273 91 
208 11 89 190 375 339 76 44 78 11 21 167 434 
209 11 170 312 387 359 381 298 450 131 476 337 181 
210 11 193 432 204 411 83 291 349 206 429 473 365 
211 11 220 256 394 54 177 330 416 32 290 41 165 
212 11 3 192 102 468 174 28 296 331 421 407 103 
213 11 436 238 59 475 122 431 472 67 2 12 74 
214 11 179 159 326 169 357 285 438 160 371 343 301 
215 11 127 43 427 200 233 265 243 147 242 398 255 
216 11 39 278 400 175 345 327 191 293 218 219 428 
217 11 66 29 86 447 206 291 80 295 466 63 365 
218 11 400 304 293 219 299 73 175 216 39 191 327 
219 11 218 304 73 226 428 400 216 345 293 14 405 
220 11 211 394 54 256 32 137 95 290 177 330 325 
221 11 30 19 402 397 461 49 454 167 21 412 444 
222 11 81 370 356 415 471 267 130 297 453 378 280 
223 11 474 384 282 31 371 439 446 155 4 285 94 
224 11 108 37 231 255 242 45 178 180 427 258 182 
225 11 75 241 266 133 390 308 413 333 106 448 124 
226 11 428 347 145 345 70 171 120 219 257 383 97 
227 11 395 443 286 199 121 111 253 451 320 244 52 
228 11 5 272 23 243 406 200 237 294 398 362 205 
229 11 252 383 380 461 84 171 412 264 70 154 72 
230 11 393 18 463 276 189 302 141 62 322 110 388 
231 11 45 224 108 178 37 255 258 182 60 205 242 
232 11 158 391 17 260 8 358 236 194 140 448 390 
233 11 147 265 149 43 127 294 200 27 243 406 150 
234 11 129 317 340 148 368 312 10 181 209 359 121 
235 11 99 28 186 253 421 244 443 287 479 401 3 
236 11 260 8 391 358 194 232 140 158 17 333 390 
237 11 272 398 228 243 205 200 5 23 406 178 362 
238 11 213 436 472 475 67 122 59 12 2 168 203 
239 11 162 36 432 336 222 469 204 95 370 185 195 
240 11 301 438 149 265 233 43 147 419 64 357 27 
241 11 390 413 333 225 75 79 266 133 140 358 124 
242 11 427 180 37 255 224 215 353 108 127 178 398 
243 11 200 272 398 228 237 5 406 23 294 147 205 
244 11 287 443 99 235 186 227 395 253 28 199 121 
245 11 25 473 16 82 349 26 429 164 152 452 365 
246 11 77 323 91 318 207 155 4 282 385 389 382 
247 11 364 316 97 307 163 405 124 264 402 70 171 
248 11 318 77 246 273 447 29 361 323 466 354 91 
249 11 65 90 196 48 437 289 251 477 281 373 156 
250 11 452 26 135 355 15 7 164 107 25 63 55 
251 11 281 361 90 289 373 314 126 437 464 48 423 
252 11 229 412 461 154 84 380 383 53 72 402 351 
253 11 320 479 235 395 443 111 227 99 28 102 174 
254 11 101 470 34 363 58 311 132 449 367 335 379 
255 11 37 178 242 398 224 237 231 45 205 427 272 
256 11 394 290 41 165 54 211 220 143 177 330 325 
257 11 120 92 396 414 145 352 380 430 69 383 138 
258 11 182 60 178 205 45 237 398 272 456 231 362 
259 11 338 172 397 88 11 44 309 441 459 457 288 
260 11 8 236 391 232 358 158 194 17 140 390 333 
261 11 176 369 408 334 348 42 332 344 342 139 68 
262 11 420 79 184 140 333 413 194 390 358 157 241 
263 11 46 467 160 150 313 343 27 362 406 23 294 
264 11 171 70 307 97 229 383 347 252 402 461 145 
265 11 233 147 149 43 127 240 27 294 301 150 200 
266 11 75 225 308 124 241 133 390 413 333 188 106 
267 11 356 415 280 378 471 348 68 376 270 334 453 
268 11 173 136 292 105 198 403 431 35 59 40 213 
269 11 277 157 98 184 316 480 124 262 79 241 420 
270 11 161 324 114 376 378 51 280 68 453 187 399 
271 11 469 113 336 297 315 134 310 350 425 33 130 
272 11 237 228 398 243 200 5 23 205 406 294 362 
273 11 354 77 207 385 377 323 318 246 248 389 382 
274 11 100 55 107 465 142 85 201 151 15 135 63 
275 11 424 117 87 61 462 12 168 386 458 71 67 
276 11 141 302 393 463 110 322 62 388 230 183 192 
277 11 157 269 184 98 480 262 79 124 420 413 333 
278 11 345 216 39 414 403 120 292 396 136 430 257 
279 11 300 173 183 105 191 327 35 136 198 103 39 
280 11 270 376 378 161 68 324 114 51 453 348 187 
281 11 373 251 361 126 423 90 437 48 65 289 156 
282 11 155 31 474 91 223 4 384 439 323 382 389 
283 11 417 353 64 215 419 427 180 127 242 43 240 
284 11 388 302 197 321 401 141 276 10 393 186 421 
285 11 371 384 474 223 31 159 169 214 326 179 282 
286 11 199 121 52 426 227 395 20 451 443 181 317 
287 11 244 443 99 186 235 227 395 321 199 121 401 
288 11 409 457 459 6 88 104 338 418 172 112 360 
289 11 314 464 90 251 249 65 281 437 48 118 47 
290 11 165 41 143 256 144 151 85 325 7 355 394 
291 11 206 86 365 83 473 80 217 245 411 66 193 
292 11 403 136 268 431 173 59 105 436 198 213 35 
293 11 400 175 299 218 191 327 216 39 304 189 219 
294 11 406 23 5 228 150 27 147 200 243 233 272 
295 11 466 447 66 29 201 100 465 63 55 274 80 
296 11 174 407 102 329 331 103 479 3 468 212 192 
297 11 130 471 415 370 425 350 453 93 81 119 399 
298 11 337 359 170 312 181 209 450 366 13 381 387 
299 11 293 400 218 175 304 191 327 18 189 216 219 
300 11 279 183 62 322 189 191 327 103 468 110 331 
301 11 240 438 149 265 419 357 233 64 147 43 27 
302 11 276 141 393 388 463 110 322 62 230 284 197 
303 11 57 129 50 368 131 387 332 234 209 42 312 
304 11 73 218 219 299 400 293 14 410 216 175 405 
305 11 456 60 182 258 374 45 205 313 178 362 231 
306 11 442 444 47 196 249 416 289 435 464 375 65 
307 11 97 264 70 171 347 364 229 383 402 252 226 
308 11 188 133 225 75 266 106 448 241 390 413 333 
309 11 125 146 441 78 44 434 22 339 88 172 422 
310 11 166 335 115 33 315 367 113 34 470 254 449 
311 11 379 132 445 458 101 449 254 123 34 462 24 
312 11 209 359 170 298 181 387 337 381 450 317 131 
313 11 467 46 374 362 263 456 23 406 5 160 60 
314 11 464 289 118 251 201 142 90 47 465 100 281 
315 11 33 310 115 166 367 113 335 478 34 449 455 
316 11 247 269 364 124 30 277 157 266 97 307 402 
317 11 121 199 181 286 234 359 426 312 52 287 227 
318 11 77 246 248 323 91 273 207 361 354 155 385 
319 11 448 106 17 158 232 133 391 8 188 260 236 
320 11 253 111 479 153 395 227 443 174 235 128 329 
321 11 197 401 186 421 99 28 235 287 244 10 192 
322 11 62 110 183 463 141 276 300 468 192 212 302 
323 11 207 246 4 77 155 389 385 91 382 282 318 
324 11 114 161 51 270 376 68 280 378 187 453 346 
325 11 143 95 36 144 290 54 394 165 195 256 41 
326 11 179 214 285 384 371 223 159 474 169 446 438 
327 11 191 175 39 189 279 293 400 300 216 299 183 
328 11 451 116 20 52 426 111 341 153 286 395 227 
329 11 407 296 174 40 479 128 331 102 103 35 153 
330 11 177 47 256 211 41 142 85 118 290 165 151 
331 11 103 468 407 296 174 35 102 212 329 3 183 
332 11 131 57 387 476 381 342 344 9 42 346 450 
333 11 413 390 241 79 140 358 194 225 75 262 232 
334 11 176 408 348 261 139 369 68 376 344 280 342 
335 11 166 310 115 367 33 470 34 254 315 58 101 
336 11 469 113 271 440 185 310 335 166 315 33 115 
337 11 298 359 366 181 170 312 13 450 209 426 52 
338 11 172 88 288 457 259 459 56 409 6 441 104 
339 11 44 190 11 89 208 78 76 375 21 309 125 
340 11 148 10 234 368 129 287 317 244 321 186 197 
341 11 116 128 153 328 111 451 320 20 329 478 40 
342 11 344 346 9 476 51 187 68 114 324 376 450 
343 11 160 46 169 263 159 467 477 156 150 313 357 
344 11 342 346 9 476 51 68 187 348 114 376 324 
345 11 278 428 120 145 414 226 216 257 347 39 396 
346 11 9 342 344 187 450 476 51 114 381 324 68 
347 11 70 145 171 226 428 383 264 97 307 120 257 
348 11 68 334 376 51 344 280 161 176 342 114 324 
349 11 429 411 245 473 16 25 82 152 204 193 164 
350 11 425 134 202 93 119 404 399 366 13 453 130 
351 11 460 72 53 69 84 380 92 154 360 138 418 
352 11 430 203 2 138 396 168 386 414 92 257 12 
353 11 283 180 427 242 215 417 127 64 37 43 255 
354 11 273 207 385 323 77 389 377 382 246 4 318 
355 11 7 250 452 164 144 26 135 151 152 433 15 
356 11 267 81 415 222 471 370 280 130 139 378 334 
357 11 27 150 149 438 301 240 147 160 265 233 263 
358 11 194 140 236 260 232 391 8 390 158 333 413 
359 11 312 298 181 170 209 337 317 387 450 381 121 
360 11 418 457 56 288 112 409 123 460 6 351 462 
361 11 281 126 251 373 423 318 248 246 90 91 437 
362 11 23 5 406 228 205 294 272 313 237 467 243 
363 11 101 422 58 96 254 470 311 38 104 441 372 
364 11 247 97 307 163 405 264 70 171 316 347 402 
365 11 86 473 80 245 25 291 206 26 63 349 452 
366 11 202 337 13 134 298 350 119 404 93 20 425 
367 11 115 34 33 449 166 335 132 24 310 254 315 
368 11 129 303 234 340 148 50 57 10 131 317 312 
369 11 408 176 261 139 334 348 42 332 344 342 68 
370 11 81 415 471 297 130 222 356 267 453 378 425 
371 11 285 384 474 31 223 282 159 169 91 155 423 
372 11 137 38 58 470 363 32 440 254 101 335 22 
373 11 126 423 281 437 48 361 251 90 156 477 65 
374 11 313 456 467 196 46 362 263 60 305 160 343 
375 11 89 208 190 21 339 167 44 454 11 76 49 
376 11 161 68 51 114 324 270 280 378 348 187 453 
377 11 273 354 207 77 385 248 29 318 323 246 389 
378 11 270 453 280 161 324 114 376 51 68 399 187 
379 11 311 458 445 132 462 123 61 71 112 117 449 
380 11 84 92 69 72 351 53 460 383 229 252 154 
381 11 476 387 450 170 9 131 209 346 332 342 344 
382 11 389 4 94 155 385 439 207 323 446 282 91 
383 11 229 380 171 70 84 92 252 347 145 257 264 
384 11 223 474 371 285 31 282 446 439 155 4 94 
385 11 207 389 382 323 354 4 155 94 439 77 273 
386 11 168 87 12 424 138 275 203 117 61 462 67 
387 11 131 381 209 170 476 332 57 312 450 9 359 
388 11 284 302 276 141 393 197 321 401 110 463 421 
389 11 382 4 385 155 207 439 94 323 446 282 91 
390 11 333 413 241 140 358 79 194 225 75 232 133 
391 11 232 260 8 158 17 236 358 194 140 448 390 
392 11 435 444 305 306 182 45 30 60 456 231 258 
393 11 230 276 463 302 141 110 322 62 388 18 189 
394 11 54 256 220 211 325 95 290 143 165 41 32 
395 11 227 443 286 111 253 199 320 451 121 244 52 
396 11 430 352 414 2 257 138 203 120 92 69 436 
397 11 259 11 338 49 172 454 88 167 56 44 457 
398 11 237 272 243 200 228 5 205 23 406 178 294 
399 11 404 119 93 13 453 187 378 270 114 324 425 
400 11 293 175 218 216 299 39 191 327 219 304 189 
401 11 197 321 186 421 28 99 235 192 3 244 287 
402 11 461 19 252 229 264 412 307 97 171 70 154 
403 11 292 136 268 431 59 173 436 213 105 278 198 
404 11 119 399 93 13 187 202 453 425 350 114 270 
405 11 163 14 364 97 73 226 307 219 347 428 70 
406 11 294 23 5 228 272 243 362 200 150 27 237 
407 11 296 174 329 331 103 102 468 40 3 479 212 
408 11 176 334 369 139 261 348 68 344 342 376 42 
409 11 6 104 112 288 459 445 123 418 360 457 88 
410 11 73 14 304 188 163 405 219 308 218 106 266 
411 11 349 429 204 193 473 245 16 25 432 82 365 
412 11 154 252 461 53 84 229 380 460 72 351 56 
413 11 333 390 241 79 140 358 194 225 75 262 232 
414 11 120 396 257 430 352 2 278 345 145 92 203 
415 11 471 130 81 370 297 267 453 378 280 356 270 
416 11 375 442 89 208 76 190 211 21 339 78 167 
417 11 283 64 419 353 215 240 301 127 43 427 265 
418 11 360 457 56 288 112 409 123 6 460 104 462 
419 11 64 301 240 438 417 265 43 149 127 233 147 
420 11 262 79 140 184 194 358 333 413 236 390 260 
421 11 28 401 186 192 197 3 99 235 321 212 102 
422 11 96 363 441 459 104 125 6 309 146 101 22 
423 11 126 373 281 361 31 437 156 48 91 477 371 
424 11 275 117 87 61 12 168 462 386 458 67 71 
425 11 350 93 134 202 119 399 404 13 453 366 130 
426 11 52 20 286 199 451 121 181 227 395 328 317 
427 11 242 180 215 37 353 255 127 224 398 43 108 
428 11 226 145 345 347 120 219 70 257 171 414 383 
429 11 349 411 16 245 25 82 473 152 433 164 195 
430 11 352 2 396 203 138 414 436 257 168 238 59 
431 11 59 213 292 436 403 268 475 238 122 136 472 
432 11 204 193 210 411 349 429 162 473 245 16 25 
433 11 152 82 164 16 195 25 26 452 7 355 144 
434 11 22 146 78 76 125 309 44 441 339 208 422 
435 11 392 444 305 306 30 221 456 182 60 45 374 
436 11 59 213 238 2 431 475 122 472 430 67 203 
437 11 48 65 90 373 477 156 249 126 281 423 251 
438 11 301 240 357 149 265 27 419 233 147 150 214 
439 11 94 446 4 382 155 389 223 282 474 385 384 
440 11 372 137 32 185 335 38 58 336 166 310 469 
441 11 309 125 146 459 88 96 422 172 338 104 6 
442 11 47 416 306 375 330 177 89 208 21 190 464 
443 11 244 227 395 287 235 253 99 199 286 121 186 
444 11 435 306 392 221 454 49 167 442 30 21 375 
445 11 123 112 462 379 6 104 409 458 311 61 275 
446 11 439 94 4 223 382 155 389 384 474 282 385 
447 11 466 295 29 66 248 217 63 80 201 100 465 
448 11 106 133 17 319 158 232 391 188 225 308 390 
449 11 132 34 24 367 311 379 455 254 101 71 458 
450 11 9 381 476 346 170 187 298 342 13 387 209 
451 11 20 52 426 328 286 111 395 227 199 121 116 
452 11 26 250 164 355 25 7 135 82 152 433 15 
453 11 378 270 399 161 280 324 114 376 404 51 93 
454 11 49 167 21 11 190 375 339 89 44 208 397 
455 11 74 24 478 122 449 472 475 71 132 367 34 
456 11 60 374 313 182 362 305 258 205 467 23 5 
457 11 56 288 418 360 338 88 172 409 459 6 112 
458 11 61 462 379 71 117 275 424 123 445 87 311 
459 11 88 6 104 288 409 172 338 441 96 112 457 
460 11 351 53 72 69 84 380 154 360 92 56 418 
461 11 252 412 402 229 154 19 53 84 264 383 380 
462 11 123 458 275 117 424 61 445 87 112 379 71 
463 11 62 322 276 110 393 141 302 230 183 189 300 
464 11 314 289 118 47 251 142 201 90 465 100 249 
465 11 100 201 142 274 118 55 85 107 151 295 466 
466 11 295 447 66 29 201 100 465 274 63 55 248 
467 11 46 263 313 362 160 343 23 150 374 406 294 
468 11 331 103 212 3 192 102 183 296 407 174 322 
469 11 336 113 271 440 310 185 335 166 315 33 115 
470 11 254 101 58 363 34 335 311 166 132 367 449 
471 11 130 415 297 370 453 81 378 280 425 270 399 
472 11 122 475 67 238 71 213 12 61 74 87 117 
473 11 245 365 25 349 429 26 16 411 82 164 452 
474 11 223 384 31 282 371 155 285 4 439 91 446 
475 11 122 472 213 238 74 67 436 59 71 431 12 
476 11 381 9 450 346 387 342 344 332 131 170 209 
477 11 156 48 437 343 169 159 160 65 373 423 46 
478 11 455 74 33 24 367 315 115 449 34 122 475 
479 11 253 320 174 102 296 329 407 235 153 3 28 
480 11 98 157 184 277 262 420 269 79 140 333 413 
DEPOT_SECTION
   1
   -1
EOF
