NAME :  X-n449-kX-w89-c9.cctp
COMMENT : 	Adapted by Maziero, Usberti and Cavellucci from the Uchoa, Pecin, Pessoa, Poggi, Subramanian, and Vidal (2013)
TYPE :  CCTP
DIMENSION :    392
EDGE_WEIGHT_TYPE : 	EUC_2D	
CAPACITY : 	777
VERTICES_WITHIN_COVERAGE :  9
VERTICES_WITH_DEMAND : 	89
NODE_COORD_SECTION
1 0 0
2 300 71
3 434 4
4 257 798
5 718 17
6 879 206
7 929 330
8 353 793
9 389 540
10 202 55
11 417 253
12 921 572
13 94 788
14 870 327
15 281 124
16 411 288
17 882 116
18 307 240
19 359 935
20 352 858
21 502 776
22 269 33
23 440 814
24 850 461
25 909 404
26 339 458
27 767 535
28 86 47
29 758 532
30 426 282
31 534 10
32 826 830
33 911 79
34 270 791
35 391 794
36 908 787
37 929 858
38 938 281
39 941 579
40 752 162
41 579 68
42 323 570
43 238 700
44 853 970
45 329 805
46 651 486
47 291 631
48 286 481
49 855 547
50 972 378
51 561 490
52 205 741
53 528 672
54 664 605
55 462 532
56 340 54
57 929 941
58 936 46
59 864 654
60 501 495
61 339 10
62 324 595
63 585 893
64 73 401
65 244 926
66 190 659
67 900 929
68 525 878
69 832 622
70 228 662
71 36 578
72 897 292
73 492 426
74 958 546
75 674 303
76 312 781
77 320 557
78 226 264
79 446 702
80 470 746
81 613 620
82 710 289
83 439 15
84 148 352
85 371 115
86 414 108
87 693 626
88 703 31
89 798 932
90 170 723
91 700 554
92 569 984
93 801 849
94 907 964
95 490 37
96 311 927
97 210 657
98 677 558
99 1 599
100 464 579
101 39 430
102 379 863
103 355 233
104 974 313
105 315 294
106 846 911
107 997 585
108 214 331
109 407 584
110 775 225
111 244 761
112 433 941
113 771 792
114 381 345
115 188 643
116 292 735
117 526 487
118 540 762
119 392 298
120 748 473
121 123 885
122 896 666
123 882 844
124 656 366
125 475 831
126 430 827
127 765 883
128 388 981
129 817 650
130 767 488
131 488 690
132 414 436
133 226 976
134 308 756
135 509 647
136 985 906
137 778 941
138 45 137
139 591 702
140 664 79
141 363 607
142 425 296
143 714 61
144 152 660
145 236 900
146 670 265
147 194 950
148 991 139
149 320 583
150 317 732
151 437 745
152 362 207
153 319 725
154 216 807
155 284 793
156 380 466
157 879 171
158 635 910
159 23 49
160 304 234
161 304 700
162 132 663
163 525 767
164 997 129
165 200 771
166 145 449
167 191 188
168 965 27
169 994 807
170 912 153
171 192 474
172 373 626
173 452 913
174 650 266
175 367 905
176 707 243
177 247 86
178 951 396
179 381 147
180 622 68
181 435 179
182 829 919
183 467 557
184 521 617
185 302 515
186 418 680
187 831 70
188 917 369
189 981 425
190 876 779
191 485 294
192 439 979
193 373 336
194 445 807
195 898 130
196 833 707
197 582 152
198 795 991
199 469 520
200 847 620
201 482 33
202 906 903
203 582 69
204 663 401
205 570 103
206 816 427
207 286 816
208 344 97
209 763 175
210 153 254
211 784 886
212 947 357
213 283 214
214 732 938
215 979 69
216 716 484
217 349 425
218 622 447
219 658 154
220 722 540
221 457 775
222 755 326
223 321 894
224 438 207
225 132 347
226 666 5
227 539 973
228 508 576
229 790 584
230 835 367
231 460 1
232 168 983
233 531 101
234 187 224
235 166 368
236 351 913
237 432 956
238 75 828
239 671 529
240 724 22
241 921 532
242 717 296
243 402 668
244 444 83
245 195 955
246 833 413
247 969 601
248 46 448
249 334 591
250 979 904
251 94 309
252 237 920
253 910 520
254 886 385
255 539 808
256 746 888
257 26 603
258 836 442
259 147 144
260 754 310
261 923 928
262 324 85
263 387 412
264 484 17
265 605 970
266 427 591
267 933 93
268 990 355
269 536 845
270 296 1000
271 648 685
272 130 810
273 663 619
274 642 583
275 667 885
276 255 761
277 336 521
278 583 849
279 703 45
280 718 288
281 760 984
282 833 412
283 229 296
284 982 954
285 889 715
286 786 610
287 958 642
288 850 134
289 272 789
290 417 46
291 411 740
292 925 548
293 87 425
294 980 299
295 330 462
296 829 128
297 966 431
298 540 389
299 249 633
300 24 912
301 2 667
302 300 206
303 5 919
304 630 330
305 751 349
306 216 314
307 862 885
308 251 533
309 481 446
310 557 899
311 788 560
312 365 273
313 879 619
314 77 850
315 989 364
316 486 57
317 475 14
318 451 667
319 382 331
320 639 940
321 307 581
322 63 396
323 996 593
324 47 631
325 977 840
326 990 13
327 458 762
328 464 348
329 56 534
330 226 964
331 746 109
332 828 428
333 798 863
334 87 343
335 222 330
336 706 670
337 947 294
338 654 559
339 333 230
340 813 426
341 943 15
342 868 284
343 553 878
344 443 317
345 500 710
346 815 983
347 969 727
348 740 523
349 647 40
350 999 394
351 236 999
352 579 476
353 438 242
354 297 913
355 162 816
356 725 582
357 178 67
358 808 54
359 843 80
360 1000 36
361 484 651
362 53 823
363 526 570
364 411 657
365 554 145
366 962 430
367 204 527
368 61 638
369 307 292
370 799 580
371 273 266
372 507 816
373 740 604
374 534 864
375 456 118
376 254 162
377 427 857
378 339 265
379 303 930
380 266 296
381 21 590
382 90 656
383 694 561
384 456 972
385 866 302
386 337 390
387 192 588
388 933 496
389 267 811
390 797 680
391 447 79
392 821 367
DEMAND_SECTION
2 35
3 74
4 5
5 43
6 27
7 97
8 68
9 77
10 78
11 8
12 66
13 15
14 92
15 3
16 90
17 39
18 57
19 29
20 82
21 81
22 4
23 90
24 9
25 95
26 6
27 82
28 66
29 50
30 83
31 48
32 4
33 54
34 45
35 64
36 77
37 96
38 56
39 44
40 25
41 18
42 23
43 74
44 69
45 8
46 9
47 70
48 42
49 25
50 73
51 61
52 41
53 38
54 35
55 97
56 97
57 3
58 62
59 79
60 87
61 52
62 85
63 21
64 50
65 18
66 38
67 30
68 48
69 80
70 19
71 15
72 33
73 28
74 83
75 19
76 58
77 67
78 53
79 78
80 97
81 28
82 61
83 2
84 99
85 21
86 12
87 86
88 64
89 1
90 71
COVERAGE_SECTION
2 9 262 56 22 208 177 15 61 85 10 
3 9 83 231 317 290 264 201 95 316 391 
4 9 34 389 289 155 207 276 111 154 76 
5 9 240 88 279 143 226 349 140 331 358 
6 9 157 170 195 288 342 72 17 296 38 
7 9 212 337 188 104 38 72 14 294 50 
8 9 45 35 76 134 20 155 150 207 102 
9 8 109 277 266 77 42 141 55 156 
10 8 357 177 22 2 15 259 28 376 
11 9 353 30 16 142 119 224 312 103 344 
12 9 39 292 241 74 253 247 313 49 107 
13 9 272 238 362 314 355 90 121 165 52 
14 9 385 342 72 230 7 254 188 392 38 
15 9 376 177 2 262 208 302 85 213 22 
16 9 30 142 119 11 344 312 319 353 193 
17 9 195 288 33 170 359 296 157 267 187 
18 9 160 339 213 302 378 371 103 369 105 
19 9 236 175 96 128 223 379 354 112 102 
20 9 102 223 175 236 45 8 35 377 19 
21 9 163 118 372 80 221 327 255 125 194 
22 9 2 177 10 56 61 262 15 357 208 
23 9 194 126 125 221 377 35 327 372 151 
24 9 258 332 206 246 340 282 25 253 254 
25 9 254 188 178 366 212 297 50 189 282 
26 9 295 217 156 48 277 263 185 386 132 
27 9 29 348 311 220 130 229 370 356 120 
28 5 159 357 138 259 10 
29 9 27 348 220 311 130 120 356 229 91 
30 9 142 16 11 119 344 353 191 312 319 
31 8 264 95 201 317 316 41 231 203 
32 9 93 333 123 307 113 211 190 127 106 
33 9 267 58 17 195 359 215 341 170 168 
34 9 289 155 4 389 207 276 111 76 134 
35 9 8 126 23 194 291 45 151 221 102 
36 9 190 123 37 285 347 325 169 32 307 
37 9 123 202 325 250 261 307 36 136 67 
38 9 337 72 294 104 7 342 385 212 14 
39 9 12 292 247 74 241 107 323 287 253 
40 9 209 331 110 296 176 219 288 143 140 
41 8 203 205 180 233 31 349 365 197 
42 9 77 149 321 249 62 277 141 185 47 
43 9 70 97 52 111 66 276 116 161 299 
44 9 346 94 182 106 67 198 89 137 57 
45 9 8 76 207 155 134 20 289 34 389 
46 9 239 218 216 338 352 98 91 204 383 
47 9 299 62 321 149 249 42 70 161 141 
48 9 185 295 26 308 277 77 217 171 367 
49 9 253 370 241 311 292 12 200 229 313 
50 9 315 178 268 350 212 189 297 366 188 
51 9 352 117 60 218 363 46 309 73 199 
52 9 165 90 111 43 276 154 4 34 70 
53 7 135 131 345 361 184 139 318 
54 9 273 274 87 338 98 81 383 91 356 
55 7 199 183 100 60 228 266 9 
56 9 262 2 208 61 85 22 290 15 86 
57 9 261 67 94 202 284 250 136 44 37 
58 9 341 168 33 267 215 326 360 17 195 
59 9 122 200 313 69 129 196 285 390 286 
60 9 117 199 309 55 51 73 183 363 352 
61 9 56 2 22 262 290 208 3 83 85 
62 8 249 149 321 42 77 141 47 172 
63 9 310 343 278 158 374 68 269 320 265 
64 9 322 293 101 248 334 225 166 84 251 
65 9 252 145 330 133 147 354 245 379 96 
66 9 115 97 70 144 162 43 299 90 387 
67 9 261 202 57 94 106 307 44 182 37 
68 9 374 343 269 310 63 278 372 125 255 
69 8 200 129 59 313 286 370 229 390 
70 9 97 299 66 43 115 47 144 52 387 
71 8 381 257 99 329 324 368 301 382 
72 9 342 385 38 14 7 337 104 188 212 
73 6 309 298 60 117 132 328 
74 9 292 39 241 12 107 253 247 388 323 
75 8 146 82 174 242 280 304 124 176 
76 9 134 45 155 289 8 34 207 150 116 
77 9 42 149 321 249 62 277 185 141 9 
78 9 283 371 306 380 234 335 108 210 213 
79 9 318 186 131 151 80 291 345 243 364 
80 9 327 221 151 21 345 79 131 163 291 
81 9 274 273 54 338 271 87 139 98 184 
82 9 280 242 75 176 146 260 222 174 305 
83 9 3 231 317 290 264 201 95 316 391 
84 9 225 235 334 108 251 335 306 64 293 
85 9 208 179 86 262 56 244 290 2 391 
86 9 244 375 85 391 179 290 208 181 316 
87 8 273 54 336 373 356 383 274 98 
88 9 279 5 240 143 226 349 140 180 331 
89 9 137 182 211 106 346 127 198 281 214 
90 9 52 165 144 66 162 43 97 115 111 
91 9 383 98 220 239 356 338 348 29 54 
92 7 227 265 320 310 63 158 343 
93 9 333 32 211 127 113 256 307 182 106 
94 9 57 67 261 44 202 284 106 182 307 
95 8 201 316 264 317 231 31 83 391 
96 9 379 354 223 236 19 175 65 252 270 
97 9 70 66 115 299 43 144 387 90 162 
98 9 383 91 338 239 274 220 54 356 273 
99 8 381 257 71 324 301 368 329 382 
100 5 183 266 228 55 109 
101 8 248 322 64 293 334 329 166 225 
102 9 20 175 377 236 126 223 35 8 19 
103 9 339 152 378 312 18 160 302 11 105 
104 9 294 337 268 7 38 212 315 50 72 
105 7 369 378 380 371 312 18 160 
106 9 182 307 89 67 44 202 211 333 137 
107 9 323 247 74 39 287 12 292 241 253 
108 7 335 306 283 235 380 78 84 
109 5 266 9 141 172 100 
110 9 209 40 176 280 260 82 242 222 6 
111 9 276 4 34 289 52 165 155 154 116 
112 8 237 173 192 384 128 19 175 377 
113 5 93 32 333 127 211 
114 6 193 319 119 386 16 142 
115 9 66 97 144 70 387 162 299 43 90 
116 9 150 134 153 161 276 76 111 289 155 
117 9 60 51 352 309 199 73 55 363 228 
118 7 163 21 255 372 345 80 139 
119 8 16 142 319 312 30 193 114 11 
120 8 130 216 348 29 27 220 340 206 
121 8 314 238 272 355 362 147 245 13 
122 9 59 285 313 287 200 196 69 129 347 
123 9 307 37 32 36 202 190 106 93 333 
124 8 204 304 75 218 242 82 305 174 
125 9 372 194 23 126 377 221 21 269 255 
126 9 23 194 377 125 35 221 102 327 372 
127 8 211 256 333 93 89 137 214 182 
128 9 192 237 19 112 384 236 175 173 96 
129 6 69 390 200 59 286 196 
130 8 120 348 29 27 216 220 311 340 
131 8 345 361 53 79 318 135 80 186 
132 8 263 156 217 309 26 73 295 386 
133 9 330 351 245 147 65 252 232 270 145 
134 9 76 116 150 153 155 289 34 45 276 
135 7 361 53 184 131 318 345 228 
136 9 250 284 57 261 325 37 202 67 94 
137 9 89 214 281 198 211 182 346 127 256 
138 3 159 28 259 
139 7 271 53 118 81 345 163 135 
140 9 180 349 279 143 88 226 219 5 203 
141 7 172 249 62 149 109 42 321 
142 9 30 16 344 119 11 319 353 191 312 
143 9 279 88 240 5 140 331 349 226 180 
144 9 162 66 115 97 382 90 70 387 368 
145 9 252 65 354 147 330 245 379 133 96 
146 7 174 75 176 82 280 242 304 
147 9 245 330 133 232 252 65 145 351 121 
148 9 164 215 267 170 195 33 360 58 17 
149 9 42 62 321 249 77 141 47 277 172 
150 9 153 116 134 161 76 276 155 8 289 
151 9 291 327 80 221 79 194 35 186 23 
152 9 103 339 302 378 179 18 160 312 11 
153 8 150 116 161 134 76 276 8 155 
154 9 165 4 389 111 355 34 289 276 52 
155 9 289 34 207 389 4 76 276 134 45 
156 9 26 132 295 217 263 277 9 386 185 
157 9 6 170 195 288 17 296 267 33 359 
158 8 320 275 63 265 310 278 343 92 
159 5 28 138 259 357 10 
160 9 18 302 213 339 371 378 103 369 105 
161 8 153 150 116 134 43 47 276 76 
162 9 144 382 66 115 90 368 97 324 70 
163 8 118 21 255 372 80 345 327 221 
164 9 148 215 267 170 360 33 195 58 168 
165 9 52 154 111 276 90 355 4 34 289 
166 6 171 293 235 64 84 322 
167 6 234 259 376 210 78 213 
168 9 341 326 58 360 215 267 33 164 148 
169 9 325 37 347 36 250 136 123 190 202 
170 9 195 157 17 6 267 288 33 148 296 
171 4 166 367 308 48 
172 6 141 364 243 249 109 62 
173 8 112 237 384 377 192 68 125 175 
174 6 146 75 176 82 304 280 
175 9 236 19 102 223 20 96 379 354 112 
176 9 146 82 280 242 174 75 110 260 209 
177 9 15 2 10 22 357 376 262 56 208 
178 9 50 366 297 212 189 25 188 350 315 
179 9 85 86 208 152 181 375 224 262 103 
180 9 349 203 41 140 205 226 279 88 143 
181 8 224 179 353 375 86 11 152 85 
182 9 106 89 307 44 137 211 333 346 67 
183 6 100 55 199 228 266 363 
184 6 135 228 363 361 53 100 
185 9 277 48 77 308 42 295 321 26 149 
186 6 243 364 318 79 291 151 
187 9 359 358 296 288 17 33 195 331 267 
188 9 212 254 25 7 178 50 14 315 268 
189 9 297 366 350 178 50 315 268 25 212 
190 9 36 123 285 32 196 37 93 113 307 
191 5 344 328 30 142 353 
192 7 384 237 112 128 173 19 227 
193 6 319 114 119 16 312 386 
194 9 23 126 221 125 327 377 35 151 372 
195 9 17 170 157 288 267 33 296 359 6 
196 7 390 285 129 59 122 190 69 
197 6 365 205 233 219 203 41 
198 9 346 281 137 89 44 182 214 106 211 
199 8 55 183 60 100 117 228 309 363 
200 9 69 313 59 129 286 370 122 229 49 
201 9 95 264 317 316 231 83 3 31 391 
202 9 67 261 57 307 37 94 106 123 250 
203 8 41 205 180 233 349 31 365 140 
204 8 124 218 304 46 216 75 305 120 
205 8 41 203 233 365 197 180 316 140 
206 8 340 332 246 282 258 24 392 230 
207 9 389 155 34 289 4 45 76 276 134 
208 9 262 85 56 2 179 15 86 61 290 
209 9 40 110 331 296 176 288 219 157 6 
210 6 234 78 167 251 283 306 
211 9 127 333 256 93 89 137 182 106 32 
212 9 7 188 50 178 268 315 104 25 337 
213 9 302 160 18 339 371 376 103 78 378 
214 8 137 256 281 127 89 211 198 275 
215 9 360 168 58 267 326 164 341 33 148 
216 8 120 348 130 220 29 239 46 27 
217 8 26 386 263 295 156 132 48 114 
218 9 46 352 204 51 124 239 298 216 117 
219 9 140 197 180 40 331 176 205 365 209 
220 9 348 91 383 29 356 27 98 239 216 
221 9 327 80 194 151 23 21 291 125 126 
222 9 260 305 242 280 82 392 75 230 176 
223 9 354 96 236 379 175 20 19 102 65 
224 8 181 353 11 30 152 179 16 103 
225 8 84 235 334 251 64 108 322 293 
226 9 349 88 5 279 240 140 143 180 203 
227 7 92 265 310 384 63 68 343 
228 7 363 184 100 183 55 199 135 
229 7 370 311 286 27 373 69 29 
230 9 392 282 246 14 254 332 206 340 385 
231 9 317 83 3 264 201 95 290 316 31 
232 8 245 147 133 330 351 252 65 145 
233 8 205 365 41 203 316 197 95 375 
234 6 167 210 78 283 259 376 
235 8 84 225 108 335 306 334 166 251 
236 9 175 19 223 96 379 354 20 102 128 
237 8 112 192 384 173 128 19 175 236 
238 9 314 362 13 272 121 355 300 303 165 
239 9 98 338 91 383 46 220 274 216 348 
240 9 5 88 279 143 226 349 140 331 358 
241 9 253 292 388 12 74 39 49 247 107 
242 9 280 82 260 75 222 176 146 305 174 
243 5 364 186 318 172 79 
244 8 391 375 86 290 316 201 95 83 
245 9 147 330 133 232 252 65 351 145 121 
246 9 282 332 206 340 258 230 392 24 254 
247 9 323 107 39 287 12 74 292 241 313 
248 8 101 293 64 322 329 166 334 71 
249 8 62 149 42 321 141 77 172 47 
250 9 136 284 261 57 325 37 202 67 94 
251 7 334 225 84 210 322 235 64 
252 9 65 145 330 147 245 133 354 379 96 
253 9 241 292 388 12 74 49 39 24 247 
254 9 25 188 230 282 14 246 178 212 392 
255 8 372 269 163 118 21 374 278 125 
256 7 127 211 214 333 137 93 89 
257 9 381 99 71 324 368 301 329 382 162 
258 8 332 24 206 340 246 282 230 254 
259 5 167 357 234 138 10 
260 9 222 305 242 280 82 75 176 110 392 
261 9 57 67 202 94 250 284 136 37 307 
262 9 208 2 56 85 15 22 61 177 179 
263 8 132 217 156 386 26 114 295 193 
264 9 317 201 95 231 316 83 31 3 391 
265 8 92 320 227 158 63 310 275 343 
266 6 109 100 183 9 172 141 
267 9 33 58 195 215 17 170 164 168 148 
268 9 315 50 350 212 104 178 294 7 189 
269 9 374 68 255 343 372 278 310 125 63 
270 9 351 379 133 96 330 354 65 19 128 
271 6 139 336 273 81 87 54 
272 9 355 13 238 314 121 362 165 154 90 
273 9 54 87 274 81 338 98 383 336 271 
274 9 338 54 273 98 81 383 239 91 87 
275 6 158 320 256 63 214 278 
276 9 111 289 34 4 155 116 389 134 52 
277 9 185 77 42 9 295 26 48 149 321 
278 7 343 63 269 374 310 255 68 
279 9 88 143 240 5 140 226 349 331 180 
280 9 82 242 260 75 176 146 222 305 174 
281 8 198 137 214 346 89 44 182 256 
282 9 246 332 206 340 258 230 392 24 254 
283 7 306 78 335 380 108 371 369 
284 9 136 250 57 261 94 67 202 37 325 
285 9 122 196 190 59 36 347 129 313 390 
286 7 229 370 373 69 311 129 200 
287 9 247 323 39 122 107 12 313 347 59 
288 9 296 17 157 195 359 170 187 6 33 
289 9 34 155 4 389 207 276 111 76 134 
290 9 83 3 391 244 86 231 201 317 316 
291 9 151 79 327 35 221 80 186 243 194 
292 9 241 12 253 74 39 388 247 49 107 
293 8 64 322 248 101 166 334 225 84 
294 9 104 337 38 268 7 315 212 50 72 
295 9 26 217 48 156 277 185 386 263 132 
296 9 288 359 17 187 157 195 358 209 40 
297 9 366 189 178 350 50 25 315 388 212 
298 4 73 309 328 352 
299 9 70 47 97 115 66 43 387 321 62 
300 8 303 314 362 238 121 13 272 232 
301 9 324 368 99 257 381 382 71 162 329 
302 9 213 160 18 339 103 152 376 371 378 
303 8 300 314 362 238 121 13 272 232 
304 5 124 75 174 146 204 
305 8 222 260 242 280 392 82 230 75 
306 7 108 335 283 78 380 235 371 
307 9 106 123 182 202 67 32 333 93 37 
308 8 367 185 48 77 321 42 387 171 
309 8 73 60 117 132 199 298 55 51 
310 9 343 63 68 374 278 269 227 158 92 
311 8 370 229 27 29 286 348 373 356 
312 7 378 119 103 16 105 339 11 
313 9 200 59 69 122 12 129 39 49 287 
314 8 238 362 121 13 272 300 355 303 
315 9 268 50 350 212 178 104 189 294 7 
316 8 95 201 264 317 391 244 231 83 
317 9 264 201 231 95 83 3 316 31 290 
318 7 79 186 361 364 131 243 135 
319 6 193 114 119 16 142 312 
320 8 158 265 275 63 92 310 214 227 
321 9 149 42 62 77 249 47 141 185 277 
322 9 64 293 101 248 334 225 251 84 166 
323 9 107 247 39 74 287 12 292 241 253 
324 9 368 257 381 382 71 99 301 162 329 
325 9 169 37 250 136 36 123 202 261 57 
326 9 360 168 341 215 58 267 33 164 148 
327 9 221 80 151 21 194 291 23 79 163 
328 4 344 191 142 30 
329 8 71 381 257 99 248 324 368 101 
330 9 133 245 147 351 65 252 232 145 270 
331 9 40 143 209 279 358 296 140 88 240 
332 8 206 340 246 258 282 24 230 392 
333 9 93 211 127 32 256 182 106 307 89 
334 8 251 225 322 64 84 293 235 101 
335 6 108 306 283 380 78 235 
336 4 87 271 273 373 
337 9 38 104 294 7 72 212 268 342 188 
338 9 98 274 239 383 91 54 273 220 46 
339 9 103 18 160 378 152 302 213 312 105 
340 8 206 332 246 282 258 24 392 230 
341 9 168 58 326 360 215 33 267 17 359 
342 9 385 72 14 38 7 6 337 230 392 
343 8 310 374 68 63 269 278 255 372 
344 7 142 328 30 16 191 119 319 
345 9 131 53 80 79 361 163 135 318 21 
346 9 198 44 89 281 137 182 106 94 214 
347 9 285 169 36 287 122 190 325 247 59 
348 9 29 220 27 130 216 91 120 383 311 
349 9 180 226 140 279 88 143 203 41 5 
350 9 50 315 189 268 178 297 366 212 104 
351 9 133 330 245 270 147 232 65 252 379 
352 9 51 218 117 46 60 298 73 309 239 
353 9 11 224 30 16 142 181 191 119 344 
354 9 379 96 223 236 65 252 145 19 175 
355 9 272 154 165 13 121 52 238 314 90 
356 7 373 383 91 220 87 98 29 
357 8 10 177 259 28 22 15 2 167 
358 9 187 359 296 331 240 288 143 5 17 
359 9 187 358 296 17 288 33 195 267 157 
360 9 326 168 215 341 58 267 164 33 148 
361 6 135 318 131 53 184 345 
362 8 238 314 13 272 121 300 303 355 
363 7 228 184 183 100 55 199 60 
364 5 243 186 318 172 79 
365 6 197 205 233 41 203 375 
366 9 297 189 178 350 50 25 315 388 212 
367 4 308 171 387 48 
368 9 324 382 257 381 71 301 99 162 144 
369 6 105 380 378 371 18 160 
370 7 229 311 286 69 27 200 29 
371 8 380 18 369 160 78 105 213 283 
372 9 255 125 21 269 163 374 118 194 68 
373 7 356 286 87 229 383 91 370 
374 9 68 269 343 310 278 372 255 63 125 
375 8 244 391 86 181 316 233 179 290 
376 9 15 213 302 167 177 160 234 18 2 
377 9 126 23 102 194 125 173 35 20 175 
378 7 312 103 339 105 18 369 160 
379 9 96 354 223 236 19 65 252 175 270 
380 8 371 283 369 105 78 306 335 108 
381 8 257 71 99 324 368 329 301 382 
382 9 368 162 324 144 257 301 71 381 115 
383 9 91 98 220 356 239 338 54 274 348 
384 7 192 237 112 173 128 227 19 
385 9 342 14 72 7 230 38 392 337 188 
386 6 217 263 114 193 26 295 
387 5 115 367 66 97 299 
388 9 253 241 292 74 366 297 12 39 189 
389 9 4 34 207 289 155 154 276 76 111 
390 5 129 196 69 286 59 
391 8 244 375 86 290 316 201 95 83 
392 9 230 282 246 206 340 332 14 254 305 
DEPOT_SECTION
   1
   -1
EOF
