NAME :  X-n480-kX-w95-c9.cctp
COMMENT : 	Adapted by Maziero, Usberti and Cavellucci from the Uchoa, Pecin, Pessoa, Poggi, Subramanian, and Vidal (2013)
TYPE :  CCTP
DIMENSION :    454
EDGE_WEIGHT_TYPE : 	EUC_2D	
CAPACITY : 	52
VERTICES_WITHIN_COVERAGE :  9
VERTICES_WITH_DEMAND : 	95
NODE_COORD_SECTION
1 628 103
2 291 573
3 129 447
4 973 643
5 830 868
6 398 563
7 731 423
8 201 995
9 167 174
10 31 358
11 480 619
12 323 555
13 205 208
14 187 767
15 775 445
16 745 369
17 188 965
18 44 585
19 405 706
20 185 315
21 505 636
22 482 543
23 830 860
24 344 498
25 762 379
26 761 399
27 869 844
28 114 420
29 890 491
30 440 802
31 929 676
32 524 456
33 361 434
34 377 478
35 191 496
36 646 352
37 795 962
38 483 492
39 174 597
40 208 464
41 693 461
42 56 114
43 877 898
44 483 596
45 757 915
46 833 803
47 676 597
48 818 695
49 494 648
50 5 167
51 197 146
52 170 313
53 354 624
54 603 437
55 773 462
56 386 610
57 75 183
58 442 485
59 269 543
60 770 869
61 342 542
62 103 508
63 799 441
64 935 918
65 790 696
66 857 459
67 319 541
68 195 131
69 328 617
70 297 697
71 337 529
72 337 620
73 152 735
74 302 491
75 229 909
76 508 567
77 940 591
78 490 571
79 262 962
80 818 425
81 357 82
82 743 377
83 927 322
84 335 633
85 725 477
86 839 403
87 333 557
88 421 589
89 515 601
90 791 669
91 935 639
92 314 623
93 238 198
94 1000 656
95 613 387
96 425 544
97 299 730
98 359 986
99 107 394
100 766 513
101 409 500
102 144 441
103 163 479
104 400 560
105 198 506
106 176 926
107 763 458
108 761 982
109 986 312
110 94 492
111 383 562
112 384 366
113 204 147
114 373 443
115 231 359
116 340 551
117 751 545
118 232 198
119 271 629
120 139 319
121 305 521
122 370 556
123 273 895
124 466 566
125 865 654
126 869 910
127 216 415
128 41 244
129 304 153
130 97 186
131 368 504
132 194 925
133 254 246
134 766 440
135 212 535
136 492 471
137 314 590
138 153 22
139 235 976
140 70 484
141 748 521
142 675 415
143 705 421
144 267 658
145 471 562
146 870 876
147 24 331
148 882 865
149 864 841
150 730 459
151 734 383
152 367 641
153 966 646
154 856 722
155 336 971
156 191 969
157 857 790
158 206 143
159 682 258
160 230 771
161 745 394
162 692 452
163 395 437
164 503 642
165 326 565
166 300 695
167 423 593
168 204 516
169 158 441
170 133 604
171 140 79
172 673 529
173 788 909
174 843 989
175 145 278
176 764 881
177 125 504
178 301 977
179 540 385
180 92 399
181 192 176
182 169 888
183 101 564
184 506 603
185 137 584
186 121 451
187 229 981
188 706 365
189 761 741
190 70 415
191 198 502
192 142 323
193 839 888
194 772 526
195 237 235
196 308 579
197 791 283
198 801 882
199 873 368
200 977 606
201 514 594
202 848 261
203 603 508
204 128 454
205 283 535
206 868 930
207 181 618
208 904 440
209 140 672
210 181 689
211 587 479
212 451 745
213 402 34
214 962 687
215 776 972
216 223 915
217 242 683
218 831 873
219 332 672
220 44 546
221 754 940
222 197 971
223 872 879
224 63 283
225 119 398
226 211 995
227 819 887
228 296 542
229 596 153
230 916 873
231 239 931
232 830 971
233 837 887
234 107 365
235 774 369
236 933 612
237 905 557
238 768 692
239 761 420
240 812 621
241 350 667
242 150 393
243 407 490
244 806 935
245 646 471
246 286 627
247 774 888
248 440 615
249 204 991
250 117 90
251 277 979
252 840 813
253 313 708
254 882 881
255 234 889
256 257 56
257 224 516
258 349 921
259 214 144
260 826 883
261 967 562
262 763 487
263 341 554
264 61 494
265 329 948
266 220 601
267 160 538
268 217 126
269 837 636
270 949 661
271 931 987
272 6 436
273 934 726
274 154 327
275 399 584
276 759 634
277 680 453
278 869 362
279 232 538
280 126 636
281 847 860
282 834 503
283 164 447
284 330 175
285 163 242
286 97 651
287 139 530
288 921 868
289 48 486
290 38 202
291 134 708
292 717 846
293 640 705
294 305 727
295 197 891
296 460 573
297 387 417
298 382 519
299 803 815
300 757 597
301 356 411
302 352 846
303 112 299
304 916 589
305 150 952
306 68 410
307 100 500
308 958 616
309 205 147
310 654 402
311 138 584
312 216 332
313 186 443
314 671 534
315 160 475
316 104 159
317 240 951
318 161 74
319 403 437
320 172 247
321 417 601
322 490 600
323 23 319
324 254 376
325 160 152
326 855 778
327 159 149
328 169 168
329 274 684
330 176 108
331 770 337
332 261 226
333 345 615
334 297 588
335 888 1000
336 989 575
337 736 422
338 292 17
339 893 829
340 221 975
341 372 588
342 854 612
343 814 849
344 431 513
345 292 780
346 817 382
347 209 252
348 369 460
349 4 252
350 114 48
351 364 113
352 932 709
353 468 470
354 851 660
355 774 798
356 526 611
357 202 136
358 993 516
359 228 142
360 370 528
361 327 636
362 134 190
363 988 634
364 310 663
365 960 699
366 989 609
367 332 575
368 114 199
369 986 630
370 233 947
371 198 981
372 599 858
373 47 518
374 616 451
375 284 599
376 440 645
377 825 894
378 229 186
379 142 637
380 77 417
381 368 714
382 234 547
383 224 194
384 228 763
385 839 860
386 170 453
387 141 55
388 395 569
389 124 795
390 784 319
391 367 655
392 241 949
393 265 609
394 309 109
395 579 588
396 968 971
397 374 588
398 953 903
399 268 995
400 101 427
401 434 539
402 874 663
403 340 555
404 265 215
405 169 312
406 845 973
407 240 670
408 758 336
409 287 585
410 258 525
411 726 382
412 487 551
413 592 837
414 279 547
415 820 692
416 926 852
417 991 659
418 478 410
419 443 568
420 625 630
421 577 761
422 379 548
423 999 672
424 863 505
425 178 937
426 364 490
427 160 197
428 186 335
429 757 408
430 497 647
431 322 484
432 768 833
433 392 601
434 355 536
435 414 573
436 349 615
437 367 682
438 358 552
439 78 516
440 743 601
441 766 516
442 835 509
443 823 812
444 141 474
445 415 483
446 303 134
447 311 526
448 791 365
449 951 686
450 298 520
451 140 179
452 848 729
453 315 451
454 341 997
DEMAND_SECTION
2 6
3 7
4 9
5 7
6 10
7 10
8 7
9 6
10 6
11 8
12 6
13 5
14 10
15 8
16 9
17 9
18 10
19 6
20 9
21 10
22 9
23 6
24 10
25 7
26 9
27 5
28 8
29 6
30 8
31 6
32 9
33 6
34 9
35 7
36 8
37 9
38 10
39 5
40 10
41 10
42 5
43 7
44 8
45 8
46 7
47 7
48 5
49 8
50 8
51 9
52 7
53 9
54 7
55 8
56 9
57 6
58 6
59 10
60 8
61 7
62 8
63 9
64 10
65 5
66 10
67 6
68 8
69 10
70 8
71 9
72 9
73 6
74 8
75 5
76 9
77 5
78 9
79 6
80 5
81 5
82 9
83 8
84 8
85 6
86 10
87 10
88 8
89 10
90 10
91 9
92 5
93 8
94 7
95 10
96 6
COVERAGE_SECTION
2 9 409 334 196 375 137 414 228 165 12 
3 9 204 186 102 169 444 28 400 283 386 
4 9 153 363 369 417 94 270 308 200 91 
5 9 218 23 385 260 281 233 193 227 343 
6 9 104 388 111 435 275 422 122 96 88 
7 9 337 143 239 429 161 150 26 134 151 
8 9 249 226 371 222 156 340 187 17 139 
9 9 328 325 427 181 327 451 362 51 113 
10 8 147 323 306 190 180 380 234 224 
11 9 322 44 21 184 49 164 430 89 248 
12 9 87 165 67 116 403 263 367 61 196 
13 9 383 118 378 93 181 195 347 427 9 
14 9 384 160 73 389 210 291 217 209 345 
15 9 134 55 107 63 239 429 262 337 80 
16 9 82 151 25 411 161 235 26 408 188 
17 9 156 222 371 425 249 8 340 226 132 
18 9 220 183 373 439 286 170 185 264 311 
19 9 381 437 212 391 241 376 152 219 253 
20 8 52 405 428 274 312 192 120 175 
21 9 164 430 49 11 184 356 89 322 201 
22 9 412 145 124 78 76 296 419 401 38 
23 9 5 385 218 281 343 260 233 193 227 
24 9 426 131 431 71 34 360 434 74 298 
25 9 235 82 16 26 161 151 429 448 411 
26 9 429 161 25 239 82 151 235 16 337 
27 9 149 148 281 339 146 385 223 254 23 
28 9 400 225 99 180 3 186 102 204 380 
29 9 424 66 208 282 442 237 80 304 86 
30 8 212 302 19 381 437 421 258 345 
31 9 449 270 352 214 91 365 153 273 4 
32 9 136 38 353 418 211 179 54 58 374 
33 9 114 301 348 297 163 319 34 453 426 
34 9 426 348 131 243 114 445 24 101 298 
35 9 191 105 168 103 40 315 257 135 386 
36 9 95 310 188 142 411 143 151 54 16 
37 9 215 244 232 108 221 406 173 174 45 
38 9 136 353 58 22 32 344 412 401 445 
39 8 207 311 185 170 266 379 267 280 
40 9 313 35 191 386 105 103 283 315 127 
41 9 162 277 85 150 143 245 142 7 337 
42 9 250 316 57 50 130 350 290 171 368 
43 9 126 254 223 146 148 206 193 233 230 
44 9 322 11 184 78 201 89 296 124 145 
45 9 221 173 247 176 60 244 198 37 215 
46 9 252 443 157 299 326 149 343 27 23 
47 9 420 314 440 172 300 117 276 395 141 
48 9 415 65 90 452 154 354 238 125 269 
49 9 430 164 21 11 184 322 356 89 44 
50 9 290 57 42 128 349 130 316 368 224 
51 9 113 309 158 357 68 259 268 181 359 
52 7 405 20 274 428 192 120 175 
53 9 436 333 72 84 152 69 361 391 56 
54 9 374 211 95 245 310 203 142 277 32 
55 9 107 15 134 262 63 150 239 85 100 
56 9 433 397 341 275 321 53 152 436 88 
57 7 130 316 290 368 362 451 128 
58 9 445 344 353 243 101 38 136 401 96 
59 9 414 205 410 228 382 2 279 450 121 
60 9 176 247 198 432 173 45 343 227 260 
61 9 116 263 403 71 434 87 438 12 67 
62 9 307 110 177 439 140 287 264 444 183 
63 9 15 80 55 134 107 239 429 86 26 
64 9 398 230 288 43 396 254 126 416 206 
65 9 238 90 48 415 189 452 276 154 354 
66 9 29 424 282 208 80 442 86 63 15 
67 9 12 447 87 71 61 116 228 121 165 
68 9 357 51 158 113 309 259 268 330 359 
69 9 72 92 84 333 361 436 53 137 334 
70 9 166 253 329 294 97 364 219 144 217 
71 9 61 434 67 116 263 403 447 87 12 
72 9 69 333 84 436 53 361 92 152 137 
73 9 291 14 210 209 389 384 160 379 286 
74 9 431 450 121 447 453 24 205 228 71 
75 9 216 255 231 295 132 370 392 317 123 
76 9 78 412 201 22 89 184 145 44 322 
77 9 236 304 308 200 261 91 237 336 366 
78 9 76 412 145 124 44 22 322 296 201 
79 9 251 317 392 139 370 399 187 231 178 
80 9 63 86 346 15 66 134 239 55 26 
81 8 351 394 213 446 129 338 284 256 
82 9 16 151 161 411 25 26 235 429 188 
83 8 109 278 199 202 86 208 346 197 
84 9 361 72 69 53 333 92 436 152 241 
85 9 150 41 262 162 107 55 141 277 7 
86 9 80 346 199 278 63 66 448 235 208 
87 9 403 116 263 12 165 61 367 67 438 
88 9 167 321 435 275 419 433 248 388 6 
89 9 201 184 356 322 44 76 21 11 78 
90 9 65 238 48 415 276 240 269 354 125 
91 9 270 236 153 308 31 4 77 449 369 
92 9 69 361 72 84 246 333 137 436 375 
93 8 118 378 383 404 13 332 195 133 
94 9 417 423 363 4 369 153 366 214 270 
95 9 310 36 54 374 142 179 245 277 188 
96 9 401 104 419 435 344 6 388 88 296 
97 9 294 253 70 166 345 329 219 364 381 
98 9 454 155 265 178 258 251 399 79 139 
99 7 225 180 28 234 400 380 306 
100 9 441 194 141 262 117 55 85 107 150 
101 9 243 445 344 298 58 34 131 401 426 
102 8 169 3 204 283 186 386 444 28 
103 9 315 444 386 283 35 169 102 191 204 
104 9 6 388 111 435 275 422 96 122 88 
105 9 191 35 168 257 135 40 103 279 315 
106 9 425 132 305 182 17 295 156 216 222 
107 9 55 15 134 262 150 239 63 85 337 
108 9 215 37 221 244 45 232 173 174 406 
109 8 83 199 278 202 208 86 346 66 
110 9 307 62 140 439 177 264 289 186 444 
111 9 122 388 6 422 104 275 438 341 397 
112 6 297 301 33 163 319 114 
113 9 309 158 51 259 357 68 268 359 181 
114 9 33 348 163 297 319 34 301 426 243 
115 6 324 312 428 127 20 52 
116 9 263 403 61 87 12 438 165 434 71 
117 9 141 194 441 100 300 440 262 85 172 
118 8 93 383 378 13 195 404 332 181 
119 8 246 393 144 375 92 409 334 407 
120 7 192 274 405 52 303 175 20 
121 9 450 447 228 67 205 74 71 414 12 
122 9 422 438 111 434 360 388 6 263 104 
123 9 255 75 231 216 392 317 370 79 295 
124 9 145 296 419 78 412 22 44 76 322 
125 9 402 354 269 342 415 48 240 31 154 
126 9 43 206 223 254 146 193 233 148 377 
127 5 313 40 324 115 386 
128 7 349 290 224 57 323 130 50 
129 8 446 284 394 351 404 359 93 378 
130 6 368 57 316 362 451 290 
131 9 426 298 360 24 34 434 71 101 243 
132 9 106 425 216 295 75 17 156 182 231 
133 9 195 332 404 347 93 118 383 13 378 
134 9 15 107 239 55 63 429 337 7 26 
135 9 279 168 257 382 105 191 35 410 267 
136 9 38 353 32 58 418 22 344 445 412 
137 9 196 334 367 409 165 2 69 375 92 
138 9 387 350 318 171 250 330 256 68 268 
139 9 187 340 317 392 370 79 226 249 371 
140 8 264 289 110 439 307 62 373 177 
141 9 441 100 117 194 262 85 55 107 150 
142 9 310 143 277 162 41 7 188 337 411 
143 9 7 142 337 162 277 41 411 150 151 
144 8 329 119 407 217 246 364 70 393 
145 9 124 296 412 78 22 419 44 76 322 
146 9 223 254 148 43 281 27 193 126 233 
147 8 323 10 224 349 128 234 306 303 
148 9 146 254 223 27 149 43 230 281 339 
149 9 27 281 148 339 385 146 252 23 223 
150 9 85 107 7 41 337 162 134 55 262 
151 9 411 82 161 16 25 26 188 429 337 
152 9 391 53 241 436 84 333 56 72 361 
153 9 4 270 363 369 417 308 91 94 200 
154 7 452 48 415 326 354 402 157 
155 9 265 454 98 178 258 251 399 79 317 
156 9 17 222 371 249 8 340 226 425 187 
157 7 326 46 252 443 149 339 27 
158 9 113 309 259 357 51 68 268 359 181 
159 7 36 408 188 197 331 390 16 
160 8 384 14 345 97 73 294 217 210 
161 9 151 26 82 429 411 25 16 337 239 
162 9 41 277 143 150 85 142 7 245 337 
163 9 319 297 114 33 348 34 301 445 243 
164 9 21 430 49 11 184 356 89 322 201 
165 9 12 87 367 403 263 116 196 67 61 
166 9 70 253 329 294 364 97 219 144 241 
167 9 88 321 435 275 248 419 433 388 6 
168 9 105 191 257 135 35 279 382 267 40 
169 8 283 102 386 313 3 204 315 444 
170 9 185 311 280 379 39 207 183 286 209 
171 9 318 387 250 350 330 138 327 68 325 
172 9 314 245 47 41 203 85 141 277 162 
173 9 247 198 45 244 176 227 377 60 221 
174 9 406 232 335 37 206 244 215 108 126 
175 7 303 285 120 320 405 52 192 
176 9 247 60 45 173 198 432 227 292 343 
177 9 62 307 287 110 444 103 315 267 439 
178 9 251 155 399 265 79 454 98 139 317 
179 8 418 32 95 54 136 374 211 36 
180 8 99 380 306 190 225 400 28 234 
181 9 328 9 51 113 309 13 158 383 378 
182 9 295 106 132 425 216 75 255 305 17 
183 9 185 311 170 287 439 62 220 18 267 
184 9 89 201 322 356 44 11 21 76 78 
185 9 311 170 39 183 267 280 379 287 207 
186 9 204 3 102 444 400 28 169 283 315 
187 9 139 340 226 249 8 371 317 222 370 
188 9 411 151 16 82 161 143 25 142 408 
189 9 238 65 355 48 415 90 299 452 432 
190 8 306 380 180 400 99 28 225 186 
191 9 105 35 168 257 135 40 103 315 279 
192 6 120 274 405 52 303 20 
193 9 233 260 377 218 227 5 385 23 281 
194 9 441 100 141 117 262 55 442 282 85 
195 9 133 332 347 404 93 118 13 383 378 
196 9 137 334 2 409 165 367 12 375 87 
197 7 390 331 202 408 448 235 16 
198 9 227 260 377 247 173 218 5 60 343 
199 9 278 86 346 83 208 80 448 66 235 
200 9 366 308 369 363 336 4 77 153 236 
201 9 89 184 356 322 76 44 78 11 21 
202 7 197 390 83 278 331 199 408 
203 9 211 245 374 54 172 314 395 32 277 
204 9 3 186 102 444 169 28 283 315 400 
205 9 414 228 59 450 121 410 447 67 2 
206 9 126 43 406 193 223 254 233 146 232 
207 8 39 266 379 170 311 185 280 209 
208 9 66 29 86 424 199 278 80 282 442 
209 9 379 291 280 210 286 73 170 207 39 
210 8 209 291 73 217 407 379 207 280 
211 9 203 374 54 245 32 136 95 277 172 
212 9 30 19 381 376 437 49 430 164 21 
213 8 81 351 338 394 446 256 129 284 
214 9 449 365 270 31 352 417 423 153 4 
215 9 108 37 221 244 232 45 173 174 406 
216 9 75 231 255 132 370 295 392 317 106 
217 8 407 329 144 70 166 119 210 246 
218 9 5 260 23 233 385 193 227 281 377 
219 9 241 364 361 437 84 166 391 253 70 
220 9 373 18 439 264 183 289 140 62 307 
221 9 45 215 108 173 37 244 247 176 60 
222 9 156 371 17 249 8 340 226 187 139 
223 9 146 254 148 43 126 281 193 27 233 
224 7 128 303 323 147 349 10 175 
225 6 99 28 180 242 400 234 
226 9 249 8 371 340 187 222 139 156 17 
227 9 260 377 218 233 198 193 5 23 385 
228 9 205 414 447 450 67 121 59 12 2 
229 6 159 36 213 197 95 351 
230 9 288 416 148 254 223 43 146 398 64 
231 9 370 392 317 216 75 79 255 132 139 
232 9 406 174 37 244 215 206 335 108 126 
233 9 193 260 377 218 227 5 385 23 281 
234 5 99 225 180 242 28 
235 9 25 448 16 82 331 26 408 161 151 
236 9 77 308 91 304 200 153 4 270 366 
237 9 304 77 236 261 424 29 342 308 442 
238 9 65 90 189 48 415 276 240 452 269 
239 9 429 26 134 337 15 7 161 107 25 
240 9 269 342 90 276 354 300 125 415 440 
241 9 219 391 437 152 84 361 364 53 72 
242 3 225 99 28 
243 9 101 445 34 344 58 298 131 426 348 
244 9 37 173 232 377 215 227 221 45 198 
245 9 374 277 41 162 54 203 211 142 172 
246 9 119 92 375 393 144 334 361 409 69 
247 9 176 60 173 198 45 227 377 260 432 
248 9 321 167 376 88 11 44 296 419 435 
249 9 8 226 371 222 340 156 187 17 139 
250 9 171 350 387 318 330 42 316 327 325 
251 9 399 79 178 139 317 392 187 370 340 
252 9 46 443 157 149 299 326 27 343 385 
253 9 166 70 294 97 219 364 329 241 381 
254 9 223 146 148 43 126 230 27 281 288 
255 9 75 216 295 123 231 132 370 392 317 
256 9 338 394 268 359 446 330 68 357 259 
257 9 168 135 279 105 191 382 410 35 59 
258 9 265 155 98 178 302 454 123 251 79 
259 8 158 309 113 357 359 51 268 68 
260 9 227 218 377 233 193 5 23 198 385 
261 9 336 77 200 366 358 308 304 236 237 
262 9 100 55 107 441 141 85 194 150 15 
263 9 403 116 87 61 438 12 165 367 434 
264 8 140 289 373 439 110 307 62 220 
265 9 155 258 178 98 454 251 79 123 399 
266 8 207 39 393 382 119 279 375 135 
267 9 287 168 177 105 185 311 35 135 191 
268 8 259 357 359 158 68 309 113 51 
269 9 354 240 342 125 402 90 415 48 65 
270 9 153 31 449 91 214 4 365 417 308 
271 9 396 335 64 206 398 406 174 126 232 
272 8 289 190 306 380 140 264 10 373 
273 5 352 365 449 214 31 
274 6 192 120 52 405 20 428 
275 9 388 433 435 6 88 104 321 397 167 
276 9 300 440 90 240 238 65 269 415 48 
277 9 162 41 142 245 143 150 85 310 7 
278 9 199 86 346 83 448 80 208 235 390 
279 9 382 135 257 410 168 59 105 414 191 
280 9 379 170 286 209 185 311 207 39 291 
281 9 385 23 5 218 149 27 146 193 233 
282 9 442 424 66 29 194 100 441 63 55 
283 8 169 386 102 313 315 103 3 444 
284 8 129 446 394 351 404 332 93 81 
285 5 320 175 427 347 13 
286 9 280 379 209 170 291 185 311 18 183 
287 9 267 177 62 307 183 185 311 103 444 
288 9 230 416 148 254 398 339 223 64 146 
289 8 264 140 373 439 110 307 62 220 
290 8 57 128 50 349 130 368 316 224 
291 9 73 209 210 286 379 280 14 389 207 
292 9 432 60 176 247 355 45 198 299 173 
293 9 420 421 47 189 238 395 276 413 440 
294 9 97 253 70 166 329 345 219 364 381 
295 9 182 132 216 75 255 106 425 231 370 
296 9 124 145 419 78 44 412 22 322 88 
297 9 163 319 114 33 301 348 112 34 445 
298 9 360 131 422 434 101 426 243 122 34 
299 9 443 46 355 343 252 432 23 385 5 
300 9 440 276 117 240 194 141 90 47 441 
301 9 33 297 114 163 348 112 319 453 34 
302 8 258 345 123 30 265 155 255 97 
303 7 120 192 175 274 224 405 52 
304 9 77 236 237 308 91 261 200 342 336 
305 9 425 106 17 156 222 132 371 8 182 
306 8 190 380 180 400 99 28 225 234 
307 9 62 110 177 439 140 264 287 444 186 
308 9 200 236 4 77 153 369 366 91 363 
309 9 113 158 51 259 357 68 268 359 181 
310 9 142 95 36 143 277 54 374 162 188 
311 9 185 170 39 183 267 280 379 287 207 
312 7 428 115 20 52 405 324 274 
313 8 386 283 169 40 127 315 102 103 
314 9 172 47 245 203 41 141 85 117 277 
315 9 103 444 386 283 169 35 102 204 313 
316 9 130 57 368 451 362 325 327 9 42 
317 9 392 370 231 79 139 340 187 216 75 
318 9 171 387 330 250 138 350 68 357 327 
319 9 163 297 114 348 33 445 34 243 301 
320 5 285 347 175 13 427 
321 9 167 88 275 433 248 435 56 388 6 
322 9 44 184 11 89 201 78 76 356 21 
323 8 147 10 224 349 128 303 234 306 
324 6 115 127 312 428 20 313 
325 9 327 328 9 451 51 181 68 113 309 
326 7 157 46 252 443 452 154 149 
327 9 325 328 9 451 51 68 181 330 113 
328 9 9 325 327 181 427 451 51 113 362 
329 9 70 144 166 217 407 364 253 97 294 
330 9 68 318 357 51 327 268 158 171 325 
331 9 408 390 235 448 16 25 82 151 197 
332 9 404 133 195 93 118 383 378 347 13 
333 9 436 72 53 69 84 361 92 152 341 
334 9 409 196 2 137 375 165 367 393 92 
335 9 271 174 406 232 206 396 126 64 37 
336 9 261 200 366 308 77 369 358 363 236 
337 9 7 239 429 161 143 26 134 150 151 
338 9 256 81 394 213 446 351 268 129 138 
339 9 27 149 148 416 288 230 146 157 254 
340 9 187 139 226 249 222 371 8 370 156 
341 9 397 433 56 275 111 388 122 436 6 
342 9 269 125 240 354 402 304 237 236 90 
343 9 23 5 385 218 198 281 260 299 227 
344 9 101 401 58 96 243 445 298 38 104 
345 8 97 294 160 384 253 70 166 302 
346 9 86 448 80 235 25 278 199 26 63 
347 9 195 320 13 133 285 332 118 383 93 
348 9 114 34 33 426 163 319 131 24 297 
349 9 128 290 224 323 147 50 57 10 130 
350 9 387 171 250 138 318 330 42 316 327 
351 8 81 394 446 284 129 213 338 256 
352 7 273 365 449 31 214 270 91 
353 9 136 38 58 445 344 32 418 243 101 
354 9 125 402 269 415 48 342 240 90 154 
355 9 299 432 443 189 46 343 252 60 292 
356 9 89 201 184 21 322 164 44 430 11 
357 9 158 68 51 113 309 259 268 359 330 
358 9 261 336 200 77 366 237 29 304 308 
359 8 259 268 158 309 113 357 51 68 
360 9 298 434 422 131 438 122 61 71 111 
361 9 84 92 69 72 333 53 436 364 219 
362 7 451 368 427 9 130 328 316 
363 9 369 4 94 153 366 417 200 308 423 
364 9 219 361 166 70 84 92 241 329 144 
365 9 214 449 352 273 31 270 423 417 153 
366 9 200 369 363 308 336 4 153 94 417 
367 9 165 87 12 403 137 263 196 116 61 
368 6 130 362 451 316 57 427 
369 9 363 4 366 153 200 417 94 308 423 
370 9 317 392 231 139 340 79 187 216 75 
371 9 222 249 8 156 17 226 340 187 139 
372 9 413 421 292 293 176 45 30 60 432 
373 8 220 264 439 289 140 110 307 62 
374 9 54 245 211 203 310 95 277 142 162 
375 9 409 334 393 2 246 137 196 119 92 
376 9 248 11 321 49 167 430 88 164 56 
377 9 227 260 233 193 218 5 198 23 385 
378 8 383 118 93 13 181 359 259 113 
379 9 280 170 209 207 286 39 185 311 210 
380 9 190 306 180 400 28 99 225 186 3 
381 9 437 19 241 219 253 391 294 97 166 
382 9 279 135 257 410 59 168 414 205 105 
383 8 118 378 93 13 181 195 404 332 
384 9 160 14 345 97 73 217 294 210 329 
385 9 281 23 5 218 260 233 343 193 149 
386 9 283 169 313 315 103 102 444 40 3 
387 9 171 318 350 138 250 330 68 327 325 
388 9 6 104 111 275 435 422 122 397 341 
389 9 73 14 291 182 160 384 210 295 209 
390 7 331 408 197 448 235 16 25 
391 9 152 241 437 53 84 219 361 436 72 
392 9 317 370 231 79 139 340 187 216 75 
393 8 119 375 246 409 334 2 266 144 
394 8 446 129 81 351 284 256 359 268 
395 9 356 420 89 201 76 184 203 21 322 
396 9 271 64 398 335 206 230 288 126 43 
397 9 341 433 56 275 111 388 122 6 436 
398 9 64 288 230 416 396 254 43 148 126 
399 9 251 79 139 178 187 340 317 392 226 
400 9 28 380 180 186 190 3 99 225 306 
401 9 96 344 419 435 104 124 6 296 145 
402 9 125 354 269 342 31 415 154 48 91 
403 9 263 116 87 61 12 165 438 367 434 
404 8 332 93 133 195 118 378 383 13 
405 7 52 20 274 192 428 120 175 
406 9 232 174 206 37 335 244 126 215 377 
407 8 217 144 329 119 210 70 246 166 
408 9 331 390 16 235 25 82 448 151 411 
409 9 334 2 375 196 137 393 414 246 165 
410 9 59 205 279 414 382 257 450 228 121 
411 9 151 82 161 16 188 25 26 429 7 
412 9 22 145 78 76 124 296 44 419 322 
413 9 372 421 292 293 30 212 432 176 60 
414 9 59 205 228 2 410 450 121 447 409 
415 9 48 65 90 354 452 154 238 125 269 
416 9 288 230 339 148 254 27 398 223 146 
417 9 94 423 4 363 153 369 214 270 449 
418 8 353 136 32 179 319 38 58 163 
419 9 296 124 145 435 88 96 401 167 321 
420 9 47 395 293 356 314 172 89 201 21 
421 9 413 293 372 212 430 49 164 420 30 
422 9 122 111 438 360 6 104 388 434 298 
423 9 417 94 4 214 363 153 369 365 449 
424 9 442 282 29 66 237 208 63 80 194 
425 9 106 132 17 305 156 222 371 182 216 
426 9 131 34 24 348 298 360 431 243 101 
427 8 9 362 451 328 181 285 325 13 
428 6 20 52 405 312 274 192 
429 9 26 239 161 337 25 7 134 82 151 
430 9 49 164 21 11 184 356 322 89 44 
431 9 74 24 453 121 426 447 450 71 131 
432 9 60 355 299 176 343 292 247 198 443 
433 9 56 275 397 341 321 88 167 388 435 
434 9 61 438 360 71 116 263 403 122 422 
435 9 88 6 104 275 388 167 321 419 96 
436 9 333 53 72 69 84 361 152 341 92 
437 9 241 391 381 219 152 19 53 84 253 
438 9 122 434 263 116 403 61 422 87 111 
439 9 62 307 264 110 373 140 289 220 177 
440 9 300 276 117 47 240 141 194 90 441 
441 9 100 194 141 262 117 55 85 107 150 
442 9 282 424 66 29 194 100 441 262 63 
443 9 46 252 299 343 157 326 23 149 355 
444 9 315 103 204 3 186 102 177 283 386 
445 9 243 101 58 344 34 319 298 163 131 
446 8 129 394 284 351 81 359 268 404 
447 9 121 450 67 228 71 205 12 61 74 
448 9 235 346 25 331 408 26 16 390 82 
449 9 214 365 31 270 352 153 273 4 417 
450 9 121 447 205 228 74 67 414 59 71 
451 9 362 9 427 328 368 325 327 316 130 
452 7 154 48 415 326 157 65 354 
453 9 431 74 33 24 348 301 114 426 34 
454 9 98 155 178 265 251 399 258 79 139 
DEPOT_SECTION
   1
   -1
EOF
