NAME :  X-n459-kX-w45-c11.cctp
COMMENT : 	Adapted by Maziero, Usberti and Cavellucci from the Uchoa, Pecin, Pessoa, Poggi, Subramanian, and Vidal (2013)
TYPE :  CCTP
DIMENSION :    362
EDGE_WEIGHT_TYPE : 	EUC_2D	
CAPACITY : 	1106
VERTICES_WITHIN_COVERAGE :  11
VERTICES_WITH_DEMAND : 	45
NODE_COORD_SECTION
1 500 500
2 832 885
3 777 632
4 406 257
5 620 467
6 343 166
7 355 345
8 393 299
9 631 767
10 384 340
11 643 630
12 786 593
13 789 727
14 443 205
15 679 408
16 845 535
17 732 820
18 890 861
19 645 689
20 800 517
21 951 643
22 828 746
23 862 625
24 606 432
25 672 984
26 580 338
27 629 494
28 809 663
29 738 595
30 604 320
31 645 532
32 688 728
33 390 680
34 842 517
35 525 404
36 697 719
37 837 853
38 741 585
39 628 506
40 354 280
41 726 834
42 721 635
43 448 363
44 963 702
45 570 484
46 389 281
47 708 380
48 522 439
49 771 523
50 778 645
51 402 318
52 817 717
53 730 655
54 743 362
55 568 298
56 555 132
57 937 637
58 542 678
59 822 854
60 711 697
61 603 310
62 864 674
63 850 879
64 280 198
65 502 417
66 764 610
67 729 822
68 307 258
69 774 732
70 684 446
71 691 793
72 905 888
73 664 411
74 477 226
75 607 624
76 823 875
77 558 543
78 410 237
79 712 692
80 804 678
81 881 872
82 371 269
83 590 431
84 420 245
85 811 647
86 684 647
87 739 969
88 854 717
89 520 823
90 720 645
91 564 493
92 653 541
93 831 758
94 694 804
95 417 251
96 683 364
97 648 479
98 888 492
99 866 827
100 822 876
101 672 419
102 750 974
103 545 420
104 925 749
105 427 272
106 856 861
107 848 809
108 804 638
109 426 194
110 499 348
111 692 700
112 331 318
113 738 644
114 967 900
115 604 563
116 523 429
117 834 880
118 714 644
119 720 566
120 606 512
121 667 709
122 670 508
123 456 202
124 827 687
125 871 800
126 556 837
127 810 589
128 537 360
129 688 214
130 346 163
131 880 569
132 617 420
133 308 466
134 880 638
135 751 763
136 616 485
137 719 744
138 371 346
139 379 420
140 565 524
141 377 138
142 864 721
143 823 535
144 614 761
145 659 383
146 717 895
147 865 793
148 588 663
149 595 488
150 408 268
151 713 863
152 652 409
153 920 394
154 653 425
155 618 425
156 657 290
157 709 839
158 909 732
159 375 283
160 278 391
161 843 873
162 443 229
163 756 702
164 365 293
165 821 637
166 477 191
167 401 102
168 359 290
169 791 751
170 938 787
171 329 178
172 559 543
173 916 882
174 758 635
175 855 710
176 797 783
177 428 238
178 802 823
179 797 464
180 217 29
181 939 745
182 911 889
183 829 679
184 678 523
185 550 429
186 798 482
187 686 615
188 735 658
189 768 524
190 498 441
191 601 454
192 851 574
193 662 511
194 447 601
195 889 610
196 728 845
197 643 486
198 830 608
199 387 233
200 561 410
201 721 439
202 778 640
203 826 627
204 644 724
205 728 651
206 525 419
207 927 692
208 597 228
209 448 218
210 575 349
211 921 883
212 406 172
213 840 847
214 787 660
215 301 545
216 668 880
217 594 416
218 740 581
219 600 464
220 965 412
221 614 568
222 829 644
223 556 518
224 660 676
225 525 793
226 623 482
227 369 195
228 805 668
229 879 886
230 728 597
231 833 719
232 744 569
233 644 446
234 896 850
235 393 284
236 708 586
237 694 612
238 446 162
239 726 702
240 749 641
241 499 397
242 335 416
243 428 272
244 664 226
245 772 626
246 602 466
247 592 394
248 627 408
249 754 637
250 643 572
251 880 867
252 698 630
253 819 640
254 819 577
255 860 866
256 303 326
257 523 470
258 780 647
259 630 579
260 893 578
261 545 465
262 782 723
263 639 609
264 313 267
265 810 893
266 407 307
267 808 666
268 621 427
269 761 602
270 335 150
271 807 564
272 715 936
273 818 834
274 881 870
275 300 679
276 628 402
277 342 373
278 819 859
279 651 493
280 378 248
281 675 424
282 398 303
283 799 623
284 812 806
285 770 860
286 776 711
287 661 839
288 829 895
289 392 227
290 891 565
291 569 489
292 824 716
293 827 436
294 527 376
295 838 855
296 537 432
297 468 195
298 714 807
299 553 104
300 448 331
301 846 863
302 815 689
303 639 332
304 577 442
305 572 461
306 431 304
307 415 256
308 933 687
309 461 392
310 827 906
311 786 737
312 583 513
313 793 632
314 540 374
315 604 445
316 303 293
317 802 534
318 298 118
319 500 353
320 818 892
321 487 444
322 744 657
323 660 436
324 580 450
325 591 411
326 377 314
327 868 819
328 750 857
329 643 336
330 770 609
331 873 547
332 736 788
333 676 521
334 817 914
335 493 28
336 746 617
337 860 848
338 396 235
339 792 646
340 417 267
341 871 536
342 285 205
343 854 648
344 602 262
345 950 821
346 698 633
347 418 292
348 690 602
349 669 683
350 832 811
351 797 722
352 594 646
353 597 358
354 944 834
355 776 610
356 719 441
357 832 908
358 702 378
359 604 494
360 757 832
361 647 400
362 601 706
DEMAND_SECTION
2 71
3 54
4 74
5 9
6 91
7 98
8 72
9 67
10 70
11 68
12 92
13 93
14 97
15 23
16 75
17 61
18 91
19 61
20 89
21 70
22 63
23 93
24 18
25 65
26 33
27 11
28 80
29 88
30 7
31 71
32 68
33 38
34 79
35 28
36 63
37 99
38 99
39 94
40 69
41 78
42 76
43 90
44 57
45 29
46 82
COVERAGE_SECTION
2 11 117 288 76 100 161 320 63 310 265 357 301 
3 11 202 245 50 258 313 174 339 355 249 283 330 
4 11 307 150 95 340 84 78 338 105 243 46 177 
5 11 226 136 246 219 191 315 27 97 197 359 233 
6 5 130 171 270 227 141 
7 11 138 10 277 112 326 164 51 168 256 8 282 
8 11 282 235 266 46 51 326 159 347 164 150 168 
9 11 144 204 71 121 362 32 94 287 19 36 111 
10 11 138 326 51 7 266 282 8 164 277 168 112 
11 11 263 75 86 187 224 352 259 237 252 346 348 
12 11 355 330 127 269 66 283 245 271 254 3 313 
13 11 262 351 311 69 286 169 52 292 163 22 231 
14 11 123 209 109 162 297 177 166 74 238 78 84 
15 11 101 73 281 152 154 145 361 323 70 358 47 
16 11 34 143 341 331 192 317 20 271 131 254 290 
17 11 67 41 298 196 360 157 332 94 328 151 71 
18 11 251 234 274 81 229 255 72 173 337 106 182 
19 11 224 349 121 204 362 111 86 32 11 36 148 
20 10 317 143 49 189 186 34 16 271 179 254 
21 11 57 308 207 44 195 134 260 23 62 343 158 
22 11 93 231 292 52 169 88 351 13 311 142 175 
23 11 134 343 195 198 203 222 165 253 62 192 85 
24 11 315 155 83 132 268 217 191 325 304 248 324 
25 5 272 87 102 146 216 
26 10 210 353 30 61 55 128 314 247 303 329 
27 11 39 226 136 197 279 97 359 5 120 149 193 
28 11 267 228 80 85 214 339 108 253 183 302 222 
29 10 38 230 218 336 269 232 66 236 119 330 
30 10 61 26 303 353 210 55 329 344 156 247 
31 11 92 193 39 333 184 122 279 250 27 120 197 
32 10 36 111 121 137 60 79 204 239 349 19 
33 8 275 194 58 215 225 89 148 352 
34 11 16 143 341 20 317 331 98 186 192 271 131 
35 11 206 116 65 103 241 294 296 314 48 185 200 
36 9 32 111 60 79 121 137 239 349 204 
37 11 295 213 301 59 278 106 161 337 76 255 100 
38 10 218 29 232 230 269 119 336 236 66 330 
39 11 27 120 136 197 226 279 359 31 97 193 149 
40 11 168 164 82 159 46 235 280 326 8 264 112 
41 11 196 67 17 157 298 360 151 328 94 332 285 
42 11 90 118 205 113 53 346 252 188 240 336 322 
43 8 300 309 110 319 241 306 51 10 
44 11 308 207 181 21 104 158 57 170 142 62 134 
45 11 291 91 305 149 261 312 324 359 219 223 246 
46 11 235 159 8 82 150 282 164 4 168 340 347 
47 10 358 96 54 15 145 101 73 281 201 356 
48 10 116 296 206 190 65 103 185 257 35 261 
49 6 189 20 317 186 143 232 
50 11 258 202 3 339 214 245 313 174 249 108 240 
51 10 266 282 8 326 10 347 306 235 46 138 
52 11 292 231 351 302 13 22 124 262 88 311 175 
53 9 205 188 90 113 322 118 42 240 249 
54 5 47 358 96 15 201 
55 7 61 26 30 344 210 353 128 
56 10 299 166 208 297 238 123 335 74 14 209 
57 11 21 308 195 207 134 44 260 23 62 343 290 
58 10 148 352 362 75 19 144 11 204 225 224 
59 10 278 37 295 213 273 76 100 301 161 117 
60 8 79 239 111 36 32 349 163 53 
61 9 30 26 55 303 210 329 344 353 156 
62 10 343 183 175 124 134 88 222 142 23 302 
63 11 161 117 255 301 2 106 288 76 295 100 37 
64 5 342 171 68 6 270 
65 11 241 206 116 190 35 48 321 296 103 294 309 
66 11 330 269 355 245 336 3 174 12 249 29 202 
67 11 17 41 298 196 157 360 332 94 328 151 71 
68 5 264 316 40 342 168 
69 11 262 311 13 286 169 351 163 135 52 292 22 
70 6 281 323 101 356 154 15 
71 11 94 298 332 67 17 157 41 287 137 196 9 
72 9 182 173 211 229 81 274 18 251 234 
73 11 101 152 15 281 154 361 323 145 248 276 70 
74 7 209 123 297 162 166 14 177 
75 10 352 263 11 148 259 221 115 250 224 19 
76 11 100 117 2 278 320 161 59 288 265 295 37 
77 9 172 140 223 312 91 115 291 120 45 
78 11 84 338 95 177 4 307 289 199 150 340 162 
79 8 60 239 111 36 53 188 32 205 
80 11 228 267 28 302 124 183 214 85 339 258 108 
81 10 274 251 18 229 255 106 234 72 63 337 
82 11 159 40 46 280 168 164 235 4 8 150 199 
83 11 24 217 304 315 325 324 191 132 155 268 219 
84 11 95 177 307 78 4 340 150 338 105 162 243 
85 11 108 253 165 28 222 267 339 228 313 203 214 
86 10 346 252 118 187 90 237 224 42 349 11 
87 4 102 272 25 146 
88 10 175 142 231 292 52 22 124 62 183 93 
89 11 225 126 144 9 287 362 58 204 216 71 148 
90 10 118 42 205 53 113 188 346 252 322 240 
91 11 291 45 223 312 140 149 305 261 359 120 219 
92 9 31 333 184 193 250 122 39 259 221 
93 11 22 231 169 176 52 292 88 147 142 311 351 
94 11 71 298 157 67 17 41 332 287 196 151 137 
95 10 307 84 4 78 340 177 150 105 243 338 
96 10 358 47 145 15 329 73 361 303 152 101 
97 7 197 279 27 226 5 136 233 
98 11 341 34 331 16 290 131 143 293 260 192 20 
99 11 327 337 107 125 213 147 106 234 350 37 255 
100 11 76 2 117 320 278 288 161 265 59 295 37 
101 11 281 73 15 154 323 152 70 361 145 233 248 
102 3 87 272 25 
103 11 185 296 200 206 116 35 48 304 65 261 83 
104 11 181 158 170 207 44 308 142 125 147 345 88 
105 9 243 340 150 307 347 95 4 84 306 
106 11 255 301 337 161 63 295 37 213 251 81 274 
107 11 350 327 147 99 125 284 213 273 337 37 295 
108 11 85 313 339 253 283 165 28 203 202 222 258 
109 10 14 212 123 209 238 162 297 177 78 289 
110 7 319 128 294 241 314 43 300 
111 9 60 36 79 121 32 349 239 224 19 
112 11 256 7 316 168 164 40 326 138 264 159 277 
113 10 240 205 53 188 322 249 90 42 174 118 
114 9 211 173 182 72 354 345 18 234 229 
115 10 221 259 250 172 77 31 120 92 312 140 
116 10 48 206 296 65 103 35 185 190 321 241 
117 11 2 161 76 100 63 288 320 301 295 278 37 
118 10 90 42 205 53 346 252 113 188 86 322 
119 5 236 232 218 38 230 
120 11 359 39 312 149 27 136 226 140 31 291 197 
121 10 349 111 204 32 19 36 224 60 79 239 
122 7 193 333 184 279 31 197 97 
123 10 14 297 209 166 162 109 74 238 177 84 
124 10 183 302 80 267 228 292 28 52 231 175 
125 11 147 327 107 99 350 337 213 234 93 284 37 
126 11 89 225 144 9 287 216 362 71 94 204 157 
127 11 254 12 271 198 283 355 203 192 330 313 108 
128 10 314 294 319 110 210 35 26 241 200 206 
129 8 244 156 208 344 61 303 329 30 
130 6 6 270 171 227 141 212 
131 11 290 260 331 192 341 195 16 23 254 198 34 
132 11 155 268 24 248 276 217 315 325 83 154 247 
133 9 242 215 160 139 277 7 138 256 10 
134 10 23 343 195 62 222 203 57 198 165 253 
135 11 332 137 69 169 311 176 262 13 298 286 17 
136 11 226 359 27 5 149 39 246 219 197 120 97 
137 11 36 32 135 239 332 60 79 111 69 71 163 
138 11 10 7 326 277 51 112 282 8 164 266 168 
139 9 242 277 138 7 10 133 309 43 51 
140 10 223 77 172 312 91 291 45 120 149 359 
141 9 130 167 6 270 212 227 171 238 109 
142 10 88 175 231 292 22 158 52 62 93 124 
143 11 317 16 34 20 271 254 192 341 331 49 127 
144 11 9 204 362 121 19 32 71 94 287 36 225 
145 10 361 152 73 96 15 276 101 248 154 358 
146 8 151 272 328 196 216 157 41 285 
147 11 125 107 327 99 350 93 284 337 22 213 273 
148 11 352 75 362 58 19 11 224 263 204 349 121 
149 11 359 136 246 45 219 120 291 312 226 91 5 
150 10 340 4 307 95 105 243 235 46 84 347 
151 11 196 157 41 146 328 67 17 216 360 298 285 
152 11 361 73 154 101 248 276 15 145 281 323 268 
153 5 220 293 98 179 34 
154 11 323 152 73 101 281 233 361 15 248 268 276 
155 11 268 132 24 248 315 276 217 83 325 233 191 
156 9 303 329 61 30 344 244 96 129 208 
157 11 41 196 151 67 17 298 94 328 287 71 360 
158 11 104 181 207 142 308 88 175 44 170 62 147 
159 11 46 164 82 168 235 40 8 282 326 280 150 
160 11 242 277 256 133 7 112 316 138 139 10 326 
161 11 63 301 117 2 106 255 295 76 37 100 213 
162 10 209 177 14 84 123 74 78 95 109 307 
163 9 286 239 262 69 13 60 79 311 351 
164 11 168 159 40 326 82 46 8 235 282 112 266 
165 11 253 203 222 85 108 283 313 28 198 339 267 
166 9 297 123 74 14 209 238 109 162 177 
167 11 141 212 238 130 270 6 109 227 318 171 14 
168 11 164 40 159 82 326 46 8 235 112 282 280 
169 11 311 13 69 262 351 176 22 93 135 52 286 
170 11 345 104 181 354 158 125 147 234 327 99 18 
171 6 6 130 270 227 342 64 
172 9 77 140 223 312 115 91 291 120 45 
173 9 211 182 72 18 81 229 274 234 251 
174 11 249 240 245 3 202 50 113 336 258 66 322 
175 10 88 142 231 292 124 62 52 183 22 302 
176 11 284 169 178 93 350 311 22 135 273 69 13 
177 11 84 95 162 78 307 209 4 340 338 105 243 
178 10 273 284 350 59 176 278 213 37 360 107 
179 8 186 293 20 49 189 34 317 143 
180 9 318 270 64 6 130 171 342 141 167 
181 11 104 158 170 44 207 308 345 142 125 147 88 
182 9 72 173 211 229 81 18 274 251 234 
183 10 124 302 80 267 28 228 62 222 85 292 
184 6 333 122 193 92 31 279 
185 11 103 296 200 116 206 48 304 35 261 324 305 
186 9 179 20 49 189 317 293 34 143 16 
187 11 237 348 252 346 86 236 42 118 90 11 230 
188 9 53 322 205 113 90 240 118 42 249 
189 6 49 20 317 232 186 143 
190 10 321 48 65 116 206 257 296 241 35 103 
191 11 315 219 246 324 5 24 83 304 305 136 155 
192 11 131 254 331 16 198 290 260 341 127 271 143 
193 9 122 333 184 279 31 92 197 39 97 
194 6 33 58 77 172 223 140 
195 11 134 23 260 131 290 192 343 57 198 203 331 
196 11 41 157 67 151 17 328 360 298 285 146 94 
197 8 97 279 27 226 39 136 5 193 
198 11 203 127 165 254 253 283 23 222 108 192 85 
199 5 289 338 280 78 4 
200 11 103 185 325 296 217 247 35 83 304 206 116 
201 5 356 70 281 15 101 
202 11 50 258 3 245 339 313 174 214 249 108 283 
203 11 165 253 222 198 85 108 283 313 343 23 339 
204 11 121 19 32 9 362 144 349 224 36 111 60 
205 9 53 90 188 113 118 42 322 240 249 
206 11 116 35 296 48 103 65 185 241 190 200 294 
207 11 308 44 158 181 21 57 104 62 142 134 175 
208 8 344 244 55 61 156 30 129 56 
209 10 162 14 123 177 74 297 109 84 166 78 
210 10 26 353 128 30 314 61 247 55 294 200 
211 10 173 182 72 18 81 234 229 274 251 114 
212 7 109 238 227 141 14 289 123 
213 11 37 295 301 59 337 106 278 161 273 255 76 
214 11 258 339 50 228 28 202 267 80 85 108 313 
215 8 133 242 275 139 160 194 33 277 
216 11 287 151 146 157 196 272 41 94 67 328 298 
217 11 325 83 24 247 132 155 268 304 315 200 248 
218 9 38 232 29 230 119 269 236 336 66 
219 11 246 191 315 5 324 149 136 305 226 359 304 
220 7 153 98 293 341 34 331 290 
221 10 115 259 250 92 31 263 75 120 172 77 
222 11 165 253 203 85 343 108 28 267 228 183 198 
223 10 140 77 172 91 312 291 45 149 120 261 
224 10 349 19 121 86 111 11 204 79 60 36 
225 11 89 126 144 9 58 362 204 148 287 19 352 
226 11 136 27 5 197 359 39 97 246 149 219 279 
227 4 6 130 289 199 
228 11 267 28 80 214 85 302 183 339 124 108 253 
229 9 81 274 251 72 18 255 63 182 106 
230 11 29 38 218 236 336 119 232 269 237 66 348 
231 10 292 52 88 175 22 142 124 302 351 93 
232 6 218 38 119 29 230 269 
233 9 323 154 268 5 97 155 132 152 281 
234 11 18 251 274 81 337 99 173 72 255 229 106 
235 11 46 8 159 282 150 347 82 266 164 340 4 
236 9 119 230 348 237 29 218 38 187 232 
237 11 187 348 252 346 236 42 86 230 118 90 29 
238 11 109 297 123 212 166 14 209 162 74 141 167 
239 8 60 79 163 36 111 137 188 32 
240 11 249 113 174 322 188 205 53 336 245 3 42 
241 11 65 35 206 294 309 116 190 319 314 48 110 
242 10 139 277 133 160 7 138 10 256 112 326 
243 9 105 340 150 307 347 95 4 84 306 
244 9 129 156 208 344 61 303 30 329 55 
245 11 3 202 355 174 330 66 50 249 258 313 269 
246 11 219 191 5 315 149 136 226 324 359 305 24 
247 11 325 217 200 132 353 83 276 248 24 155 268 
248 11 276 132 155 268 361 152 154 24 217 325 73 
249 11 174 240 113 245 322 336 3 202 50 188 258 
250 10 259 221 92 263 31 115 348 11 184 187 
251 11 274 81 18 229 255 234 106 337 63 72 301 
252 11 346 237 187 118 86 42 90 348 205 53 113 
253 11 165 85 222 108 203 28 283 313 267 339 228 
254 11 127 271 192 198 12 143 317 16 203 283 355 
255 11 106 301 63 161 337 251 274 81 295 37 213 
256 11 112 316 7 264 277 168 68 40 160 164 138 
257 9 261 48 190 296 116 321 91 45 185 
258 11 50 202 339 3 214 313 245 174 108 249 85 
259 10 250 221 115 263 92 31 75 11 348 187 
260 11 290 131 195 331 192 341 23 134 16 198 57 
261 10 257 305 45 91 291 296 48 185 324 304 
262 11 13 69 286 311 351 169 163 52 292 302 80 
263 11 11 259 75 250 187 221 348 237 115 352 86 
264 5 68 316 40 168 112 
265 10 320 288 100 310 76 334 2 117 357 278 
266 10 282 51 8 347 306 235 326 46 150 10 
267 11 28 228 80 85 214 302 183 339 108 124 253 
268 11 155 132 24 248 315 276 217 233 83 154 191 
269 11 66 330 355 336 29 38 245 12 218 174 230 
270 8 130 6 171 141 318 227 64 212 
271 11 254 127 317 143 12 192 16 20 198 49 355 
272 6 87 146 102 25 151 216 
273 10 178 59 278 213 37 350 284 295 107 301 
274 10 81 251 18 229 255 234 106 72 337 63 
275 7 33 215 194 133 58 225 89 
276 10 248 361 132 152 155 268 154 145 24 73 
277 11 7 138 242 10 112 139 256 160 326 51 164 
278 10 59 76 100 37 295 213 273 117 301 161 
279 7 197 97 193 27 122 39 226 
280 6 199 82 338 289 4 78 
281 10 101 15 73 323 154 70 152 361 233 145 
282 11 8 266 51 235 347 46 326 159 306 164 150 
283 11 313 108 3 339 165 253 355 85 202 203 245 
284 11 178 350 176 273 107 59 213 93 37 278 147 
285 10 328 360 196 178 278 41 59 265 100 17 
286 11 262 13 69 163 351 311 52 80 169 302 292 
287 11 216 94 157 71 151 298 41 196 67 17 9 
288 11 2 310 320 357 117 265 100 76 334 63 161 
289 6 199 338 78 280 4 84 
290 11 131 260 331 341 192 195 16 23 34 98 254 
291 11 45 91 149 305 312 223 261 140 359 219 246 
292 10 52 231 302 351 124 22 88 175 13 183 
293 5 179 186 34 98 20 
294 10 314 128 35 241 319 110 206 65 103 200 
295 11 37 213 301 59 106 161 278 337 76 117 255 
296 10 185 103 116 48 206 35 200 261 65 190 
297 9 166 123 14 209 74 238 109 162 177 
298 11 94 67 17 71 332 41 157 196 360 151 135 
299 10 56 335 166 238 297 208 123 74 14 167 
300 7 43 306 51 266 347 110 319 
301 11 106 161 295 37 255 63 213 117 337 2 59 
302 10 124 80 183 228 267 28 52 292 231 351 
303 10 329 30 61 156 353 96 145 26 210 361 
304 11 324 83 305 191 315 185 24 217 219 325 246 
305 11 324 304 45 261 219 291 191 246 91 83 149 
306 8 347 266 51 105 243 300 282 8 
307 10 95 4 340 84 150 78 105 243 177 338 
308 11 207 44 21 57 158 181 104 62 134 142 175 
309 11 43 241 65 319 110 321 190 300 35 294 206 
310 7 357 288 334 320 265 2 117 
311 11 13 69 169 262 351 286 52 22 292 135 163 
312 11 140 120 223 91 149 291 359 45 172 77 136 
313 11 283 108 339 3 202 50 258 245 85 253 165 
314 10 294 128 35 200 210 319 103 206 241 110 
315 11 191 24 219 83 246 155 268 324 5 304 132 
316 8 264 256 68 112 40 168 164 82 
317 11 20 143 271 49 189 16 34 254 186 127 12 
318 9 270 6 130 171 141 64 342 167 227 
319 8 110 294 128 241 314 43 309 300 
320 10 265 288 2 100 310 76 117 357 334 161 
321 9 190 65 48 116 257 206 241 296 35 
322 10 188 53 113 205 240 249 174 90 42 118 
323 9 154 233 281 101 73 70 152 15 361 
324 11 304 305 83 191 219 315 246 24 45 185 217 
325 11 217 247 83 24 132 155 200 268 304 248 315 
326 11 8 164 282 51 10 168 159 266 138 235 46 
327 11 99 125 107 147 337 350 213 234 106 37 18 
328 10 285 196 360 41 151 17 67 157 146 178 
329 10 303 30 61 156 96 145 353 26 361 276 
330 11 66 355 269 245 12 3 336 174 202 249 283 
331 11 341 131 290 16 192 260 34 143 98 254 195 
332 11 135 298 17 67 71 94 41 137 360 157 196 
333 6 184 122 193 92 31 279 
334 6 310 357 265 288 320 2 
335 11 299 167 56 238 141 166 212 297 123 109 14 
336 11 66 269 174 249 29 240 330 230 113 245 42 
337 11 106 255 213 301 99 295 37 251 161 274 327 
338 8 199 289 78 280 4 84 95 307 
339 11 258 50 108 313 202 214 85 3 28 283 228 
340 10 150 105 307 243 4 95 84 347 235 46 
341 11 331 16 131 34 290 192 98 260 143 254 317 
342 5 64 171 68 264 6 
343 10 23 222 62 134 165 203 253 183 85 28 
344 9 208 61 55 30 156 244 26 303 329 
345 11 354 170 234 211 173 18 104 181 182 72 114 
346 11 252 118 86 237 187 42 90 348 205 53 113 
347 9 306 266 105 243 282 340 8 150 235 
348 11 237 187 236 252 346 230 42 86 119 118 29 
349 10 224 19 121 111 86 60 79 36 204 32 
350 11 107 284 273 178 213 327 99 147 125 37 59 
351 11 13 262 311 52 286 69 292 169 231 302 22 
352 11 148 75 11 263 362 58 19 224 259 221 115 
353 10 210 26 247 30 61 303 329 325 276 217 
354 11 345 170 234 211 173 18 182 72 114 251 274 
355 11 330 66 245 269 12 3 283 313 202 174 336 
356 5 201 70 281 15 101 
357 7 310 288 334 320 2 265 117 
358 10 47 96 15 145 54 73 101 281 152 361 
359 11 149 136 120 226 27 39 246 312 219 5 45 
360 10 328 17 67 41 285 196 178 157 332 298 
361 10 152 276 73 145 248 154 101 15 132 268 
362 11 148 19 204 144 352 58 121 224 9 349 75 
DEPOT_SECTION
   1
   -1
EOF
