NAME :  X-n420-kX-w41-c9.cctp
COMMENT : 	Adapted by Maziero, Usberti and Cavellucci from the Uchoa, Pecin, Pessoa, Poggi, Subramanian, and Vidal (2013)
TYPE :  CCTP
DIMENSION :    272
EDGE_WEIGHT_TYPE : 	EUC_2D	
CAPACITY : 	18
VERTICES_WITHIN_COVERAGE :  9
VERTICES_WITH_DEMAND : 	41
NODE_COORD_SECTION
1 500 500
2 707 633
3 405 122
4 811 419
5 11 667
6 336 612
7 366 50
8 98 836
9 414 996
10 243 713
11 100 232
12 891 946
13 132 204
14 25 642
15 994 18
16 636 897
17 214 651
18 108 619
19 882 399
20 863 607
21 409 585
22 247 882
23 553 507
24 677 258
25 673 644
26 25 182
27 251 111
28 263 799
29 660 359
30 351 288
31 172 127
32 382 441
33 231 650
34 966 485
35 964 107
36 876 164
37 949 328
38 936 70
39 229 744
40 161 214
41 581 594
42 154 860
43 736 600
44 594 542
45 846 684
46 355 471
47 675 597
48 663 653
49 61 889
50 685 150
51 129 248
52 180 836
53 427 670
54 833 860
55 669 251
56 411 403
57 450 926
58 591 505
59 468 157
60 288 484
61 574 955
62 41 65
63 907 13
64 579 912
65 765 835
66 176 189
67 972 351
68 470 22
69 577 469
70 561 672
71 110 670
72 811 614
73 460 344
74 898 295
75 89 934
76 164 871
77 487 617
78 731 565
79 509 209
80 860 845
81 388 521
82 573 250
83 143 923
84 247 971
85 641 297
86 763 749
87 585 887
88 987 361
89 153 215
90 150 669
91 76 153
92 456 635
93 334 529
94 963 378
95 32 672
96 118 874
97 931 462
98 168 831
99 443 2
100 571 812
101 185 964
102 368 628
103 366 788
104 459 77
105 345 357
106 315 149
107 458 286
108 974 86
109 167 854
110 441 425
111 646 948
112 444 937
113 950 129
114 866 18
115 915 849
116 119 279
117 319 332
118 832 902
119 421 365
120 963 71
121 443 54
122 509 966
123 70 520
124 311 207
125 648 127
126 371 345
127 154 221
128 475 537
129 322 738
130 118 284
131 297 415
132 752 797
133 394 589
134 482 59
135 171 716
136 610 528
137 405 568
138 638 940
139 940 914
140 4 886
141 215 994
142 294 675
143 121 701
144 14 530
145 383 815
146 424 566
147 358 11
148 902 869
149 567 535
150 424 613
151 820 574
152 125 213
153 605 589
154 844 145
155 978 462
156 503 582
157 673 603
158 643 721
159 831 659
160 137 502
161 939 228
162 999 456
163 722 196
164 390 650
165 288 304
166 895 896
167 514 985
168 32 202
169 400 947
170 398 522
171 889 98
172 226 257
173 858 168
174 343 182
175 511 170
176 699 283
177 954 856
178 183 100
179 208 169
180 923 501
181 170 88
182 153 129
183 917 390
184 799 437
185 91 194
186 860 607
187 159 131
188 925 291
189 705 361
190 863 371
191 232 70
192 24 239
193 369 28
194 803 450
195 897 396
196 983 470
197 917 370
198 969 335
199 680 629
200 175 153
201 207 142
202 221 99
203 290 232
204 834 424
205 990 502
206 960 462
207 633 344
208 110 275
209 907 303
210 865 555
211 169 121
212 816 609
213 895 569
214 348 150
215 298 65
216 470 60
217 978 312
218 645 398
219 279 85
220 827 402
221 180 86
222 871 410
223 919 526
224 615 466
225 713 648
226 268 124
227 821 402
228 887 399
229 794 432
230 159 134
231 29 81
232 2 63
233 881 592
234 864 410
235 881 413
236 329 214
237 950 499
238 880 359
239 159 215
240 555 303
241 813 434
242 656 391
243 879 583
244 887 641
245 76 115
246 891 414
247 813 425
248 234 75
249 350 278
250 192 142
251 118 193
252 171 165
253 807 418
254 807 149
255 955 230
256 238 113
257 912 579
258 868 379
259 987 568
260 297 185
261 711 376
262 171 155
263 130 123
264 799 418
265 861 382
266 971 288
267 918 397
268 791 419
269 210 93
270 417 125
271 818 400
272 856 637
DEMAND_SECTION
2 6
3 9
4 8
5 6
6 4
7 8
8 3
9 4
10 10
11 1
12 9
13 9
14 5
15 10
16 5
17 6
18 9
19 8
20 10
21 8
22 8
23 4
24 8
25 7
26 3
27 5
28 10
29 10
30 8
31 2
32 2
33 8
34 7
35 10
36 9
37 2
38 9
39 10
40 2
41 1
42 6
COVERAGE_SECTION
2 8 225 199 25 43 157 47 48 78 
3 9 270 214 104 59 121 7 174 216 106 
4 9 253 247 264 241 227 268 271 229 184 
5 9 95 14 71 18 143 144 90 123 135 
6 9 102 133 164 142 21 137 93 150 146 
7 9 193 147 215 121 3 99 270 219 104 
8 9 96 42 49 98 109 76 52 75 83 
9 7 169 112 57 122 167 61 84 
10 9 39 33 142 17 135 129 28 90 143 
11 9 152 51 185 13 251 208 116 127 130 
12 9 166 139 118 148 115 54 80 177 65 
13 9 152 251 89 127 239 40 185 11 51 
14 9 5 95 18 71 143 144 90 123 135 
15 9 120 108 38 63 35 113 114 171 36 
16 7 138 87 111 64 61 100 65 
17 9 33 90 10 135 142 39 71 143 18 
18 9 71 90 143 14 95 123 5 17 135 
19 8 228 235 195 222 246 234 258 265 
20 9 186 233 243 272 244 212 213 72 210 
21 9 133 137 146 150 102 170 81 164 92 
22 9 52 76 28 109 84 98 42 101 83 
23 9 149 58 69 44 136 224 128 156 41 
24 6 55 176 85 163 207 29 
25 9 48 199 2 225 157 47 43 158 153 
26 9 168 192 91 185 245 11 251 231 152 
27 8 256 226 202 219 248 191 269 201 
28 9 39 22 129 10 52 98 103 109 145 
29 6 207 242 218 189 261 85 
30 9 249 117 126 165 105 236 203 124 119 
31 9 211 187 230 182 250 200 262 178 201 
32 9 46 56 110 81 170 119 131 105 126 
33 9 17 10 142 90 135 39 6 143 71 
34 8 237 196 206 155 205 97 162 180 
35 9 108 113 120 38 171 15 36 63 173 
36 6 173 154 171 254 113 161 
37 9 198 67 217 188 266 209 88 94 197 
38 9 120 108 35 171 113 63 15 114 36 
39 9 10 135 28 129 17 33 142 52 98 
40 9 239 89 127 66 13 152 51 251 252 
41 9 153 44 149 136 156 70 58 23 157 
42 9 109 76 98 52 96 8 83 22 49 
43 7 78 2 225 47 157 199 72 
44 8 136 149 58 153 23 41 69 224 
45 8 159 272 244 72 186 20 212 233 
46 9 32 81 93 170 60 131 56 110 137 
47 8 157 199 25 2 48 43 78 225 
48 9 25 199 2 225 157 47 158 153 43 
49 9 75 140 96 8 83 42 76 109 98 
50 6 125 163 55 24 254 176 
51 9 11 116 208 152 127 130 89 13 239 
52 9 98 109 42 76 96 22 8 28 83 
53 6 164 92 150 102 77 21 
54 8 80 118 148 65 166 115 132 12 
55 7 24 176 85 163 82 207 50 
56 9 110 119 32 126 73 105 46 131 117 
57 7 112 169 122 9 167 61 64 
58 7 136 44 23 149 69 224 153 
59 9 175 270 79 3 104 216 134 121 214 
60 7 93 46 131 32 81 170 6 
61 7 64 122 138 167 87 111 16 
62 7 231 232 245 91 263 26 182 
63 9 114 38 120 15 171 108 35 113 154 
64 7 87 61 16 138 111 122 167 
65 8 132 54 86 118 80 148 16 166 
66 9 252 40 239 262 89 200 179 127 13 
67 9 198 88 94 37 217 197 266 183 267 
68 9 99 216 134 121 104 193 7 147 270 
69 7 224 58 23 149 136 44 218 
70 6 41 77 153 158 48 156 
71 9 143 90 18 135 95 14 5 17 33 
72 8 212 151 159 186 272 20 233 243 
73 8 119 107 56 110 126 240 105 30 
74 3 209 188 37 
75 9 49 83 96 8 42 76 140 101 109 
76 9 42 109 52 98 96 83 8 22 101 
77 9 92 156 150 53 128 146 21 70 137 
78 4 43 47 157 2 
79 8 175 59 82 107 240 270 3 104 
80 9 54 148 115 166 118 177 65 12 139 
81 9 170 137 93 146 46 21 133 32 128 
82 8 240 79 85 55 175 24 207 107 
83 9 75 96 76 101 42 109 49 52 98 
84 9 141 101 22 83 76 109 42 52 169 
85 7 207 24 55 176 29 82 240 
86 8 132 65 45 159 225 158 2 54 
87 7 64 16 61 138 100 111 122 
88 7 67 94 198 37 217 197 266 
89 9 127 239 40 13 152 66 51 251 252 
90 9 71 143 135 18 17 33 10 39 95 
91 8 245 185 251 26 263 168 13 152 
92 8 77 150 53 164 21 156 146 133 
93 9 81 46 60 170 137 6 133 21 146 
94 7 67 88 198 197 183 267 37 
95 9 5 14 71 18 143 90 144 135 123 
96 9 42 8 76 109 83 49 98 75 52 
97 5 206 180 34 237 155 
98 9 52 109 42 76 96 8 22 83 28 
99 9 68 121 216 134 104 193 147 7 3 
100 5 87 64 16 158 70 
101 9 141 83 84 76 75 22 42 109 96 
102 9 164 6 133 150 21 137 53 146 92 
103 5 145 129 28 53 142 
104 9 216 121 134 68 270 3 99 59 7 
105 9 126 117 30 131 119 165 249 56 32 
106 9 214 260 174 226 124 236 219 27 256 
107 8 73 119 79 240 126 30 249 82 
108 9 120 35 38 113 15 171 63 36 114 
109 9 42 76 52 98 96 8 83 22 28 
110 9 56 32 119 73 46 126 170 81 128 
111 8 138 16 61 64 87 167 122 100 
112 7 57 169 9 122 167 61 145 
113 9 35 108 120 38 171 36 161 173 255 
114 9 63 171 38 120 15 108 154 35 113 
115 8 148 177 166 80 139 54 118 12 
116 6 130 208 51 11 152 127 
117 7 105 165 30 126 249 131 203 
118 9 54 166 80 12 148 65 115 139 177 
119 9 56 73 126 110 105 32 107 30 117 
120 9 108 38 35 113 15 171 63 114 36 
121 9 104 216 134 68 99 270 7 3 193 
122 7 167 61 57 112 64 9 87 
123 4 144 160 18 14 
124 8 236 260 203 174 106 214 249 30 
125 7 50 163 55 24 82 175 79 
126 9 105 117 119 30 56 249 73 165 32 
127 9 89 239 40 13 152 51 66 251 11 
128 9 156 146 137 170 77 21 23 81 149 
129 8 103 142 10 28 39 145 164 102 
130 6 116 208 51 11 152 127 
131 7 60 105 46 117 32 126 165 
132 8 65 86 54 80 118 158 45 16 
133 9 21 137 146 150 102 164 6 170 81 
134 9 216 104 68 121 99 270 3 59 175 
135 9 90 143 39 10 71 17 33 98 18 
136 7 44 58 149 23 153 224 69 
137 9 21 146 133 170 150 81 102 128 93 
138 8 111 16 64 61 87 122 167 100 
139 8 166 12 148 177 115 80 118 54 
140 9 49 75 8 96 83 42 76 109 98 
141 9 84 101 83 22 76 75 42 109 96 
142 9 10 33 129 6 17 102 39 164 28 
143 9 71 90 135 18 95 17 14 5 39 
144 6 123 14 160 18 5 95 
145 4 103 129 28 57 
146 9 137 21 133 150 170 81 128 92 77 
147 7 193 7 215 99 121 219 68 
148 8 115 166 80 177 139 54 118 12 
149 9 44 23 58 136 41 153 69 156 224 
150 9 21 133 92 146 137 164 53 102 77 
151 7 212 72 210 186 20 243 233 
152 9 13 251 89 127 11 239 51 40 185 
153 9 41 44 136 149 157 47 58 199 48 
154 5 173 36 254 171 113 
155 8 196 206 162 34 205 237 97 180 
156 9 77 128 92 41 149 146 150 23 21 
157 9 47 199 25 2 48 225 43 78 153 
158 9 48 25 70 199 225 2 100 157 86 
159 9 45 272 72 212 244 186 20 233 151 
160 4 123 18 144 60 
161 6 255 188 266 74 209 36 
162 7 196 155 206 34 205 237 97 
163 6 50 55 24 176 254 125 
164 8 102 53 150 133 6 21 92 137 
165 8 117 30 249 203 105 172 126 236 
166 9 148 139 12 115 80 118 177 54 65 
167 8 122 61 112 57 64 9 169 87 
168 9 26 192 185 91 11 251 152 245 13 
169 7 112 9 57 122 167 145 84 
170 9 81 137 146 21 93 46 133 128 32 
171 9 38 154 36 113 35 173 120 114 108 
172 5 203 40 165 239 127 
173 4 36 154 254 171 
174 9 214 236 124 106 260 203 3 270 226 
175 9 79 59 82 270 104 134 3 216 107 
176 4 24 55 85 189 
177 7 115 148 139 166 80 12 54 
178 8 221 181 211 269 31 202 187 182 
179 8 201 250 200 252 66 262 31 230 
180 5 223 237 97 34 206 
181 7 221 178 211 31 269 182 187 
182 9 187 230 211 31 263 262 200 252 250 
183 8 267 197 195 228 246 19 235 94 
184 8 229 194 241 247 264 268 253 4 
185 9 251 11 152 13 91 168 89 51 26 
186 9 20 233 272 243 244 212 72 151 210 
187 9 230 182 31 211 200 262 263 250 252 
188 6 209 74 37 266 217 198 
189 3 261 29 242 
190 4 258 265 238 19 
191 5 248 202 269 256 27 
192 9 168 26 11 185 208 91 116 130 152 
193 8 147 7 99 121 215 3 68 104 
194 7 184 241 229 247 4 253 264 
195 9 228 19 246 183 267 235 222 197 258 
196 8 155 162 34 206 205 237 97 180 
197 7 183 267 195 238 228 19 94 
198 9 67 37 217 88 94 266 188 197 209 
199 9 25 2 157 48 47 225 43 78 153 
200 9 262 252 250 230 31 187 182 211 201 
201 9 250 179 200 31 262 256 211 252 202 
202 8 269 256 248 191 27 178 221 201 
203 8 124 236 260 172 165 174 249 30 
204 4 247 220 241 4 
205 9 34 196 237 155 162 206 259 180 97 
206 7 155 34 196 97 237 162 205 
207 8 29 85 242 218 189 261 240 176 
208 7 116 130 51 11 152 127 13 
209 4 74 188 37 238 
210 7 243 213 233 151 20 186 257 
211 9 31 187 230 182 178 250 181 200 262 
212 8 72 151 186 20 272 159 233 243 
213 7 257 243 233 210 223 20 186 
214 9 174 106 260 3 236 124 270 226 219 
215 6 219 248 27 191 226 7 
216 9 134 104 121 68 99 270 3 59 7 
217 9 198 266 37 67 88 188 94 209 74 
218 6 242 29 207 189 261 224 
219 7 215 27 226 248 191 256 202 
220 3 227 271 4 
221 7 181 178 269 211 31 202 187 
222 5 234 235 19 228 246 
223 6 180 237 213 257 210 34 
224 6 69 58 136 23 218 44 
225 8 2 199 25 48 43 157 47 78 
226 9 27 256 219 106 202 248 201 191 215 
227 4 271 220 4 253 
228 9 19 195 235 246 222 234 258 183 265 
229 8 184 268 264 241 253 194 247 4 
230 9 187 182 31 211 262 200 263 252 250 
231 7 62 232 245 91 26 263 168 
232 7 231 62 245 91 26 263 168 
233 9 243 20 186 213 257 210 244 272 151 
234 4 222 235 19 228 
235 6 222 246 19 228 234 195 
236 9 124 174 203 260 106 214 249 30 165 
237 8 34 180 206 205 223 97 196 155 
238 5 190 258 265 197 19 
239 9 40 89 127 13 66 152 51 251 252 
240 8 82 85 207 107 73 79 29 55 
241 8 247 184 4 253 194 229 264 204 
242 5 218 29 207 189 261 
243 9 233 213 20 186 210 257 244 272 151 
244 8 272 20 186 233 45 159 243 257 
245 8 91 263 231 62 182 185 26 187 
246 6 235 228 19 195 222 234 
247 9 4 241 253 264 184 229 204 268 227 
248 6 191 202 269 256 27 219 
249 9 30 117 165 236 126 203 105 124 174 
250 9 201 200 31 262 179 211 252 230 187 
251 9 13 152 185 89 11 127 239 40 51 
252 9 262 200 66 250 230 187 179 31 182 
253 9 4 264 247 268 241 229 184 227 271 
254 6 154 173 36 163 171 50 
255 7 161 266 188 217 74 209 37 
256 8 27 202 226 269 248 201 191 219 
257 7 213 243 233 210 223 20 186 
258 7 265 190 238 19 228 222 234 
259 6 205 257 237 223 34 213 
260 8 124 106 236 174 203 214 226 27 
261 3 189 29 242 
262 9 200 252 230 250 187 31 182 66 211 
263 8 182 187 230 211 31 262 181 200 
264 7 253 268 4 229 247 184 241 
265 6 258 190 19 234 222 238 
266 9 217 37 188 198 255 67 209 161 74 
267 7 183 195 197 228 246 19 235 
268 5 264 229 253 4 184 
269 8 202 178 248 221 191 256 181 27 
270 9 3 59 104 214 121 216 7 134 174 
271 4 227 220 4 253 
272 9 186 20 244 159 45 212 72 233 243 
DEPOT_SECTION
   1
   -1
EOF
