NAME :  X-n469-kX-w46-c7.cctp
COMMENT : 	Adapted by Maziero, Usberti and Cavellucci from the Uchoa, Pecin, Pessoa, Poggi, Subramanian, and Vidal (2013)
TYPE :  CCTP
DIMENSION :    280
EDGE_WEIGHT_TYPE : 	EUC_2D	
CAPACITY : 	256
VERTICES_WITHIN_COVERAGE :  7
VERTICES_WITH_DEMAND : 	46
NODE_COORD_SECTION
1 0 0
2 363 697
3 120 259
4 555 718
5 522 918
6 239 935
7 304 517
8 856 96
9 38 904
10 174 951
11 294 935
12 942 324
13 402 176
14 766 450
15 473 862
16 262 550
17 661 92
18 440 655
19 678 291
20 345 691
21 564 903
22 952 802
23 698 352
24 297 930
25 66 244
26 882 642
27 777 818
28 302 212
29 824 647
30 143 946
31 108 600
32 121 755
33 697 32
34 473 995
35 342 252
36 596 534
37 248 211
38 940 88
39 81 468
40 144 796
41 244 385
42 437 42
43 381 583
44 263 549
45 153 646
46 187 688
47 248 71
48 244 370
49 105 251
50 102 734
51 107 489
52 921 579
53 681 336
54 46 832
55 117 590
56 181 252
57 172 696
58 211 597
59 82 390
60 404 544
61 101 663
62 923 842
63 464 148
64 377 32
65 933 156
66 987 678
67 995 62
68 241 242
69 137 970
70 11 959
71 307 897
72 827 725
73 284 562
74 214 719
75 749 863
76 743 494
77 664 268
78 232 420
79 360 726
80 308 95
81 970 326
82 91 795
83 729 479
84 321 298
85 914 830
86 201 805
87 299 90
88 327 474
89 400 714
90 217 110
91 447 82
92 329 479
93 607 144
94 228 986
95 98 291
96 56 919
97 302 929
98 998 71
99 283 534
100 562 828
101 250 170
102 921 325
103 802 102
104 112 530
105 371 252
106 205 379
107 304 45
108 684 368
109 715 476
110 970 23
111 944 627
112 218 717
113 426 876
114 232 735
115 446 846
116 483 747
117 522 830
118 732 386
119 292 154
120 265 524
121 216 492
122 798 670
123 125 229
124 231 26
125 207 149
126 306 573
127 496 745
128 379 21
129 395 564
130 71 215
131 505 662
132 547 517
133 668 216
134 11 995
135 42 480
136 154 936
137 65 939
138 472 601
139 462 825
140 842 664
141 879 336
142 896 105
143 319 671
144 527 45
145 552 530
146 41 364
147 835 5
148 400 676
149 910 716
150 267 601
151 429 646
152 333 945
153 185 385
154 407 737
155 731 485
156 255 405
157 28 973
158 931 120
159 719 109
160 321 722
161 851 158
162 87 931
163 189 530
164 546 526
165 373 661
166 749 318
167 51 714
168 982 61
169 208 60
170 768 48
171 379 291
172 35 544
173 237 188
174 215 559
175 5 888
176 566 749
177 986 603
178 984 786
179 292 117
180 354 700
181 938 85
182 336 879
183 688 35
184 852 648
185 387 973
186 245 29
187 941 0
188 373 2
189 65 214
190 196 652
191 14 925
192 228 390
193 174 699
194 942 386
195 818 828
196 367 227
197 656 29
198 869 658
199 806 501
200 938 250
201 915 807
202 804 516
203 758 47
204 337 182
205 614 577
206 672 232
207 752 777
208 389 177
209 447 934
210 90 431
211 383 589
212 842 158
213 921 685
214 377 764
215 508 619
216 285 973
217 793 876
218 430 40
219 325 314
220 252 411
221 14 857
222 675 367
223 288 222
224 723 124
225 57 912
226 709 425
227 316 507
228 340 704
229 535 963
230 219 654
231 403 121
232 206 923
233 934 353
234 116 502
235 634 559
236 262 403
237 879 100
238 235 349
239 231 102
240 378 569
241 399 48
242 56 351
243 259 247
244 5 250
245 892 26
246 922 302
247 61 608
248 416 712
249 550 552
250 930 830
251 469 221
252 390 966
253 652 334
254 74 677
255 838 136
256 839 121
257 680 257
258 399 40
259 321 632
260 263 860
261 37 293
262 856 674
263 704 344
264 226 532
265 708 89
266 656 510
267 226 427
268 217 363
269 312 489
270 321 270
271 811 711
272 27 480
273 696 12
274 609 673
275 924 31
276 144 331
277 28 857
278 16 859
279 522 645
280 873 593
DEMAND_SECTION
2 83
3 73
4 100
5 88
6 90
7 71
8 62
9 95
10 56
11 75
12 51
13 86
14 62
15 74
16 65
17 77
18 58
19 98
20 81
21 86
22 75
23 74
24 77
25 80
26 57
27 54
28 67
29 74
30 94
31 99
32 90
33 54
34 72
35 70
36 69
37 100
38 93
39 97
40 85
41 79
42 93
43 97
44 100
45 51
46 84
47 59
COVERAGE_SECTION
2 7 180 20 228 79 165 89 148 
3 6 49 123 95 25 56 130 
4 6 176 127 274 131 116 279 
5 7 21 229 15 209 117 34 100 
6 7 232 94 11 24 216 97 10 
7 7 227 99 269 120 92 73 88 
8 7 237 256 142 255 103 161 212 
9 7 225 96 191 175 137 277 278 
10 6 136 30 69 232 94 6 
11 7 24 97 216 71 152 6 182 
12 6 102 81 233 246 194 141 
13 7 208 231 196 204 63 251 105 
14 7 83 155 76 109 226 199 118 
15 6 115 139 113 117 5 209 
16 7 44 73 99 120 264 174 126 
17 7 265 159 183 197 33 224 93 
18 7 151 148 248 138 131 165 89 
19 7 77 257 53 253 206 263 23 
20 7 180 228 2 143 79 160 165 
21 5 5 229 100 117 15 
22 5 178 250 201 85 62 
23 7 263 108 53 222 118 253 166 
24 7 97 11 71 152 216 6 182 
25 5 130 189 49 3 95 
26 7 198 184 262 140 280 29 213 
27 4 195 207 75 217 
28 7 223 204 37 243 35 119 270 
29 7 140 184 122 262 198 26 271 
30 5 136 69 10 162 232 
31 6 55 247 61 45 104 254 
32 7 50 40 82 193 57 167 254 
33 6 183 273 197 265 203 17 
34 6 209 229 252 185 5 113 
35 7 270 105 196 84 171 28 223 
36 6 145 235 205 249 164 132 
37 7 173 68 243 101 223 28 119 
38 7 181 158 142 168 275 98 67 
39 7 51 210 135 234 272 104 59 
40 3 32 82 86 
41 7 48 192 156 236 220 268 78 
42 7 218 241 258 91 64 128 188 
43 5 211 240 129 60 126 
44 7 16 73 99 120 264 126 174 
45 7 190 57 46 61 193 31 230 
46 7 57 193 190 74 112 230 45 
47 7 239 169 186 124 90 87 107 
48 7 41 238 192 268 156 236 106 
49 6 3 123 25 95 130 189 
50 7 32 167 82 254 61 40 57 
51 6 234 39 104 210 135 272 
52 4 280 111 177 26 
53 7 23 263 253 108 222 19 77 
54 6 277 278 221 82 175 9 
55 6 31 247 104 45 61 234 
56 7 3 68 123 49 243 37 173 
57 7 193 46 74 190 112 45 230 
58 7 174 150 190 230 264 16 44 
59 6 210 242 146 39 276 135 
60 4 129 240 43 211 
61 7 254 45 31 247 50 167 55 
62 4 250 85 201 22 
63 5 231 13 91 251 208 
64 6 128 258 241 188 218 42 
65 3 158 142 38 
66 6 213 111 177 149 178 26 
67 7 98 168 110 38 181 275 187 
68 6 243 37 223 173 56 28 
69 6 30 136 10 162 137 232 
70 7 157 191 134 137 96 9 225 
71 6 97 24 182 11 152 260 
72 5 271 262 122 140 29 
73 7 16 44 126 99 120 150 7 
74 5 112 114 46 193 57 
75 4 217 27 195 207 
76 6 155 83 109 14 199 202 
77 5 257 19 206 133 253 
78 6 267 220 156 192 236 41 
79 7 180 2 228 20 160 89 214 
80 5 87 179 107 119 47 
81 6 12 233 102 246 194 200 
82 4 32 40 54 50 
83 6 155 109 76 14 226 266 
84 5 219 270 35 171 105 
85 4 62 250 201 22 
86 2 40 114 
87 5 80 179 107 47 119 
88 4 92 269 227 7 
89 7 248 154 148 2 79 180 214 
90 6 239 125 47 169 101 179 
91 6 42 218 231 241 258 63 
92 4 88 269 227 7 
93 1 17 
94 7 6 216 10 232 11 24 136 
95 7 3 49 25 261 276 123 242 
96 6 225 137 9 162 191 70 
97 7 24 11 71 152 216 182 6 
98 7 67 168 110 38 181 158 275 
99 7 120 44 16 7 73 227 126 
100 3 117 21 176 
101 7 173 37 119 125 223 28 90 
102 5 12 246 233 141 81 
103 3 256 255 8 
104 6 234 51 55 39 31 163 
105 7 196 35 171 270 84 208 219 
106 5 268 153 192 41 48 
107 5 87 80 186 47 179 
108 6 222 23 263 53 253 118 
109 5 83 155 76 226 14 
110 7 187 168 67 275 98 181 38 
111 7 177 52 213 26 66 280 198 
112 5 74 114 46 193 57 
113 4 115 15 139 209 
114 3 112 74 46 
115 4 139 15 113 117 
116 5 127 248 154 4 139 
117 4 100 15 139 115 
118 5 226 23 263 108 222 
119 7 179 101 204 28 80 87 173 
120 7 99 44 16 7 264 73 227 
121 6 264 163 120 267 174 16 
122 7 29 271 140 184 262 72 198 
123 5 3 49 130 25 56 
124 4 186 169 47 107 
125 6 90 101 173 239 37 119 
126 7 73 99 150 44 16 7 259 
127 5 116 4 176 131 139 
128 6 64 188 258 241 218 42 
129 4 240 60 43 211 
130 2 189 25 
131 6 279 215 18 138 4 151 
132 4 164 145 249 36 
133 4 206 257 77 19 
134 7 157 70 191 137 96 9 225 
135 7 272 39 172 51 210 234 104 
136 4 30 10 69 232 
137 6 96 162 225 9 157 191 
138 4 215 151 18 279 
139 5 115 15 117 113 116 
140 7 262 184 29 198 122 26 271 
141 4 102 246 233 12 
142 7 237 158 8 38 181 256 65 
143 5 20 228 259 180 2 
144 3 91 42 218 
145 5 164 132 249 36 205 
146 7 242 59 261 210 95 276 39 
147 5 245 170 203 8 275 
148 7 165 89 248 151 2 18 180 
149 5 213 262 198 26 72 
150 5 73 126 16 44 58 
151 7 18 148 165 138 248 211 89 
152 7 97 24 11 71 216 185 252 
153 4 106 268 192 41 
154 7 89 248 214 79 2 148 180 
155 6 83 76 109 14 226 199 
156 7 220 236 41 78 192 267 48 
157 7 70 134 137 191 96 225 9 
158 5 38 65 181 142 237 
159 4 224 265 17 203 
160 5 228 20 79 180 2 
161 5 212 255 256 8 237 
162 5 137 96 225 9 30 
163 6 264 174 121 58 16 44 
164 4 145 132 249 36 
165 7 148 2 20 180 228 143 151 
166 2 263 23 
167 6 254 50 61 32 82 247 
168 7 67 98 110 38 181 275 187 
169 4 47 124 186 239 
170 3 203 103 33 
171 5 105 35 84 219 270 
172 7 135 272 247 104 39 51 234 
173 7 101 37 125 68 223 243 119 
174 6 264 58 163 16 44 120 
175 7 278 221 9 191 277 225 96 
176 4 4 127 100 116 
177 6 111 52 66 213 26 280 
178 6 22 250 201 62 85 149 
179 6 80 87 119 239 47 101 
180 7 2 20 228 79 160 165 143 
181 7 38 158 142 168 275 67 237 
182 4 71 97 24 152 
183 6 33 273 197 265 17 203 
184 7 140 198 262 29 26 122 280 
185 6 252 152 209 34 97 11 
186 5 124 47 169 107 239 
187 7 275 110 245 168 67 181 38 
188 6 128 64 258 241 218 42 
189 2 130 25 
190 6 230 46 45 57 193 58 
191 7 9 70 175 96 225 157 137 
192 7 41 106 48 268 78 156 220 
193 7 57 46 74 112 190 45 230 
194 2 233 12 
195 2 27 217 
196 7 105 35 204 208 13 270 171 
197 6 183 33 273 17 265 159 
198 7 184 26 262 140 29 213 280 
199 4 202 76 14 155 
200 2 246 12 
201 4 85 250 62 22 
202 4 199 76 14 155 
203 3 170 33 265 
204 7 28 208 119 196 223 13 35 
205 2 235 36 
206 4 133 257 77 19 
207 4 27 195 75 271 
208 7 13 204 196 231 105 63 35 
209 6 113 252 34 185 5 15 
210 7 39 59 51 135 234 272 146 
211 6 43 240 129 60 151 165 
212 5 161 255 256 8 103 
213 6 149 26 198 111 66 262 
214 6 154 79 89 248 2 180 
215 4 279 138 131 18 
216 7 11 24 97 152 94 6 71 
217 3 75 195 27 
218 7 42 258 241 91 64 128 188 
219 4 84 270 171 35 
220 7 156 236 78 41 267 192 48 
221 6 278 277 175 54 9 191 
222 5 108 23 53 263 253 
223 6 28 243 37 68 270 173 
224 3 159 265 17 
225 6 96 9 137 162 191 175 
226 5 118 109 83 14 108 
227 5 7 269 92 88 99 
228 6 20 180 2 160 79 143 
229 7 5 21 34 209 15 117 100 
230 2 190 46 
231 6 13 208 91 63 241 258 
232 4 6 10 136 30 
233 5 12 102 194 81 246 
234 6 51 104 39 210 135 163 
235 3 205 36 266 
236 7 156 220 41 78 192 48 267 
237 7 142 8 256 255 158 181 38 
238 7 48 268 41 106 192 156 236 
239 6 90 47 169 125 179 87 
240 5 43 129 211 60 126 
241 6 258 64 218 128 42 188 
242 7 146 59 261 95 210 276 25 
243 6 68 37 223 28 173 270 
244 3 261 25 189 
245 7 275 187 147 181 237 38 110 
246 5 102 12 233 81 200 
247 7 31 55 61 172 254 104 45 
248 7 89 154 148 2 79 18 180 
249 5 145 164 132 36 205 
250 4 62 85 201 22 
251 3 63 13 208 
252 6 185 152 209 34 97 113 
253 6 53 222 108 23 19 263 
254 7 61 167 50 247 31 45 32 
255 6 256 212 161 8 103 237 
256 6 255 8 212 161 103 237 
257 5 77 206 19 133 53 
258 6 241 64 128 218 42 188 
259 5 143 165 126 150 20 
260 4 71 182 24 6 
261 6 244 25 95 242 146 49 
262 7 140 198 184 26 29 122 271 
263 7 23 53 108 222 118 166 253 
264 7 174 163 16 120 44 121 99 
265 5 159 224 17 33 183 
266 3 235 36 109 
267 6 78 220 156 192 236 41 
268 6 106 238 48 192 41 153 
269 5 227 92 88 7 99 
270 5 35 84 219 105 223 
271 6 72 122 140 262 29 184 
272 7 135 39 172 210 51 234 104 
273 6 33 183 197 203 265 170 
274 1 4 
275 7 245 187 110 181 38 168 67 
276 5 95 153 3 106 268 
277 6 278 221 54 175 9 225 
278 6 221 277 175 54 9 191 
279 5 131 215 138 4 18 
280 5 26 52 184 198 29 
DEPOT_SECTION
   1
   -1
EOF
