NAME :  X-n449-kX-w179-c9.cctp
COMMENT : 	Adapted by Maziero, Usberti and Cavellucci from the Uchoa, Pecin, Pessoa, Poggi, Subramanian, and Vidal (2013)
TYPE :  CCTP
DIMENSION :    449
EDGE_WEIGHT_TYPE : 	EUC_2D	
CAPACITY : 	777
VERTICES_WITHIN_COVERAGE :  9
VERTICES_WITH_DEMAND : 	179
NODE_COORD_SECTION
1 0 0
2 300 71
3 434 4
4 257 798
5 718 17
6 879 206
7 929 330
8 353 793
9 389 540
10 202 55
11 417 253
12 921 572
13 94 788
14 870 327
15 281 124
16 411 288
17 882 116
18 307 240
19 359 935
20 352 858
21 502 776
22 269 33
23 440 814
24 850 461
25 909 404
26 339 458
27 767 535
28 86 47
29 758 532
30 426 282
31 534 10
32 826 830
33 911 79
34 270 791
35 391 794
36 908 787
37 929 858
38 938 281
39 941 579
40 752 162
41 579 68
42 323 570
43 238 700
44 853 970
45 329 805
46 651 486
47 291 631
48 286 481
49 855 547
50 972 378
51 561 490
52 205 741
53 528 672
54 664 605
55 462 532
56 340 54
57 929 941
58 936 46
59 864 654
60 501 495
61 339 10
62 324 595
63 585 893
64 73 401
65 244 926
66 190 659
67 900 929
68 525 878
69 832 622
70 228 662
71 36 578
72 897 292
73 492 426
74 958 546
75 674 303
76 312 781
77 320 557
78 226 264
79 446 702
80 470 746
81 613 620
82 710 289
83 439 15
84 148 352
85 371 115
86 414 108
87 693 626
88 703 31
89 798 932
90 170 723
91 700 554
92 569 984
93 801 849
94 139 150
95 907 964
96 757 670
97 490 37
98 311 927
99 210 657
100 357 320
101 677 558
102 1 599
103 464 579
104 39 430
105 379 863
106 355 233
107 974 313
108 551 258
109 315 294
110 846 911
111 997 585
112 214 331
113 407 584
114 775 225
115 244 761
116 433 941
117 281 357
118 771 792
119 381 345
120 188 643
121 766 627
122 292 735
123 526 487
124 540 762
125 392 298
126 124 199
127 748 473
128 123 885
129 896 666
130 882 844
131 572 231
132 656 366
133 715 918
134 505 341
135 475 831
136 430 827
137 489 629
138 765 883
139 388 981
140 817 650
141 565 267
142 759 674
143 192 532
144 767 488
145 488 690
146 414 436
147 226 976
148 308 756
149 509 647
150 985 906
151 778 941
152 45 137
153 81 276
154 552 334
155 591 702
156 664 79
157 363 607
158 529 992
159 361 670
160 425 296
161 714 61
162 152 660
163 236 900
164 670 265
165 194 950
166 991 139
167 320 583
168 317 732
169 73 974
170 437 745
171 166 556
172 362 207
173 319 725
174 216 807
175 284 793
176 380 466
177 104 187
178 879 171
179 635 910
180 23 49
181 304 234
182 304 700
183 132 663
184 525 767
185 997 129
186 200 771
187 145 449
188 191 188
189 965 27
190 602 777
191 994 807
192 912 153
193 192 474
194 373 626
195 452 913
196 650 266
197 367 905
198 707 243
199 247 86
200 951 396
201 381 147
202 622 68
203 559 288
204 435 179
205 829 919
206 467 557
207 521 617
208 302 515
209 507 326
210 418 680
211 720 814
212 831 70
213 917 369
214 981 425
215 695 761
216 876 779
217 760 436
218 485 294
219 439 979
220 373 336
221 445 807
222 594 805
223 898 130
224 833 707
225 582 152
226 795 991
227 469 520
228 847 620
229 482 33
230 906 903
231 507 591
232 582 69
233 663 401
234 570 103
235 816 427
236 286 816
237 344 97
238 763 175
239 153 254
240 784 886
241 947 357
242 283 214
243 732 938
244 979 69
245 596 302
246 263 331
247 716 484
248 349 425
249 622 447
250 658 154
251 722 540
252 457 775
253 55 197
254 755 326
255 321 894
256 438 207
257 132 347
258 666 5
259 539 973
260 508 576
261 790 584
262 835 367
263 350 346
264 460 1
265 168 983
266 531 101
267 187 224
268 166 368
269 113 512
270 351 913
271 432 956
272 75 828
273 671 529
274 724 22
275 921 532
276 717 296
277 593 283
278 402 668
279 444 83
280 195 955
281 833 413
282 969 601
283 243 384
284 695 753
285 46 448
286 334 591
287 516 345
288 979 904
289 94 309
290 237 920
291 910 520
292 886 385
293 539 808
294 746 888
295 26 603
296 836 442
297 147 144
298 754 310
299 923 928
300 324 85
301 387 412
302 484 17
303 605 970
304 427 591
305 933 93
306 990 355
307 536 845
308 296 1000
309 158 562
310 648 685
311 130 810
312 663 619
313 642 583
314 667 885
315 255 761
316 336 521
317 667 810
318 583 849
319 731 736
320 703 45
321 718 288
322 760 984
323 833 412
324 229 296
325 982 954
326 889 715
327 786 610
328 958 642
329 850 134
330 490 982
331 272 789
332 10 217
333 417 46
334 411 740
335 925 548
336 87 425
337 980 299
338 330 462
339 829 128
340 966 431
341 540 389
342 249 633
343 24 912
344 2 667
345 300 206
346 2 256
347 5 919
348 630 330
349 167 531
350 751 349
351 216 314
352 862 885
353 251 533
354 481 446
355 557 899
356 788 560
357 365 273
358 512 96
359 879 619
360 77 850
361 526 204
362 989 364
363 486 57
364 475 14
365 451 667
366 382 331
367 639 940
368 307 581
369 63 396
370 996 593
371 47 631
372 977 840
373 990 13
374 458 762
375 377 639
376 464 348
377 56 534
378 226 964
379 746 109
380 828 428
381 798 863
382 87 343
383 222 330
384 706 670
385 947 294
386 654 559
387 333 230
388 813 426
389 943 15
390 868 284
391 553 878
392 443 317
393 425 603
394 500 710
395 815 983
396 969 727
397 740 523
398 647 40
399 999 394
400 337 308
401 433 635
402 236 999
403 443 604
404 579 476
405 756 686
406 523 320
407 438 242
408 297 913
409 162 816
410 588 258
411 725 582
412 178 67
413 808 54
414 843 80
415 1000 36
416 484 651
417 53 823
418 526 570
419 411 657
420 554 145
421 962 430
422 204 527
423 61 638
424 307 292
425 799 580
426 273 266
427 507 816
428 740 604
429 534 864
430 456 118
431 254 162
432 427 857
433 339 265
434 303 930
435 266 296
436 21 590
437 90 656
438 694 561
439 456 972
440 754 612
441 866 302
442 337 390
443 192 588
444 933 496
445 448 357
446 267 811
447 797 680
448 447 79
449 821 367
DEMAND_SECTION
2 35
3 74
4 5
5 43
6 27
7 97
8 68
9 77
10 78
11 8
12 66
13 15
14 92
15 3
16 90
17 39
18 57
19 29
20 82
21 81
22 4
23 90
24 9
25 95
26 6
27 82
28 66
29 50
30 83
31 48
32 4
33 54
34 45
35 64
36 77
37 96
38 56
39 44
40 25
41 18
42 23
43 74
44 69
45 8
46 9
47 70
48 42
49 25
50 73
51 61
52 41
53 38
54 35
55 97
56 97
57 3
58 62
59 79
60 87
61 52
62 85
63 21
64 50
65 18
66 38
67 30
68 48
69 80
70 19
71 15
72 33
73 28
74 83
75 19
76 58
77 67
78 53
79 78
80 97
81 28
82 61
83 2
84 99
85 21
86 12
87 86
88 64
89 1
90 71
91 38
92 46
93 64
94 79
95 42
96 76
97 71
98 92
99 37
100 20
101 84
102 43
103 26
104 47
105 50
106 36
107 9
108 37
109 81
110 54
111 42
112 7
113 89
114 100
115 17
116 60
117 20
118 66
119 73
120 62
121 30
122 13
123 26
124 46
125 79
126 93
127 28
128 34
129 51
130 85
131 51
132 96
133 1
134 58
135 92
136 18
137 22
138 61
139 10
140 9
141 43
142 39
143 78
144 27
145 49
146 68
147 71
148 27
149 26
150 23
151 73
152 45
153 30
154 65
155 7
156 90
157 85
158 56
159 93
160 78
161 1
162 96
163 37
164 80
165 20
166 90
167 30
168 100
169 86
170 35
171 87
172 76
173 42
174 36
175 2
176 7
177 49
178 42
179 31
180 4
COVERAGE_SECTION
2 9 300 56 22 237 199 15 61 85 10 
3 9 83 264 364 333 302 229 97 363 448 
4 9 34 446 331 175 236 315 115 174 76 
5 9 274 88 320 161 258 398 156 379 413 
6 9 178 192 223 329 390 72 17 339 38 
7 9 241 385 213 107 38 72 14 337 50 
8 9 45 35 76 148 20 175 168 236 105 
9 9 113 316 304 77 42 157 55 393 176 
10 9 412 199 22 2 15 297 94 28 431 
11 9 407 30 16 160 125 256 357 106 392 
12 9 39 335 275 74 291 282 359 49 111 
13 9 311 272 417 360 409 90 128 186 52 
14 9 441 390 72 262 7 292 213 449 38 
15 9 431 199 2 300 237 345 85 242 22 
16 9 30 160 125 11 392 357 366 407 220 
17 9 223 329 33 192 414 339 178 305 212 
18 9 181 387 242 345 433 426 106 424 109 
19 9 270 197 98 139 255 434 408 116 105 
20 9 105 255 197 270 45 8 35 432 19 
21 9 184 124 427 80 252 374 293 135 221 
22 9 2 199 10 56 61 300 15 412 237 
23 9 221 136 135 252 432 35 374 427 170 
24 9 296 380 235 281 388 323 25 291 292 
25 9 292 213 200 421 241 340 50 214 323 
26 9 338 248 176 48 316 301 208 442 146 
27 9 29 397 356 251 144 261 425 411 127 
28 9 180 412 152 297 10 94 177 253 126 
29 9 27 397 251 356 144 127 411 261 91 
30 9 160 16 11 125 392 407 218 357 366 
31 9 302 97 229 364 363 41 264 232 358 
32 9 93 381 130 352 118 240 216 138 110 
33 9 305 58 17 223 414 244 389 192 189 
34 9 331 175 4 446 236 315 115 76 148 
35 9 8 136 23 221 334 45 170 252 105 
36 9 216 130 37 326 396 372 191 32 352 
37 9 130 230 372 288 299 352 36 150 67 
38 9 385 72 337 107 7 390 441 241 14 
39 9 12 335 282 74 275 111 370 328 291 
40 9 238 379 114 339 198 250 329 161 156 
41 9 232 234 202 266 31 358 398 420 225 
42 9 77 167 368 286 62 316 157 208 47 
43 9 70 99 52 115 66 315 122 182 342 
44 9 395 95 205 110 67 226 89 151 57 
45 9 8 76 236 175 148 20 331 34 446 
46 9 273 249 247 386 404 101 91 233 438 
47 9 342 62 368 167 286 42 70 182 157 
48 9 208 338 26 353 316 77 248 193 422 
49 9 291 425 275 356 335 12 228 261 359 
50 9 362 200 306 399 241 214 340 421 213 
51 9 404 123 60 249 418 46 354 73 227 
52 9 186 90 115 43 315 174 4 34 70 
53 9 149 145 394 416 207 137 155 365 231 
54 9 312 313 87 386 101 81 438 91 411 
55 9 227 206 103 60 260 304 9 231 403 
56 9 300 2 237 61 85 22 333 15 86 
57 9 299 67 95 230 325 288 150 44 37 
58 9 389 189 33 305 244 373 415 17 223 
59 9 129 228 359 69 140 224 326 447 327 
60 9 123 227 354 55 51 73 206 418 404 
61 9 56 2 22 300 333 237 3 83 85 
62 9 286 167 368 42 77 157 47 194 375 
63 9 355 391 318 179 429 68 307 367 303 
64 9 369 336 104 285 382 257 187 84 289 
65 9 290 163 378 147 165 408 280 434 98 
66 9 120 99 70 162 183 43 342 90 443 
67 9 299 230 57 95 110 352 44 205 37 
68 9 429 391 307 355 63 318 427 135 293 
69 9 228 140 59 359 327 425 261 121 447 
70 9 99 342 66 43 120 47 162 52 443 
71 9 436 295 102 377 371 423 344 437 269 
72 9 390 441 38 14 7 385 107 213 241 
73 9 354 341 60 123 146 445 376 287 134 
74 9 335 39 275 12 111 291 282 444 370 
75 9 164 82 196 276 321 348 132 198 245 
76 9 148 45 175 331 8 34 236 168 122 
77 9 42 167 368 286 62 316 208 157 9 
78 9 324 426 351 435 267 383 112 239 242 
79 9 365 210 145 170 80 334 394 278 419 
80 9 374 252 170 21 394 79 145 184 334 
81 9 313 312 54 386 310 87 155 101 207 
82 9 321 276 75 198 164 298 254 196 350 
83 9 3 264 364 333 302 229 97 363 448 
84 9 257 268 382 112 289 383 351 64 336 
85 9 237 201 86 300 56 279 333 2 448 
86 9 279 430 85 448 201 333 237 204 363 
87 9 312 54 384 428 411 440 438 313 101 
88 9 320 5 274 161 258 398 156 202 379 
89 9 151 205 240 110 395 138 226 322 243 
90 9 52 186 162 66 183 43 99 120 115 
91 9 438 101 251 273 411 386 397 29 54 
92 9 259 303 158 330 367 355 63 179 391 
93 9 381 32 240 138 118 294 352 205 110 
94 9 297 126 177 188 267 412 152 253 239 
95 9 57 67 299 44 230 325 110 205 352 
96 9 142 405 447 121 384 440 140 327 428 
97 9 229 363 302 364 264 31 83 448 358 
98 9 434 408 255 270 19 197 65 290 308 
99 9 70 66 120 342 43 162 443 90 183 
100 9 220 400 263 366 119 125 357 109 424 
101 9 438 91 386 273 313 251 54 411 312 
102 9 436 295 71 371 344 423 377 437 269 
103 9 206 403 304 260 231 393 55 137 113 
104 9 285 369 64 336 382 377 187 269 257 
105 9 20 197 432 270 136 255 35 8 19 
106 9 387 172 433 357 18 181 345 11 109 
107 9 337 385 306 7 38 241 362 50 72 
108 9 141 203 131 410 277 361 245 406 218 
109 9 424 400 433 100 435 426 357 18 181 
110 9 205 352 89 67 44 230 240 381 151 
111 9 370 282 74 39 328 12 335 275 291 
112 9 383 351 324 246 283 268 435 78 84 
113 9 304 393 403 9 157 194 103 401 375 
114 9 238 40 198 321 298 82 276 254 6 
115 9 315 4 34 331 52 186 175 174 122 
116 9 271 195 219 439 139 330 19 197 432 
117 9 246 283 435 383 442 263 424 109 112 
118 9 211 93 32 319 381 215 284 138 240 
119 9 220 366 263 100 125 400 442 16 160 
120 9 66 99 162 70 443 183 342 43 90 
121 9 440 327 428 96 142 261 140 425 405 
122 9 168 148 173 182 315 76 115 331 175 
123 9 60 51 404 354 227 73 55 418 260 
124 9 184 21 293 427 190 394 222 80 155 
125 9 16 160 366 357 30 100 220 119 11 
126 9 177 94 297 239 188 267 253 153 152 
127 9 144 247 217 397 29 27 251 388 235 
128 9 360 272 311 409 417 165 280 13 169 
129 9 59 326 359 328 228 224 69 140 396 
130 9 352 37 32 36 230 216 110 93 381 
131 9 410 108 141 361 277 203 245 225 196 
132 9 233 348 75 245 249 276 82 350 196 
133 9 243 294 314 138 151 240 367 179 322 
134 9 287 209 406 376 154 218 341 445 392 
135 9 427 221 23 136 432 252 21 307 293 
136 9 23 221 432 135 35 252 105 374 427 
137 9 416 149 207 231 403 365 103 260 401 
138 9 240 294 381 93 89 151 133 243 205 
139 9 219 271 19 116 439 270 197 195 98 
140 9 69 447 228 59 327 121 224 96 142 
141 9 108 203 410 277 131 245 154 406 361 
142 9 96 405 447 121 384 440 140 319 327 
143 9 422 349 171 309 443 193 353 269 187 
144 9 127 397 29 27 247 217 251 356 388 
145 9 394 416 53 79 365 149 80 137 210 
146 9 301 176 248 354 26 73 445 338 442 
147 9 378 402 280 165 65 290 265 308 163 
148 9 76 122 168 173 175 331 34 45 315 
149 9 416 137 53 207 145 231 365 394 260 
150 9 288 325 57 299 372 37 230 67 95 
151 9 89 243 322 226 240 205 395 138 294 
152 9 253 177 332 180 94 28 126 297 346 
153 9 289 382 239 346 253 257 126 177 332 
154 9 406 287 209 203 134 245 341 277 141 
155 9 310 53 190 124 81 394 184 149 222 
156 9 202 398 320 161 88 258 250 5 232 
157 9 194 286 375 62 167 113 42 368 393 
158 9 259 330 92 439 303 219 355 271 116 
159 9 375 278 194 419 210 157 182 173 168 
160 9 30 16 392 125 11 366 407 218 357 
161 9 320 88 274 5 156 379 398 258 202 
162 9 183 66 120 99 437 90 70 443 423 
163 9 290 65 408 165 378 280 434 147 98 
164 9 196 75 198 82 321 276 348 277 410 
165 9 280 378 147 265 290 65 163 402 128 
166 9 185 244 305 192 223 33 415 58 17 
167 9 42 62 368 286 77 157 47 316 194 
168 9 173 122 148 182 76 315 175 8 331 
169 9 343 347 265 128 165 280 360 272 417 
170 9 334 374 80 252 79 221 35 210 23 
171 9 309 349 143 443 422 269 193 353 120 
172 9 106 387 345 433 201 18 181 357 11 
173 9 168 122 182 148 76 159 315 8 175 
174 9 186 4 446 115 409 34 331 315 52 
175 9 331 34 236 446 4 76 315 148 45 
176 9 26 146 338 248 301 316 9 442 208 
177 9 126 253 94 297 152 239 188 267 153 
178 9 6 192 223 329 17 339 305 33 414 
179 9 367 314 63 303 355 133 318 391 92 
180 9 28 152 253 94 297 412 177 332 10 
181 9 18 345 242 387 426 433 106 424 109 
182 9 173 168 122 148 159 43 47 315 76 
183 9 162 437 66 120 90 423 99 371 70 
184 9 124 21 293 427 80 394 374 252 190 
185 9 166 244 305 192 415 33 223 58 189 
186 9 52 174 115 315 90 409 4 34 331 
187 9 193 336 269 268 349 64 143 84 369 
188 9 267 297 94 126 431 239 78 177 242 
189 9 389 373 58 415 244 305 33 185 166 
190 9 222 124 293 317 318 155 184 215 307 
191 9 372 37 396 36 288 150 130 216 230 
192 9 223 178 17 6 305 329 33 166 339 
193 9 187 422 143 349 353 171 269 48 309 
194 9 375 157 159 419 278 286 113 393 62 
195 9 116 271 439 432 219 330 68 135 197 
196 9 164 75 277 198 410 82 245 348 321 
197 9 270 19 105 255 20 98 434 408 116 
198 9 164 82 321 276 196 75 114 298 238 
199 9 15 2 10 22 412 431 300 56 237 
200 9 50 421 340 241 214 25 213 399 362 
201 9 85 86 237 172 204 430 256 300 106 
202 9 398 232 41 156 234 258 320 88 161 
203 9 141 108 277 245 410 154 406 131 209 
204 9 256 201 407 430 86 11 172 85 361 
205 9 110 89 352 44 151 240 381 395 67 
206 9 103 55 227 260 231 304 403 418 393 
207 9 231 149 137 260 418 416 53 103 403 
208 9 316 48 77 353 42 338 368 26 167 
209 9 134 406 287 218 154 376 203 392 445 
210 9 278 419 365 79 401 159 375 334 170 
211 9 317 118 215 284 294 319 138 93 314 
212 9 414 413 339 329 17 33 223 379 305 
213 9 241 292 25 7 200 50 14 362 306 
214 9 340 421 399 200 50 362 306 25 241 
215 9 284 319 317 211 118 310 384 190 405 
216 9 36 130 326 32 224 37 93 118 352 
217 9 127 144 388 235 247 380 296 281 323 
218 9 209 406 392 134 376 30 160 287 407 
219 9 439 271 116 139 330 195 19 158 259 
220 9 366 119 100 263 125 400 16 357 442 
221 9 23 136 252 135 374 432 35 170 427 
222 9 190 318 293 124 307 317 184 391 429 
223 9 17 192 178 329 305 33 339 414 6 
224 9 447 326 140 59 129 405 142 216 69 
225 9 420 234 266 250 361 131 232 41 358 
226 9 395 322 151 89 44 205 243 110 240 
227 9 55 206 60 103 123 260 354 418 231 
228 9 69 359 59 140 327 425 129 261 49 
229 9 97 302 364 363 264 83 3 31 448 
230 9 67 299 57 352 37 95 110 130 288 
231 9 260 418 207 137 103 206 149 416 403 
232 9 41 234 202 266 398 358 31 420 156 
233 9 132 249 348 46 247 75 350 217 127 
234 9 41 232 266 420 225 358 202 363 156 
235 9 388 380 281 323 296 24 217 449 262 
236 9 446 175 34 331 4 45 76 315 148 
237 9 300 85 56 2 201 15 86 61 333 
238 9 40 114 379 339 198 329 250 178 6 
239 9 267 126 78 153 188 289 177 324 351 
240 9 138 381 294 93 89 151 205 110 32 
241 9 7 213 50 200 306 362 107 25 385 
242 9 345 181 18 387 426 431 106 78 433 
243 9 133 151 294 322 138 89 240 226 314 
244 9 415 189 58 305 373 185 389 33 166 
245 9 277 203 348 410 141 154 108 196 131 
246 9 117 435 383 112 324 351 283 424 109 
247 9 127 397 144 251 29 273 46 217 27 
248 9 26 442 301 338 176 146 263 48 119 
249 9 46 404 233 51 132 273 341 247 123 
250 9 156 225 202 40 379 198 234 420 238 
251 9 397 91 438 29 411 27 101 273 247 
252 9 374 80 221 170 23 21 334 135 136 
253 9 332 177 152 126 346 153 94 297 239 
254 9 298 350 276 321 82 449 75 262 198 
255 9 408 98 270 434 197 20 19 105 65 
256 9 204 407 11 30 172 201 16 106 361 
257 9 84 268 382 289 64 112 369 153 336 
258 9 398 88 5 320 274 156 161 202 232 
259 9 158 92 330 303 355 439 63 68 391 
260 9 231 418 207 103 206 137 55 227 149 
261 9 425 356 327 440 121 27 428 69 29 
262 9 449 323 281 14 292 380 235 388 441 
263 9 220 100 119 366 400 442 109 125 424 
264 9 364 83 3 302 229 97 333 363 31 
265 9 280 165 147 378 402 290 65 169 163 
266 9 358 234 420 41 232 363 225 97 430 
267 9 188 239 78 126 324 94 297 177 431 
268 9 84 257 112 383 351 283 382 187 289 
269 9 349 377 309 171 187 143 193 336 422 
270 9 197 19 255 98 434 408 20 105 139 
271 9 116 219 439 195 139 330 19 197 270 
272 9 360 417 13 311 128 409 343 347 186 
273 9 101 386 91 438 46 251 313 247 397 
274 9 5 88 320 161 258 398 156 379 413 
275 9 291 335 444 12 74 39 49 282 111 
276 9 321 82 298 75 254 198 164 350 196 
277 9 245 410 141 203 108 131 196 348 154 
278 9 419 210 375 159 401 365 194 79 393 
279 9 448 430 86 333 363 229 97 83 358 
280 9 165 378 147 265 290 65 402 163 128 
281 9 323 380 235 388 296 262 449 24 292 
282 9 370 111 39 328 12 74 335 275 359 
283 9 117 246 383 112 351 268 324 435 442 
284 9 215 319 317 211 310 384 118 405 190 
285 9 104 336 64 369 377 269 187 382 71 
286 9 62 167 42 368 157 77 194 47 375 
287 9 134 209 406 154 341 376 218 445 203 
288 9 150 325 299 57 372 37 230 67 95 
289 9 153 382 257 84 239 369 268 64 346 
290 9 65 163 378 165 280 147 408 434 98 
291 9 275 335 444 12 74 49 39 24 282 
292 9 25 213 262 323 14 281 200 241 449 
293 9 427 307 184 124 21 222 429 318 135 
294 9 138 240 133 243 381 151 93 89 211 
295 9 436 102 71 371 423 344 377 437 183 
296 9 380 24 235 388 281 323 262 217 292 
297 9 94 126 177 188 412 267 152 10 253 
298 9 254 350 276 321 82 75 198 114 449 
299 9 57 67 230 95 288 325 150 37 352 
300 9 237 2 56 85 15 22 61 199 201 
301 9 146 248 176 442 26 119 263 338 220 
302 9 364 229 97 264 363 83 31 3 448 
303 9 92 367 259 179 158 63 355 314 391 
304 9 393 113 403 103 401 206 9 194 157 
305 9 33 58 223 244 17 192 185 189 166 
306 9 362 50 399 241 107 200 337 7 214 
307 9 429 68 293 391 427 318 355 135 63 
308 9 402 434 147 98 378 408 65 19 139 
309 9 171 349 443 143 422 269 120 193 353 
310 9 155 384 312 81 87 54 284 215 319 
311 9 409 13 272 360 128 417 186 174 90 
312 9 54 87 313 81 386 101 438 384 310 
313 9 386 54 312 101 81 438 273 91 87 
314 9 179 133 367 317 294 63 243 211 318 
315 9 115 331 34 4 175 122 446 148 52 
316 9 208 77 42 9 338 26 48 167 368 
317 9 211 215 284 190 222 314 318 319 179 
318 9 391 63 222 307 429 355 293 68 190 
319 9 284 215 405 142 118 96 384 211 447 
320 9 88 161 274 5 156 258 398 379 202 
321 9 82 276 298 75 198 164 254 350 196 
322 9 226 151 243 395 89 133 44 205 294 
323 9 281 380 235 388 296 262 449 24 292 
324 9 351 78 383 435 112 246 426 424 117 
325 9 150 288 57 299 95 67 230 37 372 
326 9 129 224 216 59 36 396 140 359 447 
327 9 121 261 440 425 428 69 356 140 228 
328 9 282 370 39 129 111 12 359 396 59 
329 9 339 17 178 223 414 192 212 6 33 
330 9 439 158 259 219 271 116 92 195 139 
331 9 34 175 4 446 236 315 115 76 148 
332 9 346 253 152 153 177 126 289 94 239 
333 9 83 3 448 279 86 264 229 364 363 
334 9 170 79 374 35 252 80 210 278 221 
335 9 275 12 291 74 39 444 282 49 111 
336 9 64 369 285 104 187 382 257 269 84 
337 9 107 385 38 306 7 362 241 50 72 
338 9 26 248 48 176 316 208 442 301 146 
339 9 329 414 17 212 178 223 413 238 40 
340 9 421 214 200 399 50 25 362 444 241 
341 9 287 154 134 73 209 406 354 376 404 
342 9 70 47 99 120 66 43 443 368 62 
343 9 347 169 360 417 272 128 13 311 265 
344 9 371 423 102 295 436 437 71 183 377 
345 9 242 181 18 387 106 172 431 426 433 
346 9 332 253 153 289 382 177 152 126 239 
347 9 343 169 360 417 272 128 13 311 265 
348 9 132 245 75 277 196 164 154 233 203 
349 9 143 171 309 422 269 193 443 353 187 
350 9 254 298 276 321 449 82 262 217 75 
351 9 112 383 324 246 78 435 268 283 426 
352 9 110 130 205 230 67 32 381 93 37 
353 9 422 208 143 48 77 368 42 443 193 
354 9 73 60 123 146 227 341 55 51 445 
355 9 391 63 68 429 318 307 259 179 92 
356 9 425 261 27 29 327 397 440 428 411 
357 9 433 125 106 400 16 100 109 387 11 
358 9 266 363 234 430 97 420 448 279 229 
359 9 228 59 69 129 12 140 39 49 328 
360 9 272 417 128 13 311 343 409 347 169 
361 9 131 108 420 141 225 410 256 203 204 
362 9 306 50 399 241 200 107 214 337 7 
363 9 97 229 302 364 448 358 279 264 83 
364 9 302 229 264 97 83 3 363 31 333 
365 9 79 210 401 416 419 145 278 137 149 
366 9 220 119 100 125 263 400 16 160 357 
367 9 179 303 314 63 133 92 355 243 259 
368 9 167 42 62 77 286 47 157 208 316 
369 9 64 336 104 285 382 257 289 84 187 
370 9 111 282 39 74 328 12 335 275 291 
371 9 423 295 436 437 71 102 344 183 377 
372 9 191 37 288 150 36 130 230 299 57 
373 9 415 189 389 244 58 305 33 185 166 
374 9 252 80 170 21 221 334 23 79 184 
375 9 194 157 159 278 419 401 210 393 113 
376 9 445 392 134 209 287 218 160 406 30 
377 9 71 269 436 295 102 285 371 423 104 
378 9 147 280 165 402 65 290 265 163 308 
379 9 40 161 238 320 413 339 156 88 274 
380 9 235 388 281 296 323 24 262 449 217 
381 9 93 240 138 32 294 205 110 352 89 
382 9 289 257 369 64 84 153 336 268 104 
383 9 112 351 324 246 435 283 117 78 268 
384 9 87 96 405 142 310 312 319 121 428 
385 9 38 107 337 7 72 241 306 390 213 
386 9 101 313 273 438 91 54 312 251 46 
387 9 106 18 181 433 172 345 242 357 109 
388 9 235 380 281 323 296 24 217 449 262 
389 9 189 58 373 415 244 33 305 17 414 
390 9 441 72 14 38 7 6 385 262 449 
391 9 355 429 68 63 307 318 293 427 222 
392 9 160 376 30 445 16 218 125 366 209 
393 9 304 403 113 401 103 419 194 375 157 
394 9 145 53 80 79 416 184 149 365 21 
395 9 226 44 89 322 151 205 110 95 243 
396 9 326 191 36 328 129 216 372 282 59 
397 9 29 251 27 144 247 91 127 438 356 
398 9 202 258 156 320 88 161 232 41 5 
399 9 50 362 214 306 200 340 421 241 107 
400 9 100 109 424 263 433 357 220 366 125 
401 9 419 393 403 365 304 278 210 416 137 
402 9 147 378 280 308 165 265 65 290 434 
403 9 393 304 103 401 113 137 206 416 419 
404 9 51 249 123 46 60 341 73 354 273 
405 9 142 96 447 384 319 121 140 440 224 
406 9 209 287 134 154 218 203 376 108 141 
407 9 11 256 30 16 160 204 218 125 392 
408 9 434 98 255 270 65 290 163 19 197 
409 9 311 174 186 13 128 52 272 360 90 
410 9 141 277 131 108 203 245 196 164 361 
411 9 428 438 91 251 440 87 101 29 121 
412 9 10 199 297 94 28 22 15 2 188 
413 9 212 414 339 379 274 329 161 5 17 
414 9 212 413 339 17 329 33 223 305 178 
415 9 373 189 244 389 58 305 185 33 166 
416 9 137 149 365 145 53 207 401 394 403 
417 9 272 360 13 311 128 343 347 409 169 
418 9 260 231 207 206 103 137 55 227 60 
419 9 278 210 401 375 365 194 159 393 79 
420 9 225 234 266 358 361 41 232 131 430 
421 9 340 214 200 399 50 25 362 444 241 
422 9 143 349 353 171 193 309 443 269 48 
423 9 371 437 295 436 71 344 102 183 162 
424 9 109 400 435 433 426 18 100 181 246 
425 9 261 356 327 69 27 440 121 228 29 
426 9 435 18 424 181 78 109 242 324 246 
427 9 293 135 21 307 184 429 124 221 68 
428 9 440 411 121 327 87 261 438 91 425 
429 9 68 307 391 355 318 427 293 63 135 
430 9 279 448 86 358 204 363 266 201 333 
431 9 15 242 345 188 199 181 267 18 2 
432 9 136 23 105 221 135 195 35 20 197 
433 9 357 106 387 109 18 424 400 181 100 
434 9 98 408 255 270 19 65 290 197 308 
435 9 426 246 324 424 109 78 351 383 112 
436 9 295 71 102 371 423 377 344 437 269 
437 9 423 183 371 162 295 344 71 436 120 
438 9 91 101 251 411 273 386 54 313 397 
439 9 219 271 330 116 195 139 158 259 19 
440 9 428 121 327 411 261 425 96 142 356 
441 9 390 14 72 7 262 38 449 385 213 
442 9 248 263 301 119 117 220 26 338 100 
443 9 171 309 120 143 349 422 66 99 342 
444 9 291 275 335 74 421 340 12 39 214 
445 9 376 392 134 160 209 119 287 366 218 
446 9 4 34 236 331 175 174 315 76 115 
447 9 140 142 96 405 224 121 69 327 59 
448 9 279 430 86 333 363 229 97 83 358 
449 9 262 323 281 235 388 380 14 292 350 
DEPOT_SECTION
   1
   -1
EOF
