NAME :  X-n469-kX-w187-c9.cctp
COMMENT : 	Adapted by Maziero, Usberti and Cavellucci from the Uchoa, Pecin, Pessoa, Poggi, Subramanian, and Vidal (2013)
TYPE :  CCTP
DIMENSION :    466
EDGE_WEIGHT_TYPE : 	EUC_2D	
CAPACITY : 	256
VERTICES_WITHIN_COVERAGE :  9
VERTICES_WITH_DEMAND : 	187
NODE_COORD_SECTION
1 0 0
2 363 697
3 120 259
4 555 718
5 522 918
6 239 935
7 304 517
8 856 96
9 38 904
10 174 951
11 294 935
12 942 324
13 402 176
14 766 450
15 473 862
16 262 550
17 661 92
18 440 655
19 678 291
20 345 691
21 564 903
22 952 802
23 698 352
24 297 930
25 66 244
26 882 642
27 777 818
28 302 212
29 824 647
30 143 946
31 108 600
32 121 755
33 697 32
34 473 995
35 342 252
36 596 534
37 248 211
38 940 88
39 81 468
40 144 796
41 244 385
42 437 42
43 381 583
44 263 549
45 153 646
46 187 688
47 248 71
48 27 70
49 649 477
50 244 370
51 145 49
52 589 402
53 105 251
54 986 452
55 486 773
56 679 851
57 102 734
58 619 809
59 139 138
60 107 489
61 921 579
62 681 336
63 925 185
64 260 655
65 46 832
66 534 440
67 117 590
68 604 453
69 667 428
70 871 548
71 943 171
72 181 252
73 172 696
74 211 597
75 82 390
76 114 189
77 659 852
78 404 544
79 169 845
80 101 663
81 422 503
82 124 861
83 289 778
84 923 842
85 464 148
86 377 32
87 482 570
88 933 156
89 987 678
90 995 62
91 241 242
92 565 805
93 898 871
94 137 970
95 11 959
96 834 251
97 307 897
98 796 286
99 693 522
100 827 725
101 27 818
102 284 562
103 136 875
104 214 719
105 75 85
106 749 863
107 648 603
108 743 494
109 169 42
110 664 268
111 485 432
112 736 577
113 232 420
114 329 374
115 360 726
116 598 258
117 890 844
118 374 794
119 937 993
120 308 95
121 970 326
122 257 653
123 333 378
124 928 411
125 4 773
126 764 96
127 620 171
128 91 795
129 729 479
130 507 782
131 321 298
132 516 599
133 581 631
134 429 383
135 914 830
136 495 443
137 201 805
138 299 90
139 327 474
140 400 714
141 936 468
142 217 110
143 447 82
144 180 61
145 329 479
146 109 163
147 607 144
148 864 903
149 633 586
150 228 986
151 98 291
152 56 919
153 302 929
154 658 831
155 664 797
156 442 558
157 492 535
158 808 967
159 998 71
160 283 534
161 562 828
162 918 176
163 250 170
164 921 325
165 577 116
166 555 259
167 523 285
168 272 677
169 802 102
170 112 530
171 371 252
172 335 99
173 205 379
174 315 321
175 304 45
176 684 368
177 962 930
178 715 476
179 281 282
180 970 23
181 944 627
182 188 859
183 218 717
184 426 876
185 232 735
186 446 846
187 483 747
188 360 494
189 608 408
190 522 830
191 396 911
192 661 720
193 279 720
194 732 386
195 292 154
196 265 524
197 912 441
198 216 492
199 798 670
200 125 229
201 438 432
202 799 900
203 231 26
204 207 149
205 306 573
206 496 745
207 379 21
208 395 564
209 632 389
210 167 874
211 71 215
212 505 662
213 547 517
214 668 216
215 11 995
216 872 947
217 42 480
218 933 471
219 605 641
220 154 936
221 65 939
222 472 601
223 462 825
224 842 664
225 14 197
226 879 336
227 896 105
228 751 178
229 242 700
230 319 671
231 422 436
232 527 45
233 552 530
234 41 364
235 261 659
236 143 846
237 705 914
238 869 444
239 835 5
240 400 676
241 910 716
242 706 700
243 267 601
244 429 646
245 333 945
246 889 960
247 185 385
248 591 244
249 407 737
250 731 485
251 956 536
252 255 405
253 969 429
254 28 973
255 854 256
256 349 853
257 931 120
258 719 109
259 321 722
260 851 158
261 87 931
262 943 972
263 628 621
264 189 530
265 311 745
266 546 526
267 373 661
268 749 318
269 51 714
270 575 131
271 982 61
272 364 513
273 835 755
274 780 35
275 208 60
276 827 247
277 768 48
278 115 878
279 637 410
280 379 291
281 35 544
282 237 188
283 176 879
284 215 559
285 399 454
286 5 888
287 566 749
288 986 603
289 699 758
290 984 786
291 873 320
292 292 117
293 354 700
294 938 85
295 992 408
296 190 437
297 861 290
298 336 879
299 146 844
300 688 35
301 293 805
302 852 648
303 387 973
304 245 29
305 805 286
306 861 768
307 94 156
308 279 676
309 126 40
310 941 0
311 475 272
312 656 871
313 67 140
314 373 2
315 65 214
316 196 652
317 14 925
318 645 819
319 228 390
320 174 699
321 433 497
322 942 386
323 656 224
324 818 828
325 367 227
326 656 29
327 869 658
328 806 501
329 938 250
330 881 967
331 714 645
332 772 316
333 844 968
334 915 807
335 804 516
336 866 546
337 758 47
338 337 182
339 940 481
340 356 416
341 614 577
342 952 221
343 672 232
344 752 777
345 389 177
346 874 793
347 447 934
348 63 91
349 194 17
350 90 431
351 164 388
352 383 589
353 842 158
354 921 685
355 676 540
356 377 764
357 347 51
358 508 619
359 285 973
360 793 876
361 430 40
362 325 314
363 252 411
364 955 452
365 14 857
366 675 367
367 288 222
368 266 783
369 723 124
370 186 389
371 57 912
372 709 425
373 386 859
374 316 507
375 677 626
376 340 704
377 535 963
378 851 866
379 219 654
380 799 204
381 906 732
382 403 121
383 206 923
384 799 283
385 934 353
386 917 951
387 116 502
388 634 559
389 262 403
390 159 542
391 879 100
392 676 416
393 235 349
394 231 102
395 378 569
396 876 507
397 399 48
398 56 351
399 950 398
400 259 247
401 5 250
402 892 26
403 884 218
404 433 319
405 507 93
406 819 380
407 922 302
408 81 170
409 61 608
410 247 681
411 761 62
412 467 514
413 27 213
414 416 712
415 550 552
416 930 830
417 469 221
418 894 272
419 390 966
420 388 863
421 652 334
422 74 677
423 838 136
424 839 121
425 545 143
426 680 257
427 399 40
428 856 383
429 321 632
430 263 860
431 37 293
432 92 189
433 856 674
434 704 344
435 668 651
436 780 346
437 226 532
438 708 89
439 656 510
440 226 427
441 217 363
442 312 489
443 324 409
444 321 270
445 811 711
446 380 451
447 445 526
448 27 480
449 696 12
450 102 900
451 747 180
452 890 926
453 764 94
454 501 274
455 409 329
456 529 242
457 609 673
458 924 31
459 566 75
460 144 331
461 28 857
462 546 142
463 803 158
464 16 859
465 522 645
466 873 593
DEMAND_SECTION
2 83
3 73
4 100
5 88
6 90
7 71
8 62
9 95
10 56
11 75
12 51
13 86
14 62
15 74
16 65
17 77
18 58
19 98
20 81
21 86
22 75
23 74
24 77
25 80
26 57
27 54
28 67
29 74
30 94
31 99
32 90
33 54
34 72
35 70
36 69
37 100
38 93
39 97
40 85
41 79
42 93
43 97
44 100
45 51
46 84
47 59
48 60
49 84
50 56
51 97
52 100
53 80
54 89
55 99
56 57
57 72
58 75
59 62
60 64
61 75
62 63
63 71
64 82
65 51
66 55
67 95
68 67
69 90
70 73
71 51
72 83
73 51
74 80
75 76
76 87
77 65
78 71
79 60
80 72
81 54
82 76
83 96
84 79
85 56
86 68
87 88
88 57
89 69
90 95
91 75
92 56
93 54
94 61
95 68
96 60
97 53
98 86
99 93
100 56
101 66
102 58
103 55
104 95
105 93
106 70
107 59
108 75
109 87
110 50
111 97
112 90
113 72
114 67
115 92
116 83
117 72
118 90
119 61
120 67
121 51
122 68
123 90
124 56
125 69
126 65
127 61
128 64
129 95
130 63
131 60
132 52
133 87
134 74
135 79
136 60
137 87
138 64
139 92
140 79
141 72
142 99
143 90
144 51
145 69
146 82
147 79
148 74
149 86
150 81
151 91
152 73
153 53
154 98
155 50
156 81
157 77
158 51
159 71
160 81
161 55
162 91
163 92
164 69
165 58
166 98
167 93
168 68
169 67
170 65
171 67
172 63
173 80
174 92
175 58
176 96
177 78
178 72
179 53
180 68
181 55
182 68
183 94
184 67
185 56
186 83
187 53
188 92
COVERAGE_SECTION
2 9 293 20 376 115 267 140 240 259 230 
3 9 53 200 151 25 72 211 76 315 432 
4 9 287 206 457 212 187 130 465 55 92 
5 9 21 377 15 347 190 34 161 184 186 
6 9 383 150 11 24 359 153 10 97 430 
7 9 374 160 442 196 145 102 139 44 16 
8 9 391 424 227 423 169 260 353 257 402 
9 9 371 152 317 286 221 461 464 365 261 
10 9 220 30 94 383 150 6 283 210 103 
11 9 24 153 359 97 245 6 298 430 150 
12 9 164 121 385 407 322 226 291 418 329 
13 9 345 382 325 338 85 417 171 35 172 
14 9 129 250 108 178 372 328 194 335 406 
15 9 186 223 184 190 5 347 420 130 373 
16 9 44 102 160 196 437 284 205 243 7 
17 9 438 258 300 326 33 369 147 165 449 
18 9 244 240 414 222 212 267 140 358 465 
19 9 110 426 62 421 343 434 23 323 214 
20 9 293 376 2 230 115 259 267 240 140 
21 9 5 377 161 190 312 92 15 77 58 
22 9 290 416 334 135 84 117 346 381 93 
23 9 434 176 62 366 194 421 268 19 392 
24 9 153 11 97 245 359 6 298 430 150 
25 8 211 315 53 413 3 151 431 200 
26 9 327 302 433 224 466 29 354 181 61 
27 9 324 344 106 360 202 273 378 289 306 
28 9 367 338 37 400 35 195 444 163 325 
29 9 224 302 199 433 327 26 445 466 100 
30 9 220 94 10 261 450 383 103 278 283 
31 9 67 409 80 45 170 390 422 281 387 
32 9 57 40 128 320 73 269 422 299 46 
33 9 300 449 326 438 337 17 411 277 258 
34 9 347 377 419 303 5 191 184 21 15 
35 9 444 171 325 131 280 28 367 362 179 
36 9 233 388 341 415 266 213 149 439 49 
37 9 282 91 400 163 367 28 195 204 179 
38 9 294 257 227 271 458 159 90 391 88 
39 9 60 350 217 387 448 170 75 281 390 
40 9 32 299 236 128 79 137 82 57 182 
41 9 50 319 252 389 363 441 113 393 173 
42 9 361 397 427 143 86 207 314 382 405 
43 9 352 395 208 78 156 272 205 429 267 
44 9 16 102 160 196 437 205 284 7 243 
45 9 316 73 46 80 320 31 379 67 74 
46 9 73 320 316 104 183 379 45 229 410 
47 9 394 275 304 203 142 138 175 292 120 
48 7 348 105 313 309 307 408 51 
49 9 439 68 69 99 178 392 279 355 36 
50 9 41 393 319 441 252 389 173 363 113 
51 9 309 109 144 349 275 105 59 203 348 
52 9 189 209 279 68 66 69 392 366 421 
53 9 3 200 25 151 211 315 76 432 72 
54 9 253 364 295 141 339 218 399 124 197 
55 9 130 187 206 223 190 186 287 92 249 
56 9 77 154 312 318 155 237 106 58 289 
57 9 32 269 128 422 80 40 73 320 46 
58 9 318 154 155 92 77 161 312 56 287 
59 9 146 307 76 408 204 432 313 105 142 
60 9 387 39 170 350 217 390 448 281 264 
61 9 466 181 251 70 336 288 26 396 327 
62 9 23 434 421 176 366 19 110 268 194 
63 9 162 71 88 342 403 257 329 260 227 
64 9 122 235 168 308 410 379 229 243 230 
65 9 101 461 464 365 128 286 9 125 371 
66 9 136 111 52 68 213 189 266 233 201 
67 9 31 409 170 390 45 80 387 74 264 
68 9 189 49 52 279 69 209 66 439 36 
69 9 392 279 372 49 209 176 189 366 68 
70 9 336 396 466 61 335 328 251 26 339 
71 9 88 63 162 342 257 403 329 227 38 
72 9 3 91 200 53 400 37 282 460 76 
73 9 320 46 104 316 183 45 379 229 185 
74 9 284 243 316 379 437 16 44 264 122 
75 9 350 398 234 39 351 460 217 151 60 
76 8 432 146 408 307 200 211 315 59 
77 9 312 56 154 318 155 58 237 106 161 
78 9 208 395 156 43 81 447 352 272 321 
79 9 299 182 236 210 283 103 82 137 40 
80 9 422 45 31 409 57 269 67 73 320 
81 9 321 447 78 412 285 156 272 188 208 
82 9 103 278 236 299 210 450 79 283 182 
83 9 368 301 265 193 259 185 118 430 115 
84 9 416 135 117 334 93 22 346 378 290 
85 9 382 13 143 405 417 345 425 462 42 
86 9 207 427 397 314 357 361 42 175 172 
87 9 222 157 156 132 358 447 412 415 266 
88 9 71 162 63 257 227 38 342 294 391 
89 9 354 181 288 241 381 290 26 61 327 
90 9 159 271 180 38 294 458 310 257 227 
91 9 400 37 367 282 179 72 28 163 444 
92 9 161 190 58 287 130 318 55 4 206 
93 9 117 84 135 148 378 416 452 334 216 
94 9 30 220 10 261 221 450 383 150 103 
95 9 254 317 215 221 152 9 371 286 261 
96 9 276 255 305 297 384 98 380 403 418 
97 9 153 24 298 11 245 430 256 6 359 
98 9 384 305 332 276 96 268 436 255 297 
99 9 355 439 178 250 129 108 49 112 388 
100 9 445 273 306 433 199 224 29 327 381 
101 9 65 461 365 464 125 128 286 9 371 
102 9 16 44 205 160 196 243 7 374 437 
103 9 82 278 236 210 299 283 450 79 182 
104 9 183 185 229 46 320 73 410 193 379 
105 9 348 48 313 309 307 51 59 146 408 
106 9 360 27 202 237 56 324 344 77 312 
107 9 149 263 375 341 388 435 219 355 133 
108 9 250 129 178 14 99 328 335 372 355 
109 9 144 51 349 275 309 203 304 142 47 
110 9 426 19 343 323 214 116 421 62 248 
111 9 136 201 66 231 134 321 412 285 81 
112 9 99 355 331 375 108 335 107 250 129 
113 9 440 363 252 319 389 41 296 173 50 
114 9 123 443 340 174 362 389 131 252 50 
115 9 293 2 376 20 259 140 356 249 265 
116 9 248 166 110 323 456 343 167 214 426 
117 9 93 135 84 416 334 378 346 148 324 
118 9 356 256 249 373 115 420 265 301 140 
119 9 262 386 246 330 177 216 452 333 148 
120 9 138 172 292 175 357 195 47 394 304 
121 9 12 385 164 407 322 399 329 295 226 
122 9 64 235 168 410 308 379 229 243 316 
123 9 114 443 340 174 362 389 131 252 363 
124 9 399 322 197 253 364 141 385 218 295 
125 9 101 65 269 365 461 464 128 57 286 
126 9 453 411 169 258 277 337 369 438 274 
127 9 147 270 323 214 165 248 462 343 425 
128 9 32 40 65 57 101 236 82 299 278 
129 9 250 178 108 14 99 372 439 49 69 
130 9 55 206 187 190 92 223 287 161 4 
131 9 362 174 444 179 35 280 171 114 400 
132 9 358 222 87 465 415 212 157 133 233 
133 9 219 263 457 465 341 149 132 107 358 
134 9 201 231 455 404 111 285 340 446 136 
135 9 84 416 334 117 93 22 346 378 306 
136 9 111 66 201 231 412 321 134 213 157 
137 9 79 182 40 299 368 236 185 210 283 
138 9 120 292 172 175 47 357 195 394 304 
139 9 145 442 374 188 7 272 446 340 443 
140 9 414 249 240 2 115 293 356 267 20 
141 9 218 339 364 197 253 54 124 238 251 
142 9 394 204 47 275 144 163 292 282 59 
143 9 42 361 382 397 405 427 85 86 232 
144 9 109 275 51 349 309 142 203 394 47 
145 9 139 442 374 188 7 272 446 340 443 
146 8 307 76 408 432 59 313 211 315 
147 9 127 270 165 462 425 17 459 214 323 
148 9 452 378 216 93 246 117 202 330 333 
149 9 341 107 388 263 375 219 355 36 133 
150 9 6 359 10 383 11 24 220 94 153 
151 9 3 53 25 431 460 200 398 211 315 
152 9 371 221 9 261 317 450 95 286 254 
153 9 24 11 97 245 359 298 6 430 256 
154 9 318 77 56 155 312 58 289 237 106 
155 9 318 154 58 289 77 56 312 192 344 
156 9 447 78 87 208 412 222 157 81 321 
157 9 412 87 447 156 266 213 233 415 132 
158 9 333 216 202 330 246 148 360 452 378 
159 9 90 271 180 38 294 257 458 310 88 
160 9 196 44 16 7 102 374 205 442 437 
161 9 92 190 58 130 21 287 318 55 15 
162 9 63 71 88 403 342 257 260 227 329 
163 9 282 37 195 204 367 28 142 292 394 
164 9 12 407 385 226 291 121 418 322 297 
165 9 270 462 147 425 459 127 405 17 232 
166 9 456 248 167 116 454 311 417 323 110 
167 9 454 166 456 311 248 116 417 404 455 
168 9 308 235 64 410 122 229 193 230 379 
169 9 126 453 424 423 8 463 411 277 353 
170 9 387 60 390 67 39 31 264 281 217 
171 9 325 35 280 444 131 345 362 338 28 
172 9 120 138 292 357 175 195 382 86 397 
173 9 441 247 370 319 41 50 351 393 113 
174 9 362 131 444 179 114 123 280 35 393 
175 9 357 138 120 304 47 172 292 86 203 
176 9 366 23 434 62 421 392 194 209 69 
177 9 262 386 119 452 246 93 330 216 84 
178 9 129 250 108 99 372 14 49 69 439 
179 9 400 444 131 174 362 91 367 35 28 
180 9 310 271 90 458 159 294 38 402 257 
181 9 288 61 354 26 89 466 327 251 302 
182 9 283 79 210 299 236 103 137 82 383 
183 9 104 185 229 46 410 320 73 193 379 
184 9 186 420 373 191 15 223 347 256 298 
185 9 183 104 229 193 410 368 46 320 168 
186 9 223 15 184 420 373 190 191 55 130 
187 9 206 55 130 414 249 4 223 287 212 
188 9 272 145 139 374 446 442 285 7 81 
189 9 52 279 209 68 69 392 366 49 66 
190 9 161 92 130 15 223 55 186 21 5 
191 9 184 420 373 419 347 303 298 245 256 
192 9 242 289 435 457 155 331 375 219 58 
193 9 265 229 259 168 308 185 410 83 183 
194 9 372 23 434 176 366 436 392 268 62 
195 9 292 163 338 28 120 138 282 367 172 
196 9 160 44 16 7 437 102 374 198 442 
197 9 124 141 218 238 364 339 399 253 322 
198 9 437 264 196 296 440 284 16 44 113 
199 9 29 445 224 302 433 100 327 331 26 
200 9 3 53 76 432 211 25 72 315 146 
201 9 231 285 111 134 136 446 321 81 340 
202 9 360 106 378 148 158 324 333 27 216 
203 9 304 349 275 47 144 109 175 394 142 
204 9 142 163 282 394 59 37 195 47 275 
205 9 102 160 243 44 16 7 429 196 374 
206 9 187 55 130 4 287 212 223 414 190 
207 9 86 314 427 397 357 361 42 175 172 
208 9 395 78 43 352 156 272 447 81 321 
209 9 279 189 52 366 69 392 176 421 68 
210 9 283 182 79 103 236 299 82 278 220 
211 7 315 25 432 413 408 53 76 
212 9 465 358 132 18 222 4 244 133 206 
213 9 266 233 415 36 157 66 412 87 68 
214 9 323 343 426 110 127 19 116 248 451 
215 9 254 95 317 221 152 9 371 261 286 
216 9 246 330 452 333 148 386 158 262 93 
217 9 448 39 281 60 350 387 170 75 234 
218 9 141 339 364 197 253 54 124 396 238 
219 9 133 263 457 107 149 435 341 375 465 
220 9 30 10 94 383 283 210 450 103 261 
221 9 152 261 371 9 254 317 450 95 30 
222 9 87 358 132 156 244 18 465 157 212 
223 9 186 15 55 190 130 184 187 373 420 
224 9 433 302 29 327 199 26 445 100 466 
225 6 413 315 401 211 25 408 
226 9 291 164 297 428 407 385 12 418 406 
227 9 391 257 8 38 294 424 88 423 260 
228 9 451 380 463 369 258 126 453 214 169 
229 9 410 183 104 185 168 193 308 235 64 
230 9 20 376 429 308 293 168 2 259 267 
231 9 201 285 446 134 321 111 81 340 136 
232 9 459 405 165 143 42 361 270 462 425 
233 9 266 213 415 36 157 132 341 87 412 
234 9 398 75 431 350 151 460 39 217 448 
235 9 64 122 168 308 410 379 229 243 230 
236 9 299 82 79 103 210 278 182 283 40 
237 9 312 106 56 77 154 202 360 318 158 
238 9 197 428 396 124 218 141 339 406 328 
239 9 402 274 277 337 8 411 458 169 391 
240 9 267 140 414 244 2 18 293 20 249 
241 9 381 354 433 306 327 26 100 273 346 
242 9 192 331 289 435 375 344 199 457 155 
243 9 102 205 16 44 122 64 74 235 429 
244 9 18 240 267 222 414 352 140 212 43 
245 9 153 24 11 97 359 303 419 298 191 
246 9 330 216 386 452 333 262 119 148 177 
247 9 370 173 351 441 319 296 41 113 440 
248 9 116 166 456 323 110 127 167 214 343 
249 9 140 414 356 115 2 240 293 118 376 
250 9 129 108 178 14 99 372 328 355 335 
251 9 61 339 218 141 288 364 396 70 54 
252 9 363 389 41 113 319 440 50 173 441 
253 9 364 54 295 399 124 141 322 218 197 
254 9 95 215 221 317 152 371 9 261 286 
255 9 96 276 297 418 403 305 384 98 291 
256 9 298 373 420 97 118 301 191 184 430 
257 9 38 88 294 227 71 391 162 63 271 
258 9 369 438 126 453 17 411 337 228 451 
259 9 265 376 20 115 293 193 2 230 308 
260 9 353 423 424 463 8 391 403 162 380 
261 9 221 152 450 371 9 30 278 94 220 
262 9 119 386 177 246 330 452 216 333 148 
263 9 107 219 149 341 133 375 435 457 388 
264 9 390 437 284 198 74 16 44 196 170 
265 9 259 83 193 376 115 368 293 301 20 
266 9 233 213 415 36 157 87 132 412 341 
267 9 240 2 20 293 376 230 244 140 429 
268 9 332 436 434 98 23 384 305 62 194 
269 9 422 57 80 125 32 128 409 101 65 
270 9 165 462 425 147 459 127 405 17 232 
271 9 90 159 180 38 294 458 310 257 227 
272 9 188 374 145 78 139 442 395 81 7 
273 9 306 100 445 346 324 381 433 241 27 
274 9 277 337 411 453 126 239 169 33 449 
275 9 144 47 203 109 349 304 394 142 51 
276 9 96 255 305 384 98 380 297 403 418 
277 9 337 411 274 453 126 169 33 438 258 
278 9 82 103 450 236 299 210 261 283 79 
279 9 209 189 69 392 52 68 366 176 49 
280 9 171 455 35 131 362 404 444 325 174 
281 9 217 448 409 170 39 60 387 31 67 
282 9 163 37 204 91 367 400 195 28 142 
283 9 210 182 79 103 299 236 383 82 220 
284 9 437 74 264 16 44 390 196 198 243 
285 9 446 231 201 81 321 188 340 272 145 
286 9 464 365 9 317 461 371 152 65 95 
287 9 4 92 130 206 161 58 187 55 457 
288 9 181 61 251 89 354 26 466 70 327 
289 9 155 192 344 242 318 154 56 58 27 
290 9 22 416 334 84 135 381 241 89 117 
291 9 226 297 164 407 418 428 255 12 385 
292 9 120 138 195 172 394 47 163 175 142 
293 9 2 20 376 115 259 267 230 140 240 
294 9 38 257 227 271 458 90 391 159 180 
295 9 253 399 54 322 364 124 385 141 121 
296 9 440 113 370 247 351 173 319 198 363 
297 9 291 255 418 96 226 276 305 384 407 
298 9 256 97 373 420 153 24 245 191 11 
299 9 236 79 82 103 210 182 278 283 40 
300 9 33 449 326 438 17 337 411 258 277 
301 9 83 368 265 430 256 118 193 298 259 
302 9 224 327 433 29 26 199 466 445 354 
303 9 419 245 191 347 34 153 11 24 359 
304 9 203 47 275 349 175 144 394 109 138 
305 9 384 98 96 276 332 297 255 268 436 
306 9 346 273 100 381 334 241 324 445 117 
307 8 146 408 313 432 76 59 211 315 
308 9 168 235 64 122 410 230 193 229 429 
309 9 51 109 144 105 349 348 275 59 48 
310 9 458 180 402 271 90 294 38 159 239 
311 9 454 167 417 456 404 166 455 280 171 
312 9 77 56 154 318 237 58 155 106 21 
313 6 307 408 146 348 432 105 
314 9 207 86 427 397 357 361 42 175 172 
315 6 211 25 432 413 408 53 
316 9 379 46 45 73 320 74 410 122 64 
317 9 9 95 286 152 371 254 221 464 365 
318 9 154 58 155 77 56 312 92 289 161 
319 9 41 173 50 441 113 252 363 389 440 
320 9 73 46 104 183 316 45 379 185 229 
321 9 81 447 412 78 285 156 231 201 157 
322 9 399 124 385 253 295 12 197 164 121 
323 9 214 343 426 110 127 116 248 19 147 
324 9 27 378 360 346 117 202 306 273 106 
325 9 171 35 338 345 13 444 280 28 367 
326 9 300 33 449 17 438 459 258 337 411 
327 9 302 26 433 224 29 354 466 241 199 
328 9 335 108 14 396 336 250 70 129 238 
329 9 342 418 407 403 63 12 162 164 71 
330 9 246 216 333 386 452 119 262 148 158 
331 9 375 435 242 112 107 199 263 192 149 
332 9 268 436 98 384 305 434 406 194 23 
333 9 216 158 330 246 452 148 386 202 119 
334 9 135 416 84 22 346 117 93 306 290 
335 9 328 108 336 396 70 14 250 129 112 
336 9 70 396 466 61 335 328 251 26 339 
337 9 277 411 274 453 126 33 438 169 300 
338 9 28 345 195 325 367 13 35 171 292 
339 9 218 141 364 197 54 251 253 396 124 
340 9 443 446 123 114 285 139 145 231 188 
341 9 149 388 107 263 36 133 219 415 355 
342 9 329 63 71 162 88 403 418 407 12 
343 9 214 323 426 110 19 116 127 248 451 
344 9 27 289 324 106 273 445 155 242 100 
345 9 13 338 325 382 171 85 35 417 28 
346 9 306 334 117 135 273 324 416 84 381 
347 9 191 184 419 34 303 5 15 186 420 
348 9 105 48 313 307 309 408 146 59 51 
349 9 109 203 275 144 304 51 309 47 394 
350 9 39 75 60 217 387 448 234 351 398 
351 9 247 370 173 296 441 460 319 440 113 
352 9 43 395 208 78 156 244 267 429 272 
353 9 260 423 424 463 380 8 169 391 403 
354 9 241 381 26 327 181 89 433 302 224 
355 9 99 439 388 149 49 107 112 341 178 
356 9 118 249 115 140 414 2 293 265 259 
357 9 86 175 207 172 397 427 314 120 138 
358 9 132 465 222 212 87 133 18 415 244 
359 9 11 24 153 245 150 6 97 383 303 
360 9 202 106 324 378 27 148 158 237 117 
361 9 42 427 397 143 86 207 314 357 382 
362 9 174 131 444 179 280 114 35 123 171 
363 9 252 389 113 41 440 319 50 173 441 
364 9 141 253 218 54 339 197 124 399 295 
365 9 464 461 286 65 101 9 317 371 152 
366 9 176 23 62 434 421 209 392 279 194 
367 9 28 400 37 91 444 179 282 35 338 
368 9 83 301 185 265 193 137 430 104 183 
369 9 258 438 126 453 228 451 17 411 169 
370 9 247 173 351 441 319 296 113 440 41 
371 9 152 9 221 261 317 450 286 461 95 
372 9 392 69 194 178 129 14 176 250 366 
373 9 420 256 184 191 298 186 118 223 15 
374 9 7 442 145 139 160 188 272 196 102 
375 9 435 107 331 263 149 219 112 242 341 
376 9 20 293 2 259 115 230 265 267 140 
377 9 5 21 34 347 15 190 161 184 419 
378 9 148 117 93 324 360 202 452 135 84 
379 9 316 122 410 64 235 46 229 74 168 
380 9 463 276 228 451 96 353 260 255 423 
381 9 241 354 306 346 273 334 433 100 327 
382 9 13 345 143 85 172 397 427 361 42 
383 9 6 10 283 220 210 182 30 150 94 
384 9 98 305 332 276 96 255 268 297 436 
385 9 12 164 322 121 399 407 124 226 291 
386 9 246 262 452 330 216 119 177 148 333 
387 9 60 170 39 390 350 217 264 67 281 
388 9 149 341 36 107 355 439 263 99 375 
389 9 252 363 41 113 319 50 440 393 441 
390 9 264 170 284 387 67 437 60 74 198 
391 9 227 8 424 423 257 294 38 260 353 
392 9 69 372 279 176 366 209 194 49 23 
393 9 50 441 41 173 319 252 389 247 370 
394 9 142 47 275 204 292 144 138 163 304 
395 9 43 208 352 78 272 156 205 188 81 
396 9 336 70 238 218 339 328 141 335 197 
397 9 427 86 361 207 42 357 314 143 382 
398 9 234 75 431 151 350 460 25 53 3 
399 9 322 124 253 295 385 364 197 54 141 
400 9 91 37 367 179 28 282 444 72 163 
401 6 413 225 431 25 315 211 
402 9 458 310 239 294 391 38 180 8 227 
403 9 255 63 162 418 96 329 276 260 342 
404 9 455 280 311 134 454 171 167 417 362 
405 9 232 143 459 425 462 85 165 270 42 
406 9 428 436 226 332 238 291 194 14 268 
407 9 164 12 418 291 385 121 329 226 297 
408 7 307 432 146 313 76 211 315 
409 9 31 67 80 281 422 170 45 269 390 
410 9 229 168 235 64 122 308 379 183 104 
411 9 337 277 453 274 126 169 438 258 33 
412 9 447 157 321 81 156 87 78 136 213 
413 6 225 315 401 211 25 408 
414 9 140 249 240 2 115 18 293 356 244 
415 9 233 266 213 36 132 157 341 87 358 
416 9 84 135 334 22 117 93 346 290 378 
417 9 311 454 456 85 13 167 345 166 325 
418 9 297 407 255 329 291 403 164 96 226 
419 9 303 191 245 347 34 153 184 24 11 
420 9 373 184 256 191 298 186 118 223 15 
421 9 62 366 176 23 19 434 209 110 279 
422 9 80 269 57 409 31 45 32 67 73 
423 9 424 353 260 463 8 169 391 227 380 
424 9 423 8 353 260 169 391 463 227 126 
425 9 462 270 165 147 405 459 127 85 232 
426 9 110 343 19 323 214 62 116 421 248 
427 9 397 86 207 361 42 314 357 143 382 
428 9 406 226 238 291 124 197 385 436 322 
429 9 230 267 205 308 243 20 64 235 122 
430 9 97 301 182 298 368 24 6 153 11 
431 9 401 25 151 398 234 53 413 315 211 
432 8 76 408 146 211 307 315 200 313 
433 9 224 327 302 26 29 199 445 100 354 
434 9 23 62 176 366 194 268 421 19 332 
435 9 375 331 263 107 242 457 219 192 149 
436 9 332 268 406 98 194 305 384 434 23 
437 9 284 264 16 196 44 198 160 102 74 
438 9 258 369 17 126 453 33 300 411 337 
439 9 49 355 99 388 36 178 68 129 149 
440 9 113 363 252 296 319 389 41 173 370 
441 9 173 393 50 319 41 247 370 252 113 
442 9 374 145 139 7 188 160 272 196 44 
443 9 123 340 114 389 139 252 145 446 363 
444 9 35 131 179 362 174 171 367 28 280 
445 9 100 199 273 224 433 29 302 306 327 
446 9 285 340 231 188 139 145 201 272 81 
447 9 412 321 156 81 78 157 87 208 222 
448 9 217 39 281 350 60 387 170 75 234 
449 9 33 300 326 337 438 277 411 17 274 
450 9 278 261 103 82 371 152 221 30 220 
451 9 228 380 463 369 258 126 214 453 343 
452 9 216 246 148 386 330 93 333 262 177 
453 9 126 411 169 277 258 337 369 438 274 
454 9 167 311 456 166 417 404 248 116 455 
455 9 404 280 134 362 171 311 123 114 131 
456 9 166 167 454 248 311 417 116 425 462 
457 9 219 133 263 435 4 192 107 375 287 
458 9 402 310 180 294 38 271 90 227 391 
459 9 165 232 270 405 462 425 147 17 326 
460 9 351 151 247 370 3 173 441 75 72 
461 9 464 365 65 101 286 9 371 152 317 
462 9 425 270 165 147 405 459 127 85 232 
463 9 353 423 380 260 424 169 228 451 126 
464 9 365 461 286 65 101 9 317 371 152 
465 9 212 358 132 133 222 4 18 219 87 
466 9 70 336 26 61 302 327 29 224 181 
DEPOT_SECTION
   1
   -1
EOF
