NAME :  X-n401-kX-w40-c11.cctp
COMMENT : 	Adapted by Maziero, Usberti and Cavellucci from the Uchoa, Pecin, Pessoa, Poggi, Subramanian, and Vidal (2013)
TYPE :  CCTP
DIMENSION :    290
EDGE_WEIGHT_TYPE : 	EUC_2D	
CAPACITY : 	745
VERTICES_WITHIN_COVERAGE :  11
VERTICES_WITH_DEMAND : 	40
NODE_COORD_SECTION
1 0 0
2 645 7
3 720 867
4 513 499
5 208 766
6 976 884
7 991 864
8 696 804
9 655 676
10 840 976
11 718 867
12 456 818
13 901 808
14 380 423
15 668 533
16 939 794
17 311 824
18 906 961
19 899 692
20 227 898
21 646 431
22 886 633
23 468 400
24 867 887
25 720 871
26 585 832
27 746 892
28 990 681
29 333 883
30 675 773
31 145 637
32 939 680
33 852 885
34 520 96
35 603 554
36 677 836
37 214 793
38 480 576
39 986 924
40 392 482
41 872 974
42 644 517
43 888 795
44 622 5
45 999 958
46 415 509
47 910 946
48 150 945
49 719 760
50 420 387
51 720 832
52 714 926
53 697 759
54 659 869
55 192 793
56 645 19
57 839 680
58 468 397
59 299 814
60 571 343
61 989 846
62 971 861
63 448 338
64 194 768
65 845 841
66 687 867
67 963 616
68 627 445
69 504 497
70 849 606
71 766 919
72 492 399
73 555 935
74 971 877
75 58 537
76 938 801
77 789 869
78 870 838
79 693 551
80 816 941
81 690 852
82 787 873
83 931 944
84 996 833
85 560 369
86 580 108
87 630 3
88 603 891
89 724 324
90 278 823
91 589 379
92 692 610
93 970 813
94 738 668
95 703 958
96 412 458
97 770 940
98 930 978
99 854 942
100 909 831
101 587 581
102 222 800
103 978 848
104 455 622
105 696 876
106 503 468
107 492 16
108 446 402
109 500 144
110 469 435
111 171 802
112 237 542
113 516 491
114 550 958
115 598 690
116 193 835
117 567 576
118 530 102
119 496 518
120 210 827
121 226 781
122 722 772
123 655 831
124 639 360
125 880 871
126 717 794
127 786 907
128 505 383
129 705 778
130 536 495
131 923 981
132 580 474
133 165 445
134 481 45
135 243 773
136 206 793
137 989 973
138 976 919
139 949 912
140 204 768
141 652 8
142 636 854
143 632 5
144 753 830
145 894 901
146 883 814
147 876 903
148 865 852
149 514 380
150 343 924
151 721 920
152 490 458
153 534 592
154 259 778
155 474 652
156 193 899
157 284 335
158 967 750
159 485 462
160 644 779
161 461 532
162 611 509
163 564 75
164 364 519
165 517 18
166 998 838
167 928 822
168 601 533
169 923 783
170 726 914
171 239 755
172 866 934
173 949 878
174 72 589
175 541 524
176 543 471
177 588 198
178 640 38
179 440 626
180 178 630
181 721 822
182 528 881
183 653 366
184 981 905
185 793 937
186 212 772
187 896 799
188 233 776
189 902 891
190 45 654
191 868 917
192 233 943
193 408 600
194 509 590
195 843 915
196 471 500
197 579 103
198 659 857
199 426 546
200 996 850
201 706 671
202 190 756
203 163 677
204 734 882
205 403 754
206 747 889
207 851 992
208 157 888
209 964 968
210 550 923
211 320 759
212 881 806
213 941 885
214 333 404
215 990 838
216 171 759
217 647 47
218 296 835
219 475 535
220 197 879
221 565 50
222 784 970
223 546 65
224 870 661
225 508 521
226 669 386
227 845 859
228 860 854
229 196 769
230 245 941
231 411 529
232 535 56
233 327 947
234 514 578
235 894 933
236 909 814
237 938 972
238 435 803
239 730 857
240 861 742
241 251 785
242 497 40
243 969 748
244 990 860
245 701 863
246 103 703
247 221 735
248 912 928
249 475 554
250 646 31
251 991 886
252 735 812
253 707 889
254 333 824
255 824 954
256 197 855
257 487 514
258 570 729
259 653 40
260 850 803
261 630 47
262 563 493
263 216 737
264 689 858
265 688 876
266 883 783
267 334 767
268 847 890
269 966 862
270 524 554
271 886 743
272 241 760
273 995 751
274 660 593
275 124 687
276 950 824
277 825 869
278 664 408
279 222 837
280 930 938
281 313 960
282 819 911
283 906 880
284 180 749
285 914 961
286 357 506
287 649 780
288 975 865
289 687 737
290 541 495
DEMAND_SECTION
2 42
3 56
4 29
5 28
6 66
7 92
8 99
9 97
10 75
11 52
12 13
13 67
14 69
15 60
16 77
17 26
18 97
19 74
20 26
21 28
22 60
23 74
24 87
25 95
26 59
27 56
28 64
29 42
30 68
31 15
32 59
33 62
34 29
35 66
36 63
37 24
38 9
39 73
40 60
41 100
COVERAGE_SECTION
2 10 141 56 143 87 44 250 178 259 217 261 
3 11 11 25 239 245 204 105 253 264 66 265 81 
4 11 69 113 130 225 119 290 257 106 175 176 196 
5 11 140 186 229 64 202 121 136 188 37 263 55 
6 9 74 251 288 184 62 269 7 173 244 
7 11 244 200 288 61 62 103 251 74 6 269 215 
8 11 126 129 181 30 36 51 252 122 53 81 123 
9 11 201 115 289 92 94 274 53 30 258 160 287 
10 11 207 255 41 99 80 172 222 185 195 191 18 
11 11 3 25 239 245 204 105 253 264 66 265 81 
12 10 238 205 182 254 26 267 29 210 17 258 
13 10 187 236 43 146 212 100 167 266 169 76 
14 11 96 214 50 40 108 286 110 23 58 46 164 
15 11 42 79 274 162 168 35 92 101 68 21 132 
16 9 76 169 167 276 93 236 13 187 100 
17 10 59 218 254 90 267 29 211 154 241 135 
18 10 285 47 131 98 83 235 280 237 248 41 
19 11 32 224 271 22 57 240 158 243 28 266 169 
20 10 156 220 192 230 256 279 208 116 120 48 
21 11 68 278 226 183 124 91 132 162 42 15 262 
22 9 224 70 19 57 32 67 271 240 28 
23 11 58 108 72 110 128 50 149 152 159 63 106 
24 11 33 147 268 125 145 191 228 148 189 227 195 
25 11 3 11 239 204 245 253 105 206 265 27 66 
26 8 142 88 123 182 198 160 287 54 
27 11 206 204 170 25 71 3 11 151 239 253 127 
28 10 32 67 243 273 158 19 22 271 169 224 
29 11 150 254 218 17 233 59 281 90 230 20 267 
30 11 53 287 129 160 8 289 49 122 126 123 36 
31 5 180 203 275 246 174 
32 11 19 28 67 22 224 243 158 271 273 57 240 
33 11 268 24 227 147 125 195 277 228 148 191 282 
34 10 118 223 232 163 109 197 86 242 134 221 
35 7 168 101 117 162 42 15 175 
36 11 81 123 264 198 66 245 8 54 265 51 105 
37 11 136 102 121 186 55 188 140 5 229 64 120 
38 11 249 194 234 219 161 270 104 153 119 199 225 
39 10 138 184 45 251 139 6 74 137 209 280 
40 7 96 46 286 164 231 14 199 
41 11 207 10 18 99 172 285 47 235 131 255 191 
42 10 15 162 168 35 79 68 132 274 262 21 
43 11 187 212 266 13 146 236 169 260 100 78 167 
44 10 87 143 2 56 141 250 178 261 259 217 
45 11 137 39 209 138 184 237 139 83 98 251 280 
46 7 231 40 199 96 161 164 196 
47 9 18 285 248 83 235 280 131 98 237 
48 10 208 156 220 192 20 230 256 116 279 120 
49 8 122 53 129 126 289 30 8 252 
50 11 108 58 23 14 63 110 96 72 128 214 149 
51 11 181 252 239 144 3 11 81 245 8 126 25 
52 7 151 170 95 253 27 204 206 
53 10 129 49 289 30 122 126 8 287 160 252 
54 7 198 142 66 265 264 81 36 
55 11 136 37 111 229 64 140 186 5 102 121 202 
56 10 2 250 141 143 178 87 259 44 217 261 
57 6 224 19 22 240 70 271 
58 11 23 108 72 110 128 50 149 63 152 159 106 
59 10 17 218 90 254 154 241 211 267 135 188 
60 10 85 91 149 124 128 183 72 226 278 21 
61 9 200 215 103 166 244 84 7 62 288 
62 8 269 288 103 74 244 7 61 6 
63 11 50 58 108 23 128 72 149 110 14 85 60 
64 11 229 140 202 5 186 284 55 216 136 37 121 
65 7 227 228 148 78 277 260 33 
66 10 264 265 105 81 245 54 198 253 11 3 
67 11 32 28 22 19 224 70 243 158 273 57 271 
68 11 21 278 132 162 226 42 91 262 183 124 176 
69 10 4 113 119 225 257 106 130 196 290 159 
70 8 22 224 57 19 67 32 94 240 
71 11 97 127 185 27 206 170 151 204 82 52 222 
72 11 128 23 58 149 110 108 152 159 106 50 85 
73 5 210 114 182 88 26 
74 8 6 288 62 269 173 251 7 244 
75 9 174 190 31 133 180 275 246 203 112 
76 9 16 167 169 276 236 93 13 100 187 
77 5 82 277 127 206 27 
78 10 148 228 65 146 227 125 212 100 260 13 
79 11 15 274 92 42 35 162 168 101 201 68 94 
80 11 255 185 282 195 99 10 222 127 97 172 71 
81 10 264 66 245 36 265 105 198 11 3 54 
82 6 77 127 277 206 27 282 
83 9 280 47 285 248 237 18 98 139 131 
84 8 166 215 61 200 103 244 7 93 
85 10 60 91 149 128 72 124 183 58 23 68 
86 8 197 163 118 223 221 34 232 261 
87 10 143 44 2 56 141 250 178 259 261 217 
88 6 142 54 26 210 73 198 
89 6 183 226 124 278 21 91 
90 11 218 59 17 241 154 254 279 102 135 188 121 
91 10 85 60 124 183 149 68 21 226 278 128 
92 9 274 79 201 94 9 15 35 42 101 
93 6 276 215 84 76 16 103 
94 6 201 92 9 289 49 53 
95 7 52 151 170 97 253 71 27 
96 8 40 14 46 110 108 50 231 196 
97 11 71 185 222 127 80 170 151 27 206 255 282 
98 10 131 237 285 18 83 209 47 280 248 41 
99 11 172 191 195 255 10 41 80 235 147 282 207 
100 7 236 167 13 146 187 212 78 
101 8 117 35 168 153 270 175 234 274 
102 11 37 136 121 188 120 186 55 241 135 5 140 
103 10 61 62 215 244 288 200 269 7 166 84 
104 10 179 155 38 193 194 249 234 199 153 219 
105 10 265 66 245 253 264 11 25 81 3 54 
106 10 152 159 113 69 4 176 130 196 110 290 
107 10 165 242 134 232 223 221 34 163 118 197 
108 11 23 58 50 110 72 128 63 96 14 149 152 
109 11 34 118 86 197 223 163 232 134 177 242 221 
110 10 152 159 23 58 108 72 106 96 128 196 
111 8 55 136 116 64 229 216 37 120 
112 5 180 133 286 164 31 
113 11 4 69 130 290 106 225 119 176 257 175 152 
114 5 73 210 182 88 26 
115 11 258 9 160 289 287 101 201 30 274 153 117 
116 9 120 256 279 111 55 136 220 102 37 
117 8 101 153 35 270 234 168 175 194 
118 10 34 223 163 232 197 86 109 221 242 134 
119 9 257 225 69 4 219 196 113 161 249 
120 10 279 116 102 256 37 136 55 111 121 220 
121 11 188 37 186 102 135 5 136 241 140 272 171 
122 9 49 129 126 53 8 252 30 289 181 
123 10 36 198 142 54 81 264 66 8 287 160 
124 10 183 226 91 278 60 21 85 68 89 149 
125 10 24 148 228 283 189 33 147 145 78 227 
126 9 129 8 122 252 181 49 51 53 30 
127 10 71 185 282 82 97 77 27 206 80 277 
128 11 149 72 58 23 85 108 110 63 152 60 159 
129 10 122 126 53 49 8 30 252 289 181 51 
130 10 290 113 4 176 262 175 69 225 106 119 
131 11 98 237 285 18 47 83 209 280 41 248 235 
132 10 262 176 290 162 130 68 168 175 113 4 
133 9 112 75 157 174 214 180 31 286 164 
134 10 242 107 165 232 34 223 118 221 163 109 
135 10 188 272 241 154 171 121 186 102 37 5 
136 11 37 55 102 186 121 140 229 5 64 188 120 
137 11 45 209 39 237 138 98 83 131 184 280 139 
138 10 39 184 139 6 251 74 45 173 213 209 
139 9 138 213 280 184 173 83 6 39 248 
140 11 5 229 186 64 202 136 121 37 55 188 284 
141 10 2 56 143 87 250 44 178 259 217 261 
142 7 198 54 123 36 88 66 264 
143 10 87 44 2 56 141 250 178 259 261 217 
144 5 252 51 181 239 3 
145 9 189 147 283 24 191 235 248 125 172 
146 11 212 13 43 187 236 78 100 266 260 148 167 
147 11 191 24 145 189 33 125 268 172 195 235 283 
148 10 228 78 227 65 125 24 33 146 268 277 
149 10 128 72 85 58 23 60 108 110 91 63 
150 11 233 29 281 230 254 218 17 192 59 20 90 
151 9 170 52 253 27 204 206 95 71 25 
152 10 159 106 110 69 113 196 4 176 257 72 
153 8 234 194 117 270 101 38 175 249 
154 10 241 135 272 188 171 121 102 37 186 90 
155 10 104 179 194 38 193 234 153 249 270 199 
156 10 220 20 208 256 192 48 116 230 279 120 
157 11 214 14 50 133 63 108 96 40 286 58 23 
158 8 243 273 16 169 76 93 28 32 
159 9 152 106 110 69 196 113 4 257 119 
160 11 287 30 123 53 8 289 129 36 126 142 49 
161 7 219 249 257 196 119 199 38 
162 8 168 42 35 132 262 15 68 290 
163 8 223 221 197 232 86 118 34 261 
164 7 286 40 231 46 199 96 193 
165 10 107 242 232 134 223 221 163 34 118 197 
166 8 84 215 61 200 103 244 7 62 
167 6 100 236 276 76 13 16 
168 7 35 162 42 101 117 262 175 
169 10 16 76 187 13 236 43 167 266 212 276 
170 10 151 52 27 253 204 206 71 25 3 11 
171 10 272 135 188 247 121 263 154 186 241 5 
172 11 99 191 235 195 147 41 145 47 248 24 255 
173 5 213 74 269 6 62 
174 7 75 190 31 275 180 246 203 
175 7 130 290 225 270 4 262 113 
176 10 290 130 262 113 132 106 4 69 175 152 
177 6 86 197 109 118 34 163 
178 9 250 217 259 261 56 2 141 143 87 
179 10 104 193 155 38 194 249 199 234 161 219 
180 3 31 203 275 
181 11 51 252 126 8 144 239 81 3 11 36 245 
182 7 210 73 26 88 114 12 142 
183 10 124 226 278 21 91 89 68 60 85 132 
184 11 138 39 251 6 74 139 288 7 173 62 213 
185 11 80 97 127 71 222 255 282 195 10 99 82 
186 11 5 140 229 121 64 37 188 136 202 55 102 
187 11 43 13 212 146 236 266 169 100 167 76 16 
188 11 121 135 272 241 186 171 37 102 154 5 140 
189 8 283 145 147 125 24 248 213 191 
190 7 174 246 275 31 75 203 180 
191 10 147 172 195 99 24 145 235 268 33 189 
192 10 230 20 156 220 281 48 208 233 256 279 
193 8 179 104 199 231 38 249 155 161 
194 8 234 153 38 270 249 117 104 219 
195 11 282 191 268 99 172 33 147 24 80 255 277 
196 7 257 119 69 161 219 159 4 
197 8 86 163 118 223 221 34 232 261 
198 8 54 142 123 36 66 264 81 265 
199 7 231 161 46 219 249 193 38 
200 9 61 166 244 215 7 84 103 288 62 
201 8 94 9 92 289 53 49 274 122 
202 9 284 64 229 140 216 5 186 263 55 
203 3 275 31 180 
204 11 206 27 25 3 11 239 253 170 105 245 151 
205 7 238 267 12 211 254 17 59 
206 11 27 204 25 170 3 11 71 239 151 253 82 
207 11 10 41 255 99 172 80 18 285 222 131 235 
208 9 156 220 256 48 116 20 120 279 111 
209 11 137 237 98 45 83 131 280 39 138 285 18 
210 6 73 114 182 88 26 142 
211 5 267 59 154 17 254 
212 11 146 43 187 13 266 236 260 78 100 169 148 
213 6 173 139 74 269 6 283 
214 11 14 157 50 96 40 286 108 164 46 63 23 
215 8 61 84 166 200 103 244 7 62 
216 7 284 202 64 229 140 5 55 
217 7 259 178 250 261 56 141 2 
218 11 17 59 90 254 29 241 154 279 267 211 102 
219 7 161 249 257 119 196 225 38 
220 10 156 256 20 208 116 279 120 192 230 48 
221 9 223 163 232 197 165 86 118 34 261 
222 10 97 185 80 255 71 10 127 282 207 99 
223 9 232 163 221 34 118 197 86 165 242 
224 8 22 57 19 70 32 240 271 67 
225 11 119 257 4 69 113 175 219 270 130 290 196 
226 10 278 183 124 21 68 91 89 60 85 132 
227 9 228 65 148 277 33 268 78 24 125 
228 10 148 227 78 65 125 33 24 268 277 146 
229 11 64 140 5 202 186 55 136 284 216 37 121 
230 11 192 20 156 281 220 233 48 256 150 208 29 
231 7 46 199 164 161 40 286 219 
232 10 223 221 163 242 165 34 118 134 107 197 
233 11 281 150 29 230 192 20 218 254 17 90 59 
234 8 194 153 270 38 249 117 225 219 
235 10 248 47 172 18 191 145 285 147 280 83 
236 10 13 100 187 167 146 43 212 76 169 16 
237 10 98 131 209 285 83 18 280 47 137 248 
238 10 12 205 254 267 182 211 17 29 59 218 
239 11 3 11 25 204 51 245 144 181 206 27 105 
240 8 271 266 43 260 19 57 187 212 
241 10 154 135 188 121 272 171 102 37 186 136 
242 10 134 107 165 232 223 34 221 118 163 197 
243 8 158 273 16 169 76 93 28 32 
244 10 7 200 61 288 103 62 215 166 269 74 
245 10 264 105 66 81 11 265 3 25 253 239 
246 4 275 203 190 31 
247 7 263 171 272 5 140 202 186 
248 9 47 235 280 83 145 285 18 189 139 
249 8 219 38 161 119 257 234 225 270 
250 10 178 259 56 217 261 2 141 143 87 44 
251 11 6 184 7 74 244 288 62 269 138 200 39 
252 9 181 51 126 144 8 122 129 239 49 
253 9 105 25 265 11 3 245 204 66 170 
254 10 17 59 218 90 267 29 211 154 241 205 
255 11 80 10 99 185 195 222 282 172 207 41 97 
256 10 116 220 120 279 156 20 208 111 102 55 
257 8 119 196 225 69 219 4 161 113 
258 11 115 160 287 9 26 30 289 155 53 123 142 
259 8 217 250 178 56 261 141 2 143 
260 8 212 146 65 43 266 78 187 13 
261 8 178 217 250 259 56 143 2 44 
262 8 290 132 130 176 175 113 4 162 
263 10 247 171 5 202 140 272 186 64 229 284 
264 10 81 66 245 265 105 36 11 198 3 54 
265 10 105 66 245 264 253 81 54 11 25 3 
266 11 43 187 212 13 146 260 169 236 271 240 100 
267 8 211 254 59 17 205 154 218 90 
268 11 33 24 195 277 227 147 191 282 125 228 148 
269 6 62 288 74 103 173 6 
270 8 234 175 225 153 194 119 117 38 
271 11 240 266 43 19 169 187 212 13 260 146 16 
272 10 171 135 188 154 121 241 186 247 5 263 
273 8 243 158 93 28 16 76 169 84 
274 11 92 79 15 35 101 42 9 168 201 117 162 
275 3 246 203 31 
276 4 167 93 76 16 
277 8 227 268 33 65 77 82 228 282 
278 11 226 21 183 68 124 91 89 132 42 85 60 
279 10 120 116 256 102 37 136 220 55 121 90 
280 9 83 248 47 285 139 18 237 235 98 
281 11 233 150 230 29 192 20 218 156 17 254 90 
282 11 195 80 127 268 185 33 277 255 99 191 82 
283 7 189 145 125 213 147 24 173 
284 8 202 216 64 229 140 5 263 186 
285 10 18 47 131 98 83 237 280 248 235 41 
286 7 164 40 46 231 96 199 14 
287 11 160 30 123 53 8 129 289 36 126 49 122 
288 9 62 269 74 7 244 103 6 61 200 
289 11 53 30 49 129 122 287 160 126 8 9 201 
290 9 130 262 176 113 4 175 69 225 132 
DEPOT_SECTION
   1
   -1
EOF
