NAME :  X-n491-kX-w196-c11.cctp
COMMENT : 	Adapted by Maziero, Usberti and Cavellucci from the Uchoa, Pecin, Pessoa, Poggi, Subramanian, and Vidal (2013)
TYPE :  CCTP
DIMENSION :    451
EDGE_WEIGHT_TYPE : 	EUC_2D	
CAPACITY : 	428
VERTICES_WITHIN_COVERAGE :  11
VERTICES_WITH_DEMAND : 	196
NODE_COORD_SECTION
1 894 510
2 463 887
3 704 177
4 424 368
5 420 800
6 492 610
7 607 749
8 363 85
9 160 398
10 733 274
11 952 199
12 56 370
13 714 12
14 569 230
15 187 681
16 550 581
17 506 863
18 838 469
19 842 107
20 595 966
21 292 185
22 327 121
23 21 664
24 145 164
25 654 735
26 281 959
27 910 295
28 857 705
29 501 276
30 896 894
31 269 217
32 590 509
33 575 96
34 819 481
35 941 408
36 908 388
37 941 492
38 652 413
39 341 111
40 577 544
41 493 279
42 452 25
43 969 339
44 64 67
45 456 289
46 227 792
47 898 365
48 45 442
49 881 867
50 437 830
51 280 233
52 894 41
53 146 375
54 498 393
55 849 249
56 188 631
57 461 690
58 277 381
59 410 486
60 211 863
61 359 706
62 595 831
63 353 281
64 448 785
65 206 832
66 726 420
67 143 741
68 84 332
69 692 490
70 896 968
71 823 232
72 513 831
73 338 623
74 787 934
75 515 893
76 829 499
77 993 184
78 30 917
79 918 121
80 327 945
81 331 646
82 714 159
83 810 86
84 10 665
85 358 495
86 877 42
87 547 218
88 81 551
89 907 733
90 12 587
91 564 716
92 446 381
93 136 379
94 565 957
95 872 42
96 216 326
97 37 967
98 434 954
99 562 426
100 203 448
101 926 44
102 473 523
103 302 363
104 424 197
105 947 678
106 985 248
107 839 112
108 597 917
109 573 948
110 229 856
111 497 199
112 645 338
113 106 449
114 918 709
115 680 917
116 194 86
117 176 795
118 714 316
119 368 822
120 72 175
121 239 112
122 736 825
123 621 236
124 811 510
125 82 545
126 55 520
127 75 750
128 146 385
129 319 751
130 195 332
131 446 715
132 514 988
133 891 404
134 632 329
135 27 752
136 558 893
137 567 695
138 297 220
139 191 246
140 620 569
141 447 829
142 73 857
143 887 849
144 249 874
145 457 527
146 298 729
147 141 976
148 695 556
149 851 526
150 259 467
151 561 309
152 412 755
153 710 79
154 700 344
155 831 297
156 556 499
157 447 454
158 316 773
159 212 653
160 487 210
161 300 434
162 257 805
163 46 856
164 268 199
165 837 819
166 625 636
167 250 650
168 165 167
169 450 924
170 975 100
171 822 545
172 148 707
173 866 77
174 814 172
175 335 318
176 389 801
177 632 128
178 104 468
179 443 511
180 764 323
181 631 938
182 762 744
183 376 930
184 350 537
185 569 883
186 152 396
187 445 147
188 931 598
189 481 356
190 598 964
191 535 2
192 489 51
193 232 267
194 872 623
195 613 98
196 714 334
197 14 540
198 701 695
199 220 306
200 497 271
201 847 614
202 265 137
203 981 259
204 432 580
205 77 946
206 699 51
207 93 860
208 316 369
209 883 505
210 836 775
211 650 638
212 768 280
213 473 396
214 63 935
215 137 774
216 64 773
217 344 230
218 712 37
219 184 58
220 434 502
221 149 342
222 292 48
223 402 160
224 365 500
225 287 35
226 394 695
227 674 817
228 109 754
229 187 972
230 802 453
231 5 16
232 421 581
233 919 639
234 720 439
235 333 681
236 981 743
237 411 723
238 278 830
239 459 907
240 999 105
241 569 15
242 603 751
243 512 804
244 642 674
245 874 573
246 22 715
247 449 0
248 631 543
249 299 63
250 440 40
251 362 758
252 833 46
253 35 765
254 578 23
255 860 181
256 942 561
257 533 5
258 845 191
259 487 372
260 749 598
261 908 610
262 796 267
263 59 660
264 911 604
265 114 909
266 59 523
267 542 96
268 910 182
269 958 201
270 392 55
271 532 197
272 802 599
273 795 674
274 904 278
275 932 486
276 469 41
277 612 196
278 904 116
279 614 140
280 916 259
281 617 109
282 355 511
283 608 117
284 556 113
285 700 83
286 659 80
287 665 33
288 581 564
289 919 134
290 143 600
291 846 339
292 879 221
293 49 668
294 103 407
295 465 60
296 700 164
297 962 709
298 873 240
299 942 75
300 457 87
301 425 254
302 936 548
303 53 705
304 106 678
305 605 53
306 60 711
307 135 777
308 954 503
309 392 27
310 446 20
311 368 126
312 753 607
313 692 278
314 940 181
315 815 137
316 855 406
317 558 105
318 32 642
319 927 542
320 899 656
321 147 552
322 507 75
323 51 598
324 701 98
325 951 209
326 505 75
327 803 252
328 221 667
329 538 21
330 497 189
331 144 710
332 970 224
333 846 297
334 830 215
335 643 508
336 828 326
337 547 83
338 553 109
339 665 197
340 858 263
341 684 243
342 719 138
343 53 729
344 555 90
345 819 130
346 874 590
347 519 199
348 135 327
349 892 158
350 843 154
351 817 538
352 572 220
353 928 76
354 932 244
355 564 209
356 828 691
357 111 810
358 911 116
359 929 534
360 140 724
361 783 521
362 894 520
363 132 648
364 663 72
365 571 47
366 886 325
367 514 33
368 614 103
369 107 612
370 116 654
371 34 850
372 580 20
373 558 230
374 647 86
375 53 665
376 969 251
377 633 165
378 994 370
379 648 174
380 891 360
381 912 670
382 471 261
383 147 549
384 554 35
385 680 222
386 807 474
387 421 10
388 440 68
389 836 278
390 903 428
391 55 716
392 744 268
393 845 444
394 486 196
395 817 591
396 500 63
397 119 715
398 902 674
399 950 493
400 539 216
401 850 514
402 613 120
403 862 571
404 853 259
405 553 256
406 424 39
407 594 76
408 499 56
409 0 651
410 0 706
411 557 264
412 57 750
413 839 228
414 778 365
415 414 128
416 374 22
417 467 24
418 910 196
419 960 708
420 736 566
421 793 528
422 689 62
423 685 96
424 197 718
425 70 923
426 0 609
427 23 738
428 824 618
429 846 602
430 968 307
431 472 47
432 840 480
433 798 105
434 555 110
435 869 531
436 924 360
437 829 181
438 865 507
439 495 82
440 54 462
441 756 524
442 479 72
443 585 61
444 666 236
445 13 753
446 844 585
447 917 287
448 15 796
449 919 199
450 844 556
451 94 553
DEMAND_SECTION
2 19
3 56
4 71
5 90
6 5
7 34
8 47
9 56
10 53
11 87
12 28
13 15
14 89
15 60
16 85
17 41
18 52
19 74
20 63
21 72
22 82
23 35
24 48
25 39
26 46
27 78
28 41
29 15
30 77
31 30
32 72
33 93
34 53
35 95
36 29
37 90
38 82
39 73
40 18
41 69
42 31
43 99
44 46
45 92
46 66
47 4
48 27
49 99
50 27
51 3
52 14
53 7
54 16
55 15
56 61
57 39
58 26
59 97
60 3
61 71
62 80
63 10
64 64
65 14
66 4
67 8
68 88
69 11
70 21
71 51
72 3
73 68
74 74
75 44
76 95
77 3
78 67
79 4
80 23
81 19
82 39
83 45
84 49
85 15
86 58
87 96
88 95
89 2
90 41
91 37
92 29
93 62
94 1
95 62
96 68
97 23
98 12
99 74
100 15
101 56
102 13
103 93
104 15
105 8
106 22
107 98
108 39
109 51
110 80
111 89
112 89
113 56
114 29
115 80
116 33
117 98
118 98
119 7
120 65
121 82
122 32
123 75
124 83
125 93
126 30
127 13
128 99
129 74
130 19
131 71
132 74
133 28
134 50
135 30
136 72
137 41
138 15
139 40
140 44
141 39
142 98
143 88
144 40
145 61
146 37
147 84
148 33
149 59
150 28
151 76
152 87
153 31
154 39
155 90
156 32
157 65
158 58
159 92
160 74
161 21
162 64
163 77
164 32
165 30
166 20
167 88
168 88
169 20
170 95
171 48
172 77
173 71
174 10
175 28
176 92
177 88
178 4
179 36
180 15
181 3
182 37
183 31
184 76
185 3
186 2
187 60
188 40
189 83
190 76
191 25
192 8
193 17
194 89
195 70
196 53
197 65
COVERAGE_SECTION
2 11 239 169 17 75 141 50 98 72 136 243 5 
3 11 296 82 342 339 385 379 341 444 377 324 423 
4 11 92 213 189 259 54 45 157 175 208 63 41 
5 11 176 64 50 141 152 119 251 237 131 243 2 
6 11 16 204 232 57 102 145 288 40 179 137 131 
7 11 242 25 91 137 62 244 227 198 243 166 211 
8 11 39 311 270 22 416 309 415 249 406 388 222 
9 11 186 128 53 93 221 294 100 113 130 348 178 
10 11 392 212 313 118 180 341 196 262 327 385 154 
11 9 269 325 314 332 449 418 77 268 354 
12 11 68 294 48 93 53 348 128 440 113 221 186 
13 11 218 206 287 422 153 285 364 286 324 423 374 
14 10 352 373 355 87 405 400 411 271 123 277 
15 11 328 159 424 172 56 331 360 363 167 67 370 
16 11 288 40 6 140 32 156 248 166 102 145 137 
17 11 75 72 2 243 136 239 185 141 50 169 62 
18 11 432 34 393 76 386 230 401 438 124 149 209 
19 11 107 345 83 173 315 433 350 252 278 358 174 
20 11 190 109 94 181 108 136 132 185 115 75 62 
21 11 164 138 31 51 202 217 22 39 121 311 193 
22 11 39 311 8 202 249 21 222 223 415 121 270 
23 10 84 318 409 293 375 263 410 246 303 426 
24 11 168 120 116 139 121 219 202 44 164 31 193 
25 11 7 242 198 244 227 91 137 211 166 182 62 
26 11 80 144 229 183 110 60 238 147 65 98 162 
27 9 447 274 280 366 354 430 340 333 298 
28 11 356 398 89 114 320 381 273 210 194 233 201 
29 11 200 41 382 45 405 411 160 151 400 373 87 
30 11 49 143 70 165 74 210 89 236 122 114 28 
31 11 164 51 138 21 193 217 202 139 199 63 121 
32 11 156 40 248 335 288 140 16 99 69 38 148 
33 10 317 344 434 284 338 407 337 267 443 195 
34 11 386 76 432 18 124 230 393 401 438 361 421 
35 11 36 390 133 436 47 378 380 43 275 37 399 
36 11 133 47 436 380 35 390 316 366 43 291 393 
37 11 399 275 308 359 319 362 302 209 256 390 438 
38 11 234 66 112 154 134 69 99 335 196 32 118 
39 11 22 311 8 249 415 270 223 202 222 21 225 
40 11 288 32 16 140 156 248 335 166 102 6 99 
41 11 29 200 382 45 405 411 160 301 151 189 400 
42 11 310 417 250 276 247 431 406 387 295 192 388 
43 11 430 378 436 27 35 447 47 36 203 380 366 
44 11 231 120 219 24 116 168 121 202 139 225 222 
45 11 382 41 200 29 301 189 4 160 259 92 104 
46 11 162 65 117 110 238 60 424 144 158 215 307 
47 11 380 36 436 133 366 291 316 35 390 27 43 
48 11 440 113 178 294 12 126 266 197 125 93 88 
49 11 143 30 165 70 210 74 89 122 236 114 28 
50 11 141 5 64 176 2 119 17 72 152 243 239 
51 11 31 138 164 21 193 217 63 139 199 202 175 
52 11 86 95 101 173 353 299 252 278 358 19 79 
53 11 128 93 186 9 221 348 294 130 68 113 96 
54 11 259 213 189 92 99 4 157 151 45 41 29 
55 9 404 340 413 298 71 389 334 292 327 
56 10 159 328 15 290 363 167 370 369 172 424 
57 11 131 237 226 152 6 64 61 91 137 204 232 
58 11 103 208 161 96 175 150 199 130 100 9 193 
59 11 220 179 224 157 85 282 145 102 184 232 204 
60 11 110 65 144 46 162 238 117 265 229 357 307 
61 11 235 226 251 237 129 146 81 152 158 73 131 
62 11 185 136 227 242 72 7 108 243 17 75 25 
63 11 175 217 301 138 51 208 103 45 31 104 4 
64 11 5 141 50 152 176 243 131 237 72 119 251 
65 11 60 110 46 117 162 144 238 215 307 357 67 
66 11 234 38 414 69 154 230 196 386 180 118 441 
67 11 360 331 172 215 397 228 307 424 117 127 304 
68 11 12 348 221 93 53 294 128 186 9 130 48 
69 11 335 234 148 441 66 248 38 420 361 32 140 
70 11 30 49 74 143 165 210 122 115 89 236 114 
71 11 413 334 327 55 404 262 258 340 389 298 437 
72 11 243 17 75 141 2 50 185 136 64 62 239 
73 11 81 235 61 184 226 167 232 204 146 282 237 
74 11 115 70 49 30 122 165 143 181 227 210 108 
75 11 17 136 2 185 239 72 169 109 94 108 243 
76 11 34 124 432 401 18 386 149 438 351 421 171 
77 11 269 11 332 325 314 106 376 203 449 240 268 
78 11 214 425 97 205 163 371 142 265 207 448 147 
79 10 358 289 278 349 353 299 170 268 314 173 
80 11 26 183 144 98 169 238 119 110 239 60 229 
81 11 73 235 61 226 167 146 129 184 232 237 328 
82 11 296 3 342 324 339 379 423 385 285 153 377 
83 11 433 19 107 345 252 315 173 95 350 86 174 
84 11 23 409 318 293 410 375 263 246 426 303 306 
85 11 224 282 184 59 220 161 179 157 150 145 232 
86 11 95 52 173 252 101 353 299 19 278 83 107 
87 10 400 373 355 14 352 271 347 405 411 111 
88 11 125 451 266 126 323 321 369 383 197 90 290 
89 11 114 28 398 419 297 381 105 236 320 210 356 
90 11 426 323 197 318 409 23 84 88 266 126 125 
91 11 137 242 7 244 25 166 243 57 211 131 62 
92 11 4 213 259 189 54 157 45 59 41 29 200 
93 11 53 128 186 9 221 294 348 68 130 113 12 
94 11 109 20 190 108 132 136 181 185 75 17 239 
95 11 86 52 173 252 101 353 19 83 107 299 278 
96 11 199 130 193 221 348 58 139 53 9 128 103 
97 11 214 205 78 425 265 147 163 142 371 207 229 
98 11 169 239 183 2 132 75 80 17 50 141 94 
99 11 54 156 32 38 259 213 189 335 151 157 40 
100 11 150 9 186 128 53 93 113 161 58 178 294 
101 11 52 353 299 86 95 173 170 358 278 79 289 
102 11 145 179 220 204 59 157 232 156 6 16 40 
103 11 208 58 175 161 96 63 199 130 150 193 4 
104 11 223 187 301 394 160 415 111 330 382 217 311 
105 11 419 297 381 114 398 233 320 89 236 261 188 
106 11 203 376 332 325 354 269 11 430 77 280 447 
107 11 19 345 315 83 350 433 173 174 278 252 349 
108 11 109 181 185 136 190 20 94 115 75 62 17 
109 11 94 20 190 108 136 181 185 132 75 17 115 
110 11 60 144 65 238 162 46 117 26 158 215 229 
111 8 330 394 160 347 271 400 87 382 
112 11 134 154 196 118 38 313 151 341 444 123 10 
113 11 178 294 440 48 186 9 128 93 53 126 266 
114 11 89 398 381 105 419 297 320 28 233 236 356 
115 11 181 108 190 20 227 74 122 109 185 62 94 
116 11 219 121 168 202 24 222 225 249 44 164 22 
117 11 215 307 65 46 67 357 60 228 360 424 110 
118 11 196 154 313 10 180 392 212 112 341 414 134 
119 11 176 5 251 50 158 141 152 129 64 238 183 
120 11 24 168 44 139 116 68 219 348 231 121 221 
121 11 202 116 219 249 222 22 21 225 164 168 39 
122 11 227 182 165 115 210 74 25 198 62 7 49 
123 9 277 444 14 352 339 385 341 355 373 
124 11 76 421 351 34 361 386 171 401 432 149 18 
125 11 88 451 266 126 323 321 383 197 369 178 90 
126 11 266 125 88 197 451 440 178 323 48 90 113 
127 11 412 216 343 228 391 306 253 135 303 427 397 
128 11 53 93 186 9 221 294 348 130 113 68 100 
129 11 158 146 251 61 235 162 119 176 238 152 226 
130 11 96 199 221 348 53 128 9 93 193 186 139 
131 11 57 237 152 226 64 61 5 251 176 243 141 
132 11 94 109 20 98 190 169 75 239 136 108 2 
133 11 36 390 316 47 380 35 436 393 291 366 18 
134 11 112 154 151 313 196 118 38 123 411 444 341 
135 11 445 253 427 412 343 246 216 391 448 127 306 
136 11 185 75 108 109 17 94 62 72 190 20 181 
137 11 91 7 242 244 166 25 211 57 6 16 243 
138 11 51 31 21 164 217 193 63 202 22 175 139 
139 11 193 199 31 168 96 130 51 164 24 348 221 
140 11 248 288 40 335 32 166 16 211 148 156 69 
141 11 50 5 64 2 176 72 17 243 119 239 152 
142 11 207 163 371 357 265 425 78 214 216 448 205 
143 11 49 30 165 210 89 70 74 236 114 28 122 
144 11 110 60 238 65 162 46 26 80 117 229 158 
145 11 102 179 220 204 59 232 157 6 224 156 282 
146 11 129 158 235 61 251 162 81 167 46 328 226 
147 11 229 205 265 214 425 97 78 207 60 142 26 
148 11 420 248 69 260 441 335 140 312 211 361 421 
149 11 401 435 438 450 76 171 351 209 124 362 403 
150 11 161 100 58 85 282 224 103 208 184 9 186 
151 11 411 405 29 41 134 200 14 373 112 352 87 
152 11 237 5 64 251 176 131 226 61 50 119 57 
153 11 285 324 422 206 423 218 364 286 342 374 287 
154 11 196 118 112 313 180 134 10 66 414 38 392 
155 11 333 389 336 340 404 291 262 55 327 366 71 
156 11 32 40 288 99 16 102 248 335 140 145 179 
157 11 59 220 179 213 92 102 145 54 4 259 224 
158 11 129 146 251 162 238 119 176 61 46 235 152 
159 11 328 56 15 167 424 363 172 290 331 370 360 
160 11 394 111 330 347 271 400 382 87 200 104 29 
161 11 150 58 208 103 85 224 282 100 184 175 59 
162 11 46 238 65 110 158 144 60 117 129 146 424 
163 11 371 142 207 78 448 425 357 214 216 265 253 
164 11 31 21 51 138 202 193 217 139 121 22 168 
165 11 210 143 49 30 122 182 89 28 74 356 114 
166 11 211 244 140 137 288 16 248 198 91 25 40 
167 11 328 159 56 15 81 424 235 73 146 172 290 
168 11 24 139 116 121 120 202 164 219 31 193 21 
169 11 239 98 2 75 183 17 132 50 141 72 136 
170 11 240 299 353 79 289 358 278 101 77 314 52 
171 11 351 450 421 149 124 401 361 395 446 76 403 
172 10 331 360 397 67 15 424 304 228 363 370 
173 11 95 86 19 107 252 52 278 83 358 353 79 
174 11 437 350 315 258 345 334 255 71 413 107 433 
175 11 63 208 103 58 217 51 4 138 301 193 199 
176 11 119 5 152 251 50 64 141 158 237 129 61 
177 7 402 279 281 283 368 195 377 
178 11 113 440 294 48 126 266 125 88 451 186 9 
179 11 220 145 102 59 157 204 232 224 85 282 184 
180 11 212 414 118 196 10 392 262 336 154 155 327 
181 11 108 190 20 115 109 94 185 136 62 75 132 
182 10 273 198 210 122 356 28 165 25 227 312 
183 11 80 98 169 239 2 26 119 50 141 176 5 
184 11 282 224 85 59 232 73 220 204 179 145 81 
185 11 136 108 75 62 109 17 94 72 181 190 20 
186 11 9 128 53 93 294 221 113 348 100 130 178 
187 6 415 223 104 300 394 330 
188 11 264 261 256 233 302 319 346 245 194 359 320 
189 11 259 54 213 92 4 45 41 29 200 151 382 
190 11 20 109 94 181 108 136 185 132 115 75 62 
191 11 257 329 241 367 384 254 372 365 408 192 396 
192 11 408 396 431 276 442 295 326 322 367 439 417 
193 11 199 139 51 96 31 130 164 138 21 221 348 
194 11 201 346 429 261 264 320 446 428 233 245 403 
195 9 368 281 283 402 407 177 374 33 279 
196 11 154 118 180 313 10 112 414 392 212 134 66 
197 11 126 90 266 88 125 323 426 451 440 48 318 
198 10 25 244 211 182 166 273 312 7 260 242 
199 11 96 130 193 139 221 348 51 58 103 53 31 
200 11 29 41 382 45 405 411 160 400 111 87 373 
201 11 429 428 194 446 346 395 403 272 245 450 261 
202 11 121 21 164 22 31 39 249 116 138 222 51 
203 11 106 376 332 430 354 325 269 280 11 447 77 
204 11 232 145 6 102 179 220 184 59 73 282 224 
205 11 214 425 97 265 78 147 207 142 163 371 229 
206 11 422 218 153 285 287 13 364 324 423 286 374 
207 11 142 163 265 357 371 425 214 78 205 216 307 
208 11 103 58 175 161 63 4 96 150 199 130 92 
209 11 438 362 435 401 149 432 275 76 359 319 18 
210 11 165 28 182 89 356 143 49 114 273 122 398 
211 11 166 244 140 198 148 25 248 137 288 260 312 
212 11 392 262 10 180 327 118 155 389 71 196 313 
213 11 54 259 92 189 4 157 99 45 59 220 41 
214 11 425 205 78 97 265 142 163 207 147 371 229 
215 11 307 67 228 117 357 360 397 331 127 172 216 
216 11 412 127 253 135 343 228 427 448 445 391 357 
217 11 138 63 51 21 31 164 301 104 175 223 311 
218 11 206 13 422 153 287 285 364 324 423 286 374 
219 11 116 121 225 222 168 24 202 249 44 22 120 
220 11 179 59 145 102 157 224 85 204 232 282 184 
221 11 348 53 93 128 130 186 9 68 96 199 294 
222 11 225 249 8 39 22 121 416 202 270 309 116 
223 10 415 104 187 311 39 8 22 217 300 394 
224 11 85 282 184 59 220 179 161 157 145 232 204 
225 11 222 249 416 8 121 39 22 202 309 116 219 
226 11 237 61 131 152 235 57 251 81 73 129 146 
227 11 122 62 25 7 242 115 182 185 198 108 181 
228 11 127 215 307 67 397 360 216 412 331 357 172 
229 11 147 26 265 60 205 144 110 425 214 65 80 
230 11 386 34 18 393 432 76 124 316 361 421 401 
231 11 44 120 219 116 24 168 121 225 202 222 139 
232 11 204 145 179 6 102 220 184 73 59 282 224 
233 11 320 261 381 264 398 188 105 194 346 114 201 
234 11 66 69 38 230 441 386 414 154 335 361 196 
235 11 81 61 73 146 226 129 251 167 237 158 152 
236 11 297 419 114 105 89 381 398 320 233 28 143 
237 11 152 226 131 61 57 251 64 5 176 235 129 
238 11 162 144 110 46 158 65 60 129 119 146 117 
239 11 169 2 98 75 17 141 50 183 72 132 136 
240 11 170 299 353 77 79 289 358 101 278 314 269 
241 11 254 372 384 329 365 191 257 443 305 367 407 
242 11 7 91 25 137 62 244 227 243 198 166 72 
243 11 72 17 64 141 50 62 75 5 2 185 136 
244 11 211 166 25 198 137 7 242 91 140 288 148 
245 11 403 346 446 450 429 435 264 201 194 261 149 
246 11 427 410 303 391 343 135 306 445 412 23 84 
247 11 310 42 387 417 250 276 406 431 295 309 192 
248 11 140 335 32 40 288 148 69 156 16 166 211 
249 11 222 225 22 39 8 121 202 416 270 311 309 
250 11 406 42 310 388 276 417 295 431 387 247 192 
251 11 129 158 152 176 61 237 119 146 226 5 235 
252 11 95 86 173 83 52 19 107 433 345 101 315 
253 11 135 445 412 216 427 448 343 127 246 391 306 
254 11 372 241 365 384 443 305 329 191 257 407 367 
255 7 258 437 350 349 292 334 174 
256 11 302 319 359 188 264 308 261 362 399 37 245 
257 11 191 329 367 241 384 254 372 365 408 192 396 
258 8 255 437 334 174 350 413 292 71 
259 11 189 54 213 92 4 45 157 99 41 29 151 
260 10 312 420 272 148 395 441 428 421 361 273 
261 11 264 188 233 194 346 320 245 256 381 403 201 
262 11 327 212 389 71 155 392 55 333 404 413 334 
263 7 375 293 318 23 303 84 304 
264 11 261 188 233 346 194 245 256 320 403 302 319 
265 11 425 205 207 214 142 147 78 163 97 229 357 
266 11 126 125 88 451 197 440 178 323 90 48 113 
267 7 337 344 338 317 434 284 33 
268 5 418 449 314 349 11 
269 11 11 325 332 314 77 449 418 354 376 268 106 
270 10 309 406 416 8 250 388 387 310 42 300 
271 10 347 400 87 355 111 330 373 352 394 160 
272 10 395 428 429 446 201 312 260 171 450 351 
273 10 356 428 28 272 182 201 312 395 429 260 
274 8 447 27 280 354 340 298 366 404 
275 11 37 399 308 359 362 209 319 302 390 438 256 
276 11 431 417 295 192 42 250 310 442 408 396 388 
277 7 377 123 379 352 355 339 14 
278 10 358 79 289 349 353 173 299 19 107 268 
279 5 402 177 283 281 377 
280 7 274 354 447 27 298 292 376 
281 8 368 195 283 402 177 279 374 407 
282 11 224 85 184 59 220 179 161 232 145 204 150 
283 6 402 281 368 195 279 177 
284 6 434 338 317 267 344 33 
285 11 153 324 423 422 206 364 286 218 374 342 287 
286 11 364 374 423 422 285 324 287 195 206 153 281 
287 11 206 422 364 218 286 13 374 285 305 153 423 
288 11 40 16 140 248 32 156 166 335 6 211 148 
289 9 79 358 278 349 268 314 353 299 418 
290 9 369 321 363 383 56 370 451 88 125 
291 11 336 333 366 155 380 47 389 316 414 340 27 
292 4 298 418 55 413 
293 8 375 263 23 318 303 84 306 391 
294 11 113 93 128 186 53 9 12 178 48 440 68 
295 10 431 442 276 192 388 300 250 408 396 417 
296 11 3 82 342 339 379 385 324 377 423 177 444 
297 11 419 105 236 114 89 381 398 233 320 28 261 
298 6 292 55 340 404 413 280 
299 11 353 101 170 358 79 278 52 289 240 86 173 
300 8 388 442 295 439 431 192 276 326 
301 11 45 382 104 41 200 160 63 29 217 394 111 
302 11 319 256 359 308 188 362 37 399 264 275 245 
303 10 306 391 343 246 293 375 263 412 427 127 
304 7 370 397 363 263 331 172 375 
305 11 443 407 365 254 372 195 368 33 241 374 384 
306 10 391 303 343 246 412 127 293 427 375 263 
307 11 215 228 67 357 117 360 397 127 331 172 216 
308 11 399 37 275 359 319 302 256 362 209 435 438 
309 11 416 270 387 406 250 310 42 247 388 8 417 
310 11 42 247 250 417 387 406 276 431 295 388 192 
311 10 39 8 22 415 223 270 187 104 388 249 
312 10 260 420 272 395 428 148 273 441 421 361 
313 11 341 10 118 444 392 385 196 154 112 212 134 
314 9 11 269 449 268 325 418 289 332 77 
315 11 345 350 107 174 433 19 437 83 258 255 173 
316 11 133 393 390 36 380 47 18 291 230 432 34 
317 7 338 434 284 344 267 33 337 
318 10 23 293 375 84 263 409 426 323 90 303 
319 11 359 302 256 362 308 37 399 188 275 209 435 
320 11 398 381 233 194 261 105 264 114 28 188 201 
321 11 383 290 451 125 88 369 56 266 178 126 363 
322 7 326 396 439 408 442 192 267 
323 9 90 318 426 88 369 125 451 263 375 
324 11 285 423 153 422 342 286 364 206 374 82 218 
325 10 11 269 332 314 449 354 418 376 77 268 
326 6 322 439 396 408 442 192 
327 11 262 71 389 413 212 55 334 404 155 340 392 
328 11 159 167 15 56 424 172 331 363 146 360 290 
329 11 257 191 384 367 241 254 365 372 408 192 396 
330 7 111 394 160 347 271 400 87 
331 10 172 360 397 67 304 15 424 228 363 370 
332 10 325 269 376 106 11 203 354 77 314 449 
333 11 155 389 336 340 404 291 55 366 262 274 327 
334 11 413 71 258 437 55 255 174 327 292 298 404 
335 11 248 69 32 140 148 40 288 156 38 234 420 
336 11 291 155 333 389 366 414 180 262 340 380 404 
337 8 344 267 317 338 434 33 284 322 
338 7 434 284 317 267 344 33 337 
339 10 379 385 444 3 377 296 341 277 123 82 
340 10 404 55 298 389 333 413 155 71 292 274 
341 11 444 385 313 339 10 123 392 3 379 118 296 
342 11 82 296 3 324 423 285 153 339 379 422 286 
343 11 391 306 412 303 127 427 246 135 253 216 445 
344 7 337 267 317 338 434 33 284 
345 11 315 107 19 433 350 174 83 437 255 258 173 
346 11 245 403 429 446 194 201 261 264 450 395 428 
347 10 271 111 330 400 394 87 160 355 373 352 
348 11 221 53 68 93 128 130 186 9 96 294 199 
349 9 268 289 255 418 278 79 358 350 449 
350 10 437 255 315 174 345 258 107 19 349 334 
351 11 171 421 124 450 149 361 76 401 435 395 446 
352 9 14 355 373 87 400 405 271 411 277 
353 11 299 101 358 79 278 52 170 289 86 173 95 
354 8 280 376 325 332 274 447 449 11 
355 9 352 87 14 373 400 271 347 405 277 
356 10 28 273 428 398 201 320 194 210 182 381 
357 11 307 215 207 228 142 216 117 127 67 163 412 
358 11 278 79 289 353 349 299 173 170 268 19 314 
359 11 319 302 256 362 308 37 399 275 209 435 188 
360 10 331 67 172 397 228 215 307 304 424 15 
361 11 421 441 124 351 171 76 386 34 420 401 149 
362 11 209 435 438 359 319 149 401 302 275 37 245 
363 7 370 304 369 290 56 172 331 
364 11 286 374 422 423 285 287 206 324 153 195 368 
365 11 443 384 254 372 241 305 407 329 337 344 33 
366 11 380 27 47 291 333 447 274 436 336 155 36 
367 11 329 408 192 396 257 191 384 322 326 431 276 
368 9 195 281 283 402 177 407 279 374 33 
369 7 290 370 363 323 451 88 304 
370 7 363 304 369 263 290 397 172 
371 11 163 142 448 207 78 425 216 253 357 214 135 
372 11 254 241 365 384 305 443 329 191 257 407 367 
373 10 14 87 352 355 400 405 411 271 347 123 
374 11 286 364 195 368 281 423 177 402 422 283 285 
375 8 293 263 318 23 303 84 306 391 
376 10 203 106 332 354 325 269 280 11 430 447 
377 5 379 279 177 277 339 
378 11 43 35 430 436 36 47 380 133 390 203 27 
379 8 377 339 277 279 177 296 3 385 
380 11 47 36 436 366 133 291 316 27 35 390 336 
381 11 398 320 233 105 114 261 419 194 89 297 28 
382 11 41 200 45 29 301 160 111 394 330 347 104 
383 11 321 290 451 125 88 369 56 178 266 126 363 
384 11 329 365 241 254 372 257 191 367 443 337 305 
385 11 444 341 339 3 313 379 123 296 82 277 10 
386 11 34 230 18 76 432 124 393 361 421 401 351 
387 11 310 406 247 42 309 250 417 416 270 276 388 
388 9 300 295 250 406 431 442 276 42 310 
389 11 155 333 404 340 55 262 327 71 336 413 298 
390 11 133 36 35 316 393 47 275 380 436 37 18 
391 11 306 303 343 246 412 127 427 135 293 375 253 
392 11 10 212 262 313 118 180 327 341 196 385 444 
393 11 18 432 316 230 34 386 76 390 133 438 401 
394 9 111 330 160 347 271 400 104 187 87 
395 10 272 428 446 429 201 450 171 403 351 346 
396 10 408 326 322 192 439 442 431 367 295 276 
397 10 360 331 172 67 304 228 127 306 370 215 
398 11 381 320 114 233 105 28 89 194 261 419 297 
399 11 37 308 275 359 319 302 362 209 256 390 35 
400 11 87 271 373 347 355 14 352 405 111 330 411 
401 11 149 438 435 76 209 432 124 351 171 450 362 
402 6 283 281 368 279 177 195 
403 11 245 346 446 450 429 435 149 201 171 395 194 
404 9 340 55 389 298 413 333 71 155 292 
405 11 411 373 14 87 352 400 355 151 29 200 271 
406 11 250 310 387 42 388 309 270 276 247 295 417 
407 11 443 305 33 195 368 365 281 344 283 317 337 
408 10 396 192 326 322 439 442 367 431 276 295 
409 11 84 23 318 426 293 375 410 263 90 246 323 
410 11 246 427 84 23 445 135 303 409 391 343 306 
411 11 405 373 14 151 352 87 400 355 29 200 41 
412 11 127 343 216 253 135 391 427 306 445 303 246 
413 9 71 334 55 404 298 258 340 292 327 
414 11 180 336 196 291 66 118 154 155 212 316 230 
415 9 223 187 311 300 388 8 104 39 270 
416 11 309 270 387 406 8 250 310 42 247 388 249 
417 11 42 276 310 431 247 250 192 295 408 406 367 
418 5 449 268 314 292 11 
419 11 297 105 236 114 89 381 398 233 320 28 261 
420 10 260 148 312 441 361 421 272 395 351 69 
421 11 361 124 351 171 441 76 34 386 149 450 401 
422 11 206 285 153 364 218 423 286 287 324 374 13 
423 11 324 285 153 286 364 422 374 206 342 177 218 
424 11 15 172 331 328 360 67 159 397 46 117 215 
425 11 214 205 78 265 97 142 207 163 371 147 357 
426 10 90 409 318 323 84 23 197 293 375 263 
427 11 135 445 246 253 343 412 391 410 303 306 127 
428 10 201 429 395 272 446 194 346 403 273 450 
429 11 201 446 428 346 395 194 403 245 272 450 171 
430 11 43 203 447 376 27 106 378 436 274 280 354 
431 11 276 295 192 417 442 408 42 396 250 310 388 
432 11 18 34 76 386 401 393 438 124 149 230 209 
433 11 83 345 315 107 19 350 174 252 173 437 342 
434 6 338 284 317 267 344 33 
435 11 149 438 401 362 209 450 403 245 171 76 351 
436 11 47 36 380 43 35 366 133 27 430 378 390 
437 9 174 258 350 255 334 315 413 71 345 
438 11 401 209 149 435 362 76 432 18 34 450 124 
439 6 326 322 442 396 408 192 
440 11 48 178 113 126 266 294 125 197 12 88 451 
441 11 361 421 420 124 351 148 171 386 69 260 34 
442 10 295 439 192 396 326 408 431 300 322 276 
443 11 407 365 305 33 254 384 372 344 337 195 241 
444 11 341 385 339 123 313 379 277 3 10 377 296 
445 11 135 427 253 246 448 412 343 410 216 391 127 
446 11 429 403 395 201 450 346 245 428 272 171 194 
447 8 27 274 280 354 366 430 376 298 
448 11 253 445 135 216 371 427 412 163 127 343 246 
449 6 418 268 314 11 325 269 
450 11 403 171 446 149 351 245 435 401 395 346 429 
451 11 88 125 266 126 321 383 369 323 290 197 178 
DEPOT_SECTION
   1
   -1
EOF
