NAME :  X-n439-kX-w87-c11.cctp
COMMENT : 	Adapted by Maziero, Usberti and Cavellucci from the Uchoa, Pecin, Pessoa, Poggi, Subramanian, and Vidal (2013)
TYPE :  CCTP
DIMENSION :    350
EDGE_WEIGHT_TYPE : 	EUC_2D	
CAPACITY : 	12
VERTICES_WITHIN_COVERAGE :  11
VERTICES_WITH_DEMAND : 	87
NODE_COORD_SECTION
1 500 500
2 769 259
3 91 377
4 108 338
5 816 567
6 698 341
7 741 237
8 601 140
9 63 359
10 215 608
11 979 914
12 911 697
13 440 593
14 922 765
15 185 756
16 486 158
17 993 628
18 241 33
19 200 756
20 856 440
21 471 712
22 929 649
23 811 44
24 125 727
25 830 484
26 568 366
27 261 394
28 478 965
29 726 474
30 68 952
31 747 716
32 678 366
33 17 603
34 169 689
35 916 565
36 564 913
37 268 681
38 937 878
39 370 634
40 555 847
41 246 911
42 267 333
43 166 257
44 147 179
45 418 383
46 382 886
47 312 911
48 416 186
49 457 582
50 334 882
51 269 710
52 513 910
53 739 882
54 503 682
55 451 911
56 171 656
57 843 44
58 94 165
59 726 411
60 197 498
61 49 726
62 645 224
63 915 247
64 981 775
65 844 973
66 519 268
67 291 97
68 986 589
69 414 719
70 407 720
71 82 782
72 255 312
73 151 291
74 831 520
75 970 760
76 912 77
77 150 909
78 638 624
79 585 630
80 655 287
81 708 178
82 503 504
83 14 634
84 261 106
85 825 599
86 433 646
87 298 153
88 88 970
89 704 58
90 258 52
91 930 209
92 570 72
93 252 338
94 141 741
95 353 966
96 718 880
97 581 608
98 469 225
99 623 619
100 501 929
101 359 117
102 128 931
103 953 786
104 30 752
105 157 419
106 637 668
107 454 640
108 888 420
109 937 231
110 252 161
111 453 708
112 995 666
113 998 151
114 977 113
115 970 790
116 604 21
117 128 917
118 122 40
119 846 937
120 586 561
121 806 751
122 312 123
123 139 930
124 479 760
125 69 875
126 698 197
127 726 250
128 782 561
129 43 320
130 757 331
131 898 518
132 133 541
133 497 279
134 25 118
135 880 166
136 529 957
137 60 701
138 567 295
139 66 72
140 535 391
141 30 683
142 447 677
143 362 365
144 540 747
145 500 86
146 555 154
147 275 341
148 299 644
149 890 504
150 42 970
151 496 177
152 789 679
153 770 402
154 545 735
155 504 867
156 708 580
157 218 232
158 339 760
159 710 910
160 99 352
161 564 708
162 875 761
163 376 398
164 667 49
165 774 666
166 728 515
167 676 316
168 961 518
169 811 724
170 551 563
171 484 538
172 862 621
173 589 636
174 574 712
175 879 326
176 77 733
177 476 800
178 107 535
179 642 249
180 793 754
181 37 871
182 760 614
183 420 78
184 312 676
185 919 95
186 605 144
187 763 884
188 528 760
189 9 106
190 214 887
191 323 338
192 253 819
193 628 365
194 128 138
195 705 400
196 571 979
197 931 739
198 764 26
199 162 169
200 338 947
201 769 882
202 480 60
203 635 657
204 292 467
205 136 228
206 866 390
207 813 727
208 271 154
209 196 682
210 250 283
211 950 598
212 244 524
213 583 858
214 748 608
215 254 471
216 115 623
217 159 246
218 847 676
219 281 865
220 842 436
221 503 302
222 385 201
223 222 615
224 589 627
225 400 209
226 141 757
227 730 710
228 242 378
229 175 791
230 194 777
231 190 651
232 312 187
233 730 646
234 306 316
235 390 185
236 767 916
237 950 134
238 259 336
239 218 666
240 405 778
241 176 687
242 164 230
243 475 364
244 430 195
245 159 665
246 385 195
247 784 688
248 802 671
249 273 68
250 115 719
251 201 591
252 126 178
253 328 138
254 170 673
255 43 227
256 964 859
257 282 187
258 645 937
259 88 608
260 469 662
261 194 760
262 307 322
263 814 726
264 44 357
265 754 663
266 457 666
267 302 159
268 224 678
269 119 717
270 611 940
271 359 422
272 930 449
273 727 839
274 865 435
275 865 403
276 640 408
277 574 311
278 205 298
279 634 902
280 378 170
281 290 86
282 904 421
283 439 192
284 899 450
285 623 138
286 246 268
287 155 167
288 164 337
289 432 202
290 296 166
291 943 753
292 206 641
293 796 849
294 196 585
295 189 611
296 818 409
297 95 550
298 727 707
299 190 624
300 161 32
301 739 302
302 769 778
303 68 320
304 952 269
305 193 734
306 605 969
307 130 185
308 418 214
309 978 671
310 952 836
311 270 271
312 771 647
313 196 8
314 266 151
315 914 448
316 878 317
317 68 190
318 883 786
319 839 318
320 243 672
321 652 671
322 668 495
323 343 94
324 215 0
325 269 280
326 676 898
327 282 320
328 185 62
329 251 159
330 56 273
331 133 311
332 239 64
333 378 491
334 252 657
335 182 66
336 748 760
337 154 103
338 656 923
339 230 160
340 363 344
341 729 319
342 285 650
343 331 10
344 199 630
345 781 445
346 590 258
347 56 412
348 208 238
349 197 739
350 455 395
DEMAND_SECTION
2 1
3 1
4 1
5 1
6 1
7 1
8 1
9 1
10 1
11 1
12 1
13 1
14 1
15 1
16 1
17 1
18 1
19 1
20 1
21 1
22 1
23 1
24 1
25 1
26 1
27 1
28 1
29 1
30 1
31 1
32 1
33 1
34 1
35 1
36 1
37 1
38 1
39 1
40 1
41 1
42 1
43 1
44 1
45 1
46 1
47 1
48 1
49 1
50 1
51 1
52 1
53 1
54 1
55 1
56 1
57 1
58 1
59 1
60 1
61 1
62 1
63 1
64 1
65 1
66 1
67 1
68 1
69 1
70 1
71 1
72 1
73 1
74 1
75 1
76 1
77 1
78 1
79 1
80 1
81 1
82 1
83 1
84 1
85 1
86 1
87 1
88 1
COVERAGE_SECTION
2 10 7 127 301 341 130 319 126 81 6 167 
3 11 160 9 4 347 264 303 129 105 331 288 73 
4 11 160 331 3 303 9 288 73 129 264 330 347 
5 11 85 128 74 172 182 214 25 312 131 149 35 
6 11 32 167 341 301 195 130 80 193 59 276 153 
7 11 127 2 126 301 81 341 130 62 80 179 167 
8 11 186 285 146 92 62 151 164 126 81 145 16 
9 9 264 3 160 303 129 4 347 331 330 
10 11 223 251 295 344 294 299 292 231 239 334 56 
11 11 38 256 310 115 103 119 64 65 75 14 318 
12 11 197 22 291 218 14 309 162 75 112 172 318 
13 11 49 107 86 171 260 266 39 142 54 82 170 
14 11 291 197 103 318 162 75 115 64 12 310 256 
15 11 261 19 349 230 305 229 226 94 24 34 241 
16 11 151 283 244 98 146 289 145 48 308 202 225 
17 11 112 68 309 211 22 35 12 168 197 172 75 
18 11 90 332 324 249 313 328 335 281 84 300 67 
19 11 261 15 349 230 305 229 226 94 241 34 209 
20 10 274 220 108 275 284 296 25 206 282 315 
21 11 111 142 54 266 124 260 69 70 107 188 86 
22 11 12 309 211 17 112 172 68 35 218 197 291 
23 11 57 198 76 89 185 135 164 237 81 114 126 
24 11 269 250 94 226 176 34 241 15 305 71 137 
25 11 74 220 20 274 149 345 131 296 284 5 108 
26 11 140 277 193 138 276 221 243 32 66 346 133 
27 11 228 147 93 238 42 215 327 204 72 191 262 
28 11 100 136 55 52 196 36 155 46 95 306 270 
29 11 166 322 345 59 195 153 128 25 156 276 296 
30 11 88 150 102 117 123 125 181 77 190 71 41 
31 11 227 298 336 247 265 152 165 180 169 302 207 
32 11 6 195 167 193 276 59 341 80 130 301 153 
33 11 83 259 141 297 216 137 178 61 132 176 104 
34 11 241 254 245 209 56 231 305 239 268 269 349 
35 11 211 131 168 149 68 172 22 74 85 17 5 
36 11 52 270 136 213 100 196 40 306 279 155 258 
37 11 320 51 334 342 184 268 148 239 209 292 223 
38 11 256 310 11 103 115 318 119 64 14 75 291 
39 11 86 148 184 13 107 342 142 266 70 69 49 
40 6 213 155 36 52 188 177 
41 11 190 219 47 192 50 77 200 123 117 95 102 
42 11 238 147 93 327 72 262 234 228 210 325 191 
43 8 217 242 73 205 348 278 157 331 
44 11 287 199 307 252 194 205 242 58 217 337 43 
45 7 350 163 143 243 340 271 191 
46 11 50 55 47 200 95 219 240 155 28 100 177 
47 11 50 200 219 41 95 46 190 192 55 158 77 
48 9 244 289 283 235 225 308 246 222 280 
49 11 13 171 107 86 260 266 82 142 170 39 54 
50 11 47 46 219 200 95 41 192 190 55 158 240 
51 11 37 320 184 268 334 342 239 148 209 349 305 
52 11 100 155 136 36 55 28 40 213 196 270 306 
53 8 96 187 201 159 236 273 326 293 
54 11 260 21 266 111 142 107 161 154 144 174 86 
55 11 100 28 52 155 46 136 95 36 177 200 50 
56 11 245 254 231 241 34 209 299 292 344 239 295 
57 11 23 76 198 185 135 89 237 114 164 91 113 
58 10 252 317 307 194 44 287 199 205 255 134 
59 11 195 153 29 345 32 6 130 276 296 341 322 
60 11 212 215 132 294 105 251 178 204 10 295 297 
61 11 137 176 104 141 71 250 269 24 94 226 83 
62 11 179 126 80 346 81 127 186 285 8 7 167 
63 9 109 91 304 316 175 135 319 237 113 
64 11 75 115 103 291 14 197 310 256 318 309 12 
65 10 119 236 201 187 38 293 53 11 159 96 
66 8 133 221 138 98 277 346 151 243 
67 11 281 84 122 249 323 253 87 90 208 314 332 
68 11 211 17 35 168 112 309 22 131 149 172 12 
69 11 70 111 142 21 240 266 86 124 260 158 107 
70 11 69 111 240 142 21 266 86 158 124 260 107 
71 11 176 104 226 61 24 250 94 269 137 229 125 
72 11 42 238 93 327 210 147 325 311 286 234 278 
73 10 331 43 217 288 278 242 4 205 348 160 
74 11 25 5 149 128 131 85 20 220 345 274 35 
75 11 64 291 115 103 197 14 310 12 309 318 162 
76 11 185 237 114 57 135 23 113 91 109 198 63 
77 11 117 123 102 190 88 125 30 41 181 229 150 
78 11 99 203 106 224 321 173 79 97 120 156 233 
79 11 224 173 97 99 78 203 106 120 170 321 161 
80 11 167 179 62 6 346 127 341 32 193 277 301 
81 11 126 7 127 62 285 179 2 186 8 89 80 
82 11 171 170 49 120 13 140 350 333 97 243 107 
83 11 33 141 259 137 61 216 176 297 104 250 269 
84 11 67 281 249 314 332 208 90 122 329 110 87 
85 11 5 172 128 182 312 248 214 74 218 165 152 
86 11 107 266 142 260 13 39 111 49 69 21 70 
87 10 267 290 208 314 122 253 232 257 110 329 
88 11 30 150 102 123 117 77 125 181 190 41 71 
89 11 164 198 116 23 285 81 186 8 92 126 57 
90 11 249 332 18 281 84 67 324 328 313 335 343 
91 11 109 63 304 135 237 113 114 185 316 175 76 
92 11 116 145 8 186 146 285 202 164 16 151 89 
93 11 238 42 147 72 327 228 210 27 262 234 325 
94 11 226 24 269 250 15 305 261 349 34 229 19 
95 11 200 47 46 50 55 41 219 28 100 190 52 
96 8 53 159 273 187 326 201 236 338 
97 11 224 79 173 99 120 170 78 203 106 321 161 
98 9 289 283 244 308 151 133 48 66 16 
99 11 78 224 173 79 203 97 106 321 120 170 156 
100 11 52 136 28 55 155 36 196 40 213 270 306 
101 5 323 253 122 280 67 
102 11 123 117 77 88 30 125 150 190 181 41 229 
103 11 115 64 75 291 14 310 197 318 256 162 38 
104 11 61 176 137 71 141 250 269 24 226 94 83 
105 11 3 288 60 160 228 4 347 27 215 331 9 
106 11 203 321 78 99 173 224 79 174 97 161 233 
107 11 86 266 260 142 13 49 54 111 21 39 69 
108 9 282 274 275 284 206 20 315 220 272 
109 11 91 63 304 135 237 113 316 175 114 319 185 
110 9 329 314 208 339 257 290 87 267 84 
111 11 21 142 69 266 70 260 54 124 86 107 240 
112 11 309 17 22 68 211 12 75 197 291 64 14 
113 11 114 237 91 185 109 76 135 63 304 57 316 
114 11 237 113 185 76 91 135 109 63 57 304 23 
115 11 103 64 75 291 310 14 197 256 318 38 162 
116 11 92 164 89 8 285 145 186 202 146 198 16 
117 11 102 123 77 88 30 125 190 150 181 41 229 
118 11 300 139 335 328 337 313 194 324 18 332 134 
119 10 65 236 201 187 293 38 53 11 159 96 
120 11 170 97 224 79 99 173 78 82 171 322 203 
121 8 180 207 263 169 302 336 247 31 
122 10 253 67 87 267 323 281 290 101 208 84 
123 11 102 117 77 88 30 190 125 150 41 181 229 
124 10 177 21 188 111 144 154 240 69 54 70 
125 11 181 117 30 102 77 123 71 88 150 104 229 
126 11 81 7 62 127 179 2 285 80 186 8 301 
127 11 7 2 301 126 341 81 80 167 179 62 130 
128 11 5 85 182 214 74 166 156 312 25 172 233 
129 7 303 264 9 330 160 4 3 
130 10 341 301 6 153 2 167 319 32 59 195 
131 11 149 35 168 74 284 315 25 272 20 274 211 
132 11 178 297 60 294 259 216 251 295 299 10 344 
133 8 221 66 98 138 277 243 346 289 
134 10 189 139 58 317 194 255 252 118 307 337 
135 11 91 237 185 109 63 76 114 113 304 57 23 
136 11 100 196 52 28 36 306 270 55 155 40 213 
137 11 61 141 176 250 104 269 24 83 71 94 216 
138 11 277 346 66 221 26 133 80 179 193 140 62 
139 11 134 118 189 194 337 58 300 335 317 328 252 
140 11 26 243 350 277 221 193 138 276 45 82 133 
141 11 137 61 83 104 176 33 250 259 269 216 24 
142 11 266 260 111 86 107 21 69 54 70 13 39 
143 7 340 163 191 271 45 262 234 
144 7 154 188 161 174 124 54 21 
145 10 202 92 16 183 146 151 8 186 283 116 
146 11 8 186 151 16 285 92 145 346 98 62 66 
147 10 42 238 327 93 72 262 234 191 228 27 
148 11 342 184 37 334 320 39 51 223 268 239 10 
149 11 131 284 74 315 25 35 272 20 168 274 220 
150 11 30 88 102 125 181 117 123 77 190 71 41 
151 10 16 98 283 146 244 289 48 308 145 66 
152 11 247 248 165 312 265 169 263 207 31 218 227 
153 9 345 59 296 195 130 220 29 341 6 
154 7 144 188 161 174 54 124 21 
155 11 52 40 100 55 177 36 213 136 28 124 188 
156 11 214 182 166 233 128 78 312 99 322 265 203 
157 5 348 286 242 43 210 
158 11 240 70 69 51 184 192 37 219 50 148 342 
159 10 96 326 53 338 236 187 201 258 273 279 
160 11 4 3 9 303 331 264 129 288 347 73 105 
161 7 174 154 144 188 54 173 79 
162 11 318 14 197 291 121 263 207 12 169 103 180 
163 8 271 143 45 340 350 191 333 262 
164 11 89 116 285 92 198 8 186 81 23 126 146 
165 11 312 152 265 247 248 233 182 31 227 298 214 
166 11 29 322 156 128 345 214 5 74 59 182 25 
167 11 6 80 32 341 301 193 179 130 127 195 62 
168 8 131 35 149 68 272 211 315 284 
169 9 207 263 121 180 247 152 248 218 31 
170 11 120 97 171 224 79 82 173 99 49 78 13 
171 11 82 49 13 170 120 107 333 86 97 260 266 
172 11 85 218 5 22 35 248 12 211 152 312 165 
173 11 79 224 97 99 78 203 106 321 120 161 174 
174 7 161 154 144 188 54 106 173 
175 7 316 319 206 275 63 304 108 
176 11 61 137 250 269 24 71 104 94 226 141 34 
177 10 124 188 155 240 144 21 40 111 154 69 
178 11 297 132 259 216 60 294 251 295 33 299 105 
179 11 62 80 346 167 126 127 138 277 81 7 6 
180 7 121 207 302 169 263 336 31 
181 11 125 30 150 71 117 102 88 123 77 104 176 
182 11 214 312 233 265 165 128 156 85 152 248 5 
183 8 202 101 323 145 280 16 48 253 
184 11 148 342 37 51 334 320 39 158 268 239 70 
185 11 76 237 114 135 57 113 91 23 109 63 198 
186 11 8 285 146 92 62 126 81 179 164 151 346 
187 8 201 53 236 96 293 273 159 326 
188 8 144 154 124 161 174 177 21 54 
189 10 134 139 58 317 194 255 118 252 307 337 
190 11 41 77 219 192 123 117 102 47 229 230 50 
191 7 262 234 340 327 143 147 42 
192 11 219 230 190 19 229 261 41 15 349 50 158 
193 11 276 32 26 167 6 277 80 195 138 140 59 
194 11 252 287 58 337 44 199 307 317 205 335 139 
195 11 59 32 6 153 276 29 341 193 130 345 167 
196 11 306 136 270 36 258 100 52 28 279 338 213 
197 11 291 14 75 12 103 162 64 115 318 309 22 
198 11 23 89 57 164 76 116 81 185 285 135 126 
199 11 287 44 307 252 194 242 205 337 58 339 217 
200 11 95 47 50 46 41 219 55 190 28 192 100 
201 7 187 53 236 293 96 273 159 
202 9 145 183 92 16 151 146 116 101 283 
203 11 106 321 78 99 173 224 79 97 174 161 233 
204 11 215 212 27 271 333 60 228 163 143 147 191 
205 9 242 217 43 307 44 252 199 287 73 
206 8 275 108 274 282 20 220 296 175 
207 9 263 169 121 180 247 152 248 218 31 
208 10 314 110 329 87 290 267 257 339 84 122 
209 11 241 239 34 254 268 231 56 245 292 320 305 
210 8 286 325 311 72 278 327 42 238 
211 11 68 35 17 22 309 168 112 172 131 12 149 
212 11 60 215 204 294 251 10 223 295 132 299 344 
213 5 40 36 279 155 52 
214 11 182 233 312 156 265 128 165 85 5 152 248 
215 11 204 212 60 27 228 105 271 333 294 251 147 
216 11 259 245 56 254 295 299 297 231 132 344 34 
217 10 43 242 205 73 348 157 44 307 278 331 
218 11 248 172 152 169 263 207 247 12 165 85 312 
219 11 192 47 50 41 190 200 46 158 95 230 229 
220 10 20 274 296 275 25 108 206 284 345 282 
221 9 133 66 138 243 277 98 26 140 346 
222 5 246 225 235 280 48 
223 11 10 344 292 251 295 299 294 231 239 334 320 
224 11 79 173 97 99 78 203 106 120 170 321 161 
225 7 222 308 246 235 48 244 289 
226 11 94 24 15 250 269 229 261 230 305 19 349 
227 10 298 31 265 336 247 165 233 152 312 180 
228 11 27 93 238 147 42 72 327 262 278 288 234 
229 11 230 15 261 19 226 349 94 305 24 192 71 
230 11 261 19 15 229 349 305 226 94 192 24 34 
231 11 292 56 344 299 254 209 239 245 241 295 34 
232 4 290 257 267 87 
233 11 265 312 214 182 165 298 227 152 247 156 31 
234 5 262 327 191 147 42 
235 5 246 222 280 48 225 
236 10 187 201 53 159 96 293 119 273 326 65 
237 11 114 185 113 76 135 91 109 63 304 57 23 
238 11 93 42 147 72 327 228 262 234 210 325 27 
239 11 268 320 209 292 231 334 344 241 56 254 299 
240 11 70 69 158 177 124 111 21 142 46 266 188 
241 11 34 254 209 245 56 231 239 268 305 292 349 
242 11 217 43 205 348 44 157 307 199 73 252 287 
243 8 350 45 140 221 133 26 163 66 
244 9 289 283 48 308 225 235 222 246 98 
245 11 254 56 34 241 231 209 299 292 344 239 216 
246 5 222 235 225 280 48 
247 11 152 165 248 265 312 169 31 263 207 227 298 
248 11 152 247 165 312 218 265 169 263 207 31 182 
249 11 90 281 67 332 84 18 122 323 343 314 208 
250 11 269 24 94 176 226 137 34 61 241 245 71 
251 11 294 10 295 223 299 344 292 231 56 239 212 
252 11 307 44 287 58 199 194 205 317 242 217 337 
253 7 122 267 87 101 290 323 232 
254 11 245 241 34 56 209 231 292 239 344 299 268 
255 4 317 330 58 129 
256 11 310 38 11 115 103 64 75 14 291 318 197 
257 8 290 232 267 208 87 314 110 329 
258 9 338 270 279 326 306 159 36 196 96 
259 11 216 297 33 178 83 132 245 141 56 137 295 
260 11 266 107 142 54 86 111 21 13 69 49 70 
261 11 19 15 230 349 305 229 226 94 34 241 24 
262 6 234 191 327 147 42 238 
263 9 207 169 121 180 247 152 248 218 31 
264 9 9 129 303 3 160 347 4 330 331 
265 11 165 312 233 152 247 182 248 298 31 227 214 
266 11 260 142 107 86 111 21 54 69 70 13 49 
267 9 87 290 232 208 253 257 122 314 110 
268 11 239 320 209 334 292 231 37 241 254 344 51 
269 11 250 24 94 176 226 34 137 241 245 254 61 
270 10 306 258 279 338 36 196 326 136 213 52 
271 9 163 143 45 333 340 204 191 350 27 
272 7 315 284 282 108 274 149 20 
273 5 96 53 187 201 293 
274 10 20 220 108 275 284 282 206 315 296 25 
275 8 206 108 274 20 220 282 296 284 
276 11 193 32 195 26 59 6 322 167 140 29 277 
277 11 138 26 346 66 221 193 133 80 140 179 167 
278 10 210 286 72 73 43 288 348 93 238 325 
279 8 338 258 326 270 213 36 306 159 
280 4 235 246 222 48 
281 11 67 249 84 122 90 323 332 253 87 314 208 
282 8 108 284 315 272 274 275 206 20 
283 10 244 289 48 308 225 98 235 246 222 16 
284 9 315 282 272 108 274 20 149 275 220 
285 11 186 8 146 92 62 81 126 164 179 89 116 
286 7 210 311 325 72 157 348 278 
287 11 199 44 252 307 194 58 205 242 337 339 217 
288 11 331 73 4 278 160 43 105 3 93 228 217 
289 9 244 283 308 48 225 98 235 222 246 
290 9 267 87 257 232 208 314 253 110 122 
291 11 197 14 75 103 64 115 12 162 318 310 309 
292 11 344 231 299 239 223 10 295 56 268 209 254 
293 6 201 187 53 273 236 302 
294 11 251 295 10 299 223 344 292 231 56 132 212 
295 11 299 344 251 10 294 223 292 231 56 239 245 
296 8 220 275 20 153 206 345 274 108 
297 11 178 132 259 216 33 294 295 60 251 83 299 
298 9 227 31 265 336 247 233 165 152 312 
299 11 344 295 292 231 10 223 251 56 294 239 245 
300 11 328 118 335 313 324 337 18 332 90 139 194 
301 10 341 130 2 127 6 7 167 80 32 319 
302 5 336 180 121 31 207 
303 8 129 9 4 264 160 330 3 331 
304 8 109 63 91 316 175 319 135 113 
305 11 349 15 19 261 230 241 34 94 209 226 229 
306 11 270 196 258 36 338 279 136 326 52 100 213 
307 11 252 44 287 199 58 205 194 242 317 217 43 
308 8 289 225 244 48 283 222 246 235 
309 11 112 17 22 12 211 68 197 75 291 64 14 
310 11 256 38 115 103 64 14 75 11 291 318 197 
311 4 325 210 286 72 
312 11 165 265 182 152 248 233 247 214 85 31 298 
313 11 324 300 18 328 335 332 90 118 249 337 84 
314 10 208 110 329 87 290 267 339 257 84 122 
315 7 284 272 282 108 274 20 149 
316 7 175 319 206 63 275 304 108 
317 7 58 255 252 307 205 194 44 
318 10 162 14 197 291 103 121 310 115 75 263 
319 8 316 175 206 130 275 2 296 301 
320 11 334 268 239 37 51 342 209 292 231 223 344 
321 11 106 203 78 99 173 224 79 233 298 227 174 
322 11 29 166 276 156 59 195 120 345 32 78 99 
323 8 101 122 253 67 281 87 249 267 
324 11 313 18 300 90 332 328 335 249 118 281 84 
325 5 311 210 286 72 327 
326 8 338 159 279 96 258 53 270 273 
327 10 42 147 234 262 72 238 93 325 191 210 
328 11 335 300 337 332 313 18 118 324 90 84 249 
329 9 110 314 208 339 257 290 87 267 84 
330 4 255 129 303 4 
331 11 73 4 288 160 43 303 217 278 3 205 9 
332 11 90 18 249 84 328 281 335 67 324 313 300 
333 11 271 204 163 45 171 13 49 350 82 215 143 
334 11 320 37 342 239 268 148 292 223 51 344 10 
335 11 328 300 337 332 313 118 18 324 90 84 194 
336 6 302 31 180 227 298 121 
337 11 194 335 328 287 199 118 300 44 252 307 58 
338 8 258 279 326 270 159 306 96 36 
339 6 329 110 314 208 257 84 
340 6 143 191 163 262 234 45 
341 11 301 130 6 167 32 127 2 80 7 195 59 
342 11 148 334 37 184 320 51 268 239 223 292 10 
343 11 249 90 323 281 18 67 332 101 183 122 324 
344 11 299 292 295 231 10 223 56 251 239 294 209 
345 11 153 296 29 220 25 59 20 274 166 195 74 
346 11 138 179 277 62 80 66 133 221 167 26 146 
347 10 3 9 264 160 4 129 303 105 331 288 
348 5 157 242 43 286 217 
349 11 305 19 15 261 230 94 229 241 34 209 226 
350 10 243 45 163 140 143 271 221 340 26 82 
DEPOT_SECTION
   1
   -1
EOF
