NAME :  X-n401-kX-w80-c7.cctp
COMMENT : 	Adapted by Maziero, Usberti and Cavellucci from the Uchoa, Pecin, Pessoa, Poggi, Subramanian, and Vidal (2013)
TYPE :  CCTP
DIMENSION :    333
EDGE_WEIGHT_TYPE : 	EUC_2D	
CAPACITY : 	745
VERTICES_WITHIN_COVERAGE :  7
VERTICES_WITH_DEMAND : 	80
NODE_COORD_SECTION
1 0 0
2 645 7
3 720 867
4 513 499
5 208 766
6 976 884
7 991 864
8 696 804
9 655 676
10 840 976
11 718 867
12 456 818
13 901 808
14 380 423
15 668 533
16 939 794
17 311 824
18 906 961
19 899 692
20 227 898
21 646 431
22 886 633
23 468 400
24 867 887
25 720 871
26 585 832
27 746 892
28 990 681
29 333 883
30 675 773
31 145 637
32 939 680
33 852 885
34 520 96
35 603 554
36 677 836
37 214 793
38 480 576
39 986 924
40 392 482
41 872 974
42 644 517
43 888 795
44 622 5
45 999 958
46 415 509
47 910 946
48 150 945
49 719 760
50 695 188
51 420 387
52 720 832
53 714 926
54 697 759
55 659 869
56 192 793
57 645 19
58 592 992
59 764 778
60 839 680
61 468 397
62 77 793
63 729 74
64 299 814
65 571 343
66 717 25
67 989 846
68 971 861
69 448 338
70 194 768
71 929 831
72 845 841
73 687 867
74 963 616
75 464 498
76 141 809
77 547 542
78 945 847
79 627 445
80 504 497
81 101 705
82 849 606
83 766 919
84 492 399
85 555 935
86 123 778
87 971 877
88 58 537
89 938 801
90 870 838
91 953 865
92 693 551
93 816 941
94 690 852
95 689 61
96 931 944
97 996 833
98 560 369
99 630 3
100 631 885
101 603 891
102 724 324
103 278 823
104 589 379
105 641 885
106 948 839
107 692 610
108 813 35
109 738 668
110 703 958
111 453 511
112 412 458
113 912 918
114 930 978
115 854 942
116 909 831
117 587 581
118 813 824
119 222 800
120 978 848
121 455 622
122 696 876
123 756 719
124 550 544
125 872 85
126 825 100
127 503 468
128 571 325
129 689 913
130 492 16
131 446 402
132 500 144
133 469 435
134 171 802
135 516 491
136 550 958
137 598 690
138 193 835
139 567 576
140 747 781
141 530 102
142 496 518
143 210 827
144 779 754
145 226 781
146 722 772
147 655 831
148 639 360
149 880 871
150 786 17
151 449 521
152 717 794
153 786 907
154 505 383
155 677 883
156 705 778
157 536 495
158 923 981
159 913 861
160 580 474
161 165 445
162 481 45
163 206 793
164 989 973
165 676 184
166 782 780
167 976 919
168 204 768
169 652 8
170 636 854
171 632 5
172 753 830
173 894 901
174 883 814
175 564 508
176 876 903
177 865 852
178 514 380
179 701 54
180 343 924
181 721 920
182 490 458
183 534 592
184 474 652
185 193 899
186 284 335
187 967 750
188 485 462
189 644 779
190 461 532
191 611 509
192 364 519
193 998 838
194 949 850
195 928 822
196 601 533
197 923 783
198 102 799
199 726 914
200 834 244
201 838 831
202 866 934
203 72 589
204 436 525
205 541 524
206 543 471
207 640 38
208 440 626
209 178 630
210 721 822
211 528 881
212 705 976
213 653 366
214 981 905
215 679 929
216 212 772
217 896 799
218 233 776
219 902 891
220 45 654
221 868 917
222 233 943
223 408 600
224 945 853
225 509 590
226 843 915
227 471 500
228 775 770
229 935 853
230 659 857
231 426 546
232 932 920
233 996 850
234 840 94
235 706 671
236 190 756
237 163 677
238 734 882
239 403 754
240 669 187
241 747 889
242 710 131
243 851 992
244 157 888
245 964 968
246 550 923
247 320 759
248 881 806
249 333 404
250 990 838
251 171 759
252 647 47
253 296 835
254 655 146
255 197 879
256 985 834
257 784 970
258 546 65
259 144 788
260 870 661
261 508 521
262 669 386
263 845 859
264 860 854
265 196 769
266 245 941
267 411 529
268 535 56
269 327 947
270 708 76
271 657 144
272 514 578
273 894 933
274 909 814
275 938 972
276 435 803
277 730 857
278 861 742
279 497 40
280 969 748
281 990 860
282 701 863
283 610 942
284 103 703
285 221 735
286 777 692
287 984 821
288 912 928
289 475 554
290 959 862
291 646 31
292 991 886
293 735 812
294 707 889
295 333 824
296 824 954
297 197 855
298 487 514
299 570 729
300 653 40
301 850 803
302 630 47
303 216 737
304 689 858
305 688 876
306 883 783
307 334 767
308 847 890
309 966 862
310 524 554
311 886 743
312 995 751
313 663 926
314 660 593
315 124 687
316 704 58
317 950 824
318 825 869
319 795 770
320 664 408
321 222 837
322 930 938
323 313 960
324 819 911
325 180 749
326 914 961
327 357 506
328 649 780
329 975 865
330 687 737
331 543 546
332 650 873
333 541 495
DEMAND_SECTION
2 42
3 56
4 29
5 28
6 66
7 92
8 99
9 97
10 75
11 52
12 13
13 67
14 69
15 60
16 77
17 26
18 97
19 74
20 26
21 28
22 60
23 74
24 87
25 95
26 59
27 56
28 64
29 42
30 68
31 15
32 59
33 62
34 29
35 66
36 63
37 24
38 9
39 73
40 60
41 100
42 56
43 75
44 37
45 100
46 4
47 100
48 33
49 96
50 28
51 78
52 92
53 76
54 84
55 54
56 3
57 14
58 69
59 99
60 66
61 56
62 31
63 8
64 45
65 15
66 10
67 76
68 98
69 99
70 14
71 75
72 91
73 59
74 51
75 66
76 35
77 66
78 77
79 24
80 40
81 28
COVERAGE_SECTION
2 7 169 57 171 99 44 291 207 
3 7 11 25 277 282 238 122 294 
4 7 80 135 157 261 142 333 298 
5 7 168 216 265 70 236 145 163 
6 7 87 292 329 214 68 309 7 
7 7 281 233 329 67 68 120 292 
8 7 152 156 210 30 36 52 293 
9 7 235 137 330 107 109 314 54 
10 7 243 296 41 115 93 202 257 
11 7 3 25 277 282 238 122 294 
12 7 276 239 211 295 26 307 29 
13 7 217 274 43 174 248 116 195 
14 7 112 249 51 40 131 327 133 
15 7 42 92 314 191 196 35 107 
16 6 89 197 195 317 274 71 
17 7 64 253 295 103 307 29 247 
18 7 326 47 158 114 96 273 322 
19 7 32 260 311 22 60 278 187 
20 6 185 255 222 266 297 321 
21 7 79 320 262 213 148 104 160 
22 7 260 82 19 60 32 74 311 
23 7 61 131 84 133 154 51 178 
24 7 33 176 308 149 173 221 264 
25 7 3 11 277 238 282 294 122 
26 7 170 101 100 147 211 105 332 
27 7 241 238 199 25 83 3 11 
28 7 32 74 280 312 187 19 22 
29 7 180 295 253 17 269 64 323 
30 7 54 328 156 189 8 330 49 
31 4 209 237 315 284 
32 7 19 28 74 22 260 280 187 
33 7 308 24 263 176 149 226 318 
34 4 141 258 268 132 
35 7 196 117 139 191 124 42 77 
36 7 94 147 304 230 73 282 8 
37 7 163 119 145 216 56 218 168 
38 6 289 225 272 190 310 121 
39 6 167 214 45 292 6 87 
40 7 112 46 327 192 267 14 204 
41 7 243 10 18 115 202 326 47 
42 7 15 191 196 35 92 79 160 
43 7 217 248 306 13 174 274 197 
44 7 99 171 2 57 169 291 207 
45 6 164 39 245 167 214 275 
46 7 267 204 40 151 111 231 75 
47 7 18 326 288 96 273 322 113 
48 7 244 185 255 222 20 266 297 
49 7 146 54 156 152 140 330 30 
50 6 165 240 254 271 242 270 
51 7 131 61 23 14 69 133 112 
52 7 210 293 277 172 3 11 94 
53 7 181 199 129 110 215 294 27 
54 7 156 49 330 30 146 152 8 
55 7 332 230 155 105 170 73 305 
56 7 163 37 134 265 70 168 216 
57 7 2 291 169 171 207 99 300 
58 6 283 136 85 246 313 101 
59 7 228 140 166 144 319 146 293 
60 5 260 19 286 22 278 
61 7 23 131 84 133 154 51 178 
62 6 198 86 76 259 81 134 
63 5 270 316 179 95 66 
64 5 17 253 103 295 247 
65 7 128 98 104 178 148 154 213 
66 5 179 316 95 63 270 
67 7 233 250 120 193 256 281 97 
68 7 309 329 290 120 87 91 281 
69 7 51 61 131 23 154 84 178 
70 7 265 168 236 5 216 325 56 
71 7 195 116 106 317 78 229 274 
72 7 201 263 264 177 90 318 118 
73 7 304 305 122 94 282 155 55 
74 7 32 28 22 19 260 82 280 
75 7 227 111 151 298 190 142 204 
76 6 259 134 86 198 56 138 
77 7 124 331 205 310 175 139 261 
78 6 194 224 106 229 91 290 
79 7 21 320 160 191 262 42 104 
80 7 4 135 142 261 298 127 157 
81 3 284 315 237 
82 7 22 260 60 19 286 74 32 
83 5 153 27 241 199 181 
84 7 154 23 61 178 133 131 182 
85 6 246 136 283 211 101 58 
86 6 259 198 76 62 251 134 
87 6 6 329 68 309 290 91 
88 7 203 220 31 161 209 315 284 
89 6 16 195 197 317 71 274 
90 7 177 264 72 174 201 263 149 
91 5 290 309 224 194 68 
92 7 15 314 107 42 35 191 196 
93 6 296 324 226 115 10 257 
94 7 304 73 282 36 305 122 230 
95 4 179 316 270 63 
96 7 322 47 232 326 288 275 18 
97 6 193 250 256 67 233 287 
98 7 65 104 128 178 154 84 148 
99 7 171 44 2 57 169 291 207 
100 6 105 332 101 170 55 230 
101 6 100 105 170 332 283 55 
102 7 213 262 148 320 21 200 50 
103 5 253 64 17 295 321 
104 7 98 65 148 128 213 178 79 
105 7 100 332 55 170 230 155 101 
106 7 78 194 224 317 229 71 290 
107 7 314 92 235 109 9 15 35 
108 7 150 234 126 125 63 66 316 
109 6 235 286 123 107 9 330 
110 7 212 53 215 181 129 199 313 
111 6 151 75 227 190 204 298 
112 7 40 14 46 133 75 131 111 
113 7 288 232 273 173 322 47 219 
114 7 158 275 326 18 96 245 47 
115 7 202 221 226 296 10 41 93 
116 7 274 71 195 13 159 174 229 
117 7 139 35 196 124 183 77 331 
118 2 201 72 
119 7 37 163 145 218 143 216 56 
120 7 67 68 250 256 281 329 233 
121 7 208 184 38 223 225 289 272 
122 7 305 73 282 294 304 155 11 
123 5 286 144 109 228 49 
124 7 77 331 205 310 139 175 261 
125 7 234 126 108 150 63 200 270 
126 7 234 125 108 150 63 242 270 
127 7 182 188 135 80 4 206 157 
128 7 65 98 104 148 178 154 213 
129 7 215 53 313 294 155 181 199 
130 5 279 162 268 258 34 
131 7 23 61 51 133 84 154 69 
132 4 34 141 258 268 
133 7 182 188 23 61 131 84 127 
134 7 56 259 76 163 138 70 265 
135 7 4 80 157 333 127 261 142 
136 6 85 246 58 283 211 101 
137 7 299 9 189 330 328 117 235 
138 6 143 297 321 134 56 163 
139 7 117 124 183 331 77 35 310 
140 7 59 146 228 152 293 49 166 
141 4 34 258 268 132 
142 6 298 261 80 4 227 135 
143 6 321 138 119 297 37 163 
144 6 228 319 166 59 123 140 
145 6 218 37 216 119 5 163 
146 7 49 156 152 140 54 8 59 
147 7 36 230 170 55 94 332 304 
148 7 213 262 104 320 65 21 128 
149 6 24 177 264 219 33 176 
150 7 108 66 63 126 316 179 234 
151 6 111 204 190 75 227 231 
152 7 156 8 146 293 210 140 49 
153 3 83 324 27 
154 7 178 84 61 23 98 131 133 
155 7 305 73 122 55 304 332 282 
156 7 146 152 54 49 8 30 140 
157 6 333 135 4 206 205 175 
158 7 114 275 326 18 47 96 245 
159 6 229 116 219 224 71 149 
160 6 206 175 333 191 157 79 
161 6 88 186 203 249 209 31 
162 6 279 130 268 34 258 141 
163 7 37 56 119 216 145 168 265 
164 7 45 245 39 275 167 114 96 
165 6 240 50 254 271 242 270 
166 5 228 319 59 144 140 
167 6 39 214 6 292 87 232 
168 7 5 265 216 70 236 163 145 
169 7 2 57 171 99 291 44 207 
170 7 230 332 55 147 100 105 36 
171 7 99 44 2 57 169 291 207 
172 4 293 52 210 277 
173 6 219 176 113 24 221 273 
174 7 248 13 43 217 274 90 116 
175 6 333 205 157 77 160 124 
176 7 221 24 173 219 33 149 308 
177 7 264 90 263 72 149 201 24 
178 7 154 84 98 61 23 65 131 
179 5 316 95 270 66 63 
180 7 269 29 323 266 295 253 17 
181 7 199 53 129 294 27 238 241 
182 7 188 127 133 80 135 227 4 
183 7 272 225 139 310 331 124 77 
184 6 121 208 225 38 223 272 
185 6 255 20 244 297 222 48 
186 7 249 14 51 161 69 131 112 
187 5 280 312 16 197 89 
188 7 182 127 133 80 227 75 135 
189 7 328 30 147 54 8 330 156 
190 6 151 111 204 289 298 75 
191 6 196 42 35 160 175 15 
192 7 327 40 267 46 231 204 112 
193 7 97 250 67 233 256 120 287 
194 6 78 224 106 229 91 290 
195 7 71 116 274 317 89 106 13 
196 7 35 191 175 42 117 124 77 
197 7 16 89 217 13 274 43 195 
198 6 62 86 76 259 134 251 
199 7 181 53 27 294 238 241 129 
200 7 102 126 50 234 125 242 165 
201 6 72 118 263 301 264 90 
202 7 115 221 273 226 176 41 173 
203 7 88 220 31 315 209 284 81 
204 7 151 111 231 267 46 190 75 
205 7 77 124 331 175 157 333 261 
206 6 333 157 135 160 127 4 
207 7 291 252 300 302 57 2 169 
208 6 121 223 184 38 225 289 
209 2 31 237 
210 7 52 293 152 8 172 277 94 
211 6 246 85 26 101 136 12 
212 7 110 53 215 181 129 199 313 
213 7 148 262 320 21 104 102 79 
214 6 167 39 292 6 87 329 
215 7 313 129 53 110 181 155 199 
216 7 5 168 265 145 70 37 218 
217 7 43 13 248 174 274 306 197 
218 3 145 216 37 
219 6 173 113 176 149 159 24 
220 7 203 81 284 315 31 88 237 
221 7 176 202 226 115 24 173 273 
222 7 266 20 185 255 323 48 244 
223 6 208 121 231 267 38 204 
224 6 194 78 229 91 106 290 
225 7 272 183 38 310 289 331 139 
226 7 324 221 308 115 202 33 176 
227 7 75 111 298 151 142 80 190 
228 5 166 59 144 319 140 
229 6 224 78 194 106 91 71 
230 7 55 332 170 147 36 73 304 
231 6 204 267 151 190 46 111 
232 5 322 113 288 96 47 
233 7 67 193 281 250 7 97 120 
234 7 126 125 108 150 63 270 242 
235 6 109 9 107 123 330 286 
236 7 325 70 265 168 251 5 216 
237 2 315 31 
238 7 241 27 25 3 11 277 294 
239 5 276 307 12 247 295 
240 5 165 50 254 271 242 
241 7 27 238 25 199 3 11 83 
242 7 270 271 254 50 63 165 240 
243 7 10 41 296 115 202 93 18 
244 6 185 255 297 48 138 20 
245 7 164 275 114 45 96 158 322 
246 6 85 136 211 101 283 58 
247 3 307 64 17 
248 7 174 43 217 13 306 274 301 
249 7 14 186 51 112 40 327 131 
250 7 256 67 97 193 233 120 287 
251 5 325 236 70 265 168 
252 5 300 207 291 302 57 
253 5 17 64 103 295 29 
254 5 271 165 240 242 50 
255 6 185 297 20 244 138 321 
256 7 250 97 67 287 193 120 233 
257 5 93 296 83 10 153 
258 3 268 34 141 
259 6 76 86 134 251 198 56 
260 7 22 60 19 82 32 278 311 
261 6 142 298 4 80 135 205 
262 7 320 213 148 21 79 104 102 
263 7 264 72 177 318 33 201 308 
264 7 177 263 90 72 149 33 201 
265 7 70 168 5 236 216 56 163 
266 7 222 20 185 323 255 269 48 
267 7 46 231 204 151 111 192 190 
268 3 258 279 34 
269 7 323 180 29 266 222 20 253 
270 4 316 63 179 95 
271 5 254 165 240 242 50 
272 7 225 183 310 38 331 289 77 
273 7 288 47 113 202 18 221 173 
274 7 13 116 217 195 71 174 43 
275 7 114 158 245 326 96 18 322 
276 6 12 239 295 307 211 247 
277 7 3 11 25 238 52 282 172 
278 5 311 306 43 301 19 
279 5 162 130 268 258 34 
280 5 187 312 16 197 89 
281 7 7 233 67 329 120 68 250 
282 7 304 122 73 94 11 305 3 
283 6 101 58 85 313 100 136 
284 3 81 315 237 
285 3 303 5 168 
286 5 123 109 144 60 235 
287 5 256 97 250 193 67 
288 7 113 47 273 322 232 96 173 
289 6 38 190 142 151 298 272 
290 6 91 309 68 194 329 224 
291 7 207 300 57 252 302 2 169 
292 7 6 214 7 87 281 329 68 
293 7 210 52 152 172 140 8 146 
294 7 122 25 305 11 3 282 238 
295 7 17 64 253 103 307 29 247 
296 6 93 10 115 226 257 324 
297 6 138 255 143 321 185 20 
298 6 142 227 261 80 75 4 
299 7 137 189 328 9 26 30 330 
300 5 252 291 207 57 302 
301 6 201 248 174 72 43 306 
302 5 207 252 291 300 57 
303 4 285 5 236 168 
304 7 94 73 282 305 122 36 155 
305 7 122 73 155 282 304 294 94 
306 7 43 217 248 13 174 301 197 
307 5 247 295 64 17 239 
308 7 33 24 226 318 263 176 221 
309 6 68 290 329 91 87 120 
310 7 331 77 272 124 205 261 183 
311 7 278 306 43 19 197 217 248 
312 4 280 187 28 16 
313 6 215 129 155 105 53 110 
314 7 107 92 15 35 117 42 9 
315 4 284 81 237 31 
316 5 179 95 270 63 66 
317 6 106 71 195 78 89 194 
318 4 263 308 33 72 
319 4 166 228 144 59 
320 7 262 21 213 79 148 104 102 
321 6 143 138 297 119 37 163 
322 6 96 232 288 47 113 326 
323 7 269 180 266 29 222 20 253 
324 6 226 93 153 308 33 318 
325 4 236 251 70 265 
326 7 18 47 158 114 96 275 322 
327 7 192 40 46 267 112 231 204 
328 7 189 30 147 54 8 156 330 
329 7 68 309 87 7 281 290 120 
330 7 54 30 49 156 146 328 189 
331 7 77 124 310 205 139 175 261 
332 7 55 105 230 100 170 155 73 
333 6 157 206 135 175 4 205 
DEPOT_SECTION
   1
   -1
EOF
