NAME :  X-n439-kX-w87-c9.cctp
COMMENT : 	Adapted by Maziero, Usberti and Cavellucci from the Uchoa, Pecin, Pessoa, Poggi, Subramanian, and Vidal (2013)
TYPE :  CCTP
DIMENSION :    329
EDGE_WEIGHT_TYPE : 	EUC_2D	
CAPACITY : 	12
VERTICES_WITHIN_COVERAGE :  9
VERTICES_WITH_DEMAND : 	87
NODE_COORD_SECTION
1 500 500
2 769 259
3 91 377
4 108 338
5 816 567
6 698 341
7 741 237
8 601 140
9 63 359
10 215 608
11 979 914
12 911 697
13 440 593
14 922 765
15 185 756
16 486 158
17 993 628
18 241 33
19 200 756
20 856 440
21 471 712
22 929 649
23 811 44
24 125 727
25 830 484
26 568 366
27 261 394
28 478 965
29 726 474
30 68 952
31 747 716
32 678 366
33 17 603
34 169 689
35 916 565
36 564 913
37 268 681
38 937 878
39 370 634
40 555 847
41 246 911
42 267 333
43 166 257
44 147 179
45 418 383
46 382 886
47 312 911
48 416 186
49 457 582
50 334 882
51 269 710
52 513 910
53 739 882
54 503 682
55 451 911
56 171 656
57 843 44
58 94 165
59 726 411
60 197 498
61 49 726
62 645 224
63 915 247
64 981 775
65 844 973
66 519 268
67 291 97
68 986 589
69 414 719
70 407 720
71 82 782
72 255 312
73 151 291
74 831 520
75 970 760
76 912 77
77 150 909
78 638 624
79 585 630
80 655 287
81 708 178
82 503 504
83 14 634
84 261 106
85 825 599
86 433 646
87 298 153
88 88 970
89 704 58
90 258 52
91 930 209
92 570 72
93 252 338
94 141 741
95 353 966
96 718 880
97 581 608
98 469 225
99 623 619
100 501 929
101 128 931
102 953 786
103 30 752
104 157 419
105 637 668
106 454 640
107 888 420
108 937 231
109 252 161
110 453 708
111 995 666
112 998 151
113 977 113
114 970 790
115 604 21
116 128 917
117 122 40
118 846 937
119 586 561
120 312 123
121 139 930
122 479 760
123 69 875
124 698 197
125 726 250
126 782 561
127 43 320
128 757 331
129 898 518
130 133 541
131 497 279
132 25 118
133 880 166
134 529 957
135 60 701
136 567 295
137 66 72
138 535 391
139 30 683
140 447 677
141 362 365
142 540 747
143 500 86
144 555 154
145 275 341
146 299 644
147 890 504
148 42 970
149 496 177
150 789 679
151 770 402
152 545 735
153 504 867
154 708 580
155 339 760
156 710 910
157 99 352
158 564 708
159 875 761
160 376 398
161 667 49
162 774 666
163 728 515
164 676 316
165 961 518
166 551 563
167 484 538
168 862 621
169 589 636
170 574 712
171 879 326
172 77 733
173 476 800
174 107 535
175 642 249
176 793 754
177 37 871
178 760 614
179 420 78
180 312 676
181 919 95
182 605 144
183 763 884
184 9 106
185 214 887
186 323 338
187 253 819
188 628 365
189 128 138
190 705 400
191 571 979
192 931 739
193 764 26
194 162 169
195 338 947
196 769 882
197 480 60
198 635 657
199 292 467
200 136 228
201 866 390
202 271 154
203 196 682
204 250 283
205 950 598
206 244 524
207 583 858
208 748 608
209 254 471
210 115 623
211 159 246
212 847 676
213 281 865
214 842 436
215 503 302
216 222 615
217 589 627
218 400 209
219 141 757
220 730 710
221 242 378
222 175 791
223 194 777
224 190 651
225 306 316
226 390 185
227 767 916
228 950 134
229 259 336
230 218 666
231 405 778
232 176 687
233 164 230
234 475 364
235 430 195
236 159 665
237 385 195
238 784 688
239 273 68
240 115 719
241 201 591
242 126 178
243 328 138
244 170 673
245 964 859
246 282 187
247 645 937
248 88 608
249 469 662
250 194 760
251 307 322
252 44 357
253 754 663
254 457 666
255 302 159
256 224 678
257 119 717
258 611 940
259 359 422
260 727 839
261 865 435
262 865 403
263 640 408
264 574 311
265 205 298
266 634 902
267 290 86
268 439 192
269 899 450
270 623 138
271 246 268
272 155 167
273 164 337
274 432 202
275 296 166
276 943 753
277 206 641
278 796 849
279 196 585
280 189 611
281 818 409
282 95 550
283 727 707
284 190 624
285 161 32
286 739 302
287 68 320
288 952 269
289 193 734
290 605 969
291 130 185
292 418 214
293 978 671
294 952 836
295 771 647
296 196 8
297 266 151
298 878 317
299 68 190
300 883 786
301 839 318
302 243 672
303 652 671
304 668 495
305 343 94
306 215 0
307 269 280
308 676 898
309 282 320
310 185 62
311 251 159
312 133 311
313 239 64
314 378 491
315 252 657
316 182 66
317 748 760
318 154 103
319 230 160
320 729 319
321 285 650
322 331 10
323 199 630
324 781 445
325 590 258
326 56 412
327 208 238
328 197 739
329 455 395
DEMAND_SECTION
2 1
3 1
4 1
5 1
6 1
7 1
8 1
9 1
10 1
11 1
12 1
13 1
14 1
15 1
16 1
17 1
18 1
19 1
20 1
21 1
22 1
23 1
24 1
25 1
26 1
27 1
28 1
29 1
30 1
31 1
32 1
33 1
34 1
35 1
36 1
37 1
38 1
39 1
40 1
41 1
42 1
43 1
44 1
45 1
46 1
47 1
48 1
49 1
50 1
51 1
52 1
53 1
54 1
55 1
56 1
57 1
58 1
59 1
60 1
61 1
62 1
63 1
64 1
65 1
66 1
67 1
68 1
69 1
70 1
71 1
72 1
73 1
74 1
75 1
76 1
77 1
78 1
79 1
80 1
81 1
82 1
83 1
84 1
85 1
86 1
87 1
88 1
COVERAGE_SECTION
2 8 7 125 286 320 128 301 124 81 
3 9 157 9 4 326 252 287 127 104 312 
4 9 157 312 3 287 9 273 73 127 252 
5 9 85 126 74 168 178 208 25 295 129 
6 9 32 164 320 286 190 128 80 188 59 
7 9 125 2 124 286 81 320 128 62 80 
8 9 182 270 144 92 62 149 161 124 81 
9 8 252 3 157 287 127 4 326 312 
10 9 216 241 280 323 279 284 277 224 230 
11 9 38 245 294 114 102 118 64 65 75 
12 9 192 22 276 212 14 293 159 75 111 
13 9 49 106 86 167 249 254 39 140 54 
14 9 276 192 102 300 159 75 114 64 12 
15 9 250 19 328 223 289 222 219 94 24 
16 9 149 268 235 98 144 274 143 48 292 
17 9 111 68 293 205 22 35 12 165 192 
18 9 90 313 306 239 296 310 316 267 84 
19 9 250 15 328 223 289 222 219 94 232 
20 8 261 214 107 262 269 281 25 201 
21 9 110 140 54 254 122 249 69 70 106 
22 9 12 293 205 17 111 168 68 35 212 
23 9 57 193 76 89 181 133 161 228 81 
24 9 257 240 94 219 172 34 232 15 289 
25 9 74 214 20 261 147 324 129 281 269 
26 9 138 264 188 136 263 215 234 32 66 
27 9 221 145 93 229 42 209 309 199 72 
28 9 100 134 55 52 191 36 153 46 95 
29 9 163 304 324 59 190 151 126 25 154 
30 9 88 148 101 116 121 123 177 77 185 
31 8 220 283 317 238 253 150 162 176 
32 9 6 190 164 188 263 59 320 80 128 
33 9 83 248 139 282 210 135 174 61 130 
34 9 232 244 236 203 56 224 289 230 256 
35 9 205 129 165 147 68 168 22 74 85 
36 9 52 258 134 207 100 191 40 290 266 
37 9 302 51 315 321 180 256 146 230 203 
38 9 245 294 11 102 114 300 118 64 14 
39 9 86 146 180 13 106 321 140 254 70 
40 4 207 153 36 52 
41 9 185 213 47 187 50 77 195 121 116 
42 9 229 145 93 309 72 251 225 221 204 
43 7 211 233 73 200 327 265 312 
44 9 272 194 291 242 189 200 233 58 211 
45 5 329 160 141 234 259 
46 9 50 55 47 195 95 213 231 153 28 
47 9 50 195 213 41 95 46 185 187 55 
48 7 235 274 268 226 218 292 237 
49 9 13 167 106 86 249 254 82 140 166 
50 9 47 46 213 195 95 41 187 185 55 
51 9 37 302 180 256 315 321 230 146 203 
52 9 100 153 134 36 55 28 40 207 191 
53 8 96 183 196 156 227 260 308 278 
54 9 249 21 254 110 140 106 158 152 142 
55 9 100 28 52 153 46 134 95 36 173 
56 9 236 244 224 232 34 203 284 277 323 
57 9 23 76 193 181 133 89 228 113 161 
58 8 242 299 291 189 44 272 194 200 
59 9 190 151 29 324 32 6 128 263 281 
60 9 206 209 130 279 104 241 174 199 10 
61 9 135 172 103 139 71 240 257 24 94 
62 9 175 124 80 325 81 125 182 270 8 
63 8 108 91 288 298 171 133 301 228 
64 9 75 114 102 276 14 192 294 245 300 
65 9 118 227 196 183 38 278 53 11 156 
66 7 131 215 136 98 264 325 149 
67 9 267 84 120 239 305 243 87 90 202 
68 9 205 17 35 165 111 293 22 129 147 
69 9 70 110 140 21 231 254 86 122 249 
70 9 69 110 231 140 21 254 86 155 122 
71 9 172 103 219 61 24 240 94 257 135 
72 8 42 229 93 309 204 145 307 271 
73 9 312 43 211 273 265 233 4 200 327 
74 9 25 5 147 126 129 85 20 214 324 
75 9 64 276 114 102 192 14 294 12 293 
76 9 181 228 113 57 133 23 112 91 108 
77 9 116 121 101 185 88 123 30 41 177 
78 9 99 198 105 217 303 169 79 97 119 
79 9 217 169 97 99 78 198 105 119 166 
80 9 164 175 62 6 325 125 320 32 188 
81 9 124 7 125 62 270 175 2 182 8 
82 9 167 166 49 119 13 138 329 314 97 
83 9 33 139 248 135 61 210 172 282 103 
84 9 67 267 239 297 313 202 90 120 311 
85 8 5 168 126 178 295 208 74 212 
86 9 106 254 140 249 13 39 110 49 69 
87 8 255 275 202 297 120 243 246 109 
88 9 30 148 101 121 116 77 123 177 185 
89 9 161 193 115 23 270 81 182 8 92 
90 9 239 313 18 267 84 67 306 310 296 
91 9 108 63 288 133 228 112 113 181 298 
92 9 115 143 8 182 144 270 197 161 16 
93 9 229 42 145 72 309 221 204 27 251 
94 9 219 24 257 240 15 289 250 328 34 
95 9 195 47 46 50 55 41 213 28 100 
96 7 53 156 260 183 308 196 227 
97 9 217 79 169 99 119 166 78 198 105 
98 7 274 268 235 292 149 131 48 
99 9 78 217 169 79 198 97 105 303 119 
100 9 52 134 28 55 153 36 191 40 207 
101 9 121 116 77 88 30 123 148 185 177 
102 9 114 64 75 276 14 294 192 300 245 
103 9 61 172 135 71 139 240 257 24 219 
104 9 3 273 60 157 221 4 326 27 209 
105 9 198 303 78 99 169 217 79 170 97 
106 9 86 254 249 140 13 49 54 110 21 
107 6 261 262 269 201 20 214 
108 9 91 63 288 133 228 112 298 171 113 
109 7 311 297 202 319 246 275 87 
110 9 21 140 69 254 70 249 54 122 86 
111 9 293 17 22 68 205 12 75 192 276 
112 9 113 228 91 181 108 76 133 63 288 
113 9 228 112 181 76 91 133 108 63 57 
114 9 102 64 75 276 294 14 192 245 300 
115 9 92 161 89 8 270 143 182 197 144 
116 9 101 121 77 88 30 123 185 148 177 
117 9 285 137 316 310 318 296 189 306 18 
118 8 65 227 196 183 278 38 53 11 
119 9 166 97 217 79 99 169 78 82 167 
120 7 243 67 87 255 305 267 275 
121 9 101 116 77 88 30 185 123 148 41 
122 8 173 21 110 142 152 231 69 54 
123 9 177 116 30 101 77 121 71 88 148 
124 9 81 7 62 125 175 2 270 80 182 
125 9 7 2 286 124 320 81 80 164 175 
126 9 5 85 178 208 74 163 154 295 25 
127 5 287 252 9 157 4 
128 8 320 286 6 151 2 164 301 32 
129 7 147 35 165 74 269 25 20 
130 9 174 282 60 279 248 210 241 280 284 
131 6 215 66 98 136 264 234 
132 8 184 137 58 299 189 242 117 291 
133 9 91 228 181 108 63 76 113 112 288 
134 9 100 191 52 28 36 290 258 55 153 
135 9 61 139 172 240 103 257 24 83 71 
136 9 264 325 66 215 26 131 80 175 188 
137 9 132 117 184 189 318 58 285 316 299 
138 9 26 234 329 264 215 188 136 263 45 
139 9 135 61 83 103 172 33 240 248 257 
140 9 254 249 110 86 106 21 69 54 70 
141 6 160 186 259 45 251 225 
142 5 152 158 170 122 54 
143 8 197 92 16 179 144 149 8 182 
144 9 8 182 149 16 270 92 143 325 98 
145 9 42 229 309 93 72 251 225 186 221 
146 9 321 180 37 315 302 39 51 216 256 
147 7 129 269 74 25 35 20 165 
148 9 30 88 101 123 177 116 121 77 185 
149 9 16 98 268 144 235 274 48 292 143 
150 5 238 162 295 253 31 
151 7 324 59 281 190 128 214 29 
152 5 142 158 170 54 122 
153 9 52 40 100 55 173 36 207 134 28 
154 8 208 178 163 126 78 295 99 304 
155 9 231 70 69 51 180 187 37 213 50 
156 7 96 308 53 227 183 196 247 
157 9 4 3 9 287 312 252 127 273 326 
158 5 170 152 142 54 169 
159 5 300 14 192 276 12 
160 6 259 141 45 329 186 314 
161 9 89 115 270 92 193 8 182 81 23 
162 7 295 150 253 238 178 31 220 
163 9 29 304 154 126 324 208 5 74 59 
164 9 6 80 32 320 286 188 175 128 125 
165 5 129 35 147 68 205 
166 9 119 97 167 217 79 82 169 99 49 
167 9 82 49 13 166 119 106 314 86 97 
168 8 85 212 5 22 35 12 205 150 
169 9 79 217 97 99 78 198 105 303 119 
170 4 158 152 142 54 
171 5 298 301 201 262 63 
172 9 61 135 240 257 24 71 103 94 219 
173 8 122 153 231 142 21 40 110 152 
174 9 282 130 248 210 60 279 241 280 33 
175 9 62 80 325 164 124 125 136 264 81 
176 2 317 31 
177 9 123 30 148 71 116 101 88 121 77 
178 8 208 295 253 162 126 154 85 150 
179 4 197 305 143 16 
180 9 146 321 37 51 315 302 39 155 256 
181 9 76 228 113 133 57 112 91 23 108 
182 9 8 270 144 92 62 124 81 175 161 
183 7 196 53 227 96 278 260 156 
184 8 132 137 58 299 189 117 242 291 
185 9 41 77 213 187 121 116 101 47 222 
186 6 251 225 309 141 145 42 
187 9 213 223 185 19 222 250 41 15 328 
188 9 263 32 26 164 6 264 80 190 136 
189 9 242 272 58 318 44 194 291 299 200 
190 9 59 32 6 151 263 29 320 188 128 
191 9 290 134 258 36 247 100 52 28 266 
192 9 276 14 75 12 102 159 64 114 300 
193 9 23 89 57 161 76 115 81 181 270 
194 9 272 44 291 242 189 233 200 318 58 
195 9 95 47 50 46 41 213 55 185 28 
196 7 183 53 227 278 96 260 156 
197 7 143 179 92 16 149 144 115 
198 9 105 303 78 99 169 217 79 97 170 
199 9 209 206 27 259 314 60 221 160 141 
200 9 233 211 43 291 44 242 194 272 73 
201 5 262 107 261 20 214 
202 8 297 109 311 87 275 255 246 319 
203 9 232 230 34 244 256 224 56 236 277 
204 6 271 307 72 265 309 42 
205 9 68 35 17 22 293 165 111 168 129 
206 9 60 209 199 279 241 10 216 280 130 
207 4 40 36 266 153 
208 8 178 295 154 253 126 162 85 5 
209 9 199 206 60 27 221 104 259 314 279 
210 9 248 236 56 244 280 284 282 224 130 
211 8 43 233 200 73 327 44 291 265 
212 5 168 150 238 12 162 
213 9 187 47 50 41 185 195 46 155 95 
214 9 20 261 281 262 25 107 201 269 324 
215 7 131 66 136 234 264 98 26 
216 9 10 323 277 241 280 284 279 224 230 
217 9 79 169 97 99 78 198 105 119 166 
218 5 292 237 226 48 235 
219 9 94 24 15 240 257 222 250 223 289 
220 8 283 31 253 317 238 162 150 295 
221 9 27 93 229 145 42 72 309 251 265 
222 9 223 15 250 19 219 328 94 289 24 
223 9 250 19 15 222 328 289 219 94 187 
224 9 277 56 323 284 244 203 230 236 232 
225 5 251 309 186 145 42 
226 3 237 48 218 
227 9 183 196 53 156 96 278 118 260 308 
228 9 113 181 112 76 133 91 108 63 288 
229 9 93 42 145 72 309 221 251 225 204 
230 9 256 302 203 277 224 315 323 232 56 
231 9 70 69 155 173 122 110 21 140 46 
232 9 34 244 203 236 56 224 230 256 289 
233 8 211 43 200 327 44 291 194 73 
234 7 329 45 138 215 131 26 160 
235 7 274 268 48 292 218 226 237 
236 9 244 56 34 232 224 203 284 277 323 
237 3 226 218 48 
238 5 150 162 253 295 31 
239 9 90 267 67 313 84 18 120 305 322 
240 9 257 24 94 172 219 135 34 61 232 
241 9 279 10 280 216 284 323 277 224 56 
242 9 291 44 272 58 194 189 200 299 233 
243 5 120 255 87 275 305 
244 9 236 232 34 56 203 224 277 230 323 
245 9 294 38 11 114 102 64 75 14 276 
246 5 275 255 202 87 297 
247 7 258 266 308 290 156 36 191 
248 9 210 282 33 174 83 130 236 139 56 
249 9 254 106 140 54 86 110 21 13 69 
250 9 19 15 223 328 289 222 219 94 34 
251 6 225 186 309 145 42 229 
252 7 9 127 287 3 157 326 4 
253 7 162 295 150 238 178 283 31 
254 9 249 140 106 86 110 21 54 69 70 
255 7 87 275 202 243 246 120 297 
256 9 230 302 203 315 277 224 37 232 244 
257 9 240 24 94 172 219 34 135 232 236 
258 8 290 247 266 36 191 308 134 207 
259 7 160 141 45 314 199 186 329 
260 4 96 53 183 196 
261 6 20 214 107 262 269 201 
262 6 201 107 261 20 214 281 
263 9 188 32 190 26 59 6 304 164 138 
264 9 136 26 325 66 215 188 131 80 138 
265 8 204 271 72 73 43 273 327 93 
266 5 247 308 258 207 36 
267 9 67 239 84 120 90 305 313 243 87 
268 8 235 274 48 292 218 98 226 237 
269 4 107 261 20 147 
270 9 182 8 144 92 62 81 124 161 175 
271 3 204 307 72 
272 9 194 44 242 291 189 58 200 233 318 
273 9 312 73 4 265 157 43 104 3 93 
274 7 235 268 292 48 218 98 226 
275 6 255 87 246 202 297 243 
276 9 192 14 75 102 64 114 12 159 300 
277 9 323 224 284 230 216 10 280 56 256 
278 5 196 183 53 260 227 
279 9 241 280 10 284 216 323 277 224 56 
280 9 284 323 241 10 279 216 277 224 56 
281 7 214 262 20 151 201 324 261 
282 9 174 130 248 210 33 279 280 60 241 
283 8 220 31 253 317 238 162 150 295 
284 9 323 280 277 224 10 216 241 56 279 
285 9 310 117 316 296 306 318 18 313 90 
286 9 320 128 2 125 6 7 164 80 32 
287 7 127 9 4 252 157 3 312 
288 7 108 63 91 298 171 301 133 
289 9 328 15 19 250 223 232 34 94 203 
290 8 258 191 247 36 266 134 308 52 
291 9 242 44 272 194 58 200 189 233 299 
292 6 274 218 235 48 268 237 
293 9 111 17 22 12 205 68 192 75 276 
294 9 245 38 114 102 64 14 75 11 276 
295 7 162 253 178 150 238 208 85 
296 9 306 285 18 310 316 313 90 117 239 
297 9 202 109 311 87 275 255 319 246 84 
298 5 171 301 201 63 262 
299 4 58 242 291 200 
300 7 159 14 192 276 102 294 114 
301 6 298 171 201 128 262 2 
302 9 315 256 230 37 51 321 203 277 224 
303 8 105 198 78 99 169 217 79 283 
304 9 29 163 263 154 59 190 119 324 32 
305 5 120 243 67 267 87 
306 9 296 18 285 90 313 310 316 239 117 
307 4 204 271 72 309 
308 5 156 266 96 247 53 
309 9 42 145 225 251 72 229 93 307 186 
310 9 316 285 318 313 296 18 117 306 90 
311 7 109 297 202 319 246 275 87 
312 9 73 4 273 157 43 287 211 265 3 
313 9 90 18 239 84 310 267 316 67 306 
314 9 259 199 160 45 167 13 49 329 82 
315 9 302 37 321 230 256 146 277 216 51 
316 9 310 285 318 313 296 117 18 306 90 
317 3 31 176 220 
318 9 189 316 310 272 194 117 285 44 242 
319 6 311 109 297 202 246 84 
320 9 286 128 6 164 32 125 2 80 7 
321 9 146 315 37 180 302 51 256 230 216 
322 8 239 90 305 267 18 67 313 179 
323 9 284 277 280 224 10 216 56 241 230 
324 9 151 281 29 214 25 59 20 261 163 
325 9 136 175 264 62 80 66 131 215 164 
326 9 3 9 252 157 4 127 287 104 312 
327 2 233 43 
328 9 289 19 15 250 223 94 222 232 34 
329 8 234 45 160 138 141 259 215 26 
DEPOT_SECTION
   1
   -1
EOF
