NAME :  X-n480-kX-w95-c7.cctp
COMMENT : 	Adapted by Maziero, Usberti and Cavellucci from the Uchoa, Pecin, Pessoa, Poggi, Subramanian, and Vidal (2013)
TYPE :  CCTP
DIMENSION :    425
EDGE_WEIGHT_TYPE : 	EUC_2D	
CAPACITY : 	52
VERTICES_WITHIN_COVERAGE :  7
VERTICES_WITH_DEMAND : 	95
NODE_COORD_SECTION
1 628 103
2 291 573
3 129 447
4 973 643
5 830 868
6 398 563
7 731 423
8 201 995
9 167 174
10 31 358
11 480 619
12 323 555
13 205 208
14 187 767
15 775 445
16 745 369
17 188 965
18 44 585
19 405 706
20 185 315
21 505 636
22 482 543
23 830 860
24 344 498
25 762 379
26 761 399
27 869 844
28 114 420
29 890 491
30 440 802
31 929 676
32 524 456
33 361 434
34 377 478
35 191 496
36 646 352
37 795 962
38 483 492
39 174 597
40 208 464
41 693 461
42 56 114
43 877 898
44 483 596
45 757 915
46 833 803
47 676 597
48 818 695
49 494 648
50 5 167
51 197 146
52 170 313
53 354 624
54 603 437
55 773 462
56 386 610
57 75 183
58 442 485
59 269 543
60 770 869
61 342 542
62 103 508
63 799 441
64 935 918
65 790 696
66 857 459
67 319 541
68 195 131
69 328 617
70 297 697
71 337 529
72 337 620
73 152 735
74 302 491
75 229 909
76 508 567
77 940 591
78 490 571
79 262 962
80 818 425
81 357 82
82 743 377
83 927 322
84 335 633
85 725 477
86 839 403
87 333 557
88 421 589
89 515 601
90 791 669
91 935 639
92 314 623
93 238 198
94 1000 656
95 613 387
96 425 544
97 299 730
98 107 394
99 766 513
100 409 500
101 144 441
102 163 479
103 400 560
104 198 506
105 176 926
106 763 458
107 761 982
108 986 312
109 94 492
110 383 562
111 384 366
112 204 147
113 373 443
114 231 359
115 340 551
116 232 198
117 271 629
118 139 319
119 305 521
120 370 556
121 273 895
122 466 566
123 865 654
124 869 910
125 216 415
126 41 244
127 97 186
128 368 504
129 194 925
130 254 246
131 766 440
132 212 535
133 492 471
134 314 590
135 235 976
136 70 484
137 748 521
138 675 415
139 705 421
140 471 562
141 870 876
142 24 331
143 882 865
144 864 841
145 730 459
146 734 383
147 367 641
148 966 646
149 856 722
150 191 969
151 857 790
152 206 143
153 682 258
154 230 771
155 745 394
156 692 452
157 395 437
158 503 642
159 326 565
160 300 695
161 423 593
162 204 516
163 158 441
164 133 604
165 673 529
166 788 909
167 843 989
168 145 278
169 764 881
170 125 504
171 301 977
172 540 385
173 92 399
174 192 176
175 169 888
176 101 564
177 506 603
178 137 584
179 121 451
180 229 981
181 706 365
182 761 741
183 70 415
184 198 502
185 142 323
186 839 888
187 772 526
188 237 235
189 308 579
190 801 882
191 873 368
192 977 606
193 514 594
194 848 261
195 603 508
196 128 454
197 283 535
198 868 930
199 181 618
200 904 440
201 140 672
202 181 689
203 587 479
204 451 745
205 402 34
206 962 687
207 776 972
208 223 915
209 242 683
210 831 873
211 332 672
212 44 546
213 754 940
214 197 971
215 872 879
216 63 283
217 119 398
218 211 995
219 819 887
220 296 542
221 596 153
222 916 873
223 239 931
224 830 971
225 837 887
226 774 369
227 933 612
228 905 557
229 768 692
230 761 420
231 812 621
232 350 667
233 407 490
234 806 935
235 646 471
236 286 627
237 774 888
238 440 615
239 204 991
240 117 90
241 277 979
242 840 813
243 313 708
244 882 881
245 234 889
246 257 56
247 214 144
248 826 883
249 967 562
250 763 487
251 341 554
252 61 494
253 329 948
254 220 601
255 160 538
256 217 126
257 837 636
258 949 661
259 931 987
260 934 726
261 154 327
262 399 584
263 759 634
264 680 453
265 869 362
266 232 538
267 847 860
268 834 503
269 139 530
270 38 202
271 134 708
272 717 846
273 640 705
274 305 727
275 197 891
276 460 573
277 387 417
278 803 815
279 757 597
280 356 411
281 352 846
282 916 589
283 150 952
284 68 410
285 100 500
286 958 616
287 205 147
288 654 402
289 138 584
290 216 332
291 186 443
292 671 534
293 160 475
294 104 159
295 240 951
296 161 74
297 403 437
298 172 247
299 417 601
300 490 600
301 23 319
302 160 152
303 855 778
304 159 149
305 169 168
306 274 684
307 176 108
308 770 337
309 261 226
310 345 615
311 297 588
312 989 575
313 736 422
314 292 17
315 893 829
316 221 975
317 372 588
318 814 849
319 431 513
320 292 780
321 817 382
322 209 252
323 369 460
324 4 252
325 114 48
326 364 113
327 932 709
328 468 470
329 851 660
330 774 798
331 526 611
332 202 136
333 993 516
334 370 528
335 327 636
336 134 190
337 988 634
338 310 663
339 960 699
340 989 609
341 332 575
342 114 199
343 986 630
344 233 947
345 198 981
346 599 858
347 616 451
348 284 599
349 440 645
350 825 894
351 229 186
352 142 637
353 77 417
354 368 714
355 234 547
356 224 194
357 228 763
358 839 860
359 141 55
360 395 569
361 124 795
362 784 319
363 367 655
364 241 949
365 265 609
366 309 109
367 579 588
368 968 971
369 374 588
370 953 903
371 268 995
372 101 427
373 434 539
374 874 663
375 340 555
376 265 215
377 169 312
378 845 973
379 240 670
380 758 336
381 287 585
382 258 525
383 726 382
384 487 551
385 592 837
386 279 547
387 820 692
388 926 852
389 991 659
390 478 410
391 443 568
392 625 630
393 577 761
394 379 548
395 999 672
396 863 505
397 178 937
398 364 490
399 160 197
400 186 335
401 757 408
402 497 647
403 322 484
404 768 833
405 392 601
406 355 536
407 414 573
408 349 615
409 367 682
410 358 552
411 78 516
412 743 601
413 766 516
414 835 509
415 823 812
416 141 474
417 415 483
418 303 134
419 311 526
420 791 365
421 951 686
422 298 520
423 140 179
424 848 729
425 315 451
DEMAND_SECTION
2 6
3 7
4 9
5 7
6 10
7 10
8 7
9 6
10 6
11 8
12 6
13 5
14 10
15 8
16 9
17 9
18 10
19 6
20 9
21 10
22 9
23 6
24 10
25 7
26 9
27 5
28 8
29 6
30 8
31 6
32 9
33 6
34 9
35 7
36 8
37 9
38 10
39 5
40 10
41 10
42 5
43 7
44 8
45 8
46 7
47 7
48 5
49 8
50 8
51 9
52 7
53 9
54 7
55 8
56 9
57 6
58 6
59 10
60 8
61 7
62 8
63 9
64 10
65 5
66 10
67 6
68 8
69 10
70 8
71 9
72 9
73 6
74 8
75 5
76 9
77 5
78 9
79 6
80 5
81 5
82 9
83 8
84 8
85 6
86 10
87 10
88 8
89 10
90 10
91 9
92 5
93 8
94 7
95 10
96 6
COVERAGE_SECTION
2 7 381 311 189 348 134 386 220 
3 7 196 179 101 163 416 28 372 
4 7 148 337 343 389 94 258 286 
5 7 210 23 358 248 267 225 186 
6 7 103 360 110 407 262 394 120 
7 7 313 139 230 401 155 145 26 
8 7 239 218 345 214 150 316 180 
9 7 305 302 399 174 304 423 336 
10 6 142 301 284 183 173 353 
11 7 300 44 21 177 49 158 402 
12 7 87 159 67 115 375 251 341 
13 7 356 116 351 93 174 188 322 
14 7 357 154 73 361 202 271 209 
15 7 131 55 106 63 230 401 250 
16 7 82 146 25 383 155 226 26 
17 7 150 214 345 397 239 8 316 
18 5 212 176 411 164 178 
19 7 354 409 204 363 232 349 147 
20 7 52 377 400 261 290 185 118 
21 7 158 402 49 11 177 331 89 
22 7 384 140 122 78 76 276 391 
23 7 5 358 210 267 318 248 225 
24 7 398 128 403 71 34 334 406 
25 7 226 82 16 26 155 146 401 
26 7 401 155 25 230 82 146 226 
27 7 144 143 267 315 141 358 215 
28 7 372 217 98 173 3 179 101 
29 7 396 66 200 268 414 228 80 
30 6 204 281 19 354 409 393 
31 7 421 258 327 206 91 339 148 
32 7 133 38 328 390 203 172 54 
33 7 113 280 323 277 157 297 34 
34 7 398 323 128 233 113 417 24 
35 6 184 104 162 102 40 293 
36 7 95 288 181 138 383 139 146 
37 7 207 234 224 107 213 378 166 
38 7 133 328 58 22 32 319 384 
39 7 199 289 178 164 254 352 255 
40 5 291 35 184 104 102 
41 7 156 264 85 145 139 235 138 
42 7 240 294 57 50 127 325 270 
43 7 124 244 215 141 143 198 186 
44 7 300 11 177 78 193 89 276 
45 7 213 166 237 169 60 234 190 
46 7 242 415 151 278 303 144 318 
47 6 392 292 412 165 279 263 
48 7 387 65 90 424 149 329 229 
49 7 402 158 21 11 177 300 331 
50 7 270 57 42 126 324 127 294 
51 7 112 287 152 332 68 247 256 
52 7 377 20 261 400 185 118 168 
53 7 408 310 72 84 147 69 335 
54 7 347 203 95 235 288 195 138 
55 7 106 15 131 250 63 145 230 
56 7 405 369 317 262 299 53 147 
57 6 127 294 270 342 336 423 
58 7 417 319 328 233 100 38 133 
59 7 386 197 382 220 355 2 266 
60 7 169 237 190 404 166 45 318 
61 7 115 251 375 71 406 87 410 
62 7 285 109 170 411 136 269 252 
63 7 15 80 55 131 106 230 401 
64 6 370 222 43 368 244 124 
65 7 229 90 48 387 182 424 263 
66 7 29 396 268 200 80 414 86 
67 7 12 419 87 71 61 115 220 
68 7 332 51 152 112 287 247 256 
69 7 72 92 84 310 335 408 53 
70 7 160 243 306 274 97 338 211 
71 7 61 406 67 115 251 375 419 
72 7 69 310 84 408 53 335 92 
73 7 271 14 202 201 361 357 154 
74 7 403 422 119 419 425 24 197 
75 7 208 245 223 275 129 344 364 
76 7 78 384 193 22 89 177 140 
77 7 227 282 286 192 249 91 228 
78 7 76 384 140 122 44 22 300 
79 7 241 295 364 135 344 371 180 
80 7 63 86 321 15 66 131 230 
81 5 326 366 205 418 314 
82 7 16 146 155 383 25 26 226 
83 7 108 265 191 194 86 200 321 
84 7 335 72 69 53 310 92 408 
85 7 145 41 250 156 106 55 137 
86 7 80 321 191 265 63 66 420 
87 7 375 115 251 12 159 61 341 
88 7 161 299 407 262 391 405 238 
89 7 193 177 331 300 44 76 21 
90 7 65 229 48 387 263 231 257 
91 7 258 227 148 286 31 4 77 
92 7 69 335 72 84 236 310 134 
93 7 116 351 356 376 13 309 188 
94 7 389 395 337 4 343 148 340 
95 7 288 36 54 347 138 172 235 
96 7 373 103 391 407 319 6 360 
97 7 274 243 70 160 320 306 211 
98 4 217 173 28 372 
99 6 413 187 137 250 55 85 
100 6 233 417 319 58 34 128 
101 4 163 3 196 179 
102 5 293 416 35 163 101 
103 7 6 360 110 407 262 394 96 
104 6 184 35 162 132 40 102 
105 7 397 129 283 175 17 275 150 
106 7 55 15 131 250 145 230 63 
107 7 207 37 213 234 45 224 166 
108 7 83 191 265 194 200 86 321 
109 6 285 62 136 411 170 252 
110 7 120 360 6 394 103 262 410 
111 6 277 280 33 157 297 113 
112 7 287 152 51 247 332 68 256 
113 7 33 323 157 277 297 34 280 
114 4 290 400 125 20 
115 7 251 375 61 87 12 410 159 
116 7 93 356 351 13 188 376 309 
117 5 236 365 348 92 381 
118 5 185 261 377 52 168 
119 7 422 419 220 67 197 74 71 
120 7 394 410 110 406 334 360 6 
121 7 245 75 223 208 364 295 344 
122 7 140 276 391 78 384 22 44 
123 6 374 329 257 387 48 231 
124 7 43 198 215 244 141 186 225 
125 2 291 40 
126 6 324 270 216 57 301 127 
127 5 342 57 294 336 423 
128 6 398 334 24 34 406 71 
129 7 105 397 208 275 75 17 150 
130 7 188 309 376 322 93 116 356 
131 7 15 106 230 55 63 401 313 
132 6 266 162 355 104 184 35 
133 7 38 328 32 58 390 22 319 
134 7 189 311 341 381 159 2 69 
135 7 180 316 295 364 344 79 218 
136 5 252 109 411 285 62 
137 6 413 99 187 250 85 55 
138 7 288 139 264 156 41 7 181 
139 7 7 138 313 156 264 41 383 
140 7 122 276 384 78 22 391 44 
141 7 215 244 143 43 267 27 186 
142 5 301 10 216 324 126 
143 7 141 244 215 27 144 43 222 
144 7 27 267 143 315 358 141 242 
145 7 85 106 7 41 313 156 131 
146 7 383 82 155 16 25 26 181 
147 7 363 53 232 408 84 310 56 
148 7 4 258 337 343 389 286 91 
149 5 424 48 387 303 329 
150 7 17 214 345 239 8 316 218 
151 5 303 46 242 415 144 
152 7 112 287 247 332 51 68 256 
153 5 36 380 181 308 362 
154 7 357 14 320 97 73 274 209 
155 7 146 26 82 401 383 25 16 
156 7 41 264 139 145 85 138 7 
157 7 297 277 113 33 323 34 280 
158 7 21 402 49 11 177 331 89 
159 7 12 87 341 375 251 115 189 
160 7 70 243 306 274 338 97 211 
161 7 88 299 407 262 238 391 405 
162 6 104 184 132 35 266 355 
163 4 101 291 3 196 
164 6 178 289 352 39 199 176 
165 7 292 235 47 41 195 85 137 
166 7 237 190 45 234 169 219 350 
167 6 378 224 37 198 234 207 
168 4 118 298 377 52 
169 7 237 60 45 166 190 404 219 
170 7 62 285 269 109 416 102 293 
171 4 241 371 253 79 
172 6 390 32 95 54 133 347 
173 7 98 353 284 183 217 372 28 
174 7 305 9 51 112 287 13 152 
175 7 275 105 129 397 208 75 245 
176 7 178 289 164 269 411 62 212 
177 7 89 193 300 331 44 11 21 
178 6 289 164 39 176 255 352 
179 7 196 3 101 416 372 28 163 
180 7 135 316 218 239 8 345 295 
181 7 383 146 16 82 155 139 25 
182 7 229 65 330 48 387 90 278 
183 7 284 353 173 372 98 28 217 
184 6 104 35 162 132 40 102 
185 4 118 261 377 52 
186 7 225 248 350 210 219 5 358 
187 6 413 99 137 250 55 414 
188 7 130 309 322 376 93 116 13 
189 7 134 311 2 381 159 341 12 
190 7 219 248 350 237 166 210 5 
191 7 265 86 321 83 200 80 420 
192 7 340 286 343 337 312 4 77 
193 7 89 177 331 300 76 44 78 
194 4 362 83 265 308 
195 7 203 235 347 54 165 292 367 
196 6 3 179 101 416 163 28 
197 7 386 220 59 422 119 382 419 
198 7 124 43 378 186 215 244 225 
199 6 39 254 352 164 289 178 
200 7 66 29 86 396 191 265 80 
201 5 352 271 202 73 164 
202 7 201 271 73 209 379 352 199 
203 7 195 347 54 235 32 133 95 
204 7 30 19 354 349 409 49 402 
205 6 81 326 314 366 418 246 
206 7 421 339 258 31 327 389 395 
207 7 107 37 213 234 224 45 166 
208 7 75 223 245 129 344 275 364 
209 5 379 306 70 160 117 
210 7 5 248 23 225 358 186 219 
211 7 232 338 335 409 84 160 363 
212 5 18 411 252 176 136 
213 7 45 207 107 166 37 234 237 
214 7 150 345 17 239 8 316 218 
215 7 141 244 143 43 124 267 186 
216 5 126 301 142 324 10 
217 4 98 28 173 372 
218 7 239 8 345 316 180 214 135 
219 7 248 350 210 225 190 186 5 
220 7 197 386 419 422 67 119 59 
221 3 153 36 205 
222 6 388 143 244 215 43 141 
223 7 344 364 295 208 75 79 245 
224 6 378 167 37 234 207 198 
225 7 186 248 350 210 219 5 358 
226 7 25 420 16 82 308 26 380 
227 7 77 286 91 282 192 148 4 
228 6 282 77 227 249 396 29 
229 7 65 90 182 48 387 263 231 
230 7 401 26 131 313 15 7 155 
231 6 257 90 263 329 279 123 
232 7 211 363 409 147 84 335 338 
233 6 100 417 34 319 58 128 
234 7 37 166 224 350 207 219 213 
235 7 347 264 41 156 54 195 203 
236 6 117 92 348 365 311 335 
237 7 169 60 166 190 45 219 350 
238 7 299 161 349 88 11 44 276 
239 7 8 218 345 214 316 150 180 
240 6 325 359 296 307 42 294 
241 7 371 79 171 135 295 364 180 
242 7 46 415 151 144 278 303 27 
243 7 160 70 274 97 211 338 306 
244 7 215 141 143 43 124 222 27 
245 7 75 208 275 121 223 129 344 
246 6 314 366 256 418 307 68 
247 6 152 287 112 332 51 256 
248 7 219 210 350 225 186 5 23 
249 7 312 77 192 340 333 286 282 
250 7 99 55 106 413 137 85 187 
251 7 375 115 87 61 410 12 159 
252 5 136 411 109 285 62 
253 3 171 241 79 
254 6 199 39 365 355 117 266 
255 7 269 162 170 104 178 289 35 
256 6 247 332 152 68 287 112 
257 6 329 231 123 374 90 387 
258 7 148 31 421 91 206 4 339 
259 6 368 64 198 370 378 167 
260 5 327 339 421 206 31 
261 5 185 118 52 377 20 
262 7 360 405 407 6 88 103 299 
263 7 279 412 90 231 229 65 257 
264 7 156 41 138 235 139 145 85 
265 7 191 86 321 83 420 80 200 
266 6 355 132 382 162 59 104 
267 7 358 23 5 210 144 27 141 
268 7 414 396 66 29 187 99 413 
269 7 255 170 62 285 176 178 289 
270 7 57 126 50 324 127 342 294 
271 5 73 201 202 352 14 
272 7 404 60 169 237 330 45 190 
273 7 392 393 47 182 229 367 263 
274 7 97 243 70 160 306 320 211 
275 7 175 129 208 75 245 105 397 
276 7 122 140 391 78 44 384 22 
277 7 157 297 113 33 280 323 111 
278 7 415 46 330 318 242 404 23 
279 6 412 263 231 187 137 90 
280 7 33 277 113 157 323 111 297 
281 4 320 121 30 253 
282 7 77 227 228 286 91 249 192 
283 7 397 105 17 150 214 129 345 
284 7 183 353 173 372 98 28 217 
285 7 62 109 170 411 136 252 269 
286 7 192 227 4 77 148 343 340 
287 7 112 152 51 247 332 68 256 
288 7 138 95 36 139 264 54 347 
289 6 178 164 39 176 255 352 
290 5 400 114 20 52 377 
291 4 163 40 125 293 
292 7 165 47 235 195 41 137 85 
293 5 102 416 163 35 101 
294 7 127 57 342 423 336 302 304 
295 7 364 344 223 79 135 316 180 
296 5 359 307 240 325 68 
297 7 157 277 113 323 33 417 34 
298 3 322 168 13 
299 7 161 88 262 405 238 407 56 
300 7 44 177 11 89 193 78 76 
301 5 142 10 216 324 126 
302 7 304 305 9 423 51 174 68 
303 5 151 46 242 415 424 
304 7 302 305 9 423 51 68 174 
305 7 9 302 304 174 399 423 51 
306 6 70 160 209 379 338 243 
307 7 68 296 332 51 304 256 152 
308 7 380 362 226 420 16 25 82 
309 7 376 130 188 93 116 356 351 
310 7 408 72 53 69 84 335 92 
311 7 381 189 2 134 348 159 341 
312 7 249 192 340 286 77 343 333 
313 7 7 230 401 155 139 26 131 
314 7 246 81 366 205 418 326 256 
315 6 27 144 143 388 222 141 
316 7 180 135 218 239 214 345 8 
317 7 369 405 56 262 110 360 120 
318 7 23 5 358 210 190 267 248 
319 6 100 373 58 96 233 417 
320 6 97 274 154 357 243 70 
321 7 86 420 80 226 25 265 191 
322 6 188 298 13 130 309 116 
323 7 113 34 33 398 157 297 128 
324 7 126 270 216 301 142 50 57 
325 5 359 240 296 307 42 
326 5 81 366 418 205 314 
327 6 260 339 421 31 206 258 
328 7 133 38 58 417 319 32 390 
329 6 123 374 257 387 48 231 
330 7 278 404 415 182 46 318 242 
331 7 89 193 177 21 300 158 44 
332 7 152 68 51 112 287 247 256 
333 7 249 312 192 77 340 228 29 
334 6 406 394 128 410 120 61 
335 7 84 92 69 72 310 53 408 
336 5 423 342 399 9 127 
337 7 343 4 94 148 340 389 192 
338 7 211 335 160 70 84 92 232 
339 7 206 421 327 260 31 258 395 
340 7 192 343 337 286 312 4 148 
341 7 159 87 12 375 134 251 189 
342 5 127 336 423 294 57 
343 7 337 4 340 148 192 389 94 
344 7 295 364 223 135 316 79 180 
345 7 214 239 8 150 17 218 316 
346 7 385 393 272 273 169 45 30 
347 7 54 235 203 195 288 95 264 
348 7 381 311 365 2 236 134 189 
349 7 238 11 299 49 161 402 88 
350 7 219 248 225 186 210 5 190 
351 5 356 116 93 13 174 
352 5 164 201 199 39 178 
353 7 183 284 173 372 28 98 217 
354 7 409 19 232 211 243 363 274 
355 6 266 132 382 59 162 386 
356 6 116 351 93 13 174 188 
357 7 154 14 320 97 73 209 274 
358 7 267 23 5 210 248 225 318 
359 5 296 325 240 307 68 
360 7 6 103 110 262 407 394 120 
361 7 73 14 271 175 154 357 202 
362 5 308 380 420 226 16 
363 7 147 232 409 53 84 211 335 
364 7 295 344 223 79 135 316 180 
365 7 117 348 236 381 311 2 254 
366 4 418 81 326 246 
367 7 331 392 89 193 76 177 195 
368 5 259 64 370 198 222 
369 7 317 405 56 262 110 360 120 
370 6 64 222 388 368 244 43 
371 7 241 79 135 171 180 316 295 
372 7 28 353 173 179 183 3 98 
373 7 96 319 391 407 103 122 6 
374 6 123 329 257 31 387 149 
375 7 251 115 87 61 12 159 410 
376 7 309 93 130 188 116 351 356 
377 7 52 20 261 185 400 118 168 
378 6 224 167 198 37 234 124 
379 5 209 306 117 202 70 
380 7 308 362 16 226 25 82 420 
381 7 311 2 348 189 134 365 386 
382 6 59 197 266 386 355 422 
383 7 146 82 155 16 181 25 26 
384 7 22 140 78 76 122 276 44 
385 7 346 393 272 273 30 204 404 
386 7 59 197 220 2 382 422 119 
387 7 48 65 90 329 424 149 229 
388 6 222 315 143 244 27 370 
389 7 94 395 4 337 148 343 206 
390 7 328 133 32 172 297 38 58 
391 7 276 122 140 407 88 96 373 
392 7 47 367 273 331 292 165 89 
393 7 385 273 346 204 402 49 158 
394 7 120 110 410 334 6 103 360 
395 7 389 94 4 206 337 148 343 
396 7 414 268 29 66 228 200 63 
397 7 105 129 17 283 150 214 345 
398 6 128 34 24 323 334 403 
399 5 9 336 423 305 174 
400 5 20 52 377 290 261 
401 7 26 230 155 313 25 7 131 
402 7 49 158 21 11 177 331 300 
403 7 74 24 425 119 398 419 422 
404 7 60 330 278 169 318 272 237 
405 7 56 262 369 317 299 88 161 
406 7 61 410 334 71 115 251 375 
407 7 88 6 103 262 360 161 299 
408 7 310 53 72 69 84 335 147 
409 7 232 363 354 211 147 19 53 
410 7 120 406 251 115 375 61 394 
411 5 62 285 252 109 136 
412 6 279 263 47 231 137 187 
413 6 99 187 137 250 55 85 
414 7 268 396 66 29 187 99 413 
415 7 46 242 278 318 151 303 23 
416 7 293 102 196 3 179 101 170 
417 6 233 100 58 319 34 297 
418 3 366 326 81 
419 7 119 422 67 220 71 197 12 
420 7 226 321 25 308 380 26 16 
421 7 206 339 31 258 327 148 260 
422 7 119 419 197 220 74 67 386 
423 7 336 9 399 305 342 302 304 
424 5 149 48 387 303 151 
425 7 403 74 33 24 323 280 113 
DEPOT_SECTION
   1
   -1
EOF
