NAME :  X-n480-kX-w191-c9.cctp
COMMENT : 	Adapted by Maziero, Usberti and Cavellucci from the Uchoa, Pecin, Pessoa, Poggi, Subramanian, and Vidal (2013)
TYPE :  CCTP
DIMENSION :    479
EDGE_WEIGHT_TYPE : 	EUC_2D	
CAPACITY : 	52
VERTICES_WITHIN_COVERAGE :  9
VERTICES_WITH_DEMAND : 	191
NODE_COORD_SECTION
1 628 103
2 291 573
3 129 447
4 973 643
5 830 868
6 398 563
7 731 423
8 201 995
9 167 174
10 31 358
11 480 619
12 323 555
13 205 208
14 187 767
15 775 445
16 745 369
17 188 965
18 44 585
19 405 706
20 185 315
21 505 636
22 482 543
23 830 860
24 344 498
25 762 379
26 761 399
27 869 844
28 114 420
29 890 491
30 440 802
31 929 676
32 524 456
33 361 434
34 377 478
35 191 496
36 646 352
37 795 962
38 483 492
39 174 597
40 208 464
41 693 461
42 56 114
43 877 898
44 483 596
45 757 915
46 833 803
47 676 597
48 818 695
49 494 648
50 5 167
51 197 146
52 170 313
53 354 624
54 603 437
55 773 462
56 386 610
57 75 183
58 442 485
59 269 543
60 770 869
61 342 542
62 103 508
63 799 441
64 935 918
65 790 696
66 857 459
67 319 541
68 195 131
69 328 617
70 297 697
71 337 529
72 337 620
73 152 735
74 302 491
75 229 909
76 508 567
77 940 591
78 490 571
79 262 962
80 818 425
81 357 82
82 743 377
83 927 322
84 335 633
85 725 477
86 839 403
87 333 557
88 421 589
89 515 601
90 791 669
91 935 639
92 314 623
93 238 198
94 1000 656
95 613 387
96 425 544
97 299 730
98 359 986
99 107 394
100 766 513
101 409 500
102 144 441
103 163 479
104 400 560
105 198 506
106 176 926
107 763 458
108 761 982
109 986 312
110 94 492
111 183 372
112 383 562
113 384 366
114 204 147
115 373 443
116 231 359
117 340 551
118 751 545
119 232 198
120 271 629
121 139 319
122 305 521
123 370 556
124 273 895
125 466 566
126 865 654
127 869 910
128 216 415
129 41 244
130 304 153
131 97 186
132 368 504
133 194 925
134 254 246
135 766 440
136 212 535
137 492 471
138 314 590
139 153 22
140 235 976
141 70 484
142 748 521
143 675 415
144 705 421
145 267 658
146 471 562
147 870 876
148 24 331
149 882 865
150 864 841
151 730 459
152 734 383
153 200 392
154 367 641
155 966 646
156 856 722
157 336 971
158 191 969
159 898 763
160 857 790
161 206 143
162 682 258
163 230 771
164 745 394
165 692 452
166 395 437
167 503 642
168 326 565
169 888 761
170 134 223
171 300 695
172 423 593
173 204 516
174 158 441
175 133 604
176 140 79
177 673 529
178 788 909
179 954 788
180 843 989
181 145 278
182 764 881
183 125 504
184 301 977
185 540 385
186 92 399
187 192 176
188 169 888
189 101 564
190 506 603
191 137 584
192 121 451
193 229 981
194 706 365
195 761 741
196 70 415
197 198 502
198 142 323
199 839 888
200 772 526
201 237 235
202 308 579
203 791 283
204 801 882
205 873 368
206 977 606
207 514 594
208 123 227
209 848 261
210 603 508
211 128 454
212 283 535
213 934 787
214 868 930
215 181 618
216 904 440
217 140 672
218 181 689
219 587 479
220 451 745
221 402 34
222 962 687
223 776 972
224 223 915
225 242 683
226 149 353
227 831 873
228 332 672
229 44 546
230 754 940
231 197 971
232 872 879
233 63 283
234 119 398
235 211 995
236 819 887
237 296 542
238 596 153
239 916 873
240 239 931
241 830 971
242 837 887
243 107 365
244 774 369
245 933 612
246 312 807
247 905 557
248 768 692
249 761 420
250 812 621
251 350 667
252 150 393
253 407 490
254 806 935
255 646 471
256 286 627
257 774 888
258 440 615
259 204 991
260 117 90
261 277 979
262 840 813
263 313 708
264 882 881
265 234 889
266 257 56
267 224 516
268 349 921
269 214 144
270 382 283
271 826 883
272 967 562
273 763 487
274 341 554
275 61 494
276 329 948
277 220 601
278 160 538
279 217 126
280 837 636
281 949 661
282 931 987
283 6 436
284 934 726
285 154 327
286 98 361
287 399 584
288 759 634
289 680 453
290 869 362
291 232 538
292 126 636
293 847 860
294 834 503
295 164 447
296 330 175
297 163 242
298 97 651
299 139 530
300 921 868
301 48 486
302 38 202
303 134 708
304 717 846
305 640 705
306 305 727
307 197 891
308 460 573
309 387 417
310 382 519
311 124 241
312 803 815
313 757 597
314 356 411
315 352 846
316 112 299
317 916 589
318 150 952
319 170 391
320 68 410
321 100 500
322 958 616
323 205 147
324 654 402
325 981 766
326 138 584
327 216 332
328 186 443
329 671 534
330 160 475
331 104 159
332 240 951
333 161 74
334 403 437
335 456 327
336 172 247
337 417 601
338 490 600
339 23 319
340 254 376
341 160 152
342 855 778
343 159 149
344 228 636
345 169 168
346 274 684
347 176 108
348 770 337
349 261 226
350 345 615
351 297 588
352 888 1000
353 989 575
354 736 422
355 292 17
356 893 829
357 221 975
358 139 252
359 372 588
360 854 612
361 814 849
362 431 513
363 292 780
364 817 382
365 209 252
366 369 460
367 4 252
368 114 48
369 364 113
370 932 709
371 468 470
372 851 660
373 774 798
374 526 611
375 202 136
376 993 516
377 228 142
378 370 528
379 327 636
380 134 190
381 988 634
382 310 663
383 960 699
384 989 609
385 332 575
386 114 199
387 22 461
388 986 630
389 233 947
390 198 981
391 599 858
392 47 518
393 616 451
394 153 358
395 284 599
396 440 645
397 825 894
398 229 186
399 142 637
400 77 417
401 368 714
402 234 547
403 224 194
404 228 763
405 839 860
406 170 453
407 141 55
408 395 569
409 124 795
410 784 319
411 367 655
412 241 949
413 265 609
414 309 109
415 579 588
416 968 971
417 374 588
418 953 903
419 268 995
420 101 427
421 434 539
422 874 663
423 340 555
424 265 215
425 169 312
426 845 973
427 240 670
428 758 336
429 287 585
430 258 525
431 794 253
432 726 382
433 487 551
434 592 837
435 279 547
436 820 692
437 926 852
438 991 659
439 478 410
440 443 568
441 625 630
442 128 364
443 577 761
444 379 548
445 999 672
446 863 505
447 178 937
448 364 490
449 160 197
450 186 335
451 757 408
452 240 154
453 497 647
454 322 484
455 768 833
456 392 601
457 355 536
458 414 573
459 349 615
460 367 682
461 358 552
462 78 516
463 743 601
464 766 516
465 835 509
466 823 812
467 141 474
468 446 325
469 415 483
470 303 134
471 311 526
472 791 365
473 951 686
474 298 520
475 140 179
476 848 729
477 315 451
478 160 413
479 341 997
DEMAND_SECTION
2 6
3 7
4 9
5 7
6 10
7 10
8 7
9 6
10 6
11 8
12 6
13 5
14 10
15 8
16 9
17 9
18 10
19 6
20 9
21 10
22 9
23 6
24 10
25 7
26 9
27 5
28 8
29 6
30 8
31 6
32 9
33 6
34 9
35 7
36 8
37 9
38 10
39 5
40 10
41 10
42 5
43 7
44 8
45 8
46 7
47 7
48 5
49 8
50 8
51 9
52 7
53 9
54 7
55 8
56 9
57 6
58 6
59 10
60 8
61 7
62 8
63 9
64 10
65 5
66 10
67 6
68 8
69 10
70 8
71 9
72 9
73 6
74 8
75 5
76 9
77 5
78 9
79 6
80 5
81 5
82 9
83 8
84 8
85 6
86 10
87 10
88 8
89 10
90 10
91 9
92 5
93 8
94 7
95 10
96 6
97 5
98 6
99 8
100 7
101 6
102 5
103 5
104 5
105 6
106 9
107 9
108 8
109 10
110 7
111 9
112 7
113 5
114 9
115 9
116 6
117 8
118 5
119 5
120 8
121 10
122 7
123 7
124 6
125 7
126 10
127 9
128 5
129 10
130 6
131 9
132 7
133 10
134 7
135 5
136 7
137 9
138 10
139 6
140 10
141 7
142 6
143 8
144 8
145 6
146 8
147 5
148 7
149 10
150 7
151 7
152 6
153 7
154 6
155 5
156 5
157 10
158 6
159 6
160 9
161 7
162 10
163 9
164 5
165 7
166 10
167 10
168 5
169 6
170 9
171 9
172 9
173 10
174 9
175 10
176 9
177 6
178 8
179 9
180 9
181 8
182 10
183 7
184 10
185 9
186 6
187 8
188 5
189 8
190 9
191 8
192 9
COVERAGE_SECTION
2 9 429 351 202 395 138 435 237 168 12 
3 9 211 192 102 174 467 28 420 295 406 
4 9 155 381 388 438 94 281 322 206 91 
5 9 227 23 405 271 293 242 199 236 361 
6 9 104 408 112 458 287 444 123 96 88 
7 9 354 144 249 451 164 151 26 135 152 
8 9 259 235 390 231 158 357 193 17 140 
9 9 345 341 449 187 343 475 380 51 114 
10 9 148 339 320 286 196 186 400 243 233 
11 9 338 44 21 190 49 167 453 89 258 
12 9 87 168 67 117 423 274 385 61 202 
13 9 403 119 398 93 187 201 365 449 9 
14 9 404 163 73 409 218 303 225 217 363 
15 9 135 55 107 63 249 451 273 354 80 
16 9 82 152 25 432 164 244 26 428 194 
17 9 158 231 390 447 259 8 357 235 133 
18 9 229 189 392 462 298 175 191 275 326 
19 9 401 460 220 411 251 396 154 228 263 
20 9 52 425 450 285 327 198 121 226 181 
21 9 167 453 49 11 190 374 89 338 207 
22 9 433 146 125 78 76 308 440 421 38 
23 9 5 405 227 293 361 271 242 199 236 
24 9 448 132 454 71 34 378 457 74 310 
25 9 244 82 16 26 164 152 451 472 432 
26 9 451 164 25 249 82 152 244 16 354 
27 9 150 149 293 356 147 405 232 264 23 
28 9 420 234 99 186 3 192 102 211 400 
29 9 446 66 216 294 465 247 80 317 86 
30 9 220 315 19 401 246 460 443 268 363 
31 9 473 281 370 222 91 383 155 284 4 
32 9 137 38 371 439 219 185 54 58 393 
33 9 115 314 366 309 166 334 34 477 448 
34 9 448 366 132 253 115 469 24 101 310 
35 9 197 105 173 103 40 330 267 136 406 
36 9 95 324 194 143 432 144 152 54 16 
37 9 223 254 241 108 230 426 178 180 45 
38 9 137 371 58 22 32 362 433 421 469 
39 9 215 326 191 175 277 399 278 292 344 
40 9 328 35 197 406 105 103 295 330 128 
41 9 165 289 85 151 144 255 143 7 354 
42 9 260 331 57 50 131 368 302 176 386 
43 9 127 264 232 147 149 214 199 242 239 
44 9 338 11 190 78 207 89 308 125 146 
45 9 230 178 257 182 60 254 204 37 223 
46 9 262 466 160 312 342 150 361 27 23 
47 9 441 329 463 177 313 118 288 415 142 
48 9 436 65 90 476 156 372 248 126 280 
49 9 453 167 21 11 190 338 374 89 44 
50 9 302 57 42 129 367 131 331 386 233 
51 9 114 323 161 375 68 269 279 187 377 
52 9 425 20 285 450 198 121 181 226 394 
53 9 459 350 72 84 154 69 379 411 56 
54 9 393 219 95 255 324 210 143 289 32 
55 9 107 15 135 273 63 151 249 85 100 
56 9 456 417 359 287 337 53 154 459 88 
57 9 131 331 302 386 380 208 475 129 170 
58 9 469 362 371 253 101 38 137 421 96 
59 9 435 212 430 237 402 2 291 474 122 
60 9 182 257 204 455 178 45 361 236 271 
61 9 117 274 423 71 457 87 461 12 67 
62 9 321 110 183 462 141 299 275 467 189 
63 9 15 80 55 135 107 249 451 86 26 
64 9 418 239 300 43 416 264 127 437 214 
65 9 248 90 48 436 195 476 288 156 372 
66 9 29 446 294 216 80 465 86 63 15 
67 9 12 471 87 71 61 117 237 122 168 
68 9 375 51 161 114 323 269 279 347 377 
69 9 72 92 84 350 379 459 53 138 351 
70 9 171 263 346 306 97 382 228 145 225 
71 9 61 457 67 117 274 423 471 87 12 
72 9 69 350 84 459 53 379 92 154 138 
73 9 303 14 218 217 409 404 163 399 298 
74 9 454 474 122 471 477 24 212 237 71 
75 9 224 265 240 307 133 389 412 332 124 
76 9 78 433 207 22 89 190 146 44 338 
77 9 245 317 322 206 272 91 247 353 384 
78 9 76 433 146 125 44 22 338 308 207 
79 9 261 332 412 140 389 419 193 240 184 
80 9 63 86 364 15 66 135 249 55 26 
81 9 369 414 221 470 130 355 296 266 452 
82 9 16 152 164 432 25 26 244 451 194 
83 8 109 290 205 209 86 216 364 203 
84 9 379 72 69 53 350 92 459 154 251 
85 9 151 41 273 165 107 55 142 289 7 
86 9 80 364 205 290 63 66 472 244 216 
87 9 423 117 274 12 168 61 385 67 461 
88 9 172 337 458 287 440 456 258 408 6 
89 9 207 190 374 338 44 76 21 11 78 
90 9 65 248 48 436 288 250 280 372 126 
91 9 281 245 155 322 31 4 77 473 388 
92 9 69 379 72 84 256 350 138 459 395 
93 9 119 398 403 424 13 349 201 452 134 
94 9 438 445 381 4 388 155 384 222 281 
95 9 324 36 54 393 143 185 255 289 194 
96 9 421 104 440 458 362 6 408 88 308 
97 9 306 263 70 171 363 346 228 382 401 
98 9 479 157 276 184 268 261 419 79 140 
99 9 234 186 28 243 286 420 442 400 320 
100 9 464 200 142 273 118 55 85 107 151 
101 9 253 469 362 310 58 34 132 421 448 
102 9 174 3 211 295 192 406 478 467 28 
103 9 330 467 406 295 35 174 102 197 211 
104 9 6 408 112 458 287 444 96 123 88 
105 9 197 35 173 267 136 40 103 291 330 
106 9 447 133 318 188 17 307 158 224 231 
107 9 55 15 135 273 151 249 63 85 354 
108 9 223 37 230 254 45 241 178 180 426 
109 8 83 205 290 209 216 86 364 66 
110 9 321 62 141 462 183 275 301 192 467 
111 9 319 153 394 450 226 252 478 116 327 
112 9 123 408 6 444 104 287 461 359 417 
113 9 309 314 33 166 334 468 115 335 270 
114 9 323 161 51 269 375 68 279 377 187 
115 9 33 366 166 309 334 34 314 448 253 
116 9 340 327 153 111 450 128 20 319 52 
117 9 274 423 61 87 12 461 168 457 71 
118 9 142 200 464 100 313 463 273 85 177 
119 9 93 403 398 13 201 424 349 452 187 
120 9 256 413 145 395 92 344 429 351 427 
121 9 198 285 425 52 316 226 181 394 20 
122 9 474 471 237 67 212 74 71 435 12 
123 9 444 461 112 457 378 408 6 274 104 
124 9 265 75 240 224 412 332 389 79 307 
125 9 146 308 440 78 433 22 44 76 338 
126 9 422 372 280 360 436 48 250 31 156 
127 9 43 214 232 264 147 199 242 149 397 
128 9 153 328 40 319 111 340 478 116 406 
129 9 367 302 233 57 339 131 311 208 50 
130 9 470 296 414 452 369 424 377 93 398 
131 9 386 57 331 380 475 208 170 302 311 
132 9 448 310 378 24 34 457 71 101 253 
133 9 106 447 224 307 75 17 158 188 240 
134 9 201 349 424 365 93 119 403 13 398 
135 9 15 107 249 55 63 451 354 7 26 
136 9 291 173 267 402 105 197 35 430 278 
137 9 38 371 32 58 439 22 362 469 433 
138 9 202 351 385 429 168 2 69 395 92 
139 9 407 368 333 176 260 347 266 68 279 
140 9 193 357 332 412 389 79 235 259 390 
141 9 275 301 110 462 321 62 392 387 183 
142 9 464 100 118 200 273 85 55 107 151 
143 9 324 144 289 165 41 7 194 354 432 
144 9 7 143 354 165 289 41 432 151 152 
145 9 346 120 427 225 256 382 344 70 413 
146 9 125 308 433 78 22 440 44 76 338 
147 9 232 264 149 43 293 27 199 127 242 
148 9 339 10 233 286 367 129 243 320 316 
149 9 147 264 232 27 150 43 239 293 356 
150 9 27 293 149 356 405 147 262 23 232 
151 9 85 107 7 41 354 165 135 55 273 
152 9 432 82 164 16 25 26 194 451 354 
153 9 111 128 319 116 478 252 328 340 394 
154 9 411 53 251 459 84 350 56 72 379 
155 9 4 281 381 388 438 322 91 94 206 
156 9 476 48 436 169 342 159 372 422 160 
157 9 276 479 98 184 268 261 419 79 332 
158 9 17 231 390 259 8 357 235 447 193 
159 9 169 213 342 160 284 156 476 179 370 
160 9 342 46 262 466 169 159 150 356 27 
161 9 114 323 269 375 51 68 279 377 187 
162 8 36 428 194 203 431 348 410 16 
163 9 404 14 363 97 73 306 225 246 218 
164 9 152 26 82 451 432 25 16 354 249 
165 9 41 289 144 151 85 143 7 255 354 
166 9 334 309 115 33 366 34 314 469 253 
167 9 21 453 49 11 190 374 89 338 207 
168 9 12 87 385 423 274 117 202 67 61 
169 9 159 342 160 156 476 213 284 356 370 
170 9 208 311 358 386 380 297 449 475 336 
171 9 70 263 346 306 382 97 228 145 251 
172 9 88 337 458 287 258 440 456 408 6 
173 9 105 197 267 136 35 291 402 278 40 
174 9 295 102 406 328 478 3 211 330 467 
175 9 191 326 292 399 39 215 189 298 217 
176 9 333 407 260 368 347 139 343 68 341 
177 9 329 255 47 41 210 85 142 289 165 
178 9 257 204 45 254 182 236 397 60 230 
179 9 213 325 159 284 437 169 356 370 300 
180 9 426 241 352 37 214 254 223 108 127 
181 9 358 316 297 121 336 425 52 311 198 
182 9 257 60 45 178 204 455 236 304 361 
183 9 62 321 299 110 467 103 330 278 462 
184 9 261 157 419 276 79 479 98 140 332 
185 9 439 32 95 54 137 393 335 219 36 
186 9 99 400 320 196 234 420 28 243 286 
187 9 345 9 51 114 323 13 161 403 398 
188 9 307 106 133 447 224 75 265 318 17 
189 9 191 326 175 299 462 62 229 18 278 
190 9 89 207 338 374 44 11 21 76 78 
191 9 326 175 39 189 278 292 399 299 215 
192 9 211 3 102 467 420 28 174 295 330 
193 9 140 357 235 259 8 390 332 231 389 
194 9 432 152 16 82 164 144 25 143 428 
195 9 248 65 373 48 436 90 312 476 455 
196 9 320 400 186 420 99 28 234 286 192 
197 9 105 35 173 267 136 40 103 330 291 
198 9 121 285 425 52 226 394 316 442 20 
199 9 242 271 397 227 236 5 405 23 293 
200 9 464 100 142 118 273 55 465 294 85 
201 9 134 349 365 424 93 119 13 403 398 
202 9 138 351 2 429 168 385 12 395 87 
203 8 431 410 348 209 428 472 244 16 
204 9 236 271 397 257 178 227 5 60 361 
205 9 290 86 364 83 216 80 472 66 244 
206 9 384 322 388 381 353 4 77 155 245 
207 9 89 190 374 338 76 44 78 11 21 
208 9 170 311 386 358 380 297 449 131 475 
209 8 431 203 410 83 290 348 205 428 
210 9 219 255 393 54 177 329 415 32 289 
211 9 3 192 102 467 174 28 295 330 420 
212 9 435 237 59 474 122 430 471 67 2 
213 9 179 159 325 169 356 284 437 160 370 
214 9 127 43 426 199 232 264 242 147 241 
215 9 39 277 399 175 344 326 191 292 217 
216 9 66 29 86 446 205 290 80 294 465 
217 9 399 303 292 218 298 73 175 215 39 
218 9 217 303 73 225 427 399 215 344 292 
219 9 210 393 54 255 32 137 95 289 177 
220 9 30 19 401 396 460 49 453 167 21 
221 9 81 369 355 414 470 266 130 296 452 
222 9 473 383 281 31 370 438 445 155 4 
223 9 108 37 230 254 241 45 178 180 426 
224 9 75 240 265 133 389 307 412 332 106 
225 9 427 346 145 344 70 171 120 218 256 
226 9 394 442 285 198 121 111 252 450 319 
227 9 5 271 23 242 405 199 236 293 397 
228 9 251 382 379 460 84 171 411 263 70 
229 9 392 18 462 275 189 301 141 62 321 
230 9 45 223 108 178 37 254 257 182 60 
231 9 158 390 17 259 8 357 235 193 140 
232 9 147 264 149 43 127 293 199 27 242 
233 9 129 316 339 148 367 311 10 181 208 
234 9 99 28 186 252 420 243 442 286 478 
235 9 259 8 390 357 193 231 140 158 17 
236 9 271 397 227 242 204 199 5 23 405 
237 9 212 435 471 474 67 122 59 12 2 
238 9 162 36 431 335 221 468 203 95 369 
239 9 300 437 149 264 232 43 147 418 64 
240 9 389 412 332 224 75 79 265 133 140 
241 9 426 180 37 254 223 214 352 108 127 
242 9 199 271 397 227 236 5 405 23 293 
243 9 286 442 99 234 186 226 394 252 28 
244 9 25 472 16 82 348 26 428 164 152 
245 9 77 322 91 317 206 155 4 281 384 
246 9 363 315 97 306 163 404 124 263 401 
247 9 317 77 245 272 446 29 360 322 465 
248 9 65 90 195 48 436 288 250 476 280 
249 9 451 26 135 354 15 7 164 107 25 
250 9 280 360 90 288 372 313 126 436 463 
251 9 228 411 460 154 84 379 382 53 72 
252 9 319 478 234 394 442 111 226 99 28 
253 9 101 469 34 362 58 310 132 448 366 
254 9 37 178 241 397 223 236 230 45 204 
255 9 393 289 41 165 54 210 219 143 177 
256 9 120 92 395 413 145 351 379 429 69 
257 9 182 60 178 204 45 236 397 271 455 
258 9 337 172 396 88 11 44 308 440 458 
259 9 8 235 390 231 357 158 193 17 140 
260 9 176 368 407 333 347 42 331 343 341 
261 9 419 79 184 140 332 412 193 389 357 
262 9 46 466 160 150 312 342 27 361 405 
263 9 171 70 306 97 228 382 346 251 401 
264 9 232 147 149 43 127 239 27 293 300 
265 9 75 224 307 124 240 133 389 412 332 
266 9 355 414 279 377 470 347 68 375 269 
267 9 173 136 291 105 197 402 430 35 59 
268 9 276 157 98 184 315 479 124 261 79 
269 9 161 323 114 375 377 51 279 68 452 
270 9 468 113 335 296 314 134 309 349 424 
271 9 236 227 397 242 199 5 23 204 405 
272 9 353 77 206 384 376 322 317 245 247 
273 9 100 55 107 464 142 85 200 151 15 
274 9 423 117 87 61 461 12 168 385 457 
275 9 141 301 392 462 110 321 62 387 229 
276 9 157 268 184 98 479 261 79 124 419 
277 9 344 215 39 413 402 120 291 395 136 
278 9 299 173 183 105 191 326 35 136 197 
279 9 269 375 377 161 68 323 114 51 452 
280 9 372 250 360 126 422 90 436 48 65 
281 9 155 31 473 91 222 4 383 438 322 
282 9 416 352 64 214 418 426 180 127 241 
283 9 387 301 196 320 400 141 275 10 392 
284 9 370 383 473 222 31 159 169 213 325 
285 9 198 121 52 425 226 394 20 450 442 
286 9 243 442 99 186 234 226 394 320 198 
287 9 408 456 458 6 88 104 337 417 172 
288 9 313 463 90 250 248 65 280 436 48 
289 9 165 41 143 255 144 151 85 324 7 
290 9 205 86 364 83 472 80 216 244 410 
291 9 402 136 267 430 173 59 105 435 197 
292 9 399 175 298 217 191 326 215 39 303 
293 9 405 23 5 227 150 27 147 199 242 
294 9 465 446 66 29 200 100 464 63 55 
295 9 174 406 102 328 330 103 478 3 467 
296 9 130 470 414 369 424 349 452 93 81 
297 9 336 358 170 311 181 208 449 365 13 
298 9 292 399 217 175 303 191 326 18 189 
299 9 278 183 62 321 189 191 326 103 467 
300 9 239 437 149 264 418 356 232 64 147 
301 9 275 141 392 387 462 110 321 62 229 
302 9 57 129 50 367 131 386 331 233 208 
303 9 73 217 218 298 399 292 14 409 215 
304 9 455 60 182 257 373 45 204 312 178 
305 9 441 443 47 195 248 415 288 434 463 
306 9 97 263 70 171 346 363 228 382 401 
307 9 188 133 224 75 265 106 447 240 389 
308 9 125 146 440 78 44 433 22 338 88 
309 9 166 334 115 33 314 366 113 34 469 
310 9 378 132 444 457 101 448 253 123 34 
311 9 208 358 170 297 181 386 336 380 449 
312 9 466 46 373 361 262 455 23 405 5 
313 9 463 288 118 250 200 142 90 47 464 
314 9 33 309 115 166 366 113 334 477 34 
315 9 246 268 363 124 30 276 157 265 97 
316 9 121 198 181 285 233 358 425 311 52 
317 9 77 245 247 322 91 272 206 360 353 
318 9 447 106 17 158 231 133 390 8 188 
319 9 252 111 478 153 394 226 442 174 234 
320 9 196 400 186 420 99 28 234 286 243 
321 9 62 110 183 462 141 275 299 467 192 
322 9 206 245 4 77 155 388 384 91 381 
323 9 114 161 51 269 375 68 279 377 187 
324 9 143 95 36 144 289 54 393 165 194 
325 9 179 213 284 383 370 222 159 473 169 
326 9 191 175 39 189 278 292 399 299 215 
327 9 450 116 20 52 425 111 340 153 285 
328 9 406 295 174 40 478 128 330 102 103 
329 9 177 47 255 210 41 142 85 118 289 
330 9 103 467 406 295 174 35 102 211 328 
331 9 131 57 386 475 380 341 343 9 42 
332 9 412 389 240 79 140 357 193 224 75 
333 9 176 407 347 260 139 368 68 375 343 
334 9 166 309 115 366 33 469 34 253 314 
335 9 468 113 270 439 185 309 334 166 314 
336 9 297 358 365 181 170 311 13 449 208 
337 9 172 88 287 456 258 458 56 408 6 
338 9 44 190 11 89 207 78 76 374 21 
339 9 148 10 233 367 129 286 316 243 320 
340 9 116 128 153 327 111 450 319 20 328 
341 9 343 345 9 475 51 187 68 114 323 
342 9 160 46 169 262 159 466 476 156 150 
343 9 341 345 9 475 51 68 187 347 114 
344 9 277 427 120 145 413 225 215 256 346 
345 9 9 341 343 187 449 475 51 114 380 
346 9 70 145 171 225 427 382 263 97 306 
347 9 68 333 375 51 343 279 161 176 341 
348 9 428 410 244 472 16 25 82 152 203 
349 9 424 134 201 93 119 403 398 365 13 
350 9 459 72 53 69 84 379 92 154 359 
351 9 429 202 2 138 395 168 385 413 92 
352 9 282 180 426 241 214 416 127 64 37 
353 9 272 206 384 322 77 388 376 381 245 
354 9 7 249 451 164 144 26 135 151 152 
355 9 266 81 414 221 470 369 279 130 139 
356 9 27 150 149 437 300 239 147 160 264 
357 9 193 140 235 259 231 390 8 389 158 
358 9 311 297 181 170 208 336 316 386 449 
359 9 417 456 56 287 112 408 123 459 6 
360 9 280 126 250 372 422 317 247 245 90 
361 9 23 5 405 227 204 293 271 312 236 
362 9 101 421 58 96 253 469 310 38 104 
363 9 246 97 306 163 404 263 70 171 315 
364 9 86 472 80 244 25 290 205 26 63 
365 9 201 336 13 134 297 349 119 403 93 
366 9 115 34 33 448 166 334 132 24 309 
367 9 129 302 233 339 148 50 57 10 131 
368 9 407 176 260 139 333 347 42 331 343 
369 9 81 414 470 296 130 221 355 266 452 
370 9 284 383 473 31 222 281 159 169 91 
371 9 137 38 58 469 362 32 439 253 101 
372 9 126 422 280 436 48 360 250 90 156 
373 9 312 455 466 195 46 361 262 60 304 
374 9 89 207 190 21 338 167 44 453 11 
375 9 161 68 51 114 323 269 279 377 347 
376 9 272 353 206 77 384 247 29 317 322 
377 9 269 452 279 161 323 114 375 51 68 
378 9 310 457 444 132 461 123 61 71 112 
379 9 84 92 69 72 350 53 459 382 228 
380 9 475 386 449 170 9 131 208 345 331 
381 9 388 4 94 155 384 438 206 322 445 
382 9 228 379 171 70 84 92 251 346 145 
383 9 222 473 370 284 31 281 445 438 155 
384 9 206 388 381 322 353 4 155 94 438 
385 9 168 87 12 423 138 274 202 117 61 
386 9 131 380 208 170 475 331 57 311 449 
387 9 283 301 275 141 392 196 320 400 110 
388 9 381 4 384 155 206 438 94 322 445 
389 9 332 412 240 140 357 79 193 224 75 
390 9 231 259 8 158 17 235 357 193 140 
391 9 434 443 304 305 182 45 30 60 455 
392 9 229 275 462 301 141 110 321 62 387 
393 9 54 255 219 210 324 95 289 143 165 
394 9 226 442 285 111 252 198 319 450 121 
395 9 429 351 413 2 256 138 202 120 92 
396 9 258 11 337 49 172 453 88 167 56 
397 9 236 271 242 199 227 5 204 23 405 
398 9 403 119 93 13 452 187 377 269 114 
399 9 292 175 217 215 298 39 191 326 218 
400 9 196 320 186 420 28 99 234 192 3 
401 9 460 19 251 228 263 411 306 97 171 
402 9 291 136 267 430 59 173 435 212 105 
403 9 119 398 93 13 187 201 452 424 349 
404 9 163 14 363 97 73 225 306 218 346 
405 9 293 23 5 227 271 242 361 199 150 
406 9 295 174 328 330 103 102 467 40 3 
407 9 176 333 368 139 260 347 68 343 341 
408 9 6 104 112 287 458 444 123 417 359 
409 9 73 14 303 188 163 404 218 307 217 
410 8 348 428 203 472 244 16 25 431 
411 9 154 251 460 53 84 228 379 459 72 
412 9 332 389 240 79 140 357 193 224 75 
413 9 120 395 256 429 351 2 277 344 145 
414 9 470 130 81 369 296 266 452 377 279 
415 9 374 441 89 207 76 190 210 21 338 
416 9 282 64 418 352 214 239 300 127 43 
417 9 359 456 56 287 112 408 123 6 459 
418 9 64 300 239 437 416 264 43 149 127 
419 9 261 79 140 184 193 357 332 412 235 
420 9 28 400 186 192 196 3 99 234 320 
421 9 96 362 440 458 104 125 6 308 146 
422 9 126 372 280 360 31 436 156 48 91 
423 9 274 117 87 61 12 168 461 385 457 
424 9 349 93 134 201 119 398 403 13 452 
425 9 52 20 285 198 450 121 181 226 394 
426 9 241 180 214 37 352 254 127 223 397 
427 9 225 145 344 346 120 218 70 256 171 
428 9 348 410 16 244 25 82 472 152 432 
429 9 351 2 395 202 138 413 435 256 168 
430 9 59 212 291 435 402 267 474 237 122 
431 8 203 209 410 348 428 162 472 244 
432 9 152 82 164 16 194 25 26 451 7 
433 9 22 146 78 76 125 308 44 440 338 
434 9 391 443 304 305 30 220 455 182 60 
435 9 59 212 237 2 430 474 122 471 429 
436 9 48 65 90 372 476 156 248 126 280 
437 9 300 239 356 149 264 27 418 232 147 
438 9 94 445 4 381 155 388 222 281 473 
439 9 371 137 32 185 334 38 58 335 166 
440 9 308 125 146 458 88 96 421 172 337 
441 9 47 415 305 374 329 177 89 207 21 
442 9 243 226 394 286 234 252 99 198 285 
443 9 434 305 391 220 453 49 167 441 30 
444 9 123 112 461 378 6 104 408 457 310 
445 9 438 94 4 222 381 155 388 383 473 
446 9 465 294 29 66 247 216 63 80 200 
447 9 106 133 17 318 158 231 390 188 224 
448 9 132 34 24 366 310 378 454 253 101 
449 9 9 380 475 345 170 187 297 341 13 
450 9 20 52 425 327 285 111 394 226 198 
451 9 26 249 164 354 25 7 135 82 152 
452 9 377 269 398 161 279 323 114 375 403 
453 9 49 167 21 11 190 374 338 89 44 
454 9 74 24 477 122 448 471 474 71 132 
455 9 60 373 312 182 361 304 257 204 466 
456 9 56 287 417 359 337 88 172 408 458 
457 9 61 461 378 71 117 274 423 123 444 
458 9 88 6 104 287 408 172 337 440 96 
459 9 350 53 72 69 84 379 154 359 92 
460 9 251 411 401 228 154 19 53 84 263 
461 9 123 457 274 117 423 61 444 87 112 
462 9 62 321 275 110 392 141 301 229 183 
463 9 313 288 118 47 250 142 200 90 464 
464 9 100 200 142 273 118 55 85 107 151 
465 9 294 446 66 29 200 100 464 273 63 
466 9 46 262 312 361 160 342 23 150 373 
467 9 330 103 211 3 192 102 183 295 406 
468 9 335 113 270 439 309 185 334 166 314 
469 9 253 101 58 362 34 334 310 166 132 
470 9 130 414 296 369 452 81 377 279 424 
471 9 122 474 67 237 71 212 12 61 74 
472 9 244 364 25 348 428 26 16 410 82 
473 9 222 383 31 281 370 155 284 4 438 
474 9 122 471 212 237 74 67 435 59 71 
475 9 380 9 449 345 386 341 343 331 131 
476 9 156 48 436 342 169 159 160 65 372 
477 9 454 74 33 24 366 314 115 448 34 
478 9 252 319 174 102 295 328 406 234 153 
479 9 98 157 184 276 261 419 268 79 140 
DEPOT_SECTION
   1
   -1
EOF
