NAME :  X-n411-kX-w41-c7.cctp
COMMENT : 	Adapted by Maziero, Usberti and Cavellucci from the Uchoa, Pecin, Pessoa, Poggi, Subramanian, and Vidal (2013)
TYPE :  CCTP
DIMENSION :    244
EDGE_WEIGHT_TYPE : 	EUC_2D	
CAPACITY : 	216
VERTICES_WITHIN_COVERAGE :  7
VERTICES_WITH_DEMAND : 	41
NODE_COORD_SECTION
1 175 821
2 62 495
3 662 959
4 109 216
5 156 748
6 178 957
7 120 571
8 75 480
9 44 98
10 386 1000
11 96 465
12 98 796
13 213 642
14 642 977
15 629 893
16 36 124
17 155 172
18 6 367
19 39 198
20 40 311
21 649 801
22 208 367
23 237 944
24 282 313
25 114 684
26 69 168
27 23 553
28 137 467
29 244 971
30 86 456
31 125 681
32 77 398
33 128 820
34 166 804
35 657 959
36 160 172
37 674 882
38 255 944
39 709 691
40 167 720
41 187 995
42 246 707
43 95 518
44 262 940
45 210 586
46 240 994
47 108 491
48 715 874
49 518 749
50 90 209
51 118 92
52 157 787
53 626 857
54 169 712
55 105 710
56 105 233
57 65 322
58 685 804
59 215 664
60 211 996
61 728 533
62 649 836
63 47 136
64 198 125
65 55 388
66 128 221
67 108 777
68 98 842
69 132 465
70 132 478
71 144 476
72 163 937
73 663 942
74 138 464
75 27 134
76 213 819
77 150 746
78 184 760
79 122 579
80 180 670
81 166 955
82 162 968
83 73 394
84 620 899
85 110 440
86 232 648
87 52 512
88 191 999
89 247 686
90 68 464
91 5 393
92 642 902
93 132 600
94 115 788
95 126 801
96 58 479
97 147 765
98 58 195
99 236 969
100 616 999
101 0 48
102 138 215
103 661 893
104 631 978
105 64 297
106 257 671
107 158 185
108 190 183
109 127 166
110 75 564
111 26 818
112 97 174
113 53 210
114 93 135
115 303 976
116 139 824
117 144 824
118 166 971
119 195 983
120 73 379
121 182 177
122 118 595
123 192 702
124 355 701
125 63 190
126 164 489
127 228 918
128 190 958
129 162 797
130 113 97
131 82 200
132 93 167
133 679 707
134 164 569
135 22 100
136 143 744
137 55 196
138 584 877
139 139 121
140 179 742
141 70 115
142 309 976
143 78 497
144 11 624
145 642 915
146 71 75
147 271 936
148 662 981
149 677 991
150 8 272
151 49 230
152 109 241
153 178 969
154 309 966
155 100 444
156 255 943
157 88 408
158 648 973
159 662 952
160 150 753
161 70 339
162 135 814
163 34 399
164 88 671
165 23 336
166 46 502
167 653 958
168 158 769
169 211 709
170 190 120
171 228 938
172 152 397
173 163 188
174 455 984
175 223 717
176 693 899
177 118 725
178 52 328
179 14 295
180 203 330
181 79 391
182 151 387
183 60 570
184 91 607
185 14 532
186 182 728
187 204 978
188 119 191
189 146 583
190 56 420
191 50 493
192 267 934
193 23 212
194 611 889
195 236 932
196 199 789
197 123 468
198 63 443
199 142 539
200 602 561
201 650 992
202 663 947
203 73 790
204 196 361
205 240 972
206 42 552
207 69 193
208 140 486
209 173 996
210 10 520
211 104 549
212 290 691
213 233 702
214 59 163
215 48 503
216 170 717
217 668 911
218 236 621
219 152 714
220 182 640
221 219 944
222 98 706
223 138 183
224 20 596
225 178 189
226 144 219
227 643 943
228 158 198
229 215 625
230 110 461
231 101 592
232 96 684
233 579 816
234 645 947
235 118 790
236 157 944
237 233 962
238 127 185
239 234 634
240 664 948
241 29 604
242 278 697
243 686 985
244 151 795
DEMAND_SECTION
2 95
3 58
4 80
5 97
6 100
7 64
8 63
9 86
10 61
11 62
12 56
13 74
14 78
15 78
16 91
17 85
18 69
19 89
20 83
21 60
22 51
23 55
24 57
25 83
26 67
27 89
28 6
29 1
30 1
31 7
32 2
33 1
34 4
35 6
36 3
37 10
38 5
39 10
40 1
41 7
42 10
COVERAGE_SECTION
2 7 191 96 143 215 166 8 87 
3 7 35 159 167 240 202 73 158 
4 7 56 50 66 152 188 102 131 
5 6 77 160 136 97 168 140 
6 7 81 128 153 118 82 72 236 
7 7 79 122 211 231 189 93 199 
8 7 90 96 143 2 11 30 191 
9 7 135 16 141 146 63 75 114 
10 4 174 142 154 115 
11 7 30 230 155 8 197 90 47 
12 5 94 67 235 203 95 
13 7 229 86 59 239 218 220 80 
14 7 158 104 201 148 167 35 3 
15 5 84 92 194 145 103 
16 7 75 63 9 135 141 214 26 
17 7 36 107 173 223 228 121 109 
18 5 91 165 163 65 178 
19 7 137 113 98 193 125 207 151 
20 6 178 57 105 165 179 161 
21 6 62 58 53 233 37 103 
22 4 204 180 182 172 
23 7 171 195 38 156 221 237 44 
24 3 180 22 204 
25 7 31 232 222 55 164 177 219 
26 7 214 125 132 207 98 112 137 
27 5 206 185 210 183 224 
28 7 74 69 71 70 197 208 230 
29 7 205 99 237 46 23 38 156 
30 7 11 155 90 230 8 198 85 
31 7 25 232 55 222 164 219 177 
32 7 83 181 157 120 65 190 163 
33 5 162 116 117 95 235 
34 5 129 244 52 117 162 
35 7 167 3 159 202 240 158 234 
36 7 17 107 173 121 223 225 228 
37 6 103 176 217 92 48 15 
38 7 156 44 192 23 147 195 171 
39 3 133 58 21 
40 7 216 54 219 186 140 5 77 
41 7 88 119 209 60 187 153 118 
42 6 213 89 175 242 169 106 
43 7 143 47 211 2 8 87 215 
44 7 38 156 192 147 23 195 171 
45 5 229 218 134 239 13 
46 7 205 29 99 60 237 187 119 
47 7 70 197 11 43 230 143 208 
48 3 176 37 103 
49 4 233 21 138 53 
50 7 131 4 207 56 125 188 98 
51 6 130 139 114 146 141 9 
52 4 244 129 168 34 
53 7 62 194 15 84 138 92 103 
54 6 216 40 219 186 123 140 
55 6 222 177 25 232 31 164 
56 6 152 4 66 50 102 131 
57 4 178 161 105 20 
58 4 21 62 48 37 
59 7 13 86 80 239 89 229 220 
60 7 187 88 119 41 46 99 205 
61 3 200 39 133 
62 7 53 21 58 37 103 15 194 
63 7 16 75 214 141 9 26 135 
64 7 170 121 108 139 36 17 225 
65 7 83 120 32 163 181 190 157 
66 6 102 226 4 56 152 188 
67 3 94 235 12 
68 6 33 116 12 162 117 95 
69 7 28 74 197 70 71 208 230 
70 7 208 28 71 69 197 74 47 
71 7 28 208 70 74 69 197 126 
72 3 236 81 6 
73 7 202 240 159 3 35 167 234 
74 7 28 69 71 70 197 208 230 
75 7 16 63 135 9 214 141 26 
76 2 196 34 
77 5 5 136 160 97 168 
78 6 140 168 5 186 196 160 
79 7 7 122 93 189 231 211 184 
80 6 220 123 59 13 54 216 
81 6 6 82 236 118 72 153 
82 5 118 81 153 6 236 
83 7 32 181 120 65 157 190 163 
84 4 15 194 92 145 
85 6 155 230 11 30 197 69 
86 6 239 13 59 218 229 106 
87 4 215 166 191 2 
88 7 41 119 209 60 187 153 118 
89 7 106 42 213 242 59 175 86 
90 7 8 96 30 198 11 2 143 
91 5 18 163 65 190 165 
92 4 145 15 103 84 
93 7 122 189 79 7 231 184 134 
94 4 235 67 95 12 
95 4 235 162 94 33 
96 7 2 191 8 90 166 215 143 
97 5 160 168 5 77 136 
98 7 137 125 207 113 19 131 26 
99 7 205 29 237 23 46 221 38 
100 4 104 14 201 158 
101 7 135 9 146 16 75 141 63 
102 6 226 66 228 4 188 223 
103 5 37 217 92 145 15 
104 5 14 158 201 100 167 
105 3 57 20 178 
106 6 89 242 86 42 212 213 
107 7 173 17 36 228 223 225 121 
108 7 121 225 173 36 107 228 17 
109 6 238 223 188 17 112 36 
110 6 183 211 206 231 7 184 
111 3 203 12 68 
112 7 132 188 26 131 109 238 207 
113 7 137 98 19 151 125 207 193 
114 6 141 132 112 26 130 214 
115 7 142 154 147 44 192 38 156 
116 6 117 162 33 95 244 34 
117 6 116 162 33 95 34 244 
118 6 82 153 81 6 209 128 
119 7 187 41 88 60 153 128 209 
120 6 181 83 32 65 157 161 
121 7 108 225 173 36 107 17 228 
122 6 93 79 231 7 184 189 
123 6 169 54 216 186 40 80 
124 5 212 242 106 42 89 
125 7 98 207 137 131 113 26 19 
126 6 71 208 70 28 74 69 
127 3 195 171 23 
128 5 6 153 81 187 119 
129 4 34 52 244 168 
130 6 51 139 114 141 146 9 
131 7 50 207 125 98 137 112 4 
132 7 112 26 114 109 214 131 188 
133 4 39 58 21 62 
134 5 189 199 79 7 93 
135 7 9 16 75 63 141 146 101 
136 4 77 160 5 97 
137 7 98 125 113 207 19 131 26 
138 4 194 84 53 15 
139 6 130 51 109 114 170 17 
140 6 186 78 5 40 216 77 
141 7 114 9 63 16 146 75 130 
142 7 115 154 147 44 192 38 156 
143 7 2 8 43 96 191 87 47 
144 5 241 224 27 183 206 
145 4 92 15 217 84 
146 7 9 141 130 51 135 16 114 
147 7 192 44 156 38 23 195 171 
148 7 158 201 149 14 3 35 243 
149 5 243 148 201 158 3 
150 4 179 20 151 105 
151 4 113 193 19 137 
152 5 56 4 66 50 102 
153 7 6 118 82 128 81 119 209 
154 7 142 115 147 192 44 38 156 
155 6 85 30 230 11 197 198 
156 7 38 44 192 147 23 195 171 
157 7 32 181 83 120 190 155 65 
158 7 14 148 167 35 104 201 3 
159 7 240 202 3 35 73 167 234 
160 5 77 5 136 97 168 
161 4 57 178 120 20 
162 5 33 116 117 95 244 
163 5 65 91 190 83 18 
164 5 232 25 222 31 55 
165 7 20 178 18 179 57 161 105 
166 4 215 191 87 2 
167 7 35 3 159 234 202 240 158 
168 5 97 52 160 5 77 
169 5 175 123 213 42 186 
170 6 64 139 121 36 17 108 
171 5 195 23 221 127 237 
172 4 182 204 85 22 
173 7 107 228 225 36 17 121 223 
174 1 10 
175 5 169 213 42 123 89 
176 4 37 217 48 103 
177 6 55 222 136 219 77 25 
178 5 57 20 161 165 105 
179 5 150 20 165 105 178 
180 3 204 22 182 
181 6 32 83 120 157 65 190 
182 4 172 204 22 157 
183 5 110 206 27 241 231 
184 6 231 122 79 93 7 110 
185 3 210 27 206 
186 5 140 216 40 54 123 
187 7 119 60 41 128 88 153 6 
188 7 238 223 109 4 112 66 102 
189 7 93 134 79 7 122 199 231 
190 7 198 32 163 83 65 157 181 
191 5 166 215 2 96 87 
192 7 147 44 156 38 195 23 171 
193 6 19 113 151 137 98 125 
194 6 84 15 138 92 53 145 
195 6 171 23 127 221 38 156 
196 5 76 78 34 129 52 
197 7 69 70 28 230 74 71 208 
198 7 90 190 30 96 155 8 11 
199 6 134 7 211 189 79 43 
200 6 61 133 39 49 21 233 
201 7 148 14 158 104 149 35 167 
202 7 240 73 159 3 35 167 234 
203 4 12 67 94 235 
204 4 22 180 182 172 
205 7 29 99 237 46 23 38 156 
206 5 27 183 185 110 87 
207 7 125 98 137 131 113 26 50 
208 7 70 71 28 69 74 126 197 
209 7 41 88 118 119 153 82 187 
210 2 185 27 
211 7 7 43 110 79 199 231 122 
212 5 242 106 89 42 213 
213 6 42 175 89 169 106 123 
214 7 26 125 63 98 207 137 132 
215 4 166 87 191 2 
216 7 40 54 186 219 123 140 5 
217 5 103 145 92 176 37 
218 6 239 229 86 13 45 59 
219 7 40 54 216 136 77 186 5 
220 7 80 13 229 59 86 239 218 
221 4 171 23 195 237 
222 6 55 232 25 177 164 31 
223 7 238 17 107 109 188 36 173 
224 6 241 144 27 183 206 110 
225 7 108 121 173 107 228 36 17 
226 6 102 66 228 4 173 223 
227 5 234 167 73 202 35 
228 7 173 107 225 223 226 17 36 
229 7 13 218 239 86 220 45 59 
230 7 11 197 155 85 69 30 28 
231 6 122 184 79 7 93 110 
232 6 164 25 222 55 31 177 
233 5 138 53 21 62 194 
234 7 227 167 35 159 202 73 240 
235 4 94 95 67 12 
236 3 72 81 6 
237 7 99 205 29 23 221 171 38 
238 7 188 223 109 17 107 102 112 
239 6 218 86 229 13 59 106 
240 7 202 159 73 3 35 167 234 
241 5 224 144 183 27 206 
242 5 212 89 106 42 213 
243 4 149 148 3 201 
244 3 52 129 34 
DEPOT_SECTION
   1
   -1
EOF
