NAME :  X-n439-kX-w175-c11.cctp
COMMENT : 	Adapted by Maziero, Usberti and Cavellucci from the Uchoa, Pecin, Pessoa, Poggi, Subramanian, and Vidal (2013)
TYPE :  CCTP
DIMENSION :    417
EDGE_WEIGHT_TYPE : 	EUC_2D	
CAPACITY : 	12
VERTICES_WITHIN_COVERAGE :  11
VERTICES_WITH_DEMAND : 	175
NODE_COORD_SECTION
1 500 500
2 769 259
3 91 377
4 108 338
5 816 567
6 698 341
7 741 237
8 601 140
9 63 359
10 215 608
11 979 914
12 911 697
13 440 593
14 922 765
15 185 756
16 486 158
17 993 628
18 241 33
19 200 756
20 856 440
21 471 712
22 929 649
23 811 44
24 125 727
25 830 484
26 568 366
27 261 394
28 478 965
29 726 474
30 68 952
31 747 716
32 678 366
33 17 603
34 169 689
35 916 565
36 564 913
37 268 681
38 937 878
39 370 634
40 555 847
41 246 911
42 267 333
43 166 257
44 147 179
45 418 383
46 382 886
47 312 911
48 416 186
49 457 582
50 334 882
51 269 710
52 513 910
53 739 882
54 503 682
55 451 911
56 171 656
57 843 44
58 94 165
59 726 411
60 197 498
61 49 726
62 645 224
63 915 247
64 981 775
65 844 973
66 519 268
67 291 97
68 986 589
69 414 719
70 407 720
71 82 782
72 255 312
73 151 291
74 831 520
75 970 760
76 912 77
77 150 909
78 638 624
79 585 630
80 655 287
81 708 178
82 503 504
83 14 634
84 261 106
85 825 599
86 433 646
87 298 153
88 88 970
89 704 58
90 258 52
91 930 209
92 570 72
93 252 338
94 141 741
95 353 966
96 718 880
97 581 608
98 69 246
99 469 225
100 623 619
101 501 929
102 359 117
103 128 931
104 953 786
105 30 752
106 157 419
107 637 668
108 454 640
109 888 420
110 937 231
111 252 161
112 453 708
113 995 666
114 998 151
115 687 778
116 350 281
117 977 113
118 970 790
119 604 21
120 128 917
121 664 777
122 310 275
123 122 40
124 846 937
125 586 561
126 806 751
127 312 123
128 139 930
129 479 760
130 69 875
131 698 197
132 726 250
133 782 561
134 43 320
135 757 331
136 898 518
137 133 541
138 497 279
139 418 234
140 25 118
141 880 166
142 529 957
143 565 758
144 60 701
145 567 295
146 66 72
147 535 391
148 30 683
149 447 677
150 362 365
151 618 766
152 540 747
153 972 449
154 500 86
155 555 154
156 275 341
157 299 644
158 890 504
159 42 970
160 496 177
161 789 679
162 770 402
163 229 264
164 545 735
165 504 867
166 708 580
167 218 232
168 339 760
169 710 910
170 99 352
171 564 708
172 875 761
173 376 398
174 667 49
175 774 666
176 728 515
177 676 316
178 961 518
179 811 724
180 551 563
181 484 538
182 862 621
183 589 636
184 574 712
185 879 326
186 77 733
187 476 800
188 107 535
189 643 837
190 642 249
191 793 754
192 37 871
193 760 614
194 420 78
195 312 676
196 329 322
197 919 95
198 605 144
199 763 884
200 528 760
201 9 106
202 214 887
203 323 338
204 253 819
205 628 365
206 597 761
207 128 138
208 705 400
209 571 979
210 931 739
211 764 26
212 162 169
213 338 947
214 718 807
215 769 882
216 480 60
217 635 657
218 292 467
219 136 228
220 593 769
221 866 390
222 813 727
223 12 260
224 642 817
225 271 154
226 196 682
227 330 261
228 250 283
229 358 273
230 950 598
231 244 524
232 583 858
233 388 295
234 677 853
235 748 608
236 254 471
237 301 270
238 115 623
239 159 246
240 900 400
241 393 252
242 847 676
243 271 197
244 429 275
245 281 865
246 842 436
247 320 268
248 232 202
249 503 302
250 362 128
251 385 201
252 222 615
253 952 426
254 589 627
255 400 209
256 141 757
257 730 710
258 242 378
259 175 791
260 194 777
261 190 651
262 312 187
263 730 646
264 50 248
265 353 270
266 652 784
267 306 316
268 390 185
269 767 916
270 648 820
271 950 134
272 259 336
273 218 666
274 405 778
275 176 687
276 687 796
277 164 230
278 631 800
279 475 364
280 644 787
281 387 115
282 430 195
283 844 347
284 159 665
285 385 195
286 777 779
287 784 688
288 802 671
289 273 68
290 115 719
291 201 591
292 126 178
293 328 138
294 170 673
295 43 227
296 964 859
297 949 412
298 282 187
299 645 937
300 88 608
301 469 662
302 194 760
303 307 322
304 814 726
305 44 357
306 249 222
307 754 663
308 457 666
309 302 159
310 685 772
311 224 678
312 119 717
313 660 817
314 392 252
315 611 940
316 421 282
317 360 280
318 312 272
319 359 422
320 930 449
321 727 839
322 865 435
323 865 403
324 652 771
325 640 408
326 574 311
327 205 298
328 634 902
329 378 170
330 290 86
331 904 421
332 439 192
333 899 450
334 623 138
335 230 220
336 246 268
337 155 167
338 164 337
339 23 271
340 432 202
341 296 166
342 347 322
343 943 753
344 206 641
345 795 780
346 796 849
347 196 585
348 189 611
349 818 409
350 95 550
351 792 819
352 727 707
353 190 624
354 161 32
355 739 302
356 769 778
357 68 320
358 952 269
359 193 734
360 605 969
361 130 185
362 418 214
363 978 671
364 952 836
365 344 269
366 270 271
367 771 647
368 397 238
369 196 8
370 238 225
371 49 245
372 826 339
373 266 151
374 914 448
375 878 317
376 68 190
377 298 259
378 883 786
379 865 354
380 839 318
381 243 672
382 652 671
383 66 242
384 668 495
385 343 94
386 215 0
387 269 280
388 676 898
389 282 320
390 185 62
391 994 368
392 251 159
393 56 273
394 133 311
395 239 64
396 376 228
397 378 491
398 252 657
399 182 66
400 748 760
401 154 103
402 656 923
403 230 160
404 363 344
405 749 800
406 1 293
407 729 319
408 285 650
409 331 10
410 199 630
411 781 445
412 590 258
413 56 412
414 208 238
415 197 739
416 455 395
417 242 222
DEMAND_SECTION
2 1
3 1
4 1
5 1
6 1
7 1
8 1
9 1
10 1
11 1
12 1
13 1
14 1
15 1
16 1
17 1
18 1
19 1
20 1
21 1
22 1
23 1
24 1
25 1
26 1
27 1
28 1
29 1
30 1
31 1
32 1
33 1
34 1
35 1
36 1
37 1
38 1
39 1
40 1
41 1
42 1
43 1
44 1
45 1
46 1
47 1
48 1
49 1
50 1
51 1
52 1
53 1
54 1
55 1
56 1
57 1
58 1
59 1
60 1
61 1
62 1
63 1
64 1
65 1
66 1
67 1
68 1
69 1
70 1
71 1
72 1
73 1
74 1
75 1
76 1
77 1
78 1
79 1
80 1
81 1
82 1
83 1
84 1
85 1
86 1
87 1
88 1
89 1
90 1
91 1
92 1
93 1
94 1
95 1
96 1
97 1
98 1
99 1
100 1
101 1
102 1
103 1
104 1
105 1
106 1
107 1
108 1
109 1
110 1
111 1
112 1
113 1
114 1
115 1
116 1
117 1
118 1
119 1
120 1
121 1
122 1
123 1
124 1
125 1
126 1
127 1
128 1
129 1
130 1
131 1
132 1
133 1
134 1
135 1
136 1
137 1
138 1
139 1
140 1
141 1
142 1
143 1
144 1
145 1
146 1
147 1
148 1
149 1
150 1
151 1
152 1
153 1
154 1
155 1
156 1
157 1
158 1
159 1
160 1
161 1
162 1
163 1
164 1
165 1
166 1
167 1
168 1
169 1
170 1
171 1
172 1
173 1
174 1
175 1
176 1
COVERAGE_SECTION
2 11 7 132 355 407 135 380 131 372 81 6 177 
3 11 170 9 4 413 305 357 134 106 394 338 73 
4 11 170 394 3 357 9 338 73 134 305 393 413 
5 11 85 133 74 182 193 235 25 367 136 158 35 
6 11 32 177 407 355 208 135 80 205 59 325 162 
7 11 132 2 131 355 81 407 135 62 80 190 177 
8 11 198 334 155 92 62 160 174 131 81 154 16 
9 11 305 3 170 357 134 4 413 394 393 406 339 
10 11 252 291 348 410 347 353 344 261 273 398 56 
11 11 38 296 364 118 104 124 64 65 75 14 378 
12 11 210 22 343 242 14 363 172 75 113 182 378 
13 11 49 108 86 181 301 308 39 149 54 82 180 
14 11 343 210 104 378 172 75 118 64 12 364 296 
15 11 302 19 415 260 359 259 256 94 24 34 275 
16 11 160 332 282 99 155 340 154 48 362 216 255 
17 11 113 68 363 230 22 35 12 178 210 182 75 
18 11 90 395 386 289 369 390 399 330 84 354 67 
19 11 302 15 415 260 359 259 256 94 275 34 226 
20 11 322 246 109 323 333 349 25 221 331 240 374 
21 11 112 149 54 308 129 301 69 70 108 200 86 
22 11 12 363 230 17 113 182 68 35 242 210 343 
23 11 57 211 76 89 197 141 174 271 81 117 131 
24 11 312 290 94 256 186 34 275 15 359 71 144 
25 11 74 246 20 322 158 411 136 349 333 5 109 
26 11 147 326 205 145 325 249 279 32 66 412 138 
27 11 258 156 93 272 42 236 389 218 72 203 303 
28 11 101 142 55 52 209 36 165 46 95 360 315 
29 11 176 384 411 59 208 162 133 25 166 325 349 
30 11 88 159 103 120 128 130 192 77 202 71 41 
31 11 257 352 400 287 307 161 175 191 179 356 222 
32 11 6 208 177 205 325 59 407 80 135 355 162 
33 11 83 300 148 350 238 144 188 61 137 186 105 
34 11 275 294 284 226 56 261 359 273 311 312 415 
35 11 230 136 178 158 68 182 22 74 85 17 5 
36 11 52 315 142 232 101 209 40 360 328 165 299 
37 11 381 51 398 408 195 311 157 273 226 344 252 
38 11 296 364 11 104 118 378 124 64 14 75 343 
39 11 86 157 195 13 108 408 149 308 70 69 49 
40 10 232 165 36 52 220 189 278 143 200 187 
41 11 202 245 47 204 50 77 213 128 120 95 103 
42 11 272 156 93 389 72 303 267 258 228 387 203 
43 11 239 277 73 219 414 327 167 163 394 335 370 
44 11 337 212 361 292 207 219 277 58 239 401 43 
45 11 416 173 150 279 404 319 233 342 316 203 196 
46 11 50 55 47 213 95 245 274 165 28 101 187 
47 11 50 213 245 41 95 46 202 204 55 168 77 
48 10 282 340 332 268 255 362 285 251 329 139 
49 11 13 181 108 86 301 308 82 149 180 39 54 
50 11 47 46 245 213 95 41 204 202 55 168 274 
51 11 37 381 195 311 398 408 273 157 226 415 359 
52 11 101 165 142 36 55 28 40 232 209 315 360 
53 10 96 199 215 169 269 321 388 346 234 214 
54 11 301 21 308 112 149 108 171 164 152 184 86 
55 11 101 28 52 165 46 142 95 36 187 213 50 
56 11 284 294 261 275 34 226 353 344 410 273 348 
57 11 23 76 211 197 141 89 271 117 174 91 114 
58 11 292 376 361 207 44 337 212 219 295 383 140 
59 11 208 162 29 411 32 6 135 325 349 407 384 
60 11 231 236 137 347 106 291 188 218 10 348 350 
61 11 144 186 105 148 71 290 312 24 94 256 83 
62 11 190 131 80 412 81 132 198 334 8 7 177 
63 11 110 91 358 375 185 141 380 271 379 283 114 
64 11 75 118 104 343 14 210 364 296 378 363 12 
65 11 124 269 215 199 38 346 53 11 169 96 351 
66 11 138 249 145 99 326 412 244 160 316 279 139 
67 11 330 84 127 289 385 293 87 90 225 373 395 
68 11 230 17 35 178 113 363 22 136 158 182 12 
69 11 70 112 149 21 274 308 86 129 301 168 108 
70 11 69 112 274 149 21 308 86 168 129 301 108 
71 11 186 105 256 61 24 290 94 312 144 259 130 
72 11 42 272 93 389 228 156 387 366 336 267 327 
73 11 394 43 239 338 327 277 4 219 414 170 163 
74 11 25 5 158 133 136 85 20 246 411 322 35 
75 11 64 343 118 104 210 14 364 12 363 378 172 
76 11 197 271 117 57 141 23 114 91 110 211 63 
77 11 120 128 103 202 88 130 30 41 192 259 159 
78 11 100 217 107 254 382 183 79 97 125 166 263 
79 11 254 183 97 100 78 217 107 125 180 382 171 
80 11 177 190 62 6 412 132 407 32 205 326 355 
81 11 131 7 132 62 334 190 2 198 8 89 80 
82 11 181 180 49 125 13 147 416 397 97 279 108 
83 11 33 148 300 144 61 238 186 350 105 290 312 
84 11 67 330 289 373 395 225 90 127 392 111 87 
85 11 5 182 133 193 367 288 235 74 242 175 161 
86 11 108 308 149 301 13 39 112 49 69 21 70 
87 10 309 341 225 373 127 293 262 298 111 392 
88 11 30 159 103 128 120 77 130 192 202 41 71 
89 11 174 211 119 23 334 81 198 8 92 131 57 
90 11 289 395 18 330 84 67 386 390 369 399 409 
91 11 110 63 358 141 271 114 117 197 375 185 76 
92 11 119 154 8 198 155 334 216 174 16 160 89 
93 11 272 42 156 72 389 258 228 27 303 267 387 
94 11 256 24 312 290 15 359 302 415 34 259 19 
95 11 213 47 46 50 55 41 245 28 101 202 52 
96 10 53 169 321 199 388 234 215 269 214 402 
97 11 254 79 183 100 125 180 78 217 107 382 171 
98 11 383 264 371 393 295 339 376 223 219 357 134 
99 11 340 332 282 139 362 160 138 244 48 66 16 
100 11 78 254 183 79 217 97 107 382 125 180 166 
101 11 52 142 28 55 165 36 209 40 232 315 360 
102 7 250 281 385 293 127 329 67 
103 11 128 120 77 88 30 130 159 202 192 41 259 
104 11 118 64 75 343 14 364 210 378 296 172 38 
105 11 61 186 144 71 148 290 312 24 256 94 83 
106 11 3 338 60 170 258 4 413 27 236 394 9 
107 11 217 382 78 100 183 254 79 184 97 171 263 
108 11 86 308 301 149 13 49 54 112 21 39 69 
109 11 331 240 322 323 333 221 20 374 246 320 297 
110 11 91 63 358 141 271 114 375 185 117 380 197 
111 11 392 373 225 403 298 243 341 248 87 309 84 
112 11 21 149 69 308 70 301 54 129 86 108 274 
113 11 363 17 22 68 230 12 75 210 343 64 14 
114 11 117 271 91 197 110 76 141 63 358 57 375 
115 11 310 276 121 266 324 214 280 313 270 224 278 
116 11 317 229 265 365 227 247 318 122 233 342 196 
117 11 271 114 197 76 91 141 110 63 57 358 23 
118 11 104 64 75 343 364 14 210 296 378 38 172 
119 11 92 174 89 8 334 154 198 216 155 211 16 
120 11 103 128 77 88 30 130 202 159 192 41 259 
121 11 324 266 280 310 115 276 278 313 224 270 151 
122 10 318 237 247 377 227 365 116 366 267 387 
123 11 354 146 399 390 401 369 207 386 18 395 140 
124 11 65 269 215 199 346 38 53 351 11 169 96 
125 11 180 97 254 79 100 183 78 82 181 384 217 
126 11 191 222 304 179 345 286 356 400 287 31 351 
127 11 293 67 87 309 385 330 341 102 250 225 84 
128 11 103 120 77 88 30 202 130 159 41 192 259 
129 11 187 21 200 112 152 164 274 69 54 70 143 
130 11 192 120 30 103 77 128 71 88 159 105 259 
131 11 81 7 62 132 190 2 334 80 198 8 355 
132 11 7 2 355 131 407 81 80 177 190 62 135 
133 11 5 85 193 235 74 176 166 367 25 182 263 
134 11 357 305 9 393 406 339 170 4 223 264 3 
135 11 407 355 6 372 162 2 177 380 32 59 208 
136 11 158 35 178 74 333 374 25 320 20 322 230 
137 11 188 350 60 347 300 238 291 348 353 10 410 
138 11 249 66 99 244 145 316 326 279 139 412 340 
139 11 362 368 241 255 314 340 282 244 396 251 332 
140 11 201 146 58 376 207 295 292 123 361 371 401 
141 11 91 271 197 110 63 76 117 114 358 57 23 
142 11 101 209 52 28 36 360 315 55 165 40 232 
143 11 152 164 220 206 200 184 171 151 278 280 129 
144 11 61 148 186 290 105 312 24 83 71 94 238 
145 11 326 412 66 249 26 138 80 190 205 147 62 
146 11 140 123 201 207 401 58 354 399 376 390 292 
147 11 26 279 416 326 249 205 145 325 45 82 138 
148 11 144 61 83 105 186 33 290 300 312 238 24 
149 11 308 301 112 86 108 21 69 54 70 13 39 
150 11 404 173 342 203 196 319 45 303 267 233 116 
151 11 206 220 280 324 278 266 121 143 224 270 313 
152 11 164 200 143 171 184 220 206 129 54 21 151 
153 11 253 320 297 374 178 333 331 391 240 109 158 
154 11 216 92 16 194 155 160 8 281 198 332 119 
155 11 8 198 160 16 334 92 154 412 99 62 66 
156 11 42 272 389 93 72 303 267 203 258 27 196 
157 11 408 195 37 398 381 39 51 252 311 273 10 
158 11 136 333 74 374 25 35 320 20 178 322 246 
159 11 30 88 103 130 192 120 128 77 202 71 41 
160 11 16 99 332 155 282 340 48 362 154 66 139 
161 11 287 288 175 367 307 179 304 222 31 242 257 
162 11 411 59 349 208 135 246 29 372 283 407 6 
163 11 336 228 414 167 370 327 366 387 335 417 306 
164 11 152 143 200 171 184 206 220 54 129 21 151 
165 11 52 40 101 55 187 36 232 142 28 129 200 
166 11 235 193 176 263 133 78 367 100 384 307 217 
167 11 414 335 370 417 248 306 163 336 277 43 228 
168 11 274 70 69 51 195 204 37 245 50 157 408 
169 11 96 388 53 402 269 199 215 234 299 321 328 
170 11 4 3 9 357 394 305 134 338 413 73 106 
171 11 184 164 152 143 206 200 54 220 183 151 79 
172 11 378 14 210 343 126 304 222 12 179 104 191 
173 11 319 150 45 404 416 203 342 196 397 303 233 
174 11 89 119 334 92 211 8 198 81 23 131 155 
175 11 367 161 307 287 288 263 193 31 257 352 235 
176 11 29 384 166 133 411 235 5 74 59 193 25 
177 11 6 80 32 407 355 205 190 135 132 208 62 
178 11 136 35 153 158 68 320 230 374 253 333 297 
179 11 222 304 126 191 287 161 288 345 242 31 286 
180 11 125 97 181 254 79 82 183 100 49 78 13 
181 11 82 49 13 180 125 108 397 86 97 301 308 
182 11 85 242 5 22 35 288 12 230 161 367 175 
183 11 79 254 97 100 78 217 107 382 125 171 184 
184 11 171 164 143 152 206 220 200 151 54 107 183 
185 11 375 379 283 380 372 221 240 323 63 358 109 
186 11 61 144 290 312 24 71 105 94 256 148 34 
187 11 129 200 165 274 152 21 40 112 164 143 69 
188 11 350 137 300 238 60 347 291 348 33 353 106 
189 10 270 224 313 234 278 280 266 276 121 232 
190 11 62 80 412 177 131 132 145 326 81 7 6 
191 10 126 345 286 222 356 179 304 400 31 405 
192 11 130 30 159 71 120 103 88 128 77 105 186 
193 11 235 367 263 307 175 133 166 85 161 288 5 
194 10 281 216 102 250 385 154 329 16 48 293 
195 11 157 408 37 51 398 381 39 168 311 273 70 
196 11 203 342 303 267 404 116 389 122 317 318 150 
197 11 76 271 117 141 57 114 91 23 110 63 211 
198 11 8 334 155 92 62 131 81 190 174 160 412 
199 10 215 53 269 96 346 321 169 351 405 388 
200 11 152 164 143 129 171 184 187 220 206 21 54 
201 11 140 146 58 376 207 295 123 292 361 371 401 
202 11 41 77 245 204 128 120 103 47 259 260 50 
203 11 196 303 267 342 404 389 150 156 42 116 122 
204 11 245 260 202 19 259 302 41 15 415 50 168 
205 11 325 32 26 177 6 326 80 208 145 147 59 
206 11 220 151 143 278 184 280 324 164 152 266 171 
207 11 292 337 58 401 44 212 361 376 219 399 146 
208 11 59 32 6 162 325 29 407 205 135 411 177 
209 11 360 142 315 36 299 101 52 28 328 402 232 
210 11 343 14 75 12 104 172 64 118 378 363 22 
211 11 23 89 57 174 76 119 81 197 334 141 131 
212 11 337 44 361 292 207 277 219 401 58 403 239 
213 11 95 47 50 46 41 245 55 202 28 204 101 
214 10 405 276 321 115 310 400 313 356 121 234 
215 10 199 53 269 346 96 321 169 351 405 214 
216 11 154 194 92 16 281 160 155 119 102 250 332 
217 11 107 382 78 100 183 254 79 97 184 171 263 
218 11 236 231 27 319 397 60 258 173 150 156 203 
219 11 277 239 43 361 44 292 212 337 73 98 383 
220 11 206 151 143 278 280 152 164 324 184 266 200 
221 11 323 240 379 109 322 283 331 20 246 349 185 
222 11 304 179 126 191 287 161 345 288 242 286 31 
223 11 339 406 264 371 295 393 383 98 134 357 376 
224 10 270 313 189 278 280 266 121 324 234 276 
225 11 373 111 392 87 341 309 298 403 243 84 127 
226 11 275 273 34 294 311 261 56 284 344 381 359 
227 9 247 365 318 122 265 116 229 237 377 
228 11 336 387 366 163 72 327 389 42 237 272 377 
229 11 265 317 116 365 227 233 247 314 241 318 122 
230 11 68 35 17 22 363 178 113 182 136 12 158 
231 11 60 236 218 347 291 10 252 348 137 353 410 
232 10 40 36 189 328 224 270 278 165 52 313 
233 11 317 316 229 116 241 265 314 244 342 365 404 
234 10 189 313 270 388 96 224 321 276 214 328 
235 11 193 263 367 166 307 133 175 85 5 161 288 
236 11 218 231 60 27 258 106 319 397 347 291 156 
237 7 122 318 377 247 227 366 387 
238 11 300 284 56 294 348 353 350 261 137 410 34 
239 11 43 277 219 73 414 167 44 361 327 394 163 
240 11 331 109 221 323 322 297 333 374 320 253 379 
241 10 314 368 396 139 229 316 233 244 317 255 
242 11 288 182 161 179 304 222 287 12 175 85 367 
243 9 298 306 417 248 341 111 262 225 370 
244 11 316 139 241 314 233 368 362 99 138 317 229 
245 11 204 47 50 41 202 213 46 168 95 260 259 
246 11 20 322 349 323 25 109 221 333 411 331 240 
247 9 318 122 227 237 365 377 116 265 229 
248 11 335 417 370 306 167 243 403 414 111 392 298 
249 11 138 66 145 279 326 244 99 316 26 147 412 
250 7 102 281 293 385 329 127 268 
251 6 285 255 268 396 329 48 
252 11 10 410 344 291 348 353 347 261 273 398 381 
253 11 297 153 320 374 331 240 333 109 391 322 323 
254 11 79 183 97 100 78 217 107 125 180 382 171 
255 10 251 362 285 268 48 368 139 396 282 340 
256 11 94 24 15 290 312 259 302 260 359 19 415 
257 11 352 31 307 400 287 175 263 161 367 191 310 
258 11 27 93 272 156 42 72 389 303 327 338 267 
259 11 260 15 302 19 256 415 94 359 24 204 71 
260 11 302 19 15 259 415 359 256 94 204 24 34 
261 11 344 56 410 353 294 226 273 284 275 348 34 
262 4 341 298 309 87 
263 11 307 367 235 193 175 352 257 161 287 166 31 
264 11 371 383 98 295 393 339 223 376 406 134 357 
265 10 229 365 116 317 227 247 318 122 233 314 
266 11 280 324 121 278 224 313 310 115 270 276 151 
267 11 303 196 389 203 156 122 342 42 318 237 247 
268 5 285 251 329 48 255 
269 11 199 215 53 169 96 346 124 321 388 65 351 
270 10 224 313 189 278 280 266 234 121 276 324 
271 11 117 197 114 76 141 91 110 63 358 57 23 
272 11 93 42 156 72 389 258 303 267 228 387 27 
273 11 311 381 226 344 261 398 410 275 56 294 353 
274 11 70 69 168 187 129 112 21 149 46 308 200 
275 11 34 294 226 284 56 261 273 311 359 344 415 
276 11 115 310 121 214 313 266 324 280 270 224 278 
277 11 239 43 219 414 44 167 361 212 73 292 337 
278 10 280 224 266 270 313 151 324 189 121 220 
279 11 416 45 147 249 138 26 316 244 173 66 233 
280 11 266 278 324 121 224 151 270 313 115 276 310 
281 7 102 250 385 194 329 293 268 
282 11 340 332 48 362 255 139 268 251 285 99 368 
283 11 372 379 380 185 375 221 323 349 240 109 135 
284 11 294 56 34 275 261 226 353 344 410 273 238 
285 6 251 268 255 329 48 396 
286 10 356 345 191 400 405 126 351 222 179 214 
287 11 161 175 288 307 367 179 31 304 222 257 352 
288 11 161 287 175 367 242 307 179 304 222 31 193 
289 11 90 330 67 395 84 18 127 385 409 373 225 
290 11 312 24 94 186 256 144 34 61 275 284 71 
291 11 347 10 348 252 353 410 344 261 56 273 231 
292 11 361 44 337 58 212 207 219 376 277 239 401 
293 8 127 309 87 250 102 341 385 262 
294 11 284 275 34 56 226 261 344 273 410 353 311 
295 11 371 264 383 98 223 376 339 393 406 58 134 
296 11 364 38 11 118 104 64 75 14 343 378 210 
297 11 253 320 153 331 240 374 109 333 391 323 221 
298 9 243 341 262 309 225 87 373 111 392 
299 10 402 315 328 388 360 169 36 209 234 96 
300 11 238 350 33 188 83 137 284 148 56 144 348 
301 11 308 108 149 54 86 112 21 13 69 49 70 
302 11 19 15 260 415 359 259 256 94 34 275 24 
303 11 267 196 203 389 156 342 42 122 272 318 237 
304 11 222 179 126 191 287 161 288 345 242 286 31 
305 11 9 134 357 3 170 413 4 406 393 339 394 
306 10 417 370 335 248 167 243 414 336 163 298 
307 11 175 367 263 161 287 193 288 352 31 257 235 
308 11 301 149 108 86 112 21 54 69 70 13 49 
309 10 87 341 262 225 293 298 127 373 243 111 
310 11 115 121 276 324 266 280 214 313 270 278 224 
311 11 273 381 226 398 344 261 37 275 294 410 51 
312 11 290 24 94 186 256 34 144 275 284 294 61 
313 10 270 224 189 266 276 278 280 121 234 115 
314 10 241 368 396 139 229 316 233 265 317 244 
315 10 360 299 328 402 36 209 388 142 232 52 
316 11 244 233 241 314 139 368 317 229 362 265 396 
317 11 229 116 265 365 233 227 247 241 314 342 318 
318 8 122 247 237 377 227 365 116 265 
319 11 173 150 45 397 404 218 203 416 342 27 196 
320 11 374 333 253 331 153 297 109 240 322 158 20 
321 10 214 96 53 405 234 199 276 215 351 346 
322 11 20 246 109 323 333 331 221 240 374 349 25 
323 11 221 109 322 240 20 246 331 349 379 333 283 
324 11 121 266 280 310 151 115 278 276 224 313 270 
325 11 205 32 208 26 59 6 384 177 147 29 326 
326 11 145 26 412 66 249 205 138 80 147 190 177 
327 11 163 228 336 72 73 43 338 414 93 272 387 
328 10 402 299 388 315 234 189 232 36 360 169 
329 5 268 285 251 48 250 
330 11 67 289 84 127 90 385 395 293 87 373 225 
331 11 109 240 333 374 320 322 323 297 253 221 20 
332 11 282 340 48 362 255 99 139 268 285 251 16 
333 11 374 331 320 109 322 20 240 158 253 323 246 
334 11 198 8 155 92 62 81 131 174 190 89 119 
335 10 370 417 167 248 306 414 163 243 336 403 
336 11 228 163 366 387 370 72 167 306 417 414 327 
337 11 212 44 292 361 207 58 219 277 401 403 239 
338 11 394 73 4 327 170 43 106 3 93 258 239 
339 11 223 406 393 264 371 295 98 383 134 357 305 
340 11 282 332 362 48 255 139 99 268 251 285 368 
341 10 309 87 298 262 225 373 243 293 111 127 
342 11 196 404 203 303 116 267 317 150 233 229 265 
343 11 210 14 75 104 64 118 12 172 378 364 363 
344 11 410 261 353 273 252 10 348 56 311 226 294 
345 10 286 191 356 126 351 405 400 222 304 179 
346 10 351 215 199 53 405 345 321 269 286 356 
347 11 291 348 10 353 252 410 344 261 56 137 231 
348 11 353 410 291 10 347 252 344 261 56 273 284 
349 11 246 323 20 162 221 411 322 283 372 109 379 
350 11 188 137 300 238 33 347 348 60 291 83 353 
351 10 346 345 286 356 405 191 215 321 126 199 
352 11 257 31 307 400 287 263 175 161 367 310 115 
353 11 410 348 344 261 10 252 291 56 347 273 284 
354 11 390 123 399 369 386 401 18 395 90 146 207 
355 11 407 135 2 132 6 7 177 80 32 372 380 
356 10 286 345 400 405 191 126 351 214 31 222 
357 11 134 9 4 305 170 393 3 394 339 406 98 
358 11 110 63 91 375 185 391 379 380 141 114 283 
359 11 415 15 19 302 260 275 34 94 226 256 259 
360 11 315 209 299 36 402 328 142 388 52 101 232 
361 11 292 44 337 212 58 219 207 277 376 239 43 
362 11 340 255 139 282 48 332 368 251 285 268 396 
363 11 113 17 22 12 230 68 210 75 343 64 14 
364 11 296 38 118 104 64 14 75 11 343 378 210 
365 9 265 116 229 227 317 247 318 122 237 
366 10 387 228 336 377 237 122 163 318 72 247 
367 11 175 307 193 161 288 263 287 235 85 31 352 
368 8 241 314 139 396 255 362 251 285 
369 11 386 354 18 390 399 395 90 123 289 401 84 
370 10 417 335 306 167 248 414 163 243 336 366 
371 11 264 383 295 98 393 339 223 376 406 134 357 
372 11 283 380 379 185 375 221 135 349 323 162 355 
373 11 225 111 392 87 341 309 403 298 84 243 127 
374 11 333 320 331 109 253 240 297 322 153 20 158 
375 11 185 379 380 283 372 221 63 240 323 358 109 
376 11 58 295 383 98 371 292 264 361 219 207 44 
377 6 237 318 122 247 366 227 
378 11 172 14 210 343 104 126 364 118 345 75 304 
379 11 283 185 221 375 372 380 323 240 109 349 331 
380 11 372 283 375 185 379 221 135 323 2 349 355 
381 11 398 311 273 37 51 408 226 344 261 252 410 
382 11 107 217 78 100 183 254 79 263 352 257 184 
383 11 98 264 371 295 393 339 376 223 219 357 134 
384 11 29 176 325 166 59 208 125 411 32 78 100 
385 10 102 250 127 293 281 67 330 87 289 309 
386 11 369 18 354 90 395 390 399 289 123 330 84 
387 10 366 228 336 237 72 377 122 389 163 318 
388 10 402 169 328 234 96 299 53 189 315 321 
389 11 42 156 267 303 72 272 93 387 203 196 228 
390 11 399 354 401 395 369 18 123 386 90 84 289 
391 11 297 253 153 240 320 331 358 374 109 185 333 
392 11 111 373 225 403 298 243 341 87 248 309 84 
393 11 264 371 98 339 383 223 295 134 357 406 4 
394 11 73 4 338 170 43 357 239 327 3 219 9 
395 11 90 18 289 84 390 330 399 67 386 369 354 
396 7 368 251 241 314 255 285 139 
397 11 319 218 173 45 181 13 49 416 82 236 150 
398 11 381 37 408 273 311 157 344 252 51 410 10 
399 11 390 354 401 395 369 123 18 386 90 84 207 
400 10 356 286 405 31 191 345 257 214 352 126 
401 11 207 399 390 337 212 123 354 44 292 361 58 
402 10 299 328 388 315 169 360 234 96 189 36 
403 11 392 111 373 225 248 243 298 335 84 417 306 
404 11 150 342 196 203 233 173 303 116 267 317 45 
405 10 356 214 286 400 321 351 345 276 191 115 
406 11 339 223 134 393 264 371 357 305 295 98 383 
407 11 355 135 6 177 32 132 2 80 7 208 59 
408 11 157 398 37 195 381 51 311 273 252 344 10 
409 11 289 90 385 330 18 67 395 102 194 127 386 
410 11 353 344 348 261 10 252 56 291 273 347 226 
411 11 162 349 29 246 25 59 20 322 176 208 74 
412 11 145 190 326 62 80 66 138 249 177 26 155 
413 11 3 9 305 170 4 134 357 106 394 338 406 
414 11 167 335 163 370 417 248 306 277 43 336 239 
415 11 359 19 15 302 260 94 259 275 34 226 256 
416 11 279 45 173 147 150 319 249 404 26 316 82 
417 10 370 306 335 248 167 243 414 163 336 298 
DEPOT_SECTION
   1
   -1
EOF
