NAME :  X-n411-kX-w82-c9.cctp
COMMENT : 	Adapted by Maziero, Usberti and Cavellucci from the Uchoa, Pecin, Pessoa, Poggi, Subramanian, and Vidal (2013)
TYPE :  CCTP
DIMENSION :    377
EDGE_WEIGHT_TYPE : 	EUC_2D	
CAPACITY : 	216
VERTICES_WITHIN_COVERAGE :  9
VERTICES_WITH_DEMAND : 	82
NODE_COORD_SECTION
1 175 821
2 62 495
3 662 959
4 109 216
5 156 748
6 178 957
7 120 571
8 75 480
9 44 98
10 386 1000
11 96 465
12 98 796
13 213 642
14 642 977
15 629 893
16 36 124
17 155 172
18 6 367
19 39 198
20 40 311
21 649 801
22 208 367
23 237 944
24 282 313
25 114 684
26 69 168
27 23 553
28 137 467
29 244 971
30 86 456
31 125 681
32 77 398
33 128 820
34 166 804
35 657 959
36 160 172
37 674 882
38 255 944
39 709 691
40 167 720
41 187 995
42 246 707
43 95 518
44 44 264
45 262 940
46 739 987
47 210 586
48 240 994
49 199 564
50 108 491
51 832 933
52 715 874
53 130 426
54 518 749
55 90 209
56 760 925
57 118 92
58 72 270
59 606 976
60 129 975
61 157 787
62 626 857
63 169 712
64 105 710
65 105 233
66 65 322
67 685 804
68 215 664
69 211 996
70 336 887
71 728 533
72 649 836
73 93 905
74 143 894
75 47 136
76 198 125
77 707 977
78 682 937
79 17 858
80 370 512
81 222 825
82 55 388
83 182 905
84 41 510
85 128 221
86 266 796
87 349 821
88 108 777
89 98 842
90 225 528
91 140 920
92 132 465
93 132 478
94 144 476
95 138 981
96 163 937
97 11 794
98 663 942
99 138 464
100 27 134
101 213 819
102 150 746
103 184 760
104 122 579
105 180 670
106 166 955
107 111 284
108 222 859
109 104 951
110 162 968
111 73 394
112 620 899
113 52 737
114 655 914
115 110 440
116 232 648
117 204 708
118 52 512
119 161 887
120 46 259
121 151 777
122 191 999
123 247 686
124 68 464
125 5 393
126 696 937
127 642 902
128 86 905
129 132 600
130 115 788
131 126 801
132 58 479
133 147 765
134 145 772
135 592 971
136 58 195
137 236 969
138 729 986
139 731 958
140 616 999
141 234 458
142 0 48
143 138 215
144 82 268
145 661 893
146 828 769
147 587 942
148 631 978
149 64 297
150 257 671
151 158 185
152 190 183
153 127 166
154 75 564
155 26 818
156 157 888
157 97 174
158 53 210
159 255 551
160 93 135
161 303 976
162 139 824
163 144 824
164 166 971
165 195 983
166 73 379
167 182 177
168 118 595
169 192 702
170 355 701
171 63 190
172 164 489
173 228 918
174 746 859
175 190 958
176 162 797
177 587 963
178 113 97
179 119 363
180 82 200
181 93 167
182 679 707
183 164 569
184 751 803
185 22 100
186 143 744
187 217 890
188 55 196
189 792 923
190 584 877
191 786 815
192 139 121
193 179 742
194 749 909
195 252 809
196 70 115
197 309 976
198 191 915
199 333 77
200 82 928
201 78 497
202 11 624
203 642 915
204 71 75
205 547 981
206 271 936
207 662 981
208 677 991
209 8 272
210 492 817
211 49 230
212 109 241
213 178 969
214 309 966
215 100 444
216 702 937
217 255 943
218 123 135
219 88 408
220 648 973
221 662 952
222 233 834
223 280 828
224 150 753
225 70 339
226 120 919
227 572 980
228 135 814
229 38 618
230 76 755
231 34 399
232 88 671
233 23 336
234 201 544
235 733 850
236 46 502
237 686 952
238 653 958
239 770 920
240 158 769
241 211 709
242 96 761
243 190 120
244 515 841
245 107 915
246 34 241
247 101 968
248 228 938
249 152 397
250 163 188
251 843 942
252 166 931
253 455 984
254 606 962
255 553 894
256 343 894
257 223 717
258 142 957
259 693 899
260 118 725
261 353 838
262 52 328
263 14 295
264 771 850
265 203 330
266 79 391
267 151 387
268 97 308
269 284 14
270 261 204
271 60 570
272 91 607
273 14 532
274 182 728
275 204 978
276 741 786
277 119 191
278 118 904
279 146 583
280 50 718
281 56 420
282 50 493
283 267 934
284 740 904
285 23 212
286 42 967
287 611 889
288 236 932
289 427 892
290 197 741
291 199 789
292 123 468
293 70 729
294 63 443
295 142 539
296 602 561
297 650 992
298 663 947
299 73 790
300 556 1000
301 196 361
302 240 972
303 42 552
304 72 256
305 271 641
306 69 193
307 138 389
308 140 486
309 173 996
310 138 797
311 10 520
312 297 643
313 92 946
314 104 549
315 290 691
316 131 996
317 233 702
318 82 351
319 177 923
320 118 903
321 69 740
322 59 163
323 48 503
324 14 424
325 170 717
326 719 946
327 176 497
328 245 503
329 174 535
330 167 891
331 668 911
332 236 621
333 197 529
334 152 714
335 585 950
336 587 930
337 182 640
338 219 944
339 98 706
340 278 544
341 216 873
342 76 744
343 138 183
344 12 916
345 150 954
346 20 596
347 178 189
348 144 219
349 643 943
350 728 986
351 125 874
352 158 198
353 215 625
354 107 321
355 110 461
356 101 592
357 96 684
358 579 816
359 645 947
360 777 894
361 806 973
362 118 790
363 195 927
364 157 944
365 235 784
366 256 895
367 15 431
368 233 962
369 793 774
370 127 185
371 704 965
372 234 634
373 664 948
374 29 604
375 278 697
376 686 985
377 151 795
DEMAND_SECTION
2 95
3 58
4 80
5 97
6 100
7 64
8 63
9 86
10 61
11 62
12 56
13 74
14 78
15 78
16 91
17 85
18 69
19 89
20 83
21 60
22 51
23 55
24 57
25 83
26 67
27 89
28 6
29 1
30 1
31 7
32 2
33 1
34 4
35 6
36 3
37 10
38 5
39 10
40 1
41 7
42 10
43 6
44 8
45 4
46 5
47 4
48 4
49 3
50 10
51 7
52 10
53 9
54 4
55 3
56 7
57 4
58 2
59 9
60 3
61 4
62 8
63 2
64 9
65 3
66 1
67 5
68 3
69 8
70 7
71 1
72 3
73 7
74 10
75 1
76 7
77 7
78 2
79 2
80 3
81 6
82 8
83 3
COVERAGE_SECTION
2 9 282 132 201 323 236 8 118 84 124 
3 9 35 221 238 373 298 98 220 359 207 
4 9 65 55 85 212 277 143 180 348 370 
5 9 102 224 186 133 240 193 134 121 40 
6 8 106 175 213 164 110 96 364 345 
7 9 104 168 314 356 279 129 295 183 154 
8 9 124 132 201 2 11 30 282 50 323 
9 9 185 16 196 204 75 100 160 142 322 
10 9 253 197 214 161 256 289 70 206 283 
11 9 30 355 215 8 292 124 50 115 92 
12 7 130 88 362 299 131 242 33 
13 9 353 116 68 372 332 337 105 150 47 
14 9 220 148 297 207 238 35 3 359 221 
15 7 112 127 287 203 145 114 62 
16 9 100 75 9 185 196 322 26 160 204 
17 9 36 151 250 343 352 167 153 347 370 
18 9 125 233 231 82 324 262 367 20 166 
19 9 188 158 136 285 171 306 211 322 26 
20 9 262 66 149 233 263 225 44 209 58 
21 9 72 67 62 358 37 145 276 15 287 
22 8 301 265 267 249 307 179 24 141 
23 9 248 288 38 217 338 368 45 137 29 
24 4 265 22 301 270 
25 9 31 357 339 64 232 260 334 63 293 
26 9 322 171 181 306 136 157 188 180 75 
27 5 303 273 311 271 346 
28 9 99 92 94 93 292 308 355 172 50 
29 9 302 137 368 48 23 38 217 45 248 
30 9 11 215 124 355 8 294 115 132 292 
31 9 25 357 64 339 232 334 260 63 105 
32 9 111 266 219 166 82 281 231 294 318 
33 8 228 162 163 131 310 362 377 130 
34 9 176 377 61 310 163 121 228 162 240 
35 9 238 3 221 298 373 220 359 98 349 
36 9 17 151 250 167 343 347 352 152 153 
37 8 145 259 331 114 127 52 15 203 
38 9 217 45 283 23 206 288 248 368 29 
39 9 182 276 67 369 184 21 146 191 72 
40 9 325 63 334 274 193 5 102 169 186 
41 9 122 165 309 69 275 213 164 110 175 
42 9 317 123 257 375 241 150 117 315 68 
43 9 201 50 314 2 8 118 323 154 282 
44 9 120 246 58 304 211 209 144 149 263 
45 9 38 217 283 206 23 288 248 29 368 
46 9 138 350 139 77 371 326 376 208 216 
47 9 49 353 234 332 183 372 13 159 333 
48 9 302 29 137 69 368 275 165 122 23 
49 9 234 47 183 333 329 90 279 159 295 
50 9 93 292 11 43 355 201 308 8 92 
51 9 251 189 361 239 360 56 194 284 264 
52 9 235 259 174 284 37 194 145 331 264 
53 9 115 215 249 307 92 99 355 28 292 
54 9 210 358 244 21 190 255 62 72 182 
55 9 180 4 306 65 171 277 136 157 158 
56 9 239 194 284 189 360 139 326 216 46 
57 9 178 192 218 160 204 196 9 153 243 
58 9 144 304 120 149 44 107 268 211 212 
59 9 254 135 177 140 148 335 227 14 147 
60 9 95 316 258 247 345 110 109 164 106 
61 8 377 176 121 240 34 134 310 133 
62 9 72 287 15 112 190 127 145 37 203 
63 9 325 40 334 274 169 193 117 5 102 
64 9 339 260 25 357 31 293 232 342 321 
65 9 212 4 85 55 143 180 304 348 144 
66 9 262 225 149 20 318 268 354 233 58 
67 9 21 72 276 184 235 52 37 62 174 
68 9 13 116 105 372 123 353 337 317 150 
69 9 275 122 165 41 48 137 302 309 368 
70 9 256 261 87 366 206 223 214 283 45 
71 9 296 39 182 369 276 146 184 67 21 
72 9 62 21 67 37 145 15 287 127 112 
73 9 128 245 200 278 320 226 313 351 109 
74 9 156 119 330 91 278 320 351 226 83 
75 9 16 100 322 196 9 26 185 160 181 
76 9 243 167 152 192 36 17 347 151 250 
77 9 371 376 350 138 139 208 237 326 46 
78 9 126 237 98 216 298 373 221 3 331 
79 9 155 344 97 89 128 299 73 200 12 
80 8 340 159 328 90 141 312 305 234 
81 9 101 222 108 195 291 365 341 86 223 
82 9 111 166 32 231 266 281 219 318 125 
83 7 198 319 330 363 119 156 252 
84 5 236 323 118 282 2 
85 8 143 348 4 65 212 277 370 352 
86 9 195 365 223 222 81 101 291 108 87 
87 9 261 70 223 256 86 195 289 222 366 
88 4 130 362 242 12 
89 9 33 351 162 12 228 163 131 362 130 
90 8 333 234 328 159 49 329 340 327 
91 8 226 74 278 252 320 96 364 245 
92 9 28 99 292 93 94 308 355 115 50 
93 9 308 28 94 92 292 99 50 355 172 
94 9 28 308 93 99 92 292 172 355 327 
95 9 60 316 258 110 164 345 106 309 247 
96 7 252 364 106 319 345 6 91 
97 9 155 299 79 113 230 321 342 280 12 
98 9 298 373 221 3 35 238 359 78 349 
99 9 28 92 94 93 292 308 355 172 115 
100 9 16 75 185 9 322 196 26 19 160 
101 9 81 222 291 195 108 365 34 341 176 
102 8 5 186 224 133 240 134 193 40 
103 9 193 290 240 5 274 291 224 102 121 
104 9 7 168 129 279 356 314 272 183 295 
105 9 337 169 68 13 63 117 325 241 40 
106 9 6 110 364 164 345 96 213 175 252 
107 5 268 144 354 58 212 
108 8 341 222 187 81 101 366 195 173 
109 9 313 247 200 60 226 245 258 95 345 
110 9 164 106 213 345 6 258 364 95 175 
111 9 32 266 166 82 219 281 231 318 294 
112 7 15 287 127 203 114 145 62 
113 9 321 280 293 342 230 242 339 299 64 
114 7 203 331 127 145 98 349 15 
115 9 215 355 53 11 30 292 92 99 28 
116 9 372 13 68 332 353 150 305 123 337 
117 9 241 169 257 274 317 290 63 325 40 
118 6 323 84 236 282 2 201 
119 9 156 330 74 83 351 91 319 198 252 
120 9 44 246 304 58 211 144 209 149 263 
121 8 134 240 61 133 377 176 224 310 
122 9 41 165 309 69 275 213 164 175 110 
123 9 150 42 317 375 68 257 116 241 315 
124 9 8 132 30 294 11 2 201 282 215 
125 9 18 231 324 367 82 281 233 111 166 
126 9 216 78 237 326 371 98 298 373 221 
127 7 203 15 114 145 112 331 287 
128 9 73 200 245 278 320 226 313 109 351 
129 8 168 279 104 7 356 272 183 314 
130 5 362 88 131 12 310 
131 7 310 362 228 130 33 162 377 
132 9 2 282 8 124 236 323 201 118 84 
133 7 134 224 240 121 5 102 186 
134 6 133 121 240 61 224 377 
135 9 177 59 254 227 335 147 140 148 336 
136 9 188 171 306 158 19 180 26 322 55 
137 9 302 29 368 23 48 338 38 217 248 
138 9 350 46 77 139 371 326 376 208 237 
139 9 326 138 350 371 46 77 216 126 56 
140 9 59 148 14 297 135 254 220 177 227 
141 8 328 327 90 172 333 94 234 22 
142 9 185 9 204 16 100 196 75 178 57 
143 8 348 85 352 4 277 343 370 151 
144 9 58 304 107 149 120 44 212 65 268 
145 8 37 331 127 114 203 15 259 112 
146 9 369 191 184 276 264 174 235 360 39 
147 7 335 336 177 254 135 59 227 
148 9 14 220 297 59 140 238 254 207 35 
149 9 66 20 58 262 144 268 44 120 225 
150 9 123 305 375 116 42 315 317 68 372 
151 9 250 17 36 352 343 347 167 370 152 
152 8 167 347 250 36 151 352 17 343 
153 9 370 343 277 17 157 218 36 181 151 
154 8 271 314 303 356 7 272 104 43 
155 9 97 79 299 12 89 230 113 321 342 
156 9 119 330 74 83 351 91 319 278 320 
157 9 181 277 26 180 153 370 306 55 171 
158 9 188 136 19 211 171 306 285 180 246 
159 8 340 90 328 234 47 49 333 332 
160 9 196 218 181 157 26 178 322 75 153 
161 9 197 214 206 45 283 38 217 29 302 
162 8 163 228 33 131 310 377 34 176 
163 8 162 228 33 310 131 34 377 176 
164 9 110 213 106 6 345 309 175 258 364 
165 9 275 41 122 69 213 175 309 6 164 
166 9 266 111 32 82 318 219 225 231 281 
167 9 152 347 250 36 151 17 352 343 76 
168 8 129 104 356 7 272 279 314 154 
169 9 117 241 63 325 274 40 105 257 290 
170 9 315 375 312 150 305 42 123 87 317 
171 9 136 306 188 180 158 26 19 322 55 
172 9 327 94 308 93 28 99 92 292 329 
173 5 288 248 23 338 187 
174 9 235 264 52 284 360 194 184 191 239 
175 7 6 213 106 275 165 164 110 
176 8 34 61 377 121 310 240 134 163 
177 9 135 335 254 147 59 227 336 205 140 
178 9 57 192 218 160 196 204 9 153 181 
179 9 307 318 267 354 249 166 266 32 111 
180 9 55 306 171 136 188 157 4 158 26 
181 9 157 26 160 153 322 180 277 306 171 
182 9 39 67 21 276 184 72 369 358 191 
183 9 279 49 329 295 104 7 129 234 47 
184 9 276 191 235 264 369 174 67 52 146 
185 9 9 16 100 75 196 204 142 322 160 
186 7 102 224 5 133 134 240 260 
187 6 341 173 108 198 83 366 
188 9 136 171 158 306 19 180 26 322 211 
189 9 239 56 360 51 194 361 251 284 139 
190 8 287 255 112 62 15 336 358 127 
191 9 184 264 369 276 174 146 235 360 52 
192 9 218 178 57 153 160 243 17 36 76 
193 9 274 290 103 5 40 325 102 224 63 
194 9 284 56 239 360 189 326 52 174 139 
195 9 86 365 222 81 223 101 291 108 341 
196 9 160 9 75 16 204 100 178 322 185 
197 9 161 214 206 45 283 38 217 29 302 
198 4 83 363 319 252 
199 9 269 76 270 243 152 167 347 36 192 
200 9 313 128 73 245 109 226 278 247 320 
201 9 2 8 43 132 282 118 50 323 236 
202 8 374 229 346 27 271 303 272 154 
203 7 114 127 15 331 112 349 145 
204 9 9 196 178 57 185 16 160 75 100 
205 9 300 227 177 135 335 147 59 254 336 
206 9 283 45 217 38 23 288 248 29 366 
207 9 220 297 208 14 3 35 376 238 221 
208 9 376 207 297 77 220 3 371 14 35 
209 9 263 44 120 246 20 211 149 285 58 
210 8 244 54 358 255 289 190 287 62 
211 9 246 158 120 285 19 44 188 304 136 
212 7 65 4 85 55 144 143 304 
213 9 6 164 110 175 106 165 309 41 275 
214 9 197 161 206 283 45 38 217 29 302 
215 9 115 30 355 11 292 53 294 92 124 
216 9 126 326 78 237 371 139 98 259 77 
217 9 38 45 283 206 23 288 248 368 29 
218 9 192 160 153 178 57 181 157 17 343 
219 9 32 266 111 166 281 215 82 115 294 
220 9 14 207 238 35 148 297 3 221 359 
221 9 373 298 3 35 98 238 359 349 237 
222 9 81 101 108 195 341 223 86 365 291 
223 9 195 86 222 81 365 108 101 87 366 
224 7 102 5 186 133 240 134 121 
225 9 318 66 262 166 20 268 354 149 233 
226 9 245 278 320 91 73 74 109 128 200 
227 9 135 177 205 300 335 59 254 147 140 
228 8 33 162 163 131 310 377 362 176 
229 8 374 202 346 271 272 154 303 27 
230 9 342 321 242 293 113 299 88 280 12 
231 9 82 125 281 324 367 111 18 32 166 
232 8 357 25 339 31 64 280 293 260 
233 9 20 262 18 263 66 225 149 125 82 
234 9 333 49 329 90 47 183 327 159 295 
235 9 174 52 264 184 284 194 360 259 191 
236 6 323 84 282 118 2 132 
237 9 78 126 216 371 373 221 298 3 98 
238 9 35 3 221 359 298 373 220 349 98 
239 9 56 189 194 360 284 139 326 51 361 
240 8 121 133 134 61 224 5 102 377 
241 9 117 257 169 317 42 274 290 63 325 
242 6 88 230 342 130 321 12 
243 9 76 192 167 36 17 152 218 347 151 
244 8 210 255 358 190 54 289 287 62 
245 9 226 278 320 73 128 200 91 313 109 
246 9 211 120 44 285 158 209 304 19 58 
247 9 109 313 60 95 316 258 200 345 226 
248 6 288 23 338 173 368 217 
249 9 267 307 53 179 301 115 22 219 99 
250 9 151 352 347 36 17 167 343 152 348 
251 9 51 361 189 239 360 56 194 284 46 
252 7 96 319 364 106 91 345 6 
253 8 10 205 289 300 227 255 177 335 
254 9 59 135 177 335 147 148 336 140 227 
255 8 190 336 287 147 335 244 112 15 
256 9 70 261 87 214 206 289 283 366 197 
257 9 241 317 117 42 169 290 123 274 193 
258 8 345 364 60 110 95 106 164 96 
259 9 37 331 52 145 126 216 78 114 284 
260 7 64 339 186 334 102 25 242 
261 9 87 70 256 223 289 86 195 366 222 
262 9 66 20 225 233 149 318 268 263 166 
263 9 209 20 233 44 120 149 262 66 246 
264 9 174 191 235 360 184 52 284 194 239 
265 3 301 22 267 
266 9 32 111 166 219 82 281 318 231 179 
267 9 249 307 179 53 301 22 219 115 266 
268 7 354 107 66 149 225 144 58 
269 9 199 76 243 192 57 178 270 167 152 
270 6 152 167 347 250 76 352 
271 7 154 303 27 374 356 272 346 
272 8 356 168 104 129 7 154 271 229 
273 5 311 27 303 84 118 
274 9 193 325 40 290 63 169 117 103 5 
275 9 165 69 41 175 122 213 6 137 368 
276 9 184 369 191 67 235 264 174 146 52 
277 9 370 343 153 4 157 85 143 55 181 
278 9 320 226 245 73 74 91 351 128 156 
279 9 129 183 104 7 168 295 356 314 49 
280 9 113 293 321 342 230 339 64 357 232 
281 9 294 32 231 111 82 219 266 324 367 
282 7 236 323 2 132 84 118 8 
283 9 206 45 217 38 288 23 248 366 173 
284 9 194 56 239 360 52 174 259 326 216 
285 9 19 158 246 211 188 136 171 306 120 
286 9 313 200 247 344 109 128 73 245 60 
287 7 112 15 190 127 62 203 336 
288 7 248 23 173 338 38 217 45 
289 9 256 70 261 253 210 244 87 10 255 
290 9 193 274 103 117 241 257 325 40 169 
291 9 101 103 34 365 176 61 81 240 290 
292 9 92 93 28 355 99 94 308 11 50 
293 9 321 342 113 280 230 339 64 242 260 
294 9 124 281 30 132 215 8 11 219 32 
295 9 329 183 7 314 279 104 43 308 327 
296 9 71 182 39 54 80 21 358 67 276 
297 9 207 14 220 148 208 35 238 3 140 
298 9 373 98 221 3 35 238 359 349 78 
299 9 12 230 88 242 130 362 342 321 131 
300 9 205 227 135 177 59 335 140 254 147 
301 7 22 265 267 249 307 179 53 
302 9 29 137 368 48 23 38 217 338 248 
303 7 27 271 273 154 118 84 311 
304 9 58 144 120 44 211 65 212 246 149 
305 9 312 150 372 116 332 123 315 375 13 
306 9 171 136 188 180 158 26 55 19 322 
307 9 267 249 179 53 219 115 266 32 301 
308 9 93 94 28 92 99 172 292 50 327 
309 9 41 122 164 165 213 110 275 69 95 
310 7 131 377 228 61 362 121 176 
311 5 273 84 27 236 323 
312 9 305 150 315 375 372 116 332 123 42 
313 9 109 200 247 245 226 73 128 60 278 
314 9 7 43 154 104 295 356 168 271 279 
315 9 375 150 123 42 312 305 317 170 116 
316 9 95 60 247 258 110 309 164 345 109 
317 9 42 257 123 241 117 150 169 68 375 
318 9 225 166 66 262 179 354 266 111 82 
319 5 252 198 363 83 96 
320 9 278 226 245 73 74 91 351 128 156 
321 9 342 293 113 230 280 242 339 64 299 
322 9 26 171 75 136 306 188 181 19 157 
323 6 236 84 118 282 2 132 
324 7 367 125 231 281 294 82 18 
325 9 40 63 274 334 169 193 5 102 117 
326 9 139 216 371 126 77 237 78 138 350 
327 8 172 94 308 329 333 93 28 99 
328 8 90 141 159 340 333 234 327 49 
329 9 333 234 295 183 49 327 172 90 279 
330 8 119 156 83 74 198 319 91 252 
331 8 114 145 203 127 259 37 78 98 
332 9 372 353 116 13 305 47 68 150 337 
333 8 234 329 90 49 327 172 183 328 
334 9 40 63 325 186 102 274 5 260 193 
335 8 147 177 336 135 254 59 227 205 
336 8 147 335 177 254 135 112 287 59 
337 9 105 13 353 68 116 372 332 47 169 
338 5 248 23 288 368 173 
339 9 64 357 25 260 232 293 31 342 321 
340 8 159 328 90 234 47 49 333 332 
341 7 108 187 222 366 83 173 81 
342 9 321 230 293 113 242 280 339 64 88 
343 9 370 17 151 153 277 36 250 352 143 
344 9 79 286 200 128 73 313 245 109 155 
345 8 258 364 106 110 96 164 6 252 
346 8 374 229 202 27 271 303 154 273 
347 8 152 167 250 151 352 36 17 343 
348 8 143 85 352 4 250 343 151 277 
349 7 359 238 98 298 35 221 373 
350 9 138 46 77 139 371 326 376 208 237 
351 9 74 320 278 156 119 89 73 226 245 
352 9 250 151 347 343 348 17 36 143 167 
353 9 13 332 372 116 337 47 68 105 305 
354 7 268 107 318 225 66 179 149 
355 9 11 292 215 115 92 30 28 93 99 
356 8 168 272 104 7 129 154 314 279 
357 9 232 25 339 64 31 260 293 280 321 
358 9 190 62 244 21 72 287 255 210 54 
359 8 349 238 35 221 298 98 373 3 
360 9 239 194 189 56 284 264 174 235 52 
361 9 51 251 189 239 56 46 139 138 350 
362 5 130 131 88 12 310 
363 4 198 319 83 252 
364 8 96 345 106 252 258 6 110 164 
365 9 195 86 291 101 81 222 103 290 223 
366 7 173 187 283 288 206 45 341 
367 7 324 231 125 281 294 82 124 
368 9 137 302 29 23 338 248 38 217 288 
369 9 146 191 184 276 264 174 235 67 39 
370 9 277 343 153 17 151 143 157 352 36 
371 9 77 237 326 376 139 216 126 350 138 
372 9 332 116 353 13 68 305 150 337 47 
373 9 298 221 98 3 35 238 359 78 237 
374 8 346 229 202 271 27 303 154 272 
375 9 315 123 150 42 317 305 312 257 116 
376 9 208 77 207 371 237 3 297 35 220 
377 7 61 176 310 34 121 134 228 
DEPOT_SECTION
   1
   -1
EOF
