NAME :  X-n429-kX-w85-c7.cctp
COMMENT : 	Adapted by Maziero, Usberti and Cavellucci from the Uchoa, Pecin, Pessoa, Poggi, Subramanian, and Vidal (2013)
TYPE :  CCTP
DIMENSION :    354
EDGE_WEIGHT_TYPE : 	EUC_2D	
CAPACITY : 	536
VERTICES_WITHIN_COVERAGE :  7
VERTICES_WITH_DEMAND : 	85
NODE_COORD_SECTION
1 238 446
2 749 750
3 960 879
4 914 116
5 517 477
6 554 143
7 850 488
8 739 177
9 229 160
10 539 573
11 901 821
12 787 399
13 974 203
14 89 387
15 561 27
16 103 139
17 174 826
18 40 578
19 359 23
20 440 649
21 588 265
22 182 275
23 401 993
24 751 564
25 797 274
26 756 252
27 871 882
28 693 417
29 710 620
30 960 422
31 530 904
32 124 126
33 67 587
34 440 336
35 219 38
36 609 504
37 936 474
38 800 689
39 358 530
40 914 753
41 210 96
42 95 816
43 441 389
44 506 963
45 114 285
46 333 191
47 545 892
48 59 618
49 698 385
50 977 931
51 822 79
52 951 91
53 341 759
54 439 290
55 1 258
56 756 147
57 252 284
58 588 168
59 895 501
60 759 442
61 967 855
62 244 601
63 888 148
64 442 18
65 847 877
66 683 267
67 446 301
68 997 815
69 586 777
70 129 986
71 613 331
72 811 156
73 704 494
74 265 216
75 511 373
76 981 261
77 48 985
78 723 558
79 839 828
80 803 737
81 296 719
82 589 252
83 374 862
84 277 82
85 451 183
86 904 681
87 474 908
88 609 185
89 346 382
90 158 866
91 572 161
92 142 331
93 672 178
94 728 793
95 888 917
96 326 298
97 718 636
98 792 283
99 866 141
100 682 640
101 961 604
102 299 23
103 358 22
104 27 552
105 508 739
106 582 748
107 220 76
108 128 795
109 268 622
110 167 789
111 827 698
112 68 190
113 561 928
114 328 817
115 719 595
116 152 111
117 780 824
118 486 302
119 877 775
120 156 976
121 62 854
122 824 163
123 796 134
124 848 204
125 581 299
126 37 832
127 364 210
128 778 453
129 234 586
130 194 65
131 300 238
132 939 983
133 354 914
134 719 709
135 845 806
136 753 610
137 384 707
138 741 825
139 457 590
140 35 357
141 518 607
142 249 16
143 724 269
144 567 58
145 865 296
146 222 629
147 419 205
148 813 784
149 426 19
150 361 788
151 346 845
152 961 860
153 388 315
154 433 70
155 116 292
156 264 540
157 76 564
158 42 866
159 988 538
160 77 75
161 46 609
162 761 523
163 954 696
164 807 151
165 320 646
166 682 723
167 591 702
168 163 587
169 327 755
170 8 378
171 469 286
172 502 45
173 278 681
174 104 123
175 638 65
176 806 705
177 87 388
178 70 459
179 427 812
180 736 661
181 108 285
182 635 631
183 808 238
184 494 268
185 761 524
186 455 188
187 843 3
188 84 342
189 509 878
190 98 641
191 835 478
192 814 202
193 33 673
194 729 323
195 193 813
196 702 480
197 748 318
198 925 844
199 814 904
200 68 961
201 59 627
202 773 483
203 845 468
204 904 365
205 613 161
206 532 267
207 382 505
208 603 595
209 700 327
210 166 753
211 554 159
212 925 3
213 667 660
214 355 936
215 130 923
216 852 837
217 381 911
218 554 116
219 387 383
220 908 985
221 728 93
222 861 58
223 348 13
224 850 535
225 833 72
226 393 995
227 20 992
228 680 498
229 330 163
230 115 593
231 100 942
232 466 983
233 599 837
234 406 531
235 596 274
236 60 921
237 550 949
238 301 792
239 354 963
240 856 708
241 493 303
242 817 131
243 557 353
244 910 91
245 833 437
246 94 829
247 619 456
248 761 88
249 317 184
250 357 202
251 516 212
252 655 419
253 789 881
254 439 945
255 823 190
256 523 905
257 561 376
258 13 539
259 591 737
260 827 661
261 788 713
262 455 357
263 200 213
264 982 944
265 199 197
266 344 164
267 859 498
268 855 650
269 605 903
270 961 616
271 791 757
272 291 577
273 490 126
274 25 95
275 20 522
276 121 204
277 755 392
278 549 56
279 43 240
280 110 305
281 739 76
282 84 184
283 953 127
284 108 836
285 76 779
286 331 883
287 45 791
288 791 266
289 854 741
290 322 731
291 162 83
292 110 342
293 987 835
294 53 290
295 339 605
296 508 883
297 946 885
298 986 694
299 309 48
300 873 461
301 949 410
302 193 531
303 890 388
304 81 698
305 704 356
306 469 110
307 687 142
308 158 154
309 471 294
310 439 348
311 113 935
312 316 819
313 807 40
314 730 134
315 698 366
316 219 270
317 728 209
318 137 420
319 315 153
320 60 763
321 226 7
322 613 135
323 989 857
324 904 996
325 951 678
326 991 254
327 253 75
328 588 802
329 840 877
330 260 38
331 244 697
332 63 980
333 620 219
334 800 109
335 467 220
336 417 647
337 938 810
338 898 705
339 507 121
340 154 615
341 993 267
342 358 136
343 527 863
344 555 502
345 237 9
346 79 432
347 636 429
348 272 761
349 454 640
350 515 783
351 734 311
352 946 827
353 523 585
354 231 980
DEMAND_SECTION
2 55
3 64
4 100
5 66
6 68
7 95
8 67
9 100
10 75
11 65
12 98
13 100
14 66
15 82
16 84
17 89
18 62
19 64
20 87
21 94
22 75
23 53
24 99
25 85
26 87
27 83
28 82
29 78
30 84
31 67
32 61
33 56
34 63
35 98
36 79
37 95
38 92
39 51
40 66
41 50
42 82
43 66
44 75
45 73
46 83
47 76
48 72
49 62
50 78
51 56
52 98
53 56
54 51
55 84
56 81
57 65
58 61
59 64
60 78
61 78
62 78
63 60
64 59
65 80
66 88
67 96
68 75
69 81
70 51
71 61
72 67
73 56
74 87
75 88
76 54
77 50
78 99
79 85
80 79
81 94
82 86
83 85
84 58
85 82
86 52
COVERAGE_SECTION
2 7 271 94 134 261 80 148 166 
3 7 297 152 61 323 198 293 352 
4 7 244 63 283 52 99 222 225 
5 1 344 
6 7 211 91 218 58 339 322 205 
7 7 267 191 203 300 59 224 245 
8 7 56 317 314 307 93 123 164 
9 7 265 263 41 74 308 107 319 
10 4 353 141 208 344 
11 7 198 337 352 119 216 135 79 
12 7 277 60 128 245 202 49 197 
13 7 326 76 341 283 63 4 52 
14 6 177 188 346 292 318 140 
15 6 278 144 172 175 218 339 
16 7 174 32 282 116 308 112 276 
17 7 195 110 90 108 284 210 42 
18 7 33 104 161 157 48 258 201 
19 7 103 223 299 102 149 64 154 
20 5 349 336 139 137 141 
21 7 235 82 125 206 333 71 88 
22 7 316 263 155 45 92 57 181 
23 7 226 239 254 232 214 217 133 
24 6 78 185 162 115 136 29 
25 7 98 288 183 26 197 145 143 
26 7 143 288 25 98 317 183 351 
27 7 65 329 95 216 199 79 198 
28 7 49 252 315 347 305 196 277 
29 7 97 115 100 136 180 213 78 
30 7 301 37 303 204 300 59 159 
31 7 256 47 296 189 113 343 237 
32 7 174 16 116 308 291 160 282 
33 7 157 18 161 48 201 230 104 
34 7 310 262 67 54 309 43 153 
35 7 321 345 130 142 107 330 327 
36 7 247 344 228 347 208 5 73 
37 7 59 30 300 301 267 159 7 
38 7 176 261 111 260 80 240 268 
39 4 207 234 295 272 
40 7 119 338 289 337 11 163 86 
41 7 107 130 327 291 35 116 9 
42 7 246 284 108 285 121 287 126 
43 7 262 310 34 219 75 67 153 
44 7 232 237 256 31 87 113 254 
45 5 181 155 280 92 292 
46 7 249 250 229 266 127 319 131 
47 7 31 256 343 296 113 189 237 
48 7 201 161 33 18 190 157 193 
49 7 315 305 28 252 277 209 194 
50 7 264 3 297 132 152 323 61 
51 7 225 334 313 222 242 123 248 
52 7 283 244 4 63 212 222 99 
53 7 169 290 150 238 114 81 312 
54 7 67 171 309 34 118 241 153 
55 5 279 294 112 140 181 
56 7 314 8 123 164 72 334 248 
57 7 316 131 74 22 96 263 265 
58 7 91 205 88 211 322 6 333 
59 7 267 300 7 37 224 203 191 
60 7 128 202 277 12 196 28 245 
61 7 152 323 3 293 352 297 198 
62 5 129 109 146 272 156 
63 7 99 4 244 122 283 124 242 
64 7 149 154 172 19 103 223 306 
65 7 329 27 216 199 79 95 253 
66 7 143 209 351 194 317 26 333 
67 7 54 309 171 34 118 241 310 
68 7 293 323 61 352 152 337 3 
69 6 328 106 259 233 350 167 
70 7 120 231 311 215 200 332 77 
71 7 125 235 243 257 21 82 209 
72 7 164 122 242 123 255 192 334 
73 7 196 228 162 185 78 202 60 
74 7 131 249 263 9 57 265 316 
75 7 243 257 262 43 241 118 310 
76 7 326 341 13 145 204 283 124 
77 7 332 227 200 236 231 70 311 
78 7 24 115 185 162 136 29 73 
79 7 216 135 329 65 148 117 11 
80 7 271 261 176 111 38 148 289 
81 6 290 173 169 348 331 53 
82 7 21 235 333 125 206 88 71 
83 6 151 286 217 133 114 312 
84 7 327 299 330 107 102 41 142 
85 5 186 147 335 273 251 
86 6 338 325 163 240 268 40 
87 6 296 189 256 254 31 44 
88 7 205 58 333 91 322 211 93 
89 6 219 153 96 43 310 34 
90 5 17 284 195 215 246 
91 7 58 211 6 205 88 218 322 
92 6 292 280 155 45 181 188 
93 7 307 205 88 317 333 8 314 
94 4 138 2 117 271 
95 7 27 65 329 297 220 199 3 
96 7 153 131 57 89 127 250 74 
97 6 29 180 100 115 136 213 
98 7 25 288 26 183 197 351 143 
99 7 63 122 242 4 72 164 255 
100 6 213 29 97 182 115 180 
101 6 270 159 325 163 298 86 
102 7 299 330 142 223 103 19 84 
103 7 19 223 299 102 149 64 154 
104 7 258 18 275 157 33 161 48 
105 4 350 106 259 69 
106 6 259 69 167 328 105 350 
107 7 41 130 327 35 330 84 291 
108 7 42 110 284 246 285 17 210 
109 6 62 146 129 272 165 173 
110 6 195 210 17 108 284 42 
111 7 176 38 240 260 261 80 289 
112 7 282 276 279 16 174 32 55 
113 7 237 31 47 256 269 44 296 
114 6 312 151 238 150 53 169 
115 7 29 78 136 97 24 100 180 
116 7 291 32 308 174 16 41 130 
117 6 138 148 253 79 94 135 
118 7 241 309 171 184 67 54 34 
119 7 289 40 135 11 79 148 216 
120 6 70 215 311 231 354 200 
121 5 158 126 246 284 42 
122 7 72 164 255 242 123 192 99 
123 7 164 242 334 72 122 56 248 
124 7 255 192 122 183 72 99 164 
125 7 235 21 71 82 206 243 257 
126 6 121 158 287 246 42 285 
127 6 250 46 266 249 147 229 
128 7 60 202 12 245 191 277 203 
129 7 62 146 109 156 272 302 168 
130 7 107 41 35 291 327 116 321 
131 7 74 46 249 96 57 250 127 
132 7 220 324 264 50 95 297 3 
133 7 214 217 286 239 83 151 226 
134 5 166 2 180 261 213 
135 7 79 216 148 119 11 289 117 
136 6 115 29 97 24 180 78 
137 7 290 53 336 169 20 150 165 
138 4 94 117 253 2 
139 2 349 20 
140 5 170 188 177 14 294 
141 5 353 10 139 349 208 
142 7 345 321 330 35 102 327 107 
143 7 26 66 351 194 197 317 209 
144 6 278 15 218 172 175 6 
145 7 25 98 204 288 183 124 303 
146 5 62 129 109 340 331 
147 5 85 186 335 127 250 
148 7 271 135 80 79 117 289 119 
149 7 64 154 19 103 223 172 306 
150 6 53 114 169 312 151 238 
151 6 83 114 312 286 150 133 
152 7 61 3 323 297 293 352 198 
153 7 34 54 67 310 96 219 89 
154 6 149 64 306 172 273 19 
155 5 45 181 280 92 292 
156 6 272 129 62 302 109 39 
157 6 33 18 230 104 161 48 
158 6 121 126 236 246 284 42 
159 6 101 37 270 59 30 301 
160 3 174 274 16 
161 7 48 201 33 18 157 104 190 
162 6 185 24 202 78 73 128 
163 7 325 298 86 338 40 270 101 
164 7 72 123 122 242 255 334 56 
165 7 295 173 109 272 81 290 62 
166 5 134 213 2 180 100 
167 4 259 106 69 182 
168 6 340 230 302 129 146 62 
169 7 53 290 238 150 81 348 114 
170 5 140 177 14 188 346 
171 7 309 118 67 241 54 184 34 
172 7 278 15 64 144 154 306 339 
173 4 331 81 165 109 
174 7 16 32 116 160 308 282 291 
175 4 144 322 15 278 
176 7 38 261 111 80 260 240 271 
177 6 14 346 188 292 318 140 
178 3 346 177 14 
179 2 150 83 
180 7 97 29 134 136 100 115 213 
181 5 45 155 280 294 92 
182 5 213 100 208 29 97 
183 7 288 192 25 98 255 124 26 
184 7 171 118 241 309 206 335 67 
185 6 162 24 202 78 73 128 
186 6 85 335 147 251 273 306 
187 7 313 222 225 51 212 244 334 
188 5 292 14 280 177 140 
189 6 296 343 256 31 47 87 
190 7 201 48 230 304 161 33 340 
191 7 203 7 267 245 300 224 128 
192 7 255 124 183 122 72 164 288 
193 6 201 304 48 161 190 33 
194 7 351 197 209 305 315 143 49 
195 5 17 110 90 210 108 
196 7 73 228 28 60 202 162 185 
197 7 351 194 209 143 98 305 25 
198 7 352 11 337 152 61 297 3 
199 4 253 329 65 27 
200 7 332 77 231 236 311 227 70 
201 7 48 161 33 190 18 193 157 
202 7 128 162 60 185 191 73 196 
203 7 191 7 300 245 267 59 224 
204 7 303 301 145 30 245 300 37 
205 7 88 58 322 91 333 211 93 
206 7 184 241 21 251 118 82 125 
207 2 39 234 
208 6 182 10 353 141 36 100 
209 7 194 305 351 315 197 49 66 
210 4 110 108 195 17 
211 7 6 91 58 218 205 339 88 
212 7 187 222 244 52 4 225 313 
213 4 100 182 97 29 
214 7 133 239 217 286 226 23 83 
215 5 311 231 120 70 90 
216 7 79 135 65 329 27 11 148 
217 7 133 214 83 286 239 254 151 
218 7 6 211 339 91 144 278 58 
219 7 89 43 310 153 34 262 67 
220 6 324 132 95 264 50 297 
221 5 281 248 314 56 307 
222 7 225 51 313 187 244 4 334 
223 7 103 19 102 299 149 330 64 
224 4 267 7 59 191 
225 7 51 222 313 334 242 187 123 
226 7 23 239 254 214 232 217 133 
227 7 77 332 200 236 231 70 311 
228 7 73 196 36 78 247 28 347 
229 7 266 319 249 46 342 250 127 
230 7 340 33 168 157 190 48 201 
231 6 311 215 200 236 70 332 
232 7 44 254 23 226 87 237 256 
233 4 328 69 269 47 
234 2 207 39 
235 7 21 82 125 71 333 206 66 
236 6 200 231 311 158 332 77 
237 7 113 44 31 256 47 269 296 
238 5 312 114 348 169 53 
239 5 214 133 226 23 217 
240 7 111 289 338 176 86 260 268 
241 7 118 309 171 184 67 206 54 
242 7 123 164 72 334 122 99 51 
243 7 257 75 125 71 241 118 235 
244 7 4 52 283 222 63 99 225 
245 7 203 191 300 7 128 12 267 
246 6 42 284 121 108 285 126 
247 7 347 36 252 228 344 28 196 
248 7 281 221 334 314 123 56 51 
249 7 46 229 319 266 250 127 131 
250 6 127 46 266 249 229 147 
251 7 335 206 184 211 186 85 91 
252 7 347 28 247 49 315 196 305 
253 4 199 329 65 117 
254 7 232 87 23 217 226 44 214 
255 7 192 122 124 72 164 183 242 
256 7 31 47 296 189 343 113 87 
257 7 243 75 71 125 347 247 241 
258 6 275 104 18 157 33 161 
259 5 106 167 69 328 105 
260 5 268 111 38 176 240 
261 7 176 38 80 111 271 2 260 
262 7 310 34 43 67 75 118 309 
263 7 265 9 316 22 74 308 276 
264 7 50 132 3 297 220 152 323 
265 7 263 9 308 74 316 276 22 
266 6 229 46 319 342 249 250 
267 6 7 191 203 59 224 300 
268 4 260 111 86 240 
269 3 113 47 233 
270 6 101 325 163 298 159 86 
271 7 80 148 2 261 176 289 117 
272 7 156 109 62 295 129 165 39 
273 7 339 306 218 6 85 186 211 
274 4 160 174 16 32 
275 6 258 104 18 157 33 178 
276 7 282 112 308 16 32 265 263 
277 7 12 60 49 305 315 128 28 
278 7 144 15 172 218 339 6 175 
279 6 55 294 112 282 181 45 
280 6 155 45 181 292 92 188 
281 5 221 248 314 334 56 
282 7 112 276 16 174 279 32 308 
283 7 52 4 244 63 13 99 222 
284 6 246 42 108 121 90 285 
285 7 320 287 42 246 108 284 126 
286 6 133 151 83 217 214 114 
287 7 320 285 126 42 246 121 158 
288 7 25 98 183 26 143 197 192 
289 7 240 119 80 111 338 148 176 
290 7 169 81 53 348 238 137 173 
291 7 116 130 41 32 107 174 308 
292 6 188 92 280 14 155 177 
293 7 68 323 61 152 352 3 337 
294 5 279 181 280 45 55 
295 7 165 272 109 39 336 62 173 
296 6 189 256 343 31 47 87 
297 7 3 152 61 198 323 50 352 
298 7 163 325 270 86 338 40 101 
299 7 102 84 330 223 103 19 327 
300 7 203 7 267 191 59 245 37 
301 7 30 303 204 37 300 59 203 
302 4 168 129 156 62 
303 7 204 301 245 300 30 203 145 
304 6 193 190 320 201 285 48 
305 7 315 209 49 194 351 197 28 
306 7 273 339 154 172 85 186 218 
307 5 93 314 8 221 56 
308 7 116 32 16 265 174 276 9 
309 7 171 118 241 67 54 184 34 
310 7 34 262 43 67 54 153 219 
311 6 231 215 200 70 236 120 
312 5 114 238 151 150 53 
313 7 225 51 187 222 248 334 281 
314 6 56 221 8 307 248 281 
315 7 305 49 209 28 194 277 351 
316 7 57 22 263 74 265 131 92 
317 7 8 26 143 93 56 66 314 
318 3 14 177 346 
319 6 229 249 266 46 342 250 
320 6 285 287 42 304 126 246 
321 7 345 142 35 330 130 107 327 
322 6 205 58 91 88 6 218 
323 7 61 293 152 3 68 297 352 
324 6 220 132 95 264 50 27 
325 7 163 298 86 338 270 101 40 
326 7 76 341 13 145 283 204 63 
327 7 84 107 330 41 35 142 130 
328 5 69 233 106 259 350 
329 7 65 27 199 216 79 253 95 
330 7 142 345 327 35 102 321 84 
331 2 173 81 
332 7 77 200 227 231 236 70 311 
333 7 88 82 21 205 58 235 93 
334 7 123 242 51 164 248 72 225 
335 7 186 85 147 251 184 171 309 
336 6 20 349 137 139 295 165 
337 7 352 198 11 61 152 293 68 
338 7 86 240 40 163 289 325 268 
339 7 273 306 218 6 211 91 172 
340 7 168 230 190 146 129 33 62 
341 7 76 326 13 145 204 283 301 
342 5 266 229 319 46 249 
343 5 189 296 47 31 256 
344 5 5 36 10 247 353 
345 7 321 142 35 330 102 327 107 
346 4 178 177 14 318 
347 7 252 247 28 49 36 228 196 
348 4 238 81 169 290 
349 5 20 336 139 141 353 
350 3 105 69 328 
351 7 194 197 209 143 305 26 98 
352 7 337 198 61 152 293 11 68 
353 3 10 141 139 
354 2 120 70 
DEPOT_SECTION
   1
   -1
EOF
