NAME :  X-n459-kX-w45-c7.cctp
COMMENT : 	Adapted by Maziero, Usberti and Cavellucci from the Uchoa, Pecin, Pessoa, Poggi, Subramanian, and Vidal (2013)
TYPE :  CCTP
DIMENSION :    290
EDGE_WEIGHT_TYPE : 	EUC_2D	
CAPACITY : 	1106
VERTICES_WITHIN_COVERAGE :  7
VERTICES_WITH_DEMAND : 	45
NODE_COORD_SECTION
1 500 500
2 832 885
3 777 632
4 406 257
5 620 467
6 343 166
7 355 345
8 393 299
9 631 767
10 384 340
11 643 630
12 786 593
13 789 727
14 443 205
15 679 408
16 845 535
17 732 820
18 890 861
19 645 689
20 800 517
21 951 643
22 828 746
23 862 625
24 606 432
25 672 984
26 580 338
27 629 494
28 809 663
29 738 595
30 604 320
31 645 532
32 688 728
33 390 680
34 842 517
35 525 404
36 697 719
37 837 853
38 741 585
39 628 506
40 354 280
41 726 834
42 721 635
43 448 363
44 963 702
45 570 484
46 389 281
47 708 380
48 771 523
49 778 645
50 402 318
51 817 717
52 568 298
53 937 637
54 542 678
55 822 854
56 711 697
57 603 310
58 850 879
59 502 417
60 764 610
61 729 822
62 774 732
63 691 793
64 905 888
65 664 411
66 607 624
67 823 875
68 410 237
69 712 692
70 804 678
71 881 872
72 371 269
73 590 431
74 420 245
75 811 647
76 854 717
77 520 823
78 720 645
79 564 493
80 653 541
81 831 758
82 694 804
83 417 251
84 683 364
85 648 479
86 888 492
87 822 876
88 672 419
89 545 420
90 925 749
91 856 861
92 804 638
93 426 194
94 692 700
95 331 318
96 604 563
97 523 429
98 834 880
99 714 644
100 606 512
101 667 709
102 456 202
103 556 837
104 810 589
105 537 360
106 346 163
107 880 569
108 617 420
109 308 466
110 880 638
111 616 485
112 719 744
113 371 346
114 379 420
115 377 138
116 864 721
117 823 535
118 614 761
119 659 383
120 588 663
121 595 488
122 408 268
123 713 863
124 652 409
125 618 425
126 657 290
127 709 839
128 375 283
129 278 391
130 843 873
131 443 229
132 756 702
133 365 293
134 477 191
135 401 102
136 359 290
137 791 751
138 329 178
139 916 882
140 758 635
141 797 783
142 428 238
143 797 464
144 217 29
145 939 745
146 911 889
147 829 679
148 798 482
149 686 615
150 768 524
151 601 454
152 851 574
153 662 511
154 447 601
155 889 610
156 728 845
157 643 486
158 830 608
159 561 410
160 778 640
161 644 724
162 728 651
163 525 419
164 927 692
165 597 228
166 448 218
167 575 349
168 921 883
169 406 172
170 840 847
171 787 660
172 668 880
173 594 416
174 740 581
175 600 464
176 614 568
177 829 644
178 556 518
179 660 676
180 525 793
181 623 482
182 369 195
183 805 668
184 879 886
185 728 597
186 833 719
187 744 569
188 644 446
189 896 850
190 393 284
191 708 586
192 694 612
193 446 162
194 726 702
195 499 397
196 335 416
197 772 626
198 602 466
199 754 637
200 643 572
201 880 867
202 698 630
203 819 640
204 819 577
205 303 326
206 780 647
207 630 579
208 893 578
209 545 465
210 782 723
211 639 609
212 313 267
213 810 893
214 407 307
215 808 666
216 621 427
217 761 602
218 335 150
219 807 564
220 818 834
221 881 870
222 300 679
223 342 373
224 819 859
225 651 493
226 378 248
227 675 424
228 398 303
229 799 623
230 770 860
231 776 711
232 661 839
233 829 895
234 891 565
235 569 489
236 824 716
237 827 436
238 527 376
239 838 855
240 537 432
241 468 195
242 714 807
243 448 331
244 846 863
245 815 689
246 639 332
247 577 442
248 572 461
249 415 256
250 933 687
251 461 392
252 827 906
253 786 737
254 793 632
255 540 374
256 604 445
257 303 293
258 802 534
259 298 118
260 818 892
261 591 411
262 377 314
263 750 857
264 643 336
265 770 609
266 873 547
267 736 788
268 676 521
269 746 617
270 860 848
271 396 235
272 417 267
273 871 536
274 854 648
275 602 262
276 950 821
277 698 633
278 418 292
279 690 602
280 669 683
281 797 722
282 594 646
283 597 358
284 944 834
285 776 610
286 832 908
287 702 378
288 604 494
289 757 832
290 601 706
DEMAND_SECTION
2 71
3 54
4 74
5 9
6 91
7 98
8 72
9 67
10 70
11 68
12 92
13 93
14 97
15 23
16 75
17 61
18 91
19 61
20 89
21 70
22 63
23 93
24 18
25 65
26 33
27 11
28 80
29 88
30 7
31 71
32 68
33 38
34 79
35 28
36 63
37 99
38 99
39 94
40 69
41 78
42 76
43 90
44 57
45 29
46 82
COVERAGE_SECTION
2 7 98 233 67 87 130 260 58 
3 6 160 197 49 206 254 140 
4 7 249 122 83 272 74 68 271 
5 7 181 111 198 175 151 256 27 
6 5 106 138 218 182 115 
7 7 113 10 223 95 262 133 50 
8 7 228 190 214 46 50 262 128 
9 7 118 161 63 101 290 32 82 
10 7 113 262 50 7 214 228 8 
11 6 211 66 149 179 282 207 
12 7 285 265 104 217 60 229 197 
13 7 210 281 253 62 231 137 51 
14 7 102 166 93 131 241 142 134 
15 5 88 65 227 124 119 
16 7 34 117 273 266 152 258 20 
17 7 61 41 242 156 289 127 267 
18 6 201 189 221 71 184 64 
19 6 179 280 101 161 290 94 
20 7 258 117 48 150 148 34 16 
21 7 53 250 164 44 155 110 208 
22 7 81 186 236 51 137 76 281 
23 5 110 274 155 158 177 
24 7 256 125 73 108 216 173 151 
25 0 
26 7 167 283 30 57 52 105 255 
27 7 39 181 111 157 225 85 288 
28 6 215 183 70 75 171 92 
29 7 38 185 174 269 217 187 60 
30 7 57 26 246 283 167 52 264 
31 5 80 153 39 268 225 
32 7 36 94 101 112 56 69 161 
33 5 222 154 54 180 77 
34 7 16 117 273 20 258 266 86 
35 7 163 97 59 89 195 238 240 
36 7 32 94 56 69 101 112 194 
37 7 239 170 244 55 224 91 130 
38 6 174 29 187 185 217 269 
39 7 27 100 111 157 181 225 288 
40 7 136 133 72 128 46 190 226 
41 7 156 61 17 127 242 289 123 
42 5 78 99 162 277 202 
43 3 243 251 195 
44 6 250 164 145 21 90 53 
45 5 235 79 248 121 209 
46 7 190 128 8 72 122 228 133 
47 5 287 84 15 119 88 
48 3 150 20 258 
49 6 206 160 3 171 197 254 
50 6 214 228 8 262 10 278 
51 6 236 186 281 245 13 22 
52 5 57 26 30 275 167 
53 7 21 250 155 164 110 44 208 
54 7 120 282 290 66 19 118 11 
55 7 224 37 239 170 220 67 87 
56 5 69 194 94 36 32 
57 7 30 26 52 246 167 264 275 
58 6 130 98 244 2 91 233 
59 4 195 163 97 35 
60 7 265 217 285 197 269 3 140 
61 7 17 41 242 156 127 289 267 
62 7 210 253 13 231 137 281 132 
63 7 82 242 267 61 17 127 41 
64 7 146 139 168 184 71 221 18 
65 4 88 124 15 227 
66 7 282 211 11 120 207 176 96 
67 7 87 98 2 224 260 130 55 
68 6 74 271 83 142 4 249 
69 4 56 194 94 36 
70 6 183 215 28 245 147 171 
71 6 221 201 18 184 91 189 
72 7 128 40 46 226 136 133 190 
73 6 24 173 247 256 261 151 
74 7 83 142 249 68 4 272 122 
75 5 92 203 28 177 215 
76 5 116 186 236 51 22 
77 7 180 103 118 9 232 290 54 
78 4 99 42 162 277 
79 5 235 45 178 121 248 
80 5 31 268 153 200 39 
81 7 22 186 137 141 51 236 76 
82 7 63 242 127 61 17 41 267 
83 7 249 74 4 68 272 142 122 
84 6 287 47 119 15 264 65 
85 4 157 225 27 181 
86 7 273 34 266 16 234 107 117 
87 7 67 2 98 260 224 233 130 
88 4 227 65 15 124 
89 5 240 159 163 97 35 
90 5 145 164 44 250 116 
91 6 244 270 130 58 239 37 
92 5 75 254 203 229 28 
93 7 14 169 102 166 193 131 241 
94 6 56 36 69 101 32 280 
95 7 205 7 257 136 133 40 262 
96 4 176 207 200 31 
97 5 163 240 59 89 35 
98 7 2 130 67 87 58 233 260 
99 5 78 42 162 277 202 
100 6 288 39 121 27 111 181 
101 7 280 94 161 32 19 36 179 
102 6 14 241 166 134 131 93 
103 7 77 180 118 9 232 172 290 
104 6 204 12 219 158 229 285 
105 4 255 238 167 35 
106 5 6 218 138 182 115 
107 7 234 208 266 152 273 155 16 
108 5 125 216 24 173 256 
109 5 196 129 114 223 7 
110 5 23 274 155 177 53 
111 7 181 288 27 5 121 39 198 
112 6 36 32 194 267 56 69 
113 7 10 7 262 223 50 95 228 
114 5 196 223 113 7 10 
115 7 106 135 6 218 169 182 138 
116 4 76 186 236 22 
117 7 258 16 34 20 219 204 152 
118 7 9 161 290 101 19 32 63 
119 4 124 65 84 15 
120 7 282 66 290 54 19 11 179 
121 7 288 111 198 45 175 100 235 
122 5 272 4 249 83 190 
123 6 156 127 41 263 61 17 
124 3 65 88 15 
125 5 216 108 24 256 173 
126 6 246 264 57 30 275 84 
127 7 41 156 123 61 17 242 82 
128 7 46 133 72 136 190 40 8 
129 7 196 223 205 109 7 95 257 
130 6 58 244 98 2 91 239 
131 5 166 142 14 74 102 
132 5 231 194 210 62 13 
133 7 136 128 40 262 72 46 8 
134 6 241 102 14 166 193 93 
135 7 115 169 193 106 218 6 93 
136 7 133 40 128 72 262 46 8 
137 7 253 13 62 210 281 141 22 
138 4 6 106 218 182 
139 7 168 146 64 18 71 184 221 
140 5 199 197 3 160 49 
141 4 137 81 253 22 
142 7 74 83 131 68 249 166 4 
143 5 148 237 20 48 150 
144 5 259 218 6 106 138 
145 5 90 44 164 250 276 
146 7 64 139 168 184 71 18 221 
147 5 245 70 215 28 183 
148 7 143 20 48 150 258 237 34 
149 6 192 279 202 277 191 42 
150 3 48 20 258 
151 6 256 175 198 5 24 73 
152 7 107 204 266 16 158 234 208 
153 3 268 225 31 
154 2 33 54 
155 7 110 23 208 107 234 152 274 
156 7 41 127 61 123 17 263 289 
157 5 85 225 27 181 39 
158 5 104 204 203 229 23 
159 5 89 261 240 173 35 
160 6 49 206 3 197 254 140 
161 7 101 19 32 9 290 118 280 
162 3 78 99 42 
163 5 97 35 240 89 59 
164 6 250 44 145 21 53 90 
165 5 275 52 57 126 30 
166 6 131 14 102 142 241 93 
167 6 26 283 105 30 255 57 
168 6 139 146 64 18 71 189 
169 5 93 193 182 115 14 
170 7 37 239 244 55 270 91 224 
171 6 206 49 183 28 160 215 
172 5 232 123 127 156 41 
173 6 261 73 24 108 125 216 
174 5 38 187 29 185 217 
175 6 198 151 256 5 121 111 
176 6 96 207 200 80 31 211 
177 5 203 75 274 92 28 
178 3 79 235 45 
179 6 280 19 101 94 11 161 
180 7 77 103 118 9 54 290 161 
181 7 111 27 5 157 288 39 85 
182 1 6 
183 7 215 28 70 171 75 245 147 
184 5 71 221 201 64 18 
185 6 29 38 174 191 269 187 
186 5 236 51 76 22 116 
187 3 174 38 29 
188 4 216 5 85 125 
189 6 18 201 221 71 270 139 
190 7 46 8 128 228 122 278 72 
191 5 185 279 192 29 174 
192 6 149 279 202 277 191 42 
193 7 93 241 102 169 134 14 166 
194 5 56 69 132 36 94 
195 6 59 35 163 238 251 97 
196 7 114 223 109 129 7 113 10 
197 7 3 160 285 140 265 60 49 
198 7 175 151 5 256 121 111 181 
199 4 140 197 269 3 
200 7 207 176 80 211 31 96 279 
201 6 221 71 18 184 189 91 
202 6 277 192 149 99 42 78 
203 5 75 177 92 28 229 
204 7 104 219 152 158 12 117 258 
205 6 95 257 7 212 223 136 
206 6 49 160 3 171 254 197 
207 7 200 176 96 211 80 31 66 
208 7 234 107 155 266 152 273 23 
209 5 248 45 79 235 240 
210 7 13 62 231 253 281 137 132 
211 7 11 207 66 200 149 176 279 
212 2 257 40 
213 6 260 233 87 252 67 2 
214 6 228 50 8 278 190 262 
215 7 28 183 70 75 171 245 147 
216 5 125 108 24 256 173 
217 7 60 265 285 269 29 38 197 
218 6 106 6 138 115 259 182 
219 7 204 104 258 117 12 152 16 
220 4 55 224 170 37 
221 6 71 201 18 184 189 91 
222 4 33 154 109 54 
223 7 7 113 196 10 95 114 205 
224 7 55 67 87 37 239 170 220 
225 4 157 85 153 27 
226 3 72 271 4 
227 4 88 15 65 124 
228 7 8 214 50 190 278 46 262 
229 5 254 92 3 203 285 
230 5 263 289 156 224 41 
231 7 210 13 62 132 281 253 51 
232 7 172 82 127 63 123 242 41 
233 7 2 252 260 286 98 213 87 
234 7 107 208 266 273 152 155 16 
235 6 45 79 121 248 178 209 
236 6 51 186 245 281 22 76 
237 3 143 148 34 
238 4 255 105 35 195 
239 7 37 170 244 55 91 130 224 
240 5 89 97 163 35 159 
241 6 134 102 14 166 193 93 
242 7 82 61 17 63 267 41 127 
243 3 43 50 214 
244 6 91 130 239 37 58 170 
245 6 70 147 183 215 28 51 
246 6 264 30 57 126 283 84 
247 5 73 248 151 256 24 
248 6 247 45 209 175 235 151 
249 6 83 4 272 74 122 68 
250 6 164 44 21 53 145 90 
251 3 43 195 59 
252 5 286 233 260 213 2 
253 7 13 62 137 210 281 231 51 
254 6 229 92 3 160 49 206 
255 5 238 105 35 159 167 
256 7 151 24 175 73 198 125 216 
257 5 212 205 95 40 136 
258 7 20 117 219 48 150 16 34 
259 5 218 6 106 138 115 
260 7 213 233 2 87 252 67 98 
261 6 173 73 24 108 125 159 
262 7 8 133 228 50 10 136 128 
263 7 230 156 289 41 123 17 61 
264 6 246 30 57 126 84 119 
265 7 60 285 217 197 12 3 269 
266 7 273 107 234 16 152 208 34 
267 6 242 17 61 63 82 41 
268 3 153 80 31 
269 6 60 217 140 199 29 265 
270 5 91 170 244 239 37 
271 4 68 226 4 74 
272 5 122 249 4 83 74 
273 7 266 16 107 34 234 152 86 
274 4 23 177 110 203 
275 5 165 57 52 30 126 
276 6 284 189 168 139 18 90 
277 6 202 99 192 149 42 78 
278 4 214 228 272 8 
279 7 192 149 191 202 277 185 42 
280 6 179 19 101 94 56 69 
281 7 13 210 253 51 231 62 236 
282 7 120 66 11 211 290 54 19 
283 5 167 26 30 57 246 
284 6 276 189 168 139 18 146 
285 7 265 60 197 217 12 3 229 
286 4 252 233 260 2 
287 5 47 84 15 119 65 
288 7 121 111 100 181 27 39 198 
289 6 263 17 61 41 230 156 
290 7 120 19 161 118 282 54 101 
DEPOT_SECTION
   1
   -1
EOF
