NAME :  X-n491-kX-w49-c7.cctp
COMMENT : 	Adapted by Maziero, Usberti and Cavellucci from the Uchoa, Pecin, Pessoa, Poggi, Subramanian, and Vidal (2013)
TYPE :  CCTP
DIMENSION :    251
EDGE_WEIGHT_TYPE : 	EUC_2D	
CAPACITY : 	428
VERTICES_WITHIN_COVERAGE :  7
VERTICES_WITH_DEMAND : 	49
NODE_COORD_SECTION
1 894 510
2 463 887
3 704 177
4 424 368
5 420 800
6 492 610
7 607 749
8 363 85
9 160 398
10 733 274
11 952 199
12 56 370
13 714 12
14 569 230
15 187 681
16 550 581
17 506 863
18 838 469
19 842 107
20 595 966
21 292 185
22 327 121
23 21 664
24 145 164
25 654 735
26 281 959
27 910 295
28 857 705
29 501 276
30 896 894
31 269 217
32 590 509
33 575 96
34 819 481
35 941 408
36 908 388
37 941 492
38 652 413
39 341 111
40 577 544
41 493 279
42 452 25
43 969 339
44 64 67
45 456 289
46 227 792
47 898 365
48 45 442
49 881 867
50 437 830
51 280 233
52 146 375
53 498 393
54 188 631
55 461 690
56 211 863
57 595 831
58 448 785
59 206 832
60 726 420
61 84 332
62 692 490
63 896 968
64 513 831
65 787 934
66 515 893
67 829 499
68 993 184
69 327 945
70 714 159
71 810 86
72 10 665
73 547 218
74 907 733
75 12 587
76 564 716
77 446 381
78 136 379
79 565 957
80 872 42
81 434 954
82 562 426
83 203 448
84 985 248
85 839 112
86 597 917
87 573 948
88 229 856
89 645 338
90 106 449
91 680 917
92 194 86
93 176 795
94 714 316
95 368 822
96 72 175
97 239 112
98 736 825
99 621 236
100 811 510
101 146 385
102 195 332
103 446 715
104 514 988
105 891 404
106 632 329
107 558 893
108 567 695
109 297 220
110 191 246
111 620 569
112 447 829
113 887 849
114 249 874
115 561 309
116 412 755
117 700 344
118 556 499
119 212 653
120 257 805
121 268 199
122 837 819
123 625 636
124 250 650
125 165 167
126 450 924
127 148 707
128 866 77
129 335 318
130 389 801
131 104 468
132 764 323
133 631 938
134 762 744
135 376 930
136 569 883
137 152 396
138 481 356
139 598 964
140 232 267
141 714 334
142 701 695
143 497 271
144 265 137
145 432 580
146 699 51
147 316 369
148 836 775
149 650 638
150 768 280
151 473 396
152 344 230
153 712 37
154 184 58
155 149 342
156 292 48
157 402 160
158 287 35
159 674 817
160 187 972
161 802 453
162 5 16
163 421 581
164 720 439
165 278 830
166 459 907
167 603 751
168 512 804
169 642 674
170 449 0
171 631 543
172 299 63
173 440 40
174 833 46
175 487 372
176 59 660
177 958 201
178 392 55
179 795 674
180 904 278
181 932 486
182 469 41
183 916 259
184 665 33
185 581 564
186 846 339
187 49 668
188 103 407
189 700 164
190 425 254
191 936 548
192 954 503
193 392 27
194 446 20
195 368 126
196 692 278
197 940 181
198 815 137
199 855 406
200 558 105
201 32 642
202 927 542
203 951 209
204 221 667
205 144 710
206 970 224
207 643 508
208 665 197
209 684 243
210 719 138
211 555 90
212 819 130
213 572 220
214 564 209
215 828 691
216 929 534
217 886 325
218 558 230
219 53 665
220 994 370
221 891 360
222 471 261
223 680 222
224 807 474
225 421 10
226 903 428
227 744 268
228 845 444
229 902 674
230 950 493
231 539 216
232 553 256
233 424 39
234 594 76
235 0 651
236 0 706
237 557 264
238 374 22
239 467 24
240 793 528
241 197 718
242 0 609
243 968 307
244 472 47
245 840 480
246 798 105
247 924 360
248 54 462
249 585 61
250 917 287
251 919 199
DEMAND_SECTION
2 19
3 56
4 71
5 90
6 5
7 34
8 47
9 56
10 53
11 87
12 28
13 15
14 89
15 60
16 85
17 41
18 52
19 74
20 63
21 72
22 82
23 35
24 48
25 39
26 46
27 78
28 41
29 15
30 77
31 30
32 72
33 93
34 53
35 95
36 29
37 90
38 82
39 73
40 18
41 69
42 31
43 99
44 46
45 92
46 66
47 4
48 27
49 99
50 27
COVERAGE_SECTION
2 7 166 126 17 66 112 50 81 
3 6 189 70 210 208 223 209 
4 6 77 151 138 175 53 45 
5 6 130 58 50 112 116 95 
6 5 16 145 163 55 185 
7 7 167 25 76 108 57 169 159 
8 6 39 195 178 22 238 193 
9 7 137 101 52 78 155 188 83 
10 7 227 150 196 94 132 209 141 
11 6 177 203 197 206 251 68 
12 6 61 188 48 78 52 101 
13 3 153 146 184 
14 7 213 218 214 73 232 231 237 
15 6 204 119 241 127 54 205 
16 7 185 40 6 111 32 118 171 
17 7 66 64 2 168 107 166 136 
18 6 245 34 228 67 224 161 
19 6 85 212 71 128 198 246 
20 7 139 87 79 133 86 107 104 
21 7 121 109 31 51 144 152 22 
22 7 39 195 8 144 172 21 156 
23 7 72 201 235 187 219 176 236 
24 7 125 96 92 110 97 154 144 
25 7 7 167 142 169 159 76 108 
26 7 69 114 160 135 88 56 165 
27 5 250 180 183 217 243 
28 4 215 229 74 179 
29 6 143 41 222 45 232 237 
30 7 49 113 63 122 65 148 74 
31 7 121 51 109 21 140 152 144 
32 7 118 40 171 207 185 111 16 
33 3 200 211 234 
34 7 224 67 245 18 100 161 228 
35 7 36 226 105 247 47 220 221 
36 7 105 47 247 221 35 226 199 
37 6 230 181 192 216 202 191 
38 7 164 60 89 117 106 62 82 
39 6 22 195 8 172 178 157 
40 7 185 32 16 111 118 171 207 
41 6 29 143 222 45 232 237 
42 7 194 239 173 182 170 244 233 
43 7 243 220 247 27 35 250 47 
44 7 162 96 154 24 92 125 97 
45 7 222 41 143 29 190 138 4 
46 7 120 59 93 88 165 56 241 
47 7 221 36 247 105 217 186 199 
48 5 248 90 131 188 12 
49 7 113 30 122 63 148 65 74 
50 7 112 5 58 130 2 95 17 
51 6 31 109 121 21 140 152 
52 6 101 78 137 9 155 188 
53 6 175 151 138 77 82 4 
54 4 119 204 15 124 
55 4 103 116 6 58 
56 7 88 59 114 46 120 165 93 
57 7 136 107 159 167 64 7 86 
58 7 5 112 50 116 130 168 103 
59 7 56 88 46 93 120 114 165 
60 6 164 38 62 117 161 141 
61 6 12 155 78 52 188 101 
62 5 207 164 60 171 38 
63 7 30 49 65 113 122 148 98 
64 7 168 17 66 112 2 50 136 
65 7 91 63 49 30 98 122 113 
66 7 17 107 2 136 166 64 126 
67 5 34 100 245 18 224 
68 6 177 11 206 203 197 84 
69 7 26 135 114 81 126 165 95 
70 4 189 3 210 208 
71 7 246 19 85 212 174 198 128 
72 7 23 235 201 187 236 219 176 
73 5 231 218 214 14 213 
74 2 28 229 
75 5 242 201 235 23 72 
76 7 108 167 7 169 25 123 168 
77 6 4 151 175 138 53 45 
78 6 52 101 137 9 155 188 
79 7 87 20 139 86 104 107 133 
80 3 128 174 19 
81 7 126 166 135 2 104 66 69 
82 7 53 118 32 38 175 151 138 
83 6 9 137 101 52 78 90 
84 4 206 203 177 11 
85 6 19 212 198 71 246 128 
86 7 87 133 136 107 139 20 79 
87 7 79 20 139 86 107 133 136 
88 7 56 114 59 165 120 46 93 
89 7 106 117 141 94 38 196 115 
90 7 131 188 248 48 137 9 101 
91 7 133 86 139 20 159 65 98 
92 7 154 97 125 144 24 156 158 
93 3 59 46 56 
94 7 141 117 196 10 132 227 150 
95 5 130 5 50 112 116 
96 7 24 125 44 110 92 61 154 
97 7 144 92 154 172 156 22 21 
98 7 159 134 122 91 148 65 25 
99 4 14 213 208 223 
100 4 67 240 34 224 
101 6 52 78 137 9 155 188 
102 4 155 52 101 9 
103 4 55 116 58 5 
104 7 79 87 20 81 139 126 66 
105 7 36 226 199 47 221 35 247 
106 7 89 117 115 196 141 94 38 
107 7 136 66 86 87 17 79 57 
108 7 76 7 167 169 123 25 149 
109 6 51 31 21 121 152 140 
110 5 140 31 125 102 51 
111 7 171 185 40 207 32 123 16 
112 7 50 5 58 2 130 64 17 
113 7 49 30 122 148 74 63 65 
114 7 88 56 165 59 120 46 26 
115 7 237 232 29 41 106 143 14 
116 4 5 58 130 103 
117 7 141 94 89 196 132 106 10 
118 6 32 40 185 82 16 171 
119 6 204 54 15 124 241 127 
120 6 46 165 59 88 114 56 
121 7 31 21 51 109 144 140 152 
122 7 148 113 49 30 98 134 74 
123 7 149 169 111 108 185 16 171 
124 5 204 119 54 15 241 
125 7 24 110 92 97 96 144 121 
126 7 166 81 2 66 135 17 104 
127 3 205 15 241 
128 4 80 19 85 174 
129 4 147 152 51 4 
130 6 95 5 116 50 58 112 
131 4 90 248 188 48 
132 5 150 94 141 10 227 
133 7 86 139 20 91 87 79 136 
134 7 179 142 148 98 215 28 122 
135 7 69 81 126 166 2 26 95 
136 7 107 86 66 57 87 17 79 
137 7 9 101 52 78 188 155 90 
138 7 175 53 151 77 4 45 41 
139 7 20 87 79 133 86 107 136 
140 5 110 51 31 102 121 
141 6 117 94 132 196 10 89 
142 6 25 169 149 134 123 179 
143 6 29 41 222 45 232 237 
144 7 97 21 121 22 31 39 172 
145 2 163 6 
146 3 153 184 13 
147 2 129 4 
148 7 122 28 134 74 215 113 49 
149 6 123 169 111 142 25 171 
150 4 227 10 132 94 
151 6 53 175 77 138 4 82 
152 6 109 51 21 31 121 190 
153 3 146 13 184 
154 7 92 97 158 156 125 24 144 
155 6 52 78 101 102 137 9 
156 7 158 172 8 39 22 97 238 
157 3 195 39 8 
158 7 156 172 238 8 97 39 22 
159 7 98 57 25 7 167 91 134 
160 4 26 56 114 88 
161 7 224 34 18 228 245 67 100 
162 7 44 96 154 92 24 125 97 
163 2 145 6 
164 5 60 62 38 161 224 
165 6 120 114 88 46 59 56 
166 7 126 2 81 66 17 112 50 
167 7 7 76 25 108 57 169 159 
168 7 64 17 58 112 50 57 66 
169 7 149 123 25 142 108 7 167 
170 7 194 42 225 239 173 182 233 
171 6 111 207 32 40 185 62 
172 7 156 158 22 39 8 97 144 
173 5 233 42 194 182 239 
174 5 80 128 71 19 85 
175 6 138 53 151 77 4 45 
176 4 219 187 201 23 
177 6 11 203 206 197 68 251 
178 6 193 233 238 8 173 225 
179 3 215 28 134 
180 3 250 27 183 
181 5 37 230 192 216 202 
182 5 244 239 42 173 194 
183 3 180 250 27 
184 3 146 153 13 
185 7 40 16 111 171 32 118 123 
186 3 217 221 47 
187 5 219 176 23 201 72 
188 7 90 78 101 137 52 9 12 
189 5 3 70 210 208 223 
190 4 45 222 41 143 
191 4 202 216 192 37 
192 6 230 37 181 216 202 191 
193 7 238 178 225 233 173 194 42 
194 7 42 170 173 239 225 233 182 
195 5 39 8 22 157 178 
196 6 209 10 94 227 223 141 
197 4 11 177 251 203 
198 4 212 85 246 19 
199 7 105 228 226 36 221 47 18 
200 2 211 33 
201 7 23 187 219 72 176 235 242 
202 5 216 191 192 37 230 
203 5 11 177 206 197 251 
204 7 119 124 15 54 241 127 205 
205 3 127 15 241 
206 4 203 177 84 11 
207 6 171 62 32 111 40 185 
208 4 223 3 189 209 
209 6 223 196 208 10 99 227 
210 3 70 189 3 
211 2 200 33 
212 5 198 85 19 246 71 
213 6 14 214 218 73 231 232 
214 5 213 73 14 218 231 
215 3 28 179 229 
216 5 202 191 192 37 230 
217 6 221 27 47 186 250 180 
218 7 14 73 213 214 231 232 237 
219 4 187 176 201 23 
220 7 43 35 243 247 36 47 221 
221 7 47 36 247 217 105 186 199 
222 5 41 143 45 29 190 
223 5 209 208 3 196 99 
224 7 34 161 18 67 245 100 228 
225 7 194 233 170 42 193 173 239 
226 7 105 36 35 199 228 47 181 
227 5 10 150 196 94 132 
228 7 18 245 199 161 34 224 67 
229 2 28 74 
230 6 37 192 181 216 202 191 
231 5 73 218 214 14 213 
232 7 237 218 14 73 213 231 214 
233 6 173 194 225 42 193 178 
234 2 249 33 
235 7 72 23 201 242 187 219 236 
236 2 72 23 
237 7 232 218 14 115 213 73 231 
238 7 193 178 225 233 8 173 194 
239 6 42 182 194 244 170 173 
240 3 100 67 34 
241 5 15 127 205 204 119 
242 5 75 235 201 72 23 
243 5 43 250 27 84 220 
244 3 182 239 42 
245 5 18 34 67 224 228 
246 5 71 212 198 85 19 
247 7 47 36 221 43 35 217 105 
248 4 48 131 90 188 
249 2 234 33 
250 5 27 180 183 217 243 
251 2 197 11 
DEPOT_SECTION
   1
   -1
EOF
