NAME :  X-n480-kX-w191-c7.cctp
COMMENT : 	Adapted by Maziero, Usberti and Cavellucci from the Uchoa, Pecin, Pessoa, Poggi, Subramanian, and Vidal (2013)
TYPE :  CCTP
DIMENSION :    478
EDGE_WEIGHT_TYPE : 	EUC_2D	
CAPACITY : 	52
VERTICES_WITHIN_COVERAGE :  7
VERTICES_WITH_DEMAND : 	191
NODE_COORD_SECTION
1 628 103
2 291 573
3 129 447
4 973 643
5 830 868
6 398 563
7 731 423
8 201 995
9 167 174
10 31 358
11 480 619
12 323 555
13 205 208
14 187 767
15 775 445
16 745 369
17 188 965
18 44 585
19 405 706
20 185 315
21 505 636
22 482 543
23 830 860
24 344 498
25 762 379
26 761 399
27 869 844
28 114 420
29 890 491
30 440 802
31 929 676
32 524 456
33 361 434
34 377 478
35 191 496
36 646 352
37 795 962
38 483 492
39 174 597
40 208 464
41 693 461
42 56 114
43 877 898
44 483 596
45 757 915
46 833 803
47 676 597
48 818 695
49 494 648
50 5 167
51 197 146
52 170 313
53 354 624
54 603 437
55 773 462
56 386 610
57 75 183
58 442 485
59 269 543
60 770 869
61 342 542
62 103 508
63 799 441
64 935 918
65 790 696
66 857 459
67 319 541
68 195 131
69 328 617
70 297 697
71 337 529
72 337 620
73 152 735
74 302 491
75 229 909
76 508 567
77 940 591
78 490 571
79 262 962
80 818 425
81 357 82
82 743 377
83 927 322
84 335 633
85 725 477
86 839 403
87 333 557
88 421 589
89 515 601
90 791 669
91 935 639
92 314 623
93 238 198
94 1000 656
95 613 387
96 425 544
97 299 730
98 359 986
99 107 394
100 766 513
101 409 500
102 144 441
103 163 479
104 400 560
105 198 506
106 176 926
107 763 458
108 761 982
109 986 312
110 94 492
111 183 372
112 383 562
113 384 366
114 204 147
115 373 443
116 231 359
117 340 551
118 751 545
119 232 198
120 271 629
121 139 319
122 305 521
123 370 556
124 273 895
125 466 566
126 865 654
127 869 910
128 216 415
129 41 244
130 304 153
131 97 186
132 368 504
133 194 925
134 254 246
135 766 440
136 212 535
137 492 471
138 314 590
139 153 22
140 235 976
141 70 484
142 748 521
143 675 415
144 705 421
145 267 658
146 471 562
147 870 876
148 24 331
149 882 865
150 864 841
151 730 459
152 734 383
153 200 392
154 367 641
155 966 646
156 856 722
157 336 971
158 191 969
159 898 763
160 857 790
161 206 143
162 682 258
163 230 771
164 745 394
165 692 452
166 395 437
167 503 642
168 326 565
169 888 761
170 134 223
171 300 695
172 423 593
173 204 516
174 158 441
175 133 604
176 140 79
177 673 529
178 788 909
179 954 788
180 843 989
181 145 278
182 764 881
183 125 504
184 301 977
185 540 385
186 92 399
187 192 176
188 169 888
189 101 564
190 506 603
191 137 584
192 121 451
193 229 981
194 706 365
195 761 741
196 70 415
197 198 502
198 142 323
199 839 888
200 772 526
201 237 235
202 308 579
203 801 882
204 873 368
205 977 606
206 514 594
207 123 227
208 848 261
209 603 508
210 128 454
211 283 535
212 934 787
213 868 930
214 181 618
215 904 440
216 140 672
217 181 689
218 587 479
219 451 745
220 402 34
221 962 687
222 776 972
223 223 915
224 242 683
225 149 353
226 831 873
227 332 672
228 44 546
229 754 940
230 197 971
231 872 879
232 63 283
233 119 398
234 211 995
235 819 887
236 296 542
237 596 153
238 916 873
239 239 931
240 830 971
241 837 887
242 107 365
243 774 369
244 933 612
245 312 807
246 905 557
247 768 692
248 761 420
249 812 621
250 350 667
251 150 393
252 407 490
253 806 935
254 646 471
255 286 627
256 774 888
257 440 615
258 204 991
259 117 90
260 277 979
261 840 813
262 313 708
263 882 881
264 234 889
265 257 56
266 224 516
267 349 921
268 214 144
269 382 283
270 826 883
271 967 562
272 763 487
273 341 554
274 61 494
275 329 948
276 220 601
277 160 538
278 217 126
279 837 636
280 949 661
281 931 987
282 6 436
283 934 726
284 154 327
285 98 361
286 399 584
287 759 634
288 680 453
289 869 362
290 232 538
291 126 636
292 847 860
293 834 503
294 164 447
295 330 175
296 163 242
297 97 651
298 139 530
299 921 868
300 48 486
301 38 202
302 134 708
303 717 846
304 640 705
305 305 727
306 197 891
307 460 573
308 387 417
309 382 519
310 124 241
311 803 815
312 757 597
313 356 411
314 352 846
315 112 299
316 916 589
317 150 952
318 170 391
319 68 410
320 100 500
321 958 616
322 205 147
323 654 402
324 981 766
325 138 584
326 216 332
327 186 443
328 671 534
329 160 475
330 104 159
331 240 951
332 161 74
333 403 437
334 456 327
335 172 247
336 417 601
337 490 600
338 23 319
339 254 376
340 160 152
341 855 778
342 159 149
343 228 636
344 169 168
345 274 684
346 176 108
347 770 337
348 261 226
349 345 615
350 297 588
351 888 1000
352 989 575
353 736 422
354 292 17
355 893 829
356 221 975
357 139 252
358 372 588
359 854 612
360 814 849
361 431 513
362 292 780
363 817 382
364 209 252
365 369 460
366 4 252
367 114 48
368 364 113
369 932 709
370 468 470
371 851 660
372 774 798
373 526 611
374 202 136
375 993 516
376 228 142
377 370 528
378 327 636
379 134 190
380 988 634
381 310 663
382 960 699
383 989 609
384 332 575
385 114 199
386 22 461
387 986 630
388 233 947
389 198 981
390 599 858
391 47 518
392 616 451
393 153 358
394 284 599
395 440 645
396 825 894
397 229 186
398 142 637
399 77 417
400 368 714
401 234 547
402 224 194
403 228 763
404 839 860
405 170 453
406 141 55
407 395 569
408 124 795
409 784 319
410 367 655
411 241 949
412 265 609
413 309 109
414 579 588
415 968 971
416 374 588
417 953 903
418 268 995
419 101 427
420 434 539
421 874 663
422 340 555
423 265 215
424 169 312
425 845 973
426 240 670
427 758 336
428 287 585
429 258 525
430 794 253
431 726 382
432 487 551
433 592 837
434 279 547
435 820 692
436 926 852
437 991 659
438 478 410
439 443 568
440 625 630
441 128 364
442 577 761
443 379 548
444 999 672
445 863 505
446 178 937
447 364 490
448 160 197
449 186 335
450 757 408
451 240 154
452 497 647
453 322 484
454 768 833
455 392 601
456 355 536
457 414 573
458 349 615
459 367 682
460 358 552
461 78 516
462 743 601
463 766 516
464 835 509
465 823 812
466 141 474
467 446 325
468 415 483
469 303 134
470 311 526
471 791 365
472 951 686
473 298 520
474 140 179
475 848 729
476 315 451
477 160 413
478 341 997
DEMAND_SECTION
2 6
3 7
4 9
5 7
6 10
7 10
8 7
9 6
10 6
11 8
12 6
13 5
14 10
15 8
16 9
17 9
18 10
19 6
20 9
21 10
22 9
23 6
24 10
25 7
26 9
27 5
28 8
29 6
30 8
31 6
32 9
33 6
34 9
35 7
36 8
37 9
38 10
39 5
40 10
41 10
42 5
43 7
44 8
45 8
46 7
47 7
48 5
49 8
50 8
51 9
52 7
53 9
54 7
55 8
56 9
57 6
58 6
59 10
60 8
61 7
62 8
63 9
64 10
65 5
66 10
67 6
68 8
69 10
70 8
71 9
72 9
73 6
74 8
75 5
76 9
77 5
78 9
79 6
80 5
81 5
82 9
83 8
84 8
85 6
86 10
87 10
88 8
89 10
90 10
91 9
92 5
93 8
94 7
95 10
96 6
97 5
98 6
99 8
100 7
101 6
102 5
103 5
104 5
105 6
106 9
107 9
108 8
109 10
110 7
111 9
112 7
113 5
114 9
115 9
116 6
117 8
118 5
119 5
120 8
121 10
122 7
123 7
124 6
125 7
126 10
127 9
128 5
129 10
130 6
131 9
132 7
133 10
134 7
135 5
136 7
137 9
138 10
139 6
140 10
141 7
142 6
143 8
144 8
145 6
146 8
147 5
148 7
149 10
150 7
151 7
152 6
153 7
154 6
155 5
156 5
157 10
158 6
159 6
160 9
161 7
162 10
163 9
164 5
165 7
166 10
167 10
168 5
169 6
170 9
171 9
172 9
173 10
174 9
175 10
176 9
177 6
178 8
179 9
180 9
181 8
182 10
183 7
184 10
185 9
186 6
187 8
188 5
189 8
190 9
191 8
192 9
COVERAGE_SECTION
2 7 428 350 202 394 138 434 236 
3 7 210 192 102 174 466 28 419 
4 7 155 380 387 437 94 280 321 
5 7 226 23 404 270 292 241 199 
6 7 104 407 112 457 286 443 123 
7 7 353 144 248 450 164 151 26 
8 7 258 234 389 230 158 356 193 
9 7 344 340 448 187 342 474 379 
10 7 148 338 319 285 196 186 399 
11 7 337 44 21 190 49 167 452 
12 7 87 168 67 117 422 273 384 
13 7 402 119 397 93 187 201 364 
14 7 403 163 73 408 217 302 224 
15 7 135 55 107 63 248 450 272 
16 7 82 152 25 431 164 243 26 
17 7 158 230 389 446 258 8 356 
18 7 228 189 391 461 297 175 191 
19 7 400 459 219 410 250 395 154 
20 7 52 424 449 284 326 198 121 
21 7 167 452 49 11 190 373 89 
22 7 432 146 125 78 76 307 439 
23 7 5 404 226 292 360 270 241 
24 7 447 132 453 71 34 377 456 
25 7 243 82 16 26 164 152 450 
26 7 450 164 25 248 82 152 243 
27 7 150 149 292 355 147 404 231 
28 7 419 233 99 186 3 192 102 
29 7 445 66 215 293 464 246 80 
30 7 219 314 19 400 245 459 442 
31 7 472 280 369 221 91 382 155 
32 7 137 38 370 438 218 185 54 
33 7 115 313 365 308 166 333 34 
34 7 447 365 132 252 115 468 24 
35 7 197 105 173 103 40 329 266 
36 7 95 323 194 143 431 144 152 
37 7 222 253 240 108 229 425 178 
38 7 137 370 58 22 32 361 432 
39 7 214 325 191 175 276 398 277 
40 7 327 35 197 405 105 103 294 
41 7 165 288 85 151 144 254 143 
42 7 259 330 57 50 131 367 301 
43 7 127 263 231 147 149 213 199 
44 7 337 11 190 78 206 89 307 
45 7 229 178 256 182 60 253 203 
46 7 261 465 160 311 341 150 360 
47 7 440 328 462 177 312 118 287 
48 7 435 65 90 475 156 371 247 
49 7 452 167 21 11 190 337 373 
50 7 301 57 42 129 366 131 330 
51 7 114 322 161 374 68 268 278 
52 7 424 20 284 449 198 121 181 
53 7 458 349 72 84 154 69 378 
54 7 392 218 95 254 323 209 143 
55 7 107 15 135 272 63 151 248 
56 7 455 416 358 286 336 53 154 
57 7 131 330 301 385 379 207 474 
58 7 468 361 370 252 101 38 137 
59 7 434 211 429 236 401 2 290 
60 7 182 256 203 454 178 45 360 
61 7 117 273 422 71 456 87 460 
62 7 320 110 183 461 141 298 274 
63 7 15 80 55 135 107 248 450 
64 7 417 238 299 43 415 263 127 
65 7 247 90 48 435 195 475 287 
66 7 29 445 293 215 80 464 86 
67 7 12 470 87 71 61 117 236 
68 7 374 51 161 114 322 268 278 
69 7 72 92 84 349 378 458 53 
70 7 171 262 345 305 97 381 227 
71 7 61 456 67 117 273 422 470 
72 7 69 349 84 458 53 378 92 
73 7 302 14 217 216 408 403 163 
74 7 453 473 122 470 476 24 211 
75 7 223 264 239 306 133 388 411 
76 7 78 432 206 22 89 190 146 
77 7 244 316 321 205 271 91 246 
78 7 76 432 146 125 44 22 337 
79 7 260 331 411 140 388 418 193 
80 7 63 86 363 15 66 135 248 
81 7 368 413 220 469 130 354 295 
82 7 16 152 164 431 25 26 243 
83 7 109 289 204 208 86 215 363 
84 7 378 72 69 53 349 92 458 
85 7 151 41 272 165 107 55 142 
86 7 80 363 204 289 63 66 471 
87 7 422 117 273 12 168 61 384 
88 7 172 336 457 286 439 455 257 
89 7 206 190 373 337 44 76 21 
90 7 65 247 48 435 287 249 279 
91 7 280 244 155 321 31 4 77 
92 7 69 378 72 84 255 349 138 
93 7 119 397 402 423 13 348 201 
94 7 437 444 380 4 387 155 383 
95 7 323 36 54 392 143 185 254 
96 7 420 104 439 457 361 6 407 
97 7 305 262 70 171 362 345 227 
98 7 478 157 275 184 267 260 418 
99 7 233 186 28 242 285 419 441 
100 7 463 200 142 272 118 55 85 
101 7 252 468 361 309 58 34 132 
102 7 174 3 210 294 192 405 477 
103 7 329 466 405 294 35 174 102 
104 7 6 407 112 457 286 443 96 
105 7 197 35 173 266 136 40 103 
106 7 446 133 317 188 17 306 158 
107 7 55 15 135 272 151 248 63 
108 7 222 37 229 253 45 240 178 
109 7 83 204 289 208 215 86 363 
110 7 320 62 141 461 183 274 300 
111 7 318 153 393 449 225 251 477 
112 7 123 407 6 443 104 286 460 
113 7 308 313 33 166 333 467 115 
114 7 322 161 51 268 374 68 278 
115 7 33 365 166 308 333 34 313 
116 7 339 326 153 111 449 128 20 
117 7 273 422 61 87 12 460 168 
118 7 142 200 463 100 312 462 272 
119 7 93 402 397 13 201 423 348 
120 7 255 412 145 394 92 343 428 
121 7 198 284 424 52 315 225 181 
122 7 473 470 236 67 211 74 71 
123 7 443 460 112 456 377 407 6 
124 7 264 75 239 223 411 331 388 
125 7 146 307 439 78 432 22 44 
126 7 421 371 279 359 435 48 249 
127 7 43 213 231 263 147 199 241 
128 7 153 327 40 318 111 339 477 
129 7 366 301 232 57 338 131 310 
130 7 469 295 413 451 368 423 376 
131 7 385 57 330 379 474 207 170 
132 7 447 309 377 24 34 456 71 
133 7 106 446 223 306 75 17 158 
134 7 201 348 423 364 93 119 402 
135 7 15 107 248 55 63 450 353 
136 7 290 173 266 401 105 197 35 
137 7 38 370 32 58 438 22 361 
138 7 202 350 384 428 168 2 69 
139 7 406 367 332 176 259 346 265 
140 7 193 356 331 411 388 79 234 
141 7 274 300 110 461 320 62 391 
142 7 463 100 118 200 272 85 55 
143 7 323 144 288 165 41 7 194 
144 7 7 143 353 165 288 41 431 
145 7 345 120 426 224 255 381 343 
146 7 125 307 432 78 22 439 44 
147 7 231 263 149 43 292 27 199 
148 7 338 10 232 285 366 129 242 
149 7 147 263 231 27 150 43 238 
150 7 27 292 149 355 404 147 261 
151 7 85 107 7 41 353 165 135 
152 7 431 82 164 16 25 26 194 
153 7 111 128 318 116 477 251 327 
154 7 410 53 250 458 84 349 56 
155 7 4 280 380 387 437 321 91 
156 7 475 48 435 169 341 159 371 
157 7 275 478 98 184 267 260 418 
158 7 17 230 389 258 8 356 234 
159 7 169 212 341 160 283 156 475 
160 7 341 46 261 465 169 159 150 
161 7 114 322 268 374 51 68 278 
162 6 36 427 194 430 347 409 
163 7 403 14 362 97 73 305 224 
164 7 152 26 82 450 431 25 16 
165 7 41 288 144 151 85 143 7 
166 7 333 308 115 33 365 34 313 
167 7 21 452 49 11 190 373 89 
168 7 12 87 384 422 273 117 202 
169 7 159 341 160 156 475 212 283 
170 7 207 310 357 385 379 296 448 
171 7 70 262 345 305 381 97 227 
172 7 88 336 457 286 257 439 455 
173 7 105 197 266 136 35 290 401 
174 7 294 102 405 327 477 3 210 
175 7 191 325 291 398 39 214 189 
176 7 332 406 259 367 346 139 342 
177 7 328 254 47 41 209 85 142 
178 7 256 203 45 253 182 235 396 
179 7 212 324 159 283 436 169 355 
180 7 425 240 351 37 213 253 222 
181 7 357 315 296 121 335 424 52 
182 7 256 60 45 178 203 454 235 
183 7 62 320 298 110 466 103 329 
184 7 260 157 418 275 79 478 98 
185 7 438 32 95 54 137 392 334 
186 7 99 399 319 196 233 419 28 
187 7 344 9 51 114 322 13 161 
188 7 306 106 133 446 223 75 264 
189 7 191 325 175 298 461 62 228 
190 7 89 206 337 373 44 11 21 
191 7 325 175 39 189 277 291 398 
192 7 210 3 102 466 419 28 174 
193 7 140 356 234 258 8 389 331 
194 7 431 152 16 82 164 144 25 
195 7 247 65 372 48 435 90 311 
196 7 319 399 186 419 99 28 233 
197 7 105 35 173 266 136 40 103 
198 7 121 284 424 52 225 393 315 
199 7 241 270 396 226 235 5 404 
200 7 463 100 142 118 272 55 464 
201 7 134 348 364 423 93 119 13 
202 7 138 350 2 428 168 384 12 
203 7 235 270 396 256 178 226 5 
204 7 289 86 363 83 215 80 471 
205 7 383 321 387 380 352 4 77 
206 7 89 190 373 337 76 44 78 
207 7 170 310 385 357 379 296 448 
208 5 430 409 83 289 347 
209 7 218 254 392 54 177 328 414 
210 7 3 192 102 466 174 28 294 
211 7 434 236 59 473 122 429 470 
212 7 179 159 324 169 355 283 436 
213 7 127 43 425 199 231 263 241 
214 7 39 276 398 175 343 325 191 
215 7 66 29 86 445 204 289 80 
216 7 398 302 291 217 297 73 175 
217 7 216 302 73 224 426 398 214 
218 7 209 392 54 254 32 137 95 
219 7 30 19 400 395 459 49 452 
220 7 81 368 354 413 469 265 130 
221 7 472 382 280 31 369 437 444 
222 7 108 37 229 253 240 45 178 
223 7 75 239 264 133 388 306 411 
224 7 426 345 145 343 70 171 120 
225 7 393 441 284 198 121 111 251 
226 7 5 270 23 241 404 199 235 
227 7 250 381 378 459 84 171 410 
228 7 391 18 461 274 189 300 141 
229 7 45 222 108 178 37 253 256 
230 7 158 389 17 258 8 356 234 
231 7 147 263 149 43 127 292 199 
232 7 129 315 338 148 366 310 10 
233 7 99 28 186 251 419 242 441 
234 7 258 8 389 356 193 230 140 
235 7 270 396 226 241 203 199 5 
236 7 211 434 470 473 67 122 59 
237 6 162 36 430 334 220 467 
238 7 299 436 149 263 231 43 147 
239 7 388 411 331 223 75 79 264 
240 7 425 180 37 253 222 213 351 
241 7 199 270 396 226 235 5 404 
242 7 285 441 99 233 186 225 393 
243 7 25 471 16 82 347 26 427 
244 7 77 321 91 316 205 155 4 
245 7 362 314 97 305 163 403 124 
246 7 316 77 244 271 445 29 359 
247 7 65 90 195 48 435 287 249 
248 7 450 26 135 353 15 7 164 
249 7 279 359 90 287 371 312 126 
250 7 227 410 459 154 84 378 381 
251 7 318 477 233 393 441 111 225 
252 7 101 468 34 361 58 309 132 
253 7 37 178 240 396 222 235 229 
254 7 392 288 41 165 54 209 218 
255 7 120 92 394 412 145 350 378 
256 7 182 60 178 203 45 235 396 
257 7 336 172 395 88 11 44 307 
258 7 8 234 389 230 356 158 193 
259 7 176 367 406 332 346 42 330 
260 7 418 79 184 140 331 411 193 
261 7 46 465 160 150 311 341 27 
262 7 171 70 305 97 227 381 345 
263 7 231 147 149 43 127 238 27 
264 7 75 223 306 124 239 133 388 
265 7 354 413 278 376 469 346 68 
266 7 173 136 290 105 197 401 429 
267 7 275 157 98 184 314 478 124 
268 7 161 322 114 374 376 51 278 
269 7 467 113 334 295 313 134 308 
270 7 235 226 396 241 199 5 23 
271 7 352 77 205 383 375 321 316 
272 7 100 55 107 463 142 85 200 
273 7 422 117 87 61 460 12 168 
274 7 141 300 391 461 110 320 62 
275 7 157 267 184 98 478 260 79 
276 7 343 214 39 412 401 120 290 
277 7 298 173 183 105 191 325 35 
278 7 268 374 376 161 68 322 114 
279 7 371 249 359 126 421 90 435 
280 7 155 31 472 91 221 4 382 
281 7 415 351 64 213 417 425 180 
282 7 386 300 196 319 399 141 274 
283 7 369 382 472 221 31 159 169 
284 7 198 121 52 424 225 393 20 
285 7 242 441 99 186 233 225 393 
286 7 407 455 457 6 88 104 336 
287 7 312 462 90 249 247 65 279 
288 7 165 41 143 254 144 151 85 
289 7 204 86 363 83 471 80 215 
290 7 401 136 266 429 173 59 105 
291 7 398 175 297 216 191 325 214 
292 7 404 23 5 226 150 27 147 
293 7 464 445 66 29 200 100 463 
294 7 174 405 102 327 329 103 477 
295 7 130 469 413 368 423 348 451 
296 7 335 357 170 310 181 207 448 
297 7 291 398 216 175 302 191 325 
298 7 277 183 62 320 189 191 325 
299 7 238 436 149 263 417 355 231 
300 7 274 141 391 386 461 110 320 
301 7 57 129 50 366 131 385 330 
302 7 73 216 217 297 398 291 14 
303 7 454 60 182 256 372 45 203 
304 7 440 442 47 195 247 414 287 
305 7 97 262 70 171 345 362 227 
306 7 188 133 223 75 264 106 446 
307 7 125 146 439 78 44 432 22 
308 7 166 333 115 33 313 365 113 
309 7 377 132 443 456 101 447 252 
310 7 207 357 170 296 181 385 335 
311 7 465 46 372 360 261 454 23 
312 7 462 287 118 249 200 142 90 
313 7 33 308 115 166 365 113 333 
314 7 245 267 362 124 30 275 157 
315 7 121 198 181 284 232 357 424 
316 7 77 244 246 321 91 271 205 
317 7 446 106 17 158 230 133 389 
318 7 251 111 477 153 393 225 441 
319 7 196 399 186 419 99 28 233 
320 7 62 110 183 461 141 274 298 
321 7 205 244 4 77 155 387 383 
322 7 114 161 51 268 374 68 278 
323 7 143 95 36 144 288 54 392 
324 7 179 212 283 382 369 221 159 
325 7 191 175 39 189 277 291 398 
326 7 449 116 20 52 424 111 339 
327 7 405 294 174 40 477 128 329 
328 7 177 47 254 209 41 142 85 
329 7 103 466 405 294 174 35 102 
330 7 131 57 385 474 379 340 342 
331 7 411 388 239 79 140 356 193 
332 7 176 406 346 259 139 367 68 
333 7 166 308 115 365 33 468 34 
334 7 467 113 269 438 185 308 333 
335 7 296 357 364 181 170 310 13 
336 7 172 88 286 455 257 457 56 
337 7 44 190 11 89 206 78 76 
338 7 148 10 232 366 129 285 315 
339 7 116 128 153 326 111 449 318 
340 7 342 344 9 474 51 187 68 
341 7 160 46 169 261 159 465 475 
342 7 340 344 9 474 51 68 187 
343 7 276 426 120 145 412 224 214 
344 7 9 340 342 187 448 474 51 
345 7 70 145 171 224 426 381 262 
346 7 68 332 374 51 342 278 161 
347 7 427 409 243 471 16 25 82 
348 7 423 134 201 93 119 402 397 
349 7 458 72 53 69 84 378 92 
350 7 428 202 2 138 394 168 384 
351 7 281 180 425 240 213 415 127 
352 7 271 205 383 321 77 387 375 
353 7 7 248 450 164 144 26 135 
354 7 265 81 413 220 469 368 278 
355 7 27 150 149 436 299 238 147 
356 7 193 140 234 258 230 389 8 
357 7 310 296 181 170 207 335 315 
358 7 416 455 56 286 112 407 123 
359 7 279 126 249 371 421 316 246 
360 7 23 5 404 226 203 292 270 
361 7 101 420 58 96 252 468 309 
362 7 245 97 305 163 403 262 70 
363 7 86 471 80 243 25 289 204 
364 7 201 335 13 134 296 348 119 
365 7 115 34 33 447 166 333 132 
366 7 129 301 232 338 148 50 57 
367 7 406 176 259 139 332 346 42 
368 7 81 413 469 295 130 220 354 
369 7 283 382 472 31 221 280 159 
370 7 137 38 58 468 361 32 438 
371 7 126 421 279 435 48 359 249 
372 7 311 454 465 195 46 360 261 
373 7 89 206 190 21 337 167 44 
374 7 161 68 51 114 322 268 278 
375 7 271 352 205 77 383 246 29 
376 7 268 451 278 161 322 114 374 
377 7 309 456 443 132 460 123 61 
378 7 84 92 69 72 349 53 458 
379 7 474 385 448 170 9 131 207 
380 7 387 4 94 155 383 437 205 
381 7 227 378 171 70 84 92 250 
382 7 221 472 369 283 31 280 444 
383 7 205 387 380 321 352 4 155 
384 7 168 87 12 422 138 273 202 
385 7 131 379 207 170 474 330 57 
386 7 282 300 274 141 391 196 319 
387 7 380 4 383 155 205 437 94 
388 7 331 411 239 140 356 79 193 
389 7 230 258 8 158 17 234 356 
390 7 433 442 303 304 182 45 30 
391 7 228 274 461 300 141 110 320 
392 7 54 254 218 209 323 95 288 
393 7 225 441 284 111 251 198 318 
394 7 428 350 412 2 255 138 202 
395 7 257 11 336 49 172 452 88 
396 7 235 270 241 199 226 5 203 
397 7 402 119 93 13 451 187 376 
398 7 291 175 216 214 297 39 191 
399 7 196 319 186 419 28 99 233 
400 7 459 19 250 227 262 410 305 
401 7 290 136 266 429 59 173 434 
402 7 119 397 93 13 187 201 451 
403 7 163 14 362 97 73 224 305 
404 7 292 23 5 226 270 241 360 
405 7 294 174 327 329 103 102 466 
406 7 176 332 367 139 259 346 68 
407 7 6 104 112 286 457 443 123 
408 7 73 14 302 188 163 403 217 
409 5 347 427 471 243 16 
410 7 154 250 459 53 84 227 378 
411 7 331 388 239 79 140 356 193 
412 7 120 394 255 428 350 2 276 
413 7 469 130 81 368 295 265 451 
414 7 373 440 89 206 76 190 209 
415 7 281 64 417 351 213 238 299 
416 7 358 455 56 286 112 407 123 
417 7 64 299 238 436 415 263 43 
418 7 260 79 140 184 193 356 331 
419 7 28 399 186 192 196 3 99 
420 7 96 361 439 457 104 125 6 
421 7 126 371 279 359 31 435 156 
422 7 273 117 87 61 12 168 460 
423 7 348 93 134 201 119 397 402 
424 7 52 20 284 198 449 121 181 
425 7 240 180 213 37 351 253 127 
426 7 224 145 343 345 120 217 70 
427 7 347 409 16 243 25 82 471 
428 7 350 2 394 202 138 412 434 
429 7 59 211 290 434 401 266 473 
430 5 208 409 347 427 162 
431 7 152 82 164 16 194 25 26 
432 7 22 146 78 76 125 307 44 
433 7 390 442 303 304 30 219 454 
434 7 59 211 236 2 429 473 122 
435 7 48 65 90 371 475 156 247 
436 7 299 238 355 149 263 27 417 
437 7 94 444 4 380 155 387 221 
438 7 370 137 32 185 333 38 58 
439 7 307 125 146 457 88 96 420 
440 7 47 414 304 373 328 177 89 
441 7 242 225 393 285 233 251 99 
442 7 433 304 390 219 452 49 167 
443 7 123 112 460 377 6 104 407 
444 7 437 94 4 221 380 155 387 
445 7 464 293 29 66 246 215 63 
446 7 106 133 17 317 158 230 389 
447 7 132 34 24 365 309 377 453 
448 7 9 379 474 344 170 187 296 
449 7 20 52 424 326 284 111 393 
450 7 26 248 164 353 25 7 135 
451 7 376 268 397 161 278 322 114 
452 7 49 167 21 11 190 373 337 
453 7 74 24 476 122 447 470 473 
454 7 60 372 311 182 360 303 256 
455 7 56 286 416 358 336 88 172 
456 7 61 460 377 71 117 273 422 
457 7 88 6 104 286 407 172 336 
458 7 349 53 72 69 84 378 154 
459 7 250 410 400 227 154 19 53 
460 7 123 456 273 117 422 61 443 
461 7 62 320 274 110 391 141 300 
462 7 312 287 118 47 249 142 200 
463 7 100 200 142 272 118 55 85 
464 7 293 445 66 29 200 100 463 
465 7 46 261 311 360 160 341 23 
466 7 329 103 210 3 192 102 183 
467 7 334 113 269 438 308 185 333 
468 7 252 101 58 361 34 333 309 
469 7 130 413 295 368 451 81 376 
470 7 122 473 67 236 71 211 12 
471 7 243 363 25 347 427 26 16 
472 7 221 382 31 280 369 155 283 
473 7 122 470 211 236 74 67 434 
474 7 379 9 448 344 385 340 342 
475 7 156 48 435 341 169 159 160 
476 7 453 74 33 24 365 313 115 
477 7 251 318 174 102 294 327 405 
478 7 98 157 184 275 260 418 267 
DEPOT_SECTION
   1
   -1
EOF
