NAME :  X-n420-kX-w41-c7.cctp
COMMENT : 	Adapted by Maziero, Usberti and Cavellucci from the Uchoa, Pecin, Pessoa, Poggi, Subramanian, and Vidal (2013)
TYPE :  CCTP
DIMENSION :    234
EDGE_WEIGHT_TYPE : 	EUC_2D	
CAPACITY : 	18
VERTICES_WITHIN_COVERAGE :  7
VERTICES_WITH_DEMAND : 	41
NODE_COORD_SECTION
1 500 500
2 707 633
3 405 122
4 811 419
5 11 667
6 336 612
7 366 50
8 98 836
9 414 996
10 243 713
11 100 232
12 891 946
13 132 204
14 25 642
15 994 18
16 636 897
17 214 651
18 108 619
19 882 399
20 863 607
21 409 585
22 247 882
23 553 507
24 677 258
25 673 644
26 25 182
27 251 111
28 263 799
29 660 359
30 351 288
31 172 127
32 382 441
33 231 650
34 966 485
35 964 107
36 876 164
37 949 328
38 936 70
39 229 744
40 161 214
41 581 594
42 154 860
43 736 600
44 594 542
45 846 684
46 355 471
47 675 597
48 663 653
49 61 889
50 685 150
51 129 248
52 180 836
53 669 251
54 411 403
55 450 926
56 591 505
57 468 157
58 288 484
59 907 13
60 579 912
61 176 189
62 972 351
63 470 22
64 577 469
65 561 672
66 110 670
67 811 614
68 89 934
69 164 871
70 487 617
71 388 521
72 573 250
73 143 923
74 247 971
75 641 297
76 585 887
77 987 361
78 153 215
79 150 669
80 76 153
81 456 635
82 334 529
83 32 672
84 118 874
85 931 462
86 168 831
87 571 812
88 185 964
89 368 628
90 366 788
91 459 77
92 345 357
93 458 286
94 974 86
95 167 854
96 441 425
97 646 948
98 444 937
99 950 129
100 866 18
101 119 279
102 319 332
103 832 902
104 421 365
105 963 71
106 443 54
107 509 966
108 70 520
109 648 127
110 371 345
111 154 221
112 475 537
113 322 738
114 118 284
115 297 415
116 394 589
117 482 59
118 171 716
119 610 528
120 405 568
121 638 940
122 940 914
123 4 886
124 215 994
125 294 675
126 121 701
127 14 530
128 383 815
129 424 566
130 358 11
131 567 535
132 424 613
133 820 574
134 125 213
135 605 589
136 844 145
137 978 462
138 503 582
139 673 603
140 643 721
141 831 659
142 137 502
143 999 456
144 722 196
145 390 650
146 288 304
147 895 896
148 514 985
149 32 202
150 400 947
151 398 522
152 889 98
153 226 257
154 858 168
155 343 182
156 511 170
157 699 283
158 954 856
159 183 100
160 923 501
161 170 88
162 153 129
163 917 390
164 91 194
165 860 607
166 159 131
167 925 291
168 705 361
169 863 371
170 24 239
171 369 28
172 803 450
173 897 396
174 983 470
175 917 370
176 969 335
177 680 629
178 175 153
179 207 142
180 221 99
181 990 502
182 960 462
183 633 344
184 110 275
185 907 303
186 865 555
187 169 121
188 816 609
189 895 569
190 348 150
191 298 65
192 470 60
193 978 312
194 645 398
195 279 85
196 180 86
197 871 410
198 615 466
199 713 648
200 268 124
201 887 399
202 159 134
203 29 81
204 2 63
205 881 592
206 864 410
207 881 413
208 950 499
209 159 215
210 813 434
211 656 391
212 879 583
213 887 641
214 891 414
215 813 425
216 234 75
217 350 278
218 192 142
219 118 193
220 807 418
221 807 149
222 238 113
223 868 379
224 987 568
225 711 376
226 171 155
227 130 123
228 799 418
229 861 382
230 971 288
231 918 397
232 417 125
233 818 400
234 856 637
DEMAND_SECTION
2 6
3 9
4 8
5 6
6 4
7 8
8 3
9 4
10 10
11 1
12 9
13 9
14 5
15 10
16 5
17 6
18 9
19 8
20 10
21 8
22 8
23 4
24 8
25 7
26 3
27 5
28 10
29 10
30 8
31 2
32 2
33 8
34 7
35 10
36 9
37 2
38 9
39 10
40 2
41 1
42 6
COVERAGE_SECTION
2 7 199 177 25 43 139 47 48 
3 7 232 190 91 57 106 7 155 
4 5 220 215 228 210 233 
5 7 83 14 66 18 126 127 79 
6 7 89 116 145 125 21 120 82 
7 6 171 130 191 106 3 232 
8 7 84 42 49 86 95 69 52 
9 5 150 98 55 107 148 
10 7 39 33 125 17 118 113 28 
11 7 134 51 164 13 219 184 101 
12 3 147 122 103 
13 7 134 219 78 111 209 40 164 
14 7 5 83 18 66 126 127 79 
15 7 105 94 38 59 35 99 100 
16 5 121 76 97 60 87 
17 7 33 79 10 118 125 39 66 
18 7 66 79 126 14 83 108 5 
19 7 201 207 173 197 214 206 223 
20 7 165 205 212 234 213 188 189 
21 7 116 120 129 132 89 151 71 
22 7 52 69 28 95 74 86 42 
23 7 131 56 64 44 119 198 112 
24 4 53 157 75 144 
25 7 48 177 2 199 139 47 43 
26 6 149 170 80 164 11 219 
27 5 222 200 180 195 216 
28 7 39 22 113 10 52 86 90 
29 6 183 211 194 168 225 75 
30 5 217 102 110 146 92 
31 7 187 166 202 162 218 178 226 
32 7 46 54 96 71 151 104 115 
33 7 17 10 125 79 118 39 6 
34 7 208 174 182 137 181 85 143 
35 7 94 99 105 38 152 15 36 
36 5 154 136 152 221 99 
37 7 176 62 193 167 230 185 77 
38 7 105 94 35 152 99 59 15 
39 7 10 118 28 113 17 33 125 
40 7 209 78 111 61 13 134 51 
41 7 135 44 131 119 138 65 56 
42 7 95 69 86 52 84 8 73 
43 4 2 199 47 139 
44 6 119 131 56 135 23 41 
45 7 141 234 213 67 165 20 188 
46 7 32 71 82 151 58 115 54 
47 6 139 177 25 2 48 43 
48 7 25 177 2 199 139 47 140 
49 7 68 123 84 8 73 42 69 
50 5 109 144 53 24 221 
51 7 11 101 184 134 111 114 78 
52 7 86 95 42 69 84 22 8 
53 5 24 157 75 144 72 
54 6 96 104 32 110 92 46 
55 5 98 150 107 9 148 
56 6 119 44 23 131 64 198 
57 6 156 232 3 91 192 117 
58 5 82 46 115 32 71 
59 7 100 38 105 15 152 94 35 
60 5 76 16 121 97 107 
61 5 40 209 226 78 178 
62 6 176 77 37 193 175 230 
63 6 192 117 106 91 171 7 
64 6 198 56 23 131 119 44 
65 5 41 70 135 140 48 
66 7 126 79 18 118 83 14 5 
67 6 188 133 141 165 234 20 
68 7 49 73 84 8 42 69 123 
69 7 42 95 52 86 84 73 8 
70 6 81 138 132 112 129 21 
71 7 151 120 82 129 46 21 116 
72 4 75 53 156 24 
73 7 68 84 69 88 42 95 49 
74 7 124 88 22 73 69 95 42 
75 6 183 24 53 157 29 72 
76 5 60 16 121 87 97 
77 5 62 176 37 193 175 
78 7 111 209 40 13 134 61 51 
79 7 66 126 118 18 17 33 10 
80 5 164 219 26 227 149 
81 6 70 132 145 21 138 129 
82 7 71 46 58 151 120 6 116 
83 7 5 14 66 18 126 79 127 
84 7 42 8 69 95 73 49 86 
85 4 182 160 34 208 
86 7 52 95 42 69 84 8 22 
87 4 76 60 16 140 
88 7 124 73 74 69 68 22 42 
89 6 145 6 116 132 21 120 
90 3 128 113 28 
91 6 192 106 117 63 232 3 
92 7 110 102 30 115 104 146 217 
93 3 104 110 30 
94 7 105 35 38 99 15 152 59 
95 7 42 69 52 86 84 8 73 
96 6 54 32 104 46 110 151 
97 5 121 16 60 76 148 
98 5 55 150 9 107 148 
99 6 35 94 105 38 152 36 
100 7 59 152 38 105 15 94 136 
101 4 114 184 51 11 
102 6 92 146 30 110 217 115 
103 2 147 12 
104 6 54 110 96 92 32 93 
105 7 94 38 35 99 15 152 59 
106 6 91 192 117 63 232 7 
107 5 148 55 98 60 9 
108 3 127 142 18 
109 5 50 144 53 24 72 
110 6 92 102 104 30 54 217 
111 7 78 209 40 13 134 51 61 
112 7 138 129 120 151 70 21 23 
113 7 90 125 10 28 39 128 145 
114 4 101 184 51 11 
115 6 58 92 46 102 32 110 
116 7 21 120 129 132 89 145 6 
117 6 192 91 63 106 232 3 
118 7 79 126 39 10 66 17 33 
119 6 44 56 131 23 135 198 
120 7 21 129 116 151 132 71 89 
121 5 97 16 60 76 107 
122 4 147 12 158 103 
123 7 49 68 8 84 73 42 69 
124 7 74 88 73 22 69 68 42 
125 7 10 33 113 6 17 89 39 
126 7 66 79 118 18 83 17 14 
127 4 108 14 142 18 
128 3 90 113 28 
129 7 120 21 116 132 151 71 112 
130 4 171 7 191 106 
131 7 44 23 56 119 41 135 64 
132 6 21 116 81 129 120 145 
133 5 188 67 186 165 20 
134 7 13 219 78 111 11 209 51 
135 7 41 44 119 131 139 47 56 
136 4 154 36 221 152 
137 6 174 182 143 34 181 208 
138 7 70 112 81 41 131 129 132 
139 7 47 177 25 2 48 199 43 
140 7 48 25 65 177 199 2 87 
141 7 45 234 67 188 213 165 20 
142 3 108 18 127 
143 6 174 137 182 34 181 208 
144 5 50 53 24 157 221 
145 6 89 132 116 6 21 81 
146 5 102 30 217 92 153 
147 4 122 12 103 158 
148 5 107 98 55 60 9 
149 7 26 170 164 80 11 219 134 
150 5 98 9 55 107 148 
151 7 71 120 129 21 82 46 116 
152 7 38 136 36 99 35 154 105 
153 2 40 146 
154 4 36 136 221 152 
155 2 190 3 
156 6 57 72 232 91 117 3 
157 3 24 53 75 
158 3 122 147 12 
159 5 196 161 187 31 180 
160 4 208 85 34 182 
161 4 196 159 187 31 
162 7 166 202 187 31 227 226 178 
163 6 231 175 173 201 214 19 
164 7 219 11 134 13 80 149 78 
165 7 20 205 234 212 213 188 67 
166 7 202 162 31 187 178 226 227 
167 3 185 37 230 
168 2 225 29 
169 3 223 229 19 
170 7 149 26 11 164 184 80 101 
171 6 130 7 106 191 3 63 
172 3 210 215 4 
173 7 201 19 214 163 231 207 197 
174 6 137 143 34 182 181 208 
175 5 163 231 173 201 19 
176 6 62 37 193 77 230 167 
177 7 25 2 139 48 47 199 43 
178 6 226 218 202 31 166 162 
179 6 218 178 31 226 222 187 
180 4 222 216 27 159 
181 7 34 174 208 137 143 182 224 
182 6 137 34 174 85 208 143 
183 6 29 75 211 194 168 225 
184 5 101 114 51 11 134 
185 2 167 37 
186 6 212 189 205 133 20 165 
187 7 31 166 202 162 159 218 161 
188 6 67 133 165 20 234 141 
189 5 212 205 186 20 165 
190 3 155 3 232 
191 3 195 216 27 
192 6 117 91 106 63 232 3 
193 6 176 230 37 62 77 167 
194 4 211 29 183 168 
195 5 191 27 200 216 222 
196 4 161 159 187 31 
197 5 206 207 19 201 214 
198 5 64 56 119 23 194 
199 7 2 177 25 48 43 139 47 
200 6 27 222 195 180 216 179 
201 7 19 173 207 214 197 206 223 
202 7 166 162 31 187 226 178 227 
203 3 204 80 26 
204 3 203 80 26 
205 6 212 20 165 189 186 213 
206 3 197 207 19 
207 6 197 214 19 201 206 173 
208 6 34 160 182 181 85 174 
209 7 40 78 111 13 61 134 51 
210 5 215 4 220 172 228 
211 5 194 29 183 168 225 
212 6 205 189 20 165 186 213 
213 7 234 20 165 205 45 141 212 
214 6 207 201 19 173 197 206 
215 4 4 210 220 228 
216 3 180 222 27 
217 5 30 102 146 110 92 
218 5 179 178 31 226 187 
219 7 13 134 164 78 11 111 209 
220 4 4 228 215 210 
221 4 136 154 36 144 
222 5 27 180 200 216 179 
223 4 229 169 19 201 
224 3 181 208 34 
225 2 168 29 
226 6 178 202 218 166 31 162 
227 6 162 166 202 187 31 226 
228 3 220 4 215 
229 4 223 169 19 206 
230 6 193 37 167 176 62 185 
231 6 163 173 175 201 214 19 
232 7 3 57 91 190 106 192 7 
233 1 4 
234 7 165 20 213 141 45 188 67 
DEPOT_SECTION
   1
   -1
EOF
