NAME :  X-n459-kX-w45-c9.cctp
COMMENT : 	Adapted by Maziero, Usberti and Cavellucci from the Uchoa, Pecin, Pessoa, Poggi, Subramanian, and Vidal (2013)
TYPE :  CCTP
DIMENSION :    331
EDGE_WEIGHT_TYPE : 	EUC_2D	
CAPACITY : 	1106
VERTICES_WITHIN_COVERAGE :  9
VERTICES_WITH_DEMAND : 	45
NODE_COORD_SECTION
1 500 500
2 832 885
3 777 632
4 406 257
5 620 467
6 343 166
7 355 345
8 393 299
9 631 767
10 384 340
11 643 630
12 786 593
13 789 727
14 443 205
15 679 408
16 845 535
17 732 820
18 890 861
19 645 689
20 800 517
21 951 643
22 828 746
23 862 625
24 606 432
25 672 984
26 580 338
27 629 494
28 809 663
29 738 595
30 604 320
31 645 532
32 688 728
33 390 680
34 842 517
35 525 404
36 697 719
37 837 853
38 741 585
39 628 506
40 354 280
41 726 834
42 721 635
43 448 363
44 963 702
45 570 484
46 389 281
47 708 380
48 771 523
49 778 645
50 402 318
51 817 717
52 730 655
53 568 298
54 555 132
55 937 637
56 542 678
57 822 854
58 711 697
59 603 310
60 850 879
61 502 417
62 764 610
63 729 822
64 307 258
65 774 732
66 691 793
67 905 888
68 664 411
69 477 226
70 607 624
71 823 875
72 410 237
73 712 692
74 804 678
75 881 872
76 371 269
77 590 431
78 420 245
79 811 647
80 684 647
81 739 969
82 854 717
83 520 823
84 720 645
85 564 493
86 653 541
87 831 758
88 694 804
89 417 251
90 683 364
91 648 479
92 888 492
93 822 876
94 672 419
95 545 420
96 925 749
97 427 272
98 856 861
99 804 638
100 426 194
101 499 348
102 692 700
103 331 318
104 738 644
105 967 900
106 604 563
107 523 429
108 834 880
109 714 644
110 720 566
111 606 512
112 667 709
113 670 508
114 456 202
115 827 687
116 556 837
117 810 589
118 537 360
119 346 163
120 880 569
121 617 420
122 308 466
123 880 638
124 751 763
125 616 485
126 719 744
127 371 346
128 379 420
129 565 524
130 377 138
131 864 721
132 823 535
133 614 761
134 659 383
135 717 895
136 865 793
137 588 663
138 595 488
139 408 268
140 713 863
141 652 409
142 653 425
143 618 425
144 657 290
145 709 839
146 909 732
147 375 283
148 278 391
149 843 873
150 443 229
151 756 702
152 365 293
153 821 637
154 477 191
155 401 102
156 359 290
157 791 751
158 329 178
159 916 882
160 758 635
161 797 783
162 428 238
163 802 823
164 797 464
165 217 29
166 939 745
167 911 889
168 829 679
169 678 523
170 550 429
171 798 482
172 686 615
173 735 658
174 768 524
175 601 454
176 851 574
177 662 511
178 447 601
179 889 610
180 728 845
181 643 486
182 830 608
183 561 410
184 721 439
185 778 640
186 644 724
187 728 651
188 525 419
189 927 692
190 597 228
191 448 218
192 575 349
193 921 883
194 406 172
195 840 847
196 787 660
197 301 545
198 668 880
199 594 416
200 740 581
201 600 464
202 965 412
203 614 568
204 829 644
205 556 518
206 660 676
207 525 793
208 623 482
209 369 195
210 805 668
211 879 886
212 728 597
213 833 719
214 744 569
215 644 446
216 896 850
217 393 284
218 708 586
219 694 612
220 446 162
221 726 702
222 499 397
223 335 416
224 428 272
225 664 226
226 772 626
227 602 466
228 592 394
229 627 408
230 754 637
231 643 572
232 880 867
233 698 630
234 819 640
235 819 577
236 303 326
237 780 647
238 630 579
239 893 578
240 545 465
241 782 723
242 639 609
243 313 267
244 810 893
245 407 307
246 808 666
247 621 427
248 761 602
249 335 150
250 807 564
251 715 936
252 818 834
253 881 870
254 300 679
255 342 373
256 819 859
257 651 493
258 378 248
259 675 424
260 398 303
261 799 623
262 812 806
263 770 860
264 776 711
265 661 839
266 829 895
267 891 565
268 569 489
269 824 716
270 827 436
271 527 376
272 838 855
273 537 432
274 468 195
275 714 807
276 553 104
277 448 331
278 846 863
279 815 689
280 639 332
281 577 442
282 572 461
283 415 256
284 933 687
285 461 392
286 827 906
287 786 737
288 583 513
289 793 632
290 540 374
291 604 445
292 303 293
293 802 534
294 298 118
295 500 353
296 818 892
297 660 436
298 580 450
299 591 411
300 377 314
301 750 857
302 643 336
303 770 609
304 873 547
305 736 788
306 676 521
307 746 617
308 860 848
309 396 235
310 792 646
311 417 267
312 871 536
313 854 648
314 602 262
315 950 821
316 698 633
317 418 292
318 690 602
319 669 683
320 797 722
321 594 646
322 597 358
323 944 834
324 776 610
325 719 441
326 832 908
327 702 378
328 604 494
329 757 832
330 647 400
331 601 706
DEMAND_SECTION
2 71
3 54
4 74
5 9
6 91
7 98
8 72
9 67
10 70
11 68
12 92
13 93
14 97
15 23
16 75
17 61
18 91
19 61
20 89
21 70
22 63
23 93
24 18
25 65
26 33
27 11
28 80
29 88
30 7
31 71
32 68
33 38
34 79
35 28
36 63
37 99
38 99
39 94
40 69
41 78
42 76
43 90
44 57
45 29
46 82
COVERAGE_SECTION
2 9 108 266 71 93 149 296 60 286 244 
3 9 185 226 49 237 289 160 310 324 230 
4 9 283 139 89 311 78 72 309 97 224 
5 9 208 125 227 201 175 291 27 91 181 
6 5 119 158 249 209 130 
7 9 127 10 255 103 300 152 50 156 236 
8 9 260 217 245 46 50 300 147 317 152 
9 9 133 186 66 112 331 32 88 265 19 
10 9 127 300 50 7 245 260 8 152 255 
11 9 242 70 80 172 206 321 238 219 233 
12 9 324 303 117 248 62 261 226 250 235 
13 9 241 320 287 65 264 157 51 269 151 
14 9 114 191 100 150 274 162 154 69 220 
15 8 94 68 259 141 142 134 330 297 
16 9 34 132 312 304 176 293 20 250 120 
17 9 63 41 275 180 329 145 305 88 301 
18 8 232 216 253 75 211 67 159 308 
19 9 206 319 112 186 331 102 80 32 11 
20 9 293 132 48 174 171 34 16 250 164 
21 8 55 284 189 44 179 123 239 23 
22 9 87 213 269 51 157 82 320 13 287 
23 7 123 313 179 182 204 153 234 
24 9 291 143 77 121 247 199 175 299 281 
25 3 251 81 135 
26 9 192 322 30 59 53 118 290 228 280 
27 9 39 208 125 181 257 91 328 5 111 
28 9 246 210 74 79 196 310 99 234 168 
29 9 38 212 200 307 248 214 62 218 110 
30 8 59 26 280 322 192 53 302 314 
31 9 86 177 39 306 169 113 257 231 27 
32 9 36 102 112 126 58 73 186 221 319 
33 7 254 178 56 197 207 83 137 
34 9 16 132 312 20 293 304 92 171 176 
35 8 188 107 61 95 222 271 273 290 
36 7 32 102 58 73 112 126 221 
37 9 272 195 278 57 256 98 149 308 71 
38 8 200 29 214 212 248 110 307 218 
39 9 27 111 125 181 208 257 328 31 91 
40 9 156 152 76 147 46 217 258 300 8 
41 9 180 63 17 145 275 329 140 301 88 
42 8 84 109 187 104 52 316 233 173 
43 6 277 285 101 295 222 50 
44 8 284 189 166 21 96 146 55 131 
45 9 268 85 282 138 240 288 298 328 201 
46 9 217 147 8 76 139 260 152 4 156 
47 7 327 90 15 134 94 68 259 
48 4 174 20 293 171 
49 9 237 185 3 310 196 226 289 160 230 
50 8 245 260 8 300 10 317 217 46 
51 9 269 213 320 279 13 22 115 241 82 
52 6 187 173 84 104 109 42 
53 6 59 26 30 314 192 322 
54 8 276 154 190 274 220 114 69 14 
55 8 21 284 179 189 123 44 239 23 
56 9 137 321 331 70 19 133 11 186 207 
57 9 256 37 272 195 252 71 93 278 149 
58 6 73 221 102 36 32 319 
59 9 30 26 53 280 192 302 314 322 144 
60 8 149 108 278 2 98 266 71 272 
61 6 222 188 107 35 273 95 
62 9 303 248 324 226 307 3 160 12 230 
63 9 17 41 275 180 145 329 305 88 301 
64 3 243 292 40 
65 9 241 287 13 264 157 320 151 124 51 
66 9 88 275 305 63 17 145 41 265 126 
67 8 167 159 193 211 75 253 18 232 
68 9 94 141 15 259 142 330 297 134 229 
69 6 191 114 274 150 154 14 
70 9 321 242 11 137 238 203 106 231 206 
71 9 93 108 2 256 296 149 57 266 244 
72 7 78 309 89 162 4 283 139 
73 6 58 221 102 36 52 173 
74 9 210 246 28 279 115 168 196 79 310 
75 8 253 232 18 211 98 216 67 60 
76 9 147 40 46 258 156 152 217 4 8 
77 9 24 199 281 291 299 298 175 121 143 
78 9 89 162 283 72 4 311 139 309 97 
79 9 99 234 153 28 204 246 310 210 289 
80 9 316 233 109 172 84 219 206 42 319 
81 2 251 25 
82 6 131 213 269 51 22 115 
83 9 207 116 133 9 265 331 56 186 198 
84 8 109 42 187 52 104 173 316 233 
85 9 268 45 205 288 129 138 282 240 328 
86 8 31 306 169 177 231 113 39 238 
87 9 22 213 157 161 51 269 82 136 131 
88 9 66 275 145 63 17 41 305 265 180 
89 9 283 78 4 72 311 162 139 97 224 
90 8 327 47 134 15 302 68 330 280 
91 5 181 257 27 208 5 
92 9 312 34 304 16 267 120 132 270 239 
93 9 71 2 108 296 256 266 149 244 57 
94 8 259 68 15 142 297 141 330 134 
95 8 170 273 183 188 107 35 281 61 
96 7 166 146 189 44 284 131 136 
97 8 224 311 139 283 317 89 4 78 
98 8 278 308 149 60 272 37 195 232 
99 8 79 289 310 234 261 153 28 185 
100 9 14 194 114 191 220 150 274 162 72 
101 6 295 118 271 222 290 43 
102 8 58 36 73 112 32 319 221 206 
103 9 236 7 292 156 152 40 300 127 243 
104 7 187 52 173 230 84 42 160 
105 7 193 159 167 67 323 315 18 
106 6 203 238 231 31 111 86 
107 6 188 273 61 95 35 170 
108 9 2 149 71 93 60 266 296 278 272 
109 9 84 42 187 52 316 233 104 173 80 
110 4 218 214 200 38 
111 9 328 39 288 138 27 125 208 129 31 
112 9 319 102 186 32 19 36 206 58 73 
113 5 177 306 169 257 31 
114 9 14 274 191 154 150 100 69 220 162 
115 8 168 279 74 246 210 269 28 51 
116 9 83 207 133 9 265 198 331 66 88 
117 8 235 12 250 182 261 324 176 303 
118 8 290 271 295 101 192 35 26 222 
119 5 6 249 158 209 130 
120 9 267 239 304 176 312 179 16 23 235 
121 8 143 247 24 229 199 291 299 77 
122 7 223 197 148 128 255 7 127 
123 6 23 313 179 204 55 182 
124 9 305 126 65 157 287 161 241 13 275 
125 9 208 328 27 5 138 39 227 201 181 
126 9 36 32 124 221 305 58 73 102 65 
127 9 10 7 300 255 50 103 260 8 152 
128 7 223 255 127 7 10 122 285 
129 6 205 288 85 268 45 111 
130 9 119 155 6 249 194 209 158 220 100 
131 6 82 213 269 22 146 51 
132 9 293 16 34 20 250 235 176 312 304 
133 9 9 186 331 112 19 32 66 88 265 
134 7 330 141 68 90 15 94 229 
135 7 140 251 301 180 198 145 41 
136 4 87 262 308 22 
137 9 321 70 331 56 19 11 206 242 186 
138 9 328 125 227 45 201 111 268 288 208 
139 9 311 4 283 89 97 224 217 46 78 
140 9 180 145 41 135 301 63 17 198 329 
141 8 330 68 142 94 229 15 134 259 
142 9 297 141 68 94 259 215 330 15 229 
143 8 247 121 24 229 291 199 77 299 
144 7 280 302 59 30 314 225 90 
145 9 41 180 140 63 17 275 88 301 265 
146 7 96 166 189 131 284 82 44 
147 9 46 152 76 156 217 40 8 260 300 
148 9 223 255 236 122 7 103 292 127 128 
149 8 60 278 108 2 98 272 71 37 
150 8 191 162 14 78 114 69 72 89 
151 7 264 221 241 65 13 58 73 
152 9 156 147 40 300 76 46 8 217 260 
153 8 234 204 79 99 261 289 28 182 
154 8 274 114 69 14 191 220 100 150 
155 9 130 194 220 119 249 6 100 209 294 
156 9 152 40 147 76 300 46 8 217 103 
157 9 287 13 65 241 320 161 22 87 124 
158 4 6 119 249 209 
159 9 193 167 67 18 75 211 253 216 232 
160 8 230 226 3 185 49 104 307 237 
161 8 262 157 163 87 287 22 124 252 
162 9 78 89 150 72 283 191 4 311 309 
163 7 252 262 57 161 256 195 37 
164 7 171 270 20 48 174 34 293 
165 7 294 249 6 119 158 130 155 
166 7 96 146 44 189 284 315 131 
167 8 67 159 193 211 75 18 253 232 
168 7 115 279 74 246 28 210 204 
169 5 306 113 177 86 31 
170 8 95 273 183 107 188 281 35 240 
171 8 164 20 48 174 293 270 34 132 
172 9 219 318 233 316 80 218 42 109 84 
173 6 52 187 104 84 109 42 
174 4 48 20 293 214 
175 9 291 201 227 298 5 24 77 281 282 
176 9 120 235 304 16 182 267 239 312 117 
177 7 113 306 169 257 31 86 181 
178 3 33 56 205 
179 9 123 23 239 120 267 176 313 55 182 
180 9 41 145 63 140 17 301 329 275 263 
181 7 91 257 27 208 39 125 5 
182 8 117 153 235 234 261 23 204 99 
183 9 95 170 299 273 199 228 35 77 281 
184 3 325 259 15 
185 9 49 237 3 226 310 289 160 196 230 
186 9 112 19 32 9 331 133 319 206 36 
187 6 52 84 173 104 109 42 
188 7 107 35 273 95 61 170 222 
189 8 284 44 146 166 21 55 96 131 
190 6 314 225 53 59 144 30 
191 8 150 14 114 162 69 274 100 78 
192 9 26 322 118 30 290 59 228 53 271 
193 8 159 167 67 18 75 216 211 253 
194 5 100 220 209 130 14 
195 9 37 272 278 57 308 98 256 149 252 
196 9 237 310 49 210 28 185 246 74 79 
197 7 122 223 254 128 148 178 33 
198 9 265 140 135 145 180 251 41 88 63 
199 9 299 77 24 228 121 143 247 281 291 
200 8 38 214 29 212 110 248 218 307 
201 9 227 175 291 5 298 138 125 282 208 
202 4 92 270 312 34 
203 8 106 238 231 86 31 242 70 111 
204 8 153 234 79 313 99 28 246 210 
205 6 129 85 288 268 45 138 
206 8 319 19 112 80 102 11 186 73 
207 9 83 116 133 9 56 331 186 137 265 
208 9 125 27 5 181 328 39 91 227 138 
209 2 6 119 
210 9 246 28 74 196 79 279 168 310 115 
211 6 75 253 232 67 18 60 
212 9 29 38 200 218 307 110 214 248 219 
213 8 269 51 82 22 131 115 279 320 
214 5 200 38 110 29 212 
215 7 297 142 247 5 91 143 121 
216 7 18 232 253 75 308 159 67 
217 9 46 8 147 260 139 317 76 245 152 
218 8 110 212 318 219 29 200 38 172 
219 9 172 318 233 316 218 42 80 212 109 
220 9 100 274 114 194 154 14 191 150 69 
221 6 58 73 151 36 102 126 
222 8 61 35 188 271 285 107 295 290 
223 9 128 255 122 148 7 127 10 236 103 
224 8 97 311 139 283 317 89 4 78 
225 6 144 190 314 59 280 30 
226 9 3 185 324 160 303 62 49 230 237 
227 9 201 175 5 291 138 125 208 298 328 
228 8 299 199 183 121 322 77 229 24 
229 8 121 143 247 330 141 142 24 199 
230 7 160 104 226 307 3 185 49 
231 8 238 203 86 242 31 106 318 11 
232 8 253 75 18 211 216 98 308 60 
233 9 316 219 172 109 80 42 84 318 187 
234 8 153 79 204 99 28 261 289 246 
235 8 117 250 176 182 12 132 293 16 
236 9 103 292 7 243 255 156 64 40 148 
237 9 49 185 310 3 196 289 226 160 99 
238 9 231 203 106 242 86 31 70 11 318 
239 9 267 120 179 304 176 312 23 123 16 
240 6 282 45 85 268 273 170 
241 9 13 65 264 287 320 157 151 51 269 
242 9 11 238 70 231 172 203 318 219 106 
243 4 64 292 40 156 
244 8 296 266 93 286 71 2 108 326 
245 7 260 50 8 317 217 300 46 
246 9 28 210 74 79 196 279 168 310 99 
247 8 143 121 24 229 291 199 215 77 
248 9 62 303 324 307 29 38 226 12 200 
249 6 119 6 158 130 294 209 
250 9 235 117 293 132 12 176 16 20 182 
251 3 81 135 25 
252 7 163 57 256 195 37 262 272 
253 8 75 232 18 211 216 98 67 308 
254 6 33 197 178 122 56 207 
255 9 7 127 223 10 103 128 236 148 300 
256 9 57 71 93 37 272 195 252 108 278 
257 6 181 91 177 27 113 39 
258 3 76 309 4 
259 8 94 15 68 297 142 141 330 215 
260 8 8 245 50 217 317 46 300 147 
261 9 289 99 3 310 153 234 324 79 185 
262 7 163 161 252 57 195 87 37 
263 8 301 329 180 163 256 41 57 244 
264 9 241 13 65 151 320 287 51 74 157 
265 9 198 88 145 66 140 275 41 180 63 
266 8 2 286 296 326 108 244 93 71 
267 9 120 239 304 312 176 179 16 23 34 
268 9 45 85 138 282 288 205 240 129 328 
269 8 51 213 279 320 115 22 82 13 
270 5 164 171 34 92 20 
271 8 290 118 35 222 295 101 188 61 
272 9 37 195 278 57 98 149 256 308 71 
273 8 170 95 107 188 35 183 240 61 
274 8 154 114 14 191 69 220 100 150 
275 9 88 63 17 66 305 41 145 180 329 
276 8 54 154 220 274 190 114 69 14 
277 4 43 50 245 317 
278 8 98 149 272 37 60 195 108 308 
279 8 115 74 168 210 246 28 51 269 
280 8 302 30 59 144 322 90 134 26 
281 9 298 77 282 175 291 170 24 199 201 
282 9 298 281 45 240 201 268 175 227 85 
283 9 89 4 311 78 139 72 97 224 162 
284 8 189 44 21 55 146 166 96 123 
285 7 43 222 61 295 101 277 35 
286 6 326 266 296 244 2 108 
287 9 13 65 157 241 320 264 51 22 269 
288 8 129 111 205 85 138 268 328 45 
289 9 261 99 310 3 185 49 237 226 79 
290 8 271 118 35 183 192 295 95 188 
291 9 175 24 201 77 227 143 247 298 5 
292 7 243 236 64 103 40 156 152 
293 9 20 132 250 48 174 16 34 235 171 
294 5 249 6 119 158 130 
295 6 101 271 118 222 290 43 
296 8 244 266 2 93 286 71 108 326 
297 7 142 215 259 94 68 141 15 
298 9 281 282 77 175 201 291 227 24 45 
299 9 199 228 77 24 121 143 183 247 281 
300 9 8 152 260 50 10 156 147 245 127 
301 8 263 180 329 41 140 17 63 145 
302 8 280 30 59 144 90 134 322 26 
303 9 62 324 248 226 12 3 307 160 185 
304 9 312 120 267 16 176 239 34 132 92 
305 9 124 275 17 63 66 88 41 126 329 
306 5 169 113 177 86 31 
307 8 62 248 160 230 29 303 212 104 
308 7 98 195 278 272 37 232 149 
309 5 72 258 4 78 89 
310 9 237 49 99 289 185 196 79 3 28 
311 8 139 97 283 224 4 89 78 317 
312 9 304 16 120 34 267 176 92 239 132 
313 6 23 204 123 153 234 168 
314 8 190 59 53 30 144 225 26 280 
315 8 323 216 193 159 18 96 166 167 
316 9 233 109 80 219 172 42 84 318 187 
317 8 245 97 224 260 311 8 139 217 
318 9 219 172 218 233 316 212 42 80 110 
319 8 206 19 112 102 80 58 73 36 
320 9 13 241 287 51 264 65 269 157 213 
321 9 137 70 11 242 331 56 19 206 238 
322 8 192 26 228 30 59 280 302 299 
323 8 315 216 193 159 18 167 67 105 
324 9 303 62 226 248 12 3 261 289 185 
325 3 184 259 15 
326 4 286 266 296 2 
327 7 47 90 15 134 68 94 259 
328 9 138 125 111 208 27 39 227 288 201 
329 8 301 17 63 41 263 180 163 145 
330 7 141 68 134 229 142 94 15 
331 9 137 19 186 133 321 56 112 206 9 
DEPOT_SECTION
   1
   -1
EOF
