NAME :  X-n420-kX-w41-c11.cctp
COMMENT : 	Adapted by Maziero, Usberti and Cavellucci from the Uchoa, Pecin, Pessoa, Poggi, Subramanian, and Vidal (2013)
TYPE :  CCTP
DIMENSION :    291
EDGE_WEIGHT_TYPE : 	EUC_2D	
CAPACITY : 	18
VERTICES_WITHIN_COVERAGE :  11
VERTICES_WITH_DEMAND : 	41
NODE_COORD_SECTION
1 500 500
2 707 633
3 405 122
4 811 419
5 11 667
6 336 612
7 366 50
8 98 836
9 414 996
10 243 713
11 100 232
12 891 946
13 132 204
14 25 642
15 994 18
16 636 897
17 214 651
18 108 619
19 882 399
20 863 607
21 409 585
22 247 882
23 553 507
24 677 258
25 673 644
26 25 182
27 251 111
28 263 799
29 660 359
30 351 288
31 172 127
32 382 441
33 231 650
34 966 485
35 964 107
36 876 164
37 949 328
38 936 70
39 229 744
40 161 214
41 581 594
42 154 860
43 736 600
44 594 542
45 846 684
46 355 471
47 675 597
48 663 653
49 61 889
50 685 150
51 129 248
52 180 836
53 427 670
54 833 860
55 669 251
56 411 403
57 450 926
58 591 505
59 468 157
60 288 484
61 574 955
62 41 65
63 175 486
64 907 13
65 579 912
66 765 835
67 176 189
68 972 351
69 470 22
70 577 469
71 561 672
72 110 670
73 811 614
74 460 344
75 898 295
76 89 934
77 164 871
78 487 617
79 731 565
80 509 209
81 860 845
82 388 521
83 573 250
84 143 923
85 247 971
86 641 297
87 763 749
88 585 887
89 987 361
90 153 215
91 150 669
92 76 153
93 456 635
94 334 529
95 963 378
96 32 672
97 118 874
98 931 462
99 168 831
100 443 2
101 571 812
102 185 964
103 368 628
104 366 788
105 8 464
106 459 77
107 345 357
108 315 149
109 458 286
110 974 86
111 167 854
112 441 425
113 646 948
114 444 937
115 950 129
116 866 18
117 915 849
118 119 279
119 319 332
120 832 902
121 421 365
122 963 71
123 443 54
124 509 966
125 70 520
126 311 207
127 648 127
128 371 345
129 154 221
130 475 537
131 322 738
132 118 284
133 297 415
134 530 967
135 752 797
136 394 589
137 482 59
138 171 716
139 610 528
140 405 568
141 638 940
142 940 914
143 4 886
144 215 994
145 294 675
146 121 701
147 14 530
148 383 815
149 424 566
150 358 11
151 902 869
152 567 535
153 424 613
154 820 574
155 125 213
156 605 589
157 844 145
158 978 462
159 503 582
160 673 603
161 643 721
162 831 659
163 137 502
164 939 228
165 999 456
166 722 196
167 390 650
168 288 304
169 895 896
170 514 985
171 32 202
172 20 476
173 400 947
174 398 522
175 889 98
176 226 257
177 858 168
178 343 182
179 511 170
180 699 283
181 954 856
182 183 100
183 208 169
184 923 501
185 170 88
186 153 129
187 917 390
188 799 437
189 91 194
190 860 607
191 159 131
192 925 291
193 713 394
194 705 361
195 863 371
196 232 70
197 24 239
198 369 28
199 803 450
200 897 396
201 983 470
202 917 370
203 969 335
204 680 629
205 175 153
206 207 142
207 221 99
208 290 232
209 834 424
210 990 502
211 960 462
212 633 344
213 110 275
214 907 303
215 865 555
216 169 121
217 816 609
218 894 327
219 895 569
220 348 150
221 298 65
222 229 190
223 470 60
224 923 737
225 978 312
226 645 398
227 279 85
228 750 169
229 827 402
230 180 86
231 871 410
232 919 526
233 615 466
234 713 648
235 268 124
236 821 402
237 887 399
238 819 560
239 794 432
240 159 134
241 29 81
242 2 63
243 881 592
244 864 410
245 956 648
246 784 417
247 881 413
248 329 214
249 950 499
250 880 359
251 263 36
252 159 215
253 555 303
254 813 434
255 656 391
256 879 583
257 810 389
258 887 641
259 959 431
260 76 115
261 891 414
262 813 425
263 234 75
264 252 50
265 350 278
266 192 142
267 712 63
268 118 193
269 171 165
270 807 418
271 807 149
272 955 230
273 238 113
274 912 579
275 868 379
276 987 568
277 297 185
278 711 376
279 171 155
280 930 410
281 130 123
282 799 418
283 861 382
284 971 288
285 918 397
286 791 419
287 782 407
288 210 93
289 417 125
290 818 400
291 856 637
DEMAND_SECTION
2 6
3 9
4 8
5 6
6 4
7 8
8 3
9 4
10 10
11 1
12 9
13 9
14 5
15 10
16 5
17 6
18 9
19 8
20 10
21 8
22 8
23 4
24 8
25 7
26 3
27 5
28 10
29 10
30 8
31 2
32 2
33 8
34 7
35 10
36 9
37 2
38 9
39 10
40 2
41 1
42 6
COVERAGE_SECTION
2 9 234 204 25 43 160 47 48 79 73 
3 11 289 220 106 59 123 7 178 223 108 137 198 
4 11 270 262 282 254 236 286 290 239 188 229 209 
5 11 96 14 72 18 146 147 91 125 138 8 172 
6 11 103 136 167 145 21 140 94 153 149 82 53 
7 10 198 150 221 123 3 100 289 227 106 220 
8 11 97 42 49 99 111 77 52 76 84 143 146 
9 10 173 114 57 124 170 134 61 85 148 65 
10 11 39 33 145 17 138 131 28 91 146 6 52 
11 11 155 51 189 13 268 213 118 129 132 90 252 
12 9 169 142 120 151 117 54 81 181 66 
13 11 155 268 90 129 252 40 189 11 51 67 269 
14 11 5 96 18 72 146 147 91 125 138 172 105 
15 11 122 110 38 64 35 115 116 175 36 157 177 
16 10 141 88 113 65 61 101 134 66 124 170 
17 11 33 91 10 138 145 39 72 146 18 6 131 
18 11 72 91 146 14 96 125 5 17 138 163 33 
19 10 237 247 200 231 261 244 275 283 195 187 
20 11 190 243 256 291 258 217 219 73 215 154 274 
21 11 136 140 149 153 103 174 82 167 93 6 130 
22 11 52 77 28 111 85 99 42 102 84 144 97 
23 10 152 58 70 44 139 233 130 159 41 156 
24 7 55 180 86 166 212 29 83 
25 10 48 204 2 234 160 47 43 161 156 79 
26 10 171 197 92 189 260 11 268 241 155 13 
27 10 273 235 207 227 263 196 288 206 264 221 
28 11 39 22 131 10 52 99 104 111 148 77 138 
29 7 212 255 226 194 278 193 86 
30 11 265 119 128 168 107 248 208 126 121 178 109 
31 11 216 191 240 186 266 205 279 182 206 269 185 
32 11 46 56 112 82 174 121 133 107 128 94 60 
33 11 17 10 145 91 138 39 6 146 72 18 131 
34 10 249 201 211 158 210 98 165 184 259 232 
35 11 110 115 122 38 175 15 36 64 177 272 164 
36 6 177 157 175 271 115 164 
37 11 203 68 225 192 284 214 89 95 202 218 75 
38 11 122 110 35 175 115 64 15 116 36 157 177 
39 11 10 138 28 131 17 33 145 52 99 91 146 
40 11 252 90 129 67 13 155 51 268 269 279 205 
41 11 156 44 152 139 159 71 58 23 160 47 78 
42 11 111 77 99 52 97 8 84 22 49 76 102 
43 9 79 2 234 47 160 204 73 25 217 
44 9 139 152 58 156 23 41 70 233 47 
45 11 162 291 258 73 190 20 217 224 243 87 256 
46 10 32 82 94 174 60 133 56 112 140 107 
47 9 160 204 25 2 48 43 79 234 156 
48 11 25 204 2 234 160 47 161 156 43 41 71 
49 11 76 143 97 8 84 42 77 111 99 52 102 
50 10 127 166 228 267 55 24 271 180 83 86 
51 11 11 118 213 155 129 132 90 13 252 40 268 
52 11 99 111 42 77 97 22 8 28 84 39 138 
53 7 167 93 153 103 78 21 136 
54 10 81 120 151 66 169 117 135 12 142 181 
55 8 24 180 86 166 83 212 50 29 
56 11 112 121 32 128 74 107 46 133 119 82 174 
57 10 114 173 124 9 170 134 61 65 148 88 
58 8 139 44 23 152 70 233 156 41 
59 11 179 289 80 3 106 223 137 123 220 178 109 
60 10 94 46 133 32 82 63 174 6 107 140 
61 10 65 134 124 141 170 88 113 16 57 114 
62 8 241 242 260 92 281 26 186 185 
63 6 163 125 60 133 18 172 
64 11 116 38 122 15 175 110 35 115 157 36 177 
65 10 88 61 16 141 134 113 124 170 101 57 
66 10 135 54 87 120 81 151 16 169 117 113 
67 11 269 40 252 279 90 205 183 129 13 266 222 
68 11 203 89 95 37 225 202 284 187 285 280 192 
69 11 100 223 137 123 106 198 7 150 289 3 59 
70 8 233 58 23 152 139 44 226 255 
71 8 41 78 156 161 48 159 93 25 
72 11 146 91 18 138 96 14 5 17 33 10 39 
73 11 217 154 162 190 291 20 238 243 256 43 45 
74 10 121 109 56 112 128 253 107 30 32 265 
75 5 214 192 218 37 250 
76 11 49 84 97 8 42 77 143 102 111 99 52 
77 11 42 111 52 99 97 84 8 22 102 76 49 
78 11 93 159 153 53 130 149 21 71 140 41 136 
79 4 43 47 160 2 
80 10 179 59 83 109 253 289 3 106 74 137 
81 10 54 151 117 169 120 181 66 12 142 135 
82 11 174 140 94 149 46 21 136 32 130 153 6 
83 10 253 80 86 55 179 24 212 109 180 29 
84 11 76 97 77 102 42 111 49 52 99 8 144 
85 11 144 102 22 84 77 111 42 52 173 97 99 
86 9 212 24 55 180 29 83 253 194 255 
87 10 135 66 45 162 234 161 2 54 81 25 
88 10 65 16 61 141 101 113 134 124 170 57 
89 11 68 95 203 37 225 202 259 280 284 187 285 
90 11 129 252 40 13 155 67 51 268 269 11 279 
91 11 72 146 138 18 17 33 10 39 96 14 5 
92 10 260 189 268 26 281 171 13 155 186 11 
93 9 78 153 53 167 21 159 149 136 140 
94 11 82 46 60 174 140 6 136 21 149 32 103 
95 11 68 89 203 280 202 187 285 37 259 200 225 
96 11 5 14 72 18 146 91 147 138 125 8 17 
97 11 42 8 77 111 84 49 99 76 52 102 143 
98 6 211 184 34 249 259 158 
99 11 52 111 42 77 97 8 22 84 28 39 138 
100 11 69 123 223 137 106 198 150 7 3 289 59 
101 7 88 65 16 161 71 61 141 
102 11 144 84 85 77 76 22 42 111 97 52 99 
103 11 167 6 136 153 21 140 53 149 93 145 94 
104 7 148 131 28 53 145 167 10 
105 6 172 147 125 163 63 14 
106 11 223 123 137 69 289 3 100 59 7 198 179 
107 10 128 119 30 133 121 168 265 56 32 46 
108 11 220 277 178 235 126 248 227 27 273 221 208 
109 10 74 121 80 253 128 30 265 83 56 179 
110 11 122 35 38 115 15 175 64 36 116 177 157 
111 11 42 77 52 99 97 8 84 22 28 102 49 
112 10 56 32 121 74 46 128 174 82 130 107 
113 10 141 16 61 65 88 134 170 124 101 66 
114 10 57 173 9 124 170 134 61 148 65 88 
115 11 35 110 122 38 175 36 164 177 272 157 15 
116 11 64 175 38 122 15 110 157 35 115 271 36 
117 10 151 181 169 81 142 54 120 12 224 66 
118 8 132 213 51 11 155 129 90 252 
119 9 107 168 30 128 265 133 208 121 56 
120 10 54 169 81 12 151 66 117 142 181 135 
121 10 56 74 128 112 107 32 109 30 119 265 
122 11 110 38 35 115 15 175 64 116 36 157 177 
123 11 106 223 137 69 100 289 7 3 198 150 59 
124 10 170 134 61 57 114 65 9 88 173 141 
125 7 147 172 163 105 18 63 14 
126 11 248 277 208 178 108 220 265 222 30 235 176 
127 11 50 267 166 228 55 24 83 179 80 271 180 
128 11 107 119 121 30 56 265 74 168 32 133 109 
129 11 90 252 40 13 155 51 67 268 11 269 118 
130 11 159 149 140 174 78 21 23 82 152 153 136 
131 10 104 145 10 28 39 148 167 103 53 6 
132 8 118 213 51 11 155 129 90 252 
133 9 60 107 46 119 32 128 168 56 94 
134 10 124 170 61 65 57 114 88 141 113 9 
135 10 66 87 54 81 120 161 45 16 234 162 
136 11 21 140 149 153 103 167 6 174 82 93 94 
137 11 223 106 69 123 100 289 3 59 179 7 198 
138 11 91 146 39 10 72 17 33 99 18 52 28 
139 8 44 58 152 23 156 233 70 41 
140 11 21 149 136 174 153 82 103 130 94 6 167 
141 10 113 16 65 61 88 134 124 170 101 66 
142 10 169 12 151 181 117 81 120 54 224 66 
143 11 49 76 8 97 84 42 77 111 99 52 102 
144 11 85 102 84 22 77 76 42 111 97 52 99 
145 11 10 33 131 6 17 103 39 167 28 138 136 
146 11 72 91 138 18 96 17 14 5 39 33 10 
147 8 172 125 105 14 163 18 5 96 
148 6 104 131 28 57 173 114 
149 11 140 21 136 153 174 82 130 93 78 159 103 
150 10 198 7 221 100 123 251 227 69 264 3 
151 10 117 169 81 181 142 54 120 12 224 66 
152 10 44 23 58 139 41 156 70 159 233 130 
153 11 21 136 93 149 140 167 53 103 78 159 6 
154 8 238 217 73 215 190 20 256 243 
155 11 13 268 90 129 11 252 51 40 189 67 213 
156 10 41 44 139 152 160 47 58 204 48 25 
157 7 177 36 271 175 228 115 38 
158 10 201 211 165 34 259 210 249 98 184 280 
159 11 78 130 93 41 152 149 153 23 21 44 140 
160 9 47 204 25 2 48 234 43 79 156 
161 11 48 25 71 204 234 2 101 160 87 47 135 
162 11 45 291 73 217 258 190 20 243 154 256 238 
163 7 63 125 172 18 147 105 60 
164 8 272 192 284 75 214 36 225 37 
165 11 201 158 211 34 210 259 249 98 280 95 184 
166 7 228 50 55 24 180 271 127 
167 10 103 53 153 136 6 21 93 140 149 145 
168 9 119 30 265 208 107 176 128 248 126 
169 10 151 142 12 117 81 120 181 54 66 224 
170 10 124 134 61 114 57 65 9 173 88 141 
171 11 26 197 189 92 11 268 155 260 13 51 213 
172 6 105 147 125 163 63 14 
173 10 114 9 57 124 170 134 148 85 104 22 
174 11 82 140 149 21 94 46 136 130 32 153 112 
175 11 38 157 36 115 35 177 122 116 110 64 271 
176 8 222 208 40 168 252 129 67 90 
177 6 36 157 271 175 115 164 
178 11 220 248 126 108 277 208 3 289 235 265 30 
179 11 80 59 83 289 106 137 3 223 109 123 253 
180 5 24 55 86 194 29 
181 10 117 151 142 169 81 12 54 224 120 66 
182 10 230 185 216 288 31 207 191 186 240 266 
183 11 206 222 266 205 269 67 279 31 240 191 216 
184 5 232 249 98 34 211 
185 9 230 182 216 31 288 186 191 240 207 
186 11 191 240 216 31 281 279 205 269 266 182 185 
187 10 285 202 200 280 237 261 19 247 95 250 
188 10 239 199 254 262 282 286 270 4 246 287 
189 11 268 11 155 13 92 171 90 51 26 129 252 
190 11 20 243 291 256 258 217 73 154 215 219 274 
191 11 240 186 31 216 205 279 281 266 269 182 185 
192 8 214 75 37 284 218 225 203 164 
193 4 278 194 255 29 
194 4 278 193 29 255 
195 5 275 283 250 19 237 
196 9 263 264 207 288 273 27 251 227 230 
197 11 171 26 11 189 213 92 118 132 155 51 268 
198 10 150 7 100 123 221 3 69 106 223 251 
199 8 188 254 239 262 4 270 282 286 
200 11 237 19 261 187 285 247 231 202 275 244 280 
201 10 158 165 34 211 210 249 259 98 184 280 
202 11 187 285 200 250 237 280 19 95 218 275 261 
203 11 68 37 225 89 95 284 192 202 214 218 187 
204 9 25 2 160 48 47 234 43 79 156 
205 11 279 269 266 240 31 191 186 216 206 67 183 
206 11 266 183 205 31 279 273 216 269 207 182 191 
207 10 288 273 263 196 27 182 230 206 185 266 
208 11 126 248 277 176 168 178 222 265 30 108 220 
209 5 262 229 254 4 236 
210 11 34 201 249 158 165 211 276 184 98 232 259 
211 10 158 34 201 98 259 249 165 210 184 280 
212 9 29 86 255 226 194 278 253 180 193 
213 8 118 132 51 11 155 129 13 90 
214 6 75 192 218 37 250 284 
215 9 256 219 243 238 154 20 190 274 232 
216 11 31 191 240 186 182 266 185 205 279 230 281 
217 11 73 154 190 20 238 291 162 243 256 215 258 
218 7 214 75 250 192 202 195 37 
219 8 274 256 243 215 232 20 190 258 
220 11 178 108 277 3 248 126 289 235 227 221 208 
221 10 227 251 264 263 27 196 235 7 273 198 
222 11 183 67 206 266 269 205 176 277 279 40 208 
223 11 137 106 123 69 100 289 3 59 7 198 179 
224 10 45 245 258 117 291 162 181 81 151 20 
225 11 203 284 37 68 89 192 95 214 75 202 218 
226 7 255 29 212 193 194 278 233 
227 10 221 27 235 264 263 196 273 251 207 288 
228 9 166 271 50 157 177 127 267 24 55 
229 6 236 290 257 4 209 270 
230 9 185 182 288 216 31 207 191 186 240 
231 6 244 247 19 237 261 200 
232 7 184 249 219 274 215 34 98 
233 7 70 58 139 23 226 44 152 
234 10 2 204 25 48 43 160 47 79 161 73 
235 11 27 273 227 108 207 263 206 196 221 288 277 
236 7 290 229 257 4 270 262 209 
237 10 19 200 247 261 231 244 275 187 283 285 
238 6 154 215 217 73 190 20 
239 10 188 286 282 246 254 270 199 262 4 287 
240 11 191 186 31 216 279 205 281 269 266 182 185 
241 9 62 242 260 92 26 281 171 189 186 
242 9 241 62 260 92 26 281 171 189 186 
243 10 256 20 190 219 274 215 258 291 154 217 
244 6 231 247 19 237 261 283 
245 9 258 274 276 243 224 219 256 291 20 
246 7 286 287 282 239 270 188 4 
247 6 231 261 19 237 244 200 
248 11 126 178 208 277 108 220 265 30 168 222 235 
249 9 34 184 211 210 232 98 201 158 165 
250 8 195 275 283 218 202 19 200 237 
251 6 264 221 196 263 227 27 
252 11 40 90 129 13 67 155 51 268 269 11 279 
253 10 83 86 212 109 74 80 29 55 24 226 
254 10 262 188 4 270 199 239 282 209 286 236 
255 7 226 29 212 193 194 278 233 
256 11 243 219 20 190 215 274 258 291 154 238 217 
257 5 290 236 229 270 4 
258 11 291 20 190 243 45 162 256 274 245 219 217 
259 10 211 158 280 98 201 165 95 285 34 187 
260 10 92 281 241 62 186 189 26 191 240 268 
261 7 247 237 19 200 231 244 285 
262 11 4 254 270 282 188 239 209 286 236 290 199 
263 9 196 207 288 264 273 27 227 251 230 
264 8 251 196 263 227 221 207 288 27 
265 11 30 119 168 248 128 208 107 126 178 277 109 
266 11 206 205 31 279 183 216 269 240 191 186 182 
267 10 50 127 228 271 166 157 116 175 177 36 
268 11 13 155 189 90 11 129 252 40 51 67 92 
269 11 279 205 67 266 240 191 183 31 186 206 216 
270 11 4 282 262 286 254 239 188 236 290 246 229 
271 7 157 177 228 36 166 175 50 
272 8 164 284 192 225 75 214 37 115 
273 10 27 207 235 288 263 206 196 227 266 182 
274 9 219 256 243 215 232 20 190 258 276 
275 8 283 195 250 19 237 231 244 200 
276 9 210 274 249 232 34 245 219 184 201 
277 11 126 108 248 178 208 220 222 235 27 183 273 
278 4 194 193 29 255 
279 11 205 269 240 266 191 31 186 67 216 206 183 
280 9 285 187 200 259 261 202 237 95 19 
281 10 186 191 240 216 31 279 185 205 260 182 
282 9 270 286 4 239 246 262 188 287 254 
283 7 275 195 19 244 231 250 237 
284 10 225 37 192 203 272 68 214 164 75 89 
285 10 187 280 200 202 237 261 19 247 95 231 
286 8 246 282 239 287 270 4 188 262 
287 6 246 286 282 270 239 4 
288 10 207 182 263 230 196 273 185 27 206 216 
289 11 3 59 106 220 123 223 7 137 178 179 108 
290 7 236 229 257 4 270 262 282 
291 11 190 20 258 162 45 217 73 243 256 154 219 
DEPOT_SECTION
   1
   -1
EOF
