NAME :  X-n411-kX-w41-c11.cctp
COMMENT : 	Adapted by Maziero, Usberti and Cavellucci from the Uchoa, Pecin, Pessoa, Poggi, Subramanian, and Vidal (2013)
TYPE :  CCTP
DIMENSION :    299
EDGE_WEIGHT_TYPE : 	EUC_2D	
CAPACITY : 	216
VERTICES_WITHIN_COVERAGE :  11
VERTICES_WITH_DEMAND : 	41
NODE_COORD_SECTION
1 175 821
2 62 495
3 662 959
4 109 216
5 156 748
6 178 957
7 120 571
8 75 480
9 44 98
10 386 1000
11 96 465
12 98 796
13 213 642
14 642 977
15 629 893
16 36 124
17 155 172
18 6 367
19 39 198
20 40 311
21 649 801
22 208 367
23 237 944
24 282 313
25 114 684
26 69 168
27 23 553
28 137 467
29 244 971
30 86 456
31 125 681
32 77 398
33 128 820
34 166 804
35 657 959
36 160 172
37 674 882
38 255 944
39 709 691
40 167 720
41 187 995
42 246 707
43 95 518
44 44 264
45 262 940
46 210 586
47 240 994
48 108 491
49 715 874
50 130 426
51 518 749
52 90 209
53 118 92
54 606 976
55 157 787
56 626 857
57 169 712
58 105 710
59 105 233
60 65 322
61 685 804
62 215 664
63 211 996
64 728 533
65 649 836
66 47 136
67 198 125
68 682 937
69 17 858
70 222 825
71 55 388
72 41 510
73 128 221
74 108 777
75 98 842
76 132 465
77 132 478
78 126 754
79 144 476
80 163 937
81 11 794
82 663 942
83 138 464
84 27 134
85 213 819
86 150 746
87 184 760
88 122 579
89 180 670
90 166 955
91 162 968
92 73 394
93 620 899
94 655 914
95 110 440
96 232 648
97 645 922
98 204 708
99 52 512
100 46 259
101 191 999
102 247 686
103 68 464
104 5 393
105 642 902
106 132 600
107 115 788
108 126 801
109 58 479
110 637 926
111 147 765
112 145 772
113 58 195
114 236 969
115 616 999
116 234 458
117 0 48
118 138 215
119 661 893
120 828 769
121 631 978
122 64 297
123 257 671
124 158 185
125 190 183
126 127 166
127 75 564
128 26 818
129 97 174
130 53 210
131 93 135
132 303 976
133 139 824
134 144 824
135 166 971
136 195 983
137 73 379
138 182 177
139 118 595
140 192 702
141 355 701
142 63 190
143 164 489
144 228 918
145 190 958
146 162 797
147 113 97
148 119 363
149 82 200
150 93 167
151 679 707
152 164 569
153 751 803
154 22 100
155 143 744
156 55 196
157 584 877
158 139 121
159 179 742
160 198 934
161 252 809
162 70 115
163 309 976
164 333 77
165 78 497
166 11 624
167 642 915
168 71 75
169 271 936
170 662 981
171 677 991
172 8 272
173 49 230
174 109 241
175 33 514
176 178 969
177 309 966
178 100 444
179 27 507
180 255 943
181 123 135
182 88 408
183 648 973
184 662 952
185 150 753
186 70 339
187 135 814
188 38 618
189 76 755
190 34 399
191 88 671
192 23 336
193 38 527
194 46 502
195 686 952
196 653 958
197 158 769
198 211 709
199 96 761
200 190 120
201 187 932
202 34 241
203 228 938
204 152 397
205 163 188
206 166 931
207 455 984
208 606 962
209 553 894
210 223 717
211 142 957
212 693 899
213 118 725
214 52 328
215 14 295
216 151 231
217 203 330
218 79 391
219 151 387
220 284 14
221 159 932
222 261 204
223 60 570
224 91 607
225 14 532
226 182 728
227 204 978
228 741 786
229 119 191
230 146 583
231 56 420
232 50 493
233 267 934
234 23 212
235 611 889
236 236 932
237 427 892
238 197 741
239 199 789
240 82 610
241 123 468
242 63 443
243 142 539
244 602 561
245 650 992
246 663 947
247 73 790
248 196 361
249 240 972
250 42 552
251 271 641
252 69 193
253 138 389
254 140 486
255 173 996
256 138 797
257 10 520
258 297 643
259 104 549
260 290 691
261 233 702
262 82 351
263 59 163
264 48 503
265 14 424
266 170 717
267 176 497
268 668 911
269 236 621
270 152 714
271 182 640
272 219 944
273 98 706
274 138 183
275 150 954
276 20 596
277 178 189
278 144 219
279 643 943
280 158 198
281 215 625
282 110 461
283 101 592
284 96 684
285 579 816
286 645 947
287 118 790
288 157 944
289 256 895
290 15 431
291 233 962
292 793 774
293 127 185
294 234 634
295 664 948
296 29 604
297 278 697
298 686 985
299 151 795
DEMAND_SECTION
2 95
3 58
4 80
5 97
6 100
7 64
8 63
9 86
10 61
11 62
12 56
13 74
14 78
15 78
16 91
17 85
18 69
19 89
20 83
21 60
22 51
23 55
24 57
25 83
26 67
27 89
28 6
29 1
30 1
31 7
32 2
33 1
34 4
35 6
36 3
37 10
38 5
39 10
40 1
41 7
42 10
COVERAGE_SECTION
2 11 232 109 165 264 194 8 99 72 103 175 179 
3 11 35 184 196 295 246 82 183 286 170 195 279 
4 11 59 52 73 174 229 118 149 278 293 129 274 
5 10 86 185 155 111 197 159 112 40 87 78 
6 11 90 145 176 135 91 80 288 201 275 206 160 
7 11 88 139 259 283 230 106 243 152 127 224 240 
8 11 103 109 165 2 11 30 232 48 264 194 99 
9 11 154 16 162 168 66 84 131 117 263 147 26 
10 9 207 163 177 132 237 169 233 45 38 
11 11 30 282 178 8 241 103 48 95 76 165 77 
12 7 107 74 287 247 108 199 33 
13 11 281 96 62 294 269 271 89 123 46 102 251 
14 11 183 121 245 170 196 35 3 286 184 115 279 
15 11 93 105 235 167 119 94 97 110 56 268 37 
16 11 84 66 9 154 162 263 26 131 168 142 150 
17 11 36 124 205 274 280 138 126 277 293 125 229 
18 11 104 192 190 71 265 214 290 20 137 186 92 
19 11 156 130 113 234 142 252 173 263 26 149 202 
20 9 214 60 122 192 215 186 44 172 100 
21 10 65 61 56 285 37 119 228 15 235 49 
22 9 248 217 219 204 253 148 24 116 50 
23 11 203 236 38 180 272 291 45 114 29 144 249 
24 4 217 22 248 222 
25 10 31 284 273 58 191 213 270 57 40 266 
26 11 263 142 150 252 113 129 156 149 66 131 19 
27 10 250 225 193 257 175 223 276 179 72 99 
28 11 83 76 79 77 241 254 282 143 48 95 11 
29 11 249 114 291 47 23 38 180 45 203 272 236 
30 11 11 178 103 282 8 242 95 109 241 48 165 
31 11 25 284 58 273 191 270 213 57 89 40 266 
32 11 92 218 182 137 71 231 190 242 262 178 95 
33 10 187 133 134 108 256 287 299 107 75 12 
34 10 146 299 55 256 134 187 133 197 239 112 
35 11 196 3 184 246 295 183 286 82 279 14 170 
36 11 17 124 205 138 274 277 280 125 126 293 229 
37 11 119 212 268 94 105 49 15 167 97 65 56 
38 11 180 45 233 23 169 236 203 291 29 114 249 
39 9 151 228 61 292 153 21 120 65 64 
40 11 266 57 270 226 159 5 86 140 155 185 238 
41 11 101 136 255 63 227 176 135 91 145 6 90 
42 11 261 102 210 297 198 123 98 260 62 140 238 
43 11 165 48 259 2 8 99 264 127 232 243 194 
44 8 100 202 173 172 122 215 20 130 
45 11 38 180 233 169 23 236 203 29 291 114 249 
46 6 281 269 152 294 13 271 
47 11 249 29 114 63 291 227 136 101 23 38 41 
48 11 77 241 11 43 282 165 254 8 76 28 79 
49 4 212 37 119 268 
50 11 95 178 204 253 76 83 282 28 241 219 182 
51 9 285 21 157 209 56 65 151 235 237 
52 11 149 4 252 59 142 229 113 129 130 156 174 
53 11 147 158 181 131 168 162 9 126 200 150 66 
54 6 208 115 121 14 183 245 
55 8 299 146 197 34 112 256 111 108 
56 11 65 235 15 93 157 105 119 37 167 21 285 
57 11 266 40 270 226 140 159 98 5 86 238 155 
58 8 273 213 25 284 31 191 270 78 
59 8 174 4 73 52 118 149 278 229 
60 7 214 186 122 20 262 192 137 
61 9 21 65 228 153 49 37 56 119 212 
62 11 13 96 89 294 102 281 271 261 123 140 98 
63 11 227 101 136 41 47 114 249 255 291 29 145 
64 10 244 39 151 292 228 120 153 61 21 51 
65 11 56 21 61 37 119 15 235 105 93 285 49 
66 11 16 84 263 162 9 26 154 131 150 142 113 
67 11 200 138 125 158 36 17 277 124 205 181 126 
68 9 195 82 246 295 184 3 268 35 94 
69 5 128 81 75 247 12 
70 4 85 161 239 34 
71 11 92 137 32 190 218 231 182 262 104 186 18 
72 10 175 194 264 99 179 193 232 2 257 109 
73 11 118 278 4 216 59 174 229 293 280 274 52 
74 7 107 287 199 12 78 108 256 
75 9 33 133 12 187 134 108 287 107 247 
76 11 28 83 241 77 79 254 282 95 48 11 178 
77 11 254 28 79 76 241 83 48 282 143 11 95 
78 8 155 111 185 86 112 74 213 5 
79 11 28 254 77 83 76 241 143 282 267 48 11 
80 9 221 206 288 90 275 6 201 211 91 
81 6 128 247 69 189 12 199 
82 11 246 295 184 3 35 196 286 68 279 195 97 
83 11 28 76 79 77 241 254 282 143 95 50 48 
84 11 16 66 154 9 263 162 26 19 131 142 113 
85 6 70 239 161 34 146 55 
86 9 5 155 185 111 197 78 112 159 40 
87 10 159 238 197 5 226 239 185 86 111 55 
88 11 7 139 106 230 283 259 224 152 243 127 240 
89 11 271 140 62 13 57 98 266 198 40 270 31 
90 11 6 91 288 135 275 80 176 145 206 211 221 
91 10 135 90 176 275 6 211 288 145 255 80 
92 11 32 218 137 71 182 231 190 262 242 148 186 
93 10 15 235 105 167 110 97 94 119 56 157 
94 11 97 167 268 105 110 119 82 279 15 246 286 
95 11 178 282 50 11 30 241 76 83 28 182 77 
96 11 294 13 62 269 281 123 251 102 271 261 89 
97 11 167 110 94 105 279 268 286 82 246 295 15 
98 11 198 140 210 226 261 238 57 266 40 42 159 
99 11 264 72 194 175 232 2 193 179 165 109 8 
100 8 44 202 173 172 122 215 130 20 
101 11 41 136 255 63 227 176 135 145 91 6 47 
102 11 123 42 261 297 62 210 96 198 260 98 251 
103 11 8 109 30 242 11 2 165 232 178 282 194 
104 10 18 190 265 290 71 231 192 92 137 32 
105 11 167 15 94 97 119 93 110 268 235 37 279 
106 11 139 230 88 7 283 224 152 240 259 243 271 
107 7 287 74 108 12 256 187 199 
108 9 256 287 187 107 33 133 299 12 134 
109 11 2 232 8 103 194 264 165 99 72 30 242 
110 11 97 167 279 94 286 105 82 93 246 15 268 
111 8 112 185 197 5 86 155 55 78 
112 7 111 197 55 185 299 5 78 
113 11 156 142 252 130 19 149 26 263 52 173 234 
114 11 249 29 291 23 47 272 38 180 203 227 63 
115 8 54 121 14 245 208 183 170 196 
116 5 267 143 79 22 83 
117 11 154 9 168 16 84 162 66 147 53 131 263 
118 11 278 73 216 280 4 229 274 293 124 205 59 
119 11 37 268 105 94 167 15 97 212 93 110 68 
120 6 292 153 228 39 61 49 
121 11 14 183 245 54 115 196 208 170 35 286 3 
122 6 60 20 214 44 100 186 
123 11 102 251 297 96 42 260 261 62 294 258 13 
124 11 205 17 36 280 274 277 138 293 125 118 126 
125 10 138 277 205 36 124 280 17 274 278 67 
126 11 293 274 229 17 129 181 36 150 124 205 280 
127 11 223 259 250 283 7 224 240 88 43 193 27 
128 8 81 69 247 12 75 189 199 74 
129 11 150 229 26 149 126 293 252 52 142 131 263 
130 11 156 113 19 173 142 252 234 149 202 52 26 
131 11 162 181 150 129 26 147 263 66 126 158 53 
132 11 163 177 169 45 233 38 180 29 249 47 114 
133 10 134 187 33 108 256 299 34 146 287 55 
134 9 133 187 33 256 108 34 299 146 55 
135 10 91 176 90 6 275 255 145 211 288 136 
136 11 227 41 101 63 176 145 255 6 135 91 90 
137 11 218 92 32 71 262 182 186 190 231 148 214 
138 10 125 277 205 36 124 17 280 274 67 126 
139 11 106 88 283 7 224 230 240 259 127 152 243 
140 11 98 198 57 266 226 40 89 210 238 261 159 
141 9 260 297 258 123 251 42 102 261 210 
142 11 113 252 156 149 130 26 19 263 52 129 150 
143 8 267 79 254 77 28 83 76 241 
144 5 236 203 23 272 160 
145 9 6 176 90 227 136 160 201 135 91 
146 8 34 55 299 256 197 112 134 187 
147 11 53 158 181 131 162 168 9 126 150 66 129 
148 10 253 262 219 204 137 218 32 92 182 186 
149 11 52 252 142 113 156 129 4 130 26 150 229 
150 11 129 26 131 126 263 149 229 252 142 293 52 
151 9 39 61 21 228 153 65 292 285 56 
152 7 230 243 88 7 106 46 139 
153 6 228 292 61 49 120 21 
154 11 9 16 84 66 162 168 117 263 131 26 147 
155 10 86 185 5 78 111 112 197 213 270 40 
156 11 113 142 130 252 19 149 26 263 173 234 52 
157 8 235 209 93 56 15 285 105 167 
158 11 181 147 53 126 131 200 17 36 67 274 150 
159 11 226 238 87 5 40 266 86 185 57 197 155 
160 5 201 272 145 6 203 
161 5 70 85 239 87 34 
162 11 131 9 66 16 168 84 147 263 154 26 53 
163 11 132 177 169 45 233 38 180 29 249 47 114 
164 11 220 67 222 200 125 138 277 36 158 17 205 
165 11 2 8 43 109 232 99 48 264 194 103 11 
166 11 296 188 276 27 240 223 250 224 127 191 225 
167 11 97 110 94 105 15 268 93 279 119 286 82 
168 11 9 162 147 53 154 16 131 66 84 117 181 
169 11 233 45 180 38 23 236 203 29 289 291 144 
170 11 183 245 171 14 3 35 298 196 184 121 295 
171 9 298 170 245 183 3 14 35 195 196 
172 9 215 44 100 202 20 173 122 234 192 
173 10 202 130 100 234 19 44 156 113 142 252 
174 6 59 4 73 52 118 278 
175 10 72 179 193 194 99 264 257 225 232 2 
176 11 6 135 91 145 90 136 255 41 227 275 101 
177 11 163 132 169 233 45 38 180 29 249 114 47 
178 11 95 30 282 11 241 50 242 76 103 182 83 
179 10 175 72 194 257 264 193 99 232 225 2 
180 11 38 45 233 169 23 236 203 291 29 114 249 
181 11 158 131 126 147 53 150 129 17 274 293 36 
182 11 32 218 92 137 231 178 71 95 242 50 30 
183 11 14 170 196 35 121 245 3 184 286 246 279 
184 11 295 246 3 35 82 196 286 279 195 68 183 
185 8 86 5 155 111 197 112 78 159 
186 9 262 60 214 137 20 122 192 71 218 
187 9 33 133 134 108 256 299 287 146 34 
188 11 296 166 276 240 223 224 127 250 27 283 191 
189 5 199 247 74 12 78 
190 11 71 104 231 265 290 92 18 32 137 218 242 
191 8 284 25 273 31 58 240 213 224 
192 11 20 214 18 215 60 186 122 104 71 262 190 
193 10 175 72 99 179 225 250 194 264 257 27 
194 11 264 72 232 99 2 175 179 109 193 165 8 
195 7 68 295 184 246 3 82 35 
196 11 35 3 184 286 246 295 183 279 82 14 170 
197 9 111 112 55 185 5 86 299 87 146 
198 11 98 210 140 261 42 226 238 57 266 102 40 
199 7 74 189 78 107 12 287 247 
200 11 67 158 138 36 17 125 181 277 124 205 53 
201 5 160 206 80 145 6 
202 9 173 100 44 234 130 172 19 156 113 
203 8 236 23 272 144 291 180 38 160 
204 11 219 253 50 148 248 95 22 182 83 178 76 
205 11 124 280 277 36 17 138 274 125 278 293 118 
206 7 80 221 288 201 90 275 6 
207 3 10 237 209 
208 5 54 121 115 14 279 
209 5 157 235 93 15 56 
210 11 198 261 98 42 140 238 102 226 159 266 57 
211 9 275 288 91 90 135 80 221 206 6 
212 8 37 268 49 119 68 94 105 82 
213 10 58 273 78 155 270 86 25 199 185 5 
214 9 60 20 186 192 122 262 215 137 18 
215 9 172 20 192 44 100 122 214 60 202 
216 7 278 118 73 280 174 4 205 
217 4 248 22 219 24 
218 11 32 92 137 182 71 231 262 190 148 186 242 
219 11 204 253 148 50 248 22 182 95 218 32 178 
220 11 164 67 200 158 53 147 222 138 125 36 181 
221 8 80 206 288 90 275 201 211 6 
222 8 125 138 277 205 67 280 124 36 
223 11 127 250 27 240 296 283 193 224 276 259 188 
224 11 240 283 139 88 106 7 127 223 188 259 230 
225 10 257 27 193 175 179 250 72 99 194 264 
226 11 159 266 40 238 57 140 98 87 5 270 198 
227 11 136 63 41 145 101 176 6 114 291 249 255 
228 7 153 292 61 120 49 21 39 
229 11 293 274 126 4 129 73 118 52 150 149 278 
230 9 106 152 88 7 139 243 283 259 224 
231 11 242 32 190 92 71 182 218 265 290 137 103 
232 11 194 264 2 109 72 99 175 179 8 165 103 
233 11 169 45 180 38 236 23 203 289 144 29 291 
234 11 19 130 202 173 156 113 142 252 100 44 149 
235 10 93 15 157 105 56 167 110 97 119 94 
236 8 203 23 144 272 38 180 45 291 
237 5 207 10 209 177 163 
238 11 159 226 87 98 198 210 266 40 140 57 5 
239 9 85 87 34 146 55 70 197 238 299 
240 11 224 283 139 188 223 127 88 106 296 7 191 
241 11 76 77 28 282 83 79 254 11 48 95 178 
242 10 103 231 30 109 178 8 11 182 32 95 
243 9 152 7 259 230 88 43 254 267 143 
244 9 64 151 39 51 21 285 61 228 65 
245 11 170 14 183 121 171 35 196 3 115 298 184 
246 11 295 82 184 3 35 196 286 279 68 195 183 
247 8 12 189 74 199 107 287 108 128 
248 7 22 217 219 204 253 148 50 
249 11 29 114 291 47 23 38 180 272 203 227 63 
250 11 27 193 223 225 127 175 99 72 257 179 264 
251 11 258 123 294 96 269 102 260 297 13 281 62 
252 11 142 113 156 149 130 26 52 19 263 129 150 
253 11 219 204 148 50 182 95 218 32 248 92 137 
254 11 77 79 28 76 83 143 241 48 267 282 11 
255 10 41 101 135 136 176 91 227 63 6 90 
256 8 108 299 187 55 287 146 33 107 
257 10 225 179 175 193 72 27 194 264 99 250 
258 11 251 123 260 297 294 96 269 102 42 141 13 
259 11 7 43 127 88 243 283 139 223 230 48 106 
260 11 297 123 102 42 258 251 261 141 96 210 62 
261 11 42 210 102 198 98 123 140 62 297 238 96 
262 9 186 137 60 214 148 218 92 71 32 
263 11 26 142 66 113 252 156 150 19 129 84 131 
264 11 194 72 99 232 2 175 179 109 193 165 8 
265 9 290 104 190 231 242 71 18 92 103 
266 11 40 57 226 270 140 159 5 86 98 238 155 
267 7 143 79 254 77 28 83 76 
268 11 94 119 97 167 105 212 37 68 82 110 246 
269 11 294 281 96 13 251 46 62 123 271 258 102 
270 11 40 57 266 155 86 226 5 213 159 185 140 
271 11 89 13 281 62 96 294 269 46 140 106 230 
272 7 203 23 236 160 291 144 114 
273 7 58 284 25 213 191 31 189 
274 11 293 17 124 126 229 36 205 280 118 278 73 
275 9 211 288 90 91 80 135 221 6 206 
276 11 296 188 166 27 223 250 127 225 240 193 224 
277 10 125 138 205 124 280 36 17 274 278 118 
278 11 118 216 73 280 4 205 274 124 229 293 59 
279 11 286 110 196 82 246 35 97 184 295 3 167 
280 11 205 124 277 274 278 17 36 118 138 216 293 
281 10 13 269 294 96 271 46 62 89 251 123 
282 11 11 241 178 95 76 30 28 77 83 48 79 
283 11 139 224 88 240 7 106 127 259 230 223 152 
284 7 191 25 273 58 31 213 270 
285 9 157 56 21 65 235 209 51 15 93 
286 11 279 196 35 184 246 82 295 3 110 97 183 
287 7 107 108 74 12 256 187 33 
288 9 80 221 275 90 206 211 6 91 135 
289 7 144 233 236 169 45 180 38 
290 9 265 190 104 231 242 71 103 109 18 
291 11 114 249 29 23 272 203 38 180 236 47 227 
292 6 120 153 228 61 39 49 
293 11 229 274 126 17 124 118 129 280 36 4 73 
294 11 269 96 281 13 62 251 123 271 46 102 258 
295 11 246 184 82 3 35 196 286 68 195 279 183 
296 11 276 188 166 223 27 240 250 127 224 283 225 
297 11 260 102 123 42 261 251 258 210 96 198 62 
298 8 171 170 195 3 245 35 183 184 
299 8 55 146 256 34 112 187 108 197 
DEPOT_SECTION
   1
   -1
EOF
