NAME :  X-n449-kX-w89-c11.cctp
COMMENT : 	Adapted by Maziero, Usberti and Cavellucci from the Uchoa, Pecin, Pessoa, Poggi, Subramanian, and Vidal (2013)
TYPE :  CCTP
DIMENSION :    417
EDGE_WEIGHT_TYPE : 	EUC_2D	
CAPACITY : 	777
VERTICES_WITHIN_COVERAGE :  11
VERTICES_WITH_DEMAND : 	89
NODE_COORD_SECTION
1 0 0
2 300 71
3 434 4
4 257 798
5 718 17
6 879 206
7 929 330
8 353 793
9 389 540
10 202 55
11 417 253
12 921 572
13 94 788
14 870 327
15 281 124
16 411 288
17 882 116
18 307 240
19 359 935
20 352 858
21 502 776
22 269 33
23 440 814
24 850 461
25 909 404
26 339 458
27 767 535
28 86 47
29 758 532
30 426 282
31 534 10
32 826 830
33 911 79
34 270 791
35 391 794
36 908 787
37 929 858
38 938 281
39 941 579
40 752 162
41 579 68
42 323 570
43 238 700
44 853 970
45 329 805
46 651 486
47 291 631
48 286 481
49 855 547
50 972 378
51 561 490
52 205 741
53 528 672
54 664 605
55 462 532
56 340 54
57 929 941
58 936 46
59 864 654
60 501 495
61 339 10
62 324 595
63 585 893
64 73 401
65 244 926
66 190 659
67 900 929
68 525 878
69 832 622
70 228 662
71 36 578
72 897 292
73 492 426
74 958 546
75 674 303
76 312 781
77 320 557
78 226 264
79 446 702
80 470 746
81 613 620
82 710 289
83 439 15
84 148 352
85 371 115
86 414 108
87 693 626
88 703 31
89 798 932
90 170 723
91 700 554
92 569 984
93 801 849
94 139 150
95 907 964
96 757 670
97 490 37
98 311 927
99 210 657
100 357 320
101 677 558
102 1 599
103 464 579
104 39 430
105 379 863
106 355 233
107 974 313
108 315 294
109 846 911
110 997 585
111 214 331
112 407 584
113 775 225
114 244 761
115 433 941
116 771 792
117 381 345
118 188 643
119 292 735
120 526 487
121 540 762
122 392 298
123 748 473
124 123 885
125 896 666
126 882 844
127 656 366
128 715 918
129 505 341
130 475 831
131 430 827
132 489 629
133 765 883
134 388 981
135 817 650
136 192 532
137 767 488
138 488 690
139 414 436
140 226 976
141 308 756
142 509 647
143 985 906
144 778 941
145 45 137
146 81 276
147 591 702
148 664 79
149 363 607
150 529 992
151 361 670
152 425 296
153 714 61
154 152 660
155 236 900
156 670 265
157 194 950
158 991 139
159 320 583
160 317 732
161 437 745
162 166 556
163 362 207
164 319 725
165 216 807
166 284 793
167 380 466
168 879 171
169 635 910
170 23 49
171 304 234
172 304 700
173 132 663
174 525 767
175 997 129
176 200 771
177 145 449
178 191 188
179 965 27
180 602 777
181 994 807
182 912 153
183 192 474
184 373 626
185 452 913
186 650 266
187 367 905
188 707 243
189 247 86
190 951 396
191 381 147
192 622 68
193 435 179
194 829 919
195 467 557
196 521 617
197 302 515
198 418 680
199 831 70
200 917 369
201 981 425
202 876 779
203 485 294
204 439 979
205 373 336
206 445 807
207 594 805
208 898 130
209 833 707
210 582 152
211 795 991
212 469 520
213 847 620
214 482 33
215 906 903
216 507 591
217 582 69
218 663 401
219 570 103
220 816 427
221 286 816
222 344 97
223 763 175
224 153 254
225 784 886
226 947 357
227 283 214
228 732 938
229 979 69
230 596 302
231 263 331
232 716 484
233 349 425
234 622 447
235 658 154
236 722 540
237 457 775
238 755 326
239 321 894
240 438 207
241 132 347
242 666 5
243 539 973
244 508 576
245 790 584
246 835 367
247 460 1
248 168 983
249 531 101
250 187 224
251 166 368
252 113 512
253 351 913
254 432 956
255 75 828
256 671 529
257 724 22
258 921 532
259 717 296
260 402 668
261 444 83
262 195 955
263 833 413
264 969 601
265 243 384
266 46 448
267 334 591
268 516 345
269 979 904
270 94 309
271 237 920
272 910 520
273 886 385
274 539 808
275 746 888
276 26 603
277 836 442
278 147 144
279 754 310
280 923 928
281 324 85
282 387 412
283 484 17
284 605 970
285 427 591
286 933 93
287 990 355
288 536 845
289 296 1000
290 158 562
291 648 685
292 130 810
293 663 619
294 642 583
295 667 885
296 255 761
297 336 521
298 583 849
299 703 45
300 718 288
301 760 984
302 833 412
303 229 296
304 982 954
305 889 715
306 786 610
307 958 642
308 850 134
309 490 982
310 272 789
311 417 46
312 411 740
313 925 548
314 87 425
315 980 299
316 330 462
317 829 128
318 966 431
319 540 389
320 249 633
321 24 912
322 2 667
323 300 206
324 5 919
325 630 330
326 751 349
327 216 314
328 862 885
329 251 533
330 481 446
331 557 899
332 788 560
333 365 273
334 512 96
335 879 619
336 77 850
337 989 364
338 486 57
339 475 14
340 451 667
341 382 331
342 639 940
343 307 581
344 63 396
345 996 593
346 47 631
347 977 840
348 990 13
349 458 762
350 377 639
351 464 348
352 56 534
353 226 964
354 746 109
355 828 428
356 798 863
357 87 343
358 222 330
359 706 670
360 947 294
361 654 559
362 333 230
363 813 426
364 943 15
365 868 284
366 553 878
367 443 317
368 500 710
369 815 983
370 969 727
371 740 523
372 647 40
373 999 394
374 236 999
375 579 476
376 438 242
377 297 913
378 162 816
379 725 582
380 178 67
381 808 54
382 843 80
383 1000 36
384 484 651
385 53 823
386 526 570
387 411 657
388 554 145
389 962 430
390 204 527
391 61 638
392 307 292
393 799 580
394 273 266
395 507 816
396 740 604
397 534 864
398 456 118
399 254 162
400 427 857
401 339 265
402 303 930
403 266 296
404 21 590
405 90 656
406 694 561
407 456 972
408 754 612
409 866 302
410 337 390
411 192 588
412 933 496
413 448 357
414 267 811
415 797 680
416 447 79
417 821 367
DEMAND_SECTION
2 35
3 74
4 5
5 43
6 27
7 97
8 68
9 77
10 78
11 8
12 66
13 15
14 92
15 3
16 90
17 39
18 57
19 29
20 82
21 81
22 4
23 90
24 9
25 95
26 6
27 82
28 66
29 50
30 83
31 48
32 4
33 54
34 45
35 64
36 77
37 96
38 56
39 44
40 25
41 18
42 23
43 74
44 69
45 8
46 9
47 70
48 42
49 25
50 73
51 61
52 41
53 38
54 35
55 97
56 97
57 3
58 62
59 79
60 87
61 52
62 85
63 21
64 50
65 18
66 38
67 30
68 48
69 80
70 19
71 15
72 33
73 28
74 83
75 19
76 58
77 67
78 53
79 78
80 97
81 28
82 61
83 2
84 99
85 21
86 12
87 86
88 64
89 1
90 71
COVERAGE_SECTION
2 11 281 56 22 222 189 15 61 85 10 399 191 
3 11 83 247 339 311 283 214 97 338 416 261 61 
4 11 34 414 310 166 221 296 114 165 76 176 141 
5 11 257 88 299 153 242 372 148 354 381 192 199 
6 11 168 182 208 308 365 72 17 317 38 409 113 
7 11 226 360 200 107 38 72 14 315 50 287 337 
8 11 45 35 76 141 20 166 160 221 105 164 312 
9 10 112 297 285 77 42 149 55 167 267 195 
10 11 380 189 22 2 15 278 94 28 399 281 178 
11 11 376 30 16 152 122 240 333 106 367 163 193 
12 11 39 313 258 74 272 264 335 49 110 412 345 
13 11 292 255 385 336 378 90 124 176 52 165 173 
14 11 409 365 72 246 7 273 200 417 38 226 360 
15 11 399 189 2 281 222 323 85 227 22 56 191 
16 11 30 152 122 11 367 333 341 376 205 100 117 
17 11 208 308 33 182 382 317 168 286 199 58 6 
18 11 171 362 227 323 401 394 106 392 108 163 333 
19 11 253 187 98 134 239 402 377 115 105 254 20 
20 11 105 239 187 253 45 8 35 400 19 221 377 
21 11 174 121 395 80 237 349 274 130 206 368 161 
22 11 2 189 10 56 61 281 15 380 222 399 85 
23 11 206 131 130 237 400 35 349 395 161 21 80 
24 11 277 355 220 263 363 302 25 272 273 49 137 
25 11 273 200 190 389 226 318 50 201 302 7 263 
26 11 316 233 167 48 297 282 197 410 139 9 77 
27 11 29 371 332 236 137 245 393 379 123 91 232 
28 8 170 380 145 278 10 94 189 178 
29 11 27 371 236 332 137 123 379 245 91 393 232 
30 11 152 16 11 122 367 376 203 333 341 205 240 
31 11 283 97 214 339 338 41 247 217 334 249 83 
32 11 93 356 126 328 116 225 202 133 109 194 36 
33 11 286 58 17 208 382 229 364 182 179 199 308 
34 11 310 166 4 414 221 296 114 76 141 165 119 
35 11 8 131 23 206 312 45 161 237 105 400 349 
36 11 202 126 37 305 370 347 181 32 328 209 215 
37 11 126 215 347 269 280 328 36 143 67 57 181 
38 11 360 72 315 107 7 365 409 226 14 200 287 
39 11 12 313 264 74 258 110 345 307 272 335 412 
40 11 223 354 113 317 188 235 308 153 148 199 381 
41 11 217 219 192 249 31 334 372 388 210 148 97 
42 11 77 159 343 267 62 297 149 197 47 9 184 
43 11 70 99 52 114 66 296 119 172 320 90 118 
44 11 369 95 194 109 67 211 89 144 57 280 215 
45 11 8 76 221 166 141 20 310 34 414 35 4 
46 11 256 234 232 361 375 101 91 218 406 236 51 
47 11 320 62 343 159 267 42 70 172 149 77 151 
48 11 197 316 26 329 297 77 233 183 390 167 42 
49 11 272 393 258 332 313 12 213 245 335 69 24 
50 11 337 190 287 373 226 201 318 389 200 7 107 
51 11 375 120 60 234 386 46 330 73 212 244 319 
52 11 176 90 114 43 296 165 4 34 70 310 66 
53 11 142 138 368 384 196 132 147 340 216 79 121 
54 11 293 294 87 361 101 81 406 91 379 256 396 
55 10 212 195 103 60 244 285 9 216 386 112 
56 11 281 2 222 61 85 22 311 15 86 189 191 
57 11 280 67 95 215 304 269 143 44 37 328 109 
58 11 364 179 33 286 229 348 383 17 208 382 175 
59 11 125 213 335 69 135 209 305 415 306 307 393 
60 11 120 212 330 55 51 73 195 386 375 244 103 
61 11 56 2 22 281 311 222 3 83 85 189 247 
62 11 267 159 343 42 77 149 47 184 350 297 197 
63 11 331 366 298 169 397 68 288 342 284 295 207 
64 11 344 314 104 266 357 241 177 84 270 251 252 
65 11 271 155 353 140 157 377 262 402 98 374 239 
66 11 118 99 70 154 173 43 320 90 411 52 405 
67 11 280 215 57 95 109 328 44 194 37 269 304 
68 11 397 366 288 331 63 298 395 130 274 185 243 
69 10 213 135 59 335 306 393 245 415 332 49 
70 11 99 320 66 43 118 47 154 52 411 90 172 
71 11 404 276 102 352 346 391 322 405 252 290 173 
72 11 365 409 38 14 7 360 107 200 226 315 6 
73 11 330 319 60 120 139 413 351 268 129 51 212 
74 11 313 39 258 12 110 272 264 412 345 307 49 
75 10 156 82 186 259 300 325 127 188 230 279 
76 11 141 45 166 310 8 34 221 160 119 414 164 
77 11 42 159 343 267 62 297 197 149 9 329 47 
78 11 303 394 327 403 250 358 111 224 227 231 18 
79 11 340 198 138 161 80 312 368 260 387 349 384 
80 11 349 237 161 21 368 79 138 174 312 206 121 
81 11 294 293 54 361 291 87 147 101 196 53 386 
82 11 300 259 75 188 156 279 238 186 326 325 113 
83 11 3 247 339 311 283 214 97 338 416 261 31 
84 11 241 251 357 111 270 358 327 64 314 344 177 
85 11 222 191 86 281 56 261 311 2 416 398 15 
86 11 261 398 85 416 191 311 222 193 338 56 281 
87 10 293 54 359 396 379 408 406 294 101 91 
88 11 299 5 257 153 242 372 148 192 354 381 217 
89 11 144 194 225 109 369 133 211 301 228 44 275 
90 11 52 176 154 66 173 43 99 118 114 70 296 
91 11 406 101 236 256 379 361 371 29 54 396 294 
92 11 243 284 150 309 342 331 63 169 366 407 68 
93 11 356 32 225 133 116 275 328 194 109 126 89 
94 8 278 178 250 380 145 224 10 28 
95 11 57 67 280 44 215 304 109 194 328 269 369 
96 7 415 359 408 135 306 396 87 
97 11 214 338 283 339 247 31 83 416 334 3 261 
98 11 402 377 239 253 19 187 65 271 289 20 155 
99 11 70 66 118 320 43 154 411 90 173 52 47 
100 9 205 341 117 122 333 108 392 401 16 
101 11 406 91 361 256 294 236 54 379 293 87 371 
102 11 404 276 71 346 322 391 352 405 252 173 266 
103 9 195 285 244 216 55 132 112 212 386 
104 11 266 344 64 314 357 352 177 252 241 270 84 
105 11 20 187 400 253 131 239 35 8 19 45 23 
106 11 362 163 401 333 18 171 323 11 108 227 122 
107 11 315 360 287 7 38 226 337 50 72 200 373 
108 9 392 401 100 403 394 333 18 171 231 
109 11 194 328 89 67 44 215 225 356 144 126 93 
110 11 345 264 74 39 307 12 313 258 272 412 335 
111 10 358 327 303 231 265 251 403 78 84 241 
112 8 285 9 149 184 103 350 195 267 
113 11 223 40 188 300 279 82 259 238 6 365 317 
114 11 296 4 34 310 52 176 166 165 119 414 43 
115 11 254 185 204 407 134 309 19 187 400 253 105 
116 7 93 32 356 133 225 275 209 
117 9 205 341 100 122 410 16 152 282 367 
118 11 66 99 154 70 411 173 320 43 90 290 162 
119 11 160 141 164 172 296 76 114 310 166 34 43 
120 11 60 51 375 330 212 73 55 386 244 195 319 
121 11 174 21 274 395 180 368 207 80 147 349 288 
122 10 16 152 341 333 30 100 205 117 11 367 
123 10 137 232 371 29 27 236 363 220 355 277 
124 10 336 255 292 378 385 157 262 13 321 248 
125 11 59 305 335 307 213 209 69 135 370 12 39 
126 11 328 37 32 36 215 202 109 93 356 67 194 
127 11 218 325 75 230 234 259 82 326 186 300 156 
128 11 228 275 295 133 144 225 342 169 301 89 356 
129 7 268 351 203 319 413 367 73 
130 11 395 206 23 131 400 237 21 288 274 397 68 
131 11 23 206 400 130 35 237 105 349 395 161 8 
132 9 384 142 196 216 340 103 244 53 138 
133 10 225 275 356 93 89 144 128 228 194 32 
134 11 204 254 19 115 407 253 187 185 98 289 402 
135 9 69 415 213 59 306 209 96 335 245 
136 10 390 162 290 411 183 329 252 177 48 118 
137 10 123 371 29 27 232 236 332 363 220 277 
138 11 368 384 53 79 340 142 80 132 198 161 349 
139 11 282 167 233 330 26 73 413 316 410 117 212 
140 11 353 374 262 157 65 271 248 289 155 402 377 
141 11 76 119 160 164 166 310 34 45 296 172 8 
142 9 384 132 53 196 138 216 340 368 244 
143 11 269 304 57 280 347 37 215 67 95 181 126 
144 11 89 228 301 211 225 194 369 133 275 128 109 
145 6 170 94 28 278 146 380 
146 6 270 357 224 241 84 250 
147 11 291 53 180 121 81 368 174 142 207 138 196 
148 11 192 372 299 153 88 242 235 5 217 257 41 
149 10 184 267 350 62 159 112 42 343 151 77 
150 11 243 309 92 407 284 204 331 254 115 185 63 
151 10 350 260 184 387 198 149 172 164 160 47 
152 11 30 16 367 122 11 341 376 203 333 351 413 
153 11 299 88 257 5 148 354 372 242 192 381 40 
154 11 173 66 118 99 405 90 70 411 391 43 52 
155 11 271 65 377 157 353 262 402 140 98 239 414 
156 9 186 75 188 82 300 259 325 230 279 
157 11 262 353 140 248 271 65 155 374 124 377 402 
158 11 175 229 286 182 208 33 383 58 17 179 168 
159 11 42 62 343 267 77 149 47 297 184 197 350 
160 11 164 119 141 172 76 296 166 8 310 45 34 
161 11 312 349 80 237 79 206 35 198 23 21 368 
162 10 290 136 411 390 252 183 329 118 154 66 
163 11 106 362 323 401 191 18 171 333 11 240 193 
164 11 160 119 172 141 76 151 296 8 166 310 45 
165 11 176 4 414 114 378 34 310 296 52 166 221 
166 11 310 34 221 414 4 76 296 141 45 114 119 
167 11 26 139 316 233 282 297 9 410 197 48 330 
168 11 6 182 208 308 17 317 286 33 382 199 365 
169 10 342 295 63 284 331 128 298 366 92 228 
170 6 28 145 94 278 380 10 
171 11 18 323 227 362 394 401 106 392 108 163 333 
172 11 164 160 119 141 151 43 47 296 76 70 114 
173 11 154 405 66 118 90 391 99 346 70 411 290 
174 11 121 21 274 395 80 368 349 237 180 207 288 
175 11 158 229 286 182 383 33 208 58 179 17 348 
176 11 52 165 114 296 90 378 4 34 310 414 292 
177 10 183 314 252 251 64 136 84 344 390 266 
178 9 250 278 94 399 224 78 227 15 323 
179 11 364 348 58 383 229 286 33 175 158 17 208 
180 8 207 121 274 298 147 174 288 21 
181 11 347 37 370 36 269 143 126 202 215 280 305 
182 11 208 168 17 6 286 308 33 158 317 175 382 
183 10 177 390 136 329 162 252 48 290 265 251 
184 9 350 149 151 387 260 267 112 62 285 
185 11 115 254 407 400 204 309 68 130 187 105 131 
186 8 156 75 188 82 230 325 300 259 
187 11 253 19 105 239 20 98 402 377 115 400 134 
188 11 156 82 300 259 186 75 113 279 223 40 238 
189 11 15 2 10 22 380 399 281 56 222 178 278 
190 11 50 389 318 226 201 25 200 373 337 287 273 
191 11 85 86 222 163 193 398 240 281 106 261 416 
192 11 372 217 41 148 219 242 299 88 153 210 235 
193 10 240 191 376 398 86 11 163 85 261 106 
194 11 109 89 328 44 144 225 356 369 67 133 93 
195 9 103 55 212 244 216 285 386 112 60 
196 10 216 142 132 244 386 384 53 103 138 195 
197 11 297 48 77 329 42 316 343 26 159 267 62 
198 10 260 387 340 79 151 350 312 161 184 138 
199 11 382 381 317 308 17 33 208 354 286 58 168 
200 11 226 273 25 7 190 50 14 337 287 389 318 
201 11 318 389 373 190 50 337 287 25 226 200 412 
202 11 36 126 305 32 209 37 93 116 328 370 125 
203 9 367 129 351 30 152 268 376 413 16 
204 11 407 254 115 134 309 185 19 150 243 187 253 
205 9 341 117 100 122 16 333 410 152 108 
206 11 23 131 237 130 349 400 35 161 395 21 80 
207 10 180 298 274 121 288 174 366 397 63 395 
208 11 17 182 168 308 286 33 317 382 6 199 58 
209 9 415 305 135 59 125 202 69 96 213 
210 8 388 219 249 235 217 41 334 192 
211 11 369 301 144 89 44 194 228 109 225 128 133 
212 11 55 195 60 103 120 244 330 386 216 9 285 
213 10 69 335 59 135 306 393 125 245 49 415 
214 11 97 283 339 338 247 83 3 31 416 261 311 
215 11 67 280 57 328 37 95 109 126 269 143 194 
216 10 244 386 196 132 103 195 142 384 55 285 
217 11 41 219 192 249 372 334 31 388 148 210 97 
218 10 127 234 325 46 232 75 326 123 375 259 
219 11 41 217 249 388 210 334 192 338 148 372 31 
220 10 363 355 263 302 277 24 417 246 137 123 
221 11 414 166 34 310 4 45 76 296 141 114 8 
222 11 281 85 56 2 191 15 86 61 311 189 22 
223 11 40 113 354 317 188 308 235 168 6 300 153 
224 9 250 78 146 178 270 303 327 241 84 
225 11 133 356 275 93 89 144 194 109 32 228 128 
226 11 7 200 50 190 287 337 107 25 360 373 273 
227 11 323 171 18 362 394 399 106 78 401 163 392 
228 11 128 144 275 301 133 89 225 211 295 342 369 
229 11 383 179 58 286 348 175 364 33 158 208 182 
230 3 325 186 75 
231 10 403 358 111 303 327 265 392 108 394 78 
232 10 123 371 137 236 29 256 46 27 91 406 
233 9 26 410 282 316 167 139 48 117 205 
234 11 46 375 218 51 127 256 319 232 120 361 325 
235 11 148 210 192 40 354 188 219 388 223 153 156 
236 11 371 91 406 29 379 27 101 256 232 396 137 
237 11 349 80 206 161 23 21 312 130 131 395 174 
238 11 279 326 259 300 82 417 75 246 188 113 156 
239 11 377 98 253 402 187 20 19 105 65 155 221 
240 10 193 376 11 30 163 191 16 106 152 398 
241 11 84 251 357 270 64 111 344 146 314 327 358 
242 11 372 88 5 299 257 148 153 192 217 41 354 
243 11 150 92 309 284 331 407 63 68 366 204 342 
244 10 216 386 196 103 195 132 55 212 142 384 
245 10 393 332 306 408 27 396 69 29 379 213 
246 11 417 302 263 14 273 355 220 363 409 277 200 
247 11 339 83 3 283 214 97 311 338 31 416 261 
248 10 262 157 140 353 374 271 65 155 124 289 
249 11 334 219 388 41 217 338 210 97 398 214 416 
250 9 178 224 78 303 94 278 399 327 394 
251 11 84 241 111 358 327 265 357 177 270 303 314 
252 10 352 290 162 177 136 183 314 390 266 71 
253 11 187 19 239 98 402 377 20 105 134 115 254 
254 11 115 204 407 185 134 309 19 187 253 400 150 
255 11 336 385 13 292 124 378 321 324 176 90 165 
256 11 101 361 91 406 46 236 294 232 371 54 379 
257 11 5 88 299 153 242 372 148 354 381 192 199 
258 11 272 313 412 12 74 39 49 264 110 335 345 
259 11 300 82 279 75 238 188 156 326 186 113 127 
260 9 387 198 350 151 340 184 79 149 312 
261 11 416 398 86 311 338 214 97 83 334 339 283 
262 11 157 353 140 248 271 65 374 155 124 377 289 
263 10 302 355 220 363 277 246 417 24 273 25 
264 11 345 110 39 307 12 74 313 258 335 125 272 
265 10 231 358 111 327 251 303 403 410 84 183 
266 11 104 314 64 344 352 252 177 357 71 241 84 
267 11 62 159 42 343 149 77 184 47 350 297 112 
268 7 129 319 351 203 413 367 73 
269 11 143 304 280 57 347 37 215 67 95 181 126 
270 9 146 357 241 84 224 344 251 64 314 
271 11 65 155 353 157 262 140 377 402 98 374 239 
272 11 258 313 412 12 74 49 39 24 264 335 389 
273 11 25 200 246 302 14 263 190 226 417 7 355 
274 11 395 288 174 121 21 207 397 298 130 180 68 
275 10 133 225 128 228 356 144 93 89 295 194 
276 11 404 102 71 346 391 322 352 405 173 252 154 
277 10 355 24 220 363 263 302 246 273 417 25 
278 8 94 178 380 250 145 10 399 224 
279 11 238 326 259 300 82 75 188 113 417 156 246 
280 11 57 67 215 95 269 304 143 37 328 109 44 
281 11 222 2 56 85 15 22 61 189 191 86 311 
282 10 139 233 167 410 26 117 316 205 341 413 
283 11 339 214 97 247 338 83 31 3 416 311 261 
284 11 92 342 243 169 150 63 331 295 366 309 68 
285 8 112 103 195 9 184 149 387 55 
286 11 33 58 208 229 17 182 175 179 158 364 383 
287 11 337 50 373 226 107 190 315 7 201 200 360 
288 11 397 68 274 366 395 298 331 130 63 207 21 
289 11 374 402 140 98 353 377 65 19 134 271 253 
290 10 162 411 136 390 252 118 183 329 154 66 
291 8 147 359 293 81 87 54 294 180 
292 11 378 13 255 336 124 385 176 165 90 52 114 
293 11 54 87 294 81 361 101 406 359 291 379 91 
294 11 361 54 293 101 81 406 256 91 87 379 236 
295 9 169 128 342 275 63 228 298 133 284 
296 11 114 310 34 4 166 119 414 141 52 176 76 
297 11 197 77 42 9 316 26 48 159 343 167 267 
298 11 366 63 207 288 397 331 274 68 180 169 395 
299 11 88 153 257 5 148 242 372 354 192 381 235 
300 11 82 259 279 75 188 156 238 326 186 113 325 
301 11 211 144 228 369 89 128 44 194 275 133 225 
302 10 263 355 220 363 277 246 417 24 273 25 
303 10 327 78 358 403 111 231 394 392 250 108 
304 11 143 269 57 280 95 67 215 37 347 44 328 
305 11 125 209 202 59 36 370 135 335 415 307 213 
306 10 245 408 393 396 69 332 135 213 96 379 
307 11 264 345 39 125 110 12 335 370 59 74 305 
308 11 317 17 168 208 382 182 199 6 33 381 286 
309 11 407 150 243 204 254 115 92 185 134 331 68 
310 11 34 166 4 414 221 296 114 76 141 119 45 
311 11 83 3 416 261 86 247 214 339 338 283 97 
312 11 161 79 349 35 237 80 198 260 206 8 23 
313 11 258 12 272 74 39 412 264 49 110 345 335 
314 11 64 344 266 104 177 357 241 252 84 251 352 
315 11 107 360 38 287 7 337 226 50 72 200 373 
316 11 26 233 48 167 297 197 410 282 139 77 9 
317 11 308 382 17 199 168 208 381 223 40 354 182 
318 11 389 201 190 373 50 25 337 412 226 200 287 
319 8 268 129 73 330 351 375 413 120 
320 11 70 47 99 118 66 43 411 343 62 159 172 
321 10 324 336 385 255 124 13 292 248 378 157 
322 11 346 391 102 276 404 405 71 173 352 154 13 
323 11 227 171 18 362 106 163 399 394 401 15 392 
324 10 321 336 385 255 124 13 292 248 378 157 
325 7 127 230 75 186 156 218 82 
326 10 238 279 259 300 417 82 246 75 127 363 
327 10 111 358 303 231 78 403 251 265 394 84 
328 11 109 126 194 215 67 32 356 93 37 280 225 
329 10 390 197 136 48 77 343 42 411 183 159 
330 11 73 60 120 139 212 319 55 51 413 351 282 
331 11 366 63 68 397 298 288 243 169 92 284 342 
332 11 393 245 27 29 306 371 408 396 379 49 236 
333 10 401 122 106 16 100 108 362 11 341 392 
334 11 249 338 219 398 97 388 416 261 214 41 217 
335 11 213 59 69 125 12 135 39 49 307 313 393 
336 10 255 385 124 13 292 321 378 324 165 176 
337 11 287 50 373 226 190 107 201 315 7 318 389 
338 11 97 214 283 339 416 334 261 247 83 249 31 
339 11 283 214 247 97 83 3 338 31 311 416 261 
340 9 79 198 384 387 138 260 132 142 368 
341 9 205 117 100 122 16 152 333 367 30 
342 11 169 284 295 63 128 92 331 228 243 366 298 
343 11 159 42 62 77 267 47 149 197 297 329 320 
344 11 64 314 104 266 357 241 270 84 177 251 146 
345 11 110 264 39 74 307 12 313 258 272 412 335 
346 11 391 276 404 405 71 102 322 173 352 154 290 
347 11 181 37 269 143 36 126 215 280 57 370 304 
348 11 383 179 364 229 58 286 33 175 158 17 208 
349 11 237 80 161 21 206 312 23 79 174 368 130 
350 9 184 149 151 260 387 198 112 267 62 
351 9 413 367 129 268 203 152 30 16 73 
352 10 71 252 404 276 102 266 346 391 104 290 
353 11 140 262 157 374 65 271 248 155 289 402 377 
354 11 40 153 223 299 381 317 148 88 257 199 5 
355 10 220 363 263 277 302 24 246 417 273 25 
356 11 93 225 133 32 275 194 109 328 89 116 144 
357 11 270 241 344 64 84 146 314 251 104 224 266 
358 10 111 327 303 231 403 265 78 251 84 394 
359 7 87 96 291 293 396 408 54 
360 11 38 107 315 7 72 226 287 365 200 409 337 
361 11 101 294 256 406 91 54 293 236 46 81 379 
362 11 106 18 171 401 163 323 227 333 108 392 394 
363 10 220 355 263 302 277 24 417 246 137 123 
364 11 179 58 348 383 229 33 286 17 382 208 199 
365 11 409 72 14 38 7 6 360 246 417 200 273 
366 11 331 397 68 63 288 298 274 395 207 169 130 
367 10 152 351 30 413 16 203 122 341 129 117 
368 11 138 53 80 79 384 174 142 340 21 121 349 
369 11 211 44 89 301 144 194 109 95 228 67 225 
370 11 305 181 36 307 125 202 347 264 59 37 209 
371 11 29 236 27 137 232 91 123 406 332 379 256 
372 11 192 242 148 299 88 153 217 41 5 257 219 
373 11 50 337 201 287 190 318 389 226 107 200 25 
374 11 140 353 262 289 157 248 65 271 402 155 98 
375 11 51 234 120 46 60 319 73 330 256 386 361 
376 11 11 240 30 16 152 193 203 122 367 333 106 
377 11 402 98 239 253 65 271 155 19 187 20 289 
378 11 292 165 176 13 124 52 255 336 90 4 114 
379 10 396 406 91 236 408 87 101 29 371 27 
380 10 10 189 278 94 28 22 15 2 178 399 
381 11 199 382 317 354 257 308 153 5 17 299 33 
382 11 199 381 317 17 308 33 208 286 168 58 182 
383 11 348 179 229 364 58 286 175 33 158 208 17 
384 9 132 142 340 138 53 196 368 79 216 
385 10 255 336 13 292 124 321 324 378 90 176 
386 11 244 216 196 195 103 132 55 212 60 142 120 
387 8 260 198 350 340 184 151 79 285 
388 9 210 219 249 334 41 217 398 192 235 
389 11 318 201 190 373 50 25 337 412 226 200 287 
390 10 136 329 162 183 290 411 252 48 177 197 
391 11 346 405 276 404 71 322 102 173 154 352 290 
392 10 108 403 401 394 18 100 171 231 333 362 
393 10 245 332 306 69 27 408 213 29 396 49 
394 11 403 18 392 171 78 108 227 303 231 323 401 
395 11 274 130 21 288 174 397 121 206 68 237 23 
396 10 408 379 306 87 245 406 91 393 332 236 
397 11 68 288 366 331 298 395 274 63 130 207 21 
398 11 261 416 86 334 193 338 249 191 311 85 97 
399 11 15 227 323 178 189 171 250 18 2 281 362 
400 11 131 23 105 206 130 185 35 20 187 115 237 
401 10 333 106 362 108 18 392 171 100 122 163 
402 11 98 377 239 253 19 65 271 187 289 155 353 
403 10 394 231 303 392 108 78 327 358 111 18 
404 11 276 71 102 346 391 352 322 405 252 173 290 
405 11 391 173 346 154 276 322 71 404 118 66 90 
406 11 91 101 236 379 256 361 54 294 371 396 87 
407 11 204 254 309 115 185 134 150 243 19 187 92 
408 9 396 306 379 245 393 96 332 87 135 
409 11 365 14 72 7 246 38 417 360 200 273 6 
410 8 233 282 117 205 26 316 100 341 
411 10 162 290 118 136 390 66 99 320 329 70 
412 11 272 258 313 74 389 318 12 39 201 24 49 
413 10 351 367 129 152 117 268 341 203 16 30 
414 11 4 34 221 310 166 165 296 76 114 45 141 
415 8 135 96 209 69 306 59 213 408 
416 11 261 398 86 311 338 214 97 83 334 339 283 
417 11 246 302 263 220 363 355 14 273 326 277 238 
DEPOT_SECTION
   1
   -1
EOF
