NAME :  X-n491-kX-w196-c7.cctp
COMMENT : 	Adapted by Maziero, Usberti and Cavellucci from the Uchoa, Pecin, Pessoa, Poggi, Subramanian, and Vidal (2013)
TYPE :  CCTP
DIMENSION :    422
EDGE_WEIGHT_TYPE : 	EUC_2D	
CAPACITY : 	428
VERTICES_WITHIN_COVERAGE :  7
VERTICES_WITH_DEMAND : 	196
NODE_COORD_SECTION
1 894 510
2 463 887
3 704 177
4 424 368
5 420 800
6 492 610
7 607 749
8 363 85
9 160 398
10 733 274
11 952 199
12 56 370
13 714 12
14 569 230
15 187 681
16 550 581
17 506 863
18 838 469
19 842 107
20 595 966
21 292 185
22 327 121
23 21 664
24 145 164
25 654 735
26 281 959
27 910 295
28 857 705
29 501 276
30 896 894
31 269 217
32 590 509
33 575 96
34 819 481
35 941 408
36 908 388
37 941 492
38 652 413
39 341 111
40 577 544
41 493 279
42 452 25
43 969 339
44 64 67
45 456 289
46 227 792
47 898 365
48 45 442
49 881 867
50 437 830
51 280 233
52 894 41
53 146 375
54 498 393
55 849 249
56 188 631
57 461 690
58 277 381
59 410 486
60 211 863
61 359 706
62 595 831
63 353 281
64 448 785
65 206 832
66 726 420
67 143 741
68 84 332
69 692 490
70 896 968
71 823 232
72 513 831
73 338 623
74 787 934
75 515 893
76 829 499
77 993 184
78 30 917
79 918 121
80 327 945
81 331 646
82 714 159
83 810 86
84 10 665
85 358 495
86 877 42
87 547 218
88 81 551
89 907 733
90 12 587
91 564 716
92 446 381
93 136 379
94 565 957
95 872 42
96 216 326
97 37 967
98 434 954
99 562 426
100 203 448
101 926 44
102 473 523
103 302 363
104 424 197
105 947 678
106 985 248
107 839 112
108 597 917
109 573 948
110 229 856
111 497 199
112 645 338
113 106 449
114 918 709
115 680 917
116 194 86
117 176 795
118 714 316
119 368 822
120 72 175
121 239 112
122 736 825
123 621 236
124 811 510
125 82 545
126 55 520
127 75 750
128 146 385
129 319 751
130 195 332
131 446 715
132 514 988
133 891 404
134 632 329
135 27 752
136 558 893
137 567 695
138 297 220
139 191 246
140 620 569
141 447 829
142 73 857
143 887 849
144 249 874
145 457 527
146 298 729
147 141 976
148 695 556
149 851 526
150 259 467
151 561 309
152 412 755
153 710 79
154 700 344
155 831 297
156 556 499
157 447 454
158 316 773
159 212 653
160 487 210
161 300 434
162 257 805
163 46 856
164 268 199
165 837 819
166 625 636
167 250 650
168 165 167
169 450 924
170 975 100
171 822 545
172 148 707
173 866 77
174 814 172
175 335 318
176 389 801
177 632 128
178 104 468
179 443 511
180 764 323
181 631 938
182 762 744
183 376 930
184 350 537
185 569 883
186 152 396
187 445 147
188 931 598
189 481 356
190 598 964
191 535 2
192 489 51
193 232 267
194 872 623
195 613 98
196 714 334
197 14 540
198 701 695
199 220 306
200 497 271
201 847 614
202 265 137
203 981 259
204 432 580
205 77 946
206 699 51
207 93 860
208 316 369
209 883 505
210 836 775
211 650 638
212 768 280
213 473 396
214 63 935
215 137 774
216 64 773
217 344 230
218 712 37
219 184 58
220 434 502
221 149 342
222 292 48
223 402 160
224 365 500
225 287 35
226 394 695
227 674 817
228 109 754
229 187 972
230 802 453
231 5 16
232 421 581
233 919 639
234 720 439
235 333 681
236 981 743
237 411 723
238 278 830
239 459 907
240 999 105
241 569 15
242 603 751
243 512 804
244 642 674
245 22 715
246 449 0
247 631 543
248 299 63
249 440 40
250 362 758
251 833 46
252 35 765
253 942 561
254 533 5
255 845 191
256 487 372
257 749 598
258 908 610
259 796 267
260 59 660
261 911 604
262 114 909
263 59 523
264 958 201
265 392 55
266 532 197
267 795 674
268 904 278
269 932 486
270 469 41
271 612 196
272 904 116
273 614 140
274 916 259
275 617 109
276 355 511
277 608 117
278 700 83
279 665 33
280 581 564
281 919 134
282 143 600
283 846 339
284 49 668
285 103 407
286 465 60
287 700 164
288 962 709
289 873 240
290 942 75
291 425 254
292 936 548
293 605 53
294 60 711
295 135 777
296 954 503
297 392 27
298 446 20
299 368 126
300 753 607
301 692 278
302 940 181
303 815 137
304 855 406
305 558 105
306 32 642
307 927 542
308 899 656
309 147 552
310 51 598
311 701 98
312 951 209
313 803 252
314 221 667
315 538 21
316 497 189
317 144 710
318 970 224
319 846 297
320 830 215
321 643 508
322 828 326
323 665 197
324 858 263
325 684 243
326 719 138
327 53 729
328 555 90
329 819 130
330 874 590
331 519 199
332 135 327
333 843 154
334 817 538
335 572 220
336 928 76
337 564 209
338 828 691
339 111 810
340 911 116
341 929 534
342 140 724
343 783 521
344 894 520
345 886 325
346 514 33
347 614 103
348 34 850
349 558 230
350 647 86
351 53 665
352 969 251
353 633 165
354 994 370
355 648 174
356 891 360
357 912 670
358 471 261
359 147 549
360 554 35
361 680 222
362 807 474
363 421 10
364 836 278
365 903 428
366 55 716
367 744 268
368 845 444
369 486 196
370 817 591
371 500 63
372 119 715
373 902 674
374 950 493
375 539 216
376 850 514
377 613 120
378 862 571
379 853 259
380 553 256
381 424 39
382 594 76
383 499 56
384 0 651
385 0 706
386 557 264
387 57 750
388 839 228
389 778 365
390 414 128
391 374 22
392 467 24
393 960 708
394 736 566
395 793 528
396 689 62
397 685 96
398 197 718
399 70 923
400 0 609
401 23 738
402 824 618
403 846 602
404 968 307
405 472 47
406 840 480
407 798 105
408 869 531
409 924 360
410 829 181
411 865 507
412 54 462
413 756 524
414 479 72
415 585 61
416 666 236
417 13 753
418 917 287
419 15 796
420 919 199
421 844 556
422 94 553
DEMAND_SECTION
2 19
3 56
4 71
5 90
6 5
7 34
8 47
9 56
10 53
11 87
12 28
13 15
14 89
15 60
16 85
17 41
18 52
19 74
20 63
21 72
22 82
23 35
24 48
25 39
26 46
27 78
28 41
29 15
30 77
31 30
32 72
33 93
34 53
35 95
36 29
37 90
38 82
39 73
40 18
41 69
42 31
43 99
44 46
45 92
46 66
47 4
48 27
49 99
50 27
51 3
52 14
53 7
54 16
55 15
56 61
57 39
58 26
59 97
60 3
61 71
62 80
63 10
64 64
65 14
66 4
67 8
68 88
69 11
70 21
71 51
72 3
73 68
74 74
75 44
76 95
77 3
78 67
79 4
80 23
81 19
82 39
83 45
84 49
85 15
86 58
87 96
88 95
89 2
90 41
91 37
92 29
93 62
94 1
95 62
96 68
97 23
98 12
99 74
100 15
101 56
102 13
103 93
104 15
105 8
106 22
107 98
108 39
109 51
110 80
111 89
112 89
113 56
114 29
115 80
116 33
117 98
118 98
119 7
120 65
121 82
122 32
123 75
124 83
125 93
126 30
127 13
128 99
129 74
130 19
131 71
132 74
133 28
134 50
135 30
136 72
137 41
138 15
139 40
140 44
141 39
142 98
143 88
144 40
145 61
146 37
147 84
148 33
149 59
150 28
151 76
152 87
153 31
154 39
155 90
156 32
157 65
158 58
159 92
160 74
161 21
162 64
163 77
164 32
165 30
166 20
167 88
168 88
169 20
170 95
171 48
172 77
173 71
174 10
175 28
176 92
177 88
178 4
179 36
180 15
181 3
182 37
183 31
184 76
185 3
186 2
187 60
188 40
189 83
190 76
191 25
192 8
193 17
194 89
195 70
196 53
197 65
COVERAGE_SECTION
2 7 239 169 17 75 141 50 98 
3 7 287 82 326 323 361 355 325 
4 7 92 213 189 256 54 45 157 
5 7 176 64 50 141 152 119 250 
6 7 16 204 232 57 102 145 280 
7 7 242 25 91 137 62 244 227 
8 7 39 299 265 22 391 297 390 
9 7 186 128 53 93 221 285 100 
10 7 367 212 301 118 180 325 196 
11 6 264 312 302 318 420 77 
12 7 68 285 48 93 53 332 128 
13 6 218 206 279 396 153 278 
14 7 335 349 337 87 380 375 386 
15 7 314 159 398 172 56 317 342 
16 7 280 40 6 140 32 156 247 
17 7 75 72 2 243 136 239 185 
18 7 406 34 368 76 362 230 376 
19 7 107 329 83 173 303 407 333 
20 7 190 109 94 181 108 136 132 
21 7 164 138 31 51 202 217 22 
22 7 39 299 8 202 248 21 222 
23 7 84 306 384 284 351 260 385 
24 7 168 120 116 139 121 219 202 
25 7 7 242 198 244 227 91 137 
26 7 80 144 229 183 110 60 238 
27 5 418 268 274 345 404 
28 7 338 373 89 114 308 357 267 
29 7 200 41 358 45 380 386 160 
30 7 49 143 70 165 74 210 89 
31 7 164 51 138 21 193 217 202 
32 7 156 40 247 321 280 140 16 
33 3 305 328 382 
34 7 362 76 406 18 124 230 368 
35 7 36 365 133 409 47 354 356 
36 7 133 47 409 356 35 365 304 
37 7 374 269 296 341 307 344 292 
38 7 234 66 112 154 134 69 99 
39 7 22 299 8 248 390 265 223 
40 7 280 32 16 140 156 247 321 
41 7 29 200 358 45 380 386 160 
42 7 298 392 249 270 246 405 381 
43 7 404 354 409 27 35 418 47 
44 7 231 120 219 24 116 168 121 
45 7 358 41 200 29 291 189 4 
46 7 162 65 117 110 238 60 398 
47 7 356 36 409 133 345 283 304 
48 7 412 113 178 285 12 126 263 
49 7 143 30 165 70 210 74 89 
50 7 141 5 64 176 2 119 17 
51 7 31 138 164 21 193 217 63 
52 7 86 95 101 173 336 290 251 
53 7 128 93 186 9 221 332 285 
54 7 256 213 189 92 99 4 157 
55 7 379 324 388 289 71 364 320 
56 5 159 314 15 282 167 
57 7 131 237 226 152 6 64 61 
58 7 103 208 161 96 175 150 199 
59 7 220 179 224 157 85 276 145 
60 7 110 65 144 46 162 238 117 
61 7 235 226 250 237 129 146 81 
62 7 185 136 227 242 72 7 108 
63 7 175 217 291 138 51 208 103 
64 7 5 141 50 152 176 243 131 
65 7 60 110 46 117 162 144 238 
66 7 234 38 389 69 154 230 196 
67 7 342 317 172 215 372 228 295 
68 7 12 332 221 93 53 285 128 
69 7 321 234 148 413 66 247 38 
70 7 30 49 74 143 165 210 122 
71 7 388 320 313 55 379 259 255 
72 7 243 17 75 141 2 50 185 
73 7 81 235 61 184 226 167 232 
74 7 115 70 49 30 122 165 143 
75 7 17 136 2 185 239 72 169 
76 7 34 124 406 376 18 362 149 
77 7 264 11 318 312 302 106 352 
78 7 214 399 97 205 163 348 142 
79 6 340 281 272 336 290 170 
80 7 26 183 144 98 169 238 119 
81 7 73 235 61 226 167 146 129 
82 7 287 3 326 311 323 355 397 
83 7 407 19 107 329 251 303 173 
84 7 23 384 306 284 385 351 260 
85 7 224 276 184 59 220 161 179 
86 7 95 52 173 251 101 336 290 
87 7 375 349 337 14 335 266 331 
88 6 125 422 263 126 310 309 
89 7 114 28 373 393 288 357 105 
90 7 400 310 197 306 384 23 84 
91 7 137 242 7 244 25 166 243 
92 7 4 213 256 189 54 157 45 
93 7 53 128 186 9 221 285 332 
94 7 109 20 190 108 132 136 181 
95 7 86 52 173 251 101 336 19 
96 7 199 130 193 221 332 58 139 
97 7 214 205 78 399 262 147 163 
98 7 169 239 183 2 132 75 80 
99 7 54 156 32 38 256 213 189 
100 7 150 9 186 128 53 93 113 
101 7 52 336 290 86 95 173 170 
102 7 145 179 220 204 59 157 232 
103 7 208 58 175 161 96 63 199 
104 7 223 187 291 369 160 390 111 
105 7 393 288 357 114 373 233 308 
106 6 203 352 318 312 264 11 
107 7 19 329 303 83 333 407 173 
108 7 109 181 185 136 190 20 94 
109 7 94 20 190 108 136 181 185 
110 7 60 144 65 238 162 46 117 
111 7 316 369 160 331 266 375 87 
112 7 134 154 196 118 38 301 151 
113 7 178 285 412 48 186 9 128 
114 7 89 373 357 105 393 288 308 
115 7 181 108 190 20 227 74 122 
116 7 219 121 168 202 24 222 225 
117 7 215 295 65 46 67 339 60 
118 7 196 154 301 10 180 367 212 
119 7 176 5 250 50 158 141 152 
120 7 24 168 44 139 116 68 219 
121 7 202 116 219 248 222 22 21 
122 7 227 182 165 115 210 74 25 
123 6 271 416 14 335 323 361 
124 7 76 395 334 34 343 362 171 
125 7 88 422 263 126 310 309 359 
126 7 263 125 88 197 422 412 178 
127 7 387 216 327 228 366 294 252 
128 7 53 93 186 9 221 285 332 
129 7 158 146 250 61 235 162 119 
130 7 96 199 221 332 53 128 9 
131 7 57 237 152 226 64 61 5 
132 7 94 109 20 98 190 169 75 
133 7 36 365 304 47 356 35 409 
134 7 112 154 151 301 196 118 38 
135 7 417 252 401 387 327 245 216 
136 7 185 75 108 109 17 94 62 
137 7 91 7 242 244 166 25 211 
138 7 51 31 21 164 217 193 63 
139 7 193 199 31 168 96 130 51 
140 7 247 280 40 321 32 166 16 
141 7 50 5 64 2 176 72 17 
142 7 207 163 348 339 262 399 78 
143 7 49 30 165 210 89 70 74 
144 7 110 60 238 65 162 46 26 
145 7 102 179 220 204 59 232 157 
146 7 129 158 235 61 250 162 81 
147 7 229 205 262 214 399 97 78 
148 7 394 247 69 257 413 321 140 
149 7 376 408 411 421 76 171 334 
150 7 161 100 58 85 276 224 103 
151 7 386 380 29 41 134 200 14 
152 7 237 5 64 250 176 131 226 
153 6 278 311 396 206 397 218 
154 7 196 118 112 301 180 134 10 
155 7 319 364 322 324 379 283 259 
156 7 32 40 280 99 16 102 247 
157 7 59 220 179 213 92 102 145 
158 7 129 146 250 162 238 119 176 
159 6 314 56 15 167 398 172 
160 7 369 111 316 331 266 375 358 
161 7 150 58 208 103 85 224 276 
162 7 46 238 65 110 158 144 60 
163 7 348 142 207 78 419 399 339 
164 7 31 21 51 138 202 193 217 
165 7 210 143 49 30 122 182 89 
166 7 211 244 140 137 280 16 247 
167 7 314 159 56 15 81 398 235 
168 7 24 139 116 121 120 202 164 
169 7 239 98 2 75 183 17 132 
170 7 240 290 336 79 281 340 272 
171 7 334 421 395 149 124 376 343 
172 6 317 342 372 67 15 398 
173 7 95 86 19 107 251 52 272 
174 6 410 333 303 255 329 320 
175 7 63 208 103 58 217 51 4 
176 7 119 5 152 250 50 64 141 
177 6 377 273 275 277 347 195 
178 7 113 412 285 48 126 263 125 
179 7 220 145 102 59 157 204 232 
180 7 212 389 118 196 10 367 259 
181 7 108 190 20 115 109 94 185 
182 7 267 198 210 122 338 28 165 
183 7 80 98 169 239 2 26 119 
184 7 276 224 85 59 232 73 220 
185 7 136 108 75 62 109 17 94 
186 7 9 128 53 93 285 221 113 
187 3 390 223 104 
188 7 261 258 253 233 292 307 330 
189 7 256 54 213 92 4 45 41 
190 7 20 109 94 181 108 136 185 
191 5 254 315 241 346 360 
192 6 383 371 405 270 414 286 
193 7 199 139 51 96 31 130 164 
194 6 201 330 403 258 261 308 
195 7 347 275 277 377 382 177 350 
196 7 154 118 180 301 10 112 389 
197 7 126 90 263 88 125 310 400 
198 6 25 244 211 182 166 267 
199 7 96 130 193 139 221 332 51 
200 7 29 41 358 45 380 386 160 
201 6 403 402 194 330 370 378 
202 7 121 21 164 22 31 39 248 
203 6 106 352 318 404 312 264 
204 7 232 145 6 102 179 220 184 
205 7 214 399 97 262 78 147 207 
206 6 396 218 153 278 279 13 
207 7 142 163 262 339 348 399 214 
208 7 103 58 175 161 63 4 96 
209 7 411 344 408 376 149 406 269 
210 7 165 28 182 89 338 143 49 
211 7 166 244 140 198 148 25 247 
212 7 367 259 10 180 313 118 155 
213 7 54 256 92 189 4 157 99 
214 7 399 205 78 97 262 142 163 
215 7 295 67 228 117 339 342 372 
216 7 387 127 252 135 327 228 401 
217 7 138 63 51 21 31 164 291 
218 6 206 13 396 153 279 278 
219 7 116 121 225 222 168 24 202 
220 7 179 59 145 102 157 224 85 
221 7 332 53 93 128 130 186 9 
222 7 225 248 8 39 22 121 391 
223 6 390 104 187 299 39 8 
224 7 85 276 184 59 220 179 161 
225 7 222 248 391 8 121 39 22 
226 7 237 61 131 152 235 57 250 
227 7 122 62 25 7 242 115 182 
228 7 127 215 295 67 372 342 216 
229 7 147 26 262 60 205 144 110 
230 7 362 34 18 368 406 76 124 
231 7 44 120 219 116 24 168 121 
232 7 204 145 179 6 102 220 184 
233 7 308 258 357 261 373 188 105 
234 7 66 69 38 230 413 362 389 
235 7 81 61 73 146 226 129 250 
236 7 288 393 114 105 89 357 373 
237 7 152 226 131 61 57 250 64 
238 7 162 144 110 46 158 65 60 
239 7 169 2 98 75 17 141 50 
240 7 170 290 336 77 79 281 340 
241 4 360 315 191 254 
242 7 7 91 25 137 62 244 227 
243 7 72 17 64 141 50 62 75 
244 7 211 166 25 198 137 7 242 
245 6 401 385 366 327 135 294 
246 7 298 42 363 392 249 270 381 
247 7 140 321 32 40 280 148 69 
248 7 222 225 22 39 8 121 202 
249 6 381 42 298 270 392 286 
250 7 129 158 152 176 61 237 119 
251 7 95 86 173 83 52 19 107 
252 7 135 417 387 216 401 419 327 
253 7 292 307 341 188 261 296 258 
254 5 191 315 346 241 360 
255 5 410 320 174 333 388 
256 7 189 54 213 92 4 45 157 
257 5 300 394 148 370 413 
258 6 261 188 233 194 330 308 
259 7 313 212 364 71 155 367 55 
260 4 351 284 306 23 
261 6 258 188 233 330 194 253 
262 7 399 205 207 214 142 147 78 
263 7 126 125 88 422 197 412 178 
264 6 11 312 318 302 77 420 
265 6 297 381 391 8 249 363 
266 6 331 375 87 337 111 316 
267 5 338 402 28 182 201 
268 4 418 27 274 324 
269 7 37 374 296 341 344 209 307 
270 7 405 392 286 192 42 249 298 
271 3 353 123 355 
272 6 340 79 281 336 173 290 
273 3 377 177 277 
274 3 268 418 27 
275 6 347 195 277 377 177 273 
276 7 224 85 184 59 220 179 161 
277 5 377 275 347 195 273 
278 5 153 311 397 396 206 
279 5 206 396 218 13 350 
280 7 40 16 140 247 32 156 166 
281 4 79 340 272 302 
282 3 309 359 56 
283 7 322 319 345 155 356 47 364 
284 5 351 260 23 306 84 
285 7 113 93 128 186 53 9 12 
286 5 405 414 270 192 249 
287 7 3 82 326 323 355 361 311 
288 7 393 105 236 114 89 357 373 
289 2 55 324 
290 7 336 101 170 340 79 272 52 
291 7 45 358 104 41 200 160 63 
292 7 307 253 341 296 188 344 37 
293 4 415 382 195 347 
294 6 366 327 245 387 127 284 
295 7 215 228 67 339 117 342 372 
296 7 374 37 269 341 307 292 253 
297 7 391 265 363 381 249 298 42 
298 7 42 246 249 392 363 381 270 
299 7 39 8 22 390 223 265 187 
300 5 257 394 370 402 148 
301 7 325 10 118 416 367 361 196 
302 4 11 264 420 312 
303 7 329 333 107 174 407 19 410 
304 7 133 368 365 36 356 47 18 
305 2 328 33 
306 7 23 284 351 84 260 384 400 
307 7 341 292 253 344 296 37 374 
308 7 373 357 233 194 258 105 261 
309 6 359 282 422 125 88 56 
310 6 90 306 400 88 125 422 
311 5 278 397 153 396 326 
312 5 11 264 318 302 420 
313 7 259 71 364 388 212 55 320 
314 7 159 167 15 56 398 172 317 
315 5 254 191 360 346 241 
316 6 111 369 160 331 266 375 
317 6 172 342 372 67 15 398 
318 6 312 264 352 106 11 203 
319 7 155 364 322 324 379 283 55 
320 6 388 71 255 410 55 174 
321 7 247 69 32 140 148 40 280 
322 7 283 155 319 364 345 389 180 
323 7 355 361 416 3 353 287 325 
324 6 379 55 289 364 319 388 
325 7 416 361 301 323 10 123 367 
326 7 82 287 3 311 397 278 153 
327 6 366 294 387 127 401 245 
328 2 305 33 
329 7 303 107 19 407 333 174 83 
330 5 378 403 194 201 258 
331 7 266 111 316 375 369 87 160 
332 7 221 53 68 93 128 130 186 
333 6 410 303 174 329 255 107 
334 7 171 395 124 421 149 343 76 
335 7 14 337 349 87 375 380 266 
336 7 290 101 340 79 272 52 170 
337 6 335 87 14 349 375 266 
338 6 28 267 402 373 201 308 
339 7 295 215 207 228 142 216 117 
340 6 272 79 281 336 290 173 
341 7 307 292 253 344 296 37 374 
342 7 317 67 172 372 228 215 295 
343 7 395 413 124 334 171 76 362 
344 7 209 408 411 341 307 149 376 
345 7 356 27 47 283 319 418 268 
346 7 315 383 192 371 254 191 360 
347 6 195 275 277 377 177 382 
348 7 163 142 419 207 78 399 216 
349 7 14 87 335 337 375 380 386 
350 5 195 347 275 397 177 
351 4 284 260 306 23 
352 6 203 106 318 312 264 274 
353 4 355 273 177 271 
354 7 43 35 404 409 36 47 356 
355 5 353 323 271 273 177 
356 7 47 36 409 345 133 283 304 
357 7 373 308 233 105 114 258 393 
358 7 41 200 45 29 291 160 111 
359 6 309 282 422 125 88 56 
360 4 315 241 254 191 
361 7 416 325 323 3 301 355 123 
362 7 34 230 18 76 406 124 368 
363 7 298 381 246 42 297 249 392 
364 7 155 319 379 324 55 259 313 
365 7 133 36 35 304 368 47 269 
366 6 294 327 245 387 127 401 
367 7 10 212 259 301 118 180 313 
368 7 18 406 304 230 34 362 76 
369 6 111 316 160 331 266 375 
370 5 402 403 201 421 171 
371 3 383 192 414 
372 5 342 317 172 67 228 
373 7 357 308 114 233 105 28 89 
374 7 37 296 269 341 307 292 344 
375 7 87 266 349 331 337 14 335 
376 7 149 411 408 76 209 406 124 
377 6 277 275 347 273 177 195 
378 5 330 421 403 408 149 
379 7 324 55 364 289 388 319 71 
380 7 386 349 14 87 335 375 337 
381 6 249 298 363 42 297 265 
382 6 415 293 33 195 347 275 
383 4 371 192 414 346 
384 7 84 23 306 400 284 351 385 
385 6 245 401 84 23 417 135 
386 7 380 349 14 151 335 87 375 
387 7 127 327 216 252 135 366 401 
388 7 71 320 55 379 289 255 324 
389 7 180 322 196 283 66 118 154 
390 3 223 187 299 
391 7 297 265 363 381 8 249 298 
392 7 42 270 298 405 246 249 192 
393 7 288 105 236 114 89 357 373 
394 6 257 148 300 413 343 395 
395 7 343 124 334 171 413 76 34 
396 5 206 278 153 218 397 
397 5 311 278 153 396 350 
398 7 15 172 317 314 342 67 159 
399 7 214 205 78 262 97 142 207 
400 7 90 384 306 310 84 23 197 
401 7 135 417 245 252 327 387 366 
402 4 201 403 370 194 
403 6 201 402 330 370 194 378 
404 7 43 203 418 352 27 106 354 
405 7 270 286 192 392 414 383 42 
406 7 18 34 76 362 376 368 411 
407 7 83 329 303 107 19 333 174 
408 7 149 411 376 344 209 421 378 
409 7 47 36 356 43 35 345 133 
410 6 174 255 333 320 303 388 
411 7 376 209 149 408 344 76 406 
412 7 48 178 113 126 263 285 125 
413 7 343 395 394 124 334 148 171 
414 4 286 192 371 383 
415 4 382 293 33 360 
416 7 325 361 323 123 301 355 271 
417 7 135 401 252 245 419 387 327 
418 5 27 268 274 345 404 
419 7 252 417 135 216 348 401 387 
420 2 302 11 
421 5 378 171 149 334 408 
422 6 88 125 263 126 309 359 
DEPOT_SECTION
   1
   -1
EOF
