NAME :  X-n420-kX-w83-c7.cctp
COMMENT : 	Adapted by Maziero, Usberti and Cavellucci from the Uchoa, Pecin, Pessoa, Poggi, Subramanian, and Vidal (2013)
TYPE :  CCTP
DIMENSION :    309
EDGE_WEIGHT_TYPE : 	EUC_2D	
CAPACITY : 	18
VERTICES_WITHIN_COVERAGE :  7
VERTICES_WITH_DEMAND : 	83
NODE_COORD_SECTION
1 500 500
2 707 633
3 405 122
4 811 419
5 11 667
6 336 612
7 366 50
8 98 836
9 414 996
10 243 713
11 100 232
12 891 946
13 132 204
14 25 642
15 994 18
16 636 897
17 214 651
18 108 619
19 882 399
20 863 607
21 409 585
22 247 882
23 553 507
24 677 258
25 673 644
26 25 182
27 251 111
28 263 799
29 660 359
30 351 288
31 172 127
32 382 441
33 231 650
34 966 485
35 964 107
36 876 164
37 949 328
38 936 70
39 229 744
40 161 214
41 581 594
42 154 860
43 23 374
44 736 600
45 594 542
46 846 684
47 355 471
48 675 597
49 663 653
50 61 889
51 685 150
52 129 248
53 161 301
54 180 836
55 427 670
56 833 860
57 669 251
58 411 403
59 450 926
60 591 505
61 468 157
62 288 484
63 574 955
64 795 521
65 41 65
66 175 486
67 74 436
68 907 13
69 579 912
70 765 835
71 176 189
72 972 351
73 470 22
74 577 469
75 561 672
76 110 670
77 811 614
78 460 344
79 862 486
80 22 369
81 898 295
82 89 934
83 164 871
84 487 617
85 731 565
86 470 722
87 509 209
88 860 845
89 515 312
90 434 712
91 388 521
92 573 250
93 155 316
94 143 923
95 247 971
96 641 297
97 763 749
98 585 887
99 987 361
100 153 215
101 150 669
102 76 153
103 456 635
104 778 497
105 334 529
106 764 789
107 963 378
108 262 404
109 32 672
110 118 874
111 931 462
112 168 831
113 443 2
114 571 812
115 185 964
116 368 628
117 366 788
118 48 374
119 8 464
120 459 77
121 345 357
122 458 286
123 974 86
124 167 854
125 441 425
126 646 948
127 444 937
128 950 129
129 866 18
130 915 849
131 119 279
132 319 332
133 832 902
134 421 365
135 963 71
136 478 741
137 443 54
138 509 966
139 70 520
140 648 127
141 371 345
142 154 221
143 475 537
144 322 738
145 118 284
146 297 415
147 530 967
148 752 797
149 394 589
150 482 59
151 497 863
152 171 716
153 610 528
154 405 568
155 638 940
156 940 914
157 4 886
158 215 994
159 294 675
160 121 701
161 143 460
162 14 530
163 383 815
164 424 566
165 358 11
166 902 869
167 490 744
168 567 535
169 424 613
170 820 574
171 125 213
172 164 351
173 605 589
174 844 145
175 978 462
176 503 582
177 673 603
178 643 721
179 831 659
180 137 502
181 939 228
182 999 456
183 722 196
184 390 650
185 288 304
186 895 896
187 514 985
188 32 202
189 20 476
190 400 947
191 398 522
192 889 98
193 226 257
194 858 168
195 343 182
196 511 170
197 699 283
198 954 856
199 183 100
200 208 169
201 923 501
202 170 88
203 153 129
204 917 390
205 879 482
206 853 476
207 91 194
208 860 607
209 159 131
210 925 291
211 705 361
212 863 371
213 780 515
214 24 239
215 369 28
216 803 450
217 897 396
218 176 310
219 983 470
220 917 370
221 969 335
222 680 629
223 175 153
224 207 142
225 221 99
226 990 502
227 960 462
228 862 259
229 633 344
230 187 350
231 110 275
232 907 303
233 865 555
234 169 121
235 816 609
236 894 327
237 54 27
238 895 569
239 348 150
240 883 463
241 298 65
242 229 190
243 470 60
244 923 737
245 978 312
246 89 97
247 645 398
248 279 85
249 750 169
250 180 86
251 871 410
252 615 466
253 713 648
254 268 124
255 887 399
256 819 560
257 159 134
258 29 81
259 2 63
260 907 245
261 881 592
262 864 410
263 876 318
264 881 413
265 950 499
266 887 497
267 801 491
268 159 215
269 555 303
270 813 434
271 664 522
272 656 391
273 879 583
274 224 329
275 863 263
276 887 641
277 811 503
278 835 481
279 76 115
280 891 414
281 813 425
282 234 75
283 350 278
284 732 558
285 192 142
286 883 462
287 712 63
288 118 193
289 171 165
290 644 466
291 807 418
292 807 149
293 955 230
294 238 113
295 836 492
296 868 379
297 987 568
298 711 376
299 171 155
300 729 544
301 130 123
302 799 418
303 861 382
304 971 288
305 918 397
306 768 507
307 417 125
308 818 400
309 856 637
DEMAND_SECTION
2 6
3 9
4 8
5 6
6 4
7 8
8 3
9 4
10 10
11 1
12 9
13 9
14 5
15 10
16 5
17 6
18 9
19 8
20 10
21 8
22 8
23 4
24 8
25 7
26 3
27 5
28 10
29 10
30 8
31 2
32 2
33 8
34 7
35 10
36 9
37 2
38 9
39 10
40 2
41 1
42 6
43 1
44 2
45 4
46 6
47 7
48 8
49 8
50 5
51 7
52 4
53 7
54 1
55 5
56 6
57 9
58 2
59 6
60 4
61 6
62 5
63 10
64 7
65 4
66 6
67 1
68 2
69 4
70 9
71 1
72 6
73 4
74 9
75 1
76 5
77 2
78 2
79 9
80 6
81 7
82 10
83 10
84 8
COVERAGE_SECTION
2 7 253 222 25 44 177 48 49 
3 7 307 239 120 61 137 7 195 
4 5 291 281 302 270 308 
5 7 109 14 76 18 160 162 101 
6 7 116 149 184 159 21 154 105 
7 7 215 165 241 137 3 113 307 
8 7 110 42 50 112 124 83 54 
9 7 190 127 59 138 187 147 151 
10 7 39 33 159 17 152 144 28 
11 7 171 52 207 13 288 231 131 
12 7 186 156 133 166 130 56 88 
13 7 171 288 100 142 268 40 207 
14 7 5 109 18 76 160 162 101 
15 7 135 123 38 68 35 128 129 
16 7 155 98 126 69 63 114 147 
17 7 33 101 10 152 159 39 76 
18 7 76 101 160 14 109 139 5 
19 7 255 264 217 251 280 262 296 
20 7 208 261 273 309 276 235 238 
21 7 149 154 164 169 116 191 91 
22 7 54 83 28 124 95 112 42 
23 7 168 60 74 45 153 252 143 
24 4 57 197 96 183 
25 7 49 222 2 253 177 48 44 
26 7 188 214 102 207 279 11 288 
27 5 294 254 225 248 282 
28 7 39 22 144 10 54 112 117 
29 6 229 272 247 211 298 96 
30 5 283 132 141 185 121 
31 7 234 209 257 203 285 223 299 
32 7 47 58 125 91 191 134 146 
33 7 17 10 159 101 152 39 6 
34 7 265 219 227 175 226 111 182 
35 7 123 128 135 38 192 15 36 
36 6 194 174 192 292 128 260 
37 7 221 72 245 210 304 232 99 
38 7 135 123 35 192 128 68 15 
39 7 10 152 28 144 17 33 159 
40 7 268 100 142 71 13 171 52 
41 7 173 45 168 153 176 75 60 
42 7 124 83 112 54 110 8 94 
43 7 80 118 67 119 189 145 231 
44 7 85 284 2 253 300 48 177 
45 7 153 168 60 173 23 41 271 
46 7 179 309 276 77 208 20 235 
47 7 32 91 105 191 62 146 58 
48 7 177 222 25 2 49 44 85 
49 7 25 222 2 253 177 48 178 
50 7 82 157 110 8 94 42 83 
51 7 140 183 249 287 57 24 292 
52 7 11 131 231 171 142 145 100 
53 7 93 218 145 131 172 230 231 
54 7 112 124 42 83 110 22 8 
55 7 184 90 103 169 86 116 84 
56 7 88 133 166 70 186 130 106 
57 5 24 197 96 183 92 
58 7 125 134 32 141 78 121 47 
59 7 127 190 138 9 151 187 147 
60 7 153 45 23 168 74 252 290 
61 7 196 307 87 3 120 243 150 
62 7 105 47 146 108 32 91 66 
63 7 69 147 138 155 187 98 126 
64 5 213 277 104 306 267 
65 7 258 259 237 246 279 102 301 
66 7 161 180 139 62 67 108 172 
67 7 118 189 119 161 43 139 80 
68 7 129 38 135 15 192 123 35 
69 7 98 63 16 155 147 126 138 
70 7 148 106 56 97 133 88 166 
71 7 289 40 268 299 100 223 200 
72 7 221 99 107 37 245 220 304 
73 7 113 243 150 137 120 215 7 
74 7 252 60 23 168 290 153 45 
75 7 41 84 173 178 167 49 86 
76 7 160 101 18 152 109 14 5 
77 7 235 170 179 208 309 20 256 
78 7 134 122 89 58 125 141 269 
79 5 206 205 266 278 295 
80 7 43 118 67 119 189 145 231 
81 7 232 210 236 263 275 228 260 
82 7 50 94 110 8 42 83 157 
83 7 42 124 54 112 110 94 8 
84 7 103 176 169 55 143 164 21 
85 6 284 300 44 48 177 306 
86 7 136 167 90 55 103 75 84 
87 7 196 61 92 122 89 269 307 
88 7 56 166 130 186 133 198 70 
89 7 269 122 78 92 87 134 229 
90 7 86 55 136 167 184 103 169 
91 7 191 154 105 164 47 21 149 
92 7 269 87 96 89 57 196 24 
93 7 53 218 172 230 145 131 231 
94 7 82 110 83 115 42 124 50 
95 7 158 115 22 94 83 124 42 
96 7 229 24 57 197 29 92 269 
97 7 106 148 70 46 179 253 178 
98 7 69 16 63 155 114 126 151 
99 6 72 107 221 37 245 220 
100 7 142 268 40 13 171 71 52 
101 7 76 160 152 18 17 33 10 
102 7 279 207 246 288 26 301 188 
103 7 84 169 55 184 21 176 164 
104 4 306 213 267 64 
105 7 91 47 62 191 154 6 149 
106 7 148 97 70 56 88 133 46 
107 6 72 99 221 220 204 305 
108 7 146 62 274 132 230 121 185 
109 7 5 14 76 18 160 101 162 
110 7 42 8 83 124 94 50 112 
111 4 227 201 34 265 
112 7 54 124 42 83 110 8 22 
113 7 73 137 243 150 120 215 165 
114 7 98 151 69 167 16 178 136 
115 7 158 94 95 83 82 22 42 
116 7 184 6 149 169 21 154 55 
117 7 163 144 90 28 136 86 167 
118 7 43 80 67 119 189 145 231 
119 7 189 162 67 139 43 80 118 
120 7 243 137 150 73 307 3 113 
121 7 141 132 30 146 134 185 283 
122 7 78 89 134 87 269 141 30 
123 7 135 35 38 128 15 192 68 
124 7 42 83 54 112 110 8 94 
125 7 58 32 134 78 47 141 191 
126 7 155 16 63 69 98 147 187 
127 7 59 190 9 138 187 147 151 
128 7 35 123 135 38 192 36 181 
129 7 68 192 38 135 15 123 174 
130 6 166 198 186 88 156 56 
131 7 145 231 52 53 11 93 218 
132 7 121 185 30 141 283 146 108 
133 7 56 186 88 12 166 70 130 
134 7 58 78 141 125 121 32 122 
135 7 123 38 35 128 15 192 68 
136 7 167 86 90 55 75 103 114 
137 7 120 243 150 73 113 307 7 
138 7 187 147 63 59 127 69 9 
139 7 162 189 180 67 119 161 18 
140 7 51 287 183 249 57 24 92 
141 7 121 132 134 30 58 283 78 
142 7 100 268 40 13 171 52 71 
143 7 176 164 154 191 84 21 23 
144 7 117 159 10 28 39 163 184 
145 7 131 231 52 53 93 11 218 
146 7 108 62 121 47 132 32 141 
147 7 138 187 63 69 59 127 98 
148 7 106 70 97 56 88 133 178 
149 7 21 154 164 169 116 184 6 
150 7 243 120 73 137 113 307 3 
151 7 59 114 98 127 69 138 147 
152 7 101 160 39 10 76 17 33 
153 7 45 60 168 271 23 173 252 
154 7 21 164 149 191 169 91 116 
155 7 126 16 69 63 98 147 138 
156 7 186 12 166 198 130 88 133 
157 7 50 82 8 110 94 42 83 
158 7 95 115 94 22 83 82 42 
159 7 10 33 144 6 17 116 39 
160 7 76 101 152 18 109 17 14 
161 7 66 180 67 139 172 230 189 
162 7 189 139 119 67 14 180 18 
163 7 117 144 90 136 28 151 86 
164 7 154 21 149 169 191 91 143 
165 5 215 7 241 113 137 
166 7 130 186 88 198 156 56 133 
167 7 136 86 90 55 75 114 103 
168 7 45 23 60 153 41 173 74 
169 7 21 149 103 164 154 184 55 
170 7 256 235 77 233 208 20 64 
171 7 13 288 100 142 11 268 52 
172 7 230 93 218 53 274 145 131 
173 7 41 45 153 168 177 48 60 
174 5 194 36 292 192 249 
175 6 219 227 182 34 226 265 
176 7 84 143 103 41 168 164 169 
177 7 48 222 25 2 49 253 44 
178 7 49 25 75 222 253 2 114 
179 7 46 309 77 235 276 208 20 
180 7 66 161 139 67 189 18 162 
181 7 293 260 210 304 81 232 228 
182 6 219 175 227 34 226 265 
183 6 249 51 57 24 197 292 
184 7 116 55 169 149 6 21 103 
185 6 132 30 283 274 121 193 
186 7 166 156 12 130 88 133 198 
187 7 138 147 63 127 59 69 9 
188 7 26 214 207 102 11 288 171 
189 7 119 162 67 139 43 118 80 
190 7 127 9 59 138 187 151 147 
191 7 91 154 164 21 105 47 149 
192 7 38 174 36 128 35 194 135 
193 6 242 274 218 40 53 185 
194 5 36 174 292 192 228 
195 2 239 3 
196 7 87 61 92 307 120 150 3 
197 3 24 57 96 
198 6 130 166 156 186 88 12 
199 5 250 202 234 31 225 
200 7 224 242 285 223 289 71 299 
201 6 265 266 111 34 205 227 
202 4 250 199 234 31 
203 7 209 257 234 31 301 299 223 
204 6 305 220 217 255 280 19 
205 5 79 266 240 286 206 
206 4 79 278 295 205 
207 7 288 11 171 13 102 188 100 
208 7 20 261 309 273 276 235 77 
209 7 257 203 31 234 223 299 301 
210 7 232 81 37 304 236 260 263 
211 2 298 29 
212 3 296 303 19 
213 5 306 64 104 267 277 
214 7 188 26 11 207 231 102 131 
215 7 165 7 113 137 241 3 73 
216 3 270 281 4 
217 7 255 19 280 204 305 264 251 
218 7 53 93 230 172 274 145 131 
219 6 175 182 34 227 226 265 
220 5 204 305 217 255 19 
221 7 72 37 245 99 107 304 210 
222 7 25 2 177 49 48 253 44 
223 7 299 289 285 257 31 209 203 
224 7 285 200 223 31 299 294 234 
225 4 294 282 27 199 
226 7 34 219 265 175 182 227 297 
227 6 175 34 219 111 265 182 
228 3 275 260 81 
229 7 29 96 272 247 211 298 269 
230 7 172 218 274 93 53 108 145 
231 7 131 145 52 11 53 93 171 
232 7 81 210 236 263 37 260 275 
233 7 273 238 261 256 170 20 208 
234 7 31 209 257 203 199 285 202 
235 7 77 170 208 20 256 309 179 
236 3 263 232 81 
237 5 65 258 259 246 279 
238 5 273 261 233 20 208 
239 3 195 3 307 
240 3 286 205 79 
241 3 248 282 27 
242 7 200 71 224 285 289 223 193 
243 7 150 120 137 73 113 307 3 
244 5 46 276 130 309 179 
245 7 221 304 37 72 99 210 107 
246 7 279 301 102 65 258 203 209 
247 5 272 29 229 290 211 
248 5 241 27 254 282 294 
249 5 183 292 51 174 194 
250 4 202 199 234 31 
251 5 262 264 19 255 280 
252 6 290 74 60 153 23 247 
253 7 2 222 25 49 44 177 48 
254 6 27 294 248 225 282 224 
255 7 19 217 264 280 251 262 296 
256 5 170 64 233 235 77 
257 7 209 203 31 234 299 223 301 
258 7 65 259 279 237 246 102 26 
259 7 258 65 237 279 246 102 26 
260 7 181 228 275 210 293 81 232 
261 6 273 20 208 238 233 276 
262 3 251 264 19 
263 3 236 81 232 
264 6 251 280 19 255 262 217 
265 6 34 201 227 226 111 219 
266 6 205 79 240 286 201 206 
267 3 277 104 64 
268 7 40 100 142 13 71 171 52 
269 7 89 92 96 229 122 78 87 
270 5 281 4 291 216 302 
271 4 153 290 300 45 
272 5 247 29 229 211 298 
273 6 261 238 20 208 233 276 
274 7 230 218 172 53 185 93 193 
275 3 228 81 260 
276 7 309 20 208 261 46 179 273 
277 2 267 64 
278 3 295 206 79 
279 7 246 102 301 258 65 203 207 
280 6 264 255 19 217 251 262 
281 4 4 270 291 302 
282 3 225 294 27 
283 5 30 132 185 141 121 
284 5 85 300 44 306 213 
285 7 224 223 31 299 200 234 289 
286 3 240 205 79 
287 7 51 140 249 292 183 174 129 
288 7 13 171 207 100 11 142 268 
289 7 299 223 71 285 257 209 200 
290 5 252 271 60 74 247 
291 4 4 302 281 270 
292 5 174 194 249 36 183 
293 7 181 260 304 210 245 81 232 
294 5 27 225 254 282 224 
295 3 278 206 79 
296 4 303 212 19 255 
297 3 226 265 34 
298 2 211 29 
299 7 223 289 257 285 209 31 203 
300 5 284 85 306 44 213 
301 7 203 209 257 234 31 246 299 
302 3 291 4 281 
303 4 296 212 19 262 
304 7 245 37 210 221 293 72 232 
305 6 204 217 220 255 280 19 
306 4 104 213 64 267 
307 7 3 61 120 239 137 243 7 
308 1 4 
309 7 208 20 276 179 46 235 77 
DEPOT_SECTION
   1
   -1
EOF
