NAME :  X-n480-kX-w47-c7.cctp
COMMENT : 	Adapted by Maziero, Usberti and Cavellucci from the Uchoa, Pecin, Pessoa, Poggi, Subramanian, and Vidal (2013)
TYPE :  CCTP
DIMENSION :    295
EDGE_WEIGHT_TYPE : 	EUC_2D	
CAPACITY : 	52
VERTICES_WITHIN_COVERAGE :  7
VERTICES_WITH_DEMAND : 	47
NODE_COORD_SECTION
1 628 103
2 291 573
3 129 447
4 973 643
5 830 868
6 398 563
7 731 423
8 201 995
9 167 174
10 31 358
11 480 619
12 323 555
13 205 208
14 187 767
15 775 445
16 745 369
17 188 965
18 44 585
19 405 706
20 185 315
21 505 636
22 482 543
23 830 860
24 344 498
25 762 379
26 761 399
27 869 844
28 114 420
29 890 491
30 440 802
31 929 676
32 524 456
33 361 434
34 377 478
35 191 496
36 646 352
37 795 962
38 483 492
39 174 597
40 208 464
41 693 461
42 56 114
43 877 898
44 483 596
45 757 915
46 833 803
47 676 597
48 818 695
49 494 648
50 5 167
51 170 313
52 773 462
53 442 485
54 269 543
55 770 869
56 799 441
57 935 918
58 790 696
59 857 459
60 319 541
61 152 735
62 302 491
63 508 567
64 490 571
65 818 425
66 743 377
67 725 477
68 333 557
69 515 601
70 791 669
71 935 639
72 238 198
73 1000 656
74 613 387
75 425 544
76 107 394
77 409 500
78 144 441
79 163 479
80 400 560
81 198 506
82 176 926
83 763 458
84 761 982
85 383 562
86 384 366
87 373 443
88 231 359
89 340 551
90 232 198
91 370 556
92 466 566
93 865 654
94 869 910
95 216 415
96 368 504
97 194 925
98 766 440
99 212 535
100 492 471
101 314 590
102 675 415
103 705 421
104 471 562
105 870 876
106 24 331
107 882 865
108 864 841
109 730 459
110 734 383
111 966 646
112 856 722
113 191 969
114 857 790
115 682 258
116 230 771
117 745 394
118 692 452
119 395 437
120 503 642
121 326 565
122 204 516
123 158 441
124 133 604
125 673 529
126 788 909
127 843 989
128 764 881
129 540 385
130 92 399
131 192 176
132 506 603
133 137 584
134 121 451
135 229 981
136 706 365
137 761 741
138 70 415
139 198 502
140 839 888
141 237 235
142 308 579
143 801 882
144 977 606
145 514 594
146 128 454
147 868 930
148 181 618
149 904 440
150 587 479
151 451 745
152 962 687
153 776 972
154 831 873
155 44 546
156 754 940
157 197 971
158 872 879
159 63 283
160 119 398
161 211 995
162 819 887
163 596 153
164 916 873
165 830 971
166 837 887
167 774 369
168 933 612
169 905 557
170 768 692
171 761 420
172 407 490
173 806 935
174 646 471
175 774 888
176 440 615
177 204 991
178 117 90
179 840 813
180 882 881
181 826 883
182 341 554
183 220 601
184 160 538
185 949 661
186 934 726
187 154 327
188 399 584
189 680 453
190 847 860
191 834 503
192 134 708
193 717 846
194 640 705
195 460 573
196 387 417
197 803 815
198 356 411
199 352 846
200 150 952
201 68 410
202 958 616
203 654 402
204 138 584
205 216 332
206 186 443
207 671 534
208 160 475
209 403 437
210 172 247
211 490 600
212 23 319
213 160 152
214 855 778
215 159 149
216 169 168
217 770 337
218 297 588
219 736 422
220 893 829
221 221 975
222 814 849
223 817 382
224 209 252
225 369 460
226 114 48
227 932 709
228 468 470
229 851 660
230 774 798
231 526 611
232 993 516
233 134 190
234 988 634
235 960 699
236 989 609
237 332 575
238 986 630
239 198 981
240 599 858
241 284 599
242 440 645
243 825 894
244 229 186
245 142 637
246 77 417
247 368 714
248 224 194
249 228 763
250 839 860
251 395 569
252 124 795
253 784 319
254 265 609
255 953 903
256 101 427
257 434 539
258 874 663
259 340 555
260 169 312
261 845 973
262 758 336
263 287 585
264 726 382
265 487 551
266 592 837
267 279 547
268 820 692
269 926 852
270 991 659
271 478 410
272 625 630
273 379 548
274 999 672
275 863 505
276 178 937
277 364 490
278 160 197
279 186 335
280 757 408
281 497 647
282 322 484
283 414 573
284 367 682
285 743 601
286 835 509
287 823 812
288 141 474
289 415 483
290 311 526
291 791 365
292 951 686
293 140 179
294 848 729
295 315 451
DEMAND_SECTION
2 6
3 7
4 9
5 7
6 10
7 10
8 7
9 6
10 6
11 8
12 6
13 5
14 10
15 8
16 9
17 9
18 10
19 6
20 9
21 10
22 9
23 6
24 10
25 7
26 9
27 5
28 8
29 6
30 8
31 6
32 9
33 6
34 9
35 7
36 8
37 9
38 10
39 5
40 10
41 10
42 5
43 7
44 8
45 8
46 7
47 7
48 5
COVERAGE_SECTION
2 6 263 218 142 241 101 267 
3 7 146 134 78 123 288 28 256 
4 7 111 234 238 270 73 185 202 
5 7 154 23 250 181 190 166 140 
6 7 80 251 85 283 188 273 91 
7 7 219 103 171 280 117 109 26 
8 7 177 161 239 157 113 221 135 
9 7 216 213 278 131 215 293 233 
10 6 106 212 201 138 130 246 
11 7 211 44 21 132 49 120 281 
12 7 68 121 60 89 259 182 237 
13 7 248 90 244 72 131 141 224 
14 5 249 116 61 252 192 
15 6 98 52 83 56 171 280 
16 7 66 110 25 264 117 167 26 
17 7 113 157 239 276 177 8 221 
18 3 155 124 133 
19 4 247 284 151 242 
20 5 51 260 279 187 205 
21 7 120 281 49 11 132 231 69 
22 6 265 104 92 64 63 195 
23 7 5 250 154 190 222 181 166 
24 4 277 96 282 34 
25 7 167 66 16 26 117 110 280 
26 7 280 117 25 171 66 110 167 
27 7 108 107 190 220 105 250 158 
28 7 256 160 76 130 3 134 78 
29 7 275 59 149 191 286 169 65 
30 5 151 199 19 247 284 
31 7 292 185 227 152 71 235 111 
32 6 100 38 228 271 150 129 
33 7 87 198 225 196 119 209 34 
34 7 277 225 96 172 87 289 24 
35 6 139 81 122 79 40 208 
36 7 74 203 136 102 264 103 110 
37 7 153 173 165 84 156 261 126 
38 6 100 228 53 22 32 265 
39 7 148 204 133 124 183 245 184 
40 5 206 35 139 81 79 
41 7 118 189 67 109 103 174 102 
42 3 178 50 226 
43 7 94 180 158 105 107 147 140 
44 7 211 11 132 64 145 69 195 
45 7 156 126 175 128 55 173 143 
46 7 179 287 114 197 214 108 222 
47 4 272 207 285 125 
48 7 268 58 70 294 112 229 170 
49 7 281 120 21 11 132 211 231 
50 1 42 
51 4 260 20 187 279 
52 6 83 15 98 56 109 171 
53 6 289 228 172 77 38 100 
54 2 267 2 
55 6 128 175 143 126 45 222 
56 7 15 65 52 98 83 171 280 
57 5 255 164 43 180 94 
58 6 170 70 48 268 137 294 
59 6 29 275 191 149 65 286 
60 4 12 290 68 89 
61 5 192 14 252 249 116 
62 4 282 290 295 24 
63 7 64 265 145 22 69 132 104 
64 7 63 265 104 92 44 22 211 
65 6 56 223 15 59 98 171 
66 7 16 110 117 264 25 26 167 
67 5 109 41 118 83 52 
68 6 259 89 182 12 121 237 
69 7 145 132 231 211 44 63 21 
70 4 58 170 48 268 
71 6 185 168 111 202 31 4 
72 5 90 244 248 13 141 
73 7 270 274 234 4 238 111 236 
74 5 203 36 102 129 174 
75 5 257 80 283 6 251 
76 4 160 130 28 256 
77 5 172 289 53 34 96 
78 4 123 3 146 134 
79 5 208 288 35 123 78 
80 7 6 251 85 283 188 273 75 
81 6 139 35 122 99 40 79 
82 5 276 97 200 17 113 
83 6 52 15 98 109 171 56 
84 7 153 37 156 173 45 165 126 
85 6 91 251 6 273 80 188 
86 6 196 198 33 119 209 87 
87 7 33 225 119 196 209 34 198 
88 4 205 279 95 20 
89 5 182 259 68 12 121 
90 5 72 248 244 13 141 
91 4 273 85 251 6 
92 6 104 195 64 265 22 44 
93 4 258 229 268 48 
94 7 43 147 158 180 105 140 166 
95 2 206 40 
96 3 277 24 34 
97 4 82 276 17 113 
98 7 15 83 171 52 56 280 219 
99 4 122 81 139 35 
100 6 38 228 32 53 271 22 
101 6 142 218 237 263 121 2 
102 7 203 103 189 118 41 7 136 
103 7 7 102 219 118 189 41 264 
104 6 92 195 265 64 22 44 
105 7 158 180 107 43 190 27 140 
106 3 212 10 159 
107 7 105 180 158 27 108 43 164 
108 7 27 190 107 220 250 105 179 
109 7 67 83 7 41 219 118 98 
110 7 264 66 117 16 25 26 136 
111 7 4 185 234 238 270 202 71 
112 5 294 48 268 214 229 
113 7 17 157 239 177 8 221 161 
114 5 214 46 179 287 108 
115 5 36 262 136 217 253 
116 3 249 14 61 
117 7 110 26 66 280 264 25 16 
118 7 41 189 103 109 67 102 7 
119 7 209 196 87 33 225 34 198 
120 7 21 281 49 11 132 231 69 
121 7 12 68 237 259 182 89 142 
122 4 81 139 99 35 
123 4 78 206 3 146 
124 5 133 204 245 39 148 
125 5 207 174 47 41 67 
126 7 175 143 45 173 128 162 243 
127 6 261 165 37 147 173 153 
128 6 175 55 45 126 143 162 
129 4 271 32 74 100 
130 7 76 246 201 138 160 256 28 
131 3 216 9 13 
132 7 69 145 211 231 44 11 21 
133 5 204 124 39 184 245 
134 7 146 3 78 288 256 28 123 
135 5 221 161 177 8 239 
136 7 264 110 16 66 117 103 25 
137 7 170 58 230 48 268 70 197 
138 7 201 246 130 256 76 28 160 
139 6 81 35 122 99 40 79 
140 7 166 181 243 154 162 5 250 
141 4 224 72 90 13 
142 7 101 218 2 263 121 237 12 
143 7 162 181 243 175 126 154 5 
144 5 236 202 238 234 4 
145 7 69 132 231 211 63 44 64 
146 6 3 134 78 288 123 28 
147 7 94 43 261 140 158 180 166 
148 6 39 183 245 124 204 133 
149 4 59 29 275 65 
150 4 174 32 100 74 
151 7 30 19 247 242 284 49 281 
152 7 292 235 185 31 227 270 274 
153 7 84 37 156 173 165 45 126 
154 7 5 181 23 166 250 140 162 
155 1 18 
156 7 45 153 84 126 37 173 175 
157 7 113 239 17 177 8 221 161 
158 7 105 180 107 43 94 190 140 
159 3 212 106 10 
160 4 76 28 130 256 
161 6 177 8 239 221 135 157 
162 7 181 243 154 166 143 140 5 
163 2 115 36 
164 6 269 107 180 158 43 105 
165 6 261 127 37 173 153 147 
166 7 140 181 243 154 162 5 250 
167 7 25 291 16 66 217 26 262 
168 5 202 71 144 111 4 
169 3 168 275 29 
170 5 58 70 137 48 268 
171 7 280 26 98 219 15 7 117 
172 5 77 289 34 53 96 
173 7 37 126 165 243 153 162 156 
174 4 189 41 118 150 
175 7 128 55 126 143 45 162 243 
176 4 242 11 44 195 
177 7 8 161 239 157 221 113 135 
178 2 226 42 
179 7 46 287 114 108 197 214 27 
180 7 158 105 107 43 94 164 27 
181 7 162 154 243 166 140 5 23 
182 5 259 89 68 12 121 
183 3 148 39 254 
184 5 122 81 133 204 35 
185 7 111 31 292 71 152 4 235 
186 5 227 235 292 152 31 
187 3 51 260 20 
188 4 251 283 6 80 
189 7 118 41 102 174 103 109 67 
190 7 250 23 5 154 108 27 105 
191 4 286 275 59 29 
192 3 61 245 14 
193 6 55 128 175 230 45 143 
194 4 272 47 137 170 
195 6 92 104 64 44 265 22 
196 7 119 209 87 33 198 225 86 
197 6 287 46 230 222 179 23 
198 7 33 196 87 119 225 86 209 
199 1 30 
200 7 276 82 17 113 157 97 239 
201 7 138 246 130 256 76 28 160 
202 6 144 168 4 111 238 236 
203 5 102 74 36 103 189 
204 5 133 124 39 184 245 
205 5 279 88 20 51 260 
206 4 123 40 95 208 
207 5 125 47 174 41 67 
208 5 79 288 123 35 78 
209 7 119 196 87 225 33 289 34 
210 2 224 13 
211 7 44 132 11 69 145 64 63 
212 3 106 10 159 
213 5 215 216 9 293 131 
214 5 114 46 179 287 294 
215 5 213 216 9 293 131 
216 6 9 213 215 131 278 293 
217 7 262 253 167 291 16 25 66 
218 7 263 142 2 101 241 121 237 
219 7 7 171 280 117 103 26 98 
220 6 27 108 107 269 164 105 
221 6 135 161 177 157 239 8 
222 7 23 5 250 154 143 190 181 
223 4 291 65 167 25 
224 4 141 210 13 90 
225 7 87 34 33 277 119 209 96 
226 2 178 42 
227 6 186 235 292 31 152 185 
228 6 100 38 53 289 32 271 
229 4 93 258 268 48 
230 6 197 287 137 46 222 179 
231 7 69 145 132 21 211 120 44 
232 4 144 236 169 29 
233 3 293 278 9 
234 7 238 4 73 111 236 270 144 
235 7 152 292 227 186 31 185 274 
236 6 144 238 234 202 4 111 
237 7 121 68 12 259 101 182 142 
238 7 234 4 236 111 144 270 73 
239 7 157 177 8 113 17 161 221 
240 6 266 193 194 128 45 30 
241 6 263 218 254 2 101 142 
242 4 176 11 49 281 
243 7 162 181 166 140 154 5 143 
244 5 248 90 72 13 131 
245 4 124 148 39 133 
246 7 138 201 130 256 28 76 160 
247 2 284 19 
248 6 90 244 72 13 131 141 
249 3 116 14 61 
250 7 190 23 5 154 181 166 222 
251 7 6 80 85 188 283 273 91 
252 5 61 14 192 116 249 
253 5 217 262 291 167 16 
254 5 241 263 218 2 183 
255 5 57 164 269 180 43 
256 7 28 246 130 134 138 3 76 
257 5 75 283 80 92 6 
258 5 93 229 31 268 112 
259 5 182 89 68 12 121 
260 4 51 20 187 279 
261 6 165 127 147 37 173 94 
262 7 217 253 16 167 25 66 291 
263 7 218 2 241 142 101 254 267 
264 7 110 66 117 16 136 25 26 
265 7 22 104 64 63 92 195 44 
266 5 240 193 194 30 151 
267 2 54 2 
268 7 48 58 70 229 294 112 170 
269 6 164 220 107 180 27 255 
270 7 73 274 4 234 111 238 152 
271 7 228 100 32 129 209 38 53 
272 6 47 194 231 207 125 69 
273 5 91 85 6 80 251 
274 7 270 73 4 152 234 111 238 
275 7 286 191 29 59 169 149 56 
276 7 82 97 17 200 113 157 239 
277 5 96 34 24 225 282 
278 5 9 233 293 216 131 
279 5 20 51 260 205 187 
280 7 26 171 117 219 25 7 98 
281 7 49 120 21 11 132 231 211 
282 5 62 24 295 277 290 
283 4 6 80 188 251 
284 2 247 19 
285 1 47 
286 4 191 275 59 29 
287 7 46 179 197 222 114 214 23 
288 6 208 79 146 3 134 78 
289 5 172 77 53 34 209 
290 2 60 12 
291 7 167 223 25 217 262 26 16 
292 7 152 235 31 185 227 111 186 
293 6 233 9 278 216 213 215 
294 5 112 48 268 214 114 
295 7 282 62 33 24 225 198 87 
DEPOT_SECTION
   1
   -1
EOF
