NAME :  X-n469-kX-w93-c11.cctp
COMMENT : 	Adapted by Maziero, Usberti and Cavellucci from the Uchoa, Pecin, Pessoa, Poggi, Subramanian, and Vidal (2013)
TYPE :  CCTP
DIMENSION :    439
EDGE_WEIGHT_TYPE : 	EUC_2D	
CAPACITY : 	256
VERTICES_WITHIN_COVERAGE :  11
VERTICES_WITH_DEMAND : 	93
NODE_COORD_SECTION
1 0 0
2 363 697
3 120 259
4 555 718
5 522 918
6 239 935
7 304 517
8 856 96
9 38 904
10 174 951
11 294 935
12 942 324
13 402 176
14 766 450
15 473 862
16 262 550
17 661 92
18 440 655
19 678 291
20 345 691
21 564 903
22 952 802
23 698 352
24 297 930
25 66 244
26 882 642
27 777 818
28 302 212
29 824 647
30 143 946
31 108 600
32 121 755
33 697 32
34 473 995
35 342 252
36 596 534
37 248 211
38 940 88
39 81 468
40 144 796
41 244 385
42 437 42
43 381 583
44 263 549
45 153 646
46 187 688
47 248 71
48 27 70
49 649 477
50 244 370
51 145 49
52 589 402
53 105 251
54 986 452
55 486 773
56 679 851
57 102 734
58 619 809
59 139 138
60 107 489
61 921 579
62 681 336
63 925 185
64 260 655
65 46 832
66 534 440
67 117 590
68 604 453
69 667 428
70 871 548
71 943 171
72 181 252
73 172 696
74 211 597
75 82 390
76 114 189
77 659 852
78 404 544
79 169 845
80 101 663
81 422 503
82 124 861
83 289 778
84 923 842
85 464 148
86 377 32
87 482 570
88 933 156
89 987 678
90 995 62
91 241 242
92 565 805
93 898 871
94 137 970
95 11 959
96 307 897
97 693 522
98 827 725
99 27 818
100 284 562
101 136 875
102 214 719
103 75 85
104 749 863
105 743 494
106 169 42
107 664 268
108 485 432
109 232 420
110 329 374
111 360 726
112 598 258
113 890 844
114 374 794
115 937 993
116 308 95
117 970 326
118 257 653
119 333 378
120 928 411
121 4 773
122 620 171
123 91 795
124 729 479
125 507 782
126 321 298
127 516 599
128 914 830
129 495 443
130 201 805
131 299 90
132 327 474
133 400 714
134 936 468
135 217 110
136 447 82
137 180 61
138 329 479
139 109 163
140 607 144
141 864 903
142 633 586
143 228 986
144 98 291
145 56 919
146 302 929
147 658 831
148 664 797
149 442 558
150 492 535
151 998 71
152 283 534
153 562 828
154 918 176
155 250 170
156 921 325
157 577 116
158 523 285
159 272 677
160 802 102
161 112 530
162 371 252
163 335 99
164 205 379
165 315 321
166 304 45
167 684 368
168 962 930
169 715 476
170 281 282
171 970 23
172 944 627
173 188 859
174 218 717
175 426 876
176 232 735
177 446 846
178 483 747
179 360 494
180 608 408
181 522 830
182 661 720
183 56 192
184 279 720
185 732 386
186 292 154
187 265 524
188 912 441
189 216 492
190 798 670
191 125 229
192 438 432
193 29 187
194 799 900
195 231 26
196 207 149
197 306 573
198 496 745
199 379 21
200 395 564
201 632 389
202 167 874
203 71 215
204 505 662
205 547 517
206 668 216
207 11 995
208 872 947
209 42 480
210 933 471
211 605 641
212 154 936
213 65 939
214 472 601
215 462 825
216 842 664
217 14 197
218 879 336
219 896 105
220 242 700
221 319 671
222 422 436
223 527 45
224 552 530
225 41 364
226 261 659
227 143 846
228 705 914
229 835 5
230 400 676
231 910 716
232 267 601
233 429 646
234 333 945
235 31 190
236 889 960
237 185 385
238 407 737
239 731 485
240 956 536
241 255 405
242 969 429
243 28 973
244 349 853
245 931 120
246 719 109
247 321 722
248 851 158
249 87 931
250 943 972
251 628 621
252 189 530
253 311 745
254 546 526
255 373 661
256 749 318
257 51 714
258 575 131
259 982 61
260 364 513
261 835 755
262 780 35
263 208 60
264 768 48
265 115 878
266 637 410
267 379 291
268 35 544
269 237 188
270 176 879
271 215 559
272 399 454
273 5 888
274 566 749
275 986 603
276 699 758
277 984 786
278 873 320
279 292 117
280 354 700
281 938 85
282 992 408
283 190 437
284 336 879
285 146 844
286 688 35
287 293 805
288 852 648
289 387 973
290 245 29
291 94 156
292 279 676
293 126 40
294 941 0
295 656 871
296 67 140
297 373 2
298 65 214
299 196 652
300 14 925
301 645 819
302 228 390
303 174 699
304 433 497
305 942 386
306 656 224
307 818 828
308 367 227
309 656 29
310 869 658
311 806 501
312 938 250
313 881 967
314 772 316
315 915 807
316 804 516
317 866 546
318 758 47
319 337 182
320 940 481
321 614 577
322 952 221
323 672 232
324 752 777
325 389 177
326 874 793
327 447 934
328 63 91
329 194 17
330 90 431
331 164 388
332 383 589
333 842 158
334 921 685
335 676 540
336 377 764
337 347 51
338 508 619
339 285 973
340 793 876
341 430 40
342 325 314
343 252 411
344 955 452
345 14 857
346 675 367
347 288 222
348 266 783
349 723 124
350 186 389
351 57 912
352 709 425
353 386 859
354 316 507
355 340 704
356 535 963
357 851 866
358 219 654
359 906 732
360 403 121
361 206 923
362 934 353
363 917 951
364 116 502
365 634 559
366 262 403
367 159 542
368 879 100
369 676 416
370 235 349
371 231 102
372 378 569
373 876 507
374 399 48
375 56 351
376 950 398
377 259 247
378 5 250
379 892 26
380 884 218
381 433 319
382 507 93
383 819 380
384 922 302
385 81 170
386 61 608
387 247 681
388 761 62
389 467 514
390 27 213
391 416 712
392 550 552
393 930 830
394 469 221
395 894 272
396 390 966
397 388 863
398 652 334
399 74 677
400 838 136
401 839 121
402 545 143
403 680 257
404 399 40
405 321 632
406 263 860
407 37 293
408 92 189
409 856 674
410 704 344
411 780 346
412 226 532
413 708 89
414 656 510
415 226 427
416 217 363
417 312 489
418 324 409
419 321 270
420 811 711
421 380 451
422 445 526
423 27 480
424 696 12
425 102 900
426 890 926
427 501 274
428 409 329
429 529 242
430 609 673
431 924 31
432 566 75
433 144 331
434 28 857
435 546 142
436 803 158
437 16 859
438 522 645
439 873 593
DEMAND_SECTION
2 83
3 73
4 100
5 88
6 90
7 71
8 62
9 95
10 56
11 75
12 51
13 86
14 62
15 74
16 65
17 77
18 58
19 98
20 81
21 86
22 75
23 74
24 77
25 80
26 57
27 54
28 67
29 74
30 94
31 99
32 90
33 54
34 72
35 70
36 69
37 100
38 93
39 97
40 85
41 79
42 93
43 97
44 100
45 51
46 84
47 59
48 60
49 84
50 56
51 97
52 100
53 80
54 89
55 99
56 57
57 72
58 75
59 62
60 64
61 75
62 63
63 71
64 82
65 51
66 55
67 95
68 67
69 90
70 73
71 51
72 83
73 51
74 80
75 76
76 87
77 65
78 71
79 60
80 72
81 54
82 76
83 96
84 79
85 56
86 68
87 88
88 57
89 69
90 95
91 75
92 56
93 54
94 61
COVERAGE_SECTION
2 11 280 20 355 111 255 133 230 247 221 391 238 
3 11 53 191 144 25 72 203 76 298 408 433 407 
4 10 274 198 430 204 178 125 438 55 92 211 
5 11 21 356 15 327 181 34 153 175 177 215 92 
6 11 361 143 11 24 339 146 10 96 406 270 212 
7 11 354 152 417 187 138 100 132 44 16 197 260 
8 11 368 401 219 400 160 248 333 245 379 436 281 
9 11 351 145 300 273 213 434 437 345 249 95 425 
10 11 212 30 94 361 143 6 270 202 101 425 249 
11 11 24 146 339 96 234 6 284 406 143 361 244 
12 11 156 117 362 384 305 218 278 395 312 376 120 
13 11 325 360 308 319 85 394 162 35 163 136 28 
14 11 124 239 105 169 352 311 185 316 383 369 69 
15 10 177 215 175 181 5 327 397 125 353 55 
16 11 44 100 152 187 412 271 197 232 7 74 354 
17 11 413 246 286 309 33 349 140 157 424 122 258 
18 11 233 230 391 214 204 255 133 338 438 332 2 
19 11 107 403 62 398 323 410 23 306 206 256 346 
20 11 280 355 2 221 111 247 255 230 133 253 405 
21 11 5 356 153 181 295 92 15 77 58 301 147 
22 10 277 393 315 128 84 113 326 359 93 231 
23 11 410 167 62 346 185 398 256 19 369 352 201 
24 11 146 11 96 234 339 6 284 406 143 361 244 
25 11 203 298 53 390 183 3 144 407 191 378 408 
26 11 310 288 409 216 439 29 334 172 61 231 190 
27 10 307 324 104 340 194 261 357 276 326 56 
28 11 347 319 37 377 35 186 419 155 308 91 269 
29 11 216 288 190 409 310 26 420 439 98 334 261 
30 11 212 94 10 249 425 361 101 265 270 202 213 
31 11 67 386 80 45 161 367 399 268 364 299 74 
32 11 57 40 123 303 73 257 399 285 46 80 130 
33 10 286 424 309 413 318 17 388 264 246 262 
34 10 327 356 396 289 5 175 21 15 234 177 
35 11 419 162 308 126 267 28 347 342 170 319 165 
36 11 224 365 321 392 254 205 142 414 49 335 68 
37 11 269 91 377 155 347 28 186 196 170 72 319 
38 11 281 245 219 259 431 151 90 368 88 171 379 
39 11 60 330 209 364 423 161 75 268 367 225 283 
40 11 32 285 227 123 79 130 82 57 173 101 202 
41 11 50 302 241 366 343 416 109 370 164 415 350 
42 11 341 374 404 136 86 199 297 360 382 223 337 
43 11 332 372 200 78 149 260 197 405 255 233 422 
44 11 16 100 152 187 412 197 271 7 232 354 74 
45 11 299 73 46 80 303 31 358 67 74 399 102 
46 11 73 303 299 102 174 358 45 220 387 176 118 
47 11 371 263 290 195 135 131 166 279 116 137 329 
48 11 328 103 296 293 291 385 193 51 235 139 183 
49 11 414 68 69 97 169 369 266 335 36 352 124 
50 11 41 370 302 416 241 366 164 343 109 415 237 
51 11 293 106 137 329 263 103 59 195 328 135 371 
52 11 180 201 266 68 66 69 369 346 398 49 167 
53 11 3 191 25 144 203 298 76 408 72 183 407 
54 11 242 344 282 134 320 210 376 120 188 305 240 
55 11 125 178 198 215 181 177 274 92 238 4 15 
56 11 77 147 295 301 148 228 104 58 276 27 324 
57 11 32 257 123 399 80 40 73 303 46 45 121 
58 11 301 147 148 92 77 153 295 56 274 276 182 
59 11 139 291 76 385 196 408 296 103 135 137 51 
60 11 364 39 161 330 209 367 423 268 252 283 67 
61 11 439 172 240 70 317 275 26 373 310 288 320 
62 11 23 410 398 167 346 19 107 256 185 201 403 
63 11 154 71 88 322 380 245 312 248 219 333 395 
64 11 118 226 159 292 387 358 220 232 221 299 405 
65 11 99 434 437 345 123 273 9 121 351 82 265 
66 11 129 108 52 68 205 180 254 224 192 389 150 
67 11 31 386 161 367 45 80 364 74 252 268 399 
68 11 180 49 52 266 69 201 66 414 36 369 205 
69 11 369 266 352 49 201 167 180 346 68 169 185 
70 11 317 373 439 61 316 311 240 26 320 210 288 
71 11 88 63 154 322 245 380 312 219 38 281 248 
72 11 3 91 191 53 377 37 269 433 76 144 170 
73 11 303 46 102 299 174 45 358 220 176 387 32 
74 11 271 232 299 358 412 16 44 252 118 45 64 
75 11 330 375 225 39 331 433 209 144 60 237 350 
76 11 408 139 385 291 191 203 298 59 183 53 296 
77 11 295 56 147 301 148 58 228 104 153 276 92 
78 11 200 372 149 43 81 422 332 260 304 179 389 
79 11 285 173 227 202 270 101 82 130 40 265 361 
80 11 399 45 31 386 57 257 67 73 303 46 32 
81 11 304 422 78 389 272 149 260 179 200 222 421 
82 11 101 265 227 285 202 425 79 270 173 40 123 
83 11 348 287 253 184 247 176 114 406 111 336 355 
84 11 393 128 113 315 93 22 326 357 277 141 426 
85 11 360 13 136 382 394 325 402 435 42 258 341 
86 11 199 404 374 297 337 341 42 166 163 136 116 
87 11 214 150 149 127 338 422 389 392 254 224 78 
88 11 71 154 63 245 219 38 322 281 368 380 248 
89 11 334 172 275 231 359 277 26 61 310 22 409 
90 11 151 259 171 38 281 431 294 245 219 379 88 
91 11 377 37 347 269 170 72 28 155 419 126 196 
92 11 153 181 58 274 125 301 55 4 198 147 21 
93 11 113 84 128 141 357 393 426 315 208 326 363 
94 11 30 212 10 249 213 425 361 143 101 265 145 
95 11 243 300 207 213 145 9 351 273 249 437 345 
96 11 146 24 284 11 234 406 244 6 339 353 397 
97 9 335 414 169 239 124 105 49 365 142 
98 10 420 261 409 190 216 29 310 359 288 231 
99 11 65 434 345 437 121 123 273 9 351 145 82 
100 11 16 44 197 152 187 232 7 354 412 271 417 
101 11 82 265 227 202 285 270 425 79 173 212 30 
102 11 174 176 220 46 303 73 387 184 358 299 159 
103 11 328 48 296 293 291 51 59 139 385 106 408 
104 11 340 27 194 228 56 307 324 77 295 147 357 
105 10 239 124 169 14 97 311 316 352 335 414 
106 11 137 51 329 263 293 195 290 135 47 371 59 
107 10 403 19 323 306 206 112 398 62 410 23 
108 10 129 192 66 222 304 389 272 81 422 150 
109 11 415 343 241 302 366 41 283 164 50 350 237 
110 10 119 418 165 342 366 126 241 50 343 41 
111 11 280 2 355 20 247 133 336 238 253 391 230 
112 9 107 306 429 323 158 206 403 19 122 
113 10 93 128 84 393 315 357 326 141 307 22 
114 11 336 244 238 353 111 397 253 287 133 83 177 
115 9 250 363 236 313 168 208 426 141 93 
116 11 131 163 279 166 337 186 47 371 290 135 319 
117 11 12 362 156 384 305 376 312 282 218 395 120 
118 11 64 226 159 387 292 358 220 232 299 221 405 
119 10 110 418 165 342 366 126 241 343 421 41 
120 10 376 305 188 242 344 134 362 210 282 54 
121 11 99 65 257 345 434 437 123 57 273 32 399 
122 10 140 258 306 206 157 435 323 402 17 112 
123 11 32 40 65 57 99 227 82 285 265 434 121 
124 11 239 169 105 14 97 352 414 49 69 311 335 
125 11 55 198 178 181 92 215 274 153 4 15 177 
126 11 342 165 419 170 35 267 162 110 377 119 347 
127 10 338 214 87 438 392 204 150 224 254 149 
128 10 84 393 315 113 93 22 326 357 277 141 
129 10 108 66 192 222 389 304 205 150 81 254 
130 11 79 173 40 285 348 227 176 202 270 406 102 
131 11 116 279 163 166 47 337 186 371 290 135 195 
132 10 138 417 354 179 7 260 421 418 152 272 
133 11 391 238 230 2 111 280 336 255 20 355 18 
134 10 210 320 344 188 242 54 120 240 376 373 
135 11 371 196 47 263 137 155 279 269 59 106 131 
136 11 42 341 360 374 382 404 85 86 223 199 13 
137 11 106 263 51 329 293 135 195 371 47 290 59 
138 10 132 417 354 179 7 260 421 418 152 272 
139 11 291 76 385 408 59 296 183 203 298 191 235 
140 10 122 258 157 435 402 17 432 206 306 323 
141 10 426 357 208 93 236 113 194 313 363 340 
142 7 321 365 251 211 335 36 414 
143 11 6 339 10 361 11 24 212 94 146 30 234 
144 11 3 53 25 407 433 191 375 203 298 72 225 
145 11 351 213 9 249 300 425 95 273 243 434 265 
146 11 24 11 96 234 339 284 6 406 244 143 396 
147 11 301 77 56 148 295 58 276 228 104 153 92 
148 10 301 147 58 276 77 56 295 182 324 92 
149 11 422 78 87 200 389 214 150 81 304 372 43 
150 11 389 87 422 149 254 205 224 392 127 214 304 
151 11 90 259 171 38 281 245 431 294 88 219 71 
152 11 187 44 16 7 100 354 197 417 412 232 138 
153 11 92 181 58 125 21 274 301 55 15 147 5 
154 11 63 71 88 380 322 245 248 219 312 333 368 
155 11 269 37 186 196 347 28 135 279 371 91 377 
156 10 12 384 362 218 278 117 395 305 312 376 
157 11 258 435 140 402 432 122 382 17 223 85 309 
158 7 427 429 112 394 381 428 52 
159 11 292 226 64 387 118 220 184 221 358 174 247 
160 9 401 400 8 436 388 264 333 318 262 
161 11 364 60 367 67 39 31 252 268 209 386 423 
162 11 308 35 267 419 126 325 342 319 28 13 428 
163 11 116 131 279 337 166 186 360 86 374 319 404 
164 11 416 237 350 302 41 50 331 370 109 415 241 
165 11 342 126 419 170 110 119 267 35 370 50 418 
166 11 337 131 116 290 47 163 279 86 195 199 297 
167 11 346 23 410 62 398 369 185 201 69 352 266 
168 11 250 363 115 426 236 93 313 208 84 141 393 
169 11 124 239 105 97 352 14 49 69 414 369 335 
170 11 377 419 126 165 342 91 347 35 28 37 370 
171 11 294 259 90 431 151 281 38 379 245 219 368 
172 11 275 61 334 26 89 439 310 240 288 231 409 
173 11 270 79 202 285 227 101 130 82 361 265 406 
174 11 102 176 220 46 387 303 73 184 358 159 299 
175 10 177 397 353 15 215 327 244 284 114 396 
176 11 174 102 220 184 387 348 46 303 159 83 73 
177 10 215 15 175 397 353 181 55 125 327 114 
178 11 198 55 125 391 238 4 215 274 204 133 181 
179 11 260 138 132 354 421 417 272 7 81 78 304 
180 11 52 266 201 68 69 369 346 49 66 167 398 
181 11 153 92 125 15 215 55 177 21 5 198 178 
182 7 276 430 148 211 58 274 301 
183 11 298 235 193 203 385 390 408 217 291 25 296 
184 11 253 220 247 159 292 176 387 83 174 221 355 
185 11 352 23 410 167 346 411 369 256 62 14 69 
186 11 279 155 319 28 116 131 269 347 163 37 371 
187 11 152 44 16 7 412 100 354 189 417 271 197 
188 10 120 134 210 344 320 376 242 305 54 373 
189 11 412 252 187 283 415 271 16 44 109 367 152 
190 9 29 420 216 288 409 98 310 26 261 
191 11 3 53 76 408 203 25 72 298 139 144 385 
192 9 222 272 108 129 421 304 81 389 422 
193 11 235 217 390 183 298 203 385 296 408 378 25 
194 9 340 104 357 141 307 27 208 228 426 
195 11 290 329 263 47 137 106 166 371 135 51 131 
196 11 135 155 269 371 59 37 186 47 263 279 137 
197 11 100 152 232 44 16 7 405 187 354 372 43 
198 11 178 55 125 4 274 204 215 391 181 238 92 
199 11 86 297 404 374 337 341 42 166 163 136 116 
200 11 372 78 43 332 149 260 422 81 304 179 214 
201 11 266 180 52 346 69 369 167 398 68 62 23 
202 11 270 173 79 101 227 285 82 265 212 361 425 
203 11 298 183 25 408 390 385 235 53 76 193 191 
204 10 438 338 127 18 214 4 233 198 178 87 
205 11 254 224 392 36 150 66 389 87 68 127 129 
206 8 306 323 403 107 122 19 112 140 
207 11 243 95 300 213 145 9 351 249 273 94 425 
208 9 236 313 426 141 363 250 93 115 357 
209 11 423 39 268 60 330 364 161 75 225 386 375 
210 10 134 320 344 188 242 54 120 373 240 376 
211 7 251 430 142 321 438 365 4 
212 11 30 10 94 361 270 202 425 101 249 265 82 
213 11 145 249 351 9 243 300 425 95 30 94 207 
214 11 87 338 127 149 233 18 438 150 204 422 200 
215 11 177 15 55 181 125 175 178 353 397 198 114 
216 11 409 288 29 310 190 26 420 98 439 334 231 
217 11 193 235 390 183 298 378 203 25 385 296 408 
218 8 278 156 384 362 12 395 383 305 
219 11 368 245 8 38 281 401 88 400 248 154 333 
220 11 387 174 102 176 159 184 292 226 64 118 358 
221 11 20 355 405 292 280 159 2 247 255 226 64 
222 9 192 272 421 304 108 81 129 179 389 
223 11 432 382 157 136 42 341 258 435 402 85 140 
224 11 254 205 392 36 150 127 321 87 389 365 66 
225 11 375 75 407 330 144 433 39 209 423 378 25 
226 11 64 118 159 292 387 358 220 232 221 184 299 
227 11 285 82 79 101 202 265 173 270 40 425 130 
228 10 295 104 56 77 147 194 340 301 27 148 
229 10 379 262 264 318 8 388 431 160 368 294 
230 11 255 133 391 233 2 18 280 20 238 111 355 
231 10 359 334 409 310 26 98 261 326 89 216 
232 11 100 197 16 44 118 64 74 226 405 271 152 
233 11 18 230 255 214 391 332 133 204 43 2 338 
234 10 146 24 11 96 339 289 396 284 244 6 
235 11 193 217 390 183 298 203 385 408 296 25 378 
236 9 313 208 363 426 250 115 141 168 93 
237 11 350 164 331 416 302 283 41 109 415 50 370 
238 11 133 391 336 111 2 230 280 114 355 20 178 
239 11 124 105 169 14 97 352 311 335 316 414 49 
240 11 61 320 210 134 275 344 373 70 54 317 172 
241 11 343 366 41 109 302 415 50 164 416 370 418 
242 11 344 54 282 376 120 134 305 210 188 320 362 
243 11 95 207 213 300 145 351 9 249 273 425 94 
244 10 284 353 397 96 114 287 175 406 146 24 
245 11 38 88 281 219 71 368 154 63 259 8 151 
246 7 349 413 17 388 318 264 33 
247 11 253 355 20 111 280 184 2 221 292 83 159 
248 10 333 400 401 436 8 368 380 154 219 160 
249 11 213 145 425 351 9 30 265 94 212 243 300 
250 10 115 363 168 236 313 426 208 141 93 84 
251 6 211 142 321 430 365 36 
252 11 367 412 271 189 74 16 44 187 161 364 60 
253 11 247 83 184 355 111 348 280 287 20 336 2 
254 11 224 205 392 36 150 87 127 389 321 66 68 
255 11 230 2 20 280 355 221 233 133 405 111 18 
256 8 314 411 410 23 62 185 19 167 
257 11 399 57 80 121 32 123 386 99 65 73 45 
258 10 157 435 402 140 432 122 382 17 223 85 
259 11 90 151 171 38 281 431 294 245 219 379 88 
260 11 179 354 138 78 132 417 372 81 7 200 421 
261 10 98 420 326 307 359 409 231 27 324 216 
262 9 264 318 388 229 160 33 424 413 286 
263 11 137 47 195 106 329 290 371 135 51 293 196 
264 9 318 388 262 160 33 413 246 229 424 
265 11 82 101 425 227 285 202 249 270 79 351 212 
266 11 201 180 69 369 52 68 346 167 49 352 398 
267 11 162 428 35 126 342 381 419 308 165 110 119 
268 11 209 423 386 161 39 60 364 31 67 367 330 
269 11 155 37 196 91 347 377 186 28 135 72 371 
270 11 202 173 79 101 285 227 361 82 212 265 10 
271 11 412 74 252 16 44 367 187 189 232 100 152 
272 9 421 222 192 81 304 179 260 138 132 
273 11 437 345 9 300 434 351 145 65 95 99 213 
274 11 4 92 125 198 153 58 178 55 430 181 182 
275 11 172 61 240 89 334 26 439 70 310 320 317 
276 9 148 182 324 301 147 56 58 27 77 
277 11 22 393 315 84 128 359 231 89 113 326 334 
278 6 218 156 384 395 12 362 
279 11 116 131 186 163 371 47 155 166 135 319 337 
280 11 2 20 355 111 247 255 221 133 230 253 391 
281 11 38 245 219 259 431 90 368 151 171 88 379 
282 11 242 376 54 305 344 120 362 134 117 210 188 
283 11 415 109 350 237 331 164 302 189 343 241 41 
284 10 244 96 353 397 146 24 234 11 406 287 
285 11 227 79 82 101 202 173 265 270 40 130 425 
286 11 33 424 309 413 17 318 388 246 264 262 349 
287 11 83 348 253 406 244 114 184 284 247 130 96 
288 11 216 310 409 29 26 190 439 420 334 98 231 
289 10 396 234 327 34 146 11 24 339 175 284 
290 11 195 47 263 329 166 137 371 106 131 135 116 
291 11 139 385 296 408 76 59 183 203 298 193 235 
292 11 159 226 64 118 387 221 184 220 405 247 358 
293 11 51 106 137 103 329 328 263 59 48 195 135 
294 11 431 171 379 259 90 281 38 151 229 219 368 
295 11 77 56 147 301 228 58 148 104 21 153 92 
296 11 291 385 139 328 183 408 103 193 235 76 59 
297 11 199 86 404 374 337 341 42 166 163 136 116 
298 11 203 183 25 408 390 235 193 385 53 217 76 
299 11 358 46 45 73 303 74 387 118 64 226 220 
300 11 9 95 273 145 351 243 213 437 345 434 207 
301 11 147 58 148 77 56 295 92 276 153 182 274 
302 11 41 164 50 416 109 241 343 366 415 350 370 
303 11 73 46 102 174 299 45 358 176 220 387 32 
304 11 81 422 389 78 272 149 222 192 150 421 260 
305 11 376 120 362 242 282 12 188 156 117 344 54 
306 8 206 323 403 107 122 112 19 140 
307 10 27 357 340 326 113 194 261 104 324 141 
308 11 162 35 319 325 13 419 267 28 347 126 342 
309 11 286 33 424 17 413 432 246 318 388 264 349 
310 11 288 26 409 216 29 334 439 231 190 98 420 
311 9 316 105 14 373 317 239 70 124 169 
312 10 322 395 384 380 63 12 154 156 71 117 
313 9 236 208 363 426 115 250 141 168 93 
314 6 256 411 410 383 185 23 
315 10 128 393 84 22 326 113 93 277 359 357 
316 9 311 105 317 373 70 14 239 124 169 
317 10 70 373 439 61 316 311 240 26 320 210 
318 9 264 388 262 33 413 160 286 424 246 
319 11 28 325 186 308 347 13 35 162 279 163 155 
320 10 210 134 344 188 54 240 242 373 120 376 
321 9 142 365 251 36 211 392 335 224 414 
322 10 312 63 71 154 88 380 395 384 12 245 
323 8 206 306 403 107 19 112 122 62 
324 10 27 276 307 104 261 420 148 98 56 182 
325 11 13 319 308 360 162 85 35 394 28 163 186 
326 10 315 113 128 261 307 393 84 359 357 22 
327 10 175 396 34 289 5 15 177 397 356 353 
328 11 103 48 296 291 293 385 139 59 51 183 193 
329 11 106 195 263 137 290 51 293 47 371 135 166 
330 11 39 75 60 209 364 423 225 331 375 283 161 
331 11 237 350 164 283 416 433 302 415 109 41 370 
332 11 43 372 200 78 149 233 255 405 260 197 18 
333 10 248 400 401 436 8 160 368 380 219 154 
334 10 231 359 26 310 172 89 409 288 216 98 
335 9 97 414 365 142 49 321 169 239 36 
336 11 114 238 111 133 391 2 280 253 247 355 20 
337 11 86 166 199 163 374 404 297 116 131 341 279 
338 10 127 438 214 204 87 18 392 233 150 149 
339 11 11 24 146 234 143 6 96 361 289 396 284 
340 9 194 104 307 357 27 141 228 113 93 
341 11 42 404 374 136 86 199 297 337 360 382 223 
342 11 165 126 419 170 267 110 35 119 162 428 377 
343 11 241 366 109 41 415 302 50 164 416 370 283 
344 11 134 242 210 54 320 188 120 376 282 305 240 
345 11 437 434 273 65 99 9 300 351 145 121 213 
346 11 167 23 62 410 398 201 369 266 185 69 352 
347 11 28 377 37 91 419 170 269 35 319 155 186 
348 11 83 287 176 253 184 130 406 102 174 247 220 
349 7 246 413 17 388 160 318 436 
350 11 237 164 331 416 302 283 109 415 41 50 370 
351 11 145 9 213 249 300 425 273 434 95 265 437 
352 11 369 69 185 169 124 14 167 239 346 23 266 
353 10 397 244 175 284 177 114 215 15 96 336 
354 11 7 417 138 132 152 179 260 187 100 197 44 
355 11 20 280 2 247 111 221 253 255 133 184 230 
356 10 5 21 34 327 15 181 153 175 396 177 
357 11 141 113 93 307 340 194 426 128 84 326 208 
358 11 299 118 387 64 226 46 220 74 159 73 174 
359 10 231 334 326 261 315 409 98 310 22 26 
360 11 13 325 136 85 163 374 404 341 42 319 337 
361 11 6 10 270 212 202 173 30 143 94 101 406 
362 11 12 156 305 117 376 384 120 218 278 282 242 
363 10 236 250 426 313 208 115 168 141 93 357 
364 11 60 161 39 367 330 209 252 67 268 423 31 
365 9 142 321 36 335 414 251 97 49 392 
366 11 241 343 41 109 302 50 415 370 416 164 418 
367 11 252 161 271 364 67 412 60 74 189 31 16 
368 11 219 8 401 400 245 281 38 248 333 379 160 
369 11 69 352 266 167 346 201 185 49 23 180 169 
370 11 50 416 41 164 302 241 366 237 350 343 109 
371 11 135 47 263 196 279 137 131 155 290 195 116 
372 11 43 200 332 78 260 149 197 179 81 422 405 
373 10 317 70 210 320 311 134 316 188 61 240 
374 11 404 86 341 199 42 337 297 136 360 163 166 
375 11 225 75 407 144 330 433 25 53 3 378 331 
376 11 305 120 242 282 362 344 188 54 134 12 117 
377 11 91 37 347 170 28 269 419 72 155 126 35 
378 11 390 217 407 25 235 193 298 203 183 53 144 
379 11 431 294 229 281 368 38 171 8 219 259 245 
380 8 63 154 395 312 248 322 333 71 
381 9 428 267 427 162 158 394 342 35 192 
382 11 223 136 432 402 435 85 157 258 42 341 360 
383 7 411 218 314 278 185 14 256 
384 9 156 12 395 278 362 117 312 218 305 
385 11 291 408 139 183 296 76 203 298 235 193 59 
386 11 31 67 80 268 399 161 45 257 367 364 60 
387 11 220 159 226 64 118 292 358 174 102 184 176 
388 9 318 264 262 160 413 246 33 349 286 
389 11 422 150 304 81 149 87 78 129 205 254 108 
390 11 217 235 193 183 298 378 203 25 385 408 407 
391 11 133 238 230 2 111 18 280 336 233 255 20 
392 10 224 254 205 36 127 150 321 87 338 365 
393 10 84 128 315 22 113 93 326 277 357 141 
394 9 427 429 85 13 158 325 308 162 381 
395 7 384 312 278 380 156 218 12 
396 10 289 234 327 34 146 175 24 11 284 397 
397 10 353 175 244 284 177 114 215 15 96 327 
398 11 62 346 167 23 19 410 201 107 266 403 369 
399 11 80 257 57 386 31 45 32 67 73 303 46 
400 8 401 333 248 436 8 160 368 219 
401 9 400 8 333 248 160 368 436 219 245 
402 11 435 258 157 140 382 432 122 85 223 429 394 
403 10 107 323 19 306 206 62 112 398 410 256 
404 11 374 86 199 341 42 297 337 136 360 163 166 
405 11 221 255 197 292 232 20 64 226 118 159 355 
406 11 96 287 173 284 348 24 6 146 11 130 361 
407 11 378 25 144 375 225 53 390 298 203 3 217 
408 11 76 385 139 203 291 183 298 191 296 25 235 
409 11 216 310 288 26 29 190 420 98 334 231 359 
410 11 23 62 167 346 185 256 398 19 314 411 369 
411 7 314 256 383 185 410 23 278 
412 11 271 252 16 187 44 189 152 100 74 367 7 
413 9 246 349 17 33 286 388 318 264 424 
414 11 49 335 97 365 36 169 68 124 142 239 321 
415 11 109 343 241 283 302 366 41 164 350 237 50 
416 11 164 370 50 302 41 237 350 241 109 331 343 
417 11 354 138 132 7 179 152 260 187 44 100 421 
418 10 119 110 366 132 241 138 421 343 417 41 
419 11 35 126 170 342 165 162 347 28 267 308 377 
420 10 98 190 261 216 409 29 288 310 324 359 
421 10 272 222 179 132 138 192 260 81 304 418 
422 11 389 304 149 81 78 150 87 200 214 372 260 
423 11 209 39 268 330 60 364 161 75 225 375 386 
424 10 33 286 309 318 413 264 388 17 262 246 
425 11 265 249 101 82 351 145 213 30 212 9 227 
426 10 208 236 141 363 313 93 250 168 357 113 
427 8 158 429 394 381 112 428 267 85 
428 9 381 267 342 162 119 110 126 165 35 
429 8 158 427 394 112 402 435 85 122 
430 7 211 251 4 182 274 142 438 
431 11 379 294 171 281 38 259 90 219 368 151 245 
432 11 157 223 258 382 435 402 140 17 309 122 136 
433 11 331 144 237 350 3 164 416 75 72 53 375 
434 11 437 345 65 99 273 9 351 145 300 425 121 
435 11 402 258 157 140 382 432 122 85 223 429 394 
436 6 333 400 248 401 160 8 
437 11 345 434 273 65 99 9 300 351 145 121 213 
438 10 204 338 127 214 4 18 211 87 430 233 
439 11 70 317 26 61 288 310 29 216 172 409 373 
DEPOT_SECTION
   1
   -1
EOF
