NAME :  X-n449-kX-w44-c9.cctp
COMMENT : 	Adapted by Maziero, Usberti and Cavellucci from the Uchoa, Pecin, Pessoa, Poggi, Subramanian, and Vidal (2013)
TYPE :  CCTP
DIMENSION :    262
EDGE_WEIGHT_TYPE : 	EUC_2D	
CAPACITY : 	777
VERTICES_WITHIN_COVERAGE :  9
VERTICES_WITH_DEMAND : 	44
NODE_COORD_SECTION
1 0 0
2 300 71
3 434 4
4 257 798
5 718 17
6 879 206
7 929 330
8 353 793
9 389 540
10 202 55
11 417 253
12 921 572
13 94 788
14 870 327
15 281 124
16 411 288
17 882 116
18 307 240
19 359 935
20 352 858
21 502 776
22 269 33
23 440 814
24 850 461
25 909 404
26 339 458
27 767 535
28 86 47
29 758 532
30 426 282
31 534 10
32 826 830
33 911 79
34 270 791
35 391 794
36 908 787
37 929 858
38 938 281
39 941 579
40 752 162
41 579 68
42 323 570
43 238 700
44 853 970
45 329 805
46 291 631
47 286 481
48 855 547
49 205 741
50 462 532
51 340 54
52 929 941
53 936 46
54 339 10
55 324 595
56 190 659
57 900 929
58 228 662
59 897 292
60 958 546
61 312 781
62 320 557
63 470 746
64 439 15
65 371 115
66 703 31
67 170 723
68 700 554
69 801 849
70 907 964
71 490 37
72 311 927
73 210 657
74 379 863
75 355 233
76 974 313
77 315 294
78 846 911
79 997 585
80 407 584
81 775 225
82 244 761
83 433 941
84 771 792
85 381 345
86 188 643
87 540 762
88 392 298
89 748 473
90 123 885
91 882 844
92 475 831
93 430 827
94 388 981
95 767 488
96 414 436
97 308 756
98 985 906
99 45 137
100 664 79
101 363 607
102 425 296
103 714 61
104 991 139
105 320 583
106 317 732
107 437 745
108 362 207
109 319 725
110 216 807
111 284 793
112 380 466
113 879 171
114 23 49
115 304 234
116 304 700
117 525 767
118 997 129
119 200 771
120 965 27
121 994 807
122 912 153
123 367 905
124 247 86
125 951 396
126 622 68
127 435 179
128 829 919
129 302 515
130 831 70
131 917 369
132 981 425
133 876 779
134 485 294
135 439 979
136 373 336
137 445 807
138 898 130
139 582 152
140 795 991
141 482 33
142 906 903
143 582 69
144 570 103
145 816 427
146 286 816
147 344 97
148 763 175
149 784 886
150 947 357
151 283 214
152 979 69
153 716 484
154 349 425
155 658 154
156 722 540
157 457 775
158 321 894
159 438 207
160 666 5
161 790 584
162 835 367
163 460 1
164 531 101
165 351 913
166 432 956
167 75 828
168 724 22
169 921 532
170 833 413
171 969 601
172 334 591
173 979 904
174 910 520
175 886 385
176 539 808
177 836 442
178 147 144
179 923 928
180 324 85
181 387 412
182 484 17
183 427 591
184 933 93
185 990 355
186 296 1000
187 130 810
188 255 761
189 336 521
190 703 45
191 760 984
192 833 412
193 982 954
194 889 715
195 958 642
196 850 134
197 272 789
198 417 46
199 411 740
200 925 548
201 980 299
202 330 462
203 829 128
204 966 431
205 249 633
206 24 912
207 300 206
208 5 919
209 862 885
210 251 533
211 788 560
212 365 273
213 879 619
214 77 850
215 989 364
216 475 14
217 382 331
218 307 581
219 996 593
220 977 840
221 990 13
222 458 762
223 464 348
224 746 109
225 828 428
226 798 863
227 947 294
228 333 230
229 813 426
230 943 15
231 868 284
232 443 317
233 500 710
234 815 983
235 969 727
236 740 523
237 647 40
238 438 242
239 297 913
240 162 816
241 725 582
242 178 67
243 808 54
244 843 80
245 1000 36
246 53 823
247 554 145
248 962 430
249 307 292
250 799 580
251 273 266
252 507 816
253 254 162
254 427 857
255 339 265
256 303 930
257 456 972
258 866 302
259 337 390
260 933 496
261 267 811
262 821 367
DEMAND_SECTION
2 35
3 74
4 5
5 43
6 27
7 97
8 68
9 77
10 78
11 8
12 66
13 15
14 92
15 3
16 90
17 39
18 57
19 29
20 82
21 81
22 4
23 90
24 9
25 95
26 6
27 82
28 66
29 50
30 83
31 48
32 4
33 54
34 45
35 64
36 77
37 96
38 56
39 44
40 25
41 18
42 23
43 74
44 69
45 8
COVERAGE_SECTION
2 9 180 51 22 147 124 15 54 65 10 
3 7 64 163 216 198 182 141 71 
4 9 34 261 197 111 146 188 82 110 61 
5 9 168 66 190 103 160 237 100 224 243 
6 9 113 122 138 196 231 59 17 203 38 
7 8 150 227 131 76 38 59 14 201 
8 9 45 35 61 97 20 111 106 146 74 
9 8 80 189 183 62 42 101 50 112 
10 8 242 124 22 2 15 178 28 253 
11 9 238 30 16 102 88 159 212 75 232 
12 9 39 200 169 60 174 171 213 48 79 
13 9 187 167 246 214 240 67 90 119 49 
14 9 258 231 59 162 7 175 131 262 38 
15 9 253 124 2 180 147 207 65 151 22 
16 9 30 102 88 11 232 212 217 238 136 
17 9 138 196 33 122 244 203 113 184 130 
18 9 115 228 151 207 255 251 75 249 77 
19 9 165 123 72 94 158 256 239 83 74 
20 9 74 158 123 165 45 8 35 254 19 
21 9 117 87 252 63 157 222 176 92 137 
22 9 2 124 10 51 54 180 15 242 147 
23 9 137 93 92 157 254 35 222 252 107 
24 9 177 225 145 170 229 192 25 174 175 
25 8 175 131 125 248 150 204 132 192 
26 9 202 154 112 47 189 181 129 259 96 
27 9 29 236 211 156 95 161 250 241 89 
28 5 114 242 99 178 10 
29 9 27 236 156 211 95 89 241 161 68 
30 9 102 16 11 88 232 238 134 212 217 
31 7 182 71 141 216 41 163 143 
32 8 69 226 91 209 84 149 133 78 
33 9 184 53 17 138 244 152 230 122 120 
34 9 197 111 4 261 146 188 82 61 97 
35 9 8 93 23 137 199 45 107 157 74 
36 9 133 91 37 194 235 220 121 32 209 
37 9 91 142 220 173 179 209 36 98 57 
38 9 227 59 201 76 7 231 258 150 14 
39 9 12 200 171 60 169 79 219 195 174 
40 8 148 224 81 203 155 196 103 100 
41 8 143 144 126 164 31 237 247 139 
42 9 62 105 218 172 55 189 101 129 46 
43 8 58 73 49 82 56 188 116 205 
44 7 234 70 128 78 57 140 52 
45 9 8 61 146 111 97 20 197 34 261 
46 9 205 55 218 105 172 42 58 116 101 
47 7 129 202 26 210 189 62 154 
48 8 174 250 169 211 200 12 161 213 
49 9 119 67 82 43 188 110 4 34 58 
50 2 183 9 
51 8 180 2 147 54 65 22 198 15 
52 9 179 57 70 142 193 173 98 44 37 
53 9 230 120 33 184 152 221 245 17 138 
54 9 51 2 22 180 198 147 3 64 65 
55 7 172 105 218 42 62 101 46 
56 6 86 73 58 43 205 67 
57 9 179 142 52 70 78 209 44 128 37 
58 7 73 205 56 43 86 46 49 
59 9 231 258 38 14 7 227 76 131 150 
60 9 200 39 169 12 79 174 171 260 219 
61 8 97 45 111 197 8 34 146 106 
62 9 42 105 218 172 55 189 129 101 9 
63 7 222 157 107 21 233 117 199 
64 7 3 163 216 198 182 141 71 
65 5 147 180 51 198 2 
66 9 190 5 168 103 160 237 100 126 224 
67 7 49 119 56 43 73 86 82 
68 4 156 241 236 29 
69 7 226 32 149 84 209 128 78 
70 9 52 57 179 44 142 193 78 128 209 
71 6 141 182 216 163 31 64 
72 7 256 239 158 165 19 123 186 
73 6 58 56 86 205 43 67 
74 9 20 123 254 165 93 158 35 8 19 
75 9 228 108 255 212 18 115 207 11 77 
76 8 201 227 185 7 38 150 215 59 
77 6 249 255 251 212 18 115 
78 7 128 209 57 44 142 149 226 
79 9 219 171 60 39 195 12 200 169 174 
80 3 183 9 101 
81 3 148 40 6 
82 8 188 4 34 197 49 119 111 110 
83 7 166 135 257 94 19 123 254 
84 4 69 32 226 149 
85 6 136 217 88 259 16 102 
86 6 56 73 58 205 43 67 
87 6 117 21 176 252 233 63 
88 8 16 102 217 212 30 136 85 11 
89 8 95 153 236 29 27 156 229 145 
90 6 214 167 187 240 246 13 
91 9 209 37 32 36 142 133 78 69 226 
92 8 252 137 23 93 254 157 21 176 
93 9 23 137 254 92 35 157 74 222 252 
94 8 135 166 19 83 257 165 123 72 
95 8 89 236 29 27 153 156 211 229 
96 6 181 112 154 26 202 259 
97 8 61 106 109 111 197 34 45 188 
98 9 173 193 52 179 220 37 142 57 70 
99 3 114 28 178 
100 9 126 237 190 103 66 160 155 5 143 
101 6 172 55 105 80 42 218 
102 9 30 16 232 88 11 217 238 134 212 
103 9 190 66 168 5 100 224 237 160 126 
104 9 118 152 184 122 138 33 245 53 17 
105 8 42 55 218 172 62 101 46 189 
106 8 109 97 116 61 188 111 8 197 
107 7 199 222 63 157 137 35 23 
108 8 75 228 207 255 18 115 212 11 
109 7 106 116 97 61 188 8 111 
110 9 119 4 261 82 240 34 197 188 49 
111 9 197 34 146 261 4 61 188 97 45 
112 9 26 96 202 154 181 189 9 259 129 
113 9 6 122 138 196 17 203 184 33 244 
114 5 28 99 178 242 10 
115 9 18 207 151 228 251 255 75 249 77 
116 7 109 106 97 43 46 188 61 
117 8 87 21 176 252 63 233 222 157 
118 9 104 152 184 122 245 33 138 53 120 
119 9 49 110 82 188 67 240 4 34 197 
120 9 230 221 53 245 152 184 33 118 104 
121 9 220 37 235 36 173 98 91 133 142 
122 9 138 113 17 6 184 196 33 104 203 
123 9 165 19 74 158 20 72 256 239 83 
124 9 15 2 10 22 242 253 180 51 147 
125 7 248 204 150 132 25 131 215 
126 9 237 143 41 100 144 160 190 66 103 
127 5 159 238 11 108 65 
128 7 78 209 44 149 226 234 57 
129 9 189 47 62 210 42 202 218 26 105 
130 9 244 243 203 196 17 33 138 224 184 
131 8 150 175 25 7 125 14 215 185 
132 7 204 248 125 215 185 25 150 
133 8 36 91 194 32 37 69 84 209 
134 5 232 223 30 102 238 
135 5 257 166 83 94 19 
136 6 217 85 88 16 212 259 
137 9 23 93 157 92 222 254 35 107 252 
138 9 17 122 113 196 184 33 203 244 6 
139 6 247 144 164 155 143 41 
140 6 234 191 44 128 78 149 
141 7 71 182 216 163 64 3 31 
142 9 57 179 52 209 37 70 78 91 173 
143 8 41 144 126 164 237 31 247 100 
144 7 41 143 164 247 139 126 100 
145 8 229 225 170 192 177 24 262 162 
146 9 261 111 34 197 4 45 61 188 97 
147 7 180 65 51 2 15 54 198 
148 8 40 81 224 203 196 155 113 6 
149 5 226 69 128 78 32 
150 8 7 131 125 185 215 76 25 227 
151 8 207 115 18 228 251 253 75 255 
152 9 245 120 53 184 221 118 230 33 104 
153 6 89 236 95 156 29 27 
154 8 26 259 181 202 112 96 47 85 
155 8 100 139 126 40 224 144 247 148 
156 6 236 68 29 241 27 153 
157 9 222 63 137 107 23 21 199 92 93 
158 8 239 72 165 256 123 20 19 74 
159 7 127 238 11 30 108 16 75 
160 9 237 66 5 190 168 100 103 126 143 
161 4 250 211 27 29 
162 9 262 192 170 14 175 225 145 229 258 
163 8 216 64 3 182 141 71 198 31 
164 6 144 247 41 143 139 71 
165 9 123 19 158 72 256 239 20 74 94 
166 7 83 135 257 94 19 123 165 
167 9 214 246 13 187 90 240 206 208 119 
168 9 5 66 190 103 160 237 100 224 243 
169 9 174 200 260 12 60 39 48 171 79 
170 9 192 225 145 229 177 162 262 24 175 
171 9 219 79 39 195 12 60 200 169 213 
172 7 55 105 42 218 101 62 46 
173 9 98 193 179 52 220 37 142 57 70 
174 9 169 200 260 12 60 48 39 24 171 
175 9 25 131 162 192 14 170 125 150 262 
176 5 252 117 87 21 92 
177 8 225 24 145 229 170 192 162 175 
178 3 242 99 10 
179 9 52 57 142 70 173 193 98 37 209 
180 8 147 2 51 65 15 22 54 124 
181 8 96 154 112 259 26 85 202 136 
182 7 216 141 71 163 64 31 3 
183 3 80 9 101 
184 9 33 53 138 152 17 122 118 120 104 
185 7 215 150 76 125 201 7 132 
186 5 256 72 239 19 94 
187 9 240 13 167 214 90 246 119 110 67 
188 8 82 197 34 4 111 261 97 49 
189 9 129 62 42 9 202 26 47 105 218 
190 9 66 103 168 5 100 160 237 224 126 
191 4 140 234 44 128 
192 9 170 225 145 229 177 162 262 24 175 
193 9 98 173 52 179 70 57 142 37 220 
194 4 133 36 235 213 
195 7 171 219 39 79 12 213 235 
196 9 203 17 113 138 244 122 130 6 33 
197 9 34 111 4 261 146 188 82 61 97 
198 5 64 3 163 141 216 
199 6 107 222 35 157 63 137 
200 9 169 12 174 60 39 260 171 48 79 
201 8 76 227 38 185 7 215 150 59 
202 9 26 154 47 112 189 129 259 181 96 
203 9 196 244 17 130 113 138 243 148 40 
204 7 248 132 125 25 215 260 150 
205 8 58 46 73 86 56 43 218 55 
206 7 208 214 246 167 90 13 187 
207 9 151 115 18 228 75 108 253 251 255 
208 7 206 214 246 167 90 13 187 
209 9 78 91 128 142 57 32 226 69 37 
210 5 129 47 62 218 42 
211 6 250 161 27 29 236 241 
212 7 255 88 75 16 77 228 11 
213 4 12 39 48 195 
214 8 167 246 90 13 187 206 240 208 
215 7 185 150 125 76 132 201 7 
216 8 182 141 163 71 64 3 31 198 
217 6 136 85 88 16 102 212 
218 9 105 42 55 62 172 46 101 129 189 
219 9 79 171 39 60 195 12 200 169 174 
220 9 121 37 173 98 36 91 142 179 52 
221 9 245 120 230 152 53 184 33 118 104 
222 8 157 63 107 21 137 199 23 117 
223 4 232 134 102 30 
224 9 40 103 148 190 243 203 100 66 168 
225 8 145 229 170 177 192 24 162 262 
226 6 69 149 32 128 78 209 
227 9 38 76 201 7 59 150 185 231 131 
228 9 75 18 115 255 108 207 151 212 77 
229 8 145 225 170 192 177 24 262 162 
230 9 120 53 221 245 152 33 184 17 244 
231 9 258 59 14 38 7 6 227 162 262 
232 7 102 223 30 16 134 88 217 
233 3 63 117 21 
234 6 140 44 191 128 78 70 
235 7 194 121 36 195 133 220 171 
236 8 29 156 27 95 153 68 89 211 
237 9 126 160 100 190 66 103 143 41 5 
238 9 11 159 30 16 102 127 134 88 232 
239 6 256 72 158 165 19 123 
240 9 187 110 119 13 90 49 167 214 67 
241 3 68 156 29 
242 7 10 124 178 28 22 15 2 
243 9 130 244 203 224 168 196 103 5 17 
244 9 130 243 203 17 196 33 138 184 113 
245 9 221 120 152 230 53 184 118 33 104 
246 8 167 214 13 187 90 206 208 240 
247 5 139 144 164 41 143 
248 7 204 132 125 25 215 260 150 
249 5 77 255 251 18 115 
250 4 161 211 27 29 
251 5 18 249 115 77 151 
252 6 176 92 21 117 87 137 
253 7 15 151 207 124 115 18 2 
254 8 93 23 74 137 92 35 20 123 
255 7 212 75 228 77 18 249 115 
256 7 72 239 158 165 19 123 186 
257 5 135 166 83 94 19 
258 9 231 14 59 7 162 38 262 227 131 
259 6 154 181 85 136 26 202 
260 9 174 169 200 60 248 204 12 39 132 
261 9 4 34 146 197 111 110 188 61 82 
262 8 162 192 170 145 229 225 14 175 
DEPOT_SECTION
   1
   -1
EOF
