NAME :  X-n469-kX-w187-c11.cctp
COMMENT : 	Adapted by Maziero, Usberti and Cavellucci from the Uchoa, Pecin, Pessoa, Poggi, Subramanian, and Vidal (2013)
TYPE :  CCTP
DIMENSION :    469
EDGE_WEIGHT_TYPE : 	EUC_2D	
CAPACITY : 	256
VERTICES_WITHIN_COVERAGE :  11
VERTICES_WITH_DEMAND : 	187
NODE_COORD_SECTION
1 0 0
2 363 697
3 120 259
4 555 718
5 522 918
6 239 935
7 304 517
8 856 96
9 38 904
10 174 951
11 294 935
12 942 324
13 402 176
14 766 450
15 473 862
16 262 550
17 661 92
18 440 655
19 678 291
20 345 691
21 564 903
22 952 802
23 698 352
24 297 930
25 66 244
26 882 642
27 777 818
28 302 212
29 824 647
30 143 946
31 108 600
32 121 755
33 697 32
34 473 995
35 342 252
36 596 534
37 248 211
38 940 88
39 81 468
40 144 796
41 244 385
42 437 42
43 381 583
44 263 549
45 153 646
46 187 688
47 248 71
48 27 70
49 649 477
50 244 370
51 145 49
52 589 402
53 105 251
54 986 452
55 486 773
56 679 851
57 102 734
58 619 809
59 139 138
60 107 489
61 921 579
62 681 336
63 925 185
64 260 655
65 46 832
66 534 440
67 117 590
68 604 453
69 667 428
70 871 548
71 943 171
72 181 252
73 172 696
74 211 597
75 82 390
76 114 189
77 659 852
78 404 544
79 169 845
80 101 663
81 422 503
82 124 861
83 289 778
84 923 842
85 464 148
86 377 32
87 482 570
88 933 156
89 987 678
90 995 62
91 241 242
92 565 805
93 898 871
94 137 970
95 11 959
96 834 251
97 307 897
98 796 286
99 693 522
100 827 725
101 27 818
102 284 562
103 136 875
104 214 719
105 75 85
106 749 863
107 648 603
108 743 494
109 169 42
110 664 268
111 485 432
112 736 577
113 232 420
114 329 374
115 360 726
116 598 258
117 890 844
118 374 794
119 937 993
120 308 95
121 970 326
122 257 653
123 333 378
124 928 411
125 4 773
126 764 96
127 620 171
128 91 795
129 729 479
130 507 782
131 321 298
132 516 599
133 581 631
134 429 383
135 914 830
136 495 443
137 201 805
138 299 90
139 327 474
140 400 714
141 936 468
142 217 110
143 447 82
144 180 61
145 329 479
146 109 163
147 607 144
148 864 903
149 633 586
150 228 986
151 98 291
152 56 919
153 302 929
154 658 831
155 664 797
156 442 558
157 492 535
158 808 967
159 998 71
160 283 534
161 562 828
162 918 176
163 250 170
164 921 325
165 577 116
166 555 259
167 523 285
168 272 677
169 802 102
170 112 530
171 371 252
172 335 99
173 205 379
174 315 321
175 304 45
176 684 368
177 962 930
178 715 476
179 281 282
180 970 23
181 944 627
182 188 859
183 218 717
184 426 876
185 232 735
186 446 846
187 483 747
188 360 494
189 608 408
190 522 830
191 396 911
192 661 720
193 56 192
194 279 720
195 732 386
196 292 154
197 265 524
198 912 441
199 216 492
200 798 670
201 125 229
202 438 432
203 29 187
204 799 900
205 231 26
206 207 149
207 306 573
208 496 745
209 379 21
210 395 564
211 632 389
212 167 874
213 71 215
214 505 662
215 547 517
216 668 216
217 11 995
218 872 947
219 42 480
220 933 471
221 605 641
222 154 936
223 65 939
224 472 601
225 462 825
226 842 664
227 14 197
228 879 336
229 896 105
230 751 178
231 242 700
232 319 671
233 422 436
234 527 45
235 552 530
236 41 364
237 261 659
238 143 846
239 705 914
240 869 444
241 835 5
242 400 676
243 910 716
244 706 700
245 267 601
246 429 646
247 333 945
248 31 190
249 889 960
250 185 385
251 591 244
252 407 737
253 731 485
254 956 536
255 255 405
256 969 429
257 28 973
258 854 256
259 349 853
260 931 120
261 719 109
262 321 722
263 851 158
264 87 931
265 943 972
266 628 621
267 189 530
268 311 745
269 546 526
270 373 661
271 749 318
272 51 714
273 575 131
274 982 61
275 364 513
276 835 755
277 780 35
278 208 60
279 827 247
280 768 48
281 115 878
282 637 410
283 379 291
284 35 544
285 237 188
286 176 879
287 215 559
288 399 454
289 5 888
290 566 749
291 986 603
292 699 758
293 984 786
294 873 320
295 292 117
296 354 700
297 938 85
298 992 408
299 190 437
300 861 290
301 336 879
302 146 844
303 688 35
304 293 805
305 852 648
306 387 973
307 245 29
308 805 286
309 861 768
310 94 156
311 279 676
312 126 40
313 941 0
314 475 272
315 656 871
316 67 140
317 373 2
318 65 214
319 196 652
320 14 925
321 645 819
322 228 390
323 174 699
324 433 497
325 942 386
326 656 224
327 818 828
328 367 227
329 656 29
330 869 658
331 806 501
332 938 250
333 881 967
334 714 645
335 772 316
336 844 968
337 915 807
338 804 516
339 866 546
340 758 47
341 337 182
342 940 481
343 356 416
344 614 577
345 952 221
346 672 232
347 752 777
348 389 177
349 874 793
350 447 934
351 63 91
352 194 17
353 90 431
354 164 388
355 383 589
356 842 158
357 921 685
358 676 540
359 377 764
360 347 51
361 508 619
362 285 973
363 793 876
364 430 40
365 325 314
366 252 411
367 955 452
368 14 857
369 675 367
370 288 222
371 266 783
372 723 124
373 186 389
374 57 912
375 709 425
376 386 859
377 316 507
378 677 626
379 340 704
380 535 963
381 851 866
382 219 654
383 799 204
384 906 732
385 403 121
386 206 923
387 799 283
388 934 353
389 917 951
390 116 502
391 634 559
392 262 403
393 159 542
394 879 100
395 676 416
396 235 349
397 231 102
398 378 569
399 876 507
400 399 48
401 56 351
402 950 398
403 259 247
404 5 250
405 892 26
406 884 218
407 433 319
408 507 93
409 819 380
410 922 302
411 81 170
412 61 608
413 247 681
414 761 62
415 467 514
416 27 213
417 416 712
418 550 552
419 930 830
420 469 221
421 894 272
422 390 966
423 388 863
424 652 334
425 74 677
426 838 136
427 839 121
428 545 143
429 680 257
430 399 40
431 856 383
432 321 632
433 263 860
434 37 293
435 92 189
436 856 674
437 704 344
438 668 651
439 780 346
440 226 532
441 708 89
442 656 510
443 226 427
444 217 363
445 312 489
446 324 409
447 321 270
448 811 711
449 380 451
450 445 526
451 27 480
452 696 12
453 102 900
454 747 180
455 890 926
456 764 94
457 501 274
458 409 329
459 529 242
460 609 673
461 924 31
462 566 75
463 144 331
464 28 857
465 546 142
466 803 158
467 16 859
468 522 645
469 873 593
DEMAND_SECTION
2 83
3 73
4 100
5 88
6 90
7 71
8 62
9 95
10 56
11 75
12 51
13 86
14 62
15 74
16 65
17 77
18 58
19 98
20 81
21 86
22 75
23 74
24 77
25 80
26 57
27 54
28 67
29 74
30 94
31 99
32 90
33 54
34 72
35 70
36 69
37 100
38 93
39 97
40 85
41 79
42 93
43 97
44 100
45 51
46 84
47 59
48 60
49 84
50 56
51 97
52 100
53 80
54 89
55 99
56 57
57 72
58 75
59 62
60 64
61 75
62 63
63 71
64 82
65 51
66 55
67 95
68 67
69 90
70 73
71 51
72 83
73 51
74 80
75 76
76 87
77 65
78 71
79 60
80 72
81 54
82 76
83 96
84 79
85 56
86 68
87 88
88 57
89 69
90 95
91 75
92 56
93 54
94 61
95 68
96 60
97 53
98 86
99 93
100 56
101 66
102 58
103 55
104 95
105 93
106 70
107 59
108 75
109 87
110 50
111 97
112 90
113 72
114 67
115 92
116 83
117 72
118 90
119 61
120 67
121 51
122 68
123 90
124 56
125 69
126 65
127 61
128 64
129 95
130 63
131 60
132 52
133 87
134 74
135 79
136 60
137 87
138 64
139 92
140 79
141 72
142 99
143 90
144 51
145 69
146 82
147 79
148 74
149 86
150 81
151 91
152 73
153 53
154 98
155 50
156 81
157 77
158 51
159 71
160 81
161 55
162 91
163 92
164 69
165 58
166 98
167 93
168 68
169 67
170 65
171 67
172 63
173 80
174 92
175 58
176 96
177 78
178 72
179 53
180 68
181 55
182 68
183 94
184 67
185 56
186 83
187 53
188 92
COVERAGE_SECTION
2 11 296 20 379 115 270 140 242 262 232 417 252 
3 11 53 201 151 25 72 213 76 318 435 463 434 
4 11 290 208 460 214 187 130 468 55 92 133 221 
5 11 21 380 15 350 190 34 161 184 186 225 92 
6 11 386 150 11 24 362 153 10 97 433 286 222 
7 11 377 160 445 197 145 102 139 44 16 207 275 
8 11 394 427 229 426 169 263 356 260 405 466 297 
9 11 374 152 320 289 223 464 467 368 264 95 453 
10 11 222 30 94 386 150 6 286 212 103 453 264 
11 11 24 153 362 97 247 6 301 433 150 386 259 
12 11 164 121 388 410 325 228 294 421 332 402 124 
13 11 348 385 328 341 85 420 171 35 172 143 28 
14 11 129 253 108 178 375 331 195 338 409 395 69 
15 11 186 225 184 190 5 350 423 130 376 55 191 
16 11 44 102 160 197 440 287 207 245 7 74 377 
17 11 441 261 303 329 33 372 147 165 452 127 273 
18 11 246 242 417 224 214 270 140 361 468 355 2 
19 11 110 429 62 424 346 437 23 326 216 271 369 
20 11 296 379 2 232 115 262 270 242 140 268 432 
21 11 5 380 161 190 315 92 15 77 58 321 154 
22 11 293 419 337 135 84 117 349 384 93 243 309 
23 11 437 176 62 369 195 424 271 19 395 375 211 
24 11 153 11 97 247 362 6 301 433 150 386 259 
25 11 213 318 53 416 193 3 151 434 201 404 435 
26 11 330 305 436 226 469 29 357 181 61 243 200 
27 11 327 347 106 363 204 276 381 292 309 349 56 
28 11 370 341 37 403 35 196 447 163 328 91 285 
29 11 226 305 200 436 330 26 448 469 100 357 276 
30 11 222 94 10 264 453 386 103 281 286 212 223 
31 11 67 412 80 45 170 393 425 284 390 319 74 
32 11 57 40 128 323 73 272 425 302 46 80 137 
33 11 303 452 329 441 340 17 414 280 261 277 456 
34 11 350 380 422 306 5 191 184 21 15 247 186 
35 11 447 171 328 131 283 28 370 365 179 341 174 
36 11 235 391 344 418 269 215 149 442 49 358 68 
37 11 285 91 403 163 370 28 196 206 179 72 341 
38 11 297 260 229 274 461 159 90 394 88 180 405 
39 11 60 353 219 390 451 170 75 284 393 236 299 
40 11 32 302 238 128 79 137 82 57 182 103 212 
41 11 50 322 255 392 366 444 113 396 173 443 373 
42 11 364 400 430 143 86 209 317 385 408 234 360 
43 11 355 398 210 78 156 275 207 432 270 246 450 
44 11 16 102 160 197 440 207 287 7 245 377 74 
45 11 319 73 46 80 323 31 382 67 74 425 104 
46 11 73 323 319 104 183 382 45 231 413 185 122 
47 11 397 278 307 205 142 138 175 295 120 144 352 
48 11 351 105 316 312 310 411 203 51 248 146 193 
49 11 442 68 69 99 178 395 282 358 36 375 129 
50 11 41 396 322 444 255 392 173 366 113 443 250 
51 11 312 109 144 352 278 105 59 205 351 142 397 
52 11 189 211 282 68 66 69 395 369 424 49 176 
53 11 3 201 25 151 213 318 76 435 72 193 434 
54 11 256 367 298 141 342 220 402 124 198 325 254 
55 11 130 187 208 225 190 186 290 92 252 4 15 
56 11 77 154 315 321 155 239 106 58 292 27 347 
57 11 32 272 128 425 80 40 73 323 46 45 125 
58 11 321 154 155 92 77 161 315 56 290 292 192 
59 11 146 310 76 411 206 435 316 105 142 144 51 
60 11 390 39 170 353 219 393 451 284 267 299 67 
61 11 469 181 254 70 339 291 26 399 330 305 342 
62 11 23 437 424 176 369 19 110 271 195 211 429 
63 11 162 71 88 345 406 260 332 263 229 356 421 
64 11 122 237 168 311 413 382 231 245 232 319 432 
65 11 101 464 467 368 128 289 9 125 374 82 281 
66 11 136 111 52 68 215 189 269 235 202 415 157 
67 11 31 412 170 393 45 80 390 74 267 284 425 
68 11 189 49 52 282 69 211 66 442 36 395 215 
69 11 395 282 375 49 211 176 189 369 68 178 195 
70 11 339 399 469 61 338 331 254 26 342 220 305 
71 11 88 63 162 345 260 406 332 229 38 297 263 
72 11 3 91 201 53 403 37 285 463 76 151 179 
73 11 323 46 104 319 183 45 382 231 185 413 32 
74 11 287 245 319 382 440 16 44 267 122 45 64 
75 11 353 401 236 39 354 463 219 151 60 250 373 
76 11 435 146 411 310 201 213 318 59 193 53 316 
77 11 315 56 154 321 155 58 239 106 161 292 92 
78 11 210 398 156 43 81 450 355 275 324 188 415 
79 11 302 182 238 212 286 103 82 137 40 281 386 
80 11 425 45 31 412 57 272 67 73 323 46 32 
81 11 324 450 78 415 288 156 275 188 210 233 449 
82 11 103 281 238 302 212 453 79 286 182 40 128 
83 11 371 304 268 194 262 185 118 433 115 359 379 
84 11 419 135 117 337 93 22 349 381 293 148 455 
85 11 385 13 143 408 420 348 428 465 42 273 364 
86 11 209 430 400 317 360 364 42 175 172 143 120 
87 11 224 157 156 132 361 450 415 418 269 235 78 
88 11 71 162 63 260 229 38 345 297 394 406 263 
89 11 357 181 291 243 384 293 26 61 330 22 436 
90 11 159 274 180 38 297 461 313 260 229 405 88 
91 11 403 37 370 285 179 72 28 163 447 131 206 
92 11 161 190 58 290 130 321 55 4 208 154 21 
93 11 117 84 135 148 381 419 455 337 218 349 389 
94 11 30 222 10 264 223 453 386 150 103 281 152 
95 11 257 320 217 223 152 9 374 289 264 467 368 
96 11 279 258 308 300 387 98 383 406 421 294 335 
97 11 153 24 301 11 247 433 259 6 362 376 423 
98 11 387 308 335 279 96 271 439 258 300 383 294 
99 11 358 442 178 253 129 108 49 112 391 149 107 
100 11 448 276 309 436 200 226 29 330 384 305 243 
101 11 65 464 368 467 125 128 289 9 374 152 82 
102 11 16 44 207 160 197 245 7 377 440 287 445 
103 11 82 281 238 212 302 286 453 79 182 222 30 
104 11 183 185 231 46 323 73 413 194 382 319 168 
105 11 351 48 316 312 310 51 59 146 411 109 435 
106 11 363 27 204 239 56 327 347 77 315 154 381 
107 11 149 266 378 344 391 438 221 358 133 334 460 
108 11 253 129 178 14 99 331 338 375 358 112 442 
109 11 144 51 352 278 312 205 307 142 47 397 59 
110 11 429 19 346 326 216 116 424 62 251 437 23 
111 11 136 202 66 233 134 324 415 288 81 450 157 
112 11 99 358 334 378 108 338 107 253 129 438 149 
113 11 443 366 255 322 392 41 299 173 50 373 250 
114 11 123 446 343 174 365 392 131 255 50 366 41 
115 11 296 2 379 20 262 140 359 252 268 417 242 
116 11 251 166 110 326 459 346 167 216 429 19 127 
117 11 93 135 84 419 337 381 349 148 327 22 309 
118 11 359 259 252 376 115 423 268 304 140 83 186 
119 11 265 389 249 333 177 218 455 336 148 93 158 
120 11 138 172 295 175 360 196 47 397 307 142 341 
121 11 12 388 164 410 325 402 332 298 228 421 124 
122 11 64 237 168 413 311 382 231 245 319 232 432 
123 11 114 446 343 174 365 392 131 255 366 449 41 
124 11 402 325 198 256 367 141 388 220 298 240 54 
125 11 101 65 272 368 464 467 128 57 289 32 425 
126 11 456 414 169 261 280 340 372 441 277 466 427 
127 11 147 273 326 216 165 251 465 346 428 17 116 
128 11 32 40 65 57 101 238 82 302 281 464 125 
129 11 253 178 108 14 99 375 442 49 69 331 358 
130 11 55 208 187 190 92 225 290 161 4 15 186 
131 11 365 174 447 179 35 283 171 114 403 123 370 
132 11 361 224 87 468 418 214 157 133 235 269 156 
133 11 221 266 460 468 344 149 132 107 361 214 418 
134 11 202 233 458 407 111 288 343 449 136 123 114 
135 11 84 419 337 117 93 22 349 381 309 293 148 
136 11 111 66 202 233 415 324 134 215 157 81 269 
137 11 79 182 40 302 371 238 185 212 286 433 104 
138 11 120 295 172 175 47 360 196 397 307 142 205 
139 11 145 445 377 188 7 275 449 343 446 160 288 
140 11 417 252 242 2 115 296 359 270 20 379 18 
141 11 220 342 367 198 256 54 124 240 254 402 399 
142 11 397 206 47 278 144 163 295 285 59 109 138 
143 11 42 364 385 400 408 430 85 86 234 209 13 
144 11 109 278 51 352 312 142 205 397 47 307 59 
145 11 139 445 377 188 7 275 449 343 446 160 288 
146 11 310 76 411 435 59 316 193 213 318 201 248 
147 11 127 273 165 465 428 17 462 216 326 251 346 
148 11 455 381 218 93 249 117 204 333 336 389 363 
149 11 344 107 391 266 378 221 358 36 133 438 442 
150 11 6 362 10 386 11 24 222 94 153 30 247 
151 11 3 53 25 434 463 201 401 213 318 72 236 
152 11 374 223 9 264 320 453 95 289 257 464 281 
153 11 24 11 97 247 362 301 6 433 259 150 422 
154 11 321 77 56 155 315 58 292 239 106 161 92 
155 11 321 154 58 292 77 56 315 192 347 92 244 
156 11 450 78 87 210 415 224 157 81 324 398 43 
157 11 415 87 450 156 269 215 235 418 132 224 324 
158 11 336 218 204 333 249 148 363 455 381 389 239 
159 11 90 274 180 38 297 260 461 313 88 229 71 
160 11 197 44 16 7 102 377 207 445 440 245 145 
161 11 92 190 58 130 21 290 321 55 15 154 5 
162 11 63 71 88 406 345 260 263 229 332 356 394 
163 11 285 37 196 206 370 28 142 295 397 91 403 
164 11 12 410 388 228 294 121 421 325 300 332 402 
165 11 273 465 147 428 462 127 408 17 234 85 329 
166 11 459 251 167 116 457 314 420 326 110 127 428 
167 11 457 166 459 314 251 116 420 407 458 52 134 
168 11 311 237 64 413 122 231 194 232 382 183 262 
169 11 126 456 427 426 8 466 414 280 356 340 277 
170 11 390 60 393 67 39 31 267 284 219 412 451 
171 11 328 35 283 447 131 348 365 341 28 13 458 
172 11 120 138 295 360 175 196 385 86 400 341 430 
173 11 444 250 373 322 41 50 354 396 113 443 255 
174 11 365 131 447 179 114 123 283 35 396 50 446 
175 11 360 138 120 307 47 172 295 86 205 209 317 
176 11 369 23 437 62 424 395 195 211 69 375 282 
177 11 265 389 119 455 249 93 333 218 84 148 419 
178 11 129 253 108 99 375 14 49 69 442 395 358 
179 11 403 447 131 174 365 91 370 35 28 37 396 
180 11 313 274 90 461 159 297 38 405 260 229 394 
181 11 291 61 357 26 89 469 330 254 305 243 436 
182 11 286 79 212 302 238 103 137 82 386 281 433 
183 11 104 185 231 46 413 323 73 194 382 168 319 
184 11 186 423 376 191 15 225 350 259 301 118 422 
185 11 183 104 231 194 413 371 46 323 168 83 73 
186 11 225 15 184 423 376 190 191 55 130 350 118 
187 11 208 55 130 417 252 4 225 290 214 140 190 
188 11 275 145 139 377 449 445 288 7 81 78 324 
189 11 52 282 211 68 69 395 369 49 66 176 424 
190 11 161 92 130 15 225 55 186 21 5 208 187 
191 11 184 423 376 422 350 306 301 247 259 186 97 
192 11 244 292 438 460 155 334 378 221 58 290 321 
193 11 318 248 203 213 411 416 435 227 310 25 316 
194 11 268 231 262 168 311 185 413 83 183 232 379 
195 11 375 23 437 176 369 439 395 271 62 14 69 
196 11 295 163 341 28 120 138 285 370 172 37 397 
197 11 160 44 16 7 440 102 377 199 445 287 207 
198 11 124 141 220 240 367 342 402 256 325 54 399 
199 11 440 267 197 299 443 287 16 44 113 393 160 
200 11 29 448 226 305 436 100 330 334 26 276 244 
201 11 3 53 76 435 213 25 72 318 146 151 411 
202 11 233 288 111 134 136 449 324 81 343 415 450 
203 11 248 227 416 193 318 213 411 316 435 404 25 
204 11 363 106 381 148 158 327 336 27 218 239 455 
205 11 307 352 278 47 144 109 175 397 142 51 138 
206 11 142 163 285 397 59 37 196 47 278 295 144 
207 11 102 160 245 44 16 7 432 197 377 398 43 
208 11 187 55 130 4 290 214 225 417 190 252 92 
209 11 86 317 430 400 360 364 42 175 172 143 120 
210 11 398 78 43 355 156 275 450 81 324 188 224 
211 11 282 189 52 369 69 395 176 424 68 62 23 
212 11 286 182 79 103 238 302 82 281 222 386 453 
213 11 318 193 25 435 416 411 248 53 76 203 201 
214 11 468 361 132 18 224 4 246 133 208 187 87 
215 11 269 235 418 36 157 66 415 87 68 132 136 
216 11 326 346 429 110 127 19 116 251 454 230 147 
217 11 257 95 320 223 152 9 374 264 289 94 453 
218 11 249 333 455 336 148 389 158 265 93 119 381 
219 11 451 39 284 60 353 390 170 75 236 412 401 
220 11 141 342 367 198 256 54 124 399 240 254 402 
221 11 133 266 460 107 149 438 344 378 468 391 4 
222 11 30 10 94 386 286 212 453 103 264 281 82 
223 11 152 264 374 9 257 320 453 95 30 94 217 
224 11 87 361 132 156 246 18 468 157 214 450 210 
225 11 186 15 55 190 130 184 187 376 423 208 118 
226 11 436 305 29 330 200 26 448 100 469 357 243 
227 11 203 248 416 193 318 404 213 25 411 316 435 
228 11 294 164 300 431 410 388 12 421 409 325 258 
229 11 394 260 8 38 297 427 88 426 263 162 356 
230 11 454 383 466 372 261 126 456 216 169 356 346 
231 11 413 183 104 185 168 194 311 237 64 122 382 
232 11 20 379 432 311 296 168 2 262 270 237 64 
233 11 202 288 449 134 324 111 81 343 136 188 415 
234 11 462 408 165 143 42 364 273 465 428 85 147 
235 11 269 215 418 36 157 132 344 87 415 391 66 
236 11 401 75 434 353 151 463 39 219 451 404 25 
237 11 64 122 168 311 413 382 231 245 232 194 319 
238 11 302 82 79 103 212 281 182 286 40 453 137 
239 11 315 106 56 77 154 204 363 321 158 27 155 
240 11 198 431 399 124 220 141 342 409 331 367 325 
241 11 405 277 280 340 8 414 461 169 394 313 456 
242 11 270 140 417 246 2 18 296 20 252 115 379 
243 11 384 357 436 309 330 26 100 276 349 89 226 
244 11 192 334 292 438 378 347 200 460 155 448 266 
245 11 102 207 16 44 122 64 74 237 432 287 160 
246 11 18 242 270 224 417 355 140 214 43 2 361 
247 11 153 24 11 97 362 306 422 301 191 259 6 
248 11 203 227 416 193 318 213 411 435 316 25 404 
249 11 333 218 389 455 336 265 119 148 177 158 93 
250 11 373 173 354 444 322 299 41 113 443 50 396 
251 11 116 166 459 326 110 127 167 216 346 429 457 
252 11 140 417 359 115 2 242 296 118 379 20 187 
253 11 129 108 178 14 99 375 331 358 338 442 49 
254 11 61 342 220 141 291 367 399 70 54 339 181 
255 11 366 392 41 113 322 443 50 173 444 396 446 
256 11 367 54 298 402 124 141 325 220 198 342 388 
257 11 95 217 223 320 152 374 9 264 289 453 94 
258 11 96 279 300 421 406 308 387 98 294 383 410 
259 11 301 376 423 97 118 304 191 184 433 153 24 
260 11 38 88 297 229 71 394 162 63 274 8 159 
261 11 372 441 126 456 17 414 340 230 454 280 33 
262 11 268 379 20 115 296 194 2 232 311 83 168 
263 11 356 426 427 466 8 394 406 162 383 229 169 
264 11 223 152 453 374 9 30 281 94 222 257 320 
265 11 119 389 177 249 333 455 218 336 148 93 84 
266 11 107 221 149 344 133 378 438 460 391 334 36 
267 11 393 440 287 199 74 16 44 197 170 390 60 
268 11 262 83 194 379 115 371 296 304 20 359 2 
269 11 235 215 418 36 157 87 132 415 344 66 68 
270 11 242 2 20 296 379 232 246 140 432 115 18 
271 11 335 439 437 98 23 387 308 62 195 19 176 
272 11 425 57 80 125 32 128 412 101 65 73 45 
273 11 165 465 428 147 462 127 408 17 234 85 251 
274 11 90 159 180 38 297 461 313 260 229 405 88 
275 11 188 377 145 78 139 445 398 81 7 210 449 
276 11 309 100 448 349 327 384 436 243 27 347 226 
277 11 280 340 414 456 126 241 169 33 452 441 303 
278 11 144 47 205 109 352 307 397 142 51 312 206 
279 11 96 258 308 387 98 383 300 406 421 294 335 
280 11 340 414 277 456 126 169 33 441 261 241 452 
281 11 82 103 453 238 302 212 264 286 79 374 222 
282 11 211 189 69 395 52 68 369 176 49 375 424 
283 11 171 458 35 131 365 407 447 328 174 114 123 
284 11 219 451 412 170 39 60 390 31 67 393 353 
285 11 163 37 206 91 370 403 196 28 142 72 397 
286 11 212 182 79 103 302 238 386 82 222 281 10 
287 11 440 74 267 16 44 393 197 199 245 102 160 
288 11 449 233 202 81 324 188 343 275 145 139 134 
289 11 467 368 9 320 464 374 152 65 95 101 223 
290 11 4 92 130 208 161 58 187 55 460 190 192 
291 11 181 61 254 89 357 26 469 70 330 342 339 
292 11 155 192 347 244 321 154 56 58 27 77 438 
293 11 22 419 337 84 135 384 243 89 117 349 357 
294 11 228 300 164 410 421 431 258 12 388 308 96 
295 11 120 138 196 172 397 47 163 175 142 341 360 
296 11 2 20 379 115 262 270 232 140 242 268 417 
297 11 38 260 229 274 461 90 394 159 180 88 405 
298 11 256 402 54 325 367 124 388 141 121 220 198 
299 11 443 113 373 250 354 173 322 199 366 255 41 
300 11 294 258 421 96 228 279 308 387 410 98 164 
301 11 259 97 376 423 153 24 247 191 11 433 304 
302 11 238 79 82 103 212 182 281 286 40 137 453 
303 11 33 452 329 441 17 340 414 261 280 277 372 
304 11 83 371 268 433 259 118 194 301 262 137 97 
305 11 226 330 436 29 26 200 469 448 357 100 243 
306 11 422 247 191 350 34 153 11 24 362 184 301 
307 11 205 47 278 352 175 144 397 109 138 142 120 
308 11 387 98 96 279 335 300 258 271 439 294 383 
309 11 349 276 100 384 337 243 327 448 117 135 419 
310 11 146 411 316 435 76 59 193 213 318 203 248 
311 11 168 237 64 122 413 232 194 231 432 262 382 
312 11 51 109 144 105 352 351 278 59 48 205 142 
313 11 461 180 405 274 90 297 38 159 241 229 394 
314 11 457 167 420 459 407 166 458 283 171 328 251 
315 11 77 56 154 321 239 58 155 106 21 161 92 
316 11 310 411 146 351 193 435 105 203 248 76 59 
317 11 209 86 430 400 360 364 42 175 172 143 120 
318 11 213 193 25 435 416 248 203 411 53 227 76 
319 11 382 46 45 73 323 74 413 122 64 237 231 
320 11 9 95 289 152 374 257 223 467 368 464 217 
321 11 154 58 155 77 56 315 92 292 161 192 290 
322 11 41 173 50 444 113 255 366 392 443 373 396 
323 11 73 46 104 183 319 45 382 185 231 413 32 
324 11 81 450 415 78 288 156 233 202 157 449 275 
325 11 402 124 388 256 298 12 198 164 121 367 54 
326 11 216 346 429 110 127 116 251 19 147 454 230 
327 11 27 381 363 349 117 204 309 276 106 347 148 
328 11 171 35 341 348 13 447 283 28 370 131 365 
329 11 303 33 452 17 441 462 261 340 414 280 372 
330 11 305 26 436 226 29 357 469 243 200 100 448 
331 11 338 108 14 399 339 253 70 129 240 178 112 
332 11 345 421 410 406 63 12 162 164 71 121 258 
333 11 249 218 336 389 455 119 265 148 158 177 93 
334 11 378 438 244 112 107 200 266 192 149 221 460 
335 11 271 439 98 387 308 437 409 195 23 279 96 
336 11 218 158 333 249 455 148 389 204 119 265 381 
337 11 135 419 84 22 349 117 93 309 293 384 381 
338 11 331 108 339 399 70 14 253 129 112 240 178 
339 11 70 399 469 61 338 331 254 26 342 220 240 
340 11 280 414 277 456 126 33 441 169 303 452 261 
341 11 28 348 196 328 370 13 35 171 295 172 163 
342 11 220 141 367 198 54 254 256 399 124 240 402 
343 11 446 449 123 114 288 139 145 233 188 134 202 
344 11 149 391 107 266 36 133 221 418 358 235 442 
345 11 332 63 71 162 88 406 421 410 12 260 258 
346 11 216 326 429 110 19 116 127 251 454 230 62 
347 11 27 292 327 106 276 448 155 244 100 56 192 
348 11 13 341 328 385 171 85 35 420 28 172 196 
349 11 309 337 117 135 276 327 419 84 384 381 22 
350 11 191 184 422 34 306 5 15 186 423 380 376 
351 11 105 48 316 310 312 411 146 59 51 193 203 
352 11 109 205 278 144 307 51 312 47 397 142 175 
353 11 39 75 60 219 390 451 236 354 401 299 170 
354 11 250 373 173 299 444 463 322 443 113 41 396 
355 11 43 398 210 78 156 246 270 432 275 207 18 
356 11 263 426 427 466 383 8 169 394 406 229 162 
357 11 243 384 26 330 181 89 436 305 226 100 309 
358 11 99 442 391 149 49 107 112 344 178 253 36 
359 11 118 252 115 140 417 2 296 268 262 379 20 
360 11 86 175 209 172 400 430 317 120 138 364 295 
361 11 132 468 224 214 87 133 18 418 246 157 156 
362 11 11 24 153 247 150 6 97 386 306 422 301 
363 11 204 106 327 381 27 148 158 239 117 93 336 
364 11 42 430 400 143 86 209 317 360 385 408 234 
365 11 174 131 447 179 283 114 35 123 171 458 403 
366 11 255 392 113 41 443 322 50 173 444 396 299 
367 11 141 256 220 54 342 198 124 402 298 325 254 
368 11 467 464 289 65 101 9 320 374 152 125 223 
369 11 176 23 62 437 424 211 395 282 195 69 375 
370 11 28 403 37 91 447 179 285 35 341 163 196 
371 11 83 304 185 268 194 137 433 104 183 262 231 
372 11 261 441 126 456 230 454 17 414 169 340 466 
373 11 250 173 354 444 322 299 113 443 41 50 396 
374 11 152 9 223 264 320 453 289 464 95 281 467 
375 11 395 69 195 178 129 14 176 253 369 23 282 
376 11 423 259 184 191 301 186 118 225 15 97 359 
377 11 7 445 145 139 160 188 275 197 102 207 44 
378 11 438 107 334 266 149 221 112 244 344 391 460 
379 11 20 296 2 262 115 232 268 270 140 194 242 
380 11 5 21 34 350 15 190 161 184 422 186 191 
381 11 148 117 93 327 363 204 455 135 84 349 218 
382 11 319 122 413 64 237 46 231 74 168 73 183 
383 11 466 279 230 454 96 356 263 258 426 387 98 
384 11 243 357 309 349 276 337 436 100 330 22 26 
385 11 13 348 143 85 172 400 430 364 42 341 360 
386 11 6 10 286 222 212 182 30 150 94 103 433 
387 11 98 308 335 279 96 258 271 300 439 383 294 
388 11 12 164 325 121 402 410 124 228 294 298 256 
389 11 249 265 455 333 218 119 177 148 336 93 381 
390 11 60 170 39 393 353 219 267 67 284 451 31 
391 11 149 344 36 107 358 442 266 99 378 49 418 
392 11 255 366 41 113 322 50 443 396 444 173 446 
393 11 267 170 287 390 67 440 60 74 199 31 16 
394 11 229 8 427 426 260 297 38 263 356 405 169 
395 11 69 375 282 176 369 211 195 49 23 189 178 
396 11 50 444 41 173 322 255 392 250 373 366 113 
397 11 142 47 278 206 295 144 138 163 307 205 120 
398 11 43 210 355 78 275 156 207 188 81 450 432 
399 11 339 70 240 220 342 331 141 338 198 61 254 
400 11 430 86 364 209 42 360 317 143 385 172 175 
401 11 236 75 434 151 353 463 25 53 3 404 354 
402 11 325 124 256 298 388 367 198 54 141 12 121 
403 11 91 37 370 179 28 285 447 72 163 131 35 
404 11 416 227 434 25 248 203 318 213 193 53 151 
405 11 461 313 241 297 394 38 180 8 229 274 260 
406 11 258 63 162 421 96 332 279 263 345 356 71 
407 11 458 283 314 134 457 171 167 420 365 35 202 
408 11 234 143 462 428 465 85 165 273 42 364 385 
409 11 431 439 228 335 240 294 195 14 271 308 98 
410 11 164 12 421 294 388 121 332 228 300 258 325 
411 11 310 435 146 193 316 76 213 318 248 203 59 
412 11 31 67 80 284 425 170 45 272 393 390 60 
413 11 231 168 237 64 122 311 382 183 104 194 185 
414 11 340 280 456 277 126 169 441 261 33 372 303 
415 11 450 157 324 81 156 87 78 136 215 269 111 
416 11 227 248 203 193 318 404 213 25 411 435 434 
417 11 140 252 242 2 115 18 296 359 246 270 20 
418 11 235 269 215 36 132 157 344 87 361 391 133 
419 11 84 135 337 22 117 93 349 293 381 309 148 
420 11 314 457 459 85 13 167 348 166 328 171 407 
421 11 300 410 258 332 294 406 164 96 228 12 279 
422 11 306 191 247 350 34 153 184 24 11 301 423 
423 11 376 184 259 191 301 186 118 225 15 97 350 
424 11 62 369 176 23 19 437 211 110 282 429 395 
425 11 80 272 57 412 31 45 32 67 73 323 46 
426 11 427 356 263 466 8 169 394 229 383 126 456 
427 11 426 8 356 263 169 394 466 229 126 456 260 
428 11 465 273 165 147 408 462 127 85 234 459 420 
429 11 110 346 19 326 216 62 116 424 251 437 271 
430 11 400 86 209 364 42 317 360 143 385 172 175 
431 11 409 228 240 294 124 198 388 439 325 164 300 
432 11 232 270 207 311 245 20 64 237 122 168 379 
433 11 97 304 182 301 371 24 6 153 11 137 386 
434 11 404 25 151 401 236 53 416 318 213 3 227 
435 11 76 411 146 213 310 193 318 201 316 25 248 
436 11 226 330 305 26 29 200 448 100 357 243 384 
437 11 23 62 176 369 195 271 424 19 335 439 395 
438 11 378 334 266 107 244 460 221 192 149 133 344 
439 11 335 271 409 98 195 308 387 437 23 431 294 
440 11 287 267 16 197 44 199 160 102 74 393 7 
441 11 261 372 17 126 456 33 303 414 340 280 452 
442 11 49 358 99 391 36 178 68 129 149 253 344 
443 11 113 366 255 299 322 392 41 173 373 250 50 
444 11 173 396 50 322 41 250 373 255 113 354 366 
445 11 377 145 139 7 188 160 275 197 44 102 449 
446 11 123 343 114 392 139 255 145 449 366 445 41 
447 11 35 131 179 365 174 171 370 28 283 328 403 
448 11 100 200 276 226 436 29 305 309 330 347 384 
449 11 288 343 233 188 139 145 202 275 81 324 446 
450 11 415 324 156 81 78 157 87 210 224 398 275 
451 11 219 39 284 353 60 390 170 75 236 401 412 
452 11 33 303 329 340 441 280 414 17 277 261 456 
453 11 281 264 103 82 374 152 223 30 222 9 238 
454 11 230 383 466 372 261 126 216 456 346 169 356 
455 11 218 249 148 389 333 93 336 265 177 381 117 
456 11 126 414 169 280 261 340 372 441 277 466 427 
457 11 167 314 459 166 420 407 251 116 458 283 85 
458 11 407 283 134 365 171 314 123 114 131 174 35 
459 11 166 167 457 251 314 420 116 428 465 85 127 
460 11 221 133 266 438 4 192 107 378 290 149 468 
461 11 405 313 180 297 38 274 90 229 394 159 260 
462 11 165 234 273 408 465 428 147 17 329 127 143 
463 11 354 151 250 373 3 173 444 75 72 53 401 
464 11 467 368 65 101 289 9 374 152 320 453 125 
465 11 428 273 165 147 408 462 127 85 234 459 420 
466 11 356 426 383 263 427 169 230 454 126 456 8 
467 11 368 464 289 65 101 9 320 374 152 125 223 
468 11 214 361 132 133 224 4 18 221 87 460 246 
469 11 70 339 26 61 305 330 29 226 181 436 399 
DEPOT_SECTION
   1
   -1
EOF
