NAME :  X-n449-kX-w179-c7.cctp
COMMENT : 	Adapted by Maziero, Usberti and Cavellucci from the Uchoa, Pecin, Pessoa, Poggi, Subramanian, and Vidal (2013)
TYPE :  CCTP
DIMENSION :    445
EDGE_WEIGHT_TYPE : 	EUC_2D	
CAPACITY : 	777
VERTICES_WITHIN_COVERAGE :  7
VERTICES_WITH_DEMAND : 	179
NODE_COORD_SECTION
1 0 0
2 300 71
3 434 4
4 257 798
5 718 17
6 879 206
7 929 330
8 353 793
9 389 540
10 202 55
11 417 253
12 921 572
13 94 788
14 870 327
15 281 124
16 411 288
17 882 116
18 307 240
19 359 935
20 352 858
21 502 776
22 269 33
23 440 814
24 850 461
25 909 404
26 339 458
27 767 535
28 86 47
29 758 532
30 426 282
31 534 10
32 826 830
33 911 79
34 270 791
35 391 794
36 908 787
37 929 858
38 938 281
39 941 579
40 752 162
41 579 68
42 323 570
43 238 700
44 853 970
45 329 805
46 651 486
47 291 631
48 286 481
49 855 547
50 972 378
51 561 490
52 205 741
53 528 672
54 664 605
55 462 532
56 340 54
57 929 941
58 936 46
59 864 654
60 501 495
61 339 10
62 324 595
63 585 893
64 73 401
65 244 926
66 190 659
67 900 929
68 525 878
69 832 622
70 228 662
71 36 578
72 897 292
73 492 426
74 958 546
75 674 303
76 312 781
77 320 557
78 226 264
79 446 702
80 470 746
81 613 620
82 710 289
83 439 15
84 148 352
85 371 115
86 414 108
87 693 626
88 703 31
89 798 932
90 170 723
91 700 554
92 569 984
93 801 849
94 139 150
95 907 964
96 757 670
97 490 37
98 311 927
99 210 657
100 357 320
101 677 558
102 1 599
103 464 579
104 39 430
105 379 863
106 355 233
107 974 313
108 551 258
109 315 294
110 846 911
111 997 585
112 214 331
113 407 584
114 775 225
115 244 761
116 433 941
117 281 357
118 771 792
119 381 345
120 188 643
121 766 627
122 292 735
123 526 487
124 540 762
125 392 298
126 124 199
127 748 473
128 123 885
129 896 666
130 882 844
131 572 231
132 656 366
133 715 918
134 505 341
135 475 831
136 430 827
137 489 629
138 765 883
139 388 981
140 817 650
141 565 267
142 759 674
143 192 532
144 767 488
145 488 690
146 414 436
147 226 976
148 308 756
149 509 647
150 985 906
151 778 941
152 45 137
153 81 276
154 552 334
155 591 702
156 664 79
157 363 607
158 529 992
159 361 670
160 425 296
161 714 61
162 152 660
163 236 900
164 670 265
165 194 950
166 991 139
167 320 583
168 317 732
169 73 974
170 437 745
171 166 556
172 362 207
173 319 725
174 216 807
175 284 793
176 380 466
177 104 187
178 879 171
179 635 910
180 23 49
181 304 234
182 304 700
183 132 663
184 525 767
185 997 129
186 200 771
187 145 449
188 191 188
189 965 27
190 602 777
191 994 807
192 912 153
193 192 474
194 373 626
195 452 913
196 650 266
197 367 905
198 707 243
199 247 86
200 951 396
201 381 147
202 622 68
203 559 288
204 435 179
205 829 919
206 467 557
207 521 617
208 302 515
209 507 326
210 418 680
211 720 814
212 831 70
213 917 369
214 981 425
215 695 761
216 876 779
217 760 436
218 485 294
219 439 979
220 373 336
221 445 807
222 594 805
223 898 130
224 833 707
225 582 152
226 795 991
227 469 520
228 847 620
229 482 33
230 906 903
231 507 591
232 582 69
233 663 401
234 570 103
235 816 427
236 286 816
237 344 97
238 763 175
239 153 254
240 784 886
241 947 357
242 283 214
243 732 938
244 979 69
245 596 302
246 263 331
247 716 484
248 349 425
249 622 447
250 658 154
251 722 540
252 457 775
253 55 197
254 755 326
255 321 894
256 438 207
257 132 347
258 666 5
259 539 973
260 508 576
261 790 584
262 835 367
263 350 346
264 460 1
265 168 983
266 531 101
267 187 224
268 166 368
269 113 512
270 351 913
271 432 956
272 75 828
273 671 529
274 724 22
275 921 532
276 717 296
277 593 283
278 402 668
279 444 83
280 195 955
281 969 601
282 243 384
283 695 753
284 46 448
285 334 591
286 516 345
287 979 904
288 94 309
289 237 920
290 910 520
291 886 385
292 539 808
293 746 888
294 26 603
295 836 442
296 147 144
297 754 310
298 923 928
299 324 85
300 387 412
301 484 17
302 605 970
303 427 591
304 933 93
305 990 355
306 536 845
307 296 1000
308 158 562
309 648 685
310 130 810
311 663 619
312 642 583
313 667 885
314 255 761
315 336 521
316 583 849
317 731 736
318 703 45
319 718 288
320 760 984
321 229 296
322 982 954
323 889 715
324 786 610
325 958 642
326 850 134
327 490 982
328 272 789
329 10 217
330 417 46
331 411 740
332 925 548
333 87 425
334 980 299
335 330 462
336 829 128
337 966 431
338 540 389
339 249 633
340 24 912
341 2 667
342 300 206
343 2 256
344 5 919
345 630 330
346 167 531
347 751 349
348 216 314
349 862 885
350 251 533
351 481 446
352 557 899
353 788 560
354 365 273
355 512 96
356 879 619
357 77 850
358 526 204
359 989 364
360 486 57
361 475 14
362 451 667
363 382 331
364 639 940
365 307 581
366 63 396
367 996 593
368 47 631
369 977 840
370 990 13
371 458 762
372 377 639
373 464 348
374 56 534
375 226 964
376 746 109
377 828 428
378 798 863
379 87 343
380 222 330
381 706 670
382 947 294
383 654 559
384 333 230
385 813 426
386 943 15
387 868 284
388 553 878
389 443 317
390 425 603
391 500 710
392 815 983
393 969 727
394 740 523
395 647 40
396 999 394
397 337 308
398 236 999
399 443 604
400 579 476
401 756 686
402 523 320
403 438 242
404 297 913
405 162 816
406 588 258
407 725 582
408 178 67
409 808 54
410 843 80
411 1000 36
412 484 651
413 53 823
414 526 570
415 411 657
416 554 145
417 962 430
418 204 527
419 61 638
420 307 292
421 799 580
422 273 266
423 507 816
424 740 604
425 534 864
426 456 118
427 254 162
428 427 857
429 339 265
430 303 930
431 266 296
432 21 590
433 90 656
434 694 561
435 456 972
436 754 612
437 866 302
438 337 390
439 192 588
440 933 496
441 448 357
442 267 811
443 797 680
444 447 79
445 821 367
DEMAND_SECTION
2 35
3 74
4 5
5 43
6 27
7 97
8 68
9 77
10 78
11 8
12 66
13 15
14 92
15 3
16 90
17 39
18 57
19 29
20 82
21 81
22 4
23 90
24 9
25 95
26 6
27 82
28 66
29 50
30 83
31 48
32 4
33 54
34 45
35 64
36 77
37 96
38 56
39 44
40 25
41 18
42 23
43 74
44 69
45 8
46 9
47 70
48 42
49 25
50 73
51 61
52 41
53 38
54 35
55 97
56 97
57 3
58 62
59 79
60 87
61 52
62 85
63 21
64 50
65 18
66 38
67 30
68 48
69 80
70 19
71 15
72 33
73 28
74 83
75 19
76 58
77 67
78 53
79 78
80 97
81 28
82 61
83 2
84 99
85 21
86 12
87 86
88 64
89 1
90 71
91 38
92 46
93 64
94 79
95 42
96 76
97 71
98 92
99 37
100 20
101 84
102 43
103 26
104 47
105 50
106 36
107 9
108 37
109 81
110 54
111 42
112 7
113 89
114 100
115 17
116 60
117 20
118 66
119 73
120 62
121 30
122 13
123 26
124 46
125 79
126 93
127 28
128 34
129 51
130 85
131 51
132 96
133 1
134 58
135 92
136 18
137 22
138 61
139 10
140 9
141 43
142 39
143 78
144 27
145 49
146 68
147 71
148 27
149 26
150 23
151 73
152 45
153 30
154 65
155 7
156 90
157 85
158 56
159 93
160 78
161 1
162 96
163 37
164 80
165 20
166 90
167 30
168 100
169 86
170 35
171 87
172 76
173 42
174 36
175 2
176 7
177 49
178 42
179 31
180 4
COVERAGE_SECTION
2 7 299 56 22 237 199 15 61 
3 7 83 264 361 330 301 229 97 
4 7 34 442 328 175 236 314 115 
5 7 274 88 318 161 258 395 156 
6 7 178 192 223 326 387 72 17 
7 7 241 382 213 107 38 72 14 
8 7 45 35 76 148 20 175 168 
9 7 113 315 303 77 42 157 55 
10 7 408 199 22 2 15 296 94 
11 7 403 30 16 160 125 256 354 
12 7 39 332 275 74 290 281 356 
13 7 310 272 413 357 405 90 128 
14 7 437 387 72 262 7 291 213 
15 7 427 199 2 299 237 342 85 
16 7 30 160 125 11 389 354 363 
17 7 223 326 33 192 410 336 178 
18 7 181 384 242 342 429 422 106 
19 7 270 197 98 139 255 430 404 
20 7 105 255 197 270 45 8 35 
21 7 184 124 423 80 252 371 292 
22 7 2 199 10 56 61 299 15 
23 7 221 136 135 252 428 35 371 
24 5 295 377 235 385 25 
25 7 291 213 200 417 241 337 50 
26 7 335 248 176 48 315 300 208 
27 7 29 394 353 251 144 261 421 
28 7 180 408 152 296 10 94 177 
29 7 27 394 251 353 144 127 407 
30 7 160 16 11 125 389 403 218 
31 7 301 97 229 361 360 41 264 
32 7 93 378 130 349 118 240 216 
33 7 304 58 17 223 410 244 386 
34 7 328 175 4 442 236 314 115 
35 7 8 136 23 221 331 45 170 
36 7 216 130 37 323 393 369 191 
37 7 130 230 369 287 298 349 36 
38 7 382 72 334 107 7 387 437 
39 7 12 332 281 74 275 111 367 
40 7 238 376 114 336 198 250 326 
41 7 232 234 202 266 31 355 395 
42 7 77 167 365 285 62 315 157 
43 7 70 99 52 115 66 314 122 
44 7 392 95 205 110 67 226 89 
45 7 8 76 236 175 148 20 328 
46 7 273 249 247 383 400 101 91 
47 7 339 62 365 167 285 42 70 
48 7 208 335 26 350 315 77 248 
49 7 290 421 275 353 332 12 228 
50 7 359 200 305 396 241 214 337 
51 7 400 123 60 249 414 46 351 
52 7 186 90 115 43 314 174 4 
53 7 149 145 391 412 207 137 155 
54 7 311 312 87 383 101 81 434 
55 7 227 206 103 60 260 303 9 
56 7 299 2 237 61 85 22 330 
57 7 298 67 95 230 322 287 150 
58 7 386 189 33 304 244 370 411 
59 7 129 228 356 69 140 224 323 
60 7 123 227 351 55 51 73 206 
61 7 56 2 22 299 330 237 3 
62 7 285 167 365 42 77 157 47 
63 7 352 388 316 179 425 68 306 
64 7 366 333 104 284 379 257 187 
65 7 289 163 375 147 165 404 280 
66 7 120 99 70 162 183 43 339 
67 7 298 230 57 95 110 349 44 
68 7 425 388 306 352 63 316 423 
69 7 228 140 59 356 324 421 261 
70 7 99 339 66 43 120 47 162 
71 7 432 294 102 374 368 419 341 
72 7 387 437 38 14 7 382 107 
73 7 351 338 60 123 146 441 373 
74 7 332 39 275 12 111 290 281 
75 7 164 82 196 276 319 345 132 
76 7 148 45 175 328 8 34 236 
77 7 42 167 365 285 62 315 208 
78 7 321 422 348 431 267 380 112 
79 7 362 210 145 170 80 331 391 
80 7 371 252 170 21 391 79 145 
81 7 312 311 54 383 309 87 155 
82 7 319 276 75 198 164 297 254 
83 7 3 264 361 330 301 229 97 
84 7 257 268 379 112 288 380 348 
85 7 237 201 86 299 56 279 330 
86 7 279 426 85 444 201 330 237 
87 7 311 54 381 424 407 436 434 
88 7 318 5 274 161 258 395 156 
89 7 151 205 240 110 392 138 226 
90 7 52 186 162 66 183 43 99 
91 7 434 101 251 273 407 383 394 
92 7 259 302 158 327 364 352 63 
93 7 378 32 240 138 118 293 349 
94 7 296 126 177 188 267 408 152 
95 7 57 67 298 44 230 322 110 
96 7 142 401 443 121 381 436 140 
97 7 229 360 301 361 264 31 83 
98 7 430 404 255 270 19 197 65 
99 7 70 66 120 339 43 162 439 
100 7 220 397 263 363 119 125 354 
101 7 434 91 383 273 312 251 54 
102 7 432 294 71 368 341 419 374 
103 7 206 399 303 260 231 390 55 
104 7 284 366 64 333 379 374 187 
105 7 20 197 428 270 136 255 35 
106 7 384 172 429 354 18 181 342 
107 7 334 382 305 7 38 241 359 
108 7 141 203 131 406 277 358 245 
109 7 420 397 429 100 431 422 354 
110 7 205 349 89 67 44 230 240 
111 7 367 281 74 39 325 12 332 
112 7 380 348 321 246 282 268 431 
113 7 303 390 399 9 157 194 103 
114 7 238 40 198 319 297 82 276 
115 7 314 4 34 328 52 186 175 
116 7 271 195 219 435 139 327 19 
117 7 246 282 431 380 438 263 420 
118 7 211 93 32 317 378 215 283 
119 7 220 363 263 100 125 397 438 
120 7 66 99 162 70 439 183 339 
121 7 436 324 424 96 142 261 140 
122 7 168 148 173 182 314 76 115 
123 7 60 51 400 351 227 73 55 
124 7 184 21 292 423 190 391 222 
125 7 16 160 363 354 30 100 220 
126 7 177 94 296 239 188 267 253 
127 7 144 247 217 394 29 27 251 
128 7 357 272 310 405 413 165 280 
129 7 59 323 356 325 228 224 69 
130 7 349 37 32 36 230 216 110 
131 7 406 108 141 358 277 203 245 
132 7 233 345 75 245 249 276 82 
133 7 243 293 313 138 151 240 364 
134 7 286 209 402 373 154 218 338 
135 7 423 221 23 136 428 252 21 
136 7 23 221 428 135 35 252 105 
137 7 412 149 207 231 399 362 103 
138 7 240 293 378 93 89 151 133 
139 7 219 271 19 116 435 270 197 
140 7 69 443 228 59 324 121 224 
141 7 108 203 406 277 131 245 154 
142 7 96 401 443 121 381 436 140 
143 7 418 346 171 308 439 193 350 
144 7 127 394 29 27 247 217 251 
145 7 391 412 53 79 362 149 80 
146 7 300 176 248 351 26 73 441 
147 7 375 398 280 165 65 289 265 
148 7 76 122 168 173 175 328 34 
149 7 412 137 53 207 145 231 362 
150 7 287 322 57 298 369 37 230 
151 7 89 243 320 226 240 205 392 
152 7 253 177 329 180 94 28 126 
153 7 288 379 239 343 253 257 126 
154 7 402 286 209 203 134 245 338 
155 7 309 53 190 124 81 391 184 
156 7 202 395 318 161 88 258 250 
157 7 194 285 372 62 167 113 42 
158 7 259 327 92 435 302 219 352 
159 7 372 278 194 415 210 157 182 
160 7 30 16 389 125 11 363 403 
161 7 318 88 274 5 156 376 395 
162 7 183 66 120 99 433 90 70 
163 7 289 65 404 165 375 280 430 
164 7 196 75 198 82 319 276 345 
165 7 280 375 147 265 289 65 163 
166 7 185 244 304 192 223 33 411 
167 7 42 62 365 285 77 157 47 
168 7 173 122 148 182 76 314 175 
169 7 340 344 265 128 165 280 357 
170 7 331 371 80 252 79 221 35 
171 7 308 346 143 439 418 269 193 
172 7 106 384 342 429 201 18 181 
173 7 168 122 182 148 76 159 314 
174 7 186 4 442 115 405 34 328 
175 7 328 34 236 442 4 76 314 
176 7 26 146 335 248 300 315 9 
177 7 126 253 94 296 152 239 188 
178 7 6 192 223 326 17 336 304 
179 7 364 313 63 302 352 133 316 
180 7 28 152 253 94 296 408 177 
181 7 18 342 242 384 422 429 106 
182 7 173 168 122 148 159 43 47 
183 7 162 433 66 120 90 419 99 
184 7 124 21 292 423 80 391 371 
185 7 166 244 304 192 411 33 223 
186 7 52 174 115 314 90 405 4 
187 7 193 333 269 268 346 64 143 
188 7 267 296 94 126 427 239 78 
189 7 386 370 58 411 244 304 33 
190 6 222 124 292 316 155 184 
191 7 369 37 393 36 287 150 130 
192 7 223 178 17 6 304 326 33 
193 7 187 418 143 346 350 171 269 
194 7 372 157 159 415 278 285 113 
195 7 116 271 435 428 219 327 68 
196 7 164 75 277 198 406 82 245 
197 7 270 19 105 255 20 98 430 
198 7 164 82 319 276 196 75 114 
199 7 15 2 10 22 408 427 299 
200 7 50 417 337 241 214 25 213 
201 7 85 86 237 172 204 426 256 
202 7 395 232 41 156 234 258 318 
203 7 141 108 277 245 406 154 402 
204 7 256 201 403 426 86 11 172 
205 7 110 89 349 44 151 240 378 
206 7 103 55 227 260 231 303 399 
207 7 231 149 137 260 414 412 53 
208 7 315 48 77 350 42 335 365 
209 7 134 402 286 218 154 373 203 
210 6 278 415 362 79 159 372 
211 6 118 215 283 293 317 138 
212 7 410 409 336 326 17 33 223 
213 7 241 291 25 7 200 50 14 
214 7 337 417 396 200 50 359 305 
215 6 283 317 211 118 309 381 
216 7 36 130 323 32 224 37 93 
217 7 127 144 385 235 247 377 295 
218 7 209 402 389 134 373 30 160 
219 7 435 271 116 139 327 195 19 
220 7 363 119 100 263 125 397 16 
221 7 23 136 252 135 371 428 35 
222 6 190 316 292 124 306 184 
223 7 17 192 178 326 304 33 336 
224 7 443 323 140 59 129 401 142 
225 7 416 234 266 250 358 131 232 
226 7 392 320 151 89 44 205 243 
227 7 55 206 60 103 123 260 351 
228 7 69 356 59 140 324 421 129 
229 7 97 301 361 360 264 83 3 
230 7 67 298 57 349 37 95 110 
231 7 260 414 207 137 103 206 149 
232 7 41 234 202 266 395 355 31 
233 7 132 249 345 46 247 75 347 
234 7 41 232 266 416 225 355 202 
235 5 385 377 295 24 217 
236 7 442 175 34 328 4 45 76 
237 7 299 85 56 2 201 15 86 
238 7 40 114 376 336 198 326 250 
239 7 267 126 78 153 188 288 177 
240 7 138 378 293 93 89 151 205 
241 7 7 213 50 200 305 359 107 
242 7 342 181 18 384 422 427 106 
243 7 133 151 293 320 138 89 240 
244 7 411 189 58 304 370 185 386 
245 7 277 203 345 406 141 154 108 
246 7 117 431 380 112 321 348 282 
247 7 127 394 144 251 29 273 46 
248 7 26 438 300 335 176 146 263 
249 7 46 400 233 51 132 273 338 
250 7 156 225 202 40 376 198 234 
251 7 394 91 434 29 407 27 101 
252 7 371 80 221 170 23 21 331 
253 7 329 177 152 126 343 153 94 
254 7 297 347 276 319 82 445 75 
255 7 404 98 270 430 197 20 19 
256 7 204 403 11 30 172 201 16 
257 7 84 268 379 288 64 112 366 
258 7 395 88 5 318 274 156 161 
259 7 158 92 327 302 352 435 63 
260 7 231 414 207 103 206 137 55 
261 7 421 353 324 436 121 27 424 
262 5 445 14 291 377 235 
263 7 220 100 119 363 397 438 109 
264 7 361 83 3 301 229 97 330 
265 7 280 165 147 375 398 289 65 
266 7 355 234 416 41 232 360 225 
267 7 188 239 78 126 321 94 296 
268 7 84 257 112 380 348 282 379 
269 7 346 374 308 171 187 143 193 
270 7 197 19 255 98 430 404 20 
271 7 116 219 435 195 139 327 19 
272 7 357 413 13 310 128 405 340 
273 7 101 383 91 434 46 251 312 
274 7 5 88 318 161 258 395 156 
275 7 290 332 440 12 74 39 49 
276 7 319 82 297 75 254 198 164 
277 7 245 406 141 203 108 131 196 
278 6 415 210 372 159 362 194 
279 7 444 426 86 330 360 229 97 
280 7 165 375 147 265 289 65 398 
281 7 367 111 39 325 12 74 332 
282 7 117 246 380 112 348 268 321 
283 6 215 317 211 309 381 118 
284 7 104 333 64 366 374 269 187 
285 7 62 167 42 365 157 77 194 
286 7 134 209 402 154 338 373 218 
287 7 150 322 298 57 369 37 230 
288 7 153 379 257 84 239 366 268 
289 7 65 163 375 165 280 147 404 
290 7 275 332 440 12 74 49 39 
291 5 25 213 262 14 200 
292 7 423 306 184 124 21 222 425 
293 7 138 240 133 243 378 151 93 
294 7 432 102 71 368 419 341 374 
295 5 377 24 235 385 262 
296 7 94 126 177 188 408 267 152 
297 7 254 347 276 319 82 75 198 
298 7 57 67 230 95 287 322 150 
299 7 237 2 56 85 15 22 61 
300 7 146 248 176 438 26 119 263 
301 7 361 229 97 264 360 83 31 
302 7 92 364 259 179 158 63 352 
303 6 390 113 399 103 206 9 
304 7 33 58 223 244 17 192 185 
305 7 359 50 396 241 107 200 334 
306 7 425 68 292 388 423 316 352 
307 7 398 430 147 98 375 404 65 
308 7 171 346 439 143 418 269 120 
309 7 155 381 311 81 87 54 283 
310 7 405 13 272 357 128 413 186 
311 7 54 87 312 81 383 101 434 
312 7 383 54 311 101 81 434 273 
313 6 179 133 364 293 63 243 
314 7 115 328 34 4 175 122 442 
315 7 208 77 42 9 335 26 48 
316 7 388 63 222 306 425 352 292 
317 7 283 215 401 142 118 96 381 
318 7 88 161 274 5 156 258 395 
319 7 82 276 297 75 198 164 254 
320 7 226 151 243 392 89 133 44 
321 7 348 78 380 431 112 246 422 
322 7 150 287 57 298 95 67 230 
323 7 129 224 216 59 36 393 140 
324 7 121 261 436 421 424 69 353 
325 7 281 367 39 129 111 12 356 
326 7 336 17 178 223 410 192 212 
327 7 435 158 259 219 271 116 92 
328 7 34 175 4 442 236 314 115 
329 7 343 253 152 153 177 126 288 
330 7 83 3 444 279 86 264 229 
331 7 170 79 371 35 252 80 210 
332 7 275 12 290 74 39 440 281 
333 7 64 366 284 104 187 379 257 
334 7 107 382 38 305 7 359 241 
335 7 26 248 48 176 315 208 438 
336 7 326 410 17 212 178 223 409 
337 7 417 214 200 396 50 25 359 
338 7 286 154 134 73 209 402 351 
339 7 70 47 99 120 66 43 439 
340 7 344 169 357 413 272 128 13 
341 7 368 419 102 294 432 433 71 
342 7 242 181 18 384 106 172 427 
343 7 329 253 153 288 379 177 152 
344 7 340 169 357 413 272 128 13 
345 7 132 245 75 277 196 164 154 
346 7 143 171 308 418 269 193 439 
347 7 254 297 276 319 445 82 262 
348 7 112 380 321 246 78 431 268 
349 7 110 130 205 230 67 32 378 
350 7 418 208 143 48 77 365 42 
351 7 73 60 123 146 227 338 55 
352 7 388 63 68 425 316 306 259 
353 7 421 261 27 29 324 394 436 
354 7 429 125 106 397 16 100 109 
355 7 266 360 234 426 97 416 444 
356 7 228 59 69 129 12 140 39 
357 7 272 413 128 13 310 340 405 
358 7 131 108 416 141 225 406 256 
359 7 305 50 396 241 200 107 214 
360 7 97 229 301 361 444 355 279 
361 7 301 229 264 97 83 3 360 
362 6 79 210 412 415 145 278 
363 7 220 119 100 125 263 397 16 
364 7 179 302 313 63 133 92 352 
365 7 167 42 62 77 285 47 157 
366 7 64 333 104 284 379 257 288 
367 7 111 281 39 74 325 12 332 
368 7 419 294 432 433 71 102 341 
369 7 191 37 287 150 36 130 230 
370 7 411 189 386 244 58 304 33 
371 7 252 80 170 21 221 331 23 
372 6 194 157 159 278 415 210 
373 7 441 389 134 209 286 218 160 
374 7 71 269 432 294 102 284 368 
375 7 147 280 165 398 65 289 265 
376 7 40 161 238 318 409 336 156 
377 5 235 385 295 24 262 
378 7 93 240 138 32 293 205 110 
379 7 288 257 366 64 84 153 333 
380 7 112 348 321 246 431 282 117 
381 7 87 96 401 142 309 311 317 
382 7 38 107 334 7 72 241 305 
383 7 101 312 273 434 91 54 311 
384 7 106 18 181 429 172 342 242 
385 5 235 377 295 24 217 
386 7 189 58 370 411 244 33 304 
387 7 437 72 14 38 7 6 382 
388 7 352 425 68 63 306 316 292 
389 7 160 373 30 441 16 218 125 
390 6 303 399 113 103 415 194 
391 7 145 53 80 79 412 184 149 
392 7 226 44 89 320 151 205 110 
393 7 323 191 36 325 129 216 369 
394 7 29 251 27 144 247 91 127 
395 7 202 258 156 318 88 161 232 
396 7 50 359 214 305 200 337 417 
397 7 100 109 420 263 429 354 220 
398 7 147 375 280 307 165 265 65 
399 6 390 303 103 113 137 206 
400 7 51 249 123 46 60 338 73 
401 7 142 96 443 381 317 121 140 
402 7 209 286 134 154 218 203 373 
403 7 11 256 30 16 160 204 218 
404 7 430 98 255 270 65 289 163 
405 7 310 174 186 13 128 52 272 
406 7 141 277 131 108 203 245 196 
407 7 424 434 91 251 436 87 101 
408 7 10 199 296 94 28 22 15 
409 7 212 410 336 376 274 326 161 
410 7 212 409 336 17 326 33 223 
411 7 370 189 244 386 58 304 185 
412 6 137 149 362 145 53 207 
413 7 272 357 13 310 128 340 344 
414 7 260 231 207 206 103 137 55 
415 6 278 210 372 362 194 159 
416 7 225 234 266 355 358 41 232 
417 7 337 214 200 396 50 25 359 
418 7 143 346 350 171 193 308 439 
419 7 368 433 294 432 71 341 102 
420 7 109 397 431 429 422 18 100 
421 7 261 353 324 69 27 436 121 
422 7 431 18 420 181 78 109 242 
423 7 292 135 21 306 184 425 124 
424 7 436 407 121 324 87 261 434 
425 7 68 306 388 352 316 423 292 
426 7 279 444 86 355 204 360 266 
427 7 15 242 342 188 199 181 267 
428 7 136 23 105 221 135 195 35 
429 7 354 106 384 109 18 420 397 
430 7 98 404 255 270 19 65 289 
431 7 422 246 321 420 109 78 348 
432 7 294 71 102 368 419 374 341 
433 7 419 183 368 162 294 341 71 
434 7 91 101 251 407 273 383 54 
435 7 219 271 327 116 195 139 158 
436 7 424 121 324 407 261 421 96 
437 7 387 14 72 7 262 38 445 
438 7 248 263 300 119 117 220 26 
439 7 171 308 120 143 346 418 66 
440 7 290 275 332 74 417 337 12 
441 7 373 389 134 160 209 119 286 
442 7 4 34 236 328 175 174 314 
443 7 140 142 96 401 224 121 69 
444 7 279 426 86 330 360 229 97 
445 5 262 235 385 377 14 
DEPOT_SECTION
   1
   -1
EOF
