NAME :  X-n491-kX-w98-c9.cctp
COMMENT : 	Adapted by Maziero, Usberti and Cavellucci from the Uchoa, Pecin, Pessoa, Poggi, Subramanian, and Vidal (2013)
TYPE :  CCTP
DIMENSION :    365
EDGE_WEIGHT_TYPE : 	EUC_2D	
CAPACITY : 	428
VERTICES_WITHIN_COVERAGE :  9
VERTICES_WITH_DEMAND : 	98
NODE_COORD_SECTION
1 894 510
2 463 887
3 704 177
4 424 368
5 420 800
6 492 610
7 607 749
8 363 85
9 160 398
10 733 274
11 952 199
12 56 370
13 714 12
14 569 230
15 187 681
16 550 581
17 506 863
18 838 469
19 842 107
20 595 966
21 292 185
22 327 121
23 21 664
24 145 164
25 654 735
26 281 959
27 910 295
28 857 705
29 501 276
30 896 894
31 269 217
32 590 509
33 575 96
34 819 481
35 941 408
36 908 388
37 941 492
38 652 413
39 341 111
40 577 544
41 493 279
42 452 25
43 969 339
44 64 67
45 456 289
46 227 792
47 898 365
48 45 442
49 881 867
50 437 830
51 280 233
52 894 41
53 146 375
54 498 393
55 849 249
56 188 631
57 461 690
58 277 381
59 410 486
60 211 863
61 359 706
62 595 831
63 353 281
64 448 785
65 206 832
66 726 420
67 143 741
68 84 332
69 692 490
70 896 968
71 823 232
72 513 831
73 338 623
74 787 934
75 515 893
76 829 499
77 993 184
78 30 917
79 918 121
80 327 945
81 331 646
82 714 159
83 810 86
84 10 665
85 358 495
86 877 42
87 547 218
88 81 551
89 907 733
90 12 587
91 564 716
92 446 381
93 136 379
94 565 957
95 872 42
96 216 326
97 37 967
98 434 954
99 562 426
100 203 448
101 926 44
102 473 523
103 302 363
104 947 678
105 985 248
106 839 112
107 597 917
108 573 948
109 229 856
110 497 199
111 645 338
112 106 449
113 918 709
114 680 917
115 194 86
116 176 795
117 714 316
118 368 822
119 72 175
120 239 112
121 736 825
122 621 236
123 811 510
124 82 545
125 55 520
126 146 385
127 319 751
128 195 332
129 446 715
130 514 988
131 891 404
132 632 329
133 558 893
134 567 695
135 297 220
136 191 246
137 620 569
138 447 829
139 73 857
140 887 849
141 249 874
142 457 527
143 298 729
144 141 976
145 695 556
146 851 526
147 259 467
148 561 309
149 412 755
150 700 344
151 831 297
152 556 499
153 447 454
154 316 773
155 212 653
156 487 210
157 300 434
158 257 805
159 46 856
160 268 199
161 837 819
162 625 636
163 250 650
164 165 167
165 450 924
166 975 100
167 148 707
168 866 77
169 814 172
170 335 318
171 389 801
172 104 468
173 443 511
174 764 323
175 631 938
176 762 744
177 376 930
178 350 537
179 569 883
180 152 396
181 481 356
182 598 964
183 232 267
184 613 98
185 714 334
186 14 540
187 701 695
188 220 306
189 497 271
190 265 137
191 981 259
192 432 580
193 77 946
194 699 51
195 93 860
196 316 369
197 883 505
198 836 775
199 650 638
200 768 280
201 473 396
202 63 935
203 137 774
204 344 230
205 712 37
206 184 58
207 434 502
208 149 342
209 292 48
210 402 160
211 365 500
212 287 35
213 394 695
214 674 817
215 109 754
216 187 972
217 802 453
218 5 16
219 421 581
220 720 439
221 333 681
222 981 743
223 411 723
224 278 830
225 459 907
226 999 105
227 603 751
228 512 804
229 642 674
230 449 0
231 631 543
232 299 63
233 440 40
234 362 758
235 833 46
236 487 372
237 796 267
238 59 660
239 114 909
240 59 523
241 910 182
242 958 201
243 392 55
244 532 197
245 795 674
246 904 278
247 932 486
248 469 41
249 904 116
250 916 259
251 355 511
252 665 33
253 581 564
254 919 134
255 143 600
256 846 339
257 49 668
258 103 407
259 700 164
260 962 709
261 873 240
262 942 75
263 425 254
264 936 548
265 605 53
266 135 777
267 954 503
268 392 27
269 446 20
270 368 126
271 692 278
272 940 181
273 815 137
274 855 406
275 558 105
276 32 642
277 927 542
278 899 656
279 147 552
280 51 598
281 951 209
282 803 252
283 221 667
284 144 710
285 970 224
286 846 297
287 830 215
288 643 508
289 547 83
290 665 197
291 858 263
292 684 243
293 719 138
294 555 90
295 819 130
296 519 199
297 135 327
298 892 158
299 843 154
300 817 538
301 572 220
302 928 76
303 564 209
304 828 691
305 111 810
306 911 116
307 929 534
308 140 724
309 783 521
310 132 648
311 886 325
312 107 612
313 34 850
314 558 230
315 53 665
316 969 251
317 994 370
318 891 360
319 912 670
320 471 261
321 147 549
322 680 222
323 807 474
324 421 10
325 836 278
326 903 428
327 744 268
328 845 444
329 119 715
330 902 674
331 950 493
332 539 216
333 850 514
334 853 259
335 553 256
336 424 39
337 594 76
338 0 651
339 0 706
340 557 264
341 839 228
342 778 365
343 414 128
344 374 22
345 467 24
346 960 708
347 793 528
348 197 718
349 70 923
350 0 609
351 968 307
352 472 47
353 840 480
354 798 105
355 555 110
356 924 360
357 829 181
358 865 507
359 54 462
360 756 524
361 585 61
362 666 236
363 917 287
364 919 199
365 94 553
DEMAND_SECTION
2 19
3 56
4 71
5 90
6 5
7 34
8 47
9 56
10 53
11 87
12 28
13 15
14 89
15 60
16 85
17 41
18 52
19 74
20 63
21 72
22 82
23 35
24 48
25 39
26 46
27 78
28 41
29 15
30 77
31 30
32 72
33 93
34 53
35 95
36 29
37 90
38 82
39 73
40 18
41 69
42 31
43 99
44 46
45 92
46 66
47 4
48 27
49 99
50 27
51 3
52 14
53 7
54 16
55 15
56 61
57 39
58 26
59 97
60 3
61 71
62 80
63 10
64 64
65 14
66 4
67 8
68 88
69 11
70 21
71 51
72 3
73 68
74 74
75 44
76 95
77 3
78 67
79 4
80 23
81 19
82 39
83 45
84 49
85 15
86 58
87 96
88 95
89 2
90 41
91 37
92 29
93 62
94 1
95 62
96 68
97 23
98 12
99 74
COVERAGE_SECTION
2 9 225 165 17 75 138 50 98 72 133 
3 7 259 82 293 290 322 292 362 
4 9 92 201 181 236 54 45 153 170 196 
5 9 171 64 50 138 149 118 234 223 129 
6 9 16 192 219 57 102 142 253 40 173 
7 9 227 25 91 134 62 229 214 187 228 
8 9 39 270 243 22 344 268 343 232 336 
9 9 180 126 53 93 208 258 100 112 128 
10 9 327 200 271 117 174 292 185 237 282 
11 7 242 281 272 285 364 77 241 
12 9 68 258 48 93 53 297 126 359 112 
13 3 205 194 252 
14 9 301 314 303 87 335 332 340 244 122 
15 9 283 155 348 167 56 284 308 310 163 
16 9 253 40 6 137 32 152 231 162 102 
17 9 75 72 2 228 133 225 179 138 50 
18 9 353 34 328 76 323 217 333 358 123 
19 9 106 295 83 168 273 354 299 235 249 
20 9 182 108 94 175 107 133 130 179 114 
21 9 160 135 31 51 190 204 22 39 120 
22 9 39 270 8 190 232 21 209 210 343 
23 7 84 276 338 257 315 238 339 
24 9 164 119 115 136 120 206 190 44 160 
25 9 7 227 187 229 214 91 134 199 162 
26 9 80 141 216 177 109 60 224 144 65 
27 7 363 246 250 311 351 291 286 
28 8 304 330 89 113 278 319 245 198 
29 9 189 41 320 45 335 340 156 148 332 
30 9 49 140 70 161 74 198 89 222 121 
31 9 160 51 135 21 183 204 190 136 188 
32 9 152 40 231 288 253 137 16 99 69 
33 5 275 294 355 337 289 
34 9 323 76 353 18 123 217 328 333 358 
35 9 36 326 131 356 47 317 318 43 247 
36 9 131 47 356 318 35 326 274 311 43 
37 7 331 247 267 307 277 264 197 
38 9 220 66 111 150 132 69 99 288 185 
39 9 22 270 8 232 343 243 210 190 209 
40 9 253 32 16 137 152 231 288 162 102 
41 9 29 189 320 45 335 340 156 263 148 
42 8 269 345 233 248 230 352 336 324 
43 9 351 317 356 27 35 363 47 36 191 
44 9 218 119 206 24 115 164 120 190 136 
45 9 320 41 189 29 263 181 4 156 236 
46 9 158 65 116 109 224 60 348 141 154 
47 9 318 36 356 131 311 256 274 35 326 
48 9 359 112 172 258 12 125 240 186 124 
49 9 140 30 161 70 198 74 89 121 222 
50 9 138 5 64 171 2 118 17 72 149 
51 9 31 135 160 21 183 204 63 136 188 
52 9 86 95 101 168 302 262 235 249 306 
53 9 126 93 180 9 208 297 258 128 68 
54 9 236 201 181 92 99 4 153 148 45 
55 7 334 291 341 261 71 325 287 
56 8 155 283 15 255 310 163 312 167 
57 9 129 223 213 149 6 64 61 91 134 
58 9 103 196 157 96 170 147 188 128 100 
59 9 207 173 211 153 85 251 142 102 178 
60 9 109 65 141 46 158 224 116 239 216 
61 9 221 213 234 223 127 143 81 149 154 
62 9 179 133 214 227 72 7 107 228 17 
63 9 170 204 263 135 51 196 103 45 31 
64 9 5 138 50 149 171 228 129 223 72 
65 9 60 109 46 116 158 141 224 203 266 
66 9 220 38 342 69 150 217 185 323 174 
67 9 308 284 167 203 329 215 266 348 116 
68 9 12 297 208 93 53 258 126 180 9 
69 8 288 220 145 360 66 231 38 309 
70 9 30 49 74 140 161 198 121 114 89 
71 8 341 287 282 55 334 237 291 325 
72 9 228 17 75 138 2 50 179 133 64 
73 9 81 221 61 178 213 163 219 192 143 
74 9 114 70 49 30 121 161 140 175 214 
75 9 17 133 2 179 225 72 165 108 94 
76 9 34 123 353 333 18 323 146 358 300 
77 9 242 11 285 281 272 105 316 191 364 
78 9 202 349 97 193 159 313 139 239 195 
79 9 306 254 249 298 302 262 166 241 272 
80 9 26 177 141 98 165 224 118 109 225 
81 9 73 221 61 213 163 143 127 178 219 
82 5 259 3 293 290 322 
83 9 354 19 106 295 235 273 168 95 299 
84 8 23 338 276 257 339 315 238 350 
85 9 211 251 178 59 207 157 173 153 147 
86 9 95 52 168 235 101 302 262 19 249 
87 9 332 314 303 14 301 244 296 335 340 
88 9 124 365 240 125 280 279 312 321 186 
89 9 113 28 330 346 260 319 104 222 278 
90 9 350 280 186 276 338 23 84 88 240 
91 9 134 227 7 229 25 162 228 57 199 
92 9 4 201 236 181 54 153 45 59 41 
93 9 53 126 180 9 208 258 297 68 128 
94 9 108 20 182 107 130 133 175 179 75 
95 9 86 52 168 235 101 302 19 83 106 
96 9 188 128 183 208 297 58 136 53 9 
97 9 202 193 78 349 239 144 159 139 313 
98 9 165 225 177 2 130 75 80 17 50 
99 9 54 152 32 38 236 201 181 288 148 
100 9 147 9 180 126 53 93 112 157 58 
101 9 52 302 262 86 95 168 166 306 249 
102 9 142 173 207 192 59 153 219 152 6 
103 9 196 58 170 157 96 63 188 128 147 
104 8 346 260 319 113 330 278 89 222 
105 8 191 316 285 281 242 11 351 77 
106 9 19 295 273 83 299 354 168 169 249 
107 9 108 175 179 133 182 20 94 114 75 
108 9 94 20 182 107 133 175 179 130 75 
109 9 60 141 65 224 158 46 116 26 154 
110 5 156 296 244 332 87 
111 9 132 150 185 117 38 271 148 292 362 
112 9 172 258 359 48 180 9 126 93 53 
113 8 89 330 319 104 346 260 278 28 
114 9 175 107 182 20 214 74 121 108 179 
115 9 206 120 164 190 24 209 212 232 44 
116 9 203 266 65 46 67 305 60 215 308 
117 9 185 150 271 10 174 327 200 111 292 
118 9 171 5 234 50 154 138 149 127 64 
119 9 24 164 44 136 115 68 206 297 218 
120 9 190 115 206 232 209 22 21 212 160 
121 9 214 176 161 114 198 74 25 187 62 
122 7 362 14 301 290 322 292 303 
123 8 76 347 300 34 309 323 333 353 
124 9 88 365 240 125 280 279 321 186 312 
125 9 240 124 88 186 365 359 172 280 48 
126 9 53 93 180 9 208 258 297 128 112 
127 9 154 143 234 61 221 158 118 171 224 
128 9 96 188 208 297 53 126 9 93 183 
129 9 57 223 149 213 64 61 5 234 171 
130 9 94 108 20 98 182 165 75 225 133 
131 9 36 326 274 47 318 35 356 328 256 
132 9 111 150 148 271 185 117 38 122 340 
133 9 179 75 107 108 17 94 62 72 182 
134 9 91 7 227 229 162 25 199 57 6 
135 9 51 31 21 160 204 183 63 190 22 
136 9 183 188 31 164 96 128 51 160 24 
137 9 231 253 40 288 32 162 16 199 145 
138 9 50 5 64 2 171 72 17 228 118 
139 8 195 159 313 305 239 349 78 202 
140 9 49 30 161 198 89 70 74 222 113 
141 9 109 60 224 65 158 46 26 80 116 
142 9 102 173 207 192 59 219 153 6 211 
143 9 127 154 221 61 234 158 81 163 46 
144 9 216 193 239 202 349 97 78 195 60 
145 6 231 69 360 288 137 199 
146 6 333 358 76 300 197 123 
147 9 157 100 58 85 251 211 103 196 178 
148 9 340 335 29 41 132 189 14 314 111 
149 9 223 5 64 234 171 129 213 61 50 
150 9 185 117 111 271 174 132 10 66 342 
151 8 286 325 291 334 256 237 55 282 
152 9 32 40 253 99 16 102 231 288 137 
153 9 59 207 173 201 92 102 142 54 4 
154 9 127 143 234 158 224 118 171 61 46 
155 9 283 56 15 163 348 310 167 255 284 
156 7 110 296 244 332 320 87 189 
157 9 147 58 196 103 85 211 251 100 178 
158 9 46 224 65 109 154 141 60 116 127 
159 7 313 139 195 78 349 305 202 
160 9 31 21 51 135 190 183 204 136 120 
161 9 198 140 49 30 121 176 89 28 74 
162 9 199 229 137 134 253 16 231 187 91 
163 9 283 155 56 15 81 348 221 73 143 
164 9 24 136 115 120 119 190 160 206 31 
165 9 225 98 2 75 177 17 130 50 138 
166 9 226 262 302 79 254 306 249 101 77 
167 8 284 308 329 67 15 348 215 310 
168 9 95 86 19 106 235 52 249 83 306 
169 7 357 299 273 295 287 71 341 
170 9 63 196 103 58 204 51 4 135 263 
171 9 118 5 149 234 50 64 138 154 223 
172 9 112 359 258 48 125 240 124 88 365 
173 9 207 142 102 59 153 192 219 211 85 
174 8 200 342 117 185 10 327 237 150 
175 9 107 182 20 114 108 94 179 133 62 
176 9 245 187 198 121 304 28 161 25 214 
177 9 80 98 165 225 2 26 118 50 138 
178 9 251 211 85 59 219 73 207 192 173 
179 9 133 107 75 62 108 17 94 72 175 
180 9 9 126 53 93 258 208 112 297 100 
181 9 236 54 201 92 4 45 41 29 189 
182 9 20 108 94 175 107 133 179 130 114 
183 9 188 136 51 96 31 128 160 135 21 
184 2 337 33 
185 9 150 117 174 271 10 111 342 327 200 
186 9 125 90 240 88 124 280 350 365 359 
187 7 25 229 199 176 162 245 7 
188 9 96 128 183 136 208 297 51 58 103 
189 9 29 41 320 45 335 340 156 332 110 
190 9 120 21 160 22 31 39 232 115 135 
191 8 105 316 285 351 281 242 250 11 
192 9 219 142 6 102 173 207 178 59 73 
193 9 202 349 97 239 78 144 195 139 159 
194 3 205 252 13 
195 9 139 159 239 305 313 349 202 78 193 
196 9 103 58 170 157 63 4 96 147 188 
197 7 358 333 146 353 247 76 307 
198 9 161 28 176 89 304 140 49 113 245 
199 9 162 229 137 187 145 25 231 134 253 
200 9 327 237 10 174 282 117 151 325 71 
201 9 54 236 92 181 4 153 99 45 59 
202 9 349 193 78 97 239 139 159 195 144 
203 8 266 67 215 116 305 308 329 284 
204 8 135 63 51 21 31 160 263 170 
205 3 194 13 252 
206 9 115 120 212 209 164 24 190 232 44 
207 9 173 59 142 102 153 211 85 192 219 
208 9 297 53 93 126 128 180 9 68 96 
209 9 212 232 8 39 22 120 344 190 243 
210 6 343 270 39 8 22 204 
211 9 85 251 178 59 207 173 157 153 142 
212 9 209 232 344 8 120 39 22 190 268 
213 9 223 61 129 149 221 57 234 81 73 
214 9 121 62 25 7 227 114 176 179 187 
215 6 203 266 67 329 308 284 
216 9 144 26 239 60 193 141 109 349 202 
217 9 323 34 18 328 353 76 123 274 309 
218 9 44 119 206 115 24 164 120 212 190 
219 9 192 142 173 6 102 207 178 73 59 
220 9 66 69 38 217 360 323 342 150 288 
221 9 81 61 73 143 213 127 234 163 223 
222 8 260 346 113 104 89 319 330 278 
223 9 149 213 129 61 57 234 64 5 171 
224 9 158 141 109 46 154 65 60 127 118 
225 9 165 2 98 75 17 138 50 177 72 
226 9 166 262 302 77 79 254 306 101 249 
227 9 7 91 25 134 62 229 214 228 187 
228 9 72 17 64 138 50 62 75 5 2 
229 9 199 162 25 187 134 7 227 91 137 
230 8 269 42 324 345 233 248 336 352 
231 9 137 288 32 40 253 145 69 152 16 
232 9 209 212 22 39 8 120 190 344 243 
233 7 336 42 269 248 345 352 324 
234 9 127 154 149 171 61 223 118 143 213 
235 9 95 86 168 83 52 19 106 354 295 
236 9 181 54 201 92 4 45 153 99 41 
237 9 282 200 325 71 151 327 55 286 334 
238 4 315 257 276 23 
239 9 349 193 195 202 139 144 78 159 97 
240 9 125 124 88 365 186 359 172 280 90 
241 4 364 272 298 11 
242 7 11 281 285 272 77 364 316 
243 7 268 336 344 8 233 324 269 
244 7 296 332 87 303 110 314 301 
245 3 304 28 176 
246 6 363 27 250 291 261 311 
247 8 37 331 267 307 197 277 264 326 
248 5 352 345 42 233 269 
249 9 306 79 254 298 302 168 262 19 106 
250 4 246 363 27 261 
251 9 211 85 178 59 207 173 157 219 142 
252 4 194 205 13 265 
253 9 40 16 137 231 32 152 162 288 6 
254 8 79 306 249 298 241 272 302 262 
255 6 312 279 310 321 56 365 
256 8 286 311 151 318 47 325 274 342 
257 5 315 238 23 276 84 
258 9 112 93 126 180 53 9 12 172 48 
259 5 3 82 293 290 322 
260 8 346 104 222 113 89 319 330 278 
261 4 55 291 334 341 
262 9 302 101 166 306 79 249 52 254 226 
263 8 45 320 41 189 156 63 29 204 
264 5 277 307 267 37 331 
265 4 361 337 184 33 
266 8 203 215 67 305 116 308 329 284 
267 7 331 37 247 307 277 264 197 
268 8 344 243 324 336 233 269 42 230 
269 8 42 230 233 345 324 336 248 352 
270 6 39 8 22 343 210 243 
271 9 292 10 117 362 327 322 185 150 111 
272 6 11 242 364 241 281 254 
273 8 295 299 106 169 354 19 357 83 
274 9 131 328 326 36 318 47 18 256 217 
275 4 355 294 33 289 
276 8 23 257 315 84 238 338 350 280 
277 6 307 264 267 37 331 247 
278 5 330 319 104 113 28 
279 9 321 255 365 124 88 312 56 240 172 
280 8 90 276 350 88 312 124 365 238 
281 6 11 242 285 272 364 316 
282 9 237 71 325 341 200 55 287 334 151 
283 9 155 163 15 56 348 167 284 310 143 
284 7 167 308 329 67 15 348 215 
285 8 281 242 316 105 11 191 77 272 
286 8 151 325 291 334 256 55 311 237 
287 6 341 71 357 55 169 282 
288 9 231 69 32 137 145 40 253 152 38 
289 4 294 275 355 33 
290 6 322 362 3 259 292 122 
291 8 334 55 261 325 286 341 151 71 
292 8 362 322 271 290 10 122 327 3 
293 4 82 259 3 290 
294 4 289 275 355 33 
295 8 273 106 19 354 299 169 83 357 
296 6 244 110 332 87 156 303 
297 9 208 53 68 93 126 128 180 9 96 
298 5 241 254 249 79 306 
299 7 357 273 169 295 106 19 298 
300 6 347 123 146 309 76 333 
301 8 14 303 314 87 332 335 244 340 
302 9 262 101 306 79 249 52 166 254 86 
303 7 301 87 14 314 332 244 296 
304 5 28 245 330 278 198 
305 7 266 203 195 215 139 116 67 
306 9 249 79 254 302 298 262 168 166 241 
307 7 277 264 267 37 331 247 197 
308 8 284 67 167 329 215 203 266 348 
309 7 347 360 123 300 76 323 34 
310 3 312 255 56 
311 8 318 27 47 256 286 363 246 356 
312 5 255 310 280 365 88 
313 6 159 139 195 78 349 305 
314 9 14 87 301 303 332 335 340 244 296 
315 5 257 238 276 23 84 
316 8 191 105 285 281 242 250 11 351 
317 9 43 35 351 356 36 47 318 131 326 
318 9 47 36 356 311 131 256 274 27 35 
319 6 330 278 104 113 346 89 
320 7 41 189 45 29 263 156 110 
321 9 279 255 365 124 88 312 56 172 240 
322 8 362 292 290 3 271 122 259 82 
323 9 34 217 18 76 353 123 328 309 347 
324 9 269 336 230 42 268 233 345 344 243 
325 8 151 286 334 291 55 237 282 71 
326 9 131 36 35 274 328 47 247 318 356 
327 9 10 200 237 271 117 174 282 292 185 
328 9 18 353 274 217 34 323 76 326 131 
329 5 308 284 167 67 215 
330 6 319 278 113 104 28 89 
331 7 37 267 247 307 277 264 197 
332 9 87 244 314 296 303 14 301 335 110 
333 7 146 358 76 197 353 123 300 
334 8 291 55 325 261 341 286 71 151 
335 9 340 314 14 87 301 332 303 148 29 
336 8 233 269 324 42 268 243 248 230 
337 5 361 265 33 184 294 
338 9 84 23 276 350 257 315 339 238 90 
339 3 84 23 338 
340 9 335 314 14 148 301 87 332 303 29 
341 7 71 287 55 334 261 291 282 
342 8 174 185 256 66 117 150 151 200 
343 3 210 270 8 
344 9 268 243 324 336 8 233 269 42 230 
345 6 42 248 269 352 230 233 
346 8 260 104 222 113 89 319 330 278 
347 8 309 123 300 360 76 34 323 146 
348 9 15 167 284 283 308 67 155 329 46 
349 9 202 193 78 239 97 139 195 159 313 
350 9 90 338 276 280 84 23 186 257 315 
351 9 43 191 363 316 27 105 317 356 246 
352 4 248 345 42 233 
353 9 18 34 76 323 333 328 358 123 146 
354 9 83 295 273 106 19 299 169 235 168 
355 3 275 294 33 
356 9 47 36 318 43 35 311 131 27 351 
357 7 169 299 287 273 341 71 295 
358 7 333 197 146 76 353 18 34 
359 9 48 172 112 125 240 258 124 186 12 
360 7 309 347 123 300 145 323 69 
361 5 337 265 33 294 289 
362 7 292 322 290 122 271 3 10 
363 5 27 246 250 311 351 
364 4 241 272 11 281 
365 9 88 124 240 125 279 321 312 280 255 
DEPOT_SECTION
   1
   -1
EOF
