NAME :  X-n439-kX-w43-c7.cctp
COMMENT : 	Adapted by Maziero, Usberti and Cavellucci from the Uchoa, Pecin, Pessoa, Poggi, Subramanian, and Vidal (2013)
TYPE :  CCTP
DIMENSION :    225
EDGE_WEIGHT_TYPE : 	EUC_2D	
CAPACITY : 	12
VERTICES_WITHIN_COVERAGE :  7
VERTICES_WITH_DEMAND : 	43
NODE_COORD_SECTION
1 500 500
2 769 259
3 91 377
4 108 338
5 816 567
6 698 341
7 741 237
8 601 140
9 63 359
10 215 608
11 979 914
12 911 697
13 440 593
14 922 765
15 185 756
16 486 158
17 993 628
18 241 33
19 200 756
20 856 440
21 471 712
22 929 649
23 811 44
24 125 727
25 830 484
26 568 366
27 261 394
28 478 965
29 726 474
30 68 952
31 747 716
32 678 366
33 17 603
34 169 689
35 916 565
36 564 913
37 268 681
38 937 878
39 370 634
40 555 847
41 246 911
42 267 333
43 166 257
44 147 179
45 312 911
46 457 582
47 334 882
48 269 710
49 513 910
50 503 682
51 451 911
52 171 656
53 843 44
54 94 165
55 726 411
56 981 775
57 844 973
58 986 589
59 414 719
60 407 720
61 82 782
62 255 312
63 151 291
64 831 520
65 970 760
66 912 77
67 150 909
68 655 287
69 708 178
70 503 504
71 14 634
72 825 599
73 433 646
74 88 970
75 704 58
76 258 52
77 570 72
78 252 338
79 141 741
80 353 966
81 501 929
82 128 931
83 953 786
84 157 419
85 454 640
86 888 420
87 453 708
88 995 666
89 970 790
90 604 21
91 128 917
92 846 937
93 139 930
94 479 760
95 69 875
96 698 197
97 726 250
98 782 561
99 43 320
100 757 331
101 898 518
102 529 957
103 60 701
104 567 295
105 535 391
106 30 683
107 447 677
108 500 86
109 555 154
110 275 341
111 299 644
112 890 504
113 42 970
114 496 177
115 770 402
116 504 867
117 339 760
118 99 352
119 875 761
120 667 49
121 728 515
122 676 316
123 961 518
124 484 538
125 862 621
126 77 733
127 476 800
128 37 871
129 312 676
130 605 144
131 214 887
132 253 819
133 628 365
134 128 138
135 705 400
136 571 979
137 931 739
138 764 26
139 162 169
140 338 947
141 480 60
142 292 467
143 136 228
144 196 682
145 950 598
146 244 524
147 583 858
148 254 471
149 159 246
150 281 865
151 842 436
152 222 615
153 141 757
154 730 710
155 242 378
156 175 791
157 194 777
158 259 336
159 405 778
160 176 687
161 164 230
162 475 364
163 159 665
164 784 688
165 273 68
166 115 719
167 201 591
168 126 178
169 170 673
170 964 859
171 645 937
172 88 608
173 469 662
174 194 760
175 307 322
176 44 357
177 457 666
178 224 678
179 119 717
180 611 940
181 865 435
182 865 403
183 640 408
184 574 311
185 205 298
186 899 450
187 623 138
188 155 167
189 164 337
190 943 753
191 206 641
192 196 585
193 189 611
194 818 409
195 95 550
196 727 707
197 190 624
198 161 32
199 739 302
200 68 320
201 193 734
202 605 969
203 130 185
204 978 671
205 952 836
206 196 8
207 883 786
208 243 672
209 668 495
210 215 0
211 282 320
212 185 62
213 133 311
214 239 64
215 378 491
216 252 657
217 182 66
218 748 760
219 729 319
220 285 650
221 331 10
222 199 630
223 781 445
224 56 412
225 197 739
DEMAND_SECTION
2 1
3 1
4 1
5 1
6 1
7 1
8 1
9 1
10 1
11 1
12 1
13 1
14 1
15 1
16 1
17 1
18 1
19 1
20 1
21 1
22 1
23 1
24 1
25 1
26 1
27 1
28 1
29 1
30 1
31 1
32 1
33 1
34 1
35 1
36 1
37 1
38 1
39 1
40 1
41 1
42 1
43 1
44 1
COVERAGE_SECTION
2 6 7 97 199 219 100 96 
3 7 118 9 4 224 176 200 99 
4 7 118 213 3 200 9 189 63 
5 5 72 98 64 125 25 
6 7 32 122 219 199 135 100 68 
7 7 97 2 96 199 69 219 100 
8 6 130 187 109 77 114 120 
9 7 176 3 118 200 99 4 224 
10 7 152 167 193 222 192 197 191 
11 7 38 170 205 89 83 92 56 
12 6 137 22 190 14 204 119 
13 7 46 85 73 124 173 177 39 
14 7 190 137 83 207 119 65 89 
15 7 174 19 225 157 201 156 153 
16 3 114 109 108 
17 7 88 58 204 145 22 35 12 
18 7 76 214 210 165 206 212 217 
19 7 174 15 225 157 201 156 153 
20 7 181 151 86 182 186 194 25 
21 7 87 107 50 177 94 173 59 
22 7 12 204 145 17 88 125 58 
23 5 53 138 66 75 120 
24 7 179 166 79 153 126 34 160 
25 7 64 151 20 181 112 223 101 
26 6 105 184 133 104 183 162 
27 7 155 110 78 158 42 148 211 
28 7 81 102 51 49 136 36 116 
29 7 121 209 223 55 135 115 98 
30 7 74 113 82 91 93 95 128 
31 4 154 196 218 164 
32 7 6 135 122 133 183 55 219 
33 5 71 172 106 195 103 
34 6 160 169 163 144 52 201 
35 7 145 101 123 112 58 125 22 
36 7 49 180 102 147 81 136 40 
37 7 208 48 216 220 129 178 111 
38 7 170 205 11 83 89 207 92 
39 7 73 111 129 13 85 220 107 
40 4 147 116 36 49 
41 7 131 150 45 132 47 67 140 
42 6 158 110 78 211 62 175 
43 5 149 161 63 143 185 
44 7 188 139 203 168 134 143 161 
45 6 47 140 150 41 80 131 
46 7 13 124 85 73 173 177 70 
47 6 45 150 140 80 41 132 
48 6 37 208 129 178 216 220 
49 7 81 116 102 36 51 28 40 
50 6 173 21 177 87 107 85 
51 6 81 28 49 116 102 80 
52 6 163 169 160 34 144 197 
53 4 23 66 138 75 
54 6 168 203 134 44 188 139 
55 7 135 115 29 223 32 6 100 
56 7 65 89 83 190 14 137 205 
57 2 92 38 
58 7 145 17 35 123 88 204 22 
59 7 60 87 107 21 159 177 73 
60 7 59 87 159 107 21 177 73 
61 5 126 153 24 166 79 
62 5 42 158 78 211 110 
63 7 213 43 149 189 185 161 4 
64 7 25 5 112 98 101 72 20 
65 7 56 190 89 83 137 14 205 
66 2 53 23 
67 7 91 93 82 131 74 95 30 
68 4 122 6 97 219 
69 5 96 7 97 187 2 
70 4 124 46 13 105 
71 5 33 106 172 103 126 
72 3 5 125 98 
73 7 85 177 107 173 13 39 87 
74 7 30 113 82 93 91 67 95 
75 7 120 138 90 23 187 69 130 
76 4 165 214 18 210 
77 7 90 108 8 130 109 187 141 
78 6 158 42 110 62 211 155 
79 7 153 24 179 166 15 201 174 
80 6 140 45 47 51 41 150 
81 7 49 102 28 51 116 36 136 
82 7 93 91 67 74 30 95 113 
83 7 89 56 65 190 14 205 137 
84 6 3 189 118 155 4 224 
85 7 73 177 173 107 13 46 50 
86 4 181 182 186 20 
87 7 21 107 59 177 60 173 50 
88 7 204 17 22 58 145 12 65 
89 7 83 56 65 190 205 14 137 
90 7 77 120 75 8 187 108 130 
91 7 82 93 67 74 30 95 131 
92 2 57 38 
93 7 82 91 67 74 30 131 95 
94 4 127 21 87 159 
95 7 128 91 30 82 67 93 61 
96 5 69 7 97 2 187 
97 7 7 2 199 96 219 69 68 
98 4 5 72 64 121 
99 4 200 176 9 118 
100 6 219 199 6 115 2 122 
101 6 112 35 123 64 186 25 
102 7 81 136 49 28 36 202 180 
103 5 106 126 166 179 24 
104 3 184 26 68 
105 5 26 162 184 133 104 
106 5 103 71 126 33 166 
107 7 177 173 87 73 85 21 59 
108 6 141 77 16 109 114 8 
109 7 8 130 114 16 187 77 108 
110 6 42 158 211 78 62 175 
111 7 220 129 37 216 208 39 48 
112 5 101 186 64 25 35 
113 7 30 74 82 95 128 91 93 
114 2 16 109 
115 7 223 55 194 135 100 151 29 
116 7 49 40 81 51 127 36 147 
117 7 159 60 59 48 129 132 37 
118 7 4 3 9 200 213 176 99 
119 4 207 14 137 190 
120 7 75 90 187 77 138 8 130 
121 5 29 209 98 223 5 
122 6 6 68 32 219 199 133 
123 5 101 35 112 58 145 
124 5 70 46 13 85 215 
125 5 72 5 22 35 12 
126 5 103 166 179 24 61 
127 5 94 116 159 21 40 
128 7 95 30 113 61 91 82 74 
129 7 111 220 37 48 216 208 39 
130 6 8 187 109 77 96 69 
131 7 41 67 150 132 93 91 82 
132 7 150 157 131 19 156 174 41 
133 7 183 32 26 122 6 184 68 
134 6 168 188 54 44 139 203 
135 7 55 32 6 115 183 29 219 
136 7 202 102 180 36 171 81 49 
137 7 190 14 65 12 83 119 56 
138 7 23 75 53 120 66 90 69 
139 7 188 44 203 168 134 161 143 
140 6 80 45 47 41 150 51 
141 5 108 77 16 114 109 
142 5 148 146 27 215 155 
143 7 161 149 43 203 44 168 139 
144 5 160 34 169 178 52 
145 7 58 35 17 22 204 123 88 
146 6 148 142 192 167 10 152 
147 2 40 36 
148 5 142 146 27 155 84 
149 5 43 161 143 63 44 
150 6 132 45 47 41 131 140 
151 6 20 181 194 182 25 86 
152 7 10 222 191 167 193 197 192 
153 7 79 24 15 166 179 156 174 
154 4 196 31 218 164 
155 7 27 78 158 110 42 62 211 
156 7 157 15 174 19 153 225 79 
157 7 174 19 15 156 225 201 153 
158 7 78 42 110 62 211 155 175 
159 7 60 59 117 127 94 87 21 
160 5 34 169 144 163 52 
161 5 149 43 143 44 203 
162 2 105 26 
163 6 169 52 34 160 144 197 
164 1 31 
165 3 76 214 18 
166 7 179 24 79 126 153 103 34 
167 7 192 10 193 152 197 222 191 
168 7 203 44 188 54 139 134 143 
169 6 163 160 34 52 144 191 
170 7 205 38 11 89 83 56 65 
171 3 180 202 36 
172 4 195 33 71 163 
173 7 177 85 107 50 73 87 21 
174 7 19 15 157 225 201 156 153 
175 3 211 110 42 
176 7 9 99 200 3 118 224 4 
177 7 173 107 85 73 87 21 50 
178 5 208 144 216 191 37 
179 7 166 24 79 126 153 34 103 
180 4 202 171 36 136 
181 5 20 151 86 182 186 
182 4 86 181 20 151 
183 7 133 32 135 26 55 6 209 
184 3 104 26 133 
185 4 62 63 43 189 
186 3 86 181 20 
187 6 130 8 109 77 69 96 
188 7 139 44 168 203 134 54 143 
189 7 213 63 4 185 118 43 84 
190 7 137 14 65 83 56 89 12 
191 5 222 197 152 10 193 
192 7 167 193 10 197 152 222 191 
193 7 197 222 167 10 192 152 191 
194 6 151 182 20 115 223 181 
195 4 172 33 192 193 
196 4 154 31 218 164 
197 6 222 193 191 10 152 167 
198 5 212 217 206 210 18 
199 7 219 100 2 97 6 7 122 
200 6 99 9 4 176 118 3 
201 7 225 15 19 174 157 160 34 
202 5 180 136 171 36 102 
203 7 168 44 188 139 54 143 134 
204 7 88 17 22 12 145 58 137 
205 7 170 38 89 83 56 14 65 
206 7 210 198 18 212 217 214 76 
207 6 119 14 137 190 83 205 
208 6 216 178 37 48 220 144 
209 5 29 121 183 55 135 
210 7 206 18 198 76 214 212 217 
211 6 42 110 175 62 158 78 
212 5 217 198 214 206 18 
213 7 63 4 189 118 43 200 149 
214 5 76 18 165 212 217 
215 4 142 124 13 46 
216 6 208 37 220 178 111 191 
217 5 212 198 214 206 18 
218 2 31 154 
219 7 199 100 6 122 32 97 2 
220 7 111 216 37 129 208 48 178 
221 4 165 76 18 214 
222 6 197 191 193 10 152 52 
223 7 115 194 29 151 25 55 20 
224 7 3 9 176 118 4 99 200 
225 7 201 19 15 174 157 79 156 
DEPOT_SECTION
   1
   -1
EOF
