NAME :  X-n459-kX-w183-c11.cctp
COMMENT : 	Adapted by Maziero, Usberti and Cavellucci from the Uchoa, Pecin, Pessoa, Poggi, Subramanian, and Vidal (2013)
TYPE :  CCTP
DIMENSION :    459
EDGE_WEIGHT_TYPE : 	EUC_2D	
CAPACITY : 	1106
VERTICES_WITHIN_COVERAGE :  11
VERTICES_WITH_DEMAND : 	183
NODE_COORD_SECTION
1 500 500
2 832 885
3 777 632
4 406 257
5 620 467
6 343 166
7 355 345
8 393 299
9 631 767
10 384 340
11 643 630
12 786 593
13 789 727
14 443 205
15 679 408
16 845 535
17 732 820
18 890 861
19 645 689
20 800 517
21 951 643
22 828 746
23 862 625
24 606 432
25 672 984
26 580 338
27 629 494
28 809 663
29 738 595
30 604 320
31 645 532
32 688 728
33 390 680
34 842 517
35 525 404
36 697 719
37 837 853
38 741 585
39 628 506
40 354 280
41 726 834
42 721 635
43 448 363
44 963 702
45 570 484
46 389 281
47 708 380
48 522 439
49 771 523
50 778 645
51 402 318
52 817 717
53 730 655
54 814 925
55 743 362
56 568 298
57 555 132
58 937 637
59 542 678
60 822 854
61 711 697
62 603 310
63 864 674
64 850 879
65 280 198
66 502 417
67 764 610
68 729 822
69 307 258
70 896 958
71 774 732
72 684 446
73 691 793
74 905 888
75 664 411
76 875 981
77 477 226
78 607 624
79 823 875
80 558 543
81 410 237
82 712 692
83 804 678
84 491 317
85 475 280
86 881 872
87 371 269
88 520 562
89 590 431
90 420 245
91 811 647
92 501 507
93 684 647
94 739 969
95 854 717
96 844 268
97 520 823
98 866 966
99 720 645
100 564 493
101 653 541
102 831 758
103 694 804
104 661 469
105 417 251
106 683 364
107 648 479
108 255 225
109 836 934
110 811 960
111 888 492
112 111 261
113 866 827
114 822 876
115 672 419
116 750 974
117 545 420
118 140 267
119 925 749
120 505 282
121 701 477
122 427 272
123 293 242
124 757 929
125 856 861
126 848 809
127 331 214
128 682 480
129 804 638
130 349 234
131 426 194
132 499 348
133 692 700
134 331 318
135 738 644
136 967 900
137 604 563
138 701 540
139 523 429
140 834 880
141 714 644
142 369 222
143 720 566
144 606 512
145 840 926
146 786 354
147 667 709
148 670 508
149 456 202
150 827 687
151 871 800
152 556 837
153 810 589
154 537 360
155 456 275
156 688 214
157 346 163
158 880 569
159 360 215
160 849 686
161 617 420
162 308 466
163 734 534
164 880 638
165 751 763
166 616 485
167 719 744
168 371 346
169 379 420
170 565 524
171 377 138
172 864 721
173 823 535
174 367 218
175 614 761
176 659 383
177 867 910
178 717 895
179 865 793
180 588 663
181 595 488
182 408 268
183 713 863
184 652 409
185 920 394
186 819 367
187 653 425
188 618 425
189 657 290
190 709 839
191 739 541
192 909 732
193 373 218
194 375 283
195 278 391
196 843 873
197 443 229
198 756 702
199 365 293
200 821 637
201 477 191
202 401 102
203 359 290
204 791 751
205 938 787
206 709 469
207 329 178
208 559 543
209 916 882
210 758 635
211 855 710
212 797 783
213 428 238
214 802 823
215 730 542
216 797 464
217 217 29
218 939 745
219 911 889
220 829 679
221 678 523
222 709 224
223 550 429
224 821 933
225 798 482
226 686 615
227 735 658
228 728 531
229 736 452
230 721 459
231 818 377
232 421 479
233 768 524
234 498 441
235 601 454
236 851 574
237 662 511
238 526 279
239 447 601
240 889 610
241 891 930
242 483 278
243 728 845
244 451 299
245 308 215
246 643 486
247 758 963
248 439 458
249 830 608
250 387 233
251 837 948
252 561 410
253 721 439
254 778 640
255 826 627
256 644 724
257 515 465
258 728 651
259 666 474
260 759 94
261 525 419
262 927 692
263 597 228
264 448 218
265 575 349
266 921 883
267 406 172
268 840 847
269 787 660
270 301 545
271 668 880
272 594 416
273 791 861
274 740 581
275 438 272
276 500 259
277 600 464
278 965 412
279 614 568
280 829 644
281 556 518
282 660 676
283 525 793
284 623 482
285 369 195
286 805 668
287 820 936
288 879 886
289 713 679
290 728 597
291 833 719
292 720 473
293 744 569
294 739 539
295 644 446
296 896 850
297 393 284
298 708 586
299 694 612
300 446 162
301 383 213
302 738 669
303 726 702
304 749 641
305 499 397
306 335 416
307 828 951
308 634 368
309 720 559
310 428 272
311 664 226
312 772 626
313 602 466
314 592 394
315 627 408
316 754 637
317 643 572
318 699 167
319 880 867
320 493 305
321 698 630
322 819 640
323 819 577
324 860 866
325 303 326
326 523 470
327 780 647
328 630 579
329 893 578
330 545 465
331 782 723
332 639 609
333 313 267
334 810 893
335 407 307
336 808 666
337 621 427
338 841 943
339 761 602
340 513 340
341 335 150
342 807 564
343 715 936
344 818 834
345 881 870
346 300 679
347 628 402
348 697 551
349 342 373
350 819 859
351 830 955
352 651 493
353 378 248
354 675 424
355 700 76
356 398 303
357 890 373
358 799 623
359 812 806
360 770 860
361 776 711
362 661 839
363 829 895
364 392 227
365 891 565
366 569 489
367 824 716
368 827 436
369 380 217
370 527 376
371 838 855
372 537 432
373 468 195
374 714 807
375 553 104
376 448 331
377 846 863
378 815 689
379 639 332
380 748 365
381 577 442
382 572 461
383 431 304
384 731 688
385 415 256
386 933 687
387 461 392
388 827 906
389 786 737
390 825 375
391 583 513
392 793 632
393 540 374
394 604 445
395 303 293
396 802 534
397 443 308
398 298 118
399 500 353
400 818 892
401 487 444
402 744 657
403 701 547
404 297 237
405 660 436
406 580 450
407 591 411
408 877 905
409 377 314
410 868 819
411 750 857
412 643 336
413 770 609
414 873 547
415 746 949
416 771 418
417 736 788
418 676 521
419 934 919
420 673 493
421 817 914
422 493 28
423 322 227
424 746 617
425 754 950
426 523 296
427 675 488
428 860 848
429 466 251
430 772 307
431 396 235
432 796 976
433 792 646
434 417 267
435 871 536
436 285 205
437 474 257
438 854 648
439 602 262
440 950 821
441 698 633
442 760 957
443 418 292
444 690 602
445 669 683
446 565 562
447 832 811
448 797 722
449 594 646
450 597 358
451 944 834
452 776 610
453 719 441
454 832 908
455 702 378
456 604 494
457 757 832
458 647 400
459 601 706
DEMAND_SECTION
2 71
3 54
4 74
5 9
6 91
7 98
8 72
9 67
10 70
11 68
12 92
13 93
14 97
15 23
16 75
17 61
18 91
19 61
20 89
21 70
22 63
23 93
24 18
25 65
26 33
27 11
28 80
29 88
30 7
31 71
32 68
33 38
34 79
35 28
36 63
37 99
38 99
39 94
40 69
41 78
42 76
43 90
44 57
45 29
46 82
47 42
48 18
49 58
50 89
51 85
52 66
53 57
54 75
55 1
56 49
57 8
58 51
59 67
60 58
61 66
62 13
63 69
64 85
65 53
66 30
67 67
68 79
69 79
70 90
71 81
72 33
73 80
74 78
75 6
76 93
77 60
78 60
79 83
80 97
81 76
82 60
83 94
84 59
85 72
86 58
87 59
88 97
89 11
90 70
91 90
92 54
93 73
94 61
95 52
96 46
97 77
98 60
99 100
100 10
101 100
102 76
103 67
104 45
105 84
106 14
107 49
108 61
109 97
110 55
111 9
112 52
113 99
114 83
115 26
116 85
117 43
118 74
119 98
120 28
121 5
122 66
123 71
124 58
125 90
126 75
127 59
128 3
129 95
130 62
131 54
132 78
133 93
134 54
135 57
136 100
137 89
138 72
139 19
140 55
141 81
142 86
143 64
144 87
145 97
146 7
147 75
148 76
149 98
150 68
151 67
152 59
153 76
154 27
155 67
156 50
157 72
158 91
159 54
160 54
161 11
162 55
163 62
164 89
165 61
166 19
167 79
168 71
169 56
170 75
171 97
172 51
173 93
174 54
175 93
176 47
177 95
178 67
179 77
180 93
181 26
182 82
183 78
184 17
COVERAGE_SECTION
2 11 140 363 79 114 196 400 64 388 334 454 377 
3 11 254 312 50 327 392 210 433 452 316 358 413 
4 11 385 182 105 434 90 81 431 122 310 46 213 
5 11 284 166 313 277 235 394 27 107 246 456 295 
6 11 157 207 341 285 171 127 159 174 193 245 142 
7 11 168 10 349 134 409 199 51 203 325 8 356 
8 11 356 297 335 46 51 409 194 443 199 182 203 
9 11 175 256 73 147 459 32 103 362 19 36 133 
10 11 168 409 51 7 335 356 8 199 349 203 134 
11 11 332 78 93 226 282 449 328 299 321 441 444 
12 11 452 413 153 339 67 358 312 342 323 3 392 
13 11 331 448 389 71 361 204 52 367 198 22 291 
14 11 149 264 131 197 373 213 201 77 300 81 90 
15 11 115 75 354 184 187 176 458 405 72 455 47 
16 11 34 173 435 414 236 396 20 342 158 323 365 
17 11 68 41 374 243 457 190 417 103 411 183 73 
18 11 319 296 345 86 288 324 74 209 428 125 219 
19 11 282 445 147 256 459 133 93 32 11 36 180 
20 11 396 173 49 233 225 34 16 342 216 323 294 
21 11 58 386 262 44 240 164 329 23 63 438 192 
22 11 102 291 367 52 204 95 448 13 389 172 211 
23 11 164 438 240 249 255 280 200 322 63 236 91 
24 11 394 188 89 161 337 272 235 407 381 315 406 
25 11 343 94 116 415 247 425 442 178 124 271 432 
26 11 265 450 30 62 56 154 393 314 379 308 412 
27 11 39 284 166 246 352 107 456 5 144 181 237 
28 11 336 286 83 91 269 433 129 322 220 378 280 
29 11 38 290 274 424 339 293 67 298 143 413 309 
30 11 62 26 379 450 265 56 412 308 439 189 314 
31 11 101 237 39 418 221 148 352 317 27 144 246 
32 11 36 133 147 167 61 82 256 303 445 289 19 
33 11 346 239 59 270 88 283 97 180 232 92 449 
34 11 16 173 435 20 396 414 111 225 236 342 158 
35 11 261 139 66 117 305 370 372 393 48 223 252 
36 11 32 133 61 82 147 167 303 289 384 445 256 
37 11 371 268 377 60 350 125 196 428 79 324 114 
38 11 274 29 293 290 339 143 424 298 309 67 413 
39 11 27 144 166 246 284 352 456 31 107 237 181 
40 11 203 199 87 194 46 297 353 409 8 333 134 
41 11 243 68 17 190 374 457 183 411 103 417 360 
42 11 99 141 258 135 53 441 321 227 304 424 402 
43 11 376 387 132 399 397 305 383 84 51 244 10 
44 11 386 262 218 21 119 192 58 205 172 63 164 
45 11 366 100 382 181 330 391 406 456 277 281 313 
46 11 297 194 8 87 182 356 199 4 203 434 443 
47 11 455 106 55 15 380 176 115 75 354 253 453 
48 11 139 372 261 234 257 66 117 223 326 35 330 
49 11 233 20 396 294 191 163 228 215 225 173 293 
50 11 327 254 3 433 269 312 392 210 316 129 304 
51 11 335 356 8 409 10 443 383 297 46 168 397 
52 11 367 291 448 378 13 22 150 331 95 389 211 
53 11 258 227 99 135 402 302 141 42 304 289 316 
54 11 224 421 287 388 109 454 145 307 334 338 251 
55 11 380 47 146 455 106 430 416 186 231 15 253 
56 11 62 26 30 426 238 439 265 120 450 154 340 
57 11 375 201 263 373 300 149 422 77 14 264 276 
58 11 21 386 240 262 164 44 329 23 63 438 365 
59 11 180 449 459 78 19 175 11 256 283 88 282 
60 11 350 37 371 268 344 79 114 377 196 140 273 
61 11 82 303 289 133 384 36 32 302 445 198 53 
62 11 30 26 56 379 265 412 439 450 189 308 426 
63 11 160 438 220 211 150 164 95 280 172 23 378 
64 11 196 140 324 377 2 125 363 79 371 114 37 
65 11 436 245 108 404 123 423 127 207 69 6 341 
66 11 305 261 139 234 35 48 401 372 117 370 387 
67 11 413 339 452 312 424 3 210 12 316 29 254 
68 11 17 41 374 243 190 457 417 103 411 183 73 
69 11 333 123 404 423 395 245 130 127 40 436 203 
70 11 241 76 98 419 177 408 338 251 145 109 351 
71 11 331 389 13 361 204 448 198 165 52 367 22 
72 11 354 405 115 104 259 128 206 121 453 187 15 
73 11 103 374 417 68 17 190 41 362 167 243 9 
74 11 219 209 266 288 86 345 18 319 408 296 419 
75 11 115 184 15 354 187 458 405 176 315 347 72 
76 11 98 70 251 338 351 241 307 109 145 110 177 
77 11 429 264 437 149 373 197 201 14 276 213 242 
78 11 449 332 11 180 328 279 137 317 282 19 446 
79 11 114 140 2 350 400 196 60 363 334 371 37 
80 11 208 170 446 281 391 88 100 137 366 144 45 
81 11 90 431 105 213 4 385 364 250 182 434 197 
82 11 61 289 303 384 133 36 302 53 227 32 258 
83 11 286 336 28 378 150 220 269 91 433 327 129 
84 11 320 132 340 399 120 426 85 242 244 376 397 
85 11 242 155 437 120 429 244 320 276 275 84 397 
86 11 345 319 18 288 324 125 296 74 64 428 408 
87 11 194 40 46 353 203 199 297 4 8 182 250 
88 11 80 208 446 281 92 170 391 100 239 137 366 
89 11 24 272 381 394 407 406 235 161 188 337 277 
90 11 105 213 385 81 4 434 182 431 122 197 310 
91 11 129 322 200 28 280 336 433 286 392 255 269 
92 11 326 257 281 88 330 100 401 170 234 80 208 
93 11 441 321 141 226 99 299 282 42 445 289 11 
94 11 116 247 415 425 442 343 124 432 25 110 178 
95 11 211 172 291 367 160 52 22 150 63 220 102 
96 11 430 186 146 390 231 357 380 55 222 185 156 
97 11 283 152 175 9 362 459 59 256 271 73 180 
98 11 76 70 251 338 351 307 109 241 145 110 287 
99 11 141 42 258 53 135 227 441 321 402 304 302 
100 11 366 45 281 391 170 181 382 330 456 144 277 
101 11 31 418 221 237 317 148 39 328 348 279 138 
102 11 22 291 204 212 52 367 95 179 172 389 448 
103 11 73 374 190 68 17 41 417 362 243 183 167 
104 11 259 107 128 427 246 352 420 295 72 405 148 
105 11 385 90 4 81 434 213 182 122 310 431 275 
106 11 455 47 176 15 308 412 75 458 379 184 115 
107 11 246 352 104 259 27 284 427 420 5 166 295 
108 11 436 65 123 404 245 69 423 333 127 395 207 
109 11 145 338 251 224 287 307 351 54 454 421 388 
110 11 307 351 432 287 224 251 338 54 109 145 421 
111 11 435 34 414 16 365 158 173 368 329 236 20 
112 11 118 108 65 123 436 404 395 69 245 333 325 
113 11 410 428 126 151 268 179 125 296 447 37 324 
114 11 79 2 140 400 350 363 196 334 60 371 37 
115 11 354 75 15 187 405 184 72 458 176 295 315 
116 11 94 247 442 425 415 124 432 343 110 25 287 
117 11 223 372 252 261 139 35 48 381 66 330 89 
118 11 112 108 123 65 436 404 395 69 325 333 245 
119 11 218 192 205 262 44 386 172 151 179 440 95 
120 11 238 242 426 276 320 85 84 437 155 429 244 
121 11 206 128 292 230 427 420 72 259 453 104 229 
122 11 310 275 434 182 385 443 105 4 90 155 383 
123 11 404 69 245 333 423 436 108 65 127 395 130 
124 11 425 415 442 247 343 94 116 178 54 432 110 
125 11 324 377 428 196 64 371 37 268 319 86 345 
126 11 447 410 179 113 151 359 268 344 428 37 371 
127 11 423 245 130 159 174 207 142 404 193 285 123 
128 11 427 420 259 121 104 206 148 72 107 352 237 
129 11 91 392 433 322 358 200 28 255 254 280 327 
130 11 159 142 174 127 423 193 353 369 250 301 87 
131 11 14 267 149 264 300 197 373 213 81 301 364 
132 11 399 340 84 154 370 320 305 393 43 376 426 
133 11 61 36 82 147 32 445 289 303 282 384 19 
134 11 325 7 395 203 199 40 409 168 333 194 349 
135 11 304 258 53 227 402 316 99 42 210 141 302 
136 11 419 266 209 219 74 451 440 241 18 296 288 
137 11 279 328 446 317 208 80 31 144 101 391 170 
138 11 403 348 309 228 215 221 418 143 163 191 294 
139 11 48 261 372 66 117 35 223 234 257 401 305 
140 11 2 196 79 114 64 363 400 377 371 350 37 
141 11 99 42 258 53 441 321 135 227 93 402 289 
142 11 174 193 159 369 301 250 130 364 285 353 431 
143 11 309 298 293 274 215 348 403 38 191 138 290 
144 11 456 39 391 181 27 166 284 170 31 366 246 
145 11 109 338 224 454 251 287 388 54 421 307 177 
146 11 186 231 380 55 390 430 416 47 455 368 106 
147 11 445 133 256 32 19 36 282 61 82 289 303 
148 11 237 418 420 221 427 352 128 259 31 246 107 
149 11 14 373 264 201 197 131 77 300 213 429 90 
150 11 220 378 160 83 336 286 367 28 52 291 211 
151 11 179 410 126 113 447 428 268 296 102 359 37 
152 11 97 283 175 9 362 271 459 73 103 256 190 
153 11 323 12 342 249 358 452 255 236 413 392 129 
154 11 393 370 340 399 132 265 35 26 305 252 261 
155 11 275 85 244 437 429 242 310 122 397 383 434 
156 11 222 311 318 189 263 439 430 62 379 412 30 
157 11 6 341 207 285 171 127 159 174 193 267 301 
158 11 365 329 414 236 435 240 16 23 323 249 34 
159 11 174 142 193 369 130 285 301 127 250 364 353 
160 11 63 220 150 211 95 378 291 172 438 367 52 
161 11 188 337 24 315 347 272 394 407 89 187 314 
162 11 306 270 195 169 349 232 7 248 168 325 10 
163 11 228 294 191 215 309 138 143 233 403 293 49 
164 11 23 438 240 63 280 255 58 160 249 200 322 
165 11 417 167 71 204 389 212 331 13 374 361 17 
166 11 284 456 27 5 181 39 313 277 246 144 107 
167 11 36 32 165 303 417 61 82 133 71 73 198 
168 11 10 7 409 349 51 134 356 8 199 335 203 
169 11 306 349 248 232 168 7 10 162 387 43 51 
170 11 281 80 208 391 100 366 446 45 144 181 456 
171 11 157 202 6 341 267 285 207 300 131 301 159 
172 11 95 211 291 160 367 22 192 52 63 102 150 
173 11 396 16 34 20 342 323 236 435 414 49 153 
174 11 142 193 159 369 301 285 130 250 364 353 431 
175 11 9 256 459 147 19 32 73 103 362 36 283 
176 11 458 184 75 308 106 15 347 115 315 187 455 
177 11 408 288 145 241 64 454 109 86 388 363 338 
178 11 183 343 411 243 271 124 190 415 41 360 425 
179 11 151 126 410 113 447 102 359 428 22 268 344 
180 11 449 78 459 59 19 11 282 332 256 445 147 
181 11 456 166 313 45 277 144 366 391 284 100 5 
182 11 434 4 385 105 122 310 297 46 90 443 275 
183 11 243 190 41 178 411 68 17 271 457 374 360 
184 11 458 75 187 115 315 347 15 176 354 405 337 
185 11 357 278 390 368 111 231 186 146 216 34 96 
186 11 231 390 146 368 416 357 380 55 430 216 96 
187 11 405 184 75 115 354 295 458 15 315 337 347 
188 11 337 161 24 315 394 347 272 89 407 295 235 
189 11 379 412 62 30 439 311 106 308 156 222 263 
190 11 41 243 183 68 17 374 103 411 362 73 457 
191 11 294 163 215 228 309 293 143 233 49 138 403 
192 11 119 218 262 172 386 95 211 44 205 63 179 
193 11 142 174 369 301 159 250 364 285 130 431 353 
194 11 46 199 87 203 297 40 8 356 409 353 182 
195 11 306 349 325 162 7 134 395 168 169 10 409 
196 11 64 377 140 2 125 324 371 79 37 114 268 
197 11 264 213 14 90 149 429 77 81 105 131 385 
198 11 361 384 303 331 71 302 13 61 82 389 448 
199 11 203 194 40 409 87 46 8 297 356 134 335 
200 11 322 255 280 91 129 358 392 28 249 433 336 
201 11 373 149 77 14 264 300 131 197 429 437 213 
202 11 171 267 300 157 341 6 131 285 398 207 14 
203 11 199 40 194 87 409 46 8 297 134 356 353 
204 11 389 13 71 331 448 212 22 102 165 52 361 
205 11 440 119 218 451 192 151 179 296 410 113 18 
206 11 121 292 230 128 453 229 253 72 427 259 420 
207 11 6 157 341 127 245 285 159 423 436 65 174 
208 11 80 170 446 281 391 88 137 100 366 144 45 
209 11 266 219 74 18 86 288 345 296 319 419 408 
210 11 316 304 312 3 254 50 135 424 327 67 402 
211 11 95 172 291 160 367 150 63 52 220 22 378 
212 11 359 204 214 102 447 389 22 165 344 71 13 
213 11 90 105 197 81 385 264 4 434 431 122 310 
214 11 344 359 447 60 212 273 350 268 37 457 126 
215 11 163 191 294 228 309 143 138 403 293 348 274 
216 11 225 368 20 416 229 49 233 34 396 173 230 
217 11 398 341 65 6 157 207 436 171 202 108 245 
218 11 119 192 205 44 262 386 440 172 151 179 95 
219 11 74 209 266 288 86 18 345 319 408 419 296 
220 11 150 378 160 83 336 28 286 63 280 91 367 
221 11 418 148 237 138 420 101 403 31 348 427 352 
222 11 156 311 318 189 430 263 439 379 412 62 260 
223 11 117 372 252 139 261 48 381 35 330 406 382 
224 11 287 54 109 307 421 145 251 338 351 454 388 
225 11 216 20 49 233 396 368 34 173 229 416 16 
226 11 299 444 321 441 93 298 42 141 99 11 290 
227 11 53 402 258 302 135 99 304 141 42 316 289 
228 11 163 215 294 191 138 309 403 143 348 233 293 
229 11 230 253 453 292 206 121 416 72 128 216 354 
230 11 292 206 229 453 253 121 72 128 427 259 354 
231 11 390 186 146 368 416 380 357 55 430 216 185 
232 11 248 169 401 92 234 257 387 66 326 306 48 
233 11 49 20 294 191 163 396 228 215 293 225 173 
234 11 401 48 66 139 257 261 326 372 305 35 117 
235 11 394 277 313 406 5 24 89 381 382 166 188 
236 11 158 323 414 16 249 365 329 435 153 342 173 
237 11 148 418 221 352 420 427 31 101 246 39 107 
238 11 426 120 276 320 242 56 85 84 437 340 429 
239 11 88 33 92 59 446 80 232 208 281 170 248 
240 11 164 23 329 158 365 236 438 58 249 255 414 
241 11 70 408 177 74 98 419 219 288 145 338 76 
242 11 85 120 437 276 155 320 429 244 84 238 426 
243 11 41 190 68 183 17 411 457 374 360 178 103 
244 11 397 383 155 275 85 376 443 310 122 242 320 
245 11 423 127 404 436 123 65 69 207 130 159 333 
246 11 107 352 27 284 39 104 259 166 5 237 420 
247 11 442 116 425 415 94 124 432 343 110 54 287 
248 11 232 401 234 387 169 66 257 92 48 326 305 
249 11 255 153 200 323 322 358 23 280 129 236 91 
250 11 364 431 353 369 301 142 193 81 174 4 159 
251 11 338 307 351 109 287 145 224 110 54 98 421 
252 11 117 223 407 372 272 314 35 89 381 261 139 
253 11 453 229 230 206 292 72 121 354 15 115 416 
254 11 50 327 3 312 433 392 210 269 316 129 358 
255 11 200 322 280 249 91 129 358 392 438 23 433 
256 11 147 19 32 9 459 175 445 282 36 133 61 
257 11 326 48 234 330 401 139 372 92 261 66 223 
258 11 53 99 227 135 141 42 402 302 304 316 289 
259 11 104 128 427 107 420 352 246 72 148 121 295 
260 11 355 318 156 222 311 96 375 57 263 430 189 
261 11 139 35 372 48 117 66 223 305 234 252 370 
262 11 386 44 192 218 21 58 119 63 172 164 211 
263 11 439 311 56 62 189 238 30 156 426 276 57 
264 11 197 14 149 213 77 373 131 429 90 201 81 
265 11 26 450 154 30 393 62 314 56 370 308 252 
266 11 209 219 74 18 419 86 296 288 345 319 136 
267 11 131 300 285 171 301 14 369 193 364 149 174 
268 11 37 371 377 60 428 125 350 196 344 324 79 
269 11 327 433 50 286 28 254 336 83 91 129 392 
270 11 162 306 346 232 169 195 239 33 248 349 92 
271 11 362 183 178 190 243 343 41 103 68 411 374 
272 11 407 89 24 314 161 188 337 381 394 252 315 
273 11 360 350 60 114 79 334 344 214 400 411 457 
274 11 38 293 29 290 143 309 339 298 424 67 191 
275 11 310 122 155 434 385 443 105 182 244 90 383 
276 11 120 242 437 85 238 429 77 426 155 320 84 
277 11 313 235 394 5 406 181 166 382 284 456 381 
278 11 185 357 111 368 390 231 186 435 34 414 365 
279 11 137 328 317 101 31 332 446 78 144 208 80 
280 11 200 322 255 91 438 129 28 336 286 220 249 
281 11 170 80 208 100 391 366 45 446 181 144 330 
282 11 445 19 147 93 133 11 256 289 82 61 36 
283 11 97 152 175 9 59 459 256 180 362 19 449 
284 11 166 27 5 246 456 39 107 313 181 277 352 
285 11 159 174 193 301 369 142 6 157 364 127 250 
286 11 336 28 83 269 91 378 220 433 150 129 322 
287 11 224 54 109 307 251 351 145 338 421 110 454 
288 11 86 345 319 408 74 18 177 324 64 219 125 
289 11 82 61 384 303 302 53 133 227 258 99 141 
290 11 29 38 274 298 424 143 293 339 299 67 444 
291 11 367 52 95 211 22 172 150 378 448 160 102 
292 11 206 230 121 229 453 253 128 72 427 420 259 
293 11 274 38 143 309 29 191 215 294 290 163 339 
294 11 191 163 215 228 309 293 143 233 49 138 403 
295 11 405 187 104 337 5 107 188 259 161 184 354 
296 11 18 319 345 86 428 113 209 74 324 288 125 
297 11 46 8 194 356 182 443 87 335 199 434 4 
298 11 143 290 444 299 309 29 274 38 226 348 293 
299 11 226 444 321 441 298 42 93 290 141 99 29 
300 11 131 373 149 267 201 14 264 197 77 171 202 
301 11 369 193 142 174 364 250 159 285 431 353 81 
302 11 227 402 53 384 258 135 289 99 304 82 141 
303 11 384 61 82 289 198 36 133 302 167 227 32 
304 11 316 135 210 402 227 258 53 424 312 3 42 
305 11 66 35 261 370 387 139 234 399 393 48 132 
306 11 169 349 162 195 7 168 10 325 134 232 409 
307 11 351 251 338 287 109 110 224 145 54 421 98 
308 11 176 412 347 458 379 450 315 184 106 314 75 
309 11 143 215 403 348 191 293 138 294 163 228 274 
310 11 122 275 434 182 385 443 105 4 90 155 383 
311 11 156 222 189 263 318 439 62 379 30 412 56 
312 11 3 254 452 210 413 67 50 316 327 392 339 
313 11 277 235 5 394 181 166 284 406 456 382 24 
314 11 407 272 252 161 450 89 347 315 24 188 337 
315 11 347 161 188 337 458 184 187 24 272 407 75 
316 11 210 304 135 312 402 424 3 254 50 227 327 
317 11 328 279 101 332 31 137 444 11 348 221 226 
318 11 156 222 311 355 260 263 189 439 57 430 375 
319 11 345 86 18 288 324 296 125 428 64 74 377 
320 11 84 120 242 85 426 340 238 244 132 276 155 
321 11 441 299 226 141 93 42 99 444 258 53 135 
322 11 200 91 280 129 255 28 358 392 336 433 286 
323 11 153 342 236 249 12 173 396 16 255 358 452 
324 11 125 377 64 196 428 319 345 86 371 37 268 
325 11 134 395 7 333 349 203 69 40 195 199 168 
326 11 257 330 48 234 372 139 92 401 100 45 223 
327 11 50 254 433 3 269 392 312 210 129 316 91 
328 11 317 279 137 332 101 31 78 11 444 226 446 
329 11 365 158 240 414 236 435 23 164 16 249 58 
330 11 326 382 257 45 100 366 372 48 223 406 381 
331 11 13 71 361 389 448 204 198 52 367 378 83 
332 11 11 328 78 317 226 279 444 299 137 449 93 
333 11 69 395 123 404 423 40 130 203 245 134 127 
334 11 400 363 114 388 79 421 2 140 454 54 350 
335 11 356 51 8 443 383 297 409 46 397 182 10 
336 11 28 286 83 91 269 378 220 433 129 150 322 
337 11 188 161 24 315 394 347 272 295 89 187 235 
338 11 251 109 307 351 145 224 287 54 98 110 454 
339 11 67 413 452 424 29 38 312 12 274 210 290 
340 11 132 399 154 84 370 320 393 426 120 305 238 
341 11 157 6 207 171 398 285 127 159 245 65 267 
342 11 323 153 396 173 12 236 16 20 249 49 452 
343 11 415 94 178 425 124 442 247 116 25 183 271 
344 11 214 60 350 268 37 447 359 371 273 126 377 
345 11 86 319 18 288 324 296 125 74 428 64 408 
346 11 33 270 239 162 232 59 88 283 248 97 92 
347 11 315 458 161 184 188 337 187 308 176 24 75 
348 11 403 138 309 143 215 221 228 298 418 163 191 
349 11 7 168 306 10 134 169 325 195 409 51 199 
350 11 60 79 114 37 371 268 344 140 377 196 273 
351 11 307 251 338 110 287 109 224 145 54 98 432 
352 11 246 107 237 27 420 148 259 427 39 104 284 
353 11 250 87 431 364 142 4 193 369 130 174 81 
354 11 115 15 75 405 187 72 184 458 295 176 104 
355 11 260 318 156 222 375 311 57 263 439 422 189 
356 11 8 335 51 297 443 46 409 194 383 199 182 
357 11 185 390 186 231 278 368 146 96 111 416 216 
358 11 392 129 3 433 200 322 452 91 254 255 312 
359 11 214 447 212 344 126 60 268 102 37 350 179 
360 11 411 273 457 243 214 350 41 60 334 114 17 
361 11 331 13 71 198 448 389 52 83 204 378 367 
362 11 271 103 190 73 183 374 41 243 68 17 9 
363 11 2 388 400 454 140 334 114 79 421 64 196 
364 11 250 431 369 301 81 193 142 353 174 4 90 
365 11 158 329 414 435 236 240 16 23 34 111 323 
366 11 45 100 181 382 391 281 330 170 456 277 313 
367 11 52 291 378 448 150 22 95 211 13 220 160 
368 11 216 225 416 231 390 186 34 111 20 357 146 
369 11 301 193 142 174 364 250 159 431 285 353 130 
370 11 393 154 35 305 399 340 132 261 66 117 252 
371 11 37 268 377 60 125 196 350 428 79 140 324 
372 11 223 117 139 48 261 35 252 330 66 234 257 
373 11 201 149 14 264 77 300 131 197 429 213 437 
374 11 103 68 17 73 417 41 190 243 457 183 165 
375 11 57 422 201 300 373 263 149 77 14 355 202 
376 11 397 43 244 383 84 51 335 443 320 132 399 
377 11 125 196 371 37 324 64 268 140 428 2 60 
378 11 150 83 220 286 336 28 52 367 160 291 448 
379 11 412 308 30 62 189 450 106 176 26 265 458 
380 11 55 146 47 455 416 430 106 186 231 390 253 
381 11 406 89 382 235 394 223 24 272 277 407 313 
382 11 406 381 45 330 277 366 235 313 100 89 181 
383 11 397 443 244 335 51 122 310 376 275 356 8 
384 11 303 82 289 302 61 198 227 53 402 258 133 
385 11 105 4 434 90 182 81 122 310 213 275 431 
386 11 262 44 21 58 192 218 119 63 164 172 211 
387 11 43 305 66 399 132 401 234 376 35 370 261 
388 11 454 363 421 400 334 2 54 145 140 224 109 
389 11 13 71 204 331 448 361 52 22 367 165 198 
390 11 231 186 146 368 357 416 380 55 430 216 185 
391 11 170 144 281 100 181 366 456 45 208 80 166 
392 11 358 129 433 3 254 50 327 312 91 322 200 
393 11 370 154 35 252 265 340 399 117 261 305 132 
394 11 235 24 277 89 313 188 337 406 5 381 161 
395 11 333 325 69 134 123 40 203 404 199 423 87 
396 11 20 173 342 49 233 16 34 323 225 153 12 
397 11 244 383 376 443 155 275 335 122 310 51 85 
398 11 341 6 157 207 171 65 436 245 127 202 285 
399 11 132 340 370 84 154 305 393 320 43 387 376 
400 11 334 363 2 114 388 79 140 454 421 196 54 
401 11 234 66 48 257 139 326 261 305 248 372 35 
402 11 227 302 53 135 258 304 316 210 99 42 141 
403 11 348 138 309 143 215 228 221 163 418 191 294 
404 11 123 69 245 423 333 436 127 65 108 130 395 
405 11 187 295 354 115 75 72 184 104 15 259 458 
406 11 381 382 89 235 277 394 313 24 45 223 272 
407 11 272 314 89 24 161 188 252 337 381 315 394 
408 11 177 288 241 74 86 345 64 219 319 145 324 
409 11 8 199 356 51 10 203 194 335 168 297 46 
410 11 113 151 126 179 428 447 268 296 125 37 18 
411 11 360 243 457 41 183 17 68 273 190 178 214 
412 11 379 308 30 62 189 106 176 450 26 458 347 
413 11 67 452 339 312 12 3 424 210 254 316 358 
414 11 435 158 365 16 236 329 34 173 111 323 240 
415 11 425 442 247 94 124 116 343 432 178 110 54 
416 11 229 216 253 453 380 368 231 55 230 146 225 
417 11 165 374 17 68 73 103 41 167 457 190 243 
418 11 221 148 237 420 101 138 31 427 403 348 352 
419 11 136 219 266 209 74 241 70 408 288 177 86 
420 11 427 148 128 259 237 352 104 418 107 221 246 
421 11 54 388 454 224 287 334 363 400 145 109 2 
422 11 375 202 57 300 171 201 267 373 149 131 14 
423 11 127 245 404 130 123 69 159 333 436 174 142 
424 11 67 339 210 316 29 304 413 290 135 312 42 
425 11 415 442 247 124 94 116 343 432 110 54 178 
426 11 238 120 320 84 242 276 56 340 85 132 399 
427 11 420 128 259 148 104 352 237 107 121 246 418 
428 11 125 324 268 377 113 371 37 319 196 345 410 
429 11 437 155 77 85 197 242 275 276 264 213 310 
430 11 146 55 380 186 96 231 390 47 455 222 106 
431 11 250 364 81 353 4 369 90 105 301 385 193 
432 11 110 247 351 307 442 116 287 425 224 251 54 
433 11 327 50 129 392 254 269 91 3 28 358 286 
434 11 182 122 385 310 4 105 90 275 443 297 46 
435 11 414 16 158 34 365 236 111 329 173 323 396 
436 11 65 245 404 108 123 423 127 207 69 333 6 
437 11 429 85 242 155 276 77 275 120 197 264 244 
438 11 23 280 63 164 200 255 322 160 220 91 28 
439 11 263 62 56 30 189 311 238 26 379 412 426 
440 11 451 205 296 266 209 18 119 218 219 74 136 
441 11 321 141 93 299 226 42 99 444 258 53 135 
442 11 247 425 415 116 94 124 432 343 110 54 287 
443 11 383 335 122 310 356 434 8 182 297 275 397 
444 11 299 226 298 321 441 290 42 93 143 141 29 
445 11 282 19 147 133 93 61 82 289 36 256 32 
446 11 80 208 170 137 88 281 279 391 144 328 100 
447 11 126 359 344 214 268 410 113 179 151 37 60 
448 11 13 331 389 52 361 71 367 204 291 378 22 
449 11 180 78 11 332 459 59 19 282 328 279 137 
450 11 265 26 314 308 30 62 379 412 407 347 272 
451 11 440 205 296 266 209 18 219 74 136 319 345 
452 11 413 67 312 339 12 3 358 392 254 210 424 
453 11 253 230 229 206 292 72 121 354 15 115 128 
454 11 388 363 421 145 400 2 54 109 224 334 140 
455 11 47 106 15 176 55 380 75 115 354 184 458 
456 11 181 166 144 284 27 39 313 391 277 5 45 
457 11 411 17 68 41 360 243 273 214 190 417 374 
458 11 184 347 75 176 315 187 115 15 308 161 337 
459 11 180 19 256 175 449 59 147 282 9 445 78 
DEPOT_SECTION
   1
   -1
EOF
