NAME :  X-n469-kX-w46-c9.cctp
COMMENT : 	Adapted by Maziero, Usberti and Cavellucci from the Uchoa, Pecin, Pessoa, Poggi, Subramanian, and Vidal (2013)
TYPE :  CCTP
DIMENSION :    323
EDGE_WEIGHT_TYPE : 	EUC_2D	
CAPACITY : 	256
VERTICES_WITHIN_COVERAGE :  9
VERTICES_WITH_DEMAND : 	46
NODE_COORD_SECTION
1 0 0
2 363 697
3 120 259
4 555 718
5 522 918
6 239 935
7 304 517
8 856 96
9 38 904
10 174 951
11 294 935
12 942 324
13 402 176
14 766 450
15 473 862
16 262 550
17 661 92
18 440 655
19 678 291
20 345 691
21 564 903
22 952 802
23 698 352
24 297 930
25 66 244
26 882 642
27 777 818
28 302 212
29 824 647
30 143 946
31 108 600
32 121 755
33 697 32
34 473 995
35 342 252
36 596 534
37 248 211
38 940 88
39 81 468
40 144 796
41 244 385
42 437 42
43 381 583
44 263 549
45 153 646
46 187 688
47 248 71
48 649 477
49 244 370
50 105 251
51 102 734
52 107 489
53 921 579
54 681 336
55 46 832
56 117 590
57 604 453
58 871 548
59 943 171
60 181 252
61 172 696
62 211 597
63 82 390
64 404 544
65 169 845
66 101 663
67 923 842
68 464 148
69 377 32
70 933 156
71 987 678
72 995 62
73 241 242
74 565 805
75 137 970
76 11 959
77 307 897
78 827 725
79 27 818
80 284 562
81 214 719
82 749 863
83 743 494
84 169 42
85 664 268
86 232 420
87 360 726
88 308 95
89 970 326
90 91 795
91 729 479
92 507 782
93 321 298
94 914 830
95 201 805
96 299 90
97 327 474
98 400 714
99 217 110
100 447 82
101 180 61
102 329 479
103 607 144
104 633 586
105 228 986
106 98 291
107 56 919
108 302 929
109 998 71
110 283 534
111 562 828
112 250 170
113 921 325
114 577 116
115 802 102
116 112 530
117 371 252
118 205 379
119 315 321
120 304 45
121 684 368
122 715 476
123 281 282
124 970 23
125 944 627
126 218 717
127 426 876
128 232 735
129 446 846
130 483 747
131 360 494
132 522 830
133 732 386
134 292 154
135 265 524
136 216 492
137 798 670
138 125 229
139 799 900
140 231 26
141 207 149
142 306 573
143 496 745
144 379 21
145 395 564
146 71 215
147 505 662
148 547 517
149 668 216
150 11 995
151 42 480
152 154 936
153 65 939
154 472 601
155 462 825
156 842 664
157 14 197
158 879 336
159 896 105
160 319 671
161 527 45
162 552 530
163 41 364
164 143 846
165 835 5
166 400 676
167 910 716
168 267 601
169 429 646
170 333 945
171 185 385
172 407 737
173 731 485
174 255 405
175 28 973
176 931 120
177 719 109
178 321 722
179 851 158
180 87 931
181 189 530
182 311 745
183 546 526
184 373 661
185 749 318
186 51 714
187 575 131
188 982 61
189 364 513
190 835 755
191 780 35
192 208 60
193 768 48
194 379 291
195 35 544
196 237 188
197 215 559
198 5 888
199 566 749
200 986 603
201 699 758
202 984 786
203 873 320
204 292 117
205 354 700
206 938 85
207 336 879
208 146 844
209 688 35
210 852 648
211 387 973
212 245 29
213 941 0
214 656 871
215 373 2
216 65 214
217 196 652
218 14 925
219 228 390
220 174 699
221 942 386
222 656 224
223 818 828
224 367 227
225 656 29
226 869 658
227 806 501
228 938 250
229 772 316
230 915 807
231 804 516
232 866 546
233 758 47
234 337 182
235 614 577
236 952 221
237 672 232
238 752 777
239 389 177
240 447 934
241 194 17
242 90 431
243 383 589
244 842 158
245 921 685
246 377 764
247 508 619
248 285 973
249 793 876
250 430 40
251 325 314
252 252 411
253 14 857
254 675 367
255 288 222
256 723 124
257 186 389
258 57 912
259 709 425
260 386 859
261 316 507
262 340 704
263 535 963
264 219 654
265 403 121
266 206 923
267 934 353
268 116 502
269 634 559
270 262 403
271 879 100
272 676 416
273 235 349
274 231 102
275 378 569
276 399 48
277 56 351
278 259 247
279 5 250
280 892 26
281 507 93
282 819 380
283 922 302
284 61 608
285 761 62
286 27 213
287 416 712
288 550 552
289 930 830
290 469 221
291 390 966
292 388 863
293 652 334
294 74 677
295 838 136
296 839 121
297 680 257
298 399 40
299 321 632
300 263 860
301 37 293
302 856 674
303 704 344
304 780 346
305 226 532
306 708 89
307 656 510
308 226 427
309 217 363
310 312 489
311 321 270
312 811 711
313 27 480
314 696 12
315 102 900
316 609 673
317 924 31
318 566 75
319 144 331
320 28 857
321 16 859
322 522 645
323 873 593
DEMAND_SECTION
2 83
3 73
4 100
5 88
6 90
7 71
8 62
9 95
10 56
11 75
12 51
13 86
14 62
15 74
16 65
17 77
18 58
19 98
20 81
21 86
22 75
23 74
24 77
25 80
26 57
27 54
28 67
29 74
30 94
31 99
32 90
33 54
34 72
35 70
36 69
37 100
38 93
39 97
40 85
41 79
42 93
43 97
44 100
45 51
46 84
47 59
COVERAGE_SECTION
2 9 205 20 262 87 184 98 166 178 160 
3 7 50 138 106 25 60 146 216 
4 8 199 143 316 147 130 92 322 74 
5 9 21 263 15 240 132 34 111 127 129 
6 9 266 105 11 24 248 108 10 77 300 
7 9 261 110 310 135 102 80 97 44 16 
8 9 271 296 159 295 115 179 244 176 280 
9 9 258 107 218 198 153 320 321 253 180 
10 6 152 30 75 266 105 6 
11 9 24 108 248 77 170 6 207 300 105 
12 8 113 89 267 283 221 158 203 228 
13 8 239 265 224 234 68 290 117 35 
14 9 91 173 83 122 259 227 133 231 282 
15 9 129 155 127 132 5 240 292 92 260 
16 9 44 80 110 135 305 197 142 168 7 
17 9 306 177 209 225 33 256 103 114 314 
18 9 169 166 287 154 147 184 98 247 322 
19 9 85 297 54 293 237 303 23 222 149 
20 9 205 262 2 160 87 178 184 166 98 
21 7 5 263 111 132 214 74 15 
22 5 202 289 230 94 67 
23 9 303 121 54 254 133 293 185 19 272 
24 9 108 11 77 170 248 6 207 300 105 
25 8 146 216 50 286 3 106 301 138 
26 9 226 210 302 156 323 29 245 125 53 
27 7 223 238 82 249 139 190 201 
28 9 255 234 37 278 35 134 311 112 224 
29 9 156 210 137 302 226 26 312 323 78 
30 6 152 75 10 180 315 266 
31 8 56 284 66 45 116 294 195 268 
32 9 51 40 90 220 61 186 294 208 46 
33 9 209 314 225 306 233 17 285 193 177 
34 8 240 263 291 211 5 127 21 15 
35 9 311 117 224 93 194 28 255 251 123 
36 9 162 269 235 288 183 148 104 307 48 
37 9 196 73 278 112 255 28 134 141 123 
38 9 206 176 159 188 317 109 72 271 70 
39 8 52 242 151 268 313 116 63 195 
40 7 32 208 164 90 65 95 51 
41 9 49 219 174 270 252 309 86 273 118 
42 9 250 276 298 100 69 144 215 265 281 
43 8 243 275 145 64 189 142 299 184 
44 9 16 80 110 135 305 142 197 7 168 
45 9 217 61 46 66 220 31 264 56 62 
46 7 61 220 217 81 126 264 45 
47 9 274 192 212 140 99 96 120 204 88 
48 5 307 57 122 272 36 
49 9 41 273 219 309 174 270 118 252 86 
50 7 3 138 25 106 146 216 60 
51 9 32 186 90 294 66 40 61 220 46 
52 8 268 39 116 242 151 313 195 181 
53 7 323 125 58 232 200 26 226 
54 9 23 303 293 121 254 19 85 185 133 
55 8 79 320 321 253 90 198 9 258 
56 8 31 284 116 45 66 268 62 181 
57 3 48 307 36 
58 6 232 323 53 231 227 26 
59 6 70 236 176 228 159 38 
60 8 3 73 138 50 278 37 196 319 
61 8 220 46 81 217 126 45 264 128 
62 8 197 168 217 264 305 16 44 181 
63 8 242 277 163 39 319 151 106 52 
64 5 145 275 43 243 189 
65 4 208 164 95 40 
66 9 294 45 31 284 51 186 56 61 220 
67 5 289 94 230 22 202 
68 7 265 13 100 281 290 239 42 
69 7 144 298 276 215 250 42 120 
70 7 59 176 159 38 236 206 271 
71 8 245 125 200 167 202 26 53 226 
72 9 109 188 124 38 206 317 213 176 159 
73 9 278 37 255 196 123 60 28 112 311 
74 6 111 132 199 92 4 143 
75 8 30 152 10 180 153 315 266 105 
76 9 175 218 150 153 107 9 258 198 180 
77 8 108 24 207 11 170 300 6 248 
78 7 312 190 302 137 156 29 226 
79 8 55 320 253 321 90 198 9 258 
80 9 16 44 142 110 135 168 7 261 305 
81 6 126 128 46 220 61 264 
82 6 249 27 139 223 238 214 
83 7 173 91 122 14 227 231 259 
84 7 101 241 192 140 212 99 47 
85 7 297 19 237 222 149 293 54 
86 8 308 252 174 219 270 41 118 49 
87 9 205 2 262 20 178 98 246 172 182 
88 7 96 204 120 134 47 274 212 
89 7 12 267 113 283 221 228 158 
90 7 32 40 55 51 79 164 208 
91 7 173 122 83 14 259 307 48 
92 8 143 130 132 74 155 199 111 4 
93 8 251 119 311 123 35 194 117 278 
94 4 67 289 230 22 
95 5 65 40 208 164 128 
96 7 88 204 120 47 134 274 212 
97 6 102 310 261 131 7 189 
98 9 287 172 166 2 87 205 246 184 20 
99 8 274 141 47 192 101 112 204 196 
100 9 42 250 265 276 281 298 68 69 161 
101 7 84 192 241 99 140 274 47 
102 6 97 310 261 131 7 189 
103 6 187 114 17 318 149 222 
104 3 235 269 36 
105 9 6 248 10 266 11 24 152 75 108 
106 9 3 50 25 301 319 138 277 146 216 
107 9 258 153 9 180 218 315 76 198 175 
108 8 24 11 77 170 248 207 6 300 
109 9 72 188 124 38 206 176 317 213 70 
110 9 135 44 16 7 80 261 142 310 305 
111 6 74 132 92 21 199 15 
112 9 196 37 134 141 255 28 99 204 274 
113 7 12 283 267 158 203 89 221 
114 6 187 103 318 281 17 161 
115 6 296 295 8 285 193 244 
116 8 268 52 56 39 31 181 195 151 
117 9 224 35 194 311 93 239 251 234 28 
118 8 309 171 257 219 41 49 273 86 
119 7 251 93 311 123 194 35 273 
120 7 96 88 212 47 204 69 140 
121 7 254 23 303 54 293 272 133 
122 7 91 173 83 259 14 48 307 
123 9 278 311 93 119 251 73 255 35 28 
124 9 213 188 72 317 109 206 38 280 176 
125 8 200 53 245 26 71 323 226 210 
126 6 81 128 46 220 61 264 
127 7 129 292 260 15 155 240 207 
128 4 126 81 46 220 
129 7 155 15 127 292 260 132 92 
130 8 143 92 287 172 4 155 199 147 
131 6 189 102 97 261 310 7 
132 8 111 74 92 15 155 129 21 5 
133 9 259 23 303 121 254 304 272 185 54 
134 8 204 112 234 28 88 96 196 255 
135 9 110 44 16 7 305 80 261 136 310 
136 8 305 181 135 308 197 16 44 86 
137 8 29 312 156 210 302 78 226 26 
138 6 3 50 146 25 60 216 
139 4 249 82 223 27 
140 9 212 241 192 47 101 84 120 274 99 
141 8 99 112 196 274 37 134 47 192 
142 9 80 110 168 44 16 7 299 135 261 
143 8 130 92 4 199 147 155 287 132 
144 7 69 215 298 276 250 42 120 
145 5 275 64 43 243 189 
146 4 216 25 286 50 
147 7 322 247 18 154 4 169 143 
148 5 183 162 288 36 57 
149 5 222 237 297 85 19 
150 9 175 76 218 153 107 9 258 180 198 
151 9 313 39 195 52 242 268 116 63 163 
152 6 30 10 75 266 315 180 
153 9 107 180 258 9 175 218 315 76 30 
154 5 247 169 18 322 147 
155 8 129 15 132 92 127 130 260 292 
156 9 302 210 29 226 137 26 312 78 323 
157 5 286 216 279 146 25 
158 6 203 113 283 267 12 282 
159 9 271 176 8 38 206 296 70 295 179 
160 7 20 262 299 205 2 178 184 
161 7 318 281 114 100 42 250 187 
162 5 183 148 288 36 235 
163 9 277 63 301 242 106 319 39 151 313 
164 3 208 65 40 
165 9 280 191 193 233 8 285 317 115 271 
166 9 184 98 287 169 2 18 205 20 172 
167 6 245 302 226 26 78 190 
168 6 80 142 16 44 62 299 
169 9 18 166 184 154 287 243 98 147 43 
170 8 108 24 11 77 248 211 291 207 
171 7 257 118 309 219 41 86 308 
172 8 98 287 246 87 2 166 205 262 
173 7 91 83 122 14 259 227 231 
174 9 252 270 41 86 219 308 49 118 309 
175 9 76 150 153 218 107 258 9 180 198 
176 7 38 70 206 159 59 271 188 
177 5 256 306 17 285 233 
178 7 182 262 20 87 205 2 160 
179 5 244 295 296 8 271 
180 8 153 107 315 258 9 30 75 152 
181 8 305 197 136 62 16 44 135 116 
182 5 178 262 87 205 20 
183 5 162 148 288 36 235 
184 9 166 2 20 205 262 160 169 98 299 
185 6 229 304 303 23 54 133 
186 8 294 51 66 32 90 284 79 55 
187 6 114 103 318 281 17 161 
188 9 72 109 124 38 206 317 213 176 159 
189 8 131 261 102 64 97 310 275 7 
190 6 78 312 223 302 167 27 
191 7 193 233 285 165 115 33 314 
192 8 101 47 140 84 241 212 274 99 
193 7 233 285 191 115 33 306 177 
194 7 117 35 93 251 311 224 119 
195 9 151 313 284 116 39 52 268 31 56 
196 9 112 37 141 73 255 278 134 28 99 
197 8 305 62 181 16 44 135 136 168 
198 9 321 253 9 218 320 258 107 55 76 
199 7 4 74 92 143 111 130 316 
200 8 125 53 71 245 26 323 58 226 
201 2 238 27 
202 7 22 289 230 67 94 167 71 
203 5 158 113 283 12 267 
204 8 88 96 134 274 47 112 120 99 
205 9 2 20 262 87 178 184 160 98 166 
206 9 38 176 159 188 317 72 271 109 124 
207 7 77 260 292 108 24 170 11 
208 3 164 65 40 
209 9 33 314 225 306 17 233 285 177 193 
210 9 156 226 302 29 26 137 323 312 245 
211 8 291 170 240 34 108 11 24 248 
212 9 140 47 192 241 120 101 274 84 96 
213 9 317 124 280 188 72 206 38 109 165 
214 2 82 21 
215 7 144 69 298 276 250 42 120 
216 4 146 25 286 50 
217 6 264 46 45 61 220 62 
218 9 9 76 198 107 258 175 153 321 253 
219 9 41 118 49 309 86 174 252 270 308 
220 8 61 46 81 126 217 45 264 128 
221 4 267 12 113 89 
222 6 149 237 297 85 19 103 
223 5 27 249 139 190 82 
224 9 117 35 234 239 13 311 194 28 255 
225 9 209 33 314 17 306 318 177 233 285 
226 9 210 26 302 156 29 245 323 167 137 
227 7 231 83 14 232 173 58 91 
228 5 236 283 12 113 59 
229 6 185 304 303 282 133 23 
230 5 94 289 67 22 202 
231 7 227 83 232 58 14 173 91 
232 6 58 323 53 231 227 26 
233 7 193 285 191 33 306 115 209 
234 9 28 239 134 224 255 13 35 117 204 
235 4 104 269 36 288 
236 5 228 59 70 283 12 
237 5 149 222 297 85 19 
238 7 27 201 223 82 190 312 78 
239 9 13 234 224 265 117 68 35 290 28 
240 8 127 291 34 211 5 15 129 292 
241 7 84 140 192 101 212 47 274 
242 8 39 63 52 151 268 313 163 277 
243 8 43 275 145 64 169 184 299 189 
244 6 179 295 296 8 115 271 
245 8 167 26 226 125 71 302 210 156 
246 8 172 87 98 287 2 205 182 178 
247 6 322 154 147 18 288 169 
248 9 11 24 108 170 105 6 77 266 211 
249 4 139 82 223 27 
250 8 42 298 276 100 69 144 215 265 
251 7 119 93 311 123 194 35 117 
252 9 174 270 86 41 308 219 49 118 309 
253 9 321 320 198 55 79 9 218 258 107 
254 7 121 23 54 303 293 272 133 
255 9 28 278 37 73 311 123 196 35 234 
256 5 177 306 17 285 115 
257 7 171 118 309 219 86 308 41 
258 9 107 9 153 180 218 315 198 320 76 
259 8 272 133 122 91 14 121 173 254 
260 6 292 127 207 129 155 15 
261 9 7 310 102 97 110 131 189 135 80 
262 9 20 205 2 178 87 160 182 184 98 
263 9 5 21 34 240 15 132 111 127 291 
264 3 217 46 62 
265 8 13 239 100 68 276 298 250 42 
266 6 6 10 152 30 105 75 
267 7 12 113 221 89 283 158 203 
268 8 52 116 39 242 151 181 56 195 
269 4 104 235 36 307 
270 9 174 252 41 86 219 49 308 273 309 
271 9 159 8 296 295 176 206 38 179 244 
272 6 259 121 254 133 48 23 
273 9 49 309 41 118 219 174 270 171 257 
274 9 99 47 192 141 204 101 96 112 212 
275 7 43 145 243 64 189 142 131 
276 8 298 69 250 144 42 215 100 265 
277 9 163 63 301 106 242 319 25 50 3 
278 9 73 37 255 123 28 196 311 60 112 
279 6 286 157 301 25 216 146 
280 9 317 213 165 206 271 38 124 8 159 
281 7 161 100 318 68 114 187 42 
282 7 304 158 229 203 133 14 185 
283 7 113 12 203 267 89 228 158 
284 8 31 56 66 195 294 116 45 186 
285 7 233 193 191 115 306 177 33 
286 5 157 216 279 146 25 
287 9 98 172 166 2 87 18 205 246 169 
288 6 162 183 148 36 235 247 
289 5 67 94 230 22 202 
290 4 68 13 239 224 
291 8 211 170 240 34 108 127 24 11 
292 6 260 127 207 129 155 15 
293 7 54 254 121 23 19 303 85 
294 9 66 186 51 284 31 45 32 56 61 
295 7 296 244 179 8 115 271 159 
296 7 295 8 244 179 115 271 159 
297 7 85 237 19 222 149 54 293 
298 8 276 69 144 250 42 215 100 265 
299 5 160 184 142 168 20 
300 6 77 207 24 6 108 11 
301 9 279 25 106 277 163 50 286 216 146 
302 9 156 226 210 26 29 137 312 78 245 
303 9 23 54 121 254 133 185 293 19 229 
304 6 229 185 282 133 303 23 
305 9 197 181 16 135 44 136 110 80 62 
306 7 177 256 17 33 209 285 233 
307 7 48 269 36 122 57 91 104 
308 8 86 252 174 219 270 41 118 257 
309 9 118 273 49 219 41 171 257 174 86 
310 9 261 102 97 7 131 110 189 135 44 
311 9 35 93 123 251 119 117 255 28 194 
312 8 78 137 190 156 302 29 210 226 
313 9 151 39 195 242 52 268 116 63 163 
314 9 33 209 225 233 306 193 285 17 191 
315 6 180 258 107 153 30 152 
316 2 4 199 
317 9 280 213 124 206 38 188 72 159 271 
318 7 114 161 187 281 103 17 225 
319 8 106 171 257 3 118 309 63 60 
320 9 321 253 55 79 198 9 258 107 218 
321 9 253 320 198 55 79 9 218 258 107 
322 5 147 247 154 4 18 
323 9 58 232 26 53 210 226 29 156 125 
DEPOT_SECTION
   1
   -1
EOF
