NAME :  X-n449-kX-w89-c7.cctp
COMMENT : 	Adapted by Maziero, Usberti and Cavellucci from the Uchoa, Pecin, Pessoa, Poggi, Subramanian, and Vidal (2013)
TYPE :  CCTP
DIMENSION :    372
EDGE_WEIGHT_TYPE : 	EUC_2D	
CAPACITY : 	777
VERTICES_WITHIN_COVERAGE :  7
VERTICES_WITH_DEMAND : 	89
NODE_COORD_SECTION
1 0 0
2 300 71
3 434 4
4 257 798
5 718 17
6 879 206
7 929 330
8 353 793
9 389 540
10 202 55
11 417 253
12 921 572
13 94 788
14 870 327
15 281 124
16 411 288
17 882 116
18 307 240
19 359 935
20 352 858
21 502 776
22 269 33
23 440 814
24 850 461
25 909 404
26 339 458
27 767 535
28 86 47
29 758 532
30 426 282
31 534 10
32 826 830
33 911 79
34 270 791
35 391 794
36 908 787
37 929 858
38 938 281
39 941 579
40 752 162
41 579 68
42 323 570
43 238 700
44 853 970
45 329 805
46 651 486
47 291 631
48 286 481
49 855 547
50 972 378
51 561 490
52 205 741
53 528 672
54 664 605
55 462 532
56 340 54
57 929 941
58 936 46
59 864 654
60 501 495
61 339 10
62 324 595
63 585 893
64 73 401
65 244 926
66 190 659
67 900 929
68 525 878
69 832 622
70 228 662
71 36 578
72 897 292
73 492 426
74 958 546
75 674 303
76 312 781
77 320 557
78 226 264
79 446 702
80 470 746
81 613 620
82 710 289
83 439 15
84 148 352
85 371 115
86 414 108
87 693 626
88 703 31
89 798 932
90 170 723
91 569 984
92 801 849
93 907 964
94 490 37
95 311 927
96 210 657
97 677 558
98 1 599
99 464 579
100 39 430
101 379 863
102 355 233
103 974 313
104 846 911
105 997 585
106 407 584
107 775 225
108 244 761
109 433 941
110 771 792
111 188 643
112 292 735
113 526 487
114 540 762
115 392 298
116 748 473
117 896 666
118 882 844
119 656 366
120 475 831
121 430 827
122 765 883
123 388 981
124 817 650
125 767 488
126 488 690
127 414 436
128 226 976
129 308 756
130 509 647
131 985 906
132 778 941
133 45 137
134 591 702
135 664 79
136 363 607
137 425 296
138 714 61
139 152 660
140 236 900
141 670 265
142 194 950
143 991 139
144 320 583
145 317 732
146 437 745
147 362 207
148 319 725
149 216 807
150 284 793
151 380 466
152 879 171
153 635 910
154 23 49
155 304 234
156 304 700
157 132 663
158 525 767
159 997 129
160 200 771
161 145 449
162 191 188
163 965 27
164 994 807
165 912 153
166 452 913
167 650 266
168 367 905
169 707 243
170 247 86
171 951 396
172 381 147
173 622 68
174 435 179
175 829 919
176 467 557
177 521 617
178 302 515
179 418 680
180 831 70
181 917 369
182 981 425
183 876 779
184 485 294
185 439 979
186 373 336
187 445 807
188 898 130
189 833 707
190 795 991
191 469 520
192 847 620
193 482 33
194 906 903
195 582 69
196 663 401
197 570 103
198 816 427
199 286 816
200 344 97
201 763 175
202 153 254
203 784 886
204 947 357
205 283 214
206 732 938
207 979 69
208 716 484
209 349 425
210 622 447
211 658 154
212 722 540
213 457 775
214 755 326
215 321 894
216 438 207
217 132 347
218 666 5
219 539 973
220 508 576
221 790 584
222 835 367
223 460 1
224 168 983
225 531 101
226 187 224
227 166 368
228 351 913
229 432 956
230 75 828
231 671 529
232 724 22
233 921 532
234 717 296
235 444 83
236 195 955
237 969 601
238 46 448
239 334 591
240 979 904
241 94 309
242 237 920
243 910 520
244 886 385
245 539 808
246 26 603
247 836 442
248 754 310
249 923 928
250 324 85
251 387 412
252 484 17
253 605 970
254 427 591
255 933 93
256 990 355
257 536 845
258 296 1000
259 648 685
260 130 810
261 663 619
262 642 583
263 667 885
264 255 761
265 336 521
266 583 849
267 703 45
268 718 288
269 760 984
270 229 296
271 982 954
272 889 715
273 786 610
274 958 642
275 850 134
276 272 789
277 417 46
278 411 740
279 925 548
280 87 425
281 980 299
282 330 462
283 829 128
284 966 431
285 540 389
286 249 633
287 24 912
288 2 667
289 300 206
290 5 919
291 630 330
292 751 349
293 216 314
294 862 885
295 251 533
296 481 446
297 557 899
298 788 560
299 365 273
300 879 619
301 77 850
302 989 364
303 475 14
304 451 667
305 382 331
306 639 940
307 307 581
308 63 396
309 996 593
310 47 631
311 977 840
312 990 13
313 458 762
314 56 534
315 226 964
316 746 109
317 828 428
318 798 863
319 87 343
320 706 670
321 947 294
322 654 559
323 333 230
324 813 426
325 943 15
326 868 284
327 553 878
328 443 317
329 500 710
330 815 983
331 969 727
332 740 523
333 647 40
334 999 394
335 236 999
336 579 476
337 438 242
338 297 913
339 162 816
340 725 582
341 178 67
342 843 80
343 1000 36
344 484 651
345 53 823
346 526 570
347 554 145
348 962 430
349 61 638
350 307 292
351 799 580
352 273 266
353 507 816
354 740 604
355 534 864
356 456 118
357 254 162
358 427 857
359 339 265
360 303 930
361 266 296
362 21 590
363 90 656
364 694 561
365 866 302
366 337 390
367 192 588
368 933 496
369 267 811
370 797 680
371 447 79
372 821 367
DEMAND_SECTION
2 35
3 74
4 5
5 43
6 27
7 97
8 68
9 77
10 78
11 8
12 66
13 15
14 92
15 3
16 90
17 39
18 57
19 29
20 82
21 81
22 4
23 90
24 9
25 95
26 6
27 82
28 66
29 50
30 83
31 48
32 4
33 54
34 45
35 64
36 77
37 96
38 56
39 44
40 25
41 18
42 23
43 74
44 69
45 8
46 9
47 70
48 42
49 25
50 73
51 61
52 41
53 38
54 35
55 97
56 97
57 3
58 62
59 79
60 87
61 52
62 85
63 21
64 50
65 18
66 38
67 30
68 48
69 80
70 19
71 15
72 33
73 28
74 83
75 19
76 58
77 67
78 53
79 78
80 97
81 28
82 61
83 2
84 99
85 21
86 12
87 86
88 64
89 1
90 71
COVERAGE_SECTION
2 7 250 56 22 200 170 15 61 
3 7 83 223 303 277 252 193 94 
4 7 34 369 276 150 199 264 108 
5 7 232 88 267 138 218 333 135 
6 7 152 165 188 275 326 72 17 
7 7 204 321 181 103 38 72 14 
8 7 45 35 76 129 20 150 145 
9 7 106 265 254 77 42 136 55 
10 5 341 170 22 2 15 
11 7 337 30 16 137 115 216 299 
12 7 39 279 233 74 243 237 300 
13 6 260 230 345 301 339 90 
14 7 365 326 72 222 7 244 181 
15 7 357 170 2 250 200 289 85 
16 7 30 137 115 11 328 299 305 
17 7 188 275 33 165 342 283 152 
18 7 155 323 205 289 359 352 102 
19 7 228 168 95 123 215 360 338 
20 7 101 215 168 228 45 8 35 
21 7 158 114 353 80 213 313 245 
22 7 2 170 10 56 61 250 15 
23 7 187 121 120 213 358 35 313 
24 5 247 317 198 324 25 
25 7 244 181 171 348 204 284 50 
26 7 282 209 151 48 265 251 178 
27 7 29 332 298 212 125 221 351 
28 4 154 341 133 10 
29 7 27 332 212 298 125 116 340 
30 7 137 16 11 115 328 337 184 
31 6 252 94 193 303 41 223 
32 7 92 318 118 294 110 203 183 
33 7 255 58 17 188 342 207 325 
34 7 276 150 4 369 199 264 108 
35 7 8 121 23 187 278 45 146 
36 7 183 118 37 272 331 311 164 
37 7 118 194 311 240 249 294 36 
38 7 321 72 281 103 7 326 365 
39 7 12 279 237 74 233 105 309 
40 7 201 316 107 283 169 211 275 
41 6 195 197 173 225 31 333 
42 7 77 144 307 239 62 265 136 
43 7 70 96 52 108 66 264 112 
44 7 330 93 175 104 67 190 89 
45 7 8 76 199 150 129 20 276 
46 6 231 210 208 322 336 97 
47 7 286 62 307 144 239 42 70 
48 7 178 282 26 295 265 77 209 
49 7 243 351 233 298 279 12 192 
50 7 302 171 256 334 204 182 284 
51 7 336 113 60 210 346 46 296 
52 7 160 90 108 43 264 149 4 
53 6 130 126 329 344 177 134 
54 7 261 262 87 322 97 81 364 
55 7 191 176 99 60 220 254 9 
56 7 250 2 200 61 85 22 277 
57 7 249 67 93 194 271 240 131 
58 7 325 163 33 255 207 312 343 
59 7 117 192 300 69 124 189 272 
60 7 113 191 296 55 51 73 176 
61 7 56 2 22 250 277 200 3 
62 7 239 144 307 42 77 136 47 
63 7 297 327 266 153 355 68 257 
64 7 308 280 100 238 319 217 161 
65 7 242 140 315 128 142 338 236 
66 7 111 96 70 139 157 43 286 
67 7 249 194 57 93 104 294 44 
68 7 355 327 257 297 63 266 353 
69 7 192 124 59 300 273 351 221 
70 7 96 286 66 43 111 47 139 
71 7 362 246 98 314 310 349 288 
72 7 326 365 38 14 7 321 103 
73 5 296 285 60 113 127 
74 7 279 39 233 12 105 243 237 
75 7 141 82 167 234 268 291 119 
76 7 129 45 150 276 8 34 199 
77 7 42 144 307 239 62 265 178 
78 5 270 352 293 361 226 
79 7 304 179 126 146 80 278 329 
80 7 313 213 146 21 329 79 126 
81 7 262 261 54 322 259 87 134 
82 7 268 234 75 169 141 248 214 
83 7 3 223 303 277 252 193 94 
84 5 217 227 319 241 293 
85 7 200 172 86 250 56 235 277 
86 7 235 356 85 371 172 277 200 
87 6 261 54 320 354 340 364 
88 7 267 5 232 138 218 333 135 
89 7 132 175 203 104 330 122 190 
90 7 52 160 139 66 157 43 96 
91 5 219 253 306 297 63 
92 6 318 32 203 122 110 294 
93 7 57 67 249 44 194 271 104 
94 6 193 252 303 223 31 83 
95 7 360 338 215 228 19 168 65 
96 7 70 66 111 286 43 139 367 
97 6 364 322 231 262 212 54 
98 7 362 246 71 310 288 349 314 
99 4 176 254 220 55 
100 7 238 308 64 280 319 314 161 
101 7 20 168 358 228 121 215 35 
102 7 323 147 359 299 18 155 289 
103 7 281 321 256 7 38 204 302 
104 7 175 294 89 67 44 194 203 
105 7 309 237 74 39 274 12 279 
106 4 254 9 136 99 
107 7 201 40 169 268 248 82 234 
108 7 264 4 34 276 52 160 150 
109 5 229 166 185 123 19 
110 3 92 32 318 
111 7 66 96 139 70 367 157 286 
112 7 145 129 148 156 264 76 108 
113 7 60 51 336 296 191 73 55 
114 5 158 21 245 353 329 
115 6 16 137 305 299 30 186 
116 6 125 208 332 29 27 212 
117 7 59 272 300 274 192 189 69 
118 7 294 37 32 36 194 183 104 
119 6 196 291 75 210 234 82 
120 7 353 187 23 121 358 213 21 
121 7 23 187 358 120 35 213 101 
122 5 203 318 92 89 132 
123 6 185 229 19 109 228 168 
124 6 69 370 192 59 273 189 
125 6 116 332 29 27 208 212 
126 7 329 344 53 79 304 130 80 
127 6 251 151 209 296 26 73 
128 7 315 335 236 142 65 242 224 
129 7 76 112 145 148 150 276 34 
130 5 344 53 177 126 304 
131 7 240 271 57 249 311 37 194 
132 7 89 206 269 190 203 175 330 
133 2 154 28 
134 6 259 53 114 81 329 158 
135 7 173 333 267 138 88 218 211 
136 5 239 62 144 106 42 
137 7 30 16 328 115 11 305 337 
138 7 267 88 232 5 135 316 333 
139 7 157 66 111 96 363 90 70 
140 7 242 65 338 142 315 236 360 
141 7 167 75 169 82 268 234 291 
142 7 236 315 128 224 242 65 140 
143 7 159 207 255 165 188 33 343 
144 7 42 62 307 239 77 136 47 
145 7 148 112 129 156 76 264 150 
146 7 278 313 80 213 79 187 35 
147 7 102 323 289 359 172 18 155 
148 6 145 112 156 129 76 264 
149 7 160 4 369 108 339 34 276 
150 7 276 34 199 369 4 76 264 
151 7 26 127 282 209 251 265 9 
152 7 6 165 188 275 17 283 255 
153 6 306 263 63 253 297 266 
154 3 28 133 341 
155 7 18 289 205 323 352 359 102 
156 6 148 145 112 129 43 47 
157 7 139 363 66 111 90 349 96 
158 7 114 21 245 353 80 329 313 
159 7 143 207 255 165 343 33 188 
160 7 52 149 108 264 90 339 4 
161 3 280 227 64 
162 4 226 357 202 78 
163 7 325 312 58 343 207 255 33 
164 7 311 37 331 36 240 131 118 
165 7 188 152 17 6 255 275 33 
166 5 109 229 358 185 68 
167 4 141 75 169 82 
168 7 228 19 101 215 20 95 360 
169 7 141 82 268 234 167 75 107 
170 7 15 2 10 22 341 357 250 
171 7 50 348 284 204 182 25 181 
172 7 85 86 200 147 174 356 216 
173 7 333 195 41 135 197 218 267 
174 7 216 172 337 356 86 11 147 
175 7 104 89 294 44 132 203 318 
176 5 99 55 191 220 254 
177 5 130 220 346 344 53 
178 7 265 48 77 295 42 282 307 
179 2 304 79 
180 6 342 283 275 17 33 188 
181 7 204 244 25 7 171 50 14 
182 7 284 348 334 171 50 302 256 
183 7 36 118 272 32 189 37 92 
184 3 328 30 137 
185 5 229 109 123 166 19 
186 3 305 115 16 
187 7 23 121 213 120 313 358 35 
188 7 17 165 152 275 255 33 283 
189 5 370 272 124 59 117 
190 7 330 269 132 89 44 175 206 
191 7 55 176 60 99 113 220 296 
192 7 69 300 59 124 273 351 117 
193 6 94 252 303 223 83 3 
194 7 67 249 57 294 37 93 104 
195 6 41 197 173 225 333 31 
196 7 119 210 291 46 208 75 292 
197 5 41 195 225 347 173 
198 4 324 317 247 24 
199 7 369 150 34 276 4 45 76 
200 7 250 85 56 2 172 15 86 
201 7 40 107 316 283 169 275 211 
202 4 226 78 162 241 
203 6 122 318 92 89 132 175 
204 7 7 181 50 171 256 302 103 
205 7 289 155 18 323 352 357 102 
206 5 132 269 122 89 203 
207 7 343 163 58 255 312 159 325 
208 7 116 332 125 212 29 231 46 
209 6 26 366 251 282 151 127 
210 7 46 336 196 51 119 231 285 
211 6 135 173 40 316 169 197 
212 6 332 364 29 340 27 97 
213 7 313 80 187 146 23 21 278 
214 7 248 292 234 268 82 372 75 
215 7 338 95 228 360 168 20 19 
216 7 174 337 11 30 147 172 16 
217 6 84 227 319 241 64 308 
218 7 333 88 5 267 232 135 138 
219 4 91 253 297 63 
220 5 346 177 99 176 55 
221 5 351 298 273 27 354 
222 5 372 14 244 317 198 
223 7 303 83 3 252 193 94 277 
224 7 236 142 128 315 335 242 65 
225 4 197 347 41 195 
226 4 162 202 78 270 
227 4 84 217 293 319 
228 7 168 19 215 95 360 338 20 
229 5 109 185 166 123 19 
230 6 301 345 13 260 339 287 
231 6 97 322 364 46 212 262 
232 7 5 88 267 138 218 333 135 
233 7 243 279 368 12 74 39 49 
234 7 268 82 248 75 214 169 141 
235 6 371 356 86 277 193 94 
236 7 142 315 128 224 242 65 335 
237 7 309 105 39 274 12 74 279 
238 6 100 280 64 308 314 161 
239 6 62 144 42 307 136 77 
240 7 131 271 249 57 311 37 194 
241 6 319 217 84 202 308 227 
242 7 65 140 315 142 236 128 338 
243 7 233 279 368 12 74 49 39 
244 5 25 181 222 14 171 
245 6 353 257 158 114 21 355 
246 7 362 98 71 310 349 288 314 
247 5 317 24 198 324 222 
248 7 214 292 234 268 82 75 169 
249 7 57 67 194 93 240 271 131 
250 7 200 2 56 85 15 22 61 
251 5 127 209 151 366 26 
252 6 303 193 94 223 83 31 
253 6 91 306 219 153 63 297 
254 4 106 99 176 9 
255 7 33 58 188 207 17 165 159 
256 7 302 50 334 204 103 171 281 
257 7 355 68 245 327 353 266 297 
258 7 335 360 128 95 315 338 65 
259 6 134 320 261 81 87 54 
260 6 339 13 230 301 345 160 
261 7 54 87 262 81 322 97 364 
262 7 322 54 261 97 81 364 231 
263 4 153 306 63 206 
264 7 108 276 34 4 150 112 369 
265 7 178 77 42 9 282 26 48 
266 6 327 63 257 355 297 245 
267 7 88 138 232 5 135 218 333 
268 7 82 234 248 75 169 141 214 
269 6 190 132 206 330 89 44 
270 4 293 78 361 352 
271 7 131 240 57 249 93 67 194 
272 7 117 189 183 59 36 331 124 
273 5 221 351 354 69 298 
274 7 237 309 39 117 105 12 300 
275 7 283 17 152 188 342 165 180 
276 7 34 150 4 369 199 264 108 
277 7 83 3 371 235 86 223 193 
278 7 146 79 313 35 213 80 179 
279 7 233 12 243 74 39 368 237 
280 7 64 308 238 100 161 319 217 
281 7 103 321 38 256 7 302 204 
282 7 26 209 48 151 265 178 366 
283 6 275 342 17 180 152 188 
284 7 348 182 171 334 50 25 302 
285 2 73 296 
286 7 70 47 96 111 66 43 367 
287 5 290 301 345 230 13 
288 7 310 349 98 246 362 363 71 
289 7 205 155 18 323 102 147 357 
290 5 287 301 345 230 13 
291 4 119 75 167 141 
292 7 214 248 234 268 372 82 222 
293 4 270 78 361 227 
294 7 104 118 175 194 67 32 318 
295 5 178 48 77 307 42 
296 7 73 60 113 127 191 285 55 
297 7 327 63 68 355 266 257 219 
298 6 351 221 27 29 273 332 
299 4 359 115 102 16 
300 7 192 59 69 117 12 124 39 
301 6 230 345 13 260 287 339 
302 7 256 50 334 204 171 103 182 
303 6 252 193 223 94 83 3 
304 4 79 179 344 126 
305 3 186 115 16 
306 6 153 253 263 63 91 297 
307 7 144 42 62 77 239 47 136 
308 7 64 280 100 238 319 217 241 
309 7 105 237 39 74 274 12 279 
310 7 349 246 362 363 71 98 288 
311 7 164 37 240 131 36 118 194 
312 7 343 163 325 207 58 255 33 
313 7 213 80 146 21 187 278 23 
314 6 71 362 246 98 238 310 
315 7 128 236 142 335 65 242 224 
316 6 40 138 201 267 283 135 
317 5 198 324 247 24 222 
318 6 92 203 122 32 175 104 
319 6 241 217 308 64 84 280 
320 3 87 259 261 
321 7 38 103 281 7 72 204 256 
322 6 97 262 231 364 54 261 
323 7 102 18 155 359 147 289 205 
324 4 198 317 247 24 
325 7 163 58 312 343 207 33 255 
326 7 365 72 14 38 7 6 321 
327 7 297 355 68 63 257 266 245 
328 5 137 30 16 184 115 
329 7 126 53 80 79 344 158 130 
330 7 190 44 89 269 132 175 104 
331 7 272 164 36 274 117 183 311 
332 6 29 212 27 125 208 116 
333 7 173 218 135 267 88 138 195 
334 7 50 302 182 256 171 284 348 
335 7 128 315 236 258 142 224 65 
336 7 51 210 113 46 60 285 73 
337 7 11 216 30 16 137 174 184 
338 7 360 95 215 228 65 242 140 
339 6 260 149 160 13 52 230 
340 5 354 364 212 87 97 
341 5 10 170 28 22 15 
342 6 180 283 17 275 33 188 
343 7 312 163 207 325 58 255 159 
344 5 130 304 126 53 177 
345 6 230 301 13 260 287 290 
346 5 220 177 176 99 55 
347 4 197 225 41 195 
348 7 284 182 171 334 50 25 302 
349 7 310 363 246 362 71 288 98 
350 4 361 359 352 18 
351 5 221 298 273 69 27 
352 6 361 18 350 155 78 205 
353 7 245 120 21 257 158 355 114 
354 5 340 273 87 221 364 
355 7 68 257 327 297 266 353 245 
356 5 235 371 86 174 225 
357 7 15 205 289 162 170 155 226 
358 7 121 23 101 187 120 166 35 
359 5 299 102 323 18 350 
360 7 95 338 215 228 19 65 242 
361 5 352 270 350 78 293 
362 7 246 71 98 310 349 314 288 
363 7 349 157 310 139 246 288 71 
364 6 97 212 340 231 322 54 
365 7 326 14 72 7 222 38 372 
366 4 209 251 186 26 
367 2 111 66 
368 7 243 233 279 74 348 284 12 
369 7 4 34 199 276 150 149 264 
370 3 124 189 69 
371 6 235 356 86 277 193 94 
372 5 222 198 324 317 14 
DEPOT_SECTION
   1
   -1
EOF
