NAME :  X-n420-kX-w167-c7.cctp
COMMENT : 	Adapted by Maziero, Usberti and Cavellucci from the Uchoa, Pecin, Pessoa, Poggi, Subramanian, and Vidal (2013)
TYPE :  CCTP
DIMENSION :    340
EDGE_WEIGHT_TYPE : 	EUC_2D	
CAPACITY : 	18
VERTICES_WITHIN_COVERAGE :  7
VERTICES_WITH_DEMAND : 	167
NODE_COORD_SECTION
1 500 500
2 707 633
3 405 122
4 811 419
5 11 667
6 336 612
7 366 50
8 98 836
9 414 996
10 243 713
11 100 232
12 891 946
13 132 204
14 25 642
15 994 18
16 636 897
17 214 651
18 108 619
19 882 399
20 863 607
21 409 585
22 247 882
23 553 507
24 677 258
25 673 644
26 25 182
27 251 111
28 263 799
29 660 359
30 351 288
31 172 127
32 382 441
33 231 650
34 966 485
35 964 107
36 876 164
37 949 328
38 936 70
39 229 744
40 161 214
41 581 594
42 154 860
43 23 374
44 736 600
45 594 542
46 846 684
47 355 471
48 675 597
49 663 653
50 61 889
51 685 150
52 129 248
53 161 301
54 180 836
55 427 670
56 833 860
57 669 251
58 411 403
59 450 926
60 591 505
61 468 157
62 288 484
63 574 955
64 795 521
65 41 65
66 175 486
67 74 436
68 907 13
69 579 912
70 765 835
71 176 189
72 972 351
73 470 22
74 577 469
75 561 672
76 110 670
77 811 614
78 460 344
79 862 486
80 22 369
81 898 295
82 89 934
83 164 871
84 487 617
85 731 565
86 470 722
87 509 209
88 860 845
89 515 312
90 434 712
91 388 521
92 573 250
93 155 316
94 143 923
95 247 971
96 641 297
97 763 749
98 585 887
99 987 361
100 153 215
101 150 669
102 76 153
103 456 635
104 778 497
105 334 529
106 764 789
107 963 378
108 262 404
109 32 672
110 118 874
111 764 315
112 931 462
113 168 831
114 443 2
115 571 812
116 185 964
117 368 628
118 366 788
119 48 374
120 8 464
121 459 77
122 345 357
123 315 149
124 458 286
125 974 86
126 167 854
127 441 425
128 172 20
129 646 948
130 444 937
131 950 129
132 866 18
133 915 849
134 119 279
135 319 332
136 832 902
137 421 365
138 963 71
139 478 741
140 443 54
141 509 966
142 70 520
143 311 207
144 648 127
145 726 506
146 371 345
147 154 221
148 475 537
149 322 738
150 118 284
151 297 415
152 530 967
153 752 797
154 394 589
155 482 59
156 497 863
157 171 716
158 610 528
159 405 568
160 638 940
161 940 914
162 4 886
163 215 994
164 294 675
165 121 701
166 143 460
167 14 530
168 383 815
169 982 781
170 424 566
171 358 11
172 902 869
173 490 744
174 567 535
175 424 613
176 820 574
177 125 213
178 164 351
179 605 589
180 844 145
181 978 462
182 503 582
183 673 603
184 643 721
185 831 659
186 137 502
187 939 228
188 999 456
189 722 196
190 390 650
191 288 304
192 895 896
193 514 985
194 32 202
195 20 476
196 400 947
197 794 478
198 681 487
199 398 522
200 889 98
201 226 257
202 858 168
203 343 182
204 511 170
205 699 283
206 954 856
207 183 100
208 208 169
209 923 501
210 170 88
211 722 458
212 153 129
213 917 390
214 879 482
215 853 476
216 91 194
217 860 607
218 159 131
219 925 291
220 705 361
221 863 371
222 181 47
223 780 515
224 24 239
225 369 28
226 803 450
227 897 396
228 176 310
229 983 470
230 917 370
231 754 457
232 969 335
233 194 4
234 796 468
235 680 629
236 175 153
237 207 142
238 221 99
239 290 232
240 990 502
241 960 462
242 862 259
243 208 38
244 633 344
245 187 350
246 110 275
247 907 303
248 160 11
249 795 482
250 865 555
251 726 319
252 169 121
253 816 609
254 894 327
255 54 27
256 895 569
257 348 150
258 883 463
259 298 65
260 229 190
261 201 12
262 470 60
263 923 737
264 978 312
265 89 97
266 645 398
267 279 85
268 750 169
269 180 86
270 713 461
271 871 410
272 615 466
273 713 648
274 268 124
275 912 446
276 887 399
277 819 560
278 159 134
279 29 81
280 2 63
281 907 245
282 881 592
283 864 410
284 876 318
285 881 413
286 329 214
287 950 499
288 887 497
289 801 491
290 159 215
291 555 303
292 813 434
293 708 495
294 664 522
295 656 391
296 879 583
297 224 329
298 726 321
299 863 263
300 887 641
301 811 503
302 835 481
303 959 431
304 76 115
305 891 414
306 813 425
307 234 75
308 762 300
309 350 278
310 732 558
311 192 142
312 883 462
313 712 63
314 118 193
315 171 165
316 644 466
317 807 418
318 807 149
319 955 230
320 238 113
321 836 492
322 192 32
323 868 379
324 773 293
325 987 568
326 297 185
327 711 376
328 171 155
329 729 544
330 130 123
331 799 418
332 861 382
333 971 288
334 918 397
335 774 308
336 768 507
337 768 342
338 417 125
339 818 400
340 856 637
DEMAND_SECTION
2 6
3 9
4 8
5 6
6 4
7 8
8 3
9 4
10 10
11 1
12 9
13 9
14 5
15 10
16 5
17 6
18 9
19 8
20 10
21 8
22 8
23 4
24 8
25 7
26 3
27 5
28 10
29 10
30 8
31 2
32 2
33 8
34 7
35 10
36 9
37 2
38 9
39 10
40 2
41 1
42 6
43 1
44 2
45 4
46 6
47 7
48 8
49 8
50 5
51 7
52 4
53 7
54 1
55 5
56 6
57 9
58 2
59 6
60 4
61 6
62 5
63 10
64 7
65 4
66 6
67 1
68 2
69 4
70 9
71 1
72 6
73 4
74 9
75 1
76 5
77 2
78 2
79 9
80 6
81 7
82 10
83 10
84 8
85 7
86 3
87 2
88 10
89 3
90 5
91 8
92 10
93 3
94 7
95 5
96 3
97 10
98 7
99 10
100 4
101 3
102 3
103 4
104 8
105 7
106 3
107 10
108 5
109 2
110 3
111 1
112 10
113 9
114 9
115 4
116 9
117 9
118 3
119 6
120 3
121 6
122 6
123 6
124 7
125 4
126 4
127 1
128 1
129 2
130 3
131 5
132 1
133 8
134 9
135 1
136 9
137 6
138 2
139 6
140 8
141 6
142 7
143 4
144 2
145 10
146 6
147 8
148 3
149 3
150 10
151 2
152 5
153 2
154 10
155 1
156 10
157 8
158 4
159 10
160 2
161 5
162 8
163 3
164 10
165 10
166 7
167 6
168 1
COVERAGE_SECTION
2 7 273 235 25 44 183 48 49 
3 7 338 257 121 61 140 7 203 
4 5 317 306 331 292 339 
5 7 109 14 76 18 165 167 101 
6 7 117 154 190 164 21 159 105 
7 7 225 171 259 140 3 114 338 
8 7 110 42 50 113 126 83 54 
9 7 196 130 59 141 193 152 156 
10 7 39 33 164 17 157 149 28 
11 7 177 52 216 13 314 246 134 
12 7 192 161 136 172 133 56 88 
13 7 177 314 100 147 290 40 216 
14 7 5 109 18 76 165 167 101 
15 7 138 125 38 68 35 131 132 
16 7 160 98 129 69 63 115 152 
17 7 33 101 10 157 164 39 76 
18 7 76 101 165 14 109 142 5 
19 7 276 285 227 271 305 283 323 
20 7 217 282 296 340 300 253 256 
21 7 154 159 170 175 117 199 91 
22 7 54 83 28 126 95 113 42 
23 7 174 60 74 45 158 272 148 
24 7 57 205 96 189 251 298 308 
25 7 49 235 2 273 183 48 44 
26 7 194 224 102 216 304 11 314 
27 5 320 274 238 267 307 
28 7 39 22 149 10 54 113 118 
29 6 244 295 266 220 327 96 
30 7 309 135 146 191 122 286 239 
31 7 252 218 278 212 311 236 328 
32 7 47 58 127 91 199 137 151 
33 7 17 10 164 101 157 39 6 
34 7 287 229 241 181 240 112 188 
35 7 125 131 138 38 200 15 36 
36 6 202 180 200 318 131 281 
37 7 232 72 264 219 333 247 99 
38 7 138 125 35 200 131 68 15 
39 7 10 157 28 149 17 33 164 
40 7 290 100 147 71 13 177 52 
41 7 179 45 174 158 182 75 60 
42 7 126 83 113 54 110 8 94 
43 7 80 119 67 120 195 150 246 
44 7 85 310 2 273 329 48 183 
45 7 158 174 60 179 23 41 294 
46 7 185 340 300 77 217 20 253 
47 7 32 91 105 199 62 151 58 
48 7 183 235 25 2 49 44 85 
49 7 25 235 2 273 183 48 184 
50 7 82 162 110 8 94 42 83 
51 7 144 189 268 313 57 24 318 
52 7 11 134 246 177 147 150 100 
53 7 93 228 150 134 178 245 246 
54 7 113 126 42 83 110 22 8 
55 7 190 90 103 175 86 117 84 
56 7 88 136 172 70 192 133 106 
57 7 24 205 96 189 251 298 92 
58 7 127 137 32 146 78 122 47 
59 7 130 196 141 9 156 193 152 
60 7 158 45 23 174 74 272 316 
61 7 204 338 87 3 121 262 155 
62 7 105 47 151 108 32 91 66 
63 7 69 152 141 160 193 98 129 
64 5 223 301 104 336 289 
65 7 279 280 255 265 304 102 330 
66 7 166 186 142 62 67 108 178 
67 7 119 195 120 166 43 142 80 
68 7 132 38 138 15 200 125 35 
69 7 98 63 16 160 152 129 141 
70 7 153 106 56 97 136 88 172 
71 7 315 40 290 328 100 236 208 
72 7 232 99 107 37 264 230 333 
73 7 114 262 155 140 121 225 7 
74 7 272 60 23 174 316 158 45 
75 7 41 84 179 184 173 49 86 
76 7 165 101 18 157 109 14 5 
77 7 253 176 185 217 340 20 277 
78 7 137 124 89 58 127 146 291 
79 5 215 214 288 302 321 
80 7 43 119 67 120 195 150 246 
81 7 247 219 254 284 299 242 281 
82 7 50 94 110 8 42 83 162 
83 7 42 126 54 113 110 94 8 
84 7 103 182 175 55 148 170 21 
85 7 310 329 44 145 48 183 336 
86 7 139 173 90 55 103 75 84 
87 7 204 61 92 124 89 291 338 
88 7 56 172 133 192 136 206 70 
89 7 291 124 78 92 87 137 244 
90 7 86 55 139 173 190 103 175 
91 7 199 159 105 170 47 21 154 
92 7 291 87 96 89 57 204 24 
93 7 53 228 178 245 150 134 246 
94 7 82 110 83 116 42 126 50 
95 7 163 116 22 94 83 126 42 
96 7 244 24 57 205 29 92 291 
97 7 106 153 70 46 185 273 184 
98 7 69 16 63 160 115 129 156 
99 7 72 107 232 37 264 230 303 
100 7 147 290 40 13 177 71 52 
101 7 76 165 157 18 17 33 10 
102 7 304 216 265 314 26 330 194 
103 7 84 175 55 190 21 182 170 
104 7 336 223 249 289 197 64 234 
105 7 91 47 62 199 159 6 154 
106 7 153 97 70 56 88 136 46 
107 6 72 99 232 230 213 334 
108 7 151 62 297 135 245 122 191 
109 7 5 14 76 18 165 101 167 
110 7 42 8 83 126 94 50 113 
111 4 335 308 324 337 
112 6 275 241 209 34 287 303 
113 7 54 126 42 83 110 8 22 
114 7 73 140 262 155 121 225 171 
115 7 98 156 69 173 16 184 139 
116 7 163 94 95 83 82 22 42 
117 7 190 6 154 175 21 159 55 
118 7 168 149 90 28 139 86 173 
119 7 43 80 67 120 195 150 246 
120 7 195 167 67 142 43 80 119 
121 7 262 140 155 73 338 3 114 
122 7 146 135 30 151 137 191 309 
123 7 257 326 203 274 143 286 267 
124 7 78 89 137 87 291 146 30 
125 7 138 35 38 131 15 200 68 
126 7 42 83 54 113 110 8 94 
127 7 58 32 137 78 47 146 199 
128 7 248 322 233 222 261 243 269 
129 7 160 16 63 69 98 152 193 
130 7 59 196 9 141 193 152 156 
131 7 35 125 138 38 200 36 187 
132 7 68 200 38 138 15 125 180 
133 7 172 206 192 88 161 56 169 
134 7 150 246 52 53 11 93 228 
135 7 122 191 30 146 309 151 108 
136 7 56 192 88 12 172 70 133 
137 7 58 78 146 127 122 32 124 
138 7 125 38 35 131 15 200 68 
139 7 173 86 90 55 75 103 115 
140 7 121 262 155 73 114 338 7 
141 7 193 152 63 59 130 69 9 
142 7 167 195 186 67 120 166 18 
143 7 286 326 239 203 123 257 309 
144 7 51 313 189 268 57 24 92 
145 7 293 329 336 270 211 198 310 
146 7 122 135 137 30 58 309 78 
147 7 100 290 40 13 177 52 71 
148 7 182 170 159 199 84 21 23 
149 7 118 164 10 28 39 168 190 
150 7 134 246 52 53 93 11 228 
151 7 108 62 122 47 135 32 146 
152 7 141 193 63 69 59 130 98 
153 7 106 70 97 56 88 136 184 
154 7 21 159 170 175 117 190 6 
155 7 262 121 73 140 114 338 3 
156 7 59 115 98 130 69 141 152 
157 7 101 165 39 10 76 17 33 
158 7 45 60 174 294 23 179 272 
159 7 21 170 154 199 175 91 117 
160 7 129 16 69 63 98 152 141 
161 7 192 12 172 206 133 88 136 
162 7 50 82 8 110 94 42 83 
163 7 95 116 94 22 83 82 42 
164 7 10 33 149 6 17 117 39 
165 7 76 101 157 18 109 17 14 
166 7 66 186 67 142 178 245 195 
167 7 195 142 120 67 14 186 18 
168 7 118 149 90 139 28 156 86 
169 6 263 206 133 172 88 161 
170 7 159 21 154 175 199 91 148 
171 5 225 7 259 114 140 
172 7 133 192 88 206 161 56 136 
173 7 139 86 90 55 75 115 103 
174 7 45 23 60 158 41 179 74 
175 7 21 154 103 170 159 190 55 
176 7 277 253 77 250 217 20 64 
177 7 13 314 100 147 11 290 52 
178 7 245 93 228 53 297 150 134 
179 7 41 45 158 174 183 48 60 
180 5 202 36 318 200 268 
181 7 229 241 188 34 303 240 287 
182 7 84 148 103 41 174 170 175 
183 7 48 235 25 2 49 273 44 
184 7 49 25 75 235 273 2 115 
185 7 46 340 77 253 300 217 20 
186 7 66 166 142 67 195 18 167 
187 7 319 281 219 333 81 247 242 
188 7 229 181 241 34 240 303 287 
189 6 268 51 57 24 205 318 
190 7 117 55 175 154 6 21 103 
191 7 135 30 309 297 239 122 201 
192 7 172 161 12 133 88 136 206 
193 7 141 152 63 130 59 69 9 
194 7 26 224 216 102 11 314 177 
195 7 120 167 67 142 43 119 80 
196 7 130 9 59 141 193 156 152 
197 7 249 234 289 104 226 301 336 
198 6 293 294 270 316 145 211 
199 7 91 159 170 21 105 47 154 
200 7 38 180 36 131 35 202 138 
201 7 260 239 297 228 40 53 191 
202 5 36 180 318 200 242 
203 7 257 286 143 123 326 239 3 
204 7 87 61 92 338 121 155 3 
205 7 24 57 251 298 96 308 111 
206 7 133 172 161 192 169 88 12 
207 5 269 210 252 31 238 
208 7 237 260 311 236 315 71 328 
209 6 287 288 112 34 214 241 
210 5 269 207 252 31 222 
211 5 270 231 293 145 198 
212 7 218 278 252 31 330 328 236 
213 6 334 230 227 276 305 19 
214 5 79 288 258 312 215 
215 4 79 302 321 214 
216 7 314 11 177 13 102 194 100 
217 7 20 282 340 296 300 253 77 
218 7 278 212 31 252 236 328 330 
219 7 247 81 37 333 254 281 284 
220 4 327 29 298 251 
221 3 323 332 19 
222 7 322 128 243 269 261 210 248 
223 7 336 64 104 289 301 249 197 
224 7 194 26 11 216 246 102 134 
225 7 171 7 114 140 259 3 73 
226 5 234 292 306 197 4 
227 7 276 19 305 213 334 285 271 
228 7 53 93 245 178 297 150 134 
229 7 181 188 34 241 240 287 303 
230 5 213 334 227 276 19 
231 5 211 270 234 197 104 
232 7 72 37 264 99 107 333 219 
233 6 261 128 322 248 243 222 
234 5 197 249 226 289 104 
235 7 25 2 183 49 48 273 44 
236 7 328 315 311 278 31 218 212 
237 7 311 208 236 31 328 320 252 
238 4 320 307 27 207 
239 7 143 286 326 201 191 203 260 
240 7 34 229 287 181 188 241 325 
241 7 181 34 229 112 303 287 188 
242 3 299 281 81 
243 6 322 261 222 233 128 307 
244 7 29 96 295 266 220 327 291 
245 7 178 228 297 93 53 108 150 
246 7 134 150 52 11 53 93 177 
247 7 81 219 254 284 37 281 299 
248 7 128 233 322 261 222 243 210 
249 7 197 289 234 104 301 226 223 
250 7 296 256 282 277 176 20 217 
251 7 298 111 308 205 220 337 335 
252 7 31 218 278 212 207 311 210 
253 7 77 176 217 20 277 340 185 
254 3 284 247 81 
255 7 65 279 280 265 304 248 128 
256 5 296 282 250 20 217 
257 7 203 123 326 3 286 143 338 
258 3 312 214 79 
259 3 267 307 27 
260 7 208 71 237 311 315 236 201 
261 6 233 322 243 128 222 248 
262 7 155 121 140 73 114 338 3 
263 6 169 46 300 133 340 185 
264 7 232 333 37 72 99 219 107 
265 7 304 330 102 65 279 212 218 
266 5 295 29 244 316 220 
267 5 259 27 274 307 320 
268 5 189 318 51 180 202 
269 5 210 207 252 222 31 
270 5 211 293 198 231 145 
271 5 283 285 19 276 305 
272 7 316 74 60 158 198 23 266 
273 7 2 235 25 49 44 183 48 
274 7 27 320 267 123 238 307 237 
275 4 112 312 258 305 
276 7 19 227 285 305 271 283 323 
277 5 176 64 250 253 77 
278 7 218 212 31 252 328 236 330 
279 7 65 280 304 255 265 102 26 
280 7 279 65 255 304 265 102 26 
281 7 187 242 299 219 319 81 247 
282 6 296 20 217 256 250 300 
283 3 271 285 19 
284 3 254 81 247 
285 6 271 305 19 276 283 227 
286 7 143 203 239 326 123 257 309 
287 6 34 209 241 240 112 229 
288 6 214 79 258 312 209 215 
289 6 249 197 301 104 234 64 
290 7 40 100 147 13 71 177 52 
291 7 89 92 96 244 124 78 87 
292 5 306 4 317 226 331 
293 7 145 198 270 211 294 329 231 
294 7 198 293 158 316 145 329 45 
295 5 266 29 244 220 327 
296 6 282 256 20 217 250 300 
297 7 245 228 178 53 191 93 201 
298 6 251 111 308 220 205 337 
299 3 242 81 281 
300 7 340 20 217 282 46 185 296 
301 3 289 64 249 
302 3 321 215 79 
303 6 241 181 112 229 188 275 
304 7 265 102 330 279 65 212 216 
305 6 285 276 19 227 271 283 
306 4 4 292 317 331 
307 3 238 320 27 
308 5 324 335 111 251 298 
309 7 30 135 191 286 146 239 122 
310 7 85 329 44 145 336 223 293 
311 7 237 236 31 328 208 252 315 
312 3 258 214 79 
313 7 51 144 268 318 189 180 132 
314 7 13 177 216 100 11 147 290 
315 7 328 236 71 311 278 218 208 
316 6 272 198 294 60 74 266 
317 4 4 331 306 292 
318 5 180 202 268 36 189 
319 7 187 281 333 219 264 81 247 
320 5 27 238 274 307 237 
321 3 302 215 79 
322 6 243 222 261 128 233 248 
323 4 332 221 19 276 
324 3 308 335 111 
325 3 240 287 34 
326 7 143 123 286 203 239 257 260 
327 2 220 29 
328 7 236 315 278 311 218 31 212 
329 7 310 85 145 293 336 44 223 
330 7 212 218 278 252 31 265 328 
331 3 317 4 306 
332 4 323 221 19 283 
333 7 264 37 219 232 319 72 247 
334 6 213 227 230 276 305 19 
335 4 111 308 324 337 
336 7 104 223 64 249 289 197 145 
337 1 111 
338 7 3 61 121 257 140 262 7 
339 1 4 
340 7 217 20 300 185 46 253 77 
DEPOT_SECTION
   1
   -1
EOF
