NAME :  X-n459-kX-w183-c7.cctp
COMMENT : 	Adapted by Maziero, Usberti and Cavellucci from the Uchoa, Pecin, Pessoa, Poggi, Subramanian, and Vidal (2013)
TYPE :  CCTP
DIMENSION :    458
EDGE_WEIGHT_TYPE : 	EUC_2D	
CAPACITY : 	1106
VERTICES_WITHIN_COVERAGE :  7
VERTICES_WITH_DEMAND : 	183
NODE_COORD_SECTION
1 500 500
2 832 885
3 777 632
4 406 257
5 620 467
6 343 166
7 355 345
8 393 299
9 631 767
10 384 340
11 643 630
12 786 593
13 789 727
14 443 205
15 679 408
16 845 535
17 732 820
18 890 861
19 645 689
20 800 517
21 951 643
22 828 746
23 862 625
24 606 432
25 672 984
26 580 338
27 629 494
28 809 663
29 738 595
30 604 320
31 645 532
32 688 728
33 390 680
34 842 517
35 525 404
36 697 719
37 837 853
38 741 585
39 628 506
40 354 280
41 726 834
42 721 635
43 448 363
44 963 702
45 570 484
46 389 281
47 708 380
48 522 439
49 771 523
50 778 645
51 402 318
52 817 717
53 730 655
54 814 925
55 743 362
56 568 298
57 555 132
58 937 637
59 542 678
60 822 854
61 711 697
62 603 310
63 864 674
64 850 879
65 280 198
66 502 417
67 764 610
68 729 822
69 307 258
70 896 958
71 774 732
72 684 446
73 691 793
74 905 888
75 664 411
76 875 981
77 477 226
78 607 624
79 823 875
80 558 543
81 410 237
82 712 692
83 804 678
84 491 317
85 475 280
86 881 872
87 371 269
88 520 562
89 590 431
90 420 245
91 811 647
92 501 507
93 684 647
94 739 969
95 854 717
96 844 268
97 520 823
98 866 966
99 720 645
100 564 493
101 653 541
102 831 758
103 694 804
104 661 469
105 417 251
106 683 364
107 648 479
108 255 225
109 836 934
110 811 960
111 888 492
112 111 261
113 866 827
114 822 876
115 672 419
116 750 974
117 545 420
118 140 267
119 925 749
120 505 282
121 701 477
122 427 272
123 293 242
124 757 929
125 856 861
126 848 809
127 331 214
128 682 480
129 804 638
130 349 234
131 426 194
132 499 348
133 692 700
134 331 318
135 738 644
136 967 900
137 604 563
138 701 540
139 523 429
140 834 880
141 714 644
142 369 222
143 720 566
144 606 512
145 840 926
146 786 354
147 667 709
148 670 508
149 456 202
150 827 687
151 871 800
152 556 837
153 810 589
154 537 360
155 456 275
156 688 214
157 346 163
158 880 569
159 360 215
160 849 686
161 617 420
162 308 466
163 734 534
164 880 638
165 751 763
166 616 485
167 719 744
168 371 346
169 379 420
170 565 524
171 377 138
172 864 721
173 823 535
174 367 218
175 614 761
176 659 383
177 867 910
178 717 895
179 865 793
180 588 663
181 595 488
182 408 268
183 713 863
184 652 409
185 920 394
186 819 367
187 653 425
188 618 425
189 657 290
190 709 839
191 739 541
192 909 732
193 373 218
194 375 283
195 278 391
196 843 873
197 443 229
198 756 702
199 365 293
200 821 637
201 477 191
202 401 102
203 359 290
204 791 751
205 938 787
206 709 469
207 329 178
208 559 543
209 916 882
210 758 635
211 855 710
212 797 783
213 428 238
214 802 823
215 730 542
216 797 464
217 217 29
218 939 745
219 911 889
220 829 679
221 678 523
222 709 224
223 550 429
224 821 933
225 798 482
226 686 615
227 735 658
228 728 531
229 736 452
230 721 459
231 818 377
232 421 479
233 768 524
234 498 441
235 601 454
236 851 574
237 662 511
238 526 279
239 447 601
240 889 610
241 891 930
242 483 278
243 728 845
244 451 299
245 308 215
246 643 486
247 758 963
248 439 458
249 830 608
250 387 233
251 837 948
252 561 410
253 721 439
254 778 640
255 826 627
256 644 724
257 515 465
258 728 651
259 666 474
260 759 94
261 525 419
262 927 692
263 597 228
264 448 218
265 575 349
266 921 883
267 406 172
268 840 847
269 787 660
270 301 545
271 668 880
272 594 416
273 791 861
274 740 581
275 438 272
276 500 259
277 600 464
278 965 412
279 614 568
280 829 644
281 556 518
282 660 676
283 525 793
284 623 482
285 369 195
286 805 668
287 820 936
288 879 886
289 713 679
290 728 597
291 833 719
292 720 473
293 744 569
294 739 539
295 644 446
296 896 850
297 393 284
298 708 586
299 694 612
300 446 162
301 383 213
302 738 669
303 726 702
304 749 641
305 499 397
306 335 416
307 828 951
308 634 368
309 720 559
310 428 272
311 664 226
312 772 626
313 602 466
314 592 394
315 627 408
316 754 637
317 643 572
318 699 167
319 880 867
320 493 305
321 698 630
322 819 640
323 819 577
324 860 866
325 303 326
326 523 470
327 780 647
328 630 579
329 893 578
330 545 465
331 782 723
332 639 609
333 313 267
334 810 893
335 407 307
336 808 666
337 621 427
338 841 943
339 761 602
340 513 340
341 335 150
342 807 564
343 715 936
344 818 834
345 881 870
346 300 679
347 628 402
348 697 551
349 342 373
350 819 859
351 830 955
352 651 493
353 378 248
354 675 424
355 700 76
356 398 303
357 890 373
358 799 623
359 812 806
360 770 860
361 776 711
362 661 839
363 829 895
364 392 227
365 891 565
366 569 489
367 824 716
368 827 436
369 380 217
370 527 376
371 838 855
372 537 432
373 468 195
374 714 807
375 553 104
376 448 331
377 846 863
378 815 689
379 639 332
380 748 365
381 577 442
382 572 461
383 431 304
384 731 688
385 415 256
386 933 687
387 461 392
388 827 906
389 786 737
390 825 375
391 583 513
392 793 632
393 540 374
394 604 445
395 303 293
396 802 534
397 443 308
398 298 118
399 500 353
400 818 892
401 487 444
402 744 657
403 701 547
404 297 237
405 660 436
406 580 450
407 591 411
408 877 905
409 377 314
410 868 819
411 750 857
412 643 336
413 770 609
414 873 547
415 746 949
416 736 788
417 676 521
418 934 919
419 673 493
420 817 914
421 493 28
422 322 227
423 746 617
424 754 950
425 523 296
426 675 488
427 860 848
428 466 251
429 772 307
430 396 235
431 796 976
432 792 646
433 417 267
434 871 536
435 285 205
436 474 257
437 854 648
438 602 262
439 950 821
440 698 633
441 760 957
442 418 292
443 690 602
444 669 683
445 565 562
446 832 811
447 797 722
448 594 646
449 597 358
450 944 834
451 776 610
452 719 441
453 832 908
454 702 378
455 604 494
456 757 832
457 647 400
458 601 706
DEMAND_SECTION
2 71
3 54
4 74
5 9
6 91
7 98
8 72
9 67
10 70
11 68
12 92
13 93
14 97
15 23
16 75
17 61
18 91
19 61
20 89
21 70
22 63
23 93
24 18
25 65
26 33
27 11
28 80
29 88
30 7
31 71
32 68
33 38
34 79
35 28
36 63
37 99
38 99
39 94
40 69
41 78
42 76
43 90
44 57
45 29
46 82
47 42
48 18
49 58
50 89
51 85
52 66
53 57
54 75
55 1
56 49
57 8
58 51
59 67
60 58
61 66
62 13
63 69
64 85
65 53
66 30
67 67
68 79
69 79
70 90
71 81
72 33
73 80
74 78
75 6
76 93
77 60
78 60
79 83
80 97
81 76
82 60
83 94
84 59
85 72
86 58
87 59
88 97
89 11
90 70
91 90
92 54
93 73
94 61
95 52
96 46
97 77
98 60
99 100
100 10
101 100
102 76
103 67
104 45
105 84
106 14
107 49
108 61
109 97
110 55
111 9
112 52
113 99
114 83
115 26
116 85
117 43
118 74
119 98
120 28
121 5
122 66
123 71
124 58
125 90
126 75
127 59
128 3
129 95
130 62
131 54
132 78
133 93
134 54
135 57
136 100
137 89
138 72
139 19
140 55
141 81
142 86
143 64
144 87
145 97
146 7
147 75
148 76
149 98
150 68
151 67
152 59
153 76
154 27
155 67
156 50
157 72
158 91
159 54
160 54
161 11
162 55
163 62
164 89
165 61
166 19
167 79
168 71
169 56
170 75
171 97
172 51
173 93
174 54
175 93
176 47
177 95
178 67
179 77
180 93
181 26
182 82
183 78
184 17
COVERAGE_SECTION
2 7 140 363 79 114 196 400 64 
3 7 254 312 50 327 392 210 432 
4 7 385 182 105 433 90 81 430 
5 7 284 166 313 277 235 394 27 
6 7 157 207 341 285 171 127 159 
7 7 168 10 349 134 409 199 51 
8 7 356 297 335 46 51 409 194 
9 7 175 256 73 147 458 32 103 
10 7 168 409 51 7 335 356 8 
11 7 332 78 93 226 282 448 328 
12 7 451 413 153 339 67 358 312 
13 7 331 447 389 71 361 204 52 
14 7 149 264 131 197 373 213 201 
15 7 115 75 354 184 187 176 457 
16 7 34 173 434 414 236 396 20 
17 7 68 41 374 243 456 190 416 
18 7 319 296 345 86 288 324 74 
19 7 282 444 147 256 458 133 93 
20 7 396 173 49 233 225 34 16 
21 7 58 386 262 44 240 164 329 
22 7 102 291 367 52 204 95 447 
23 7 164 437 240 249 255 280 200 
24 7 394 188 89 161 337 272 235 
25 7 343 94 116 415 247 424 441 
26 7 265 449 30 62 56 154 393 
27 7 39 284 166 246 352 107 455 
28 7 336 286 83 91 269 432 129 
29 7 38 290 274 423 339 293 67 
30 7 62 26 379 449 265 56 412 
31 7 101 237 39 417 221 148 352 
32 7 36 133 147 167 61 82 256 
33 7 346 239 59 270 88 283 97 
34 7 16 173 434 20 396 414 111 
35 7 261 139 66 117 305 370 372 
36 7 32 133 61 82 147 167 303 
37 7 371 268 377 60 350 125 196 
38 7 274 29 293 290 339 143 423 
39 7 27 144 166 246 284 352 455 
40 7 203 199 87 194 46 297 353 
41 7 243 68 17 190 374 456 183 
42 7 99 141 258 135 53 440 321 
43 7 376 387 132 399 397 305 383 
44 7 386 262 218 21 119 192 58 
45 7 366 100 382 181 330 391 406 
46 7 297 194 8 87 182 356 199 
47 7 454 106 55 15 380 176 115 
48 7 139 372 261 234 257 66 117 
49 7 233 20 396 294 191 163 228 
50 7 327 254 3 432 269 312 392 
51 7 335 356 8 409 10 442 383 
52 7 367 291 447 378 13 22 150 
53 7 258 227 99 135 402 302 141 
54 7 224 420 287 388 109 453 145 
55 6 380 47 146 454 106 429 
56 7 62 26 30 425 238 438 265 
57 7 375 201 263 373 300 149 421 
58 7 21 386 240 262 164 44 329 
59 7 180 448 458 78 19 175 11 
60 7 350 37 371 268 344 79 114 
61 7 82 303 289 133 384 36 32 
62 7 30 26 56 379 265 412 438 
63 7 160 437 220 211 150 164 95 
64 7 196 140 324 377 2 125 363 
65 7 435 245 108 404 123 422 127 
66 7 305 261 139 234 35 48 401 
67 7 413 339 451 312 423 3 210 
68 7 17 41 374 243 190 456 416 
69 7 333 123 404 422 395 245 130 
70 7 241 76 98 418 177 408 338 
71 7 331 389 13 361 204 447 198 
72 7 354 405 115 104 259 128 206 
73 7 103 374 416 68 17 190 41 
74 7 219 209 266 288 86 345 18 
75 7 115 184 15 354 187 457 405 
76 7 98 70 251 338 351 241 307 
77 7 428 264 436 149 373 197 201 
78 7 448 332 11 180 328 279 137 
79 7 114 140 2 350 400 196 60 
80 7 208 170 445 281 391 88 100 
81 7 90 430 105 213 4 385 364 
82 7 61 289 303 384 133 36 302 
83 7 286 336 28 378 150 220 269 
84 7 320 132 340 399 120 425 85 
85 7 242 155 436 120 428 244 320 
86 7 345 319 18 288 324 125 296 
87 7 194 40 46 353 203 199 297 
88 7 80 208 445 281 92 170 391 
89 7 24 272 381 394 407 406 235 
90 7 105 213 385 81 4 433 182 
91 7 129 322 200 28 280 336 432 
92 7 326 257 281 88 330 100 401 
93 7 440 321 141 226 99 299 282 
94 7 116 247 415 424 441 343 124 
95 7 211 172 291 367 160 52 22 
96 7 429 186 146 390 231 357 380 
97 7 283 152 175 9 362 458 59 
98 7 76 70 251 338 351 307 109 
99 7 141 42 258 53 135 227 440 
100 7 366 45 281 391 170 181 382 
101 7 31 417 221 237 317 148 39 
102 7 22 291 204 212 52 367 95 
103 7 73 374 190 68 17 41 416 
104 7 259 107 128 426 246 352 419 
105 7 385 90 4 81 433 213 182 
106 7 454 47 176 15 308 412 75 
107 7 246 352 104 259 27 284 426 
108 7 435 65 123 404 245 69 422 
109 7 145 338 251 224 287 307 351 
110 7 307 351 431 287 224 251 338 
111 7 434 34 414 16 365 158 173 
112 7 118 108 65 123 435 404 395 
113 7 410 427 126 151 268 179 125 
114 7 79 2 140 400 350 363 196 
115 7 354 75 15 187 405 184 72 
116 7 94 247 441 424 415 124 431 
117 7 223 372 252 261 139 35 48 
118 7 112 108 123 65 435 404 395 
119 7 218 192 205 262 44 386 172 
120 7 238 242 425 276 320 85 84 
121 7 206 128 292 230 426 419 72 
122 7 310 275 433 182 385 442 105 
123 7 404 69 245 333 422 435 108 
124 7 424 415 441 247 343 94 116 
125 7 324 377 427 196 64 371 37 
126 7 446 410 179 113 151 359 268 
127 7 422 245 130 159 174 207 142 
128 7 426 419 259 121 104 206 148 
129 7 91 392 432 322 358 200 28 
130 7 159 142 174 127 422 193 353 
131 7 14 267 149 264 300 197 373 
132 7 399 340 84 154 370 320 305 
133 7 61 36 82 147 32 444 289 
134 7 325 7 395 203 199 40 409 
135 7 304 258 53 227 402 316 99 
136 7 418 266 209 219 74 450 439 
137 7 279 328 445 317 208 80 31 
138 7 403 348 309 228 215 221 417 
139 7 48 261 372 66 117 35 223 
140 7 2 196 79 114 64 363 400 
141 7 99 42 258 53 440 321 135 
142 7 174 193 159 369 301 250 130 
143 7 309 298 293 274 215 348 403 
144 7 455 39 391 181 27 166 284 
145 7 109 338 224 453 251 287 388 
146 6 186 231 380 55 390 429 
147 7 444 133 256 32 19 36 282 
148 7 237 417 419 221 426 352 128 
149 7 14 373 264 201 197 131 77 
150 7 220 378 160 83 336 286 367 
151 7 179 410 126 113 446 427 268 
152 7 97 283 175 9 362 271 458 
153 7 323 12 342 249 358 451 255 
154 7 393 370 340 399 132 265 35 
155 7 275 85 244 436 428 242 310 
156 7 222 311 318 189 263 438 429 
157 7 6 341 207 285 171 127 159 
158 7 365 329 414 236 434 240 16 
159 7 174 142 193 369 130 285 301 
160 7 63 220 150 211 95 378 291 
161 7 188 337 24 315 347 272 394 
162 7 306 270 195 169 349 232 7 
163 7 228 294 191 215 309 138 143 
164 7 23 437 240 63 280 255 58 
165 7 416 167 71 204 389 212 331 
166 7 284 455 27 5 181 39 313 
167 7 36 32 165 303 416 61 82 
168 7 10 7 409 349 51 134 356 
169 7 306 349 248 232 168 7 10 
170 7 281 80 208 391 100 366 445 
171 7 157 202 6 341 267 285 207 
172 7 95 211 291 160 367 22 192 
173 7 396 16 34 20 342 323 236 
174 7 142 193 159 369 301 285 130 
175 7 9 256 458 147 19 32 73 
176 7 457 184 75 308 106 15 347 
177 7 408 288 145 241 64 453 109 
178 7 183 343 411 243 271 124 190 
179 7 151 126 410 113 446 102 359 
180 7 448 78 458 59 19 11 282 
181 7 455 166 313 45 277 144 366 
182 7 433 4 385 105 122 310 297 
183 7 243 190 41 178 411 68 17 
184 7 457 75 187 115 315 347 15 
185 7 357 278 390 368 111 231 186 
186 6 231 390 146 368 357 380 
187 7 405 184 75 115 354 295 457 
188 7 337 161 24 315 394 347 272 
189 7 379 412 62 30 438 311 106 
190 7 41 243 183 68 17 374 103 
191 7 294 163 215 228 309 293 143 
192 7 119 218 262 172 386 95 211 
193 7 142 174 369 301 159 250 364 
194 7 46 199 87 203 297 40 8 
195 7 306 349 325 162 7 134 395 
196 7 64 377 140 2 125 324 371 
197 7 264 213 14 90 149 428 77 
198 7 361 384 303 331 71 302 13 
199 7 203 194 40 409 87 46 8 
200 7 322 255 280 91 129 358 392 
201 7 373 149 77 14 264 300 131 
202 7 171 267 300 157 341 6 131 
203 7 199 40 194 87 409 46 8 
204 7 389 13 71 331 447 212 22 
205 7 439 119 218 450 192 151 179 
206 7 121 292 230 128 452 229 253 
207 7 6 157 341 127 245 285 159 
208 7 80 170 445 281 391 88 137 
209 7 266 219 74 18 86 288 345 
210 7 316 304 312 3 254 50 135 
211 7 95 172 291 160 367 150 63 
212 7 359 204 214 102 446 389 22 
213 7 90 105 197 81 385 264 4 
214 7 344 359 446 60 212 273 350 
215 7 163 191 294 228 309 143 138 
216 6 225 368 20 229 49 233 
217 7 398 341 65 6 157 207 435 
218 7 119 192 205 44 262 386 439 
219 7 74 209 266 288 86 18 345 
220 7 150 378 160 83 336 28 286 
221 7 417 148 237 138 419 101 403 
222 7 156 311 318 189 429 263 438 
223 7 117 372 252 139 261 48 381 
224 7 287 54 109 307 420 145 251 
225 7 216 20 49 233 396 368 34 
226 7 299 443 321 440 93 298 42 
227 7 53 402 258 302 135 99 304 
228 7 163 215 294 191 138 309 403 
229 6 230 253 452 292 206 121 
230 7 292 206 229 452 253 121 72 
231 6 390 186 146 368 380 357 
232 7 248 169 401 92 234 257 387 
233 7 49 20 294 191 163 396 228 
234 7 401 48 66 139 257 261 326 
235 7 394 277 313 406 5 24 89 
236 7 158 323 414 16 249 365 329 
237 7 148 417 221 352 419 426 31 
238 7 425 120 276 320 242 56 85 
239 7 88 33 92 59 445 80 232 
240 7 164 23 329 158 365 236 437 
241 7 70 408 177 74 98 418 219 
242 7 85 120 436 276 155 320 428 
243 7 41 190 68 183 17 411 456 
244 7 397 383 155 275 85 376 442 
245 7 422 127 404 435 123 65 69 
246 7 107 352 27 284 39 104 259 
247 7 441 116 424 415 94 124 431 
248 7 232 401 234 387 169 66 257 
249 7 255 153 200 323 322 358 23 
250 7 364 430 353 369 301 142 193 
251 7 338 307 351 109 287 145 224 
252 7 117 223 407 372 272 314 35 
253 7 452 229 230 206 292 72 121 
254 7 50 327 3 312 432 392 210 
255 7 200 322 280 249 91 129 358 
256 7 147 19 32 9 458 175 444 
257 7 326 48 234 330 401 139 372 
258 7 53 99 227 135 141 42 402 
259 7 104 128 426 107 419 352 246 
260 7 355 318 156 222 311 96 375 
261 7 139 35 372 48 117 66 223 
262 7 386 44 192 218 21 58 119 
263 7 438 311 56 62 189 238 30 
264 7 197 14 149 213 77 373 131 
265 7 26 449 154 30 393 62 314 
266 7 209 219 74 18 418 86 296 
267 7 131 300 285 171 301 14 369 
268 7 37 371 377 60 427 125 350 
269 7 327 432 50 286 28 254 336 
270 7 162 306 346 232 169 195 239 
271 7 362 183 178 190 243 343 41 
272 7 407 89 24 314 161 188 337 
273 7 360 350 60 114 79 334 344 
274 7 38 293 29 290 143 309 339 
275 7 310 122 155 433 385 442 105 
276 7 120 242 436 85 238 428 77 
277 7 313 235 394 5 406 181 166 
278 7 185 357 111 368 390 231 186 
279 7 137 328 317 101 31 332 445 
280 7 200 322 255 91 437 129 28 
281 7 170 80 208 100 391 366 45 
282 7 444 19 147 93 133 11 256 
283 7 97 152 175 9 59 458 256 
284 7 166 27 5 246 455 39 107 
285 7 159 174 193 301 369 142 6 
286 7 336 28 83 269 91 378 220 
287 7 224 54 109 307 251 351 145 
288 7 86 345 319 408 74 18 177 
289 7 82 61 384 303 302 53 133 
290 7 29 38 274 298 423 143 293 
291 7 367 52 95 211 22 172 150 
292 7 206 230 121 229 452 253 128 
293 7 274 38 143 309 29 191 215 
294 7 191 163 215 228 309 293 143 
295 7 405 187 104 337 5 107 188 
296 7 18 319 345 86 427 113 209 
297 7 46 8 194 356 182 442 87 
298 7 143 290 443 299 309 29 274 
299 7 226 443 321 440 298 42 93 
300 7 131 373 149 267 201 14 264 
301 7 369 193 142 174 364 250 159 
302 7 227 402 53 384 258 135 289 
303 7 384 61 82 289 198 36 133 
304 7 316 135 210 402 227 258 53 
305 7 66 35 261 370 387 139 234 
306 7 169 349 162 195 7 168 10 
307 7 351 251 338 287 109 110 224 
308 7 176 412 347 457 379 449 315 
309 7 143 215 403 348 191 293 138 
310 7 122 275 433 182 385 442 105 
311 7 156 222 189 263 318 438 62 
312 7 3 254 451 210 413 67 50 
313 7 277 235 5 394 181 166 284 
314 7 407 272 252 161 449 89 347 
315 7 347 161 188 337 457 184 187 
316 7 210 304 135 312 402 423 3 
317 7 328 279 101 332 31 137 443 
318 7 156 222 311 355 260 263 189 
319 7 345 86 18 288 324 296 125 
320 7 84 120 242 85 425 340 238 
321 7 440 299 226 141 93 42 99 
322 7 200 91 280 129 255 28 358 
323 7 153 342 236 249 12 173 396 
324 7 125 377 64 196 427 319 345 
325 7 134 395 7 333 349 203 69 
326 7 257 330 48 234 372 139 92 
327 7 50 254 432 3 269 392 312 
328 7 317 279 137 332 101 31 78 
329 7 365 158 240 414 236 434 23 
330 7 326 382 257 45 100 366 372 
331 7 13 71 361 389 447 204 198 
332 7 11 328 78 317 226 279 443 
333 7 69 395 123 404 422 40 130 
334 7 400 363 114 388 79 420 2 
335 7 356 51 8 442 383 297 409 
336 7 28 286 83 91 269 378 220 
337 7 188 161 24 315 394 347 272 
338 7 251 109 307 351 145 224 287 
339 7 67 413 451 423 29 38 312 
340 7 132 399 154 84 370 320 393 
341 7 157 6 207 171 398 285 127 
342 7 323 153 396 173 12 236 16 
343 7 415 94 178 424 124 441 247 
344 7 214 60 350 268 37 446 359 
345 7 86 319 18 288 324 296 125 
346 7 33 270 239 162 232 59 88 
347 7 315 457 161 184 188 337 187 
348 7 403 138 309 143 215 221 228 
349 7 7 168 306 10 134 169 325 
350 7 60 79 114 37 371 268 344 
351 7 307 251 338 110 287 109 224 
352 7 246 107 237 27 419 148 259 
353 7 250 87 430 364 142 4 193 
354 7 115 15 75 405 187 72 184 
355 7 260 318 156 222 375 311 57 
356 7 8 335 51 297 442 46 409 
357 7 185 390 186 231 278 368 146 
358 7 392 129 3 432 200 322 451 
359 7 214 446 212 344 126 60 268 
360 7 411 273 456 243 214 350 41 
361 7 331 13 71 198 447 389 52 
362 7 271 103 190 73 183 374 41 
363 7 2 388 400 453 140 334 114 
364 7 250 430 369 301 81 193 142 
365 7 158 329 414 434 236 240 16 
366 7 45 100 181 382 391 281 330 
367 7 52 291 378 447 150 22 95 
368 6 216 225 231 390 186 34 
369 7 301 193 142 174 364 250 159 
370 7 393 154 35 305 399 340 132 
371 7 37 268 377 60 125 196 350 
372 7 223 117 139 48 261 35 252 
373 7 201 149 14 264 77 300 131 
374 7 103 68 17 73 416 41 190 
375 7 57 421 201 300 373 263 149 
376 7 397 43 244 383 84 51 335 
377 7 125 196 371 37 324 64 268 
378 7 150 83 220 286 336 28 52 
379 7 412 308 30 62 189 449 106 
380 6 55 146 47 454 429 106 
381 7 406 89 382 235 394 223 24 
382 7 406 381 45 330 277 366 235 
383 7 397 442 244 335 51 122 310 
384 7 303 82 289 302 61 198 227 
385 7 105 4 433 90 182 81 122 
386 7 262 44 21 58 192 218 119 
387 7 43 305 66 399 132 401 234 
388 7 453 363 420 400 334 2 54 
389 7 13 71 204 331 447 361 52 
390 6 231 186 146 368 357 380 
391 7 170 144 281 100 181 366 455 
392 7 358 129 432 3 254 50 327 
393 7 370 154 35 252 265 340 399 
394 7 235 24 277 89 313 188 337 
395 7 333 325 69 134 123 40 203 
396 7 20 173 342 49 233 16 34 
397 7 244 383 376 442 155 275 335 
398 7 341 6 157 207 171 65 435 
399 7 132 340 370 84 154 305 393 
400 7 334 363 2 114 388 79 140 
401 7 234 66 48 257 139 326 261 
402 7 227 302 53 135 258 304 316 
403 7 348 138 309 143 215 228 221 
404 7 123 69 245 422 333 435 127 
405 7 187 295 354 115 75 72 184 
406 7 381 382 89 235 277 394 313 
407 7 272 314 89 24 161 188 252 
408 7 177 288 241 74 86 345 64 
409 7 8 199 356 51 10 203 194 
410 7 113 151 126 179 427 446 268 
411 7 360 243 456 41 183 17 68 
412 7 379 308 30 62 189 106 176 
413 7 67 451 339 312 12 3 423 
414 7 434 158 365 16 236 329 34 
415 7 424 441 247 94 124 116 343 
416 7 165 374 17 68 73 103 41 
417 7 221 148 237 419 101 138 31 
418 7 136 219 266 209 74 241 70 
419 7 426 148 128 259 237 352 104 
420 7 54 388 453 224 287 334 363 
421 7 375 202 57 300 171 201 267 
422 7 127 245 404 130 123 69 159 
423 7 67 339 210 316 29 304 413 
424 7 415 441 247 124 94 116 343 
425 7 238 120 320 84 242 276 56 
426 7 419 128 259 148 104 352 237 
427 7 125 324 268 377 113 371 37 
428 7 436 155 77 85 197 242 275 
429 7 146 55 380 186 96 231 390 
430 7 250 364 81 353 4 369 90 
431 7 110 247 351 307 441 116 287 
432 7 327 50 129 392 254 269 91 
433 7 182 122 385 310 4 105 90 
434 7 414 16 158 34 365 236 111 
435 7 65 245 404 108 123 422 127 
436 7 428 85 242 155 276 77 275 
437 7 23 280 63 164 200 255 322 
438 7 263 62 56 30 189 311 238 
439 7 450 205 296 266 209 18 119 
440 7 321 141 93 299 226 42 99 
441 7 247 424 415 116 94 124 431 
442 7 383 335 122 310 356 433 8 
443 7 299 226 298 321 440 290 42 
444 7 282 19 147 133 93 61 82 
445 7 80 208 170 137 88 281 279 
446 7 126 359 344 214 268 410 113 
447 7 13 331 389 52 361 71 367 
448 7 180 78 11 332 458 59 19 
449 7 265 26 314 308 30 62 379 
450 7 439 205 296 266 209 18 219 
451 7 413 67 312 339 12 3 358 
452 7 253 230 229 206 292 72 121 
453 7 388 363 420 145 400 2 54 
454 7 47 106 15 176 55 380 75 
455 7 181 166 144 284 27 39 313 
456 7 411 17 68 41 360 243 273 
457 7 184 347 75 176 315 187 115 
458 7 180 19 256 175 448 59 147 
DEPOT_SECTION
   1
   -1
EOF
