NAME :  X-n420-kX-w83-c9.cctp
COMMENT : 	Adapted by Maziero, Usberti and Cavellucci from the Uchoa, Pecin, Pessoa, Poggi, Subramanian, and Vidal (2013)
TYPE :  CCTP
DIMENSION :    330
EDGE_WEIGHT_TYPE : 	EUC_2D	
CAPACITY : 	18
VERTICES_WITHIN_COVERAGE :  9
VERTICES_WITH_DEMAND : 	83
NODE_COORD_SECTION
1 500 500
2 707 633
3 405 122
4 811 419
5 11 667
6 336 612
7 366 50
8 98 836
9 414 996
10 243 713
11 100 232
12 891 946
13 132 204
14 25 642
15 994 18
16 636 897
17 214 651
18 108 619
19 882 399
20 863 607
21 409 585
22 247 882
23 553 507
24 677 258
25 673 644
26 25 182
27 251 111
28 263 799
29 660 359
30 351 288
31 172 127
32 382 441
33 231 650
34 966 485
35 964 107
36 876 164
37 949 328
38 936 70
39 229 744
40 161 214
41 581 594
42 154 860
43 23 374
44 736 600
45 594 542
46 846 684
47 355 471
48 675 597
49 663 653
50 61 889
51 685 150
52 129 248
53 161 301
54 180 836
55 427 670
56 833 860
57 669 251
58 411 403
59 450 926
60 591 505
61 468 157
62 288 484
63 574 955
64 795 521
65 41 65
66 175 486
67 74 436
68 907 13
69 579 912
70 765 835
71 176 189
72 972 351
73 470 22
74 577 469
75 561 672
76 110 670
77 811 614
78 460 344
79 862 486
80 22 369
81 898 295
82 89 934
83 164 871
84 487 617
85 731 565
86 470 722
87 509 209
88 860 845
89 515 312
90 434 712
91 388 521
92 573 250
93 155 316
94 143 923
95 247 971
96 641 297
97 763 749
98 585 887
99 987 361
100 153 215
101 150 669
102 76 153
103 456 635
104 778 497
105 334 529
106 764 789
107 963 378
108 262 404
109 32 672
110 118 874
111 931 462
112 168 831
113 443 2
114 571 812
115 185 964
116 368 628
117 366 788
118 48 374
119 8 464
120 459 77
121 345 357
122 315 149
123 458 286
124 974 86
125 167 854
126 441 425
127 646 948
128 444 937
129 950 129
130 866 18
131 915 849
132 119 279
133 319 332
134 832 902
135 421 365
136 963 71
137 478 741
138 443 54
139 509 966
140 70 520
141 311 207
142 648 127
143 371 345
144 154 221
145 475 537
146 322 738
147 118 284
148 297 415
149 530 967
150 752 797
151 394 589
152 482 59
153 497 863
154 171 716
155 610 528
156 405 568
157 638 940
158 940 914
159 4 886
160 215 994
161 294 675
162 121 701
163 143 460
164 14 530
165 383 815
166 982 781
167 424 566
168 358 11
169 902 869
170 490 744
171 567 535
172 424 613
173 820 574
174 125 213
175 164 351
176 605 589
177 844 145
178 978 462
179 503 582
180 673 603
181 643 721
182 831 659
183 137 502
184 939 228
185 999 456
186 722 196
187 390 650
188 288 304
189 895 896
190 514 985
191 32 202
192 20 476
193 400 947
194 398 522
195 889 98
196 226 257
197 858 168
198 343 182
199 511 170
200 699 283
201 954 856
202 183 100
203 208 169
204 923 501
205 170 88
206 153 129
207 917 390
208 879 482
209 799 437
210 853 476
211 91 194
212 860 607
213 159 131
214 925 291
215 705 361
216 863 371
217 232 70
218 780 515
219 833 494
220 24 239
221 369 28
222 803 450
223 897 396
224 176 310
225 983 470
226 917 370
227 969 335
228 680 629
229 175 153
230 207 142
231 221 99
232 290 232
233 834 424
234 990 502
235 960 462
236 862 259
237 633 344
238 187 350
239 110 275
240 823 508
241 907 303
242 865 555
243 169 121
244 816 609
245 894 327
246 54 27
247 895 569
248 348 150
249 883 463
250 298 65
251 229 190
252 470 60
253 923 737
254 978 312
255 89 97
256 645 398
257 279 85
258 750 169
259 827 402
260 180 86
261 871 410
262 919 526
263 615 466
264 713 648
265 268 124
266 821 402
267 887 399
268 819 560
269 827 508
270 794 432
271 159 134
272 29 81
273 2 63
274 907 245
275 881 592
276 864 410
277 876 318
278 881 413
279 329 214
280 950 499
281 880 359
282 887 497
283 801 491
284 159 215
285 555 303
286 834 491
287 813 434
288 664 522
289 656 391
290 879 583
291 224 329
292 863 263
293 887 641
294 811 503
295 835 481
296 76 115
297 891 414
298 813 425
299 234 75
300 350 278
301 732 558
302 192 142
303 883 462
304 712 63
305 118 193
306 171 165
307 644 466
308 807 418
309 807 149
310 955 230
311 238 113
312 912 579
313 836 492
314 868 379
315 987 568
316 297 185
317 711 376
318 171 155
319 729 544
320 130 123
321 799 418
322 861 382
323 971 288
324 918 397
325 791 419
326 210 93
327 768 507
328 417 125
329 818 400
330 856 637
DEMAND_SECTION
2 6
3 9
4 8
5 6
6 4
7 8
8 3
9 4
10 10
11 1
12 9
13 9
14 5
15 10
16 5
17 6
18 9
19 8
20 10
21 8
22 8
23 4
24 8
25 7
26 3
27 5
28 10
29 10
30 8
31 2
32 2
33 8
34 7
35 10
36 9
37 2
38 9
39 10
40 2
41 1
42 6
43 1
44 2
45 4
46 6
47 7
48 8
49 8
50 5
51 7
52 4
53 7
54 1
55 5
56 6
57 9
58 2
59 6
60 4
61 6
62 5
63 10
64 7
65 4
66 6
67 1
68 2
69 4
70 9
71 1
72 6
73 4
74 9
75 1
76 5
77 2
78 2
79 9
80 6
81 7
82 10
83 10
84 8
COVERAGE_SECTION
2 9 264 228 25 44 180 48 49 85 301 
3 9 328 248 120 61 138 7 198 252 122 
4 9 308 298 321 287 266 325 329 270 209 
5 9 109 14 76 18 162 164 101 140 154 
6 9 116 151 187 161 21 156 105 172 167 
7 9 221 168 250 138 3 113 328 257 120 
8 9 110 42 50 112 125 83 54 82 94 
9 9 193 128 59 139 190 149 153 63 95 
10 9 39 33 161 17 154 146 28 101 162 
11 9 174 52 211 13 305 239 132 144 147 
12 9 189 158 134 169 131 56 88 201 70 
13 9 174 305 100 144 284 40 211 11 52 
14 9 5 109 18 76 162 164 101 140 154 
15 9 136 124 38 68 35 129 130 195 36 
16 9 157 98 127 69 63 114 149 70 153 
17 9 33 101 10 154 161 39 76 162 18 
18 9 76 101 162 14 109 140 5 17 154 
19 8 267 278 223 261 297 276 314 322 
20 9 212 275 290 330 293 244 247 77 242 
21 9 151 156 167 172 116 194 91 187 103 
22 9 54 83 28 125 95 112 42 115 94 
23 9 171 60 74 45 155 263 145 179 41 
24 6 57 200 96 186 237 29 
25 9 49 228 2 264 180 48 44 181 176 
26 9 191 220 102 211 296 11 305 272 174 
27 8 311 265 231 257 299 217 326 230 
28 9 39 22 146 10 54 112 117 125 165 
29 6 237 289 256 215 317 96 
30 9 300 133 143 188 121 279 232 141 135 
31 9 243 213 271 206 302 229 318 202 230 
32 9 47 58 126 91 194 135 148 121 143 
33 9 17 10 161 101 154 39 6 162 76 
34 8 280 225 235 178 234 111 185 204 
35 9 124 129 136 38 195 15 36 68 197 
36 7 197 177 195 309 129 274 184 
37 9 227 72 254 214 323 241 99 107 226 
38 9 136 124 35 195 129 68 15 130 36 
39 9 10 154 28 146 17 33 161 54 112 
40 9 284 100 144 71 13 174 52 305 306 
41 9 176 45 171 155 179 75 60 23 180 
42 9 125 83 112 54 110 8 94 22 50 
43 9 80 118 67 119 192 147 239 132 220 
44 9 85 301 2 264 319 48 180 228 77 
45 9 155 171 60 176 23 41 288 74 263 
46 9 182 330 293 77 212 20 244 253 275 
47 9 32 91 105 194 62 148 58 126 156 
48 9 180 228 25 2 49 44 85 264 301 
49 9 25 228 2 264 180 48 181 176 44 
50 9 82 159 110 8 94 42 83 125 112 
51 8 142 186 258 304 57 24 309 200 
52 9 11 132 239 174 144 147 100 13 284 
53 9 93 224 147 132 175 238 239 52 291 
54 9 112 125 42 83 110 22 8 28 94 
55 9 187 90 103 172 86 116 84 21 137 
56 9 88 134 169 70 189 131 106 150 12 
57 7 24 200 96 186 92 237 51 
58 9 126 135 32 143 78 121 47 148 133 
59 9 128 193 139 9 153 190 149 63 69 
60 9 155 45 23 171 74 263 307 288 176 
61 9 199 328 87 3 120 252 152 138 248 
62 9 105 47 148 108 32 91 66 194 6 
63 9 69 149 139 157 190 98 127 16 153 
64 7 218 294 104 327 240 283 269 
65 9 272 273 246 255 296 102 320 26 206 
66 9 163 183 140 62 67 108 175 238 148 
67 9 118 192 119 163 43 140 80 183 164 
68 9 130 38 136 15 195 124 35 129 177 
69 9 98 63 16 157 149 127 139 153 190 
70 9 150 106 56 97 134 88 169 16 189 
71 9 306 40 284 318 100 229 203 144 13 
72 9 227 99 107 37 254 226 323 207 324 
73 9 113 252 152 138 120 221 7 168 328 
74 9 263 60 23 171 307 155 45 256 288 
75 9 41 84 176 181 170 49 86 179 137 
76 9 162 101 18 154 109 14 5 17 33 
77 9 244 173 182 212 330 20 268 275 290 
78 9 135 123 89 58 126 143 285 121 30 
79 9 210 208 282 295 313 286 219 249 303 
80 9 43 118 67 119 192 147 239 220 132 
81 8 241 214 245 277 292 236 274 37 
82 9 50 94 110 8 42 83 159 115 125 
83 9 42 125 54 112 110 94 8 22 115 
84 9 103 179 172 55 145 167 21 75 156 
85 8 301 319 44 48 180 327 218 2 
86 9 137 170 90 55 103 75 84 187 172 
87 9 199 61 92 123 89 285 328 3 120 
88 9 56 169 131 189 134 201 70 12 158 
89 9 285 123 78 92 87 135 237 96 126 
90 9 86 55 137 170 187 103 172 117 116 
91 9 194 156 105 167 47 21 151 32 145 
92 9 285 87 96 89 57 199 24 237 123 
93 9 53 224 175 238 147 132 239 291 52 
94 9 82 110 83 115 42 125 50 54 112 
95 9 160 115 22 94 83 125 42 54 193 
96 7 237 24 57 200 29 92 285 
97 9 106 150 70 46 182 264 181 2 56 
98 9 69 16 63 157 114 127 153 149 139 
99 7 72 107 227 37 254 226 323 
100 9 144 284 40 13 174 71 52 305 306 
101 9 76 162 154 18 17 33 10 39 109 
102 9 296 211 255 305 26 320 191 13 174 
103 9 84 172 55 187 21 179 167 151 90 
104 6 327 218 283 64 294 240 
105 9 91 47 62 194 156 6 151 21 167 
106 9 150 97 70 56 88 134 46 181 182 
107 7 72 99 227 226 207 324 37 
108 9 148 62 291 133 238 121 188 175 47 
109 9 5 14 76 18 162 101 164 154 140 
110 9 42 8 83 125 94 50 112 82 54 
111 5 235 204 34 280 178 
112 9 54 125 42 83 110 8 22 94 28 
113 9 73 138 252 152 120 221 168 7 3 
114 9 98 153 69 170 16 181 137 86 75 
115 9 160 94 95 83 82 22 42 125 110 
116 9 187 6 151 172 21 156 55 167 103 
117 9 165 146 90 28 137 86 170 55 161 
118 9 43 80 67 119 192 147 239 175 132 
119 9 192 164 67 140 43 80 118 183 163 
120 9 252 138 152 73 328 3 113 61 7 
121 9 143 133 30 148 135 188 300 58 32 
122 9 248 316 198 265 141 279 257 27 311 
123 9 78 89 135 87 285 143 30 300 92 
124 9 136 35 38 129 15 195 68 36 130 
125 9 42 83 54 112 110 8 94 22 28 
126 9 58 32 135 78 47 143 194 91 145 
127 9 157 16 63 69 98 149 190 139 114 
128 9 59 193 9 139 190 149 153 63 165 
129 9 35 124 136 38 195 36 184 197 310 
130 9 68 195 38 136 15 124 177 35 129 
131 9 169 201 189 88 158 56 166 134 12 
132 9 147 239 52 53 11 93 224 174 144 
133 9 121 188 30 143 300 148 108 291 232 
134 9 56 189 88 12 169 70 131 158 201 
135 9 58 78 143 126 121 32 123 30 133 
136 9 124 38 35 129 15 195 68 130 36 
137 9 170 86 90 55 75 103 114 165 117 
138 9 120 252 152 73 113 328 7 3 221 
139 9 190 149 63 59 128 69 9 153 98 
140 9 164 192 183 67 119 163 18 66 14 
141 9 279 316 232 198 122 248 300 251 30 
142 9 51 304 186 258 57 24 92 199 87 
143 9 121 133 135 30 58 300 78 188 32 
144 9 100 284 40 13 174 52 71 305 11 
145 9 179 167 156 194 84 21 23 91 171 
146 9 117 161 10 28 39 165 187 90 116 
147 9 132 239 52 53 93 11 224 174 144 
148 9 108 62 121 47 133 32 143 188 291 
149 9 139 190 63 69 59 128 98 153 157 
150 9 106 70 97 56 88 134 181 46 16 
151 9 21 156 167 172 116 187 6 194 91 
152 9 252 120 73 138 113 328 3 61 199 
153 9 59 114 98 128 69 139 149 170 63 
154 9 101 162 39 10 76 17 33 112 18 
155 9 45 60 171 288 23 176 263 74 307 
156 9 21 167 151 194 172 91 116 145 105 
157 9 127 16 69 63 98 149 139 190 114 
158 9 189 12 169 201 131 88 134 56 166 
159 9 50 82 8 110 94 42 83 125 112 
160 9 95 115 94 22 83 82 42 125 110 
161 9 10 33 146 6 17 116 39 187 28 
162 9 76 101 154 18 109 17 14 5 39 
163 9 66 183 67 140 175 238 192 118 108 
164 9 192 140 119 67 14 183 18 5 109 
165 9 117 146 90 137 28 153 86 170 59 
166 8 253 201 131 169 88 158 189 46 
167 9 156 21 151 172 194 91 145 103 84 
168 7 221 7 250 113 138 257 73 
169 9 131 189 88 201 158 56 134 12 166 
170 9 137 86 90 55 75 114 103 153 84 
171 9 45 23 60 155 41 176 74 179 263 
172 9 21 151 103 167 156 187 55 116 84 
173 9 268 244 77 242 212 20 64 290 275 
174 9 13 305 100 144 11 284 52 40 211 
175 9 238 93 224 53 291 147 132 239 52 
176 9 41 45 155 171 180 48 60 228 49 
177 7 197 36 309 195 258 129 236 
178 8 225 235 185 34 234 280 111 204 
179 9 84 145 103 41 171 167 172 23 21 
180 9 48 228 25 2 49 264 44 85 176 
181 9 49 25 75 228 264 2 114 180 97 
182 9 46 330 77 244 293 212 20 275 173 
183 9 66 163 140 67 192 18 164 119 62 
184 9 310 274 214 323 81 241 236 292 36 
185 7 225 178 235 34 234 280 111 
186 7 258 51 57 24 200 309 142 
187 9 116 55 172 151 6 21 103 90 156 
188 9 133 30 300 291 232 121 196 143 279 
189 9 169 158 12 131 88 134 201 56 70 
190 9 139 149 63 128 59 69 9 193 98 
191 9 26 220 211 102 11 305 174 296 13 
192 9 119 164 67 140 43 118 80 183 163 
193 9 128 9 59 139 190 153 149 165 95 
194 9 91 156 167 21 105 47 151 145 32 
195 9 38 177 36 129 35 197 136 130 124 
196 9 251 232 291 224 40 53 188 284 144 
197 7 36 177 309 195 236 274 292 
198 9 248 279 141 122 316 232 3 328 265 
199 9 87 61 92 328 120 152 3 252 123 
200 4 24 57 96 215 
201 9 131 169 158 189 166 88 12 56 253 
202 8 260 205 243 326 31 231 213 206 
203 9 230 251 302 229 306 71 318 31 271 
204 8 262 280 282 111 34 208 235 249 
205 7 260 202 243 31 326 206 213 
206 9 213 271 243 31 320 318 229 306 302 
207 8 324 226 223 267 297 19 278 107 
208 5 79 282 249 303 210 
209 8 270 222 287 298 321 325 308 4 
210 8 79 295 313 286 208 219 249 303 
211 9 305 11 174 13 102 191 100 52 26 
212 9 20 275 330 290 293 244 77 173 242 
213 9 271 206 31 243 229 318 320 302 306 
214 9 241 81 37 323 245 274 277 254 227 
215 3 317 29 289 
216 4 314 322 281 19 
217 5 299 231 326 311 27 
218 7 327 64 104 283 294 240 269 
219 9 286 313 295 269 240 294 210 79 283 
220 9 191 26 11 211 239 102 132 147 174 
221 8 168 7 113 138 250 3 73 120 
222 7 209 287 270 298 4 308 321 
223 9 267 19 297 207 324 278 261 226 314 
224 9 53 93 238 175 291 147 132 196 239 
225 8 178 185 34 235 234 280 111 204 
226 8 207 324 223 281 267 19 107 245 
227 9 72 37 254 99 107 323 214 226 241 
228 9 25 2 180 49 48 264 44 85 176 
229 9 318 306 302 271 31 213 206 243 230 
230 9 302 203 229 31 318 311 243 306 231 
231 8 326 311 299 217 27 202 260 230 
232 9 141 279 316 196 188 198 251 300 30 
233 4 298 259 287 4 
234 9 34 225 280 178 185 235 315 204 111 
235 7 178 34 225 111 280 185 234 
236 3 292 274 81 
237 8 29 96 289 256 215 317 285 200 
238 9 175 224 291 93 53 108 147 132 196 
239 9 132 147 52 11 53 93 174 144 13 
240 8 269 294 219 286 313 283 295 64 
241 8 81 214 245 277 37 274 292 281 
242 9 290 247 275 268 173 20 212 312 269 
243 9 31 213 271 206 202 302 205 229 318 
244 9 77 173 212 20 268 330 182 275 290 
245 6 277 241 81 281 214 226 
246 7 65 272 273 255 296 320 102 
247 7 312 290 275 242 262 20 212 
248 9 198 122 316 3 279 141 328 265 257 
249 4 303 208 79 210 
250 6 257 299 27 217 265 7 
251 9 203 71 230 302 306 229 196 316 318 
252 9 152 120 138 73 113 328 3 61 7 
253 8 166 46 293 131 330 182 201 88 
254 9 227 323 37 72 99 214 107 241 81 
255 9 296 320 102 65 272 206 213 246 271 
256 7 289 29 237 307 215 317 263 
257 7 250 27 265 299 217 311 231 
258 7 186 309 51 177 197 142 304 
259 3 266 329 4 
260 7 205 202 326 243 31 231 213 
261 5 276 278 19 267 297 
262 8 204 280 282 247 312 208 242 34 
263 8 307 74 60 155 23 256 288 45 
264 9 2 228 25 49 44 180 48 85 301 
265 9 27 311 257 122 231 299 230 217 250 
266 4 329 259 4 308 
267 9 19 223 278 297 261 276 314 207 322 
268 9 173 64 242 244 240 269 77 294 218 
269 9 240 219 294 286 313 295 283 64 79 
270 8 209 325 321 287 308 222 298 4 
271 9 213 206 31 243 318 229 320 306 302 
272 9 65 273 296 246 255 102 26 320 191 
273 9 272 65 246 296 255 102 26 320 191 
274 9 184 236 292 214 310 81 241 323 277 
275 9 290 20 212 247 312 242 293 330 173 
276 4 261 278 19 267 
277 4 245 81 241 281 
278 6 261 297 19 267 276 223 
279 9 141 198 232 316 122 248 300 30 188 
280 9 34 204 235 234 262 111 225 178 282 
281 6 216 314 322 245 226 19 
282 8 208 79 249 303 204 210 262 313 
283 6 294 104 240 64 269 218 
284 9 40 100 144 13 71 174 52 305 306 
285 9 89 92 96 237 123 78 87 29 57 
286 9 313 219 295 269 240 210 294 79 283 
287 8 298 209 4 308 222 270 321 233 
288 6 155 307 319 45 263 60 
289 6 256 29 237 215 317 307 
290 9 275 247 20 212 242 312 293 330 173 
291 9 238 224 175 53 188 93 196 108 133 
292 3 236 81 274 
293 8 330 20 212 275 46 182 290 312 
294 7 240 283 269 64 219 286 313 
295 8 286 313 219 210 79 269 240 294 
296 9 255 102 320 272 65 206 211 26 213 
297 6 278 267 19 223 261 276 
298 9 4 287 308 321 209 270 233 325 266 
299 6 217 231 326 311 27 257 
300 9 30 133 188 279 143 232 121 141 198 
301 7 85 319 44 327 218 48 64 
302 9 230 229 31 318 203 243 306 271 213 
303 4 249 208 79 210 
304 8 51 142 258 309 186 177 130 195 
305 9 13 174 211 100 11 144 284 40 52 
306 9 318 229 71 302 271 213 203 31 206 
307 5 263 288 60 74 256 
308 9 4 321 298 325 287 270 209 266 329 
309 7 177 197 258 36 186 195 51 
310 9 184 274 323 214 254 81 241 236 37 
311 8 27 231 265 326 299 230 217 257 
312 7 247 290 275 242 262 20 212 
313 9 286 219 295 269 240 210 79 294 283 
314 7 322 216 281 19 267 261 276 
315 6 234 312 280 262 34 247 
316 9 141 122 279 198 232 248 251 265 27 
317 3 215 29 289 
318 9 229 306 271 302 213 31 206 71 243 
319 7 301 85 327 44 218 104 288 
320 9 206 213 271 243 31 255 318 205 229 
321 7 308 325 4 270 298 209 287 
322 6 314 216 19 276 261 281 
323 9 254 37 214 227 310 72 241 184 81 
324 7 207 223 226 267 297 19 278 
325 5 321 270 308 4 209 
326 8 231 202 299 260 217 311 205 27 
327 5 104 218 64 283 294 
328 9 3 61 120 248 138 252 7 152 198 
329 4 266 259 4 308 
330 9 212 20 293 182 46 244 77 275 290 
DEPOT_SECTION
   1
   -1
EOF
