NAME :  X-n429-kX-w85-c9.cctp
COMMENT : 	Adapted by Maziero, Usberti and Cavellucci from the Uchoa, Pecin, Pessoa, Poggi, Subramanian, and Vidal (2013)
TYPE :  CCTP
DIMENSION :    382
EDGE_WEIGHT_TYPE : 	EUC_2D	
CAPACITY : 	536
VERTICES_WITHIN_COVERAGE :  9
VERTICES_WITH_DEMAND : 	85
NODE_COORD_SECTION
1 238 446
2 749 750
3 960 879
4 914 116
5 517 477
6 554 143
7 850 488
8 739 177
9 229 160
10 539 573
11 901 821
12 787 399
13 974 203
14 89 387
15 561 27
16 103 139
17 174 826
18 40 578
19 359 23
20 440 649
21 588 265
22 182 275
23 401 993
24 751 564
25 797 274
26 756 252
27 871 882
28 693 417
29 710 620
30 960 422
31 530 904
32 124 126
33 67 587
34 440 336
35 219 38
36 609 504
37 936 474
38 800 689
39 358 530
40 914 753
41 210 96
42 95 816
43 441 389
44 506 963
45 114 285
46 333 191
47 545 892
48 59 618
49 698 385
50 977 931
51 822 79
52 951 91
53 341 759
54 439 290
55 1 258
56 756 147
57 252 284
58 588 168
59 895 501
60 759 442
61 967 855
62 244 601
63 888 148
64 442 18
65 847 877
66 683 267
67 446 301
68 997 815
69 586 777
70 129 986
71 613 331
72 811 156
73 704 494
74 265 216
75 511 373
76 981 261
77 48 985
78 723 558
79 839 828
80 803 737
81 296 719
82 589 252
83 374 862
84 277 82
85 451 183
86 904 681
87 474 908
88 609 185
89 346 382
90 158 866
91 572 161
92 704 828
93 142 331
94 801 969
95 672 178
96 827 566
97 728 793
98 888 917
99 326 298
100 718 636
101 792 283
102 866 141
103 682 640
104 961 604
105 299 23
106 358 22
107 27 552
108 508 739
109 692 85
110 582 748
111 220 76
112 128 795
113 268 622
114 167 789
115 827 698
116 68 190
117 561 928
118 328 817
119 719 595
120 152 111
121 780 824
122 486 302
123 877 775
124 156 976
125 62 854
126 824 163
127 796 134
128 848 204
129 581 299
130 37 832
131 364 210
132 778 453
133 229 676
134 234 586
135 194 65
136 300 238
137 939 983
138 354 914
139 719 709
140 845 806
141 753 610
142 384 707
143 741 825
144 457 590
145 35 357
146 862 623
147 447 838
148 518 607
149 235 680
150 249 16
151 724 269
152 567 58
153 865 296
154 387 143
155 222 629
156 419 205
157 813 784
158 426 19
159 116 881
160 361 788
161 346 845
162 961 860
163 388 315
164 433 70
165 116 292
166 264 540
167 76 564
168 42 866
169 988 538
170 77 75
171 46 609
172 761 523
173 954 696
174 807 151
175 22 882
176 320 646
177 682 723
178 591 702
179 163 587
180 327 755
181 8 378
182 469 286
183 502 45
184 278 681
185 104 123
186 638 65
187 806 705
188 87 388
189 70 459
190 427 812
191 736 661
192 108 285
193 635 631
194 808 238
195 494 268
196 761 524
197 455 188
198 843 3
199 84 342
200 509 878
201 98 641
202 835 478
203 814 202
204 33 673
205 729 323
206 193 813
207 702 480
208 748 318
209 925 844
210 814 904
211 68 961
212 59 627
213 773 483
214 845 468
215 904 365
216 613 161
217 79 325
218 532 267
219 382 505
220 603 595
221 700 327
222 58 709
223 166 753
224 554 159
225 925 3
226 667 660
227 355 936
228 130 923
229 852 837
230 381 911
231 554 116
232 387 383
233 908 985
234 236 723
235 728 93
236 85 31
237 861 58
238 348 13
239 850 535
240 833 72
241 393 995
242 184 919
243 20 992
244 680 498
245 330 163
246 115 593
247 100 942
248 466 983
249 477 550
250 599 837
251 406 531
252 596 274
253 60 921
254 550 949
255 301 792
256 354 963
257 856 708
258 493 303
259 817 131
260 557 353
261 910 91
262 833 437
263 72 12
264 94 829
265 619 456
266 761 88
267 317 184
268 357 202
269 516 212
270 655 419
271 789 881
272 439 945
273 823 190
274 523 905
275 561 376
276 13 539
277 591 737
278 827 661
279 788 713
280 455 357
281 200 213
282 982 944
283 199 197
284 344 164
285 859 498
286 855 650
287 605 903
288 961 616
289 391 167
290 791 757
291 291 577
292 490 126
293 25 95
294 20 522
295 121 204
296 755 392
297 549 56
298 43 240
299 110 305
300 739 76
301 84 184
302 953 127
303 108 836
304 76 779
305 331 883
306 45 791
307 791 266
308 854 741
309 66 316
310 322 731
311 162 83
312 110 342
313 987 835
314 53 290
315 339 605
316 508 883
317 946 885
318 986 694
319 309 48
320 873 461
321 949 410
322 193 531
323 890 388
324 81 698
325 778 937
326 704 356
327 469 110
328 687 142
329 158 154
330 471 294
331 439 348
332 113 935
333 316 819
334 807 40
335 730 134
336 698 366
337 219 270
338 728 209
339 137 420
340 814 593
341 315 153
342 60 763
343 324 822
344 226 7
345 613 135
346 989 857
347 904 996
348 828 569
349 951 678
350 819 618
351 991 254
352 253 75
353 588 802
354 840 877
355 260 38
356 244 697
357 63 980
358 620 219
359 800 109
360 467 220
361 417 647
362 938 810
363 898 705
364 507 121
365 154 615
366 993 267
367 817 539
368 358 136
369 527 863
370 555 502
371 439 480
372 237 9
373 79 432
374 636 429
375 272 761
376 454 640
377 515 783
378 734 311
379 226 723
380 946 827
381 523 585
382 231 980
DEMAND_SECTION
2 55
3 64
4 100
5 66
6 68
7 95
8 67
9 100
10 75
11 65
12 98
13 100
14 66
15 82
16 84
17 89
18 62
19 64
20 87
21 94
22 75
23 53
24 99
25 85
26 87
27 83
28 82
29 78
30 84
31 67
32 61
33 56
34 63
35 98
36 79
37 95
38 92
39 51
40 66
41 50
42 82
43 66
44 75
45 73
46 83
47 76
48 72
49 62
50 78
51 56
52 98
53 56
54 51
55 84
56 81
57 65
58 61
59 64
60 78
61 78
62 78
63 60
64 59
65 80
66 88
67 96
68 75
69 81
70 51
71 61
72 67
73 56
74 87
75 88
76 54
77 50
78 99
79 85
80 79
81 94
82 86
83 85
84 58
85 82
86 52
COVERAGE_SECTION
2 9 290 97 139 279 80 157 177 187 143 
3 9 317 162 61 346 209 313 380 50 282 
4 9 261 63 302 52 102 237 240 259 51 
5 5 370 371 249 36 10 
6 9 224 91 231 58 364 345 216 292 88 
7 9 285 202 214 320 59 239 262 367 213 
8 9 56 338 335 328 95 127 174 72 26 
9 9 283 281 41 74 329 111 341 352 120 
10 6 381 148 249 220 370 144 
11 9 209 362 380 123 229 140 79 27 40 
12 9 296 60 132 262 213 49 208 214 202 
13 9 351 76 366 302 63 4 52 102 128 
14 9 188 199 373 312 339 145 217 189 309 
15 8 297 152 183 186 231 364 6 64 
16 9 185 32 301 120 329 116 295 170 311 
17 9 206 114 90 112 303 223 42 159 264 
18 9 33 107 171 167 48 276 212 294 246 
19 9 106 238 319 105 158 64 164 355 84 
20 7 376 361 144 142 148 381 249 
21 9 252 82 129 218 358 71 88 269 260 
22 9 337 281 165 45 93 57 192 299 283 
23 9 241 256 272 248 227 230 138 44 87 
24 9 78 196 172 119 141 29 340 367 96 
25 9 101 307 194 26 208 153 151 378 203 
26 9 151 307 25 101 338 194 378 208 66 
27 9 65 354 98 229 210 79 209 11 317 
28 9 49 270 336 374 326 207 296 60 73 
29 9 100 119 103 141 191 226 78 24 193 
30 9 321 37 323 215 320 59 169 214 285 
31 9 274 47 316 200 117 369 254 87 44 
32 9 185 16 120 329 311 170 301 295 116 
33 9 167 18 171 48 212 246 107 201 276 
34 9 331 280 67 54 330 43 163 122 182 
35 9 344 372 135 150 111 355 352 41 84 
36 9 265 370 244 374 220 5 73 207 270 
37 9 59 30 320 321 285 169 7 214 323 
38 9 187 279 115 278 80 257 286 290 191 
39 6 219 251 315 291 166 371 
40 9 123 363 308 362 11 173 86 257 380 
41 9 111 135 352 311 35 120 9 84 355 
42 9 264 303 112 304 125 306 130 342 159 
43 9 280 331 34 232 75 67 163 371 89 
44 9 248 254 274 31 87 117 272 316 47 
45 9 192 165 299 217 93 309 312 314 199 
46 9 267 268 245 284 131 341 136 368 289 
47 9 31 274 369 316 117 200 254 287 87 
48 9 212 171 33 18 201 167 204 246 107 
49 9 336 326 28 270 296 221 205 374 378 
50 9 282 3 317 137 162 346 61 233 98 
51 9 240 359 334 237 259 127 266 174 102 
52 9 302 261 4 63 225 237 102 13 240 
53 9 180 310 160 255 118 81 333 343 142 
54 9 67 182 330 34 122 258 163 331 195 
55 9 298 314 309 116 217 145 192 301 45 
56 9 335 8 127 174 72 359 266 235 259 
57 9 337 136 74 22 99 281 283 267 93 
58 9 91 216 88 224 345 6 358 231 82 
59 9 285 320 7 37 239 214 202 367 262 
60 9 132 213 296 12 207 28 262 73 172 
61 9 162 346 3 313 380 317 209 68 362 
62 9 134 113 155 291 166 133 149 179 184 
63 9 102 4 261 126 302 128 259 72 273 
64 9 158 164 183 19 106 238 327 297 292 
65 9 354 27 229 210 79 98 271 140 11 
66 9 151 221 378 205 338 26 358 208 252 
67 9 54 330 182 34 122 258 331 280 195 
68 9 313 346 61 380 162 362 3 209 317 
69 7 353 110 277 250 377 178 108 
70 9 124 247 332 228 211 357 77 242 253 
71 9 129 252 260 275 21 82 221 336 326 
72 9 174 126 259 127 273 203 359 56 102 
73 9 207 244 172 196 78 213 60 28 24 
74 9 136 267 281 9 57 283 337 46 341 
75 9 260 275 280 43 258 122 331 34 330 
76 9 351 366 13 153 215 302 128 63 321 
77 9 357 243 211 253 247 70 332 228 175 
78 9 24 119 196 172 141 29 73 244 100 
79 9 229 140 354 65 157 121 11 27 123 
80 9 290 279 187 115 38 157 308 2 257 
81 9 310 184 180 375 356 53 234 379 149 
82 9 21 252 358 129 218 88 71 269 58 
83 9 161 305 230 138 118 343 333 190 160 
84 9 352 319 355 111 105 41 150 35 341 
85 9 197 156 360 289 292 269 154 327 364 
86 9 363 349 173 257 286 146 40 308 115 
87 8 316 200 274 272 31 44 369 47 
88 9 216 58 358 91 345 224 95 6 82 
89 7 232 163 99 43 331 34 280 
90 9 17 159 303 242 206 228 264 112 114 
91 9 58 224 6 216 88 231 345 358 269 
92 4 143 97 121 2 
93 9 312 299 165 45 192 199 217 22 14 
94 6 325 210 271 354 98 65 
95 9 328 216 88 338 358 8 335 345 58 
96 8 348 367 340 239 350 146 285 24 
97 7 143 92 2 121 290 139 177 
98 9 27 65 354 317 233 210 3 347 209 
99 9 163 136 57 89 131 268 74 232 46 
100 8 29 191 103 119 141 226 139 78 
101 9 25 307 26 194 208 378 151 153 205 
102 9 63 126 259 4 72 174 273 128 261 
103 6 226 29 100 193 119 191 
104 8 288 169 349 173 318 86 146 286 
105 9 319 355 150 238 106 19 84 372 352 
106 9 19 238 319 105 158 64 164 355 84 
107 8 276 18 294 167 33 171 48 212 
108 5 377 110 277 69 178 
109 7 235 300 328 186 335 266 56 
110 7 277 69 178 353 108 377 250 
111 9 41 135 352 35 355 84 311 150 344 
112 9 42 114 303 264 304 17 223 206 342 
113 9 62 155 134 291 176 184 133 149 315 
114 8 206 223 17 112 303 42 90 264 
115 9 187 38 257 278 279 80 308 286 290 
116 9 301 295 298 16 185 32 55 329 314 
117 8 254 31 47 274 287 44 316 200 
118 8 343 333 161 255 160 53 180 83 
119 9 29 78 141 100 24 103 191 196 172 
120 9 311 32 329 185 16 41 135 111 170 
121 8 143 157 271 79 97 140 290 229 
122 9 258 330 182 195 67 54 34 218 280 
123 9 308 40 140 11 79 157 229 257 362 
124 9 70 228 332 242 247 382 211 357 159 
125 9 168 130 264 175 303 42 159 306 253 
126 9 72 174 273 259 127 203 102 128 359 
127 9 174 259 359 72 126 56 266 51 273 
128 9 273 203 126 194 72 102 174 63 259 
129 9 252 21 71 82 218 260 275 258 358 
130 9 125 168 306 175 264 42 304 303 342 
131 9 268 46 284 289 267 156 245 136 154 
132 9 60 213 12 262 202 296 214 172 196 
133 8 149 356 379 155 234 184 113 62 
134 9 62 155 113 166 291 322 179 365 133 
135 9 111 41 35 311 352 120 344 355 372 
136 9 74 46 267 99 57 268 131 245 284 
137 9 233 347 282 50 98 317 3 27 162 
138 8 227 230 305 256 83 161 241 272 
139 7 177 2 191 279 226 100 103 
140 9 79 229 157 123 11 308 121 65 354 
141 9 119 29 100 24 191 78 340 350 103 
142 9 310 53 361 180 20 160 176 81 376 
143 6 97 92 121 271 2 157 
144 3 249 376 20 
145 9 181 199 309 217 188 14 314 312 373 
146 8 286 350 278 340 348 96 86 115 
147 5 190 200 87 316 83 
148 7 381 10 144 249 376 220 20 
149 8 133 356 184 234 379 155 113 81 
150 9 372 344 355 35 105 352 111 319 84 
151 9 26 66 378 205 208 338 221 307 101 
152 8 297 15 231 183 186 6 364 345 
153 9 25 101 215 307 194 128 323 203 273 
154 9 289 368 284 245 268 156 131 46 341 
155 9 62 134 113 133 149 365 356 179 184 
156 9 85 197 289 360 131 268 154 284 46 
157 9 290 140 80 79 121 308 123 229 2 
158 9 64 164 19 106 238 183 327 319 292 
159 9 228 90 303 332 264 125 247 42 253 
160 9 53 118 180 343 333 161 255 310 190 
161 9 343 83 118 333 305 160 138 255 230 
162 9 61 3 346 317 313 380 209 362 68 
163 9 34 54 67 331 99 232 89 280 182 
164 9 158 64 327 183 292 154 19 106 364 
165 9 45 192 299 93 217 312 309 199 314 
166 8 291 134 62 322 113 39 155 315 
167 8 33 18 246 107 171 48 212 276 
168 9 125 175 130 253 264 303 42 306 159 
169 8 104 37 288 59 30 321 285 239 
170 7 236 185 293 263 16 32 120 
171 9 48 212 33 18 167 107 201 204 246 
172 9 196 24 213 78 367 73 132 207 96 
173 9 349 318 86 363 40 288 104 257 286 
174 9 72 127 126 259 273 359 56 203 102 
175 9 168 125 130 253 264 211 159 306 42 
176 9 315 184 113 291 81 310 62 142 149 
177 6 139 226 2 191 103 97 
178 6 277 110 69 193 226 108 
179 8 365 246 322 134 155 62 201 167 
180 9 53 310 255 160 81 375 118 333 343 
181 8 145 188 14 199 309 217 373 314 
182 9 330 122 67 258 54 195 34 218 360 
183 9 297 15 64 152 164 327 364 158 292 
184 9 356 81 149 133 176 234 113 310 379 
185 9 16 32 120 170 329 301 311 116 295 
186 7 109 152 345 15 297 328 235 
187 9 38 279 115 80 278 257 290 308 2 
188 9 14 373 199 312 339 145 217 189 309 
189 5 373 188 14 339 294 
190 4 147 160 83 161 
191 9 100 29 139 141 103 119 226 38 279 
192 9 45 165 299 217 309 314 93 312 199 
193 6 226 103 220 29 100 178 
194 9 307 203 25 101 273 128 26 126 153 
195 9 182 122 258 330 218 360 67 54 269 
196 9 172 24 213 78 367 73 132 207 96 
197 9 85 360 156 269 289 292 327 154 364 
198 9 334 237 240 51 225 261 359 266 300 
199 9 217 312 309 14 299 188 145 93 165 
200 7 316 369 274 31 47 87 117 
201 9 212 48 246 324 171 33 365 204 222 
202 9 214 7 285 262 320 239 132 213 59 
203 9 273 128 194 126 72 174 307 127 259 
204 9 222 212 324 48 171 201 33 342 18 
205 9 378 208 221 326 336 151 49 66 296 
206 7 17 114 90 223 112 303 375 
207 9 73 244 28 60 213 172 196 270 78 
208 9 378 205 221 151 101 326 25 26 307 
209 9 380 11 362 162 61 317 3 313 346 
210 7 271 354 65 325 27 94 98 
211 9 357 77 247 253 332 243 70 228 124 
212 9 48 171 33 201 18 204 167 246 324 
213 9 132 172 60 196 202 73 207 367 214 
214 9 202 7 320 262 285 59 239 132 213 
215 9 323 321 153 30 262 320 37 214 12 
216 9 88 58 345 91 358 224 95 6 231 
217 9 309 199 312 299 314 192 165 45 145 
218 9 195 258 21 269 122 82 129 252 182 
219 3 39 251 371 
220 7 193 10 381 148 36 103 226 
221 9 205 326 378 336 208 49 66 151 296 
222 9 324 204 342 304 201 212 306 48 171 
223 8 114 112 206 379 17 234 304 42 
224 9 6 91 58 231 216 364 88 345 269 
225 9 198 237 261 52 4 240 334 302 51 
226 6 103 193 100 29 177 191 
227 8 138 256 230 305 241 23 83 272 
228 9 332 247 159 242 124 70 90 253 211 
229 9 79 140 65 354 27 11 157 123 121 
230 9 138 227 83 305 256 272 161 23 241 
231 9 6 224 364 91 152 297 58 345 292 
232 9 89 43 331 163 34 280 67 99 54 
233 9 347 137 98 282 50 317 94 27 3 
234 8 379 356 149 133 375 184 81 223 
235 8 300 266 109 335 56 328 359 127 
236 7 263 170 293 311 185 32 120 
237 9 240 51 334 198 261 4 359 102 225 
238 9 106 19 105 319 158 355 64 84 150 
239 9 367 285 96 348 7 59 202 214 340 
240 9 51 237 334 359 259 198 127 266 102 
241 8 23 256 272 227 248 230 138 44 
242 7 228 90 124 332 382 159 70 
243 9 77 357 211 253 247 70 332 175 168 
244 9 73 207 36 78 265 28 374 270 172 
245 9 284 341 267 46 368 268 131 154 289 
246 9 365 33 179 167 201 48 212 171 18 
247 9 332 228 211 253 70 357 159 124 77 
248 9 44 272 23 241 87 254 274 31 316 
249 3 144 381 10 
250 5 353 69 287 47 369 
251 2 219 39 
252 9 21 82 129 71 358 218 66 260 88 
253 9 211 247 175 332 168 357 77 125 159 
254 9 117 44 31 274 47 287 316 200 87 
255 8 333 118 343 375 180 53 160 310 
256 7 227 138 241 23 230 305 272 
257 9 115 308 363 187 86 278 286 38 80 
258 9 122 330 182 195 67 218 54 34 280 
259 9 127 174 72 359 126 102 51 273 240 
260 9 275 75 129 71 258 122 252 218 21 
261 9 4 52 302 237 63 102 240 51 225 
262 9 214 202 320 7 132 12 285 60 323 
263 7 236 170 293 311 185 32 120 
264 9 42 303 125 112 304 159 130 306 168 
265 9 374 36 270 244 370 28 207 73 275 
266 9 300 235 359 335 127 56 51 334 109 
267 9 46 245 341 284 268 131 136 74 368 
268 9 131 46 284 267 245 289 156 341 154 
269 9 360 218 195 224 197 85 91 6 82 
270 9 374 28 265 49 336 207 326 244 73 
271 7 210 354 325 65 121 79 143 
272 9 248 87 23 230 241 44 227 256 138 
273 9 203 126 128 72 174 194 259 127 102 
274 9 31 47 316 200 369 117 87 254 44 
275 9 260 75 71 129 374 265 258 270 122 
276 7 294 107 18 167 33 171 48 
277 6 110 178 69 353 108 377 
278 9 286 115 38 350 187 146 257 279 340 
279 9 187 38 80 115 290 2 278 257 139 
280 9 331 34 43 67 75 122 330 258 54 
281 9 283 9 337 22 74 329 295 57 136 
282 9 50 137 3 317 233 162 346 61 347 
283 9 281 9 329 74 337 295 22 120 41 
284 9 245 46 341 368 267 268 289 154 131 
285 9 7 202 214 59 239 320 367 262 96 
286 8 146 278 350 115 86 257 38 340 
287 5 117 47 250 254 31 
288 8 104 349 173 318 169 86 146 363 
289 9 154 368 156 284 268 131 245 85 46 
290 9 80 157 2 279 187 308 121 38 115 
291 9 166 113 62 315 134 176 39 155 184 
292 9 364 327 231 6 85 197 224 164 183 
293 7 170 185 236 16 263 32 116 
294 6 276 107 18 167 33 189 
295 9 301 116 329 16 32 283 281 45 192 
296 9 12 60 49 326 336 132 28 205 208 
297 9 152 15 183 231 364 6 186 292 327 
298 9 55 314 116 301 192 309 45 295 165 
299 9 165 45 192 217 312 93 199 309 314 
300 8 235 266 109 335 359 56 334 127 
301 9 116 295 16 185 298 32 329 120 192 
302 9 52 4 261 63 13 102 237 225 128 
303 9 264 42 112 159 125 90 304 17 130 
304 9 342 306 42 264 112 303 130 222 125 
305 8 138 161 83 230 227 343 118 333 
306 9 342 304 130 42 264 125 168 303 112 
307 9 25 101 194 26 151 208 203 378 153 
308 9 257 123 80 115 363 157 187 40 290 
309 9 217 314 199 299 145 312 192 165 45 
310 9 180 81 53 375 255 142 184 160 176 
311 9 120 135 41 32 111 185 329 35 16 
312 9 199 93 217 299 14 165 188 309 45 
313 9 68 346 61 162 380 3 362 209 317 
314 9 309 217 298 192 299 45 55 199 165 
315 8 176 291 113 39 361 62 184 166 
316 7 200 274 369 31 47 87 117 
317 9 3 162 61 209 346 50 380 313 98 
318 9 173 349 288 86 363 40 104 68 362 
319 9 105 84 355 238 106 19 352 150 372 
320 9 214 7 285 202 59 262 37 323 239 
321 9 30 323 215 37 320 59 214 262 7 
322 5 179 134 166 62 365 
323 9 215 321 262 320 30 214 153 37 12 
324 9 222 204 201 342 212 304 48 171 306 
325 5 94 210 271 354 65 
326 9 336 221 49 205 378 208 28 296 270 
327 9 292 364 164 183 85 197 231 154 6 
328 7 95 335 109 8 235 56 345 
329 9 120 32 16 283 185 295 9 311 281 
330 9 182 122 258 67 54 195 34 331 280 
331 9 34 280 43 67 54 163 232 330 122 
332 9 247 228 211 70 159 253 124 357 242 
333 8 343 118 255 161 160 53 180 305 
334 9 240 51 198 237 266 359 300 259 127 
335 8 56 235 8 328 266 300 109 127 
336 9 326 49 221 28 205 296 378 270 208 
337 9 57 22 281 74 283 136 93 165 45 
338 9 8 26 151 95 56 66 335 328 194 
339 5 14 188 373 189 312 
340 9 350 348 96 367 146 141 239 24 278 
341 9 245 267 284 46 368 268 154 131 289 
342 9 304 306 222 42 324 130 264 112 303 
343 8 118 333 161 255 160 305 83 53 
344 9 372 150 35 355 135 111 352 105 41 
345 8 216 58 91 88 6 231 224 95 
346 9 61 313 162 3 68 317 380 209 362 
347 9 233 137 98 282 50 94 27 317 210 
348 8 96 340 367 239 350 146 24 285 
349 8 173 318 86 363 288 104 40 257 
350 8 340 146 278 286 348 96 141 38 
351 9 76 366 13 153 302 215 63 128 4 
352 9 84 111 355 41 35 150 135 319 372 
353 6 69 250 110 277 377 369 
354 9 65 27 210 229 79 271 98 140 121 
355 9 150 372 352 35 105 344 84 319 111 
356 8 149 133 234 379 184 81 375 155 
357 9 77 211 243 247 253 70 332 228 124 
358 9 88 82 21 216 58 252 95 91 66 
359 9 127 259 51 174 266 72 240 56 126 
360 9 197 85 156 269 195 182 330 54 218 
361 7 20 376 142 144 315 176 148 
362 9 380 209 11 61 162 313 68 40 346 
363 9 86 257 40 173 308 349 286 115 123 
364 9 292 327 231 6 224 91 183 297 85 
365 9 179 246 201 155 134 33 62 167 322 
366 9 76 351 13 153 215 302 321 30 128 
367 9 96 348 239 340 172 196 285 7 202 
368 9 154 284 245 289 341 46 267 268 131 
369 7 200 316 47 31 274 87 117 
370 6 5 36 10 265 381 249 
371 3 251 219 5 
372 9 344 150 35 355 105 352 111 135 319 
373 5 189 188 14 339 145 
374 9 270 265 28 49 36 244 207 336 275 
375 8 255 81 234 180 310 379 53 356 
376 7 20 361 144 148 381 249 142 
377 5 108 69 353 110 369 
378 9 205 208 221 151 326 26 101 336 66 
379 8 234 356 149 133 375 184 223 81 
380 9 362 209 61 162 313 11 68 346 3 
381 6 10 148 249 144 220 376 
382 5 124 242 70 228 256 
DEPOT_SECTION
   1
   -1
EOF
