NAME :  X-n429-kX-w85-c11.cctp
COMMENT : 	Adapted by Maziero, Usberti and Cavellucci from the Uchoa, Pecin, Pessoa, Poggi, Subramanian, and Vidal (2013)
TYPE :  CCTP
DIMENSION :    407
EDGE_WEIGHT_TYPE : 	EUC_2D	
CAPACITY : 	536
VERTICES_WITHIN_COVERAGE :  11
VERTICES_WITH_DEMAND : 	85
NODE_COORD_SECTION
1 238 446
2 749 750
3 960 879
4 914 116
5 517 477
6 554 143
7 850 488
8 739 177
9 229 160
10 539 573
11 901 821
12 787 399
13 974 203
14 89 387
15 561 27
16 103 139
17 174 826
18 40 578
19 359 23
20 440 649
21 588 265
22 182 275
23 401 993
24 751 564
25 797 274
26 756 252
27 871 882
28 693 417
29 710 620
30 960 422
31 530 904
32 124 126
33 67 587
34 440 336
35 219 38
36 609 504
37 936 474
38 800 689
39 358 530
40 914 753
41 210 96
42 95 816
43 441 389
44 506 963
45 114 285
46 333 191
47 545 892
48 59 618
49 698 385
50 977 931
51 822 79
52 951 91
53 341 759
54 439 290
55 1 258
56 756 147
57 252 284
58 588 168
59 895 501
60 759 442
61 967 855
62 244 601
63 888 148
64 442 18
65 847 877
66 683 267
67 446 301
68 997 815
69 586 777
70 129 986
71 613 331
72 811 156
73 704 494
74 265 216
75 511 373
76 981 261
77 48 985
78 723 558
79 839 828
80 803 737
81 296 719
82 589 252
83 374 862
84 277 82
85 451 183
86 904 681
87 474 908
88 609 185
89 346 382
90 158 866
91 572 161
92 704 828
93 142 331
94 801 969
95 680 88
96 672 178
97 827 566
98 728 793
99 888 917
100 326 298
101 718 636
102 792 283
103 866 141
104 682 640
105 961 604
106 299 23
107 358 22
108 27 552
109 508 739
110 692 85
111 582 748
112 220 76
113 128 795
114 268 622
115 167 789
116 827 698
117 68 190
118 561 928
119 328 817
120 719 595
121 152 111
122 780 824
123 486 302
124 877 775
125 156 976
126 62 854
127 824 163
128 796 134
129 848 204
130 581 299
131 37 832
132 364 210
133 778 453
134 229 676
135 448 488
136 234 586
137 194 65
138 300 238
139 939 983
140 354 914
141 647 901
142 719 709
143 845 806
144 753 610
145 384 707
146 741 825
147 457 590
148 35 357
149 862 623
150 447 838
151 518 607
152 886 602
153 235 680
154 249 16
155 724 269
156 567 58
157 865 296
158 387 143
159 222 629
160 419 205
161 813 784
162 426 19
163 116 881
164 361 788
165 346 845
166 762 959
167 961 860
168 388 315
169 433 70
170 116 292
171 264 540
172 76 564
173 247 445
174 42 866
175 988 538
176 77 75
177 419 541
178 46 609
179 624 658
180 761 523
181 954 696
182 807 151
183 22 882
184 320 646
185 682 723
186 591 702
187 163 587
188 327 755
189 467 531
190 8 378
191 469 286
192 502 45
193 278 681
194 104 123
195 638 65
196 806 705
197 87 388
198 70 459
199 427 812
200 736 661
201 108 285
202 635 631
203 442 797
204 808 238
205 494 268
206 761 524
207 455 188
208 843 3
209 84 342
210 509 878
211 98 641
212 835 478
213 814 202
214 33 673
215 729 323
216 193 813
217 702 480
218 748 318
219 925 844
220 814 904
221 68 961
222 59 627
223 773 483
224 845 468
225 904 365
226 613 161
227 79 325
228 532 267
229 382 505
230 603 595
231 700 327
232 58 709
233 166 753
234 554 159
235 251 439
236 925 3
237 97 16
238 97 24
239 667 660
240 355 936
241 130 923
242 852 837
243 381 911
244 554 116
245 387 383
246 908 985
247 236 723
248 479 755
249 728 93
250 85 31
251 861 58
252 348 13
253 850 535
254 833 72
255 393 995
256 433 581
257 184 919
258 20 992
259 680 498
260 330 163
261 115 593
262 100 942
263 768 928
264 466 983
265 477 550
266 599 837
267 406 531
268 596 274
269 60 921
270 622 862
271 550 949
272 301 792
273 354 963
274 856 708
275 493 303
276 817 131
277 557 353
278 183 731
279 910 91
280 833 437
281 72 12
282 94 829
283 619 456
284 761 88
285 317 184
286 357 202
287 516 212
288 655 419
289 789 881
290 439 945
291 823 190
292 523 905
293 561 376
294 13 539
295 591 737
296 827 661
297 788 713
298 455 357
299 200 213
300 982 944
301 199 197
302 344 164
303 859 498
304 855 650
305 605 903
306 961 616
307 391 167
308 791 757
309 291 577
310 490 126
311 25 95
312 20 522
313 121 204
314 755 392
315 549 56
316 43 240
317 110 305
318 739 76
319 84 184
320 953 127
321 108 836
322 76 779
323 331 883
324 45 791
325 791 266
326 854 741
327 66 316
328 322 731
329 162 83
330 110 342
331 987 835
332 53 290
333 339 605
334 508 883
335 946 885
336 628 906
337 986 694
338 660 678
339 309 48
340 873 461
341 949 410
342 193 531
343 890 388
344 104 508
345 81 698
346 778 937
347 704 356
348 469 110
349 687 142
350 158 154
351 471 294
352 439 348
353 25 467
354 113 935
355 316 819
356 807 40
357 730 134
358 698 366
359 219 270
360 728 209
361 137 420
362 814 593
363 315 153
364 60 763
365 324 822
366 226 7
367 613 135
368 989 857
369 904 996
370 828 569
371 951 678
372 819 618
373 991 254
374 253 75
375 588 802
376 840 877
377 260 38
378 244 697
379 63 980
380 620 219
381 800 109
382 467 220
383 417 647
384 938 810
385 898 705
386 507 121
387 154 615
388 993 267
389 817 539
390 358 136
391 527 863
392 555 502
393 439 480
394 237 9
395 501 789
396 79 432
397 636 429
398 272 761
399 454 640
400 515 783
401 734 311
402 226 723
403 946 827
404 473 856
405 641 87
406 523 585
407 231 980
DEMAND_SECTION
2 55
3 64
4 100
5 66
6 68
7 95
8 67
9 100
10 75
11 65
12 98
13 100
14 66
15 82
16 84
17 89
18 62
19 64
20 87
21 94
22 75
23 53
24 99
25 85
26 87
27 83
28 82
29 78
30 84
31 67
32 61
33 56
34 63
35 98
36 79
37 95
38 92
39 51
40 66
41 50
42 82
43 66
44 75
45 73
46 83
47 76
48 72
49 62
50 78
51 56
52 98
53 56
54 51
55 84
56 81
57 65
58 61
59 64
60 78
61 78
62 78
63 60
64 59
65 80
66 88
67 96
68 75
69 81
70 51
71 61
72 67
73 56
74 87
75 88
76 54
77 50
78 99
79 85
80 79
81 94
82 86
83 85
84 58
85 82
86 52
COVERAGE_SECTION
2 11 308 98 142 297 80 161 185 196 146 38 122 
3 11 335 167 61 368 219 331 403 50 300 384 68 
4 11 279 63 320 52 103 251 254 276 51 127 13 
5 9 392 135 189 393 265 36 10 75 283 
6 11 234 91 244 58 386 367 226 310 88 287 156 
7 11 303 212 224 340 59 253 280 389 223 133 97 
8 11 56 360 357 349 96 128 182 72 26 213 249 
9 11 301 299 41 74 350 112 363 374 121 285 84 
10 9 406 151 265 230 392 189 147 5 36 
11 11 219 384 403 124 242 143 79 27 40 167 61 
12 11 314 60 133 280 223 49 218 224 212 347 358 
13 11 373 76 388 320 63 4 52 103 129 279 157 
14 11 197 209 396 330 361 148 227 198 327 93 190 
15 11 315 156 192 195 244 405 386 6 64 367 310 
16 11 194 32 319 121 350 117 313 176 329 311 250 
17 10 216 115 90 113 321 233 42 163 282 257 
18 11 33 108 178 172 48 294 222 312 261 211 214 
19 11 107 252 339 106 162 64 169 377 84 154 390 
20 10 399 383 147 256 145 151 406 265 177 333 
21 11 268 82 130 228 380 71 88 287 277 205 66 
22 11 359 299 170 45 93 57 201 317 301 313 330 
23 9 255 273 290 264 240 243 140 44 87 
24 11 78 206 180 120 144 29 362 389 97 370 101 
25 11 102 325 204 26 218 157 155 401 213 215 129 
26 11 155 325 25 102 360 204 401 218 66 215 8 
27 11 65 376 99 242 220 79 219 11 335 143 289 
28 11 49 288 358 397 347 217 314 60 73 259 283 
29 11 101 120 104 144 200 239 78 24 202 338 142 
30 11 341 37 343 225 340 59 175 224 303 7 280 
31 11 292 47 334 210 118 391 271 87 44 305 404 
32 11 194 16 121 350 329 176 319 313 117 41 137 
33 11 172 18 178 48 222 261 108 211 294 312 344 
34 11 352 298 67 54 351 43 168 123 191 275 245 
35 11 366 394 137 154 112 377 374 41 84 329 106 
36 11 283 392 259 397 230 5 73 217 288 10 406 
37 11 59 30 340 341 303 175 7 224 343 212 253 
38 11 196 297 116 296 80 274 304 308 200 372 326 
39 9 229 267 177 333 309 256 171 393 135 
40 11 124 385 326 384 11 181 86 274 403 371 143 
41 11 112 137 374 329 35 121 9 84 377 350 154 
42 11 282 321 113 322 126 324 131 364 163 174 115 
43 11 298 352 34 245 75 67 168 393 89 123 54 
44 11 264 271 292 31 87 118 290 334 47 210 391 
45 11 201 170 317 227 93 327 330 332 209 22 313 
46 11 285 286 260 302 132 363 138 390 307 74 158 
47 11 31 292 391 334 118 210 271 305 87 266 404 
48 11 222 178 33 18 211 172 214 261 108 345 232 
49 11 358 347 28 288 314 231 215 397 401 60 218 
50 11 300 3 335 139 167 368 61 246 99 331 369 
51 11 254 381 356 251 276 128 284 182 103 72 208 
52 11 320 279 4 63 236 251 103 13 254 51 208 
53 11 188 328 164 272 119 81 355 365 145 398 165 
54 11 67 191 351 34 123 275 168 352 205 298 382 
55 11 316 332 327 117 227 148 201 319 45 209 317 
56 11 357 8 128 182 72 381 284 249 276 360 349 
57 11 359 138 74 22 100 299 301 285 93 46 9 
58 11 91 226 88 234 367 6 380 244 82 287 96 
59 11 303 340 7 37 253 224 212 389 280 97 370 
60 11 133 223 314 12 217 28 280 73 180 206 49 
61 11 167 368 3 331 403 335 219 68 384 11 50 
62 11 136 114 159 309 171 134 153 187 193 342 184 
63 11 103 4 279 127 320 129 276 72 291 182 52 
64 11 162 169 192 19 107 252 348 315 310 15 386 
65 11 376 27 242 220 79 99 289 143 11 122 219 
66 11 155 231 401 215 360 26 380 218 268 96 347 
67 11 54 351 191 34 123 275 352 298 205 168 382 
68 11 331 368 61 403 167 384 3 219 335 11 40 
69 9 375 111 295 266 400 186 395 109 270 
70 11 125 262 354 241 221 379 77 257 269 407 163 
71 11 130 268 277 293 21 82 231 358 347 66 288 
72 11 182 127 276 128 291 213 381 56 103 129 8 
73 11 217 259 180 206 78 223 60 28 24 133 288 
74 11 138 285 299 9 57 301 359 46 363 260 286 
75 11 277 293 298 43 275 123 352 34 351 67 191 
76 11 373 388 13 157 225 320 129 63 341 343 4 
77 11 379 258 221 269 262 70 354 241 183 125 174 
78 11 24 120 206 180 144 29 73 259 101 217 223 
79 11 242 143 376 65 161 122 11 27 124 289 220 
80 11 308 297 196 116 38 161 326 2 274 296 143 
81 11 328 193 188 398 378 53 247 402 153 272 184 
82 11 21 268 380 130 228 88 71 287 58 91 226 
83 11 165 323 243 140 119 365 355 199 164 240 150 
84 11 374 339 377 112 106 41 154 35 363 394 137 
85 11 207 160 382 307 310 287 158 348 386 132 205 
86 11 385 371 181 274 304 149 40 326 116 296 152 
87 11 334 210 292 290 404 31 44 391 47 150 264 
88 11 226 58 380 91 367 234 96 6 82 21 244 
89 11 245 168 100 43 352 34 235 298 173 229 67 
90 11 17 163 321 257 216 241 282 113 115 42 354 
91 11 58 234 6 226 88 244 367 380 287 386 310 
92 7 146 98 122 270 2 141 289 
93 11 330 317 170 45 201 209 227 22 14 327 197 
94 10 346 166 263 220 289 376 99 65 369 246 
95 11 110 405 195 249 349 318 357 284 367 96 56 
96 11 349 226 88 360 380 8 357 367 58 56 66 
97 11 370 389 362 253 372 149 152 303 24 206 180 
98 9 146 92 2 122 308 142 185 161 80 
99 11 27 65 376 335 246 220 3 369 219 139 242 
100 11 168 138 57 89 132 286 74 245 46 359 54 
101 11 29 200 104 120 144 239 338 142 78 24 202 
102 11 25 325 26 204 218 401 155 157 215 213 129 
103 11 63 127 276 4 72 182 291 129 279 128 381 
104 10 239 29 101 338 202 120 200 179 144 142 
105 11 306 175 152 371 181 337 86 149 304 385 59 
106 11 339 377 154 252 107 19 84 394 374 366 35 
107 11 19 252 339 106 162 64 169 377 84 154 390 
108 11 294 18 312 172 33 178 48 222 353 344 261 
109 10 248 400 395 111 295 69 203 186 375 199 
110 11 95 249 318 405 349 195 357 284 56 367 96 
111 9 295 69 186 375 109 400 266 395 179 
112 11 41 137 374 35 377 84 329 154 366 394 121 
113 11 42 115 321 282 322 17 233 216 364 90 324 
114 11 62 159 136 309 184 193 134 153 333 378 171 
115 11 216 233 17 113 278 321 42 90 282 402 322 
116 11 196 38 274 296 297 80 326 304 308 385 86 
117 11 319 313 316 16 194 32 55 350 332 201 311 
118 10 271 31 47 292 305 44 334 336 210 391 
119 10 365 355 165 272 164 53 188 83 323 398 
120 11 29 78 144 101 24 104 200 206 180 239 202 
121 11 329 32 350 194 16 41 137 112 176 9 301 
122 10 146 161 289 79 98 143 308 242 92 2 
123 11 275 351 191 205 67 54 34 228 298 352 75 
124 11 326 40 143 11 79 161 242 274 384 385 80 
125 11 70 241 354 257 262 407 221 379 163 77 90 
126 11 174 131 282 183 321 42 163 324 269 322 113 
127 11 72 182 291 276 128 213 103 129 381 63 56 
128 11 182 276 381 72 127 56 284 51 291 357 103 
129 11 291 213 127 204 72 103 182 63 276 325 25 
130 11 268 21 71 82 228 277 293 275 380 205 123 
131 11 126 174 324 183 282 42 322 321 364 269 163 
132 11 286 46 302 307 285 160 260 138 158 390 363 
133 11 60 223 12 280 212 314 224 180 206 7 217 
134 11 153 378 402 159 247 193 114 278 62 81 136 
135 8 393 189 177 267 229 265 5 256 
136 11 62 159 114 171 309 342 187 387 134 153 184 
137 11 112 41 35 329 374 121 366 377 394 154 84 
138 11 74 46 285 100 57 286 132 260 302 363 359 
139 11 246 369 300 50 99 335 3 27 167 61 368 
140 9 240 243 323 273 83 165 255 290 23 
141 7 336 305 270 266 118 92 47 
142 10 185 2 200 338 297 239 101 104 38 98 
143 11 79 242 161 124 11 326 122 65 376 308 27 
144 11 120 29 101 24 200 78 362 372 104 370 97 
145 11 328 53 383 188 20 164 184 81 399 248 203 
146 7 98 92 122 289 2 161 308 
147 8 256 265 399 189 20 177 151 406 
148 11 190 209 327 227 197 14 332 330 396 317 201 
149 11 304 152 372 296 362 370 97 86 116 274 253 
150 10 404 199 203 395 210 87 334 83 391 400 
151 9 406 10 147 265 399 230 20 256 189 
152 11 149 304 370 97 372 362 105 253 306 86 296 
153 11 134 378 193 247 402 159 114 81 278 62 398 
154 11 394 366 377 35 106 374 112 339 84 137 41 
155 11 26 66 401 215 218 360 231 325 102 25 347 
156 11 315 15 244 192 195 405 6 386 367 234 91 
157 11 25 102 225 325 204 129 343 213 291 26 218 
158 11 307 390 302 260 286 160 132 46 363 85 285 
159 11 62 136 114 134 153 387 378 187 193 309 402 
160 11 85 207 307 382 132 286 158 302 46 54 390 
161 11 308 143 80 79 122 326 124 242 2 297 196 
162 11 64 169 19 107 252 192 348 339 310 106 315 
163 11 241 90 321 354 282 126 262 42 269 174 257 
164 11 53 119 188 365 355 165 272 328 199 83 203 
165 10 365 83 119 355 323 164 140 272 243 53 
166 7 346 263 94 220 289 376 65 
167 11 61 3 368 335 331 403 219 384 68 11 50 
168 11 34 54 67 352 100 245 89 298 191 351 43 
169 11 162 64 348 192 310 158 19 107 386 390 252 
170 11 45 201 317 93 227 330 327 209 332 22 313 
171 10 309 136 62 342 114 39 173 159 333 235 
172 11 33 18 261 108 178 48 344 222 294 312 211 
173 7 235 171 342 361 89 309 39 
174 11 126 183 131 269 282 321 42 324 163 322 262 
175 11 105 37 306 59 30 152 341 303 253 340 371 
176 11 250 194 238 311 237 281 16 32 121 329 319 
177 8 267 256 189 229 265 135 39 147 
178 11 48 222 33 18 172 108 211 214 261 294 312 
179 10 202 338 239 186 104 230 295 185 29 101 
180 11 206 24 223 78 389 73 133 217 97 60 370 
181 11 371 337 86 385 40 306 105 274 304 124 326 
182 11 72 128 127 276 291 381 56 213 103 129 8 
183 11 174 126 131 269 282 221 163 324 42 262 321 
184 11 333 193 114 309 81 328 62 145 153 378 134 
185 10 142 338 239 2 200 104 98 179 295 186 
186 10 295 111 179 338 69 202 239 109 185 375 
187 9 387 261 342 136 159 62 211 172 33 
188 10 53 328 272 164 81 398 119 355 365 145 
189 8 265 135 177 393 147 256 267 5 
190 11 148 197 14 209 327 227 396 353 332 198 330 
191 11 351 123 67 275 54 205 34 228 382 352 298 
192 11 315 15 64 156 169 348 386 162 310 244 6 
193 11 378 81 153 134 184 247 114 328 402 159 398 
194 11 16 32 121 176 350 319 329 117 313 311 250 
195 11 405 95 110 156 367 15 315 349 249 244 226 
196 11 38 297 116 80 296 274 308 326 2 304 161 
197 11 14 396 209 330 361 148 227 198 327 93 190 
198 9 396 353 344 197 14 361 312 294 108 
199 10 203 150 404 164 83 248 395 165 400 119 
200 11 101 29 142 144 104 120 239 38 297 338 185 
201 11 45 170 317 227 327 332 93 330 209 22 316 
202 10 179 239 104 230 338 29 101 186 120 185 
203 10 199 150 248 395 404 400 164 109 83 210 
204 11 325 213 25 102 291 129 26 127 157 72 360 
205 11 191 123 275 351 228 382 67 54 287 34 207 
206 11 180 24 223 78 389 73 133 217 97 370 60 
207 11 85 382 160 287 307 310 348 158 386 205 132 
208 11 356 251 254 51 236 279 381 284 318 276 4 
209 11 227 330 327 14 317 197 148 93 170 332 201 
210 10 334 391 292 31 47 404 87 118 150 271 
211 11 222 48 261 345 178 33 387 214 232 172 187 
212 11 224 7 303 280 340 253 133 223 59 389 60 
213 11 291 129 204 127 72 182 325 128 276 25 26 
214 11 232 222 345 48 178 211 33 364 18 322 261 
215 11 401 218 231 347 358 155 49 66 314 102 26 
216 10 17 115 90 233 113 278 321 398 402 42 
217 11 73 259 28 60 223 180 206 288 78 133 397 
218 11 401 215 231 155 102 347 25 26 325 358 314 
219 11 403 11 384 167 61 335 3 331 368 27 242 
220 10 289 376 65 346 263 27 94 99 166 242 
221 11 379 77 262 269 354 258 70 241 125 183 163 
222 11 48 178 33 211 18 214 172 261 345 108 232 
223 11 133 180 60 206 212 73 217 389 224 280 7 
224 11 212 7 340 280 303 59 253 133 223 389 12 
225 11 343 341 157 30 280 340 37 224 12 76 212 
226 11 88 58 367 91 380 234 96 6 244 349 405 
227 11 327 209 330 317 332 201 170 45 148 14 93 
228 11 205 275 21 287 123 82 130 268 191 351 382 
229 8 39 267 177 393 135 189 256 265 
230 11 202 179 10 406 151 36 104 239 338 392 186 
231 11 215 347 401 358 218 49 66 155 314 71 28 
232 11 345 214 364 322 211 222 324 48 178 113 42 
233 11 278 115 113 216 402 17 247 322 42 378 134 
234 11 6 91 58 244 226 386 88 367 287 310 380 
235 7 173 171 342 89 361 39 309 
236 11 208 251 279 52 4 254 356 320 51 63 103 
237 11 238 250 281 176 329 194 311 137 121 32 16 
238 11 237 250 281 176 329 194 311 121 137 32 16 
239 10 338 104 179 202 101 29 185 200 142 120 
240 9 140 273 243 323 255 23 83 290 165 
241 11 354 262 163 257 125 70 90 269 221 379 321 
242 11 79 143 65 376 27 11 161 124 122 219 220 
243 11 140 240 83 323 273 290 165 23 255 87 150 
244 11 6 234 386 91 156 315 58 367 310 226 348 
245 11 89 43 352 168 34 298 67 100 54 393 135 
246 11 369 139 99 300 50 335 94 27 3 65 220 
247 11 402 378 153 134 398 278 193 81 233 328 115 
248 10 109 395 400 203 199 150 404 111 145 69 
249 11 318 284 110 357 95 56 349 381 128 8 405 
250 11 238 237 281 176 311 329 194 32 121 16 137 
251 11 254 51 356 208 279 4 381 103 236 276 63 
252 11 107 19 106 339 162 377 64 84 154 169 394 
253 11 389 303 97 370 7 59 212 224 362 152 340 
254 11 51 251 356 381 276 208 128 284 103 279 182 
255 9 23 273 290 240 264 243 140 44 87 
256 8 147 177 265 267 189 399 20 383 
257 9 241 90 125 354 407 163 70 262 17 
258 11 77 379 221 269 262 70 354 183 174 241 125 
259 11 73 217 36 78 283 28 397 288 180 206 223 
260 11 302 363 285 46 390 286 132 158 307 138 74 
261 11 387 33 187 172 211 48 222 178 18 344 108 
262 11 354 241 221 269 70 379 163 125 77 257 258 
263 8 346 166 289 220 94 376 65 122 
264 11 44 290 23 255 87 271 292 31 334 118 243 
265 8 189 147 256 406 177 10 135 151 
266 9 270 375 69 305 336 47 391 141 111 
267 8 177 229 39 256 135 189 393 265 
268 11 21 82 130 71 380 228 66 277 88 287 205 
269 11 221 262 183 354 174 379 77 126 163 241 258 
270 7 266 305 336 141 375 47 92 
271 11 118 44 31 292 47 305 334 210 87 336 391 
272 10 355 119 365 398 188 53 164 328 165 81 
273 8 240 140 255 23 243 323 290 83 
274 11 116 326 385 196 86 296 304 38 80 297 124 
275 11 123 351 191 205 67 228 54 34 298 352 75 
276 11 128 182 72 381 127 103 51 291 254 56 213 
277 11 293 75 130 71 275 123 268 228 21 298 351 
278 11 233 402 247 115 378 134 153 216 113 398 17 
279 11 4 52 320 251 63 103 254 51 236 276 208 
280 11 224 212 340 7 133 12 303 60 343 223 59 
281 11 250 237 238 176 311 329 194 32 121 16 137 
282 11 42 321 126 113 322 163 131 324 174 90 364 
283 11 397 36 288 259 392 28 217 73 293 5 49 
284 11 318 249 381 357 128 56 51 356 110 276 254 
285 11 46 260 363 302 286 132 138 74 390 307 158 
286 11 132 46 302 285 260 307 160 363 158 390 138 
287 11 382 228 205 234 207 85 91 6 82 58 191 
288 11 397 28 283 49 358 217 347 259 73 36 71 
289 10 220 263 376 346 65 122 79 146 242 27 
290 11 264 87 23 243 255 44 240 273 140 292 334 
291 11 213 127 129 72 182 204 276 128 103 63 56 
292 11 31 47 334 210 391 118 87 271 44 404 305 
293 11 277 75 71 130 397 283 275 288 123 268 298 
294 11 312 108 18 172 33 353 178 48 344 198 222 
295 10 111 186 69 375 109 179 400 338 185 266 
296 11 304 116 38 372 196 149 274 297 362 80 86 
297 11 196 38 80 116 308 2 296 274 142 326 200 
298 11 352 34 43 67 75 123 351 275 54 191 245 
299 11 301 9 359 22 74 350 313 57 138 45 121 
300 11 50 139 3 335 246 167 368 61 369 99 331 
301 11 299 9 350 74 359 313 22 121 41 57 32 
302 11 260 46 363 390 285 286 307 158 132 160 138 
303 11 7 212 224 59 253 340 389 280 97 370 37 
304 11 149 296 372 116 152 86 274 38 362 385 196 
305 9 336 141 270 118 47 266 271 31 292 
306 11 105 371 152 181 337 175 86 149 385 304 59 
307 11 158 390 160 302 286 132 260 85 46 207 285 
308 11 80 161 2 297 196 326 122 38 116 98 143 
309 11 171 114 62 333 136 184 39 159 193 342 229 
310 11 386 348 244 6 85 207 234 169 192 91 287 
311 11 176 194 250 16 281 238 32 117 237 319 121 
312 9 294 108 353 18 172 33 198 344 178 
313 11 319 117 350 16 32 301 299 45 201 194 316 
314 11 12 60 49 347 358 133 28 215 218 401 231 
315 11 156 15 192 244 386 6 195 310 348 405 367 
316 11 55 332 117 319 201 327 45 313 170 227 317 
317 11 170 45 201 227 330 93 209 327 332 22 14 
318 11 249 284 110 357 95 381 56 356 128 51 349 
319 11 117 313 16 194 316 32 350 121 201 45 311 
320 11 52 4 279 63 13 103 251 236 129 254 373 
321 11 282 42 113 163 126 90 322 17 131 174 115 
322 11 364 324 42 282 113 321 131 232 126 345 115 
323 9 140 165 83 243 240 365 119 355 273 
324 11 364 322 131 42 282 126 174 321 113 232 183 
325 11 25 102 204 26 155 218 213 401 157 291 129 
326 11 274 124 80 116 385 161 196 40 308 143 297 
327 11 227 332 209 317 148 330 201 170 45 14 197 
328 11 188 81 53 398 272 145 193 164 184 378 119 
329 11 121 137 41 32 112 194 350 35 16 176 238 
330 11 209 93 227 317 14 170 197 327 45 201 148 
331 11 68 368 61 167 403 3 384 219 335 11 50 
332 11 327 227 316 201 317 45 55 209 170 148 330 
333 11 184 309 114 39 383 62 193 256 171 267 177 
334 10 210 292 391 31 47 87 404 118 150 271 
335 11 3 167 61 219 368 50 403 331 99 300 27 
336 7 141 305 270 118 266 47 271 
337 11 181 371 306 86 385 40 105 68 384 274 124 
338 10 239 179 104 185 202 142 101 186 29 200 
339 11 106 84 377 252 107 19 374 154 394 35 112 
340 11 224 7 303 212 59 280 37 343 253 341 30 
341 11 30 343 225 37 340 59 224 280 7 303 212 
342 7 187 136 171 62 344 387 261 
343 11 225 341 280 340 30 224 157 37 12 212 7 
344 6 198 172 396 312 261 33 
345 11 232 214 211 364 222 322 48 178 324 233 278 
346 8 263 166 94 220 289 376 65 27 
347 11 358 231 49 215 401 218 28 314 288 155 66 
348 11 310 386 169 192 85 207 244 158 6 64 307 
349 11 96 357 95 110 8 249 56 405 367 226 360 
350 11 121 32 16 301 194 313 9 329 299 41 319 
351 11 191 123 275 67 54 205 34 352 298 228 382 
352 11 34 298 43 67 54 168 245 351 123 191 275 
353 9 198 312 396 294 108 344 190 197 14 
354 11 262 241 221 70 163 269 125 379 257 77 90 
355 10 365 119 272 165 164 53 188 323 83 398 
356 11 254 51 208 251 284 381 318 276 128 249 182 
357 11 56 249 8 349 284 318 110 128 95 96 381 
358 11 347 49 231 28 215 314 401 288 218 397 71 
359 11 57 22 299 74 301 138 93 170 45 9 100 
360 11 8 26 155 96 56 66 357 349 204 325 213 
361 6 14 197 396 198 330 93 
362 11 372 370 97 389 149 144 253 24 296 304 152 
363 11 260 285 302 46 390 286 158 132 307 74 84 
364 11 322 324 232 42 345 131 282 113 321 126 214 
365 10 119 355 165 272 164 323 83 53 188 398 
366 11 394 154 35 377 137 112 374 106 41 84 339 
367 11 226 58 91 88 405 6 244 234 96 195 349 
368 11 61 331 167 3 68 335 403 219 384 50 300 
369 11 246 139 99 300 50 94 27 335 220 3 65 
370 11 97 362 389 253 372 149 152 24 303 180 206 
371 11 181 337 86 385 306 105 40 152 274 304 149 
372 11 362 149 296 304 370 97 144 152 38 389 116 
373 11 76 388 13 157 320 225 63 129 4 341 52 
374 11 84 112 377 41 35 154 137 339 394 106 366 
375 9 69 266 111 295 270 400 391 395 47 
376 11 65 27 220 242 79 289 99 143 122 11 346 
377 11 154 394 374 35 106 366 84 339 112 137 41 
378 11 153 134 247 402 193 81 278 398 159 114 328 
379 11 77 221 258 262 269 70 354 241 125 183 163 
380 11 88 82 21 226 58 268 96 91 66 367 130 
381 11 128 276 51 182 284 72 254 56 127 318 356 
382 11 207 85 160 287 205 191 351 54 228 67 123 
383 9 20 399 145 256 147 333 184 177 151 
384 11 403 219 11 61 167 331 68 40 368 124 3 
385 11 86 274 40 181 326 371 304 116 124 296 337 
386 11 310 348 244 6 234 91 192 315 85 207 156 
387 11 187 261 211 159 136 33 62 172 342 48 222 
388 11 76 373 13 157 225 320 341 30 129 63 343 
389 11 97 370 253 362 180 206 303 7 212 24 223 
390 11 158 302 260 307 363 46 285 286 132 160 84 
391 10 210 334 47 31 292 404 87 118 266 395 
392 9 5 36 10 283 406 265 189 230 135 
393 8 135 189 267 229 177 5 265 43 
394 11 366 154 35 377 106 374 112 137 339 84 41 
395 10 400 248 109 203 150 404 199 391 69 375 
396 9 198 197 14 361 353 344 148 190 209 
397 11 288 283 28 49 36 259 217 358 293 73 347 
398 10 272 81 247 188 328 402 53 378 355 119 
399 9 20 383 147 256 151 406 265 145 177 
400 10 395 109 248 69 203 375 111 391 404 150 
401 11 215 218 231 155 347 26 102 358 66 25 325 
402 11 247 378 153 278 134 398 193 233 81 115 159 
403 11 384 219 61 167 331 11 68 368 3 335 40 
404 10 150 210 334 87 391 199 203 292 395 31 
405 11 195 95 110 367 349 156 226 249 244 96 58 
406 9 10 151 265 147 189 230 399 392 256 
407 7 125 257 70 241 273 354 240 
DEPOT_SECTION
   1
   -1
EOF
