NAME :  X-n480-kX-w95-c11.cctp
COMMENT : 	Adapted by Maziero, Usberti and Cavellucci from the Uchoa, Pecin, Pessoa, Poggi, Subramanian, and Vidal (2013)
TYPE :  CCTP
DIMENSION :    467
EDGE_WEIGHT_TYPE : 	EUC_2D	
CAPACITY : 	52
VERTICES_WITHIN_COVERAGE :  11
VERTICES_WITH_DEMAND : 	95
NODE_COORD_SECTION
1 628 103
2 291 573
3 129 447
4 973 643
5 830 868
6 398 563
7 731 423
8 201 995
9 167 174
10 31 358
11 480 619
12 323 555
13 205 208
14 187 767
15 775 445
16 745 369
17 188 965
18 44 585
19 405 706
20 185 315
21 505 636
22 482 543
23 830 860
24 344 498
25 762 379
26 761 399
27 869 844
28 114 420
29 890 491
30 440 802
31 929 676
32 524 456
33 361 434
34 377 478
35 191 496
36 646 352
37 795 962
38 483 492
39 174 597
40 208 464
41 693 461
42 56 114
43 877 898
44 483 596
45 757 915
46 833 803
47 676 597
48 818 695
49 494 648
50 5 167
51 197 146
52 170 313
53 354 624
54 603 437
55 773 462
56 386 610
57 75 183
58 442 485
59 269 543
60 770 869
61 342 542
62 103 508
63 799 441
64 935 918
65 790 696
66 857 459
67 319 541
68 195 131
69 328 617
70 297 697
71 337 529
72 337 620
73 152 735
74 302 491
75 229 909
76 508 567
77 940 591
78 490 571
79 262 962
80 818 425
81 357 82
82 743 377
83 927 322
84 335 633
85 725 477
86 839 403
87 333 557
88 421 589
89 515 601
90 791 669
91 935 639
92 314 623
93 238 198
94 1000 656
95 613 387
96 425 544
97 299 730
98 359 986
99 107 394
100 766 513
101 409 500
102 144 441
103 163 479
104 400 560
105 198 506
106 176 926
107 763 458
108 761 982
109 986 312
110 94 492
111 383 562
112 384 366
113 204 147
114 373 443
115 231 359
116 340 551
117 751 545
118 232 198
119 271 629
120 139 319
121 305 521
122 370 556
123 273 895
124 466 566
125 865 654
126 869 910
127 216 415
128 41 244
129 304 153
130 97 186
131 368 504
132 194 925
133 254 246
134 766 440
135 212 535
136 492 471
137 314 590
138 153 22
139 235 976
140 70 484
141 748 521
142 675 415
143 705 421
144 267 658
145 471 562
146 870 876
147 24 331
148 882 865
149 864 841
150 730 459
151 734 383
152 367 641
153 966 646
154 856 722
155 336 971
156 191 969
157 898 763
158 857 790
159 206 143
160 682 258
161 230 771
162 745 394
163 692 452
164 395 437
165 503 642
166 326 565
167 888 761
168 300 695
169 423 593
170 204 516
171 158 441
172 133 604
173 140 79
174 673 529
175 788 909
176 843 989
177 145 278
178 764 881
179 125 504
180 301 977
181 540 385
182 92 399
183 192 176
184 169 888
185 101 564
186 506 603
187 137 584
188 121 451
189 802 286
190 229 981
191 706 365
192 761 741
193 70 415
194 198 502
195 142 323
196 839 888
197 772 526
198 237 235
199 308 579
200 791 283
201 801 882
202 873 368
203 977 606
204 514 594
205 848 261
206 603 508
207 128 454
208 283 535
209 868 930
210 181 618
211 904 440
212 140 672
213 181 689
214 587 479
215 451 745
216 402 34
217 962 687
218 776 972
219 223 915
220 242 683
221 149 353
222 831 873
223 332 672
224 44 546
225 754 940
226 197 971
227 872 879
228 63 283
229 119 398
230 211 995
231 819 887
232 296 542
233 596 153
234 916 873
235 239 931
236 830 971
237 837 887
238 107 365
239 774 369
240 933 612
241 312 807
242 905 557
243 768 692
244 761 420
245 812 621
246 350 667
247 150 393
248 407 490
249 806 935
250 646 471
251 286 627
252 774 888
253 440 615
254 204 991
255 117 90
256 277 979
257 840 813
258 313 708
259 882 881
260 234 889
261 257 56
262 224 516
263 349 921
264 214 144
265 382 283
266 826 883
267 967 562
268 763 487
269 341 554
270 61 494
271 329 948
272 220 601
273 160 538
274 217 126
275 837 636
276 949 661
277 931 987
278 6 436
279 934 726
280 154 327
281 399 584
282 759 634
283 680 453
284 869 362
285 232 538
286 126 636
287 847 860
288 834 503
289 164 447
290 330 175
291 163 242
292 97 651
293 139 530
294 921 868
295 48 486
296 38 202
297 134 708
298 717 846
299 640 705
300 305 727
301 197 891
302 460 573
303 387 417
304 382 519
305 803 815
306 757 597
307 356 411
308 352 846
309 112 299
310 916 589
311 150 952
312 68 410
313 100 500
314 958 616
315 205 147
316 654 402
317 138 584
318 216 332
319 186 443
320 671 534
321 160 475
322 104 159
323 240 951
324 161 74
325 403 437
326 456 327
327 172 247
328 417 601
329 490 600
330 23 319
331 254 376
332 160 152
333 855 778
334 159 149
335 228 636
336 169 168
337 274 684
338 176 108
339 770 337
340 261 226
341 345 615
342 297 588
343 888 1000
344 989 575
345 736 422
346 292 17
347 893 829
348 221 975
349 372 588
350 854 612
351 814 849
352 431 513
353 292 780
354 817 382
355 209 252
356 369 460
357 4 252
358 114 48
359 364 113
360 932 709
361 468 470
362 851 660
363 774 798
364 526 611
365 202 136
366 993 516
367 228 142
368 370 528
369 327 636
370 134 190
371 988 634
372 310 663
373 960 699
374 989 609
375 332 575
376 114 199
377 986 630
378 233 947
379 198 981
380 599 858
381 47 518
382 616 451
383 153 358
384 284 599
385 440 645
386 825 894
387 229 186
388 142 637
389 77 417
390 368 714
391 234 547
392 224 194
393 228 763
394 839 860
395 170 453
396 141 55
397 395 569
398 124 795
399 784 319
400 367 655
401 241 949
402 265 609
403 309 109
404 579 588
405 968 971
406 374 588
407 953 903
408 268 995
409 101 427
410 434 539
411 874 663
412 340 555
413 265 215
414 169 312
415 845 973
416 240 670
417 758 336
418 287 585
419 258 525
420 794 253
421 726 382
422 487 551
423 592 837
424 279 547
425 820 692
426 926 852
427 991 659
428 478 410
429 443 568
430 625 630
431 577 761
432 379 548
433 999 672
434 863 505
435 178 937
436 364 490
437 160 197
438 186 335
439 757 408
440 240 154
441 497 647
442 322 484
443 768 833
444 392 601
445 355 536
446 414 573
447 349 615
448 367 682
449 358 552
450 78 516
451 743 601
452 766 516
453 835 509
454 823 812
455 141 474
456 446 325
457 415 483
458 303 134
459 311 526
460 791 365
461 951 686
462 298 520
463 140 179
464 848 729
465 315 451
466 160 413
467 341 997
DEMAND_SECTION
2 6
3 7
4 9
5 7
6 10
7 10
8 7
9 6
10 6
11 8
12 6
13 5
14 10
15 8
16 9
17 9
18 10
19 6
20 9
21 10
22 9
23 6
24 10
25 7
26 9
27 5
28 8
29 6
30 8
31 6
32 9
33 6
34 9
35 7
36 8
37 9
38 10
39 5
40 10
41 10
42 5
43 7
44 8
45 8
46 7
47 7
48 5
49 8
50 8
51 9
52 7
53 9
54 7
55 8
56 9
57 6
58 6
59 10
60 8
61 7
62 8
63 9
64 10
65 5
66 10
67 6
68 8
69 10
70 8
71 9
72 9
73 6
74 8
75 5
76 9
77 5
78 9
79 6
80 5
81 5
82 9
83 8
84 8
85 6
86 10
87 10
88 8
89 10
90 10
91 9
92 5
93 8
94 7
95 10
96 6
COVERAGE_SECTION
2 11 418 342 199 384 137 424 232 166 12 59 208 
3 11 207 188 102 171 455 28 409 289 395 321 466 
4 11 153 371 377 427 94 276 314 203 91 374 433 
5 11 222 23 394 266 287 237 196 231 351 386 201 
6 11 104 397 111 446 281 432 122 96 88 406 349 
7 11 345 143 244 439 162 150 26 134 151 421 107 
8 11 254 230 379 226 156 348 190 17 139 378 323 
9 11 336 332 437 183 334 463 370 51 113 315 159 
10 10 147 330 312 193 182 389 238 228 278 99 
11 11 329 44 21 186 49 165 441 89 253 204 364 
12 11 87 166 67 116 412 269 375 61 199 71 232 
13 11 392 118 387 93 183 198 355 437 9 327 291 
14 11 393 161 73 398 213 297 220 212 353 416 97 
15 11 134 55 107 63 244 439 268 345 80 150 26 
16 11 82 151 25 421 162 239 26 417 191 339 439 
17 11 156 226 379 435 254 8 348 230 132 311 106 
18 11 224 185 381 450 292 172 187 270 317 62 286 
19 11 390 448 215 400 246 385 152 223 258 53 253 
20 10 52 414 438 280 318 195 120 221 177 383 
21 11 165 441 49 11 186 364 89 329 204 44 385 
22 11 422 145 124 78 76 302 429 410 38 44 96 
23 11 5 394 222 287 351 266 237 196 231 386 201 
24 11 436 131 442 71 34 368 445 74 304 459 61 
25 11 239 82 16 26 162 151 439 460 421 244 339 
26 11 439 162 25 244 82 151 239 16 345 7 421 
27 11 149 148 287 347 146 394 227 259 23 257 5 
28 11 409 229 99 182 3 188 102 207 389 193 247 
29 11 434 66 211 288 453 242 80 310 86 63 267 
30 11 215 308 19 390 241 448 431 263 353 300 423 
31 11 461 276 360 217 91 373 153 279 4 411 240 
32 11 136 38 361 428 214 181 54 58 382 206 22 
33 11 114 307 356 303 164 325 34 465 436 442 24 
34 11 436 356 131 248 114 457 24 101 304 164 33 
35 11 194 105 170 103 40 321 262 135 395 273 319 
36 11 95 316 191 142 421 143 151 54 16 82 160 
37 11 218 249 236 108 225 415 175 176 45 386 252 
38 11 136 361 58 22 32 352 422 410 457 145 101 
39 11 210 317 187 172 272 388 273 286 335 135 293 
40 11 319 35 194 395 105 103 289 321 127 170 262 
41 11 163 283 85 150 143 250 142 7 345 107 174 
42 11 255 322 57 50 130 358 296 173 376 396 463 
43 11 126 259 227 146 148 209 196 237 234 287 222 
44 11 329 11 186 78 204 89 302 124 145 76 422 
45 11 225 175 252 178 60 249 201 37 218 108 231 
46 11 257 454 158 305 333 149 351 27 23 394 287 
47 11 430 320 451 174 306 117 282 404 141 299 206 
48 11 425 65 90 464 154 362 243 125 275 411 192 
49 11 441 165 21 11 186 329 364 89 44 385 204 
50 10 296 57 42 128 357 130 322 376 228 370 
51 11 113 315 159 365 68 264 274 183 367 336 332 
52 10 414 20 280 438 195 120 177 221 383 318 
53 11 447 341 72 84 152 69 369 400 56 92 349 
54 11 382 214 95 250 316 206 142 283 32 181 163 
55 11 107 15 134 268 63 150 244 85 100 345 452 
56 11 444 406 349 281 328 53 152 447 88 169 341 
57 9 130 322 296 376 370 463 128 42 50 
58 11 457 352 361 248 101 38 136 410 96 325 34 
59 11 424 208 419 232 391 2 285 462 121 459 418 
60 11 178 252 201 443 175 45 351 231 266 298 5 
61 11 116 269 412 71 445 87 449 12 67 166 122 
62 11 313 110 179 450 140 293 270 455 185 381 295 
63 11 15 80 55 134 107 244 439 86 26 268 66 
64 11 407 234 294 43 405 259 126 426 209 277 227 
65 11 243 90 48 425 192 464 282 154 362 275 245 
66 11 29 434 288 211 80 453 86 63 15 55 354 
67 11 12 459 87 71 61 116 232 121 166 412 269 
68 11 365 51 159 113 315 264 274 338 367 334 332 
69 11 72 92 84 341 369 447 53 137 342 375 199 
70 11 168 258 337 300 97 372 223 144 220 246 416 
71 11 61 445 67 116 269 412 459 87 12 449 24 
72 11 69 341 84 447 53 369 92 152 137 375 400 
73 11 297 14 213 212 398 393 161 388 292 286 220 
74 11 442 462 121 459 465 24 208 232 71 67 419 
75 11 219 260 235 301 132 378 401 323 123 106 435 
76 11 78 422 204 22 89 186 145 44 329 124 302 
77 11 240 310 314 203 267 91 242 344 374 377 153 
78 11 76 422 145 124 44 22 329 302 204 186 89 
79 11 256 323 401 139 378 408 190 235 180 348 219 
80 11 63 86 354 15 66 134 244 55 26 439 107 
81 11 359 403 216 458 129 346 290 261 440 367 274 
82 11 16 151 162 421 25 26 239 439 191 417 345 
83 11 109 284 202 205 86 211 354 189 200 399 460 
84 11 369 72 69 53 341 92 447 152 246 223 372 
85 11 150 41 268 163 107 55 141 283 7 100 134 
86 11 80 354 202 284 63 66 460 239 211 15 26 
87 11 412 116 269 12 166 61 375 67 449 71 445 
88 11 169 328 446 281 429 444 253 397 6 104 56 
89 11 204 186 364 329 44 76 21 11 78 165 441 
90 11 65 243 48 425 282 245 275 362 125 192 306 
91 11 276 240 153 314 31 4 77 461 377 203 310 
92 11 69 369 72 84 251 341 137 447 384 342 53 
93 11 118 387 392 413 13 340 198 440 133 183 367 
94 11 427 433 371 4 377 153 374 217 276 203 461 
95 11 316 36 54 382 142 181 250 283 191 214 143 
96 11 410 104 429 446 352 6 397 88 302 111 432 
97 11 300 258 70 168 353 337 223 372 390 220 241 
98 11 467 155 271 180 263 256 408 79 139 323 401 
99 9 229 182 28 238 409 389 312 193 247 
100 11 452 197 141 268 117 55 85 107 150 15 288 
101 11 248 457 352 304 58 34 131 410 436 96 368 
102 11 171 3 207 289 188 395 466 455 28 321 103 
103 11 321 455 395 289 35 171 102 194 207 319 105 
104 11 6 397 111 446 281 432 96 122 88 406 169 
105 11 194 35 170 262 135 40 103 285 321 273 391 
106 11 435 132 311 184 17 301 156 219 226 75 379 
107 11 55 15 134 268 150 244 63 85 345 7 439 
108 11 218 37 225 249 45 236 175 176 415 252 178 
109 11 83 202 284 205 211 86 354 189 66 200 420 
110 11 313 62 140 450 179 270 295 188 455 207 381 
111 11 122 397 6 432 104 281 449 349 406 446 368 
112 11 303 307 33 164 325 456 114 326 265 356 428 
113 11 315 159 51 264 365 68 274 367 183 440 336 
114 11 33 356 164 303 325 34 307 436 248 457 465 
115 8 331 318 438 127 20 52 383 414 
116 11 269 412 61 87 12 449 166 445 71 67 375 
117 11 141 197 452 100 306 451 268 85 174 320 55 
118 11 93 392 387 13 198 413 340 440 183 133 367 
119 11 251 402 144 384 92 335 418 342 416 372 337 
120 10 195 280 414 52 309 221 177 383 20 438 
121 11 462 459 232 67 208 74 71 424 12 442 59 
122 11 432 449 111 445 368 397 6 269 104 116 412 
123 11 260 75 235 219 401 323 378 79 301 271 263 
124 11 145 302 429 78 422 22 44 76 329 410 96 
125 11 411 362 275 350 425 48 245 31 154 91 90 
126 11 43 209 227 259 146 196 237 148 386 266 222 
127 8 319 40 331 466 115 395 289 171 
128 9 357 296 228 57 330 130 50 376 147 
129 11 458 290 403 440 359 413 367 93 387 118 340 
130 8 376 57 322 370 463 296 437 9 
131 11 436 304 368 24 34 445 71 101 248 356 432 
132 11 106 435 219 301 75 17 156 184 235 378 226 
133 11 198 340 413 355 93 118 392 13 387 327 291 
134 11 15 107 244 55 63 439 345 7 26 150 268 
135 11 285 170 262 391 105 194 35 419 273 59 272 
136 11 38 361 32 58 428 22 352 457 422 248 101 
137 11 199 342 375 418 166 2 69 384 92 12 72 
138 11 396 358 324 173 255 338 261 68 274 365 334 
139 11 190 348 323 401 378 79 230 254 379 226 408 
140 10 270 295 110 450 313 62 381 179 188 207 
141 11 452 100 117 197 268 85 55 107 150 174 306 
142 11 316 143 283 163 41 7 191 345 421 250 151 
143 11 7 142 345 163 283 41 421 150 151 162 316 
144 11 337 119 416 220 251 372 335 70 402 168 92 
145 11 124 302 422 78 22 429 44 76 329 410 96 
146 11 227 259 148 43 287 27 196 126 237 394 149 
147 10 330 10 228 357 128 238 312 309 182 193 
148 11 146 259 227 27 149 43 234 287 347 294 394 
149 11 27 287 148 347 394 146 257 23 227 5 259 
150 11 85 107 7 41 345 163 134 55 268 143 15 
151 11 421 82 162 16 25 26 191 439 345 7 239 
152 11 400 53 246 447 84 341 56 72 369 448 69 
153 11 4 276 371 377 427 314 91 94 203 217 433 
154 11 464 48 425 167 333 157 362 411 158 125 65 
155 11 271 467 98 180 263 256 408 79 323 401 123 
156 11 17 226 379 254 8 348 230 435 190 132 311 
157 9 167 333 158 279 154 464 360 347 46 
158 11 333 46 257 454 167 157 149 347 27 305 464 
159 11 113 315 264 365 51 68 274 367 183 440 336 
160 11 36 417 191 200 420 339 399 189 16 421 82 
161 11 393 14 353 97 73 300 220 241 213 337 70 
162 11 151 26 82 439 421 25 16 345 244 7 239 
163 11 41 283 143 150 85 142 7 250 345 316 107 
164 11 325 303 114 33 356 34 307 457 248 436 101 
165 11 21 441 49 11 186 364 89 329 204 44 385 
166 11 12 87 375 412 269 116 199 67 61 137 449 
167 9 157 333 158 154 464 279 347 360 46 
168 11 70 258 337 300 372 97 223 144 246 220 369 
169 11 88 328 446 281 253 429 444 397 6 104 56 
170 11 105 194 262 135 35 285 391 273 40 103 419 
171 11 289 102 395 319 466 3 207 321 455 103 188 
172 11 187 317 286 388 39 210 185 292 212 273 293 
173 11 324 396 255 358 338 138 334 68 332 365 51 
174 11 320 250 47 41 206 85 141 283 163 117 150 
175 11 252 201 45 249 178 231 386 60 225 266 37 
176 11 415 236 343 37 209 249 218 108 126 277 43 
177 9 309 291 120 327 414 52 195 280 20 
178 11 252 60 45 175 201 443 231 298 351 225 266 
179 11 62 313 293 110 455 103 321 273 450 207 188 
180 11 256 155 408 271 79 467 98 139 323 401 190 
181 11 428 32 95 54 136 382 326 214 36 361 456 
182 9 99 389 312 193 229 409 28 238 247 
183 11 336 9 51 113 315 13 159 392 387 437 264 
184 11 301 106 132 435 219 75 260 311 17 235 156 
185 11 187 317 172 293 450 62 224 18 273 313 179 
186 11 89 204 329 364 44 11 21 76 78 165 441 
187 11 317 172 39 185 273 286 388 293 210 292 179 
188 11 207 3 102 455 409 28 171 289 321 110 395 
189 11 200 420 399 205 339 417 460 239 354 16 25 
190 11 139 348 230 254 8 379 323 226 378 401 79 
191 11 421 151 16 82 162 143 25 142 417 36 7 
192 11 243 65 363 48 425 90 305 464 443 454 46 
193 9 312 389 182 409 99 28 229 188 238 
194 11 105 35 170 262 135 40 103 321 285 273 395 
195 10 120 280 414 52 221 383 309 20 177 438 
196 11 237 266 386 222 231 5 394 23 287 146 227 
197 11 452 100 141 117 268 55 453 288 85 107 306 
198 11 133 340 355 413 93 118 13 392 387 327 183 
199 11 137 342 2 418 166 375 12 384 87 232 67 
200 11 189 420 399 339 205 417 460 239 16 25 354 
201 11 231 266 386 252 175 222 5 60 351 23 237 
202 11 284 86 354 83 211 80 460 66 239 399 63 
203 11 374 314 377 371 344 4 77 153 240 267 91 
204 11 89 186 364 329 76 44 78 11 21 165 422 
205 11 189 420 200 399 83 284 339 202 417 460 354 
206 11 214 250 382 54 174 320 404 32 283 41 163 
207 11 3 188 102 455 171 28 289 321 409 395 103 
208 11 424 232 59 462 121 419 459 67 2 12 74 
209 11 126 43 415 196 227 259 237 146 236 386 249 
210 11 39 272 388 172 335 317 187 286 212 213 416 
211 11 66 29 86 434 202 284 80 288 453 63 354 
212 11 388 297 286 213 292 73 172 210 39 187 317 
213 11 212 297 73 220 416 388 210 335 286 14 393 
214 11 206 382 54 250 32 136 95 283 174 320 316 
215 11 30 19 390 385 448 49 441 165 21 400 431 
216 11 81 359 346 403 458 261 129 290 440 367 274 
217 11 461 373 276 31 360 427 433 153 4 279 94 
218 11 108 37 225 249 236 45 175 176 415 252 178 
219 11 75 235 260 132 378 301 401 323 106 435 123 
220 11 416 337 144 335 70 168 119 213 251 372 97 
221 8 383 280 195 120 247 438 238 52 
222 11 5 266 23 237 394 196 231 287 386 351 201 
223 11 246 372 369 448 84 168 400 258 70 152 72 
224 10 381 18 450 270 185 295 140 62 313 110 
225 11 45 218 108 175 37 249 252 178 60 201 236 
226 11 156 379 17 254 8 348 230 190 139 435 378 
227 11 146 259 148 43 126 287 196 27 237 394 149 
228 8 128 309 330 147 357 10 177 120 
229 9 99 28 182 247 409 238 466 389 3 
230 11 254 8 379 348 190 226 139 156 17 323 378 
231 11 266 386 222 237 201 196 5 23 394 175 351 
232 11 208 424 459 462 67 121 59 12 2 166 199 
233 11 160 36 420 326 216 456 200 95 359 181 191 
234 11 294 426 148 259 227 43 146 407 64 347 27 
235 11 378 401 323 219 75 79 260 132 139 348 123 
236 11 415 176 37 249 218 209 343 108 126 175 386 
237 11 196 266 386 222 231 5 394 23 287 146 201 
238 9 99 229 182 221 383 247 28 195 120 
239 11 25 460 16 82 339 26 417 162 151 439 354 
240 11 77 314 91 310 203 153 4 276 374 377 371 
241 11 353 308 97 300 161 393 123 258 390 70 168 
242 11 310 77 240 267 434 29 350 314 453 344 91 
243 11 65 90 192 48 425 282 245 464 275 362 154 
244 11 439 26 134 345 15 7 162 107 25 63 55 
245 11 275 350 90 282 362 306 125 425 451 48 411 
246 11 223 400 448 152 84 369 372 53 72 390 341 
247 8 466 229 383 221 99 28 102 171 
248 11 101 457 34 352 58 304 131 436 356 325 368 
249 11 37 175 236 386 218 231 225 45 201 415 266 
250 11 382 283 41 163 54 206 214 142 174 320 316 
251 11 119 92 384 402 144 342 369 418 69 372 137 
252 11 178 60 175 201 45 231 386 266 443 225 351 
253 11 328 169 385 88 11 44 302 429 446 444 281 
254 11 8 230 379 226 348 156 190 17 139 378 323 
255 11 173 358 396 324 338 42 322 334 332 138 68 
256 11 408 79 180 139 323 401 190 378 348 155 235 
257 11 46 454 158 149 305 333 27 351 394 23 287 
258 11 168 70 300 97 223 372 337 246 390 448 144 
259 11 227 146 148 43 126 234 27 287 294 149 196 
260 11 75 219 301 123 235 132 378 401 323 184 106 
261 11 346 403 274 367 458 338 68 365 264 324 440 
262 11 170 135 285 105 194 391 419 35 59 40 208 
263 11 271 155 98 180 308 467 123 256 79 235 408 
264 11 159 315 113 365 367 51 274 68 440 183 387 
265 11 456 112 326 290 307 133 303 340 413 33 129 
266 11 231 222 386 237 196 5 23 201 394 287 351 
267 11 344 77 203 374 366 314 310 240 242 377 371 
268 11 100 55 107 452 141 85 197 150 15 134 63 
269 11 412 116 87 61 449 12 166 375 445 71 67 
270 10 140 295 381 450 110 313 62 224 179 188 
271 11 155 263 180 98 467 256 79 123 408 401 323 
272 11 335 210 39 402 391 119 285 384 135 418 251 
273 11 293 170 179 105 187 317 35 135 194 103 39 
274 11 264 365 367 159 68 315 113 51 440 338 183 
275 11 362 245 350 125 411 90 425 48 65 282 154 
276 11 153 31 461 91 217 4 373 427 314 371 377 
277 11 405 343 64 209 407 415 176 126 236 43 234 
278 10 295 193 312 389 140 270 10 381 182 409 
279 8 360 373 461 217 31 157 167 276 
280 10 195 120 52 414 221 383 20 438 177 309 
281 11 397 444 446 6 88 104 328 406 169 111 349 
282 11 306 451 90 245 243 65 275 425 48 117 47 
283 11 163 41 142 250 143 150 85 316 7 345 382 
284 11 202 86 354 83 460 80 211 239 399 66 189 
285 11 391 135 262 419 170 59 105 424 194 208 35 
286 11 388 172 292 212 187 317 210 39 297 185 213 
287 11 394 23 5 222 149 27 146 196 237 227 266 
288 11 453 434 66 29 197 100 452 63 55 268 80 
289 11 171 395 102 319 321 103 466 3 455 207 188 
290 11 129 458 403 359 413 340 440 93 81 118 387 
291 7 327 177 437 355 13 370 376 
292 11 286 388 212 172 297 187 317 18 185 210 213 
293 11 273 179 62 313 185 187 317 103 455 110 321 
294 11 234 426 148 259 407 347 227 64 146 43 27 
295 10 270 140 381 450 110 313 62 224 278 193 
296 9 57 128 50 357 130 376 322 228 42 
297 11 73 212 213 292 388 286 14 398 210 172 393 
298 11 443 60 178 252 363 45 201 305 175 351 225 
299 11 430 431 47 192 243 404 282 423 451 364 65 
300 11 97 258 70 168 337 353 223 372 390 246 220 
301 11 184 132 219 75 260 106 435 235 378 401 323 
302 11 124 145 429 78 44 422 22 329 88 169 410 
303 11 164 325 114 33 307 356 112 34 457 248 436 
304 11 368 131 432 445 101 436 248 122 34 449 24 
305 11 454 46 363 351 257 443 23 394 5 158 60 
306 11 451 282 117 245 197 141 90 47 452 100 275 
307 11 33 303 114 164 356 112 325 465 34 436 442 
308 11 241 263 353 123 30 271 155 260 97 300 390 
309 8 120 195 177 280 228 414 52 221 
310 11 77 240 242 314 91 267 203 350 344 153 374 
311 11 435 106 17 156 226 132 379 8 184 254 230 
312 10 193 389 182 409 99 28 229 238 10 188 
313 11 62 110 179 450 140 270 293 455 188 207 295 
314 11 203 240 4 77 153 377 374 91 371 276 310 
315 11 113 159 51 264 365 68 274 367 183 440 336 
316 11 142 95 36 143 283 54 382 163 191 250 41 
317 11 187 172 39 185 273 286 388 293 210 292 179 
318 9 438 115 20 52 414 331 280 383 221 
319 10 395 289 171 40 466 127 321 102 103 35 
320 11 174 47 250 206 41 141 85 117 283 163 150 
321 11 103 455 395 289 171 35 102 207 319 3 179 
322 11 130 57 376 463 370 332 334 9 42 336 437 
323 11 401 378 235 79 139 348 190 219 75 256 226 
324 11 173 396 338 255 138 358 68 365 334 274 332 
325 11 164 303 114 356 33 457 34 248 307 58 101 
326 11 456 112 265 428 181 303 325 164 307 33 114 
327 7 291 355 177 13 437 414 52 
328 11 169 88 281 444 253 446 56 397 6 429 104 
329 11 44 186 11 89 204 78 76 364 21 302 124 
330 10 147 10 228 357 128 309 238 312 182 193 
331 8 115 127 318 438 20 319 465 40 
332 11 334 336 9 463 51 183 68 113 315 365 437 
333 11 158 46 167 257 157 454 464 154 149 305 347 
334 11 332 336 9 463 51 68 183 338 113 365 315 
335 11 272 416 119 144 402 220 210 251 337 39 384 
336 11 9 332 334 183 437 463 51 113 370 315 68 
337 11 70 144 168 220 416 372 258 97 300 119 251 
338 11 68 324 365 51 334 274 159 173 332 113 315 
339 11 417 399 239 460 16 25 82 151 200 189 162 
340 11 413 133 198 93 118 392 387 355 13 440 129 
341 11 447 72 53 69 84 369 92 152 349 137 406 
342 11 418 199 2 137 384 166 375 402 92 251 12 
343 11 277 176 415 236 209 405 126 64 37 43 249 
344 11 267 203 374 314 77 377 366 371 240 4 310 
345 11 7 244 439 162 143 26 134 150 151 421 15 
346 11 261 81 403 216 458 359 274 129 138 367 324 
347 11 27 149 148 426 294 234 146 158 259 227 257 
348 11 190 139 230 254 226 379 8 378 156 323 401 
349 11 406 444 56 281 111 397 122 447 6 341 449 
350 11 275 125 245 362 411 310 242 240 90 91 425 
351 11 23 5 394 222 201 287 266 305 231 454 237 
352 11 101 410 58 96 248 457 304 38 104 429 361 
353 11 241 97 300 161 393 258 70 168 308 337 390 
354 11 86 460 80 239 25 284 202 26 63 339 439 
355 11 198 327 13 133 291 340 118 392 93 20 413 
356 11 114 34 33 436 164 325 131 24 303 248 307 
357 10 128 296 228 330 147 50 57 10 130 309 
358 11 396 173 255 138 324 338 42 322 334 332 68 
359 11 81 403 458 290 129 216 346 261 440 367 413 
360 11 279 373 461 31 217 276 157 167 91 153 411 
361 11 136 38 58 457 352 32 428 248 101 325 22 
362 11 125 411 275 425 48 350 245 90 154 464 65 
363 11 305 443 454 192 46 351 257 60 298 158 333 
364 11 89 204 186 21 329 165 44 441 11 76 49 
365 11 159 68 51 113 315 264 274 367 338 183 440 
366 11 267 344 203 77 374 242 29 310 314 240 377 
367 11 264 440 274 159 315 113 365 51 68 387 183 
368 11 304 445 432 131 449 122 61 71 111 116 436 
369 11 84 92 69 72 341 53 447 372 223 246 152 
370 9 463 376 437 9 130 336 322 332 334 
371 11 377 4 94 153 374 427 203 314 433 276 91 
372 11 223 369 168 70 84 92 246 337 144 251 258 
373 11 217 461 360 279 31 276 433 427 153 4 94 
374 11 203 377 371 314 344 4 153 94 427 77 267 
375 11 166 87 12 412 137 269 199 116 61 449 67 
376 7 130 370 463 322 57 437 9 
377 11 371 4 374 153 203 427 94 314 433 276 91 
378 11 323 401 235 139 348 79 190 219 75 226 132 
379 11 226 254 8 156 17 230 348 190 139 435 378 
380 11 423 431 298 299 178 45 30 60 443 225 252 
381 10 224 270 450 295 140 110 313 62 18 185 
382 11 54 250 214 206 316 95 283 142 163 41 32 
383 8 221 280 247 195 438 120 238 52 
384 11 418 342 402 2 251 137 199 119 92 69 424 
385 11 253 11 328 49 169 441 88 165 56 44 444 
386 11 231 266 237 196 222 5 201 23 394 175 287 
387 11 392 118 93 13 440 183 367 264 113 315 413 
388 11 286 172 212 210 292 39 187 317 213 297 185 
389 10 193 312 182 409 28 99 229 188 3 238 
390 11 448 19 246 223 258 400 300 97 168 70 152 
391 11 285 135 262 419 59 170 424 208 105 272 194 
392 11 118 387 93 13 183 198 440 413 340 113 264 
393 11 161 14 353 97 73 220 300 213 337 416 70 
394 11 287 23 5 222 266 237 351 196 149 27 231 
395 11 289 171 319 321 103 102 455 40 3 466 207 
396 11 173 324 358 138 255 338 68 334 332 365 42 
397 11 6 104 111 281 446 432 122 406 349 444 88 
398 11 73 14 297 184 161 393 213 301 212 106 260 
399 11 339 417 200 189 460 239 16 25 420 82 354 
400 11 152 246 448 53 84 223 369 447 72 341 56 
401 11 323 378 235 79 139 348 190 219 75 256 226 
402 11 119 384 251 418 342 2 272 335 144 92 199 
403 11 458 129 81 359 290 261 440 367 274 346 264 
404 11 364 430 89 204 76 186 206 21 329 78 165 
405 11 277 64 407 343 209 234 294 126 43 415 259 
406 11 349 444 56 281 111 397 122 6 447 104 449 
407 11 64 294 234 426 405 259 43 148 126 227 146 
408 11 256 79 139 180 190 348 323 401 230 378 254 
409 11 28 389 182 188 193 3 99 229 312 207 102 
410 11 96 352 429 446 104 124 6 302 145 101 22 
411 11 125 362 275 350 31 425 154 48 91 464 360 
412 11 269 116 87 61 12 166 449 375 445 67 71 
413 11 340 93 133 198 118 387 392 13 440 355 129 
414 11 52 20 280 195 438 120 177 221 383 318 309 
415 11 236 176 209 37 343 249 126 218 386 43 108 
416 11 220 144 335 337 119 213 70 251 168 402 372 
417 11 339 399 16 239 25 82 460 151 421 162 191 
418 11 342 2 384 199 137 402 424 251 166 232 59 
419 11 59 208 285 424 391 262 462 232 121 135 459 
420 11 200 189 205 399 339 417 160 460 239 16 25 
421 11 151 82 162 16 191 25 26 439 7 345 143 
422 11 22 145 78 76 124 302 44 429 329 204 410 
423 11 380 431 298 299 30 215 443 178 60 45 363 
424 11 59 208 232 2 419 462 121 459 418 67 199 
425 11 48 65 90 362 464 154 243 125 275 411 245 
426 10 294 234 347 148 259 27 407 227 146 149 
427 11 94 433 4 371 153 377 217 276 461 374 373 
428 11 361 136 32 181 325 38 58 326 164 303 456 
429 11 302 124 145 446 88 96 410 169 328 104 6 
430 11 47 404 299 364 320 174 89 204 21 186 451 
431 11 423 299 380 215 441 49 165 430 30 21 364 
432 11 122 111 449 368 6 104 397 445 304 61 269 
433 11 427 94 4 217 371 153 377 373 461 276 374 
434 11 453 288 29 66 242 211 63 80 197 100 452 
435 11 106 132 17 311 156 226 379 184 219 301 378 
436 11 131 34 24 356 304 368 442 248 101 71 445 
437 9 9 370 463 336 183 291 332 13 376 
438 10 20 52 414 318 280 383 221 195 120 115 
439 11 26 244 162 345 25 7 134 82 151 421 15 
440 11 367 264 387 159 274 315 113 365 392 51 93 
441 11 49 165 21 11 186 364 329 89 44 204 385 
442 11 74 24 465 121 436 459 462 71 131 356 34 
443 11 60 363 305 178 351 298 252 201 454 23 5 
444 11 56 281 406 349 328 88 169 397 446 6 111 
445 11 61 449 368 71 116 269 412 122 432 87 304 
446 11 88 6 104 281 397 169 328 429 96 111 444 
447 11 341 53 72 69 84 369 152 349 92 56 406 
448 11 246 400 390 223 152 19 53 84 258 372 369 
449 11 122 445 269 116 412 61 432 87 111 368 71 
450 11 62 313 270 110 381 140 295 224 179 185 293 
451 11 306 282 117 47 245 141 197 90 452 100 243 
452 11 100 197 141 268 117 55 85 107 150 288 453 
453 11 288 434 66 29 197 100 452 268 63 55 242 
454 11 46 257 305 351 158 333 23 149 363 394 287 
455 11 321 103 207 3 188 102 179 289 395 171 313 
456 11 326 112 265 428 303 181 325 164 307 33 114 
457 11 248 101 58 352 34 325 304 164 131 356 436 
458 11 129 403 290 359 440 81 367 274 413 264 387 
459 11 121 462 67 232 71 208 12 61 74 87 116 
460 11 239 354 25 339 417 26 16 399 82 162 439 
461 11 217 373 31 276 360 153 279 4 427 91 433 
462 11 121 459 208 232 74 67 424 59 71 419 12 
463 9 370 9 437 336 376 332 334 322 130 
464 11 154 48 425 333 167 157 158 65 362 411 46 
465 11 442 74 33 24 356 307 114 436 34 121 462 
466 9 247 171 102 289 319 395 229 3 28 
467 11 98 155 180 271 256 408 263 79 139 323 401 
DEPOT_SECTION
   1
   -1
EOF
