NAME :  X-n459-kX-w91-c9.cctp
COMMENT : 	Adapted by Maziero, Usberti and Cavellucci from the Uchoa, Pecin, Pessoa, Poggi, Subramanian, and Vidal (2013)
TYPE :  CCTP
DIMENSION :    423
EDGE_WEIGHT_TYPE : 	EUC_2D	
CAPACITY : 	1106
VERTICES_WITHIN_COVERAGE :  9
VERTICES_WITH_DEMAND : 	91
NODE_COORD_SECTION
1 500 500
2 832 885
3 777 632
4 406 257
5 620 467
6 343 166
7 355 345
8 393 299
9 631 767
10 384 340
11 643 630
12 786 593
13 789 727
14 443 205
15 679 408
16 845 535
17 732 820
18 890 861
19 645 689
20 800 517
21 951 643
22 828 746
23 862 625
24 606 432
25 672 984
26 580 338
27 629 494
28 809 663
29 738 595
30 604 320
31 645 532
32 688 728
33 390 680
34 842 517
35 525 404
36 697 719
37 837 853
38 741 585
39 628 506
40 354 280
41 726 834
42 721 635
43 448 363
44 963 702
45 570 484
46 389 281
47 708 380
48 522 439
49 771 523
50 778 645
51 402 318
52 817 717
53 730 655
54 814 925
55 743 362
56 568 298
57 555 132
58 937 637
59 542 678
60 822 854
61 711 697
62 603 310
63 864 674
64 850 879
65 280 198
66 502 417
67 764 610
68 729 822
69 307 258
70 896 958
71 774 732
72 684 446
73 691 793
74 905 888
75 664 411
76 875 981
77 477 226
78 607 624
79 823 875
80 558 543
81 410 237
82 712 692
83 804 678
84 491 317
85 475 280
86 881 872
87 371 269
88 520 562
89 590 431
90 420 245
91 811 647
92 501 507
93 684 647
94 739 969
95 854 717
96 844 268
97 520 823
98 866 966
99 720 645
100 564 493
101 653 541
102 831 758
103 694 804
104 661 469
105 417 251
106 683 364
107 648 479
108 255 225
109 836 934
110 811 960
111 888 492
112 111 261
113 822 876
114 672 419
115 545 420
116 140 267
117 925 749
118 505 282
119 701 477
120 427 272
121 293 242
122 757 929
123 856 861
124 682 480
125 804 638
126 426 194
127 499 348
128 692 700
129 331 318
130 738 644
131 967 900
132 604 563
133 523 429
134 834 880
135 714 644
136 720 566
137 606 512
138 840 926
139 786 354
140 667 709
141 670 508
142 456 202
143 827 687
144 556 837
145 810 589
146 537 360
147 456 275
148 688 214
149 346 163
150 880 569
151 849 686
152 617 420
153 308 466
154 880 638
155 751 763
156 616 485
157 719 744
158 371 346
159 379 420
160 565 524
161 377 138
162 864 721
163 823 535
164 614 761
165 659 383
166 867 910
167 717 895
168 865 793
169 588 663
170 595 488
171 408 268
172 713 863
173 652 409
174 819 367
175 653 425
176 618 425
177 657 290
178 709 839
179 739 541
180 909 732
181 375 283
182 278 391
183 843 873
184 443 229
185 756 702
186 365 293
187 821 637
188 477 191
189 401 102
190 359 290
191 791 751
192 709 469
193 329 178
194 559 543
195 916 882
196 758 635
197 855 710
198 797 783
199 428 238
200 802 823
201 797 464
202 217 29
203 939 745
204 911 889
205 829 679
206 678 523
207 550 429
208 821 933
209 798 482
210 686 615
211 735 658
212 736 452
213 721 459
214 818 377
215 421 479
216 768 524
217 498 441
218 601 454
219 851 574
220 662 511
221 526 279
222 447 601
223 889 610
224 891 930
225 483 278
226 728 845
227 451 299
228 308 215
229 643 486
230 439 458
231 830 608
232 387 233
233 837 948
234 561 410
235 721 439
236 778 640
237 826 627
238 644 724
239 515 465
240 728 651
241 666 474
242 759 94
243 525 419
244 927 692
245 597 228
246 448 218
247 575 349
248 921 883
249 406 172
250 840 847
251 787 660
252 301 545
253 668 880
254 594 416
255 791 861
256 740 581
257 500 259
258 600 464
259 965 412
260 614 568
261 829 644
262 556 518
263 660 676
264 525 793
265 623 482
266 369 195
267 805 668
268 820 936
269 879 886
270 713 679
271 728 597
272 833 719
273 720 473
274 744 569
275 739 539
276 644 446
277 896 850
278 393 284
279 708 586
280 694 612
281 446 162
282 738 669
283 726 702
284 749 641
285 499 397
286 335 416
287 828 951
288 428 272
289 664 226
290 772 626
291 602 466
292 592 394
293 627 408
294 754 637
295 643 572
296 699 167
297 880 867
298 493 305
299 698 630
300 819 640
301 819 577
302 860 866
303 303 326
304 523 470
305 780 647
306 630 579
307 893 578
308 545 465
309 782 723
310 639 609
311 313 267
312 810 893
313 407 307
314 808 666
315 621 427
316 841 943
317 761 602
318 513 340
319 335 150
320 807 564
321 715 936
322 818 834
323 881 870
324 300 679
325 342 373
326 819 859
327 830 955
328 651 493
329 378 248
330 675 424
331 700 76
332 398 303
333 799 623
334 812 806
335 770 860
336 776 711
337 661 839
338 829 895
339 392 227
340 891 565
341 569 489
342 824 716
343 827 436
344 527 376
345 838 855
346 537 432
347 468 195
348 714 807
349 553 104
350 448 331
351 846 863
352 815 689
353 639 332
354 748 365
355 577 442
356 572 461
357 431 304
358 731 688
359 415 256
360 933 687
361 461 392
362 827 906
363 786 737
364 825 375
365 583 513
366 793 632
367 540 374
368 604 445
369 303 293
370 802 534
371 298 118
372 500 353
373 818 892
374 487 444
375 744 657
376 297 237
377 660 436
378 580 450
379 591 411
380 877 905
381 377 314
382 750 857
383 643 336
384 770 609
385 873 547
386 771 418
387 736 788
388 676 521
389 934 919
390 817 914
391 493 28
392 322 227
393 746 617
394 523 296
395 860 848
396 466 251
397 772 307
398 396 235
399 792 646
400 417 267
401 871 536
402 285 205
403 474 257
404 854 648
405 602 262
406 950 821
407 698 633
408 418 292
409 690 602
410 669 683
411 565 562
412 797 722
413 594 646
414 597 358
415 944 834
416 776 610
417 719 441
418 832 908
419 702 378
420 604 494
421 757 832
422 647 400
423 601 706
DEMAND_SECTION
2 71
3 54
4 74
5 9
6 91
7 98
8 72
9 67
10 70
11 68
12 92
13 93
14 97
15 23
16 75
17 61
18 91
19 61
20 89
21 70
22 63
23 93
24 18
25 65
26 33
27 11
28 80
29 88
30 7
31 71
32 68
33 38
34 79
35 28
36 63
37 99
38 99
39 94
40 69
41 78
42 76
43 90
44 57
45 29
46 82
47 42
48 18
49 58
50 89
51 85
52 66
53 57
54 75
55 1
56 49
57 8
58 51
59 67
60 58
61 66
62 13
63 69
64 85
65 53
66 30
67 67
68 79
69 79
70 90
71 81
72 33
73 80
74 78
75 6
76 93
77 60
78 60
79 83
80 97
81 76
82 60
83 94
84 59
85 72
86 58
87 59
88 97
89 11
90 70
91 90
92 54
COVERAGE_SECTION
2 9 134 338 79 113 183 373 64 362 312 
3 9 236 290 50 305 366 196 399 416 294 
4 9 359 171 105 400 90 81 398 120 288 
5 9 265 156 291 258 218 368 27 107 229 
6 5 149 193 319 266 161 
7 9 158 10 325 129 381 186 51 190 303 
8 9 332 278 313 46 51 381 181 408 186 
9 9 164 238 73 140 423 32 103 337 19 
10 9 158 381 51 7 313 332 8 186 325 
11 9 310 78 93 210 263 413 306 280 299 
12 9 416 384 145 317 67 333 290 320 301 
13 9 309 412 363 71 336 191 52 342 185 
14 9 142 246 126 184 347 199 188 77 281 
15 9 114 75 330 173 175 165 422 377 72 
16 9 34 163 401 385 219 370 20 320 150 
17 9 68 41 348 226 421 178 387 103 382 
18 9 297 277 323 86 269 302 74 195 395 
19 9 263 410 140 238 423 128 93 32 11 
20 9 370 163 49 216 209 34 16 320 201 
21 9 58 360 244 44 223 154 307 23 63 
22 9 102 272 342 52 191 95 412 13 363 
23 9 154 404 223 231 237 261 187 300 63 
24 9 368 176 89 152 315 254 218 379 355 
25 4 321 94 167 122 
26 9 247 414 30 62 56 146 367 292 353 
27 9 39 265 156 229 328 107 420 5 137 
28 9 314 267 83 91 251 399 125 300 205 
29 9 38 271 256 393 317 274 67 279 136 
30 8 62 26 353 414 247 56 383 405 
31 9 101 220 39 388 206 141 328 295 27 
32 9 36 128 140 157 61 82 238 283 410 
33 9 324 222 59 252 88 264 97 169 215 
34 9 16 163 401 20 370 385 111 209 219 
35 9 243 133 66 115 285 344 346 367 48 
36 9 32 128 61 82 140 157 283 270 358 
37 9 345 250 351 60 326 123 183 395 79 
38 8 256 29 274 271 317 136 393 279 
39 9 27 137 156 229 265 328 420 31 107 
40 9 190 186 87 181 46 278 329 381 8 
41 9 226 68 17 178 348 421 172 382 103 
42 9 99 135 240 130 53 407 299 211 284 
43 8 350 361 127 372 285 357 84 51 
44 8 360 244 203 21 117 180 58 162 
45 9 341 100 356 170 308 365 378 420 258 
46 9 278 181 8 87 171 332 186 4 190 
47 9 419 106 55 15 354 165 114 75 330 
48 9 133 346 243 217 239 66 115 207 304 
49 6 216 20 370 275 179 209 
50 9 305 236 3 399 251 290 366 196 294 
51 9 313 332 8 381 10 408 357 278 46 
52 9 342 272 412 352 13 22 143 309 95 
53 9 240 211 99 130 375 282 135 42 284 
54 9 208 390 268 362 109 418 138 287 312 
55 9 354 47 139 419 106 397 386 174 214 
56 9 62 26 30 394 221 405 247 118 414 
57 9 349 188 245 347 281 142 391 77 14 
58 9 21 360 223 244 154 44 307 23 63 
59 9 169 413 423 78 19 164 11 238 264 
60 9 326 37 345 250 322 79 113 351 183 
61 9 82 283 270 128 358 36 32 282 410 
62 9 30 26 56 353 247 383 405 414 177 
63 9 151 404 205 197 143 154 95 261 162 
64 9 183 134 302 351 2 123 338 79 345 
65 8 402 228 108 376 121 392 193 69 
66 9 285 243 133 217 35 48 374 346 115 
67 9 384 317 416 290 393 3 196 12 294 
68 9 17 41 348 226 178 421 387 103 382 
69 7 311 121 376 392 369 228 40 
70 9 224 76 98 389 166 380 316 233 138 
71 9 309 363 13 336 191 412 185 155 52 
72 9 330 377 114 104 241 124 192 119 417 
73 9 103 348 387 68 17 178 41 337 157 
74 9 204 195 248 269 86 323 18 297 380 
75 9 114 173 15 330 175 422 377 165 293 
76 9 98 70 233 316 327 224 287 109 138 
77 9 396 246 403 142 347 184 188 14 257 
78 9 413 310 11 169 306 260 132 295 263 
79 9 113 134 2 326 373 183 60 338 312 
80 9 194 160 411 262 365 88 100 132 341 
81 9 90 398 105 199 4 359 339 232 171 
82 9 61 270 283 358 128 36 282 53 211 
83 9 267 314 28 352 143 205 251 91 399 
84 9 298 127 318 372 118 394 85 225 227 
85 8 225 147 403 118 396 227 298 257 
86 9 323 297 18 269 302 123 277 74 64 
87 9 181 40 46 329 190 186 278 4 8 
88 9 80 194 411 262 92 160 365 100 222 
89 9 24 254 355 368 379 378 218 152 176 
90 9 105 199 359 81 4 400 171 398 120 
91 9 125 300 187 28 261 314 399 267 366 
92 9 304 239 262 88 308 100 374 160 217 
93 9 407 299 135 210 99 280 263 42 410 
94 3 321 122 25 
95 9 197 162 272 342 151 52 22 143 63 
96 7 397 174 139 364 214 354 55 
97 9 264 144 164 9 337 423 59 238 253 
98 9 76 70 233 316 327 287 109 224 138 
99 9 135 42 240 53 130 211 407 299 375 
100 9 341 45 262 365 160 170 356 308 420 
101 8 31 388 206 220 295 141 39 306 
102 9 22 272 191 198 52 342 95 168 162 
103 9 73 348 178 68 17 41 387 337 226 
104 7 241 107 124 229 328 276 72 
105 9 359 90 4 81 400 199 171 120 288 
106 8 419 47 165 15 383 75 422 353 
107 7 229 328 104 241 27 265 5 
108 8 402 65 121 376 228 69 392 311 
109 9 138 316 233 208 268 287 327 54 418 
110 8 287 327 268 208 233 316 54 109 
111 9 401 34 385 16 340 150 163 343 307 
112 9 116 108 65 121 402 376 369 69 228 
113 9 79 2 134 373 326 338 183 312 60 
114 9 330 75 15 175 377 173 72 422 165 
115 9 207 346 234 243 133 35 48 355 66 
116 9 112 108 121 65 402 376 369 69 303 
117 7 203 180 244 44 360 162 168 
118 9 221 225 394 257 298 85 84 403 147 
119 7 192 124 273 213 72 241 417 
120 8 288 400 171 359 408 105 4 90 
121 8 376 69 228 311 392 402 108 65 
122 4 321 94 167 54 
123 9 302 351 395 183 64 345 37 250 297 
124 7 241 119 104 192 141 72 107 
125 9 91 366 399 300 333 187 28 237 236 
126 9 14 249 142 246 281 184 347 199 81 
127 9 372 318 84 146 344 298 285 367 43 
128 9 61 36 82 140 32 410 270 283 263 
129 9 303 7 369 190 186 40 381 158 311 
130 9 284 240 53 211 375 294 99 42 196 
131 9 389 248 195 204 74 415 406 224 18 
132 9 260 306 411 295 194 80 31 137 101 
133 9 48 243 346 66 115 35 207 217 239 
134 9 2 183 79 113 64 338 373 351 345 
135 9 99 42 240 53 407 299 130 211 93 
136 5 279 274 256 38 179 
137 9 420 39 365 170 27 156 265 160 31 
138 9 109 316 208 418 233 268 362 54 390 
139 9 174 214 354 55 364 397 386 47 419 
140 9 410 128 238 32 19 36 263 61 82 
141 7 220 388 206 328 124 241 31 
142 9 14 347 246 188 184 126 77 281 199 
143 9 205 352 151 83 314 267 342 28 52 
144 9 97 264 164 9 337 253 423 73 103 
145 9 301 12 320 231 333 416 237 219 384 
146 9 367 344 318 372 127 247 35 26 285 
147 7 85 227 403 396 225 288 120 
148 8 289 296 177 245 405 397 62 353 
149 5 6 319 193 266 161 
150 9 340 307 385 219 401 223 16 23 301 
151 9 63 205 143 197 95 352 272 162 404 
152 8 176 315 24 293 254 368 379 89 
153 9 286 252 182 159 325 215 7 230 158 
154 9 23 404 223 63 261 237 58 151 231 
155 9 387 157 71 191 363 198 309 13 348 
156 9 265 420 27 5 170 39 291 258 229 
157 9 36 32 155 283 387 61 82 128 71 
158 9 10 7 381 325 51 129 332 8 186 
159 9 286 325 230 215 158 7 10 153 361 
160 9 262 80 194 365 100 341 411 45 137 
161 9 149 189 6 319 249 266 193 281 126 
162 9 95 197 272 151 342 22 180 52 63 
163 9 370 16 34 20 320 301 219 401 385 
164 9 9 238 423 140 19 32 73 103 337 
165 7 422 173 75 106 15 114 293 
166 9 380 269 138 224 64 418 109 86 362 
167 8 172 321 382 226 253 122 178 41 
168 4 102 334 395 22 
169 9 413 78 423 59 19 11 263 310 238 
170 9 420 156 291 45 258 137 341 365 265 
171 9 400 4 359 105 120 288 278 46 90 
172 9 226 178 41 167 382 68 17 253 421 
173 8 422 75 175 114 293 15 165 330 
174 8 214 364 139 343 386 354 55 397 
175 9 377 173 75 114 330 276 422 15 293 
176 8 315 152 24 293 368 254 89 379 
177 8 353 383 62 30 405 289 106 148 
178 9 41 226 172 68 17 348 103 382 337 
179 5 275 274 136 216 49 
180 8 117 203 244 162 360 95 197 44 
181 9 46 186 87 190 278 40 8 332 381 
182 9 286 325 303 153 7 129 369 158 159 
183 9 64 351 134 2 123 302 345 79 37 
184 9 246 199 14 90 142 396 77 81 105 
185 9 336 358 283 309 71 282 13 61 82 
186 9 190 181 40 381 87 46 8 278 332 
187 9 300 237 261 91 125 333 366 28 231 
188 9 347 142 77 14 246 281 126 184 396 
189 9 161 249 281 149 319 6 126 266 371 
190 9 186 40 181 87 381 46 8 278 129 
191 9 363 13 71 309 412 198 22 102 155 
192 8 119 273 213 124 417 212 235 72 
193 7 6 149 319 228 266 392 402 
194 9 80 160 411 262 365 88 132 100 341 
195 9 248 204 74 18 86 269 323 277 297 
196 9 294 284 290 3 236 50 130 393 305 
197 9 95 162 272 151 342 143 63 52 205 
198 8 334 191 200 102 363 22 155 322 
199 9 90 105 184 81 359 246 4 400 398 
200 8 322 334 60 198 255 326 250 37 
201 9 209 343 20 386 212 49 216 34 370 
202 9 371 319 65 6 149 193 402 161 189 
203 7 117 180 44 244 360 406 162 
204 9 74 195 248 269 86 18 323 297 380 
205 9 143 352 151 83 314 28 267 63 261 
206 5 388 141 220 101 31 
207 9 115 346 234 133 243 48 355 35 308 
208 9 268 54 109 287 390 138 233 316 327 
209 9 201 20 49 216 370 343 34 163 212 
210 9 280 409 299 407 93 279 42 135 99 
211 9 53 375 240 282 130 99 284 135 42 
212 9 213 235 417 273 192 119 386 72 124 
213 8 273 192 212 417 235 119 72 124 
214 8 364 174 139 343 386 354 55 397 
215 9 230 159 374 92 217 239 361 66 304 
216 6 49 20 275 179 370 274 
217 9 374 48 66 133 239 243 304 346 285 
218 9 368 258 291 378 5 24 89 355 356 
219 9 150 301 385 16 231 340 307 401 145 
220 7 141 388 206 328 31 101 229 
221 9 394 118 257 298 225 56 85 84 403 
222 9 88 33 92 59 411 80 215 194 262 
223 9 154 23 307 150 340 219 404 58 231 
224 9 70 380 166 74 98 389 204 269 138 
225 9 85 118 403 257 147 298 396 227 84 
226 9 41 178 68 172 17 382 421 348 335 
227 7 357 147 85 350 408 288 120 
228 7 392 376 402 121 65 69 193 
229 9 107 328 27 265 39 104 241 156 5 
230 9 215 374 217 361 159 66 239 92 48 
231 9 237 145 187 301 300 333 23 261 125 
232 4 339 398 329 81 
233 9 316 287 327 109 268 138 208 110 54 
234 9 115 207 379 346 254 292 35 89 355 
235 9 417 212 213 192 273 72 119 330 15 
236 9 50 305 3 290 399 366 196 251 294 
237 9 187 300 261 231 91 125 333 366 404 
238 9 140 19 32 9 423 164 410 263 36 
239 9 304 48 217 308 374 133 346 92 243 
240 9 53 99 211 130 135 42 375 282 284 
241 7 104 124 107 328 229 72 141 
242 8 331 296 148 289 96 349 57 245 
243 9 133 35 346 48 115 66 207 285 217 
244 9 360 44 180 203 21 58 117 63 162 
245 9 405 289 56 62 177 221 30 148 394 
246 9 184 14 142 199 77 347 126 396 90 
247 9 26 414 146 30 367 62 292 56 344 
248 9 195 204 74 18 389 86 277 269 323 
249 6 126 281 266 161 14 339 
250 9 37 345 351 60 395 123 326 183 322 
251 9 305 399 50 267 28 236 314 83 91 
252 9 153 286 324 215 159 182 222 33 230 
253 9 337 172 167 178 226 321 41 103 68 
254 9 379 89 24 292 152 176 315 355 368 
255 9 335 326 60 113 79 312 322 200 373 
256 8 38 274 29 271 136 317 279 393 
257 9 118 225 403 85 221 396 77 394 147 
258 9 291 218 368 5 378 170 156 356 265 
259 7 111 343 364 214 174 401 34 
260 9 132 306 295 101 31 310 411 78 137 
261 9 187 300 237 91 404 125 28 314 267 
262 9 160 80 194 100 365 341 45 411 170 
263 9 410 19 140 93 128 11 238 270 82 
264 9 97 144 164 9 59 423 238 169 337 
265 9 156 27 5 229 420 39 107 291 170 
266 3 6 149 339 
267 9 314 28 83 251 91 352 205 399 143 
268 9 208 54 109 287 233 327 138 316 390 
269 9 86 323 297 380 74 18 166 302 64 
270 9 82 61 358 283 282 53 128 211 240 
271 9 29 38 256 279 393 136 274 317 280 
272 9 342 52 95 197 22 162 143 352 412 
273 8 192 213 119 212 417 235 124 72 
274 7 256 38 136 29 179 275 271 
275 5 179 274 136 216 49 
276 9 377 175 104 315 5 107 176 241 152 
277 8 18 297 323 86 395 195 74 302 
278 9 46 8 181 332 171 408 87 313 186 
279 8 136 271 409 280 29 256 38 210 
280 9 210 409 299 407 279 42 93 271 135 
281 9 126 347 142 249 188 14 246 184 77 
282 9 211 375 53 358 240 130 270 99 284 
283 9 358 61 82 270 185 36 128 282 157 
284 9 294 130 196 375 211 240 53 393 290 
285 9 66 35 243 344 361 133 217 372 367 
286 9 159 325 153 182 7 158 10 303 129 
287 9 327 233 316 268 109 110 208 138 54 
288 8 120 400 171 359 408 105 4 90 
289 8 148 177 245 296 405 62 353 30 
290 9 3 236 416 196 384 67 50 294 305 
291 9 258 218 5 368 170 156 265 378 420 
292 8 379 254 234 152 414 89 293 24 
293 8 152 176 315 422 173 175 24 254 
294 9 196 284 130 290 375 393 3 236 50 
295 8 306 260 101 310 31 132 409 11 
296 8 148 289 331 242 245 177 405 57 
297 9 323 86 18 269 302 277 123 395 64 
298 9 84 118 225 85 394 318 221 227 127 
299 9 407 280 210 135 93 42 99 409 240 
300 9 187 91 261 125 237 28 333 366 314 
301 9 145 320 219 231 12 163 370 16 237 
302 9 123 351 64 183 395 297 323 86 345 
303 9 129 369 7 311 325 190 69 40 182 
304 9 239 308 48 217 346 133 92 374 100 
305 9 50 236 399 3 251 366 290 196 125 
306 9 295 260 132 310 101 31 78 11 409 
307 9 340 150 223 385 219 401 23 154 16 
308 9 304 356 239 45 100 341 346 48 207 
309 9 13 71 336 363 412 191 185 52 342 
310 9 11 306 78 295 210 260 409 280 132 
311 8 69 369 121 376 392 40 190 228 
312 9 373 338 113 362 79 390 2 134 418 
313 8 332 51 8 408 357 278 381 46 
314 9 28 267 83 91 251 352 205 399 125 
315 8 176 152 24 293 368 254 276 89 
316 9 233 109 287 327 138 208 268 54 98 
317 9 67 384 416 393 29 38 290 12 256 
318 9 127 372 146 84 344 298 367 394 118 
319 7 149 6 193 161 371 266 228 
320 9 301 145 370 163 12 219 16 20 231 
321 4 94 167 122 25 
322 8 200 60 326 250 37 334 345 255 
323 9 86 297 18 269 302 277 123 74 395 
324 9 33 252 222 153 215 59 88 264 230 
325 9 7 158 286 10 129 159 303 182 381 
326 9 60 79 113 37 345 250 322 134 351 
327 9 287 233 316 110 268 109 208 138 54 
328 7 229 107 220 27 141 241 39 
329 5 232 87 398 339 4 
330 9 114 15 75 377 175 72 173 422 276 
331 8 242 296 148 349 289 57 245 405 
332 9 8 313 51 278 408 46 381 181 357 
333 9 366 125 3 399 187 300 416 91 236 
334 7 200 198 322 60 250 102 37 
335 9 382 255 421 226 200 326 41 60 312 
336 9 309 13 71 185 412 363 52 83 191 
337 9 253 103 178 73 172 348 41 226 68 
338 9 2 362 373 418 134 312 113 79 390 
339 4 232 398 81 329 
340 9 150 307 385 401 219 223 16 23 34 
341 9 45 100 170 356 365 262 308 160 420 
342 9 52 272 352 412 143 22 95 197 13 
343 9 201 209 386 214 364 174 34 111 20 
344 9 367 146 35 285 372 318 127 243 66 
345 9 37 250 351 60 123 183 326 395 79 
346 9 207 115 133 48 243 35 234 308 66 
347 9 188 142 14 246 77 281 126 184 396 
348 9 103 68 17 73 387 41 178 226 421 
349 9 57 391 188 281 347 245 142 77 14 
350 8 43 227 357 84 51 313 408 298 
351 9 123 183 345 37 302 64 250 134 395 
352 9 143 83 205 267 314 28 52 342 151 
353 8 383 30 62 177 414 106 165 26 
354 9 55 139 47 419 386 397 106 174 214 
355 9 378 89 356 218 368 207 24 254 258 
356 9 378 355 45 308 258 341 218 291 100 
357 7 408 227 313 51 120 288 350 
358 9 283 82 270 282 61 185 211 53 375 
359 9 105 4 400 90 171 81 120 288 199 
360 9 244 44 21 58 180 203 117 63 154 
361 9 43 285 66 372 127 374 217 350 35 
362 9 418 338 390 373 312 2 54 138 134 
363 9 13 71 191 309 412 336 52 22 342 
364 8 214 174 139 343 386 354 55 397 
365 9 160 137 262 100 170 341 420 45 194 
366 9 333 125 399 3 236 50 305 290 91 
367 9 344 146 35 234 247 318 372 115 243 
368 9 218 24 258 89 291 176 315 378 5 
369 9 311 303 69 129 121 40 190 376 186 
370 9 20 163 320 49 216 16 34 301 209 
371 8 319 6 149 193 161 65 402 228 
372 9 127 318 344 84 146 285 367 298 43 
373 9 312 338 2 113 362 79 134 418 390 
374 9 217 66 48 239 133 304 243 285 230 
375 9 211 282 53 130 240 284 294 196 99 
376 8 121 69 228 392 311 402 65 108 
377 9 175 276 330 114 75 72 173 104 15 
378 9 355 356 89 218 258 368 291 24 45 
379 9 254 292 89 24 152 176 234 315 355 
380 9 166 269 224 74 86 323 64 204 297 
381 9 8 186 332 51 10 190 181 313 158 
382 9 335 226 421 41 172 17 68 255 178 
383 8 353 30 62 177 106 165 414 26 
384 9 67 416 317 290 12 3 393 196 236 
385 9 401 150 340 16 219 307 34 163 111 
386 9 212 201 235 417 354 343 214 55 213 
387 9 155 348 17 68 73 103 41 157 421 
388 5 206 141 220 101 31 
389 9 131 204 248 195 74 224 70 380 269 
390 9 54 362 418 208 268 312 338 373 138 
391 9 349 189 57 281 161 188 249 347 142 
392 6 228 376 121 69 311 402 
393 9 67 317 196 294 29 284 384 271 130 
394 9 221 118 298 84 225 257 56 318 85 
395 8 123 302 250 351 345 37 297 183 
396 8 403 147 77 85 184 225 257 246 
397 9 139 55 354 174 96 214 364 47 419 
398 7 232 339 81 329 4 90 105 
399 9 305 50 125 366 236 251 91 3 28 
400 8 171 120 359 288 4 105 90 408 
401 9 385 16 150 34 340 219 111 307 163 
402 8 65 228 376 108 121 392 193 69 
403 8 396 85 225 147 257 77 118 184 
404 9 23 261 63 154 187 237 300 151 205 
405 9 245 62 56 30 177 289 221 26 353 
406 8 415 277 248 195 18 117 203 204 
407 9 299 135 93 280 210 42 99 409 240 
408 9 357 313 120 288 332 400 8 171 278 
409 9 280 210 279 299 407 271 42 93 136 
410 9 263 19 140 128 93 61 82 270 36 
411 9 80 194 160 132 88 262 260 365 137 
412 9 13 309 363 52 336 71 342 191 272 
413 9 169 78 11 310 423 59 19 263 306 
414 8 247 26 292 30 62 353 383 379 
415 8 406 277 248 195 18 204 74 131 
416 9 384 67 290 317 12 3 333 366 236 
417 9 235 213 212 192 273 72 119 330 15 
418 9 362 338 390 138 373 2 54 109 208 
419 9 47 106 15 165 55 354 75 114 330 
420 9 170 156 137 265 27 39 291 365 258 
421 9 382 17 68 41 335 226 255 200 178 
422 7 173 75 165 293 175 114 15 
423 9 169 19 238 164 413 59 140 263 9 
DEPOT_SECTION
   1
   -1
EOF
