NAME :  X-n491-kX-w49-c11.cctp
COMMENT : 	Adapted by Maziero, Usberti and Cavellucci from the Uchoa, Pecin, Pessoa, Poggi, Subramanian, and Vidal (2013)
TYPE :  CCTP
DIMENSION :    309
EDGE_WEIGHT_TYPE : 	EUC_2D	
CAPACITY : 	428
VERTICES_WITHIN_COVERAGE :  11
VERTICES_WITH_DEMAND : 	49
NODE_COORD_SECTION
1 894 510
2 463 887
3 704 177
4 424 368
5 420 800
6 492 610
7 607 749
8 363 85
9 160 398
10 733 274
11 952 199
12 56 370
13 714 12
14 569 230
15 187 681
16 550 581
17 506 863
18 838 469
19 842 107
20 595 966
21 292 185
22 327 121
23 21 664
24 145 164
25 654 735
26 281 959
27 910 295
28 857 705
29 501 276
30 896 894
31 269 217
32 590 509
33 575 96
34 819 481
35 941 408
36 908 388
37 941 492
38 652 413
39 341 111
40 577 544
41 493 279
42 452 25
43 969 339
44 64 67
45 456 289
46 227 792
47 898 365
48 45 442
49 881 867
50 437 830
51 280 233
52 894 41
53 146 375
54 498 393
55 188 631
56 461 690
57 277 381
58 211 863
59 595 831
60 353 281
61 448 785
62 206 832
63 726 420
64 84 332
65 692 490
66 896 968
67 513 831
68 787 934
69 515 893
70 829 499
71 993 184
72 327 945
73 714 159
74 810 86
75 10 665
76 877 42
77 547 218
78 907 733
79 12 587
80 564 716
81 446 381
82 136 379
83 565 957
84 872 42
85 216 326
86 434 954
87 562 426
88 203 448
89 473 523
90 302 363
91 985 248
92 839 112
93 597 917
94 573 948
95 229 856
96 645 338
97 106 449
98 918 709
99 680 917
100 194 86
101 176 795
102 714 316
103 368 822
104 72 175
105 239 112
106 736 825
107 621 236
108 811 510
109 55 520
110 146 385
111 195 332
112 446 715
113 514 988
114 891 404
115 632 329
116 558 893
117 567 695
118 297 220
119 191 246
120 620 569
121 447 829
122 887 849
123 249 874
124 457 527
125 298 729
126 141 976
127 259 467
128 561 309
129 412 755
130 700 344
131 556 499
132 447 454
133 316 773
134 212 653
135 487 210
136 257 805
137 268 199
138 837 819
139 625 636
140 250 650
141 165 167
142 450 924
143 148 707
144 866 77
145 335 318
146 389 801
147 104 468
148 764 323
149 631 938
150 762 744
151 376 930
152 569 883
153 152 396
154 481 356
155 598 964
156 232 267
157 613 98
158 714 334
159 14 540
160 701 695
161 220 306
162 497 271
163 265 137
164 981 259
165 432 580
166 699 51
167 316 369
168 883 505
169 836 775
170 650 638
171 768 280
172 473 396
173 344 230
174 712 37
175 184 58
176 149 342
177 292 48
178 402 160
179 287 35
180 674 817
181 187 972
182 802 453
183 5 16
184 421 581
185 720 439
186 981 743
187 411 723
188 278 830
189 459 907
190 603 751
191 512 804
192 642 674
193 22 715
194 449 0
195 631 543
196 299 63
197 440 40
198 362 758
199 833 46
200 942 561
201 487 372
202 59 660
203 59 523
204 542 96
205 910 182
206 958 201
207 392 55
208 795 674
209 904 278
210 932 486
211 469 41
212 612 196
213 904 116
214 916 259
215 556 113
216 665 33
217 581 564
218 846 339
219 49 668
220 103 407
221 700 164
222 962 709
223 425 254
224 936 548
225 605 53
226 954 503
227 392 27
228 446 20
229 368 126
230 692 278
231 940 181
232 815 137
233 855 406
234 558 105
235 32 642
236 927 542
237 899 656
238 951 209
239 221 667
240 144 710
241 970 224
242 643 508
243 547 83
244 553 109
245 665 197
246 684 243
247 719 138
248 555 90
249 819 130
250 135 327
251 843 154
252 572 220
253 932 244
254 564 209
255 828 691
256 911 116
257 929 534
258 140 724
259 783 521
260 894 520
261 571 47
262 886 325
263 614 103
264 558 230
265 53 665
266 969 251
267 994 370
268 648 174
269 891 360
270 912 670
271 471 261
272 680 222
273 807 474
274 421 10
275 440 68
276 903 428
277 744 268
278 845 444
279 902 674
280 950 493
281 539 216
282 553 256
283 424 39
284 594 76
285 0 651
286 0 706
287 557 264
288 414 128
289 374 22
290 467 24
291 910 196
292 960 708
293 793 528
294 689 62
295 197 718
296 0 609
297 968 307
298 472 47
299 840 480
300 798 105
301 555 110
302 924 360
303 865 507
304 54 462
305 756 524
306 585 61
307 666 236
308 917 287
309 919 199
DEMAND_SECTION
2 19
3 56
4 71
5 90
6 5
7 34
8 47
9 56
10 53
11 87
12 28
13 15
14 89
15 60
16 85
17 41
18 52
19 74
20 63
21 72
22 82
23 35
24 48
25 39
26 46
27 78
28 41
29 15
30 77
31 30
32 72
33 93
34 53
35 95
36 29
37 90
38 82
39 73
40 18
41 69
42 31
43 99
44 46
45 92
46 66
47 4
48 27
49 99
50 27
COVERAGE_SECTION
2 11 189 142 17 69 121 50 86 67 116 191 5 
3 8 221 73 247 245 272 268 246 307 
4 11 81 172 154 201 54 45 132 145 167 60 41 
5 11 146 61 50 121 129 103 198 187 112 191 2 
6 10 16 165 184 56 89 124 217 40 117 112 
7 11 190 25 80 117 59 192 180 160 191 139 170 
8 11 39 229 207 22 289 227 288 196 283 275 177 
9 11 153 110 53 82 176 220 88 97 111 250 147 
10 9 277 171 230 102 148 246 158 272 130 
11 9 206 238 231 241 309 291 71 205 253 
12 11 64 220 48 82 53 250 110 304 97 176 153 
13 4 174 166 216 294 
14 9 252 264 254 77 282 281 287 107 212 
15 8 239 134 295 143 55 240 258 140 
16 11 217 40 6 120 32 131 195 139 89 124 117 
17 11 69 67 2 191 116 189 152 121 50 142 59 
18 9 299 34 278 70 273 182 303 108 168 
19 10 92 249 74 144 232 300 251 199 213 256 
20 11 155 94 83 149 93 116 113 152 99 69 59 
21 11 137 118 31 51 163 173 22 39 105 229 156 
22 11 39 229 8 163 196 21 177 178 288 105 207 
23 9 75 235 285 219 265 202 286 193 296 
24 11 141 104 100 119 105 175 163 44 137 31 156 
25 11 7 190 160 192 180 80 117 170 139 150 59 
26 11 72 123 181 151 95 58 188 126 62 86 136 
27 6 308 209 214 262 253 297 
28 8 255 279 78 98 237 270 208 169 
29 11 162 41 271 45 282 287 135 128 281 264 77 
30 11 49 122 66 138 68 169 78 186 106 98 28 
31 11 137 51 118 21 156 173 163 119 161 60 105 
32 10 131 40 195 242 217 120 16 87 65 38 
33 10 234 248 301 215 244 284 243 204 306 157 
34 10 273 70 299 18 108 182 278 303 259 293 
35 11 36 276 114 302 47 267 269 43 210 37 280 
36 11 114 47 302 269 35 276 233 262 43 218 278 
37 11 280 210 226 257 236 260 224 168 200 276 303 
38 11 185 63 96 130 115 65 87 242 158 32 102 
39 11 22 229 8 196 288 207 178 163 177 21 179 
40 11 217 32 16 120 131 195 242 139 89 6 87 
41 11 29 162 271 45 282 287 135 223 128 154 281 
42 9 228 290 197 211 194 298 283 274 275 
43 11 297 267 302 27 35 308 47 36 164 269 262 
44 11 183 104 175 24 100 141 105 163 119 179 177 
45 10 271 41 162 29 223 154 4 135 201 81 
46 9 136 62 101 95 188 58 295 123 133 
47 11 269 36 302 114 262 218 233 35 276 27 43 
48 9 304 97 147 220 12 109 203 159 82 
49 11 122 30 138 66 169 68 78 106 186 98 28 
50 11 121 5 61 146 2 103 17 67 129 191 189 
51 11 31 118 137 21 156 173 60 119 161 163 145 
52 7 76 84 144 199 213 256 19 
53 11 110 82 153 9 176 250 220 111 64 97 85 
54 11 201 172 154 81 87 4 132 128 45 41 29 
55 6 134 239 15 140 143 295 
56 9 112 187 129 6 61 80 117 165 184 
57 10 90 167 85 145 127 161 111 88 9 156 
58 8 95 62 123 46 136 188 101 181 
59 11 152 116 180 190 67 7 93 191 17 69 25 
60 10 145 173 223 118 51 167 90 45 31 4 
61 11 5 121 50 129 146 191 112 187 67 103 198 
62 7 58 95 46 101 136 123 188 
63 10 185 38 65 130 182 158 273 148 102 305 
64 11 12 250 176 82 53 220 110 153 9 111 48 
65 9 242 185 305 63 195 38 259 32 120 
66 11 30 49 68 122 138 169 106 99 78 186 98 
67 11 191 17 69 121 2 50 152 116 61 59 189 
68 11 99 66 49 30 106 138 122 149 180 169 93 
69 11 17 116 2 152 189 67 142 94 83 93 191 
70 7 34 108 299 18 273 303 293 
71 10 206 11 241 238 231 91 266 164 309 205 
72 11 26 151 123 86 142 188 103 95 189 58 181 
73 6 221 3 247 245 268 272 
74 10 300 19 92 249 199 232 144 84 251 76 
75 9 23 285 235 219 286 265 202 193 296 
76 8 84 52 144 199 19 213 74 92 
77 7 281 264 254 14 252 282 287 
78 10 98 28 279 292 222 270 186 237 169 255 
79 8 296 159 235 285 23 75 203 109 
80 11 117 190 7 192 25 139 191 56 170 112 59 
81 10 4 172 201 154 54 132 45 41 29 162 
82 11 53 110 153 9 176 220 250 64 111 97 12 
83 11 94 20 155 93 113 116 149 152 69 17 189 
84 8 76 52 144 199 19 74 92 213 
85 11 161 111 156 176 250 57 119 53 9 110 90 
86 11 142 189 151 2 113 69 72 17 50 121 83 
87 11 54 131 32 38 201 172 154 242 128 132 40 
88 10 127 9 153 110 53 82 97 57 147 220 
89 8 124 165 132 184 131 6 16 40 
90 10 167 57 145 85 60 161 111 127 156 4 
91 11 164 266 241 238 253 206 11 297 71 214 308 
92 9 19 249 232 74 251 300 144 213 199 
93 11 94 149 152 116 155 20 83 99 69 59 17 
94 11 83 20 155 93 116 149 152 113 69 17 99 
95 10 58 123 62 188 136 46 101 26 133 181 
96 11 115 130 158 102 38 230 128 246 307 107 10 
97 11 147 220 304 48 153 9 110 82 53 109 203 
98 9 78 279 270 292 222 237 28 186 255 
99 11 149 93 155 20 180 68 106 94 152 59 83 
100 11 175 105 141 163 24 177 179 196 44 137 22 
101 6 62 46 58 258 295 95 
102 10 158 130 230 10 148 277 171 96 246 115 
103 10 146 5 198 50 133 121 129 61 188 151 
104 11 24 141 44 119 100 64 175 250 183 105 176 
105 11 163 100 175 196 177 22 21 179 137 141 39 
106 11 180 150 138 99 169 68 25 160 59 7 49 
107 9 212 307 14 252 245 272 246 254 264 
108 7 70 293 34 259 273 299 18 
109 7 203 159 304 147 48 79 97 
110 11 53 82 153 9 176 220 250 111 97 64 88 
111 11 85 161 176 250 53 110 9 82 156 153 119 
112 9 56 187 129 61 5 198 146 191 121 
113 11 83 94 20 86 155 142 69 189 116 93 2 
114 11 36 276 233 47 269 35 302 278 218 262 18 
115 11 96 130 128 230 158 102 38 107 287 307 246 
116 11 152 69 93 94 17 83 59 67 155 20 149 
117 11 80 7 190 192 139 25 170 56 6 16 191 
118 11 51 31 21 137 173 156 60 163 22 145 119 
119 11 156 161 31 141 85 111 51 137 24 250 176 
120 10 195 217 40 242 32 139 16 170 131 65 
121 11 50 5 61 2 146 67 17 191 103 189 129 
122 11 49 30 138 169 78 66 68 186 98 28 106 
123 11 95 58 188 62 136 46 26 72 101 181 133 
124 6 89 165 184 132 6 131 
125 6 133 198 136 140 46 239 
126 3 181 58 26 
127 6 88 57 90 167 9 153 
128 11 287 282 29 41 115 162 14 264 96 252 77 
129 9 187 5 61 198 146 112 50 103 56 
130 10 158 102 96 230 148 115 10 63 38 277 
131 10 32 40 217 87 16 89 195 242 120 124 
132 7 172 81 89 124 54 4 201 
133 8 125 198 136 188 103 146 46 129 
134 8 239 55 15 140 295 143 240 258 
135 5 281 271 77 162 29 
136 10 46 188 62 95 133 123 58 101 125 295 
137 11 31 21 51 118 163 156 173 119 105 22 141 
138 11 169 122 49 30 106 150 78 28 68 255 98 
139 11 170 192 120 117 217 16 195 160 80 25 40 
140 7 239 134 55 15 295 125 143 
141 11 24 119 100 105 104 163 137 175 31 156 21 
142 11 189 86 2 69 151 17 113 50 121 67 116 
143 4 240 258 15 295 
144 9 84 76 19 92 199 52 213 74 256 
145 11 60 167 90 57 173 51 4 118 223 156 161 
146 9 103 5 129 198 50 61 121 133 187 
147 8 97 304 220 48 109 203 153 9 
148 6 171 102 158 10 277 130 
149 11 93 155 20 99 94 83 152 116 59 69 113 
150 9 208 160 169 106 255 28 138 25 180 
151 11 72 86 142 189 2 26 103 50 121 146 5 
152 11 116 93 69 59 94 17 83 67 149 155 20 
153 11 9 110 53 82 220 176 97 250 88 111 147 
154 11 201 54 172 81 4 45 41 29 162 128 271 
155 11 20 94 83 149 93 116 152 113 99 69 59 
156 11 161 119 51 85 31 111 137 118 21 176 250 
157 3 263 284 33 
158 10 130 102 148 230 10 96 277 171 115 63 
159 7 109 79 203 296 304 48 235 
160 8 25 192 170 150 139 208 7 190 
161 11 85 111 156 119 176 250 51 57 90 53 31 
162 10 29 41 271 45 282 287 135 281 77 264 
163 11 105 21 137 22 31 39 196 100 118 177 51 
164 11 91 266 241 297 253 238 206 214 11 308 71 
165 4 184 124 6 89 
166 4 294 174 216 13 
167 10 90 57 145 60 4 85 127 161 111 81 
168 8 303 260 299 210 70 257 236 18 
169 11 138 28 150 78 255 122 49 98 208 106 279 
170 8 139 192 120 160 25 195 117 217 
171 6 277 10 148 102 158 230 
172 9 54 201 81 154 4 132 87 45 41 
173 10 118 60 51 21 31 137 223 145 178 229 
174 4 166 13 294 216 
175 11 100 105 179 177 141 24 163 196 44 22 104 
176 11 250 53 82 110 111 153 9 64 85 161 220 
177 11 179 196 8 39 22 105 289 163 207 227 100 
178 6 288 229 39 8 22 173 
179 11 177 196 289 8 105 39 22 163 227 100 175 
180 11 106 59 25 7 190 99 150 152 160 93 149 
181 7 126 26 58 123 95 62 72 
182 10 273 34 18 278 299 70 108 233 259 293 
183 11 44 104 175 100 24 141 105 179 163 177 119 
184 4 165 124 6 89 
185 10 63 65 38 182 305 273 130 242 259 158 
186 9 222 292 98 78 270 279 237 28 122 
187 7 129 112 56 198 61 5 146 
188 10 136 123 95 46 133 62 58 103 125 101 
189 11 142 2 86 69 17 121 50 151 67 113 116 
190 11 7 80 25 117 59 192 180 191 160 139 67 
191 11 67 17 61 121 50 59 69 5 2 152 116 
192 10 170 139 25 160 117 7 190 80 120 217 
193 3 286 23 75 
194 9 228 42 274 290 197 211 283 298 227 
195 10 120 242 32 40 217 65 131 16 139 170 
196 11 177 179 22 39 8 105 163 289 207 229 227 
197 9 283 42 228 275 211 290 298 274 194 
198 7 133 129 146 187 103 125 5 
199 10 84 76 144 74 52 19 92 300 249 232 
200 7 224 236 257 226 260 280 37 
201 11 154 54 172 81 4 45 132 87 41 29 128 
202 5 265 219 235 23 75 
203 7 109 159 304 147 79 48 97 
204 7 243 248 244 234 301 215 33 
205 4 291 309 231 11 
206 11 11 238 241 231 71 309 291 253 266 205 91 
207 9 227 283 289 8 197 275 274 228 42 
208 3 255 28 150 
209 5 308 27 214 253 262 
210 11 37 280 226 257 260 168 236 224 276 303 200 
211 6 298 290 42 197 228 275 
212 6 107 268 252 254 245 14 
213 5 256 144 19 92 205 
214 5 209 253 308 27 266 
215 6 301 244 234 204 248 33 
216 5 166 294 174 13 225 
217 10 40 16 120 195 32 131 139 242 6 170 
218 5 262 269 47 233 27 
219 5 265 202 23 235 75 
220 11 97 82 110 153 53 9 12 147 48 304 64 
221 7 3 73 247 245 268 272 307 
222 8 292 186 98 78 270 279 237 28 
223 8 45 271 41 162 135 60 29 173 
224 8 236 200 257 226 260 37 280 210 
225 6 306 284 261 157 263 33 
226 10 280 37 210 257 236 224 200 260 168 303 
227 11 289 207 274 283 197 228 42 194 275 8 290 
228 9 42 194 197 290 274 283 211 298 275 
229 8 39 8 22 288 178 207 275 196 
230 11 246 10 102 307 277 272 158 130 96 171 115 
231 8 11 206 309 205 238 291 241 71 
232 7 249 251 92 300 19 74 144 
233 11 114 278 276 36 269 47 18 218 182 299 34 
234 7 244 301 215 248 204 33 243 
235 8 23 219 265 75 202 285 296 79 
236 9 257 224 200 260 226 37 280 210 168 
237 4 279 270 98 28 
238 10 11 206 241 231 309 253 291 266 71 205 
239 9 134 140 15 55 295 143 240 125 258 
240 4 143 258 15 295 
241 10 238 206 266 91 11 164 253 71 231 309 
242 9 195 65 32 120 40 217 131 38 185 
243 7 248 204 234 244 301 33 215 
244 7 301 215 234 204 248 33 243 
245 9 268 272 307 3 221 246 212 107 73 
246 11 307 272 230 245 10 107 277 3 268 102 221 
247 6 73 221 3 245 268 294 
248 7 243 204 234 244 301 33 215 
249 7 232 92 19 300 251 74 144 
250 11 176 53 64 82 110 111 153 9 85 220 161 
251 4 232 249 92 19 
252 8 14 254 264 77 281 282 287 212 
253 8 214 266 238 241 209 308 309 11 
254 7 252 77 14 264 281 282 212 
255 7 28 208 279 237 169 150 270 
256 5 213 144 205 19 231 
257 9 236 224 200 260 226 37 280 210 168 
258 4 240 143 295 15 
259 6 293 305 108 70 273 34 
260 7 168 303 257 236 224 210 37 
261 6 306 225 284 243 248 33 
262 8 269 27 47 218 308 209 302 36 
263 3 157 284 33 
264 8 14 77 252 254 281 282 287 107 
265 5 219 202 235 23 75 
266 10 164 91 241 253 238 206 214 11 297 308 
267 11 43 35 297 302 36 47 269 114 276 164 27 
268 5 245 212 221 3 272 
269 10 47 36 302 262 114 218 233 27 35 276 
270 7 279 237 98 292 78 222 28 
271 6 41 162 45 29 223 135 
272 11 307 246 245 3 230 268 107 221 73 212 10 
273 9 34 182 18 70 299 108 278 259 293 
274 11 228 283 194 42 227 197 290 289 207 211 275 
275 6 197 283 298 211 42 228 
276 11 114 36 35 233 278 47 210 269 302 37 18 
277 9 10 171 230 102 148 246 158 272 307 
278 10 18 299 233 182 34 273 70 276 114 303 
279 7 270 237 98 28 78 292 222 
280 11 37 226 210 257 236 224 260 168 200 276 35 
281 7 77 264 254 14 252 282 287 
282 10 287 264 14 77 252 281 254 128 29 162 
283 10 197 228 274 42 275 227 207 211 194 290 
284 9 306 225 33 157 263 261 248 234 243 
285 10 75 23 235 296 219 265 286 202 79 193 
286 4 193 75 23 285 
287 11 282 264 14 128 252 77 281 254 29 162 41 
288 6 178 229 275 8 39 207 
289 11 227 207 274 283 8 197 228 42 194 275 196 
290 7 42 211 228 298 194 197 283 
291 4 309 205 231 11 
292 8 222 186 98 78 270 279 237 28 
293 6 259 108 305 70 34 273 
294 4 166 174 216 13 
295 8 15 143 240 239 258 134 46 101 
296 9 79 285 235 75 23 159 219 265 202 
297 11 43 164 308 266 27 91 267 302 209 214 253 
298 6 211 290 42 197 228 275 
299 9 18 34 70 273 278 303 108 182 168 
300 9 74 249 232 92 19 251 199 144 247 
301 6 244 215 234 204 248 33 
302 11 47 36 269 43 35 262 114 27 297 267 276 
303 7 168 260 70 299 18 34 108 
304 8 48 147 97 109 203 220 159 12 
305 6 259 293 108 273 65 34 
306 7 284 261 225 33 248 243 157 
307 10 246 272 245 107 230 268 212 3 10 221 
308 7 27 209 214 253 262 297 266 
309 6 291 205 231 11 238 206 
DEPOT_SECTION
   1
   -1
EOF
