NAME :  X-n429-kX-w171-c7.cctp
COMMENT : 	Adapted by Maziero, Usberti and Cavellucci from the Uchoa, Pecin, Pessoa, Poggi, Subramanian, and Vidal (2013)
TYPE :  CCTP
DIMENSION :    415
EDGE_WEIGHT_TYPE : 	EUC_2D	
CAPACITY : 	536
VERTICES_WITHIN_COVERAGE :  7
VERTICES_WITH_DEMAND : 	171
NODE_COORD_SECTION
1 238 446
2 749 750
3 960 879
4 914 116
5 517 477
6 554 143
7 850 488
8 739 177
9 229 160
10 539 573
11 901 821
12 787 399
13 974 203
14 89 387
15 561 27
16 103 139
17 174 826
18 40 578
19 359 23
20 440 649
21 588 265
22 182 275
23 401 993
24 751 564
25 797 274
26 756 252
27 871 882
28 693 417
29 710 620
30 960 422
31 530 904
32 124 126
33 67 587
34 440 336
35 219 38
36 609 504
37 936 474
38 800 689
39 358 530
40 914 753
41 210 96
42 95 816
43 441 389
44 506 963
45 114 285
46 333 191
47 545 892
48 59 618
49 698 385
50 977 931
51 822 79
52 951 91
53 341 759
54 439 290
55 1 258
56 756 147
57 252 284
58 588 168
59 895 501
60 759 442
61 967 855
62 244 601
63 888 148
64 442 18
65 847 877
66 683 267
67 446 301
68 997 815
69 586 777
70 129 986
71 613 331
72 811 156
73 704 494
74 265 216
75 511 373
76 981 261
77 48 985
78 723 558
79 839 828
80 803 737
81 296 719
82 589 252
83 374 862
84 277 82
85 451 183
86 904 681
87 474 908
88 609 185
89 346 382
90 158 866
91 572 161
92 704 828
93 142 331
94 801 969
95 680 88
96 672 178
97 827 566
98 728 793
99 888 917
100 326 298
101 718 636
102 792 283
103 866 141
104 682 640
105 961 604
106 299 23
107 358 22
108 460 546
109 27 552
110 508 739
111 692 85
112 582 748
113 220 76
114 128 795
115 268 622
116 673 871
117 167 789
118 827 698
119 68 190
120 561 928
121 328 817
122 719 595
123 152 111
124 780 824
125 486 302
126 877 775
127 156 976
128 62 854
129 257 906
130 824 163
131 796 134
132 848 204
133 581 299
134 37 832
135 364 210
136 778 453
137 229 676
138 448 488
139 234 586
140 194 65
141 300 238
142 939 983
143 354 914
144 647 901
145 719 709
146 845 806
147 753 610
148 384 707
149 741 825
150 457 590
151 35 357
152 862 623
153 447 838
154 518 607
155 886 602
156 235 680
157 249 16
158 724 269
159 567 58
160 865 296
161 387 143
162 222 629
163 419 205
164 813 784
165 426 19
166 116 881
167 361 788
168 346 845
169 762 959
170 961 860
171 388 315
172 433 70
173 116 292
174 264 540
175 76 564
176 42 866
177 988 538
178 77 75
179 664 842
180 419 541
181 46 609
182 624 658
183 761 523
184 954 696
185 807 151
186 22 882
187 320 646
188 682 723
189 591 702
190 163 587
191 327 755
192 467 531
193 8 378
194 469 286
195 502 45
196 278 681
197 104 123
198 638 65
199 806 705
200 87 388
201 70 459
202 427 812
203 727 965
204 736 661
205 108 285
206 635 631
207 442 797
208 808 238
209 494 268
210 761 524
211 455 188
212 843 3
213 84 342
214 509 878
215 98 641
216 835 478
217 814 202
218 285 973
219 33 673
220 729 323
221 193 813
222 702 480
223 748 318
224 925 844
225 814 904
226 68 961
227 59 627
228 773 483
229 845 468
230 904 365
231 613 161
232 532 267
233 426 537
234 382 505
235 603 595
236 700 327
237 166 753
238 554 159
239 251 439
240 925 3
241 667 660
242 355 936
243 130 923
244 852 837
245 507 813
246 381 911
247 554 116
248 387 383
249 908 985
250 236 723
251 479 755
252 728 93
253 861 58
254 348 13
255 850 535
256 833 72
257 393 995
258 433 581
259 184 919
260 20 992
261 680 498
262 330 163
263 115 593
264 100 942
265 768 928
266 466 983
267 477 550
268 599 837
269 406 531
270 596 274
271 60 921
272 622 862
273 550 949
274 301 792
275 354 963
276 856 708
277 493 303
278 817 131
279 557 353
280 183 731
281 910 91
282 833 437
283 94 829
284 619 456
285 761 88
286 317 184
287 357 202
288 516 212
289 655 419
290 789 881
291 439 945
292 823 190
293 523 905
294 561 376
295 13 539
296 591 737
297 827 661
298 788 713
299 455 357
300 200 213
301 982 944
302 199 197
303 344 164
304 859 498
305 855 650
306 605 903
307 961 616
308 266 819
309 391 167
310 791 757
311 291 577
312 490 126
313 25 95
314 20 522
315 121 204
316 755 392
317 549 56
318 43 240
319 110 305
320 739 76
321 84 184
322 953 127
323 108 836
324 76 779
325 331 883
326 45 791
327 791 266
328 854 741
329 66 316
330 322 731
331 162 83
332 110 342
333 648 917
334 987 835
335 53 290
336 339 605
337 508 883
338 946 885
339 628 906
340 986 694
341 660 678
342 309 48
343 873 461
344 949 410
345 193 531
346 890 388
347 81 698
348 778 937
349 704 356
350 469 110
351 687 142
352 158 154
353 471 294
354 439 348
355 25 467
356 661 710
357 113 935
358 316 819
359 807 40
360 687 897
361 255 902
362 730 134
363 698 366
364 219 270
365 728 209
366 137 420
367 814 593
368 315 153
369 60 763
370 324 822
371 226 7
372 613 135
373 989 857
374 904 996
375 460 538
376 828 569
377 951 678
378 819 618
379 991 254
380 253 75
381 588 802
382 840 877
383 750 865
384 260 38
385 244 697
386 63 980
387 620 219
388 800 109
389 467 220
390 417 647
391 938 810
392 898 705
393 507 121
394 154 615
395 993 267
396 817 539
397 358 136
398 527 863
399 275 964
400 555 502
401 439 480
402 237 9
403 501 789
404 79 432
405 636 429
406 272 761
407 454 640
408 515 783
409 734 311
410 226 723
411 946 827
412 473 856
413 641 87
414 523 585
415 231 980
DEMAND_SECTION
2 55
3 64
4 100
5 66
6 68
7 95
8 67
9 100
10 75
11 65
12 98
13 100
14 66
15 82
16 84
17 89
18 62
19 64
20 87
21 94
22 75
23 53
24 99
25 85
26 87
27 83
28 82
29 78
30 84
31 67
32 61
33 56
34 63
35 98
36 79
37 95
38 92
39 51
40 66
41 50
42 82
43 66
44 75
45 73
46 83
47 76
48 72
49 62
50 78
51 56
52 98
53 56
54 51
55 84
56 81
57 65
58 61
59 64
60 78
61 78
62 78
63 60
64 59
65 80
66 88
67 96
68 75
69 81
70 51
71 61
72 67
73 56
74 87
75 88
76 54
77 50
78 99
79 85
80 79
81 94
82 86
83 85
84 58
85 82
86 52
87 52
88 60
89 66
90 84
91 62
92 83
93 60
94 84
95 78
96 97
97 51
98 79
99 54
100 54
101 84
102 75
103 94
104 60
105 100
106 90
107 75
108 51
109 90
110 90
111 79
112 93
113 64
114 86
115 97
116 83
117 77
118 54
119 81
120 76
121 72
122 56
123 74
124 62
125 84
126 80
127 91
128 60
129 54
130 89
131 68
132 79
133 61
134 88
135 71
136 84
137 64
138 95
139 72
140 79
141 100
142 83
143 78
144 53
145 57
146 81
147 86
148 86
149 51
150 84
151 88
152 67
153 65
154 80
155 94
156 79
157 56
158 91
159 69
160 90
161 71
162 70
163 83
164 63
165 71
166 66
167 63
168 77
169 81
170 50
171 75
172 51
COVERAGE_SECTION
2 7 310 98 145 298 80 164 188 
3 7 338 170 61 373 224 334 411 
4 7 281 63 322 52 103 253 256 
5 7 400 138 192 401 267 375 108 
6 7 238 91 247 58 393 372 231 
7 7 304 216 229 343 59 255 282 
8 7 56 365 362 351 96 131 185 
9 7 302 300 41 74 352 113 368 
10 7 414 154 267 235 400 108 192 
11 7 224 391 411 126 244 146 79 
12 7 316 60 136 282 228 49 223 
13 7 379 76 395 322 63 4 52 
14 6 200 213 404 332 366 151 
15 7 317 159 195 198 247 413 393 
16 7 197 32 321 123 352 119 315 
17 7 221 117 90 114 323 237 42 
18 7 33 109 181 175 48 295 227 
19 7 107 254 342 106 165 64 172 
20 7 407 390 150 258 148 154 108 
21 7 270 82 133 232 387 71 88 
22 7 364 300 173 45 93 57 205 
23 7 257 275 291 266 242 246 143 
24 7 78 210 183 122 147 29 367 
25 7 102 327 208 26 223 160 158 
26 7 158 327 25 102 365 208 409 
27 7 65 382 99 244 225 79 224 
28 7 49 289 363 405 349 222 316 
29 7 101 122 104 147 204 241 78 
30 7 344 37 346 230 343 59 177 
31 7 293 47 337 214 120 398 273 
32 7 197 16 123 352 331 178 321 
33 7 175 18 181 48 227 263 109 
34 7 354 299 67 54 353 43 171 
35 7 371 402 140 157 113 384 380 
36 7 284 400 261 405 235 5 73 
37 7 59 30 343 344 304 177 7 
38 7 199 298 118 297 80 276 305 
39 7 234 269 180 233 336 311 258 
40 7 126 392 328 391 11 184 86 
41 7 113 140 380 331 35 123 9 
42 7 283 323 114 324 128 326 134 
43 7 299 354 34 248 75 67 171 
44 7 266 273 293 31 87 120 291 
45 6 205 173 319 93 329 332 
46 7 286 287 262 303 135 368 141 
47 7 31 293 398 337 120 214 273 
48 7 227 181 33 18 215 175 219 
49 7 363 349 28 289 316 236 220 
50 7 301 3 338 142 170 373 61 
51 7 256 388 359 253 278 131 285 
52 7 322 281 4 63 240 253 103 
53 7 191 330 167 274 121 81 358 
54 7 67 194 353 34 125 277 171 
55 6 318 335 329 119 151 205 
56 7 362 8 131 185 72 388 285 
57 7 364 141 74 22 100 300 302 
58 7 91 231 88 238 372 6 387 
59 7 304 343 7 37 255 229 216 
60 7 136 228 316 12 222 28 282 
61 7 170 373 3 334 411 338 224 
62 7 139 115 162 311 174 137 156 
63 7 103 4 281 130 322 132 278 
64 7 165 172 195 19 107 254 350 
65 7 382 27 244 225 79 99 290 
66 7 158 236 409 220 365 26 387 
67 7 54 353 194 34 125 277 354 
68 7 334 373 61 411 170 391 3 
69 7 381 112 296 268 408 189 403 
70 7 127 264 357 243 226 386 77 
71 7 133 270 279 294 21 82 236 
72 7 185 130 278 131 292 217 388 
73 7 222 261 183 210 78 228 60 
74 7 141 286 300 9 57 302 364 
75 7 279 294 299 43 277 125 354 
76 7 379 395 13 160 230 322 132 
77 7 386 260 226 271 264 70 357 
78 7 24 122 210 183 147 29 73 
79 7 244 146 382 65 164 124 11 
80 7 310 298 199 118 38 164 328 
81 7 330 196 191 406 385 53 250 
82 7 21 270 387 133 232 88 71 
83 7 168 325 246 143 121 370 358 
84 7 380 342 384 113 106 41 157 
85 7 211 163 389 309 312 288 161 
86 7 392 377 184 276 305 152 40 
87 7 337 214 293 291 412 31 44 
88 7 231 58 387 91 372 238 96 
89 7 248 171 100 43 354 34 239 
90 7 17 166 323 259 221 243 283 
91 7 58 238 6 231 88 247 372 
92 7 149 98 179 116 383 360 124 
93 6 332 319 173 45 205 213 
94 7 348 169 265 225 203 290 382 
95 7 111 413 198 252 351 320 362 
96 7 351 231 88 365 387 8 362 
97 7 376 396 367 255 378 152 155 
98 7 149 92 2 124 310 383 179 
99 7 27 65 382 338 249 225 3 
100 7 171 141 57 89 135 287 74 
101 7 29 204 104 122 147 241 341 
102 7 25 327 26 208 223 409 158 
103 7 63 130 278 4 72 185 292 
104 7 241 29 101 341 206 122 204 
105 7 307 177 155 377 184 340 86 
106 7 342 384 157 254 107 19 84 
107 7 19 254 342 106 165 64 172 
108 7 375 192 267 233 180 150 258 
109 7 295 18 314 175 33 181 48 
110 7 251 408 403 245 112 296 69 
111 7 95 252 320 413 351 198 362 
112 7 296 69 189 381 110 408 356 
113 7 41 140 380 35 384 84 331 
114 7 42 117 323 283 324 17 237 
115 7 62 162 139 311 187 196 137 
116 7 179 360 144 272 333 92 339 
117 7 221 237 17 114 280 323 42 
118 7 199 38 276 297 298 80 328 
119 7 321 315 318 16 197 32 55 
120 7 273 31 47 293 306 44 337 
121 7 370 358 168 274 167 53 191 
122 7 29 78 147 101 24 104 204 
123 7 331 32 352 197 16 41 140 
124 7 149 383 164 290 79 98 146 
125 7 277 353 194 209 67 54 34 
126 7 328 40 146 11 79 164 244 
127 7 70 243 357 259 264 415 226 
128 7 176 134 283 186 323 42 166 
129 7 361 399 218 259 325 415 308 
130 7 72 185 292 278 131 217 103 
131 7 185 278 388 72 130 56 285 
132 7 292 217 130 208 72 103 185 
133 7 270 21 71 82 232 279 294 
134 7 128 176 326 186 283 42 324 
135 7 287 46 303 309 286 163 262 
136 7 60 228 12 282 216 316 229 
137 7 156 385 410 162 250 196 115 
138 7 401 192 375 233 108 180 269 
139 7 62 162 115 174 311 345 190 
140 7 113 41 35 331 380 123 371 
141 7 74 46 286 100 57 287 135 
142 7 249 374 301 50 99 338 3 
143 7 242 246 325 275 83 168 257 
144 7 333 339 116 360 306 272 179 
145 7 188 2 204 356 341 298 241 
146 7 79 244 164 126 11 328 124 
147 7 122 29 101 24 204 78 367 
148 7 330 53 390 191 20 167 187 
149 7 98 92 124 383 290 2 179 
150 7 258 108 267 407 375 192 20 
151 6 193 213 329 200 14 335 
152 7 305 155 378 297 367 376 97 
153 7 412 202 207 245 403 214 87 
154 7 414 10 150 267 407 108 235 
155 7 152 305 376 97 378 367 105 
156 7 137 385 196 250 410 162 115 
157 7 402 371 384 35 106 380 113 
158 7 26 66 409 220 223 365 236 
159 7 317 15 247 195 198 413 6 
160 7 25 102 230 327 208 132 346 
161 7 309 397 303 262 287 163 135 
162 7 62 139 115 137 156 394 385 
163 7 85 211 309 389 135 287 161 
164 7 310 146 80 79 124 328 126 
165 7 64 172 19 107 254 195 350 
166 7 243 90 323 357 283 128 264 
167 7 53 121 191 370 358 168 274 
168 7 370 83 121 358 325 167 143 
169 7 348 265 203 94 225 290 383 
170 7 61 3 373 338 334 411 224 
171 7 34 54 67 354 100 248 89 
172 7 165 64 350 195 312 161 19 
173 6 45 205 319 93 332 329 
174 6 311 139 62 345 115 39 
175 6 33 18 263 109 181 48 
176 7 128 186 134 271 283 323 42 
177 7 105 37 307 59 30 155 344 
178 3 197 313 16 
179 7 116 92 272 360 144 268 339 
180 7 233 269 108 375 258 192 234 
181 7 48 227 33 18 175 109 215 
182 7 206 341 241 189 104 356 235 
183 7 210 24 228 78 396 73 136 
184 7 377 340 86 392 40 307 105 
185 7 72 131 130 278 292 388 56 
186 7 176 128 134 271 283 226 166 
187 7 336 196 115 311 81 330 62 
188 7 356 145 341 241 2 204 104 
189 7 296 112 182 356 341 69 206 
190 6 394 263 345 139 162 62 
191 7 53 330 274 167 81 406 121 
192 7 375 108 267 233 138 180 401 
193 6 151 200 14 213 329 404 
194 7 353 125 67 277 54 209 34 
195 7 317 15 64 159 172 350 393 
196 7 385 81 156 137 187 250 115 
197 7 16 32 123 178 352 321 331 
198 7 413 95 111 159 372 15 317 
199 7 38 298 118 80 297 276 310 
200 6 14 404 213 332 366 151 
201 4 404 355 200 14 
202 7 207 153 412 167 83 251 403 
203 7 169 265 348 94 360 333 144 
204 7 101 29 145 147 104 122 241 
205 6 45 173 319 329 335 93 
206 7 182 241 104 235 341 29 101 
207 7 202 153 251 403 245 412 408 
208 7 327 217 25 102 292 132 26 
209 7 194 125 277 353 232 389 67 
210 7 183 24 228 78 396 73 136 
211 7 85 389 163 288 309 312 350 
212 7 359 253 256 51 240 281 388 
213 6 332 329 14 319 200 151 
214 7 337 398 293 31 47 412 87 
215 7 227 48 263 347 181 33 394 
216 7 229 7 304 282 343 255 136 
217 7 292 132 208 130 72 185 327 
218 7 399 415 275 129 361 242 143 
219 6 227 347 48 181 215 33 
220 7 409 223 236 349 363 158 49 
221 7 17 117 90 237 114 308 280 
222 7 73 261 28 60 228 183 210 
223 7 409 220 236 158 102 349 25 
224 7 411 11 391 170 61 338 3 
225 7 290 382 65 348 265 27 94 
226 7 386 77 264 271 357 260 70 
227 7 48 181 33 215 18 219 175 
228 7 136 183 60 210 216 73 222 
229 7 216 7 343 282 304 59 255 
230 7 346 344 160 30 282 343 37 
231 7 88 58 372 91 387 238 96 
232 7 209 277 21 288 125 82 133 
233 7 180 269 375 108 192 258 267 
234 7 39 269 180 233 401 138 375 
235 7 206 182 10 414 154 36 104 
236 7 220 349 409 363 223 49 66 
237 7 280 117 114 221 410 17 250 
238 7 6 91 58 247 231 393 88 
239 3 174 345 89 
240 7 212 253 281 52 4 256 359 
241 7 341 104 182 206 356 101 29 
242 7 143 275 246 325 257 23 83 
243 7 357 264 166 259 127 70 90 
244 7 79 146 65 382 27 11 164 
245 7 403 408 398 412 251 153 214 
246 7 143 242 83 325 275 291 168 
247 7 6 238 393 91 159 317 58 
248 7 89 43 354 171 34 299 67 
249 7 374 142 99 301 50 338 94 
250 7 410 385 156 137 406 280 196 
251 7 110 403 408 207 245 202 153 
252 7 320 285 111 362 95 56 351 
253 7 256 51 359 212 281 4 388 
254 7 107 19 106 342 165 384 64 
255 7 396 304 97 376 7 59 216 
256 7 51 253 359 388 278 212 131 
257 7 23 275 291 242 266 246 143 
258 7 150 180 108 233 375 267 269 
259 7 243 90 127 357 361 129 415 
260 7 77 386 226 271 264 70 357 
261 7 73 222 36 78 284 28 405 
262 7 303 368 286 46 397 287 135 
263 7 394 33 190 175 215 48 227 
264 7 357 243 226 271 70 386 166 
265 7 348 169 290 225 94 203 383 
266 7 44 291 23 257 87 273 293 
267 7 108 192 375 150 233 258 414 
268 7 272 381 69 179 306 339 47 
269 7 180 233 234 39 375 108 258 
270 7 21 82 133 71 387 232 66 
271 7 226 264 186 357 176 386 77 
272 7 268 306 339 144 179 116 333 
273 7 120 44 31 293 47 306 337 
274 7 358 121 370 406 308 191 53 
275 7 242 143 257 23 246 218 399 
276 7 118 328 392 199 86 297 305 
277 7 125 353 194 209 67 232 54 
278 7 131 185 72 388 130 103 51 
279 7 294 75 133 71 277 125 270 
280 7 237 410 250 117 385 137 156 
281 7 4 52 322 253 63 103 256 
282 7 229 216 343 7 136 12 304 
283 7 42 323 128 114 324 166 134 
284 7 405 36 289 261 400 28 222 
285 7 320 252 388 362 131 56 51 
286 7 46 262 368 303 287 135 141 
287 7 135 46 303 286 262 309 163 
288 7 389 232 209 238 211 85 91 
289 7 405 28 284 49 363 222 349 
290 7 225 383 265 382 348 65 124 
291 7 266 87 23 246 257 44 242 
292 7 217 130 132 72 185 208 278 
293 7 31 47 337 214 398 120 87 
294 7 279 75 71 133 405 284 277 
295 7 314 109 18 175 33 355 181 
296 7 112 189 69 381 356 110 182 
297 7 305 118 38 378 199 152 276 
298 7 199 38 80 118 310 2 297 
299 7 354 34 43 67 75 125 353 
300 7 302 9 364 22 74 352 315 
301 7 50 142 3 338 249 170 373 
302 7 300 9 352 74 364 315 22 
303 7 262 46 368 397 286 287 309 
304 7 7 216 229 59 255 343 396 
305 7 152 297 378 118 155 86 276 
306 7 339 144 272 333 120 47 268 
307 7 105 377 155 184 340 177 86 
308 7 274 358 370 406 121 221 168 
309 7 161 397 163 303 287 135 262 
310 7 80 164 2 298 199 328 124 
311 7 174 115 62 336 139 187 39 
312 7 393 350 247 6 85 211 238 
313 4 178 197 16 32 
314 7 295 109 355 18 175 33 201 
315 7 321 119 352 16 32 302 300 
316 7 12 60 49 349 363 136 28 
317 7 159 15 195 247 393 6 198 
318 7 55 335 119 321 205 329 45 
319 6 173 45 205 332 93 213 
320 7 252 285 111 362 95 388 56 
321 7 119 315 16 197 318 32 352 
322 7 52 4 281 63 13 103 253 
323 7 283 42 114 166 128 90 324 
324 7 369 326 42 283 114 323 134 
325 7 143 168 83 246 242 370 121 
326 7 369 324 134 42 283 128 176 
327 7 25 102 208 26 158 223 217 
328 7 276 126 80 118 392 164 199 
329 6 335 213 319 151 332 205 
330 7 191 81 53 406 274 148 196 
331 7 123 140 41 32 113 197 352 
332 6 213 93 319 14 173 200 
333 7 144 339 360 306 116 272 179 
334 7 68 373 61 170 411 3 391 
335 6 329 318 205 319 45 55 
336 7 187 311 115 39 390 62 196 
337 7 214 293 398 31 47 87 412 
338 7 3 170 61 224 373 50 411 
339 7 144 306 333 272 116 360 120 
340 7 184 377 307 86 392 40 105 
341 7 241 356 182 104 188 206 145 
342 7 106 84 384 254 107 19 380 
343 7 229 7 304 216 59 282 37 
344 7 30 346 230 37 343 59 229 
345 4 190 139 174 62 
346 7 230 344 282 343 30 229 160 
347 6 219 215 369 227 324 48 
348 7 265 169 94 225 290 203 383 
349 7 363 236 49 220 409 223 28 
350 7 312 393 172 195 85 211 247 
351 7 96 362 95 111 8 252 56 
352 7 123 32 16 302 197 315 9 
353 7 194 125 277 67 54 209 34 
354 7 34 299 43 67 54 171 248 
355 5 201 314 404 295 109 
356 7 188 341 241 145 182 189 104 
357 7 264 243 226 70 166 271 127 
358 7 370 121 274 168 308 167 53 
359 7 256 51 212 253 285 388 320 
360 7 116 144 333 179 339 92 383 
361 7 129 399 259 218 325 415 308 
362 7 56 252 8 351 285 320 111 
363 7 349 49 236 28 220 316 409 
364 7 57 22 300 74 302 141 93 
365 7 8 26 158 96 56 66 362 
366 3 14 200 404 
367 7 378 376 97 396 152 147 255 
368 7 262 286 303 46 397 287 161 
369 6 324 326 42 347 134 283 
370 7 121 358 168 274 167 308 325 
371 7 402 157 35 384 140 113 380 
372 7 231 58 91 88 413 6 247 
373 7 61 334 170 3 68 338 411 
374 7 249 142 99 301 50 94 27 
375 7 108 192 267 233 180 138 258 
376 7 97 367 396 255 378 152 155 
377 7 184 340 86 392 307 105 40 
378 7 367 152 297 305 376 97 147 
379 7 76 395 13 160 322 230 63 
380 7 84 113 384 41 35 157 140 
381 7 69 268 112 296 272 408 245 
382 7 65 27 225 244 79 290 99 
383 7 149 290 124 92 265 360 98 
384 7 157 402 380 35 106 371 84 
385 7 156 137 250 410 196 81 280 
386 7 77 226 260 264 271 70 357 
387 7 88 82 21 231 58 270 96 
388 7 131 278 51 185 285 72 256 
389 7 211 85 163 288 209 194 353 
390 7 20 407 148 258 150 336 187 
391 7 411 224 11 61 170 334 68 
392 7 86 276 40 184 328 377 305 
393 7 312 350 247 6 238 91 195 
394 7 190 263 215 162 139 33 62 
395 7 76 379 13 160 230 322 344 
396 7 97 376 255 367 183 210 304 
397 7 161 303 262 309 368 46 286 
398 7 214 337 47 31 293 245 412 
399 7 218 415 129 361 275 242 143 
400 7 5 36 10 284 414 267 192 
401 7 138 192 233 269 234 375 180 
402 7 371 157 35 384 106 380 113 
403 7 408 245 251 110 207 153 412 
404 5 201 200 14 366 355 
405 7 289 284 28 49 36 261 222 
406 7 274 81 250 191 308 330 410 
407 7 20 390 150 258 154 414 267 
408 7 403 245 110 251 69 207 381 
409 7 220 223 236 158 349 26 102 
410 7 250 385 156 280 137 406 196 
411 7 391 224 61 170 334 11 68 
412 7 153 214 337 87 398 245 202 
413 7 198 95 111 372 351 159 231 
414 7 10 154 267 150 108 192 375 
415 7 399 218 127 259 129 361 70 
DEPOT_SECTION
   1
   -1
EOF
