NAME :  X-n401-kX-w80-c9.cctp
COMMENT : 	Adapted by Maziero, Usberti and Cavellucci from the Uchoa, Pecin, Pessoa, Poggi, Subramanian, and Vidal (2013)
TYPE :  CCTP
DIMENSION :    357
EDGE_WEIGHT_TYPE : 	EUC_2D	
CAPACITY : 	745
VERTICES_WITHIN_COVERAGE :  9
VERTICES_WITH_DEMAND : 	80
NODE_COORD_SECTION
1 0 0
2 645 7
3 720 867
4 513 499
5 208 766
6 976 884
7 991 864
8 696 804
9 655 676
10 840 976
11 718 867
12 456 818
13 901 808
14 380 423
15 668 533
16 939 794
17 311 824
18 906 961
19 899 692
20 227 898
21 646 431
22 886 633
23 468 400
24 867 887
25 720 871
26 585 832
27 746 892
28 990 681
29 333 883
30 675 773
31 145 637
32 939 680
33 852 885
34 520 96
35 603 554
36 677 836
37 214 793
38 480 576
39 986 924
40 392 482
41 872 974
42 644 517
43 888 795
44 622 5
45 999 958
46 415 509
47 910 946
48 150 945
49 719 760
50 695 188
51 420 387
52 720 832
53 714 926
54 697 759
55 659 869
56 192 793
57 645 19
58 592 992
59 764 778
60 839 680
61 468 397
62 77 793
63 729 74
64 299 814
65 571 343
66 717 25
67 989 846
68 971 861
69 448 338
70 194 768
71 929 831
72 845 841
73 687 867
74 963 616
75 464 498
76 141 809
77 547 542
78 945 847
79 627 445
80 504 497
81 101 705
82 849 606
83 766 919
84 492 399
85 621 919
86 555 935
87 123 778
88 971 877
89 58 537
90 938 801
91 870 838
92 953 865
93 693 551
94 816 941
95 690 852
96 689 61
97 931 944
98 996 833
99 560 369
100 580 108
101 630 3
102 170 733
103 631 885
104 603 891
105 724 324
106 278 823
107 589 379
108 994 810
109 641 885
110 948 839
111 692 610
112 813 35
113 738 668
114 703 958
115 453 511
116 412 458
117 912 918
118 770 940
119 930 978
120 854 942
121 909 831
122 587 581
123 813 824
124 222 800
125 978 848
126 455 622
127 696 876
128 756 719
129 550 544
130 872 85
131 825 100
132 503 468
133 571 325
134 689 913
135 492 16
136 446 402
137 500 144
138 469 435
139 171 802
140 516 491
141 550 958
142 598 690
143 193 835
144 567 576
145 747 781
146 530 102
147 496 518
148 210 827
149 779 754
150 226 781
151 722 772
152 655 831
153 639 360
154 880 871
155 786 17
156 449 521
157 717 794
158 786 907
159 505 383
160 677 883
161 705 778
162 536 495
163 923 981
164 913 861
165 684 47
166 580 474
167 165 445
168 481 45
169 206 793
170 989 973
171 676 184
172 782 780
173 976 919
174 949 912
175 204 768
176 652 8
177 636 854
178 632 5
179 753 830
180 894 901
181 883 814
182 564 508
183 876 903
184 865 852
185 514 380
186 701 54
187 343 924
188 721 920
189 490 458
190 534 592
191 259 778
192 474 652
193 193 899
194 284 335
195 967 750
196 485 462
197 644 779
198 461 532
199 611 509
200 564 75
201 364 519
202 517 18
203 998 838
204 949 850
205 928 822
206 601 533
207 923 783
208 102 799
209 726 914
210 834 244
211 838 831
212 866 934
213 630 73
214 949 878
215 72 589
216 436 525
217 541 524
218 543 471
219 588 198
220 640 38
221 440 626
222 178 630
223 721 822
224 528 881
225 705 976
226 653 366
227 981 905
228 679 929
229 793 937
230 212 772
231 896 799
232 233 776
233 902 891
234 1000 799
235 45 654
236 868 917
237 233 943
238 408 600
239 945 853
240 509 590
241 843 915
242 471 500
243 775 770
244 579 103
245 935 853
246 659 857
247 426 546
248 932 920
249 996 850
250 840 94
251 706 671
252 190 756
253 163 677
254 734 882
255 403 754
256 669 187
257 947 869
258 747 889
259 710 131
260 851 992
261 157 888
262 964 968
263 550 923
264 320 759
265 881 806
266 333 404
267 990 838
268 171 759
269 647 47
270 296 835
271 655 146
272 475 535
273 197 879
274 985 834
275 784 970
276 546 65
277 144 788
278 870 661
279 508 521
280 669 386
281 845 859
282 860 854
283 768 700
284 196 769
285 245 941
286 411 529
287 535 56
288 327 947
289 708 76
290 657 144
291 686 66
292 514 578
293 894 933
294 909 814
295 938 972
296 435 803
297 730 857
298 861 742
299 251 785
300 497 40
301 969 748
302 990 860
303 701 863
304 610 942
305 103 703
306 221 735
307 777 692
308 984 821
309 912 928
310 475 554
311 959 862
312 646 31
313 991 886
314 735 812
315 707 889
316 333 824
317 824 954
318 197 855
319 487 514
320 570 729
321 653 40
322 850 803
323 630 47
324 563 493
325 216 737
326 689 858
327 688 876
328 883 783
329 334 767
330 847 890
331 966 862
332 524 554
333 181 847
334 886 743
335 995 751
336 663 926
337 660 593
338 124 687
339 704 58
340 950 824
341 825 869
342 795 770
343 664 408
344 222 837
345 930 938
346 313 960
347 819 911
348 906 880
349 180 749
350 914 961
351 357 506
352 649 780
353 975 865
354 687 737
355 543 546
356 650 873
357 541 495
DEMAND_SECTION
2 42
3 56
4 29
5 28
6 66
7 92
8 99
9 97
10 75
11 52
12 13
13 67
14 69
15 60
16 77
17 26
18 97
19 74
20 26
21 28
22 60
23 74
24 87
25 95
26 59
27 56
28 64
29 42
30 68
31 15
32 59
33 62
34 29
35 66
36 63
37 24
38 9
39 73
40 60
41 100
42 56
43 75
44 37
45 100
46 4
47 100
48 33
49 96
50 28
51 78
52 92
53 76
54 84
55 54
56 3
57 14
58 69
59 99
60 66
61 56
62 31
63 8
64 45
65 15
66 10
67 76
68 98
69 99
70 14
71 75
72 91
73 59
74 51
75 66
76 35
77 66
78 77
79 24
80 40
81 28
COVERAGE_SECTION
2 9 176 57 178 101 44 312 220 321 269 
3 9 11 25 297 303 254 127 315 326 73 
4 9 80 140 162 279 147 357 319 132 217 
5 9 175 230 284 70 252 150 169 232 37 
6 9 88 313 353 227 68 331 7 214 302 
7 9 302 249 353 67 68 125 313 88 6 
8 9 157 161 223 30 36 52 314 151 54 
9 9 251 142 354 111 113 337 54 30 320 
10 9 260 317 41 120 94 212 275 229 241 
11 9 3 25 297 303 254 127 315 326 73 
12 8 296 255 224 316 26 329 29 263 
13 9 231 294 43 181 265 121 205 328 207 
14 9 116 266 51 40 136 351 138 23 61 
15 9 42 93 337 199 206 35 111 122 79 
16 8 90 207 205 340 294 71 13 231 
17 9 64 270 316 106 329 29 264 191 299 
18 9 350 47 163 119 97 293 345 295 309 
19 9 32 278 334 22 60 298 195 301 28 
20 9 193 273 237 285 318 344 333 261 143 
21 9 79 343 280 226 153 107 166 199 42 
22 9 278 82 19 60 32 74 334 298 28 
23 9 61 136 84 138 159 51 185 189 196 
24 9 33 183 330 154 180 236 282 184 233 
25 9 3 11 297 254 303 315 127 258 327 
26 9 177 104 103 152 224 109 356 246 197 
27 9 258 254 209 25 83 3 11 188 297 
28 9 32 74 301 335 195 19 22 234 334 
29 9 187 316 270 17 288 64 346 106 285 
30 9 54 352 161 197 8 354 49 151 157 
31 5 222 253 338 305 81 
32 9 19 28 74 22 278 301 195 334 335 
33 9 330 24 281 183 154 241 341 282 184 
34 9 146 276 287 200 137 244 100 300 168 
35 9 206 122 144 199 129 42 77 182 355 
36 9 95 152 326 246 73 303 8 55 327 
37 9 169 124 150 230 56 232 175 5 284 
38 9 310 240 292 272 198 332 126 190 147 
39 9 173 227 45 313 174 6 88 170 262 
40 9 116 46 351 201 286 14 216 115 156 
41 9 260 10 18 120 212 350 47 293 163 
42 9 15 199 206 35 93 79 166 337 182 
43 9 231 265 328 13 181 294 207 322 121 
44 9 101 178 2 57 176 312 220 323 321 
45 9 170 39 262 173 227 295 174 97 119 
46 9 286 216 40 156 115 247 75 116 198 
47 9 18 350 309 97 293 345 117 248 163 
48 9 261 193 273 237 20 285 318 333 143 
49 9 151 54 161 157 145 354 30 59 8 
50 9 171 256 271 290 259 219 289 63 291 
51 9 136 61 23 14 69 138 116 84 159 
52 9 223 314 297 179 3 11 95 303 8 
53 9 188 209 134 114 228 315 27 254 258 
54 9 161 49 354 30 151 157 8 352 145 
55 9 356 246 160 109 177 73 327 103 326 
56 9 169 37 139 284 70 175 230 5 124 
57 9 2 312 176 178 220 101 321 44 269 
58 9 304 141 86 85 263 336 104 228 103 
59 8 243 145 172 149 342 151 314 49 
60 8 278 19 307 22 298 283 82 334 
61 9 23 136 84 138 159 51 185 69 189 
62 7 208 87 76 277 81 139 305 
63 8 289 339 186 96 291 66 165 259 
64 8 17 270 106 316 191 299 264 329 
65 9 133 99 107 185 153 159 226 84 280 
66 9 186 339 165 96 63 291 289 321 176 
67 9 249 267 125 203 274 302 98 7 68 
68 9 331 353 311 125 88 92 302 7 67 
69 9 51 61 136 23 159 84 185 138 14 
70 9 284 175 252 5 230 349 56 268 169 
71 9 205 121 110 340 78 245 294 239 204 
72 8 211 281 282 184 91 341 123 322 
73 9 326 327 127 95 303 160 55 246 315 
74 9 32 28 22 19 278 82 301 195 335 
75 9 242 115 156 319 198 147 216 272 80 
76 8 277 139 87 208 56 333 143 268 
77 9 129 355 217 332 182 144 279 357 162 
78 9 204 239 110 245 92 311 257 71 340 
79 9 21 343 166 199 280 42 107 324 226 
80 9 4 140 147 279 319 132 162 242 357 
81 5 305 338 253 102 87 
82 9 22 278 60 19 307 74 32 283 113 
83 8 118 158 229 27 258 209 188 254 
84 9 159 23 61 185 138 136 189 196 132 
85 9 304 104 103 109 336 356 228 55 160 
86 9 263 141 304 224 104 58 85 103 109 
87 6 277 208 76 62 268 139 
88 9 6 353 68 331 311 92 214 313 7 
89 9 215 235 31 167 222 338 305 81 253 
90 8 16 205 207 340 71 294 13 110 
91 9 184 282 72 181 211 281 154 265 121 
92 9 257 311 331 214 239 204 68 78 88 
93 9 15 337 111 42 35 199 206 122 251 
94 9 317 229 347 241 120 10 275 158 118 
95 9 326 73 303 36 327 127 246 11 3 
96 8 291 186 165 339 289 63 321 269 
97 9 345 47 248 350 309 295 18 117 119 
98 9 203 267 274 67 249 308 108 125 302 
99 9 65 107 133 185 159 84 153 226 61 
100 6 244 200 146 276 34 213 
101 9 178 44 2 57 176 312 220 321 323 
102 4 349 268 252 70 
103 9 109 356 104 177 55 85 246 160 336 
104 9 103 85 109 177 356 304 55 26 263 
105 9 226 280 153 343 21 210 50 107 171 
106 8 270 64 17 299 191 316 344 124 
107 9 99 65 153 133 226 185 79 21 280 
108 8 234 308 98 274 203 267 67 249 
109 9 103 356 55 177 246 160 104 85 336 
110 9 78 204 239 340 245 71 311 92 205 
111 9 337 93 251 113 9 15 35 42 122 
112 9 155 250 131 130 63 66 339 289 186 
113 8 251 283 307 128 111 9 354 49 
114 9 225 53 228 188 134 209 336 118 315 
115 9 156 75 242 198 216 272 319 46 147 
116 9 40 14 46 138 75 136 115 51 216 
117 9 309 248 293 180 345 47 233 97 174 
118 9 83 229 275 158 94 209 188 27 258 
119 9 163 295 350 18 97 262 47 345 309 
120 9 212 236 241 317 10 41 94 293 183 
121 9 294 71 205 13 164 181 245 231 265 
122 9 144 35 206 129 190 77 355 332 217 
123 2 211 72 
124 8 37 169 150 232 148 230 56 299 
125 9 67 68 267 274 302 353 249 331 7 
126 8 221 192 38 238 240 310 292 247 
127 9 327 73 303 315 326 160 11 25 95 
128 8 283 307 149 113 243 49 59 145 
129 9 77 355 217 332 144 182 279 292 357 
130 9 250 131 112 155 63 210 289 66 259 
131 9 250 130 112 155 63 259 289 339 66 
132 9 189 196 140 80 4 218 162 242 138 
133 9 65 99 107 153 185 159 226 84 280 
134 9 228 53 336 315 160 188 209 327 127 
135 8 202 300 168 287 276 34 200 146 
136 9 23 61 51 138 84 159 69 116 14 
137 9 34 146 100 244 276 200 287 168 219 
138 9 189 196 23 61 136 84 132 116 75 
139 9 56 277 76 169 143 70 284 268 37 
140 9 4 80 162 357 132 279 147 218 319 
141 9 86 263 58 304 224 85 104 103 109 
142 9 320 9 197 354 352 122 251 30 337 
143 9 333 148 318 344 139 56 169 273 124 
144 9 122 129 190 355 77 35 332 292 206 
145 9 59 151 243 157 314 49 172 149 161 
146 7 34 276 200 287 244 100 137 
147 9 319 279 80 4 272 242 140 75 198 
148 9 344 143 124 318 37 169 333 56 139 
149 7 243 342 172 59 128 145 283 
150 8 232 37 230 124 5 169 299 175 
151 9 49 161 157 145 54 8 59 314 30 
152 9 36 246 177 55 95 356 326 73 8 
153 9 226 280 107 343 65 21 133 99 79 
154 9 24 184 282 348 233 33 183 180 91 
155 9 112 66 63 131 339 186 250 289 165 
156 9 115 216 198 75 242 272 247 46 286 
157 9 161 8 151 314 223 145 49 52 54 
158 7 83 229 347 118 27 258 94 
159 9 185 84 61 23 99 136 138 69 189 
160 9 327 73 127 55 326 356 303 315 134 
161 9 151 157 54 49 8 30 145 314 354 
162 9 357 140 4 218 324 217 182 80 279 
163 9 119 295 350 18 47 97 262 345 41 
164 9 348 245 121 233 239 71 154 78 257 
165 8 96 186 291 339 321 269 289 66 
166 9 324 218 182 357 199 162 79 206 217 
167 7 89 194 215 266 222 31 351 
168 8 300 135 202 287 34 276 146 200 
169 9 37 56 124 230 150 175 284 5 70 
170 9 45 262 39 295 173 119 97 163 227 
171 8 256 50 271 290 259 219 289 291 
172 6 243 342 59 149 145 123 
173 9 39 227 174 6 313 88 248 45 214 
174 8 248 173 345 227 214 97 117 6 
175 9 5 284 230 70 252 169 150 37 56 
176 9 2 57 178 101 312 44 220 321 269 
177 9 246 356 55 152 103 109 36 104 160 
178 9 101 44 2 57 176 312 220 321 323 
179 5 314 52 223 297 145 
180 9 233 183 348 117 24 236 293 309 154 
181 9 265 13 43 231 294 91 121 328 322 
182 9 324 357 217 162 77 166 129 218 355 
183 9 236 24 180 233 33 154 330 212 241 
184 9 282 91 281 72 154 211 24 33 181 
185 9 159 84 99 61 23 65 136 138 107 
186 8 339 96 165 291 289 66 63 321 
187 9 288 29 346 285 316 270 17 237 64 
188 9 209 53 134 315 27 254 258 114 228 
189 9 196 132 138 80 140 242 4 75 218 
190 9 292 240 144 332 355 129 77 122 38 
191 5 299 232 150 124 37 
192 8 126 221 240 38 238 292 190 310 
193 9 273 20 261 318 333 237 48 143 285 
194 9 266 14 51 167 69 136 116 40 351 
195 8 301 335 16 207 90 234 108 28 
196 9 189 132 138 80 242 75 140 4 319 
197 9 352 30 152 54 8 354 161 36 157 
198 9 272 156 115 216 310 319 75 242 147 
199 9 206 42 35 166 182 324 15 79 129 
200 6 276 244 287 100 146 34 
201 9 351 40 286 46 247 216 116 156 115 
202 7 135 300 287 168 276 200 34 
203 9 98 267 67 249 274 125 308 302 7 
204 9 78 239 110 245 92 311 257 331 68 
205 9 71 121 294 340 90 110 13 16 78 
206 9 35 199 182 42 122 129 77 144 324 
207 9 16 90 231 13 294 43 205 328 71 
208 7 62 87 76 277 139 268 56 
209 9 188 53 27 315 254 258 134 83 25 
210 9 105 131 50 250 130 259 171 256 63 
211 7 72 123 281 322 282 91 184 
212 9 120 236 293 241 183 41 180 47 309 
213 6 323 269 220 321 312 57 
214 8 257 92 311 88 331 239 6 68 
215 8 89 235 31 338 222 305 81 253 
216 9 156 115 247 286 46 198 75 272 242 
217 9 77 129 355 182 162 357 279 332 4 
218 9 357 162 324 140 166 132 4 182 80 
219 9 256 271 290 171 100 244 137 50 146 
220 8 312 269 321 323 57 2 176 178 
221 8 126 238 192 38 240 310 247 292 
222 3 31 253 338 
223 9 52 314 157 8 179 297 95 3 11 
224 9 263 86 26 104 141 12 85 304 103 
225 9 114 53 228 188 134 209 336 118 275 
226 9 153 280 343 21 107 105 79 65 133 
227 9 173 39 313 6 88 174 353 7 214 
228 9 336 134 53 114 188 160 209 315 225 
229 9 94 118 158 83 275 317 347 241 10 
230 9 5 175 284 150 70 37 232 169 252 
231 9 43 13 265 181 294 328 207 121 205 
232 6 150 299 230 37 124 191 
233 8 348 180 117 183 154 164 24 309 
234 8 108 308 98 274 203 267 67 335 
235 7 215 81 305 338 31 89 253 
236 9 183 212 241 120 24 180 293 330 33 
237 9 285 20 193 273 346 48 261 288 318 
238 8 221 126 247 286 38 216 310 192 
239 9 204 78 245 92 110 257 311 331 214 
240 9 292 190 38 332 310 355 144 77 129 
241 9 347 236 330 120 212 33 183 24 94 
242 9 75 115 319 156 147 80 198 272 196 
243 6 172 59 149 342 145 151 
244 6 100 200 146 276 34 213 
245 9 239 78 204 110 257 92 71 164 311 
246 9 55 356 177 152 36 73 326 95 160 
247 9 216 286 156 198 46 115 272 310 238 
248 8 345 174 117 309 97 47 293 180 
249 9 67 203 302 267 7 98 125 274 353 
250 9 131 130 112 155 63 289 259 66 339 
251 9 113 9 111 283 128 354 307 54 49 
252 9 349 70 284 175 268 5 230 102 325 
253 3 338 31 222 
254 9 258 27 25 3 11 297 315 209 127 
255 6 296 329 12 264 316 17 
256 8 171 50 271 290 259 219 289 100 
257 8 92 214 311 239 204 245 331 78 
258 9 27 254 25 209 3 11 83 297 188 
259 9 289 290 271 50 63 171 256 291 96 
260 9 10 41 317 120 212 94 18 350 275 
261 9 193 273 333 318 48 143 20 76 148 
262 9 170 295 119 45 97 163 345 39 173 
263 9 86 141 224 104 304 85 58 103 26 
264 5 329 64 191 17 316 
265 9 181 43 231 13 328 294 322 91 121 
266 9 14 194 51 116 40 351 136 201 46 
267 9 274 67 98 203 249 125 308 302 7 
268 7 349 252 70 102 284 175 5 
269 7 321 220 312 323 57 213 165 
270 9 17 64 106 316 29 299 191 344 329 
271 8 290 171 256 259 50 213 100 219 
272 9 198 310 319 147 156 115 242 279 75 
273 9 193 318 20 333 261 143 344 148 237 
274 8 267 98 67 308 203 125 249 108 
275 9 118 229 94 317 83 10 158 347 260 
276 7 287 200 34 146 244 100 202 
277 8 76 87 139 268 208 56 349 70 
278 8 22 60 19 82 32 298 334 307 
279 9 147 319 4 80 140 217 272 332 162 
280 9 343 226 153 21 79 107 105 65 99 
281 9 282 72 184 341 33 211 330 91 24 
282 9 184 281 91 72 154 33 211 24 330 
283 8 307 128 113 149 251 243 60 342 
284 9 70 175 5 252 230 56 169 349 268 
285 9 237 20 193 346 273 288 48 318 187 
286 9 46 247 216 156 115 201 198 40 351 
287 7 276 200 300 202 34 146 168 
288 9 346 187 29 285 237 20 270 316 17 
289 8 339 63 186 96 291 165 66 259 
290 8 271 171 256 259 50 213 291 100 
291 8 96 165 186 339 289 321 269 63 
292 9 240 190 332 38 355 310 77 129 144 
293 9 309 47 117 212 18 236 180 350 183 
294 9 13 121 231 205 71 181 43 265 90 
295 9 119 163 262 350 97 18 345 47 170 
296 8 12 255 316 329 224 264 17 29 
297 9 3 11 25 254 52 303 179 223 258 
298 7 334 328 43 322 19 60 231 
299 5 191 232 150 124 37 
300 8 168 135 202 287 276 34 146 200 
301 8 195 335 16 207 234 90 108 28 
302 9 7 249 67 353 125 68 267 203 331 
303 9 326 127 73 95 11 327 3 25 315 
304 9 85 104 58 86 336 103 141 263 109 
305 4 81 338 253 102 
306 4 325 5 175 252 
307 8 283 128 113 149 60 251 243 342 
308 8 274 108 98 267 203 67 234 125 
309 9 117 47 293 345 248 97 180 350 18 
310 9 272 38 198 147 156 319 292 279 115 
311 9 92 331 68 257 204 353 239 88 214 
312 9 220 321 57 269 323 2 176 178 101 
313 9 6 227 7 88 302 353 68 331 173 
314 9 223 52 157 179 145 8 151 59 161 
315 9 127 25 327 11 3 303 254 73 134 
316 9 17 64 270 106 329 29 264 191 299 
317 9 94 10 120 229 241 275 347 212 260 
318 9 333 143 273 148 344 193 20 261 139 
319 9 147 242 279 80 272 75 4 198 115 
320 9 142 197 352 9 26 30 354 192 54 
321 8 269 312 220 57 323 165 176 2 
322 8 211 265 181 72 43 328 91 123 
323 7 220 269 312 321 213 57 178 
324 9 182 357 166 162 218 217 140 4 199 
325 6 306 5 252 175 230 70 
326 9 95 73 303 327 127 36 160 11 246 
327 9 127 73 160 303 326 315 95 55 11 
328 9 43 231 265 13 181 322 207 294 334 
329 6 264 316 64 17 255 191 
330 9 33 24 241 341 281 183 236 347 154 
331 9 68 311 353 92 88 125 257 204 214 
332 9 355 77 292 129 217 279 190 240 147 
333 9 143 318 148 273 344 139 261 193 56 
334 9 298 328 43 19 207 231 265 13 322 
335 8 301 195 234 108 28 16 308 90 
336 9 228 134 85 160 109 53 114 103 304 
337 9 111 93 15 35 122 42 9 206 251 
338 5 305 81 253 31 102 
339 8 186 96 289 291 165 63 66 321 
340 8 110 71 205 78 90 204 239 16 
341 5 281 330 33 72 282 
342 6 172 243 149 59 145 123 
343 9 280 21 226 79 153 107 105 166 42 
344 9 148 143 318 124 333 37 169 273 56 
345 9 97 248 309 47 117 350 174 18 295 
346 9 288 187 285 29 237 20 270 193 17 
347 9 241 94 158 330 229 33 341 317 120 
348 8 233 164 180 154 117 183 24 245 
349 7 252 268 102 70 284 175 5 
350 9 18 47 163 119 97 295 345 309 293 
351 9 201 40 46 286 116 247 216 14 156 
352 9 197 30 152 54 8 161 354 36 157 
353 9 68 331 88 7 302 311 125 6 92 
354 9 54 30 49 161 151 352 197 157 8 
355 9 77 129 332 217 144 182 279 292 190 
356 9 55 109 246 103 177 160 73 327 152 
357 9 162 324 218 140 182 4 217 80 279 
DEPOT_SECTION
   1
   -1
EOF
