NAME :  X-n561-kX-w224-c7.cctp
COMMENT : 	Adapted by Maziero, Usberti and Cavellucci from the Uchoa, Pecin, Pessoa, Poggi, Subramanian, and Vidal (2013)
TYPE :  CCTP
DIMENSION :    521
EDGE_WEIGHT_TYPE : 	EUC_2D	
CAPACITY : 	74
VERTICES_WITHIN_COVERAGE :  7
VERTICES_WITH_DEMAND : 	224
NODE_COORD_SECTION
1 500 500
2 487 949
3 492 770
4 150 556
5 130 719
6 962 393
7 54 890
8 861 705
9 338 631
10 119 741
11 48 296
12 982 827
13 18 954
14 558 698
15 857 337
16 963 72
17 218 46
18 705 484
19 315 3
20 331 358
21 688 156
22 314 338
23 214 428
24 193 866
25 381 924
26 968 10
27 797 382
28 733 544
29 956 878
30 576 270
31 257 778
32 713 605
33 270 940
34 880 401
35 245 168
36 973 29
37 888 919
38 943 703
39 364 248
40 932 60
41 575 18
42 663 990
43 667 351
44 85 708
45 801 330
46 261 91
47 163 953
48 509 249
49 237 336
50 791 356
51 314 168
52 356 726
53 260 412
54 630 144
55 534 255
56 356 444
57 448 320
58 987 333
59 691 109
60 319 476
61 83 716
62 395 818
63 605 769
64 633 162
65 651 644
66 221 4
67 551 912
68 762 604
69 337 41
70 156 318
71 756 357
72 749 173
73 535 235
74 719 700
75 900 564
76 717 4
77 337 441
78 759 103
79 615 132
80 365 498
81 42 268
82 952 2
83 989 303
84 471 821
85 650 215
86 302 881
87 61 459
88 391 405
89 364 170
90 643 744
91 324 620
92 559 449
93 92 914
94 133 607
95 223 949
96 988 415
97 943 616
98 764 6
99 659 250
100 766 532
101 730 338
102 850 489
103 481 467
104 564 296
105 469 531
106 538 121
107 997 183
108 127 966
109 880 538
110 300 985
111 462 125
112 781 68
113 884 92
114 438 673
115 591 658
116 928 894
117 107 816
118 581 799
119 46 288
120 548 0
121 379 725
122 186 490
123 947 161
124 702 712
125 230 722
126 40 891
127 362 568
128 26 614
129 396 104
130 756 658
131 818 433
132 236 62
133 314 56
134 276 466
135 789 828
136 626 677
137 626 156
138 369 506
139 207 461
140 566 842
141 676 871
142 135 983
143 956 181
144 5 209
145 10 57
146 499 617
147 369 482
148 975 194
149 882 465
150 716 147
151 740 993
152 77 480
153 742 233
154 869 824
155 809 987
156 999 514
157 748 391
158 366 917
159 272 875
160 0 9
161 260 359
162 449 208
163 278 711
164 422 445
165 341 448
166 683 498
167 930 690
168 184 567
169 257 360
170 464 101
171 783 645
172 282 884
173 978 688
174 514 349
175 343 552
176 290 171
177 675 414
178 386 86
179 575 26
180 863 973
181 223 412
182 958 176
183 391 824
184 228 93
185 704 946
186 938 995
187 159 343
188 698 106
189 896 169
190 361 937
191 201 120
192 158 852
193 786 630
194 91 909
195 291 333
196 575 931
197 60 763
198 321 837
199 154 302
200 490 215
201 612 394
202 70 159
203 972 987
204 527 340
205 34 241
206 688 334
207 878 485
208 885 205
209 124 413
210 347 330
211 457 540
212 841 478
213 383 907
214 556 135
215 250 31
216 251 90
217 514 112
218 645 252
219 250 482
220 50 740
221 924 309
222 275 198
223 402 554
224 751 389
225 222 168
226 935 8
227 105 551
228 943 769
229 723 250
230 442 730
231 711 917
232 794 873
233 440 930
234 25 735
235 550 461
236 95 780
237 905 187
238 38 560
239 610 303
240 635 599
241 266 273
242 160 961
243 610 199
244 761 276
245 568 865
246 397 721
247 423 983
248 239 847
249 330 653
250 307 662
251 81 59
252 357 955
253 123 426
254 28 874
255 820 222
256 228 758
257 972 613
258 776 209
259 577 160
260 293 429
261 852 781
262 343 789
263 492 948
264 823 661
265 193 141
266 602 498
267 412 553
268 415 158
269 382 42
270 1 486
271 382 334
272 497 141
273 251 476
274 70 672
275 154 539
276 822 847
277 915 235
278 681 808
279 972 28
280 717 124
281 619 669
282 240 554
283 847 459
284 515 845
285 625 873
286 308 612
287 803 434
288 592 840
289 879 454
290 784 7
291 287 625
292 442 982
293 844 461
294 324 736
295 505 739
296 668 124
297 966 56
298 648 984
299 705 165
300 771 758
301 643 891
302 754 167
303 529 232
304 835 623
305 649 742
306 864 278
307 379 515
308 152 618
309 530 125
310 748 966
311 794 447
312 441 116
313 495 888
314 734 107
315 623 131
316 842 466
317 557 697
318 419 952
319 987 50
320 692 664
321 626 817
322 887 426
323 675 757
324 853 362
325 246 660
326 194 527
327 644 895
328 246 544
329 672 902
330 619 709
331 164 411
332 943 552
333 288 411
334 655 956
335 720 138
336 743 460
337 660 568
338 886 352
339 375 573
340 488 528
341 868 505
342 561 673
343 856 126
344 900 17
345 871 351
346 544 696
347 459 776
348 541 257
349 885 418
350 556 622
351 443 205
352 559 106
353 840 180
354 715 74
355 103 373
356 879 347
357 819 389
358 833 434
359 831 507
360 589 695
361 865 351
362 202 605
363 815 96
364 843 150
365 197 668
366 791 305
367 574 826
368 733 935
369 807 679
370 468 732
371 609 656
372 666 76
373 568 205
374 802 286
375 712 80
376 218 449
377 914 624
378 537 863
379 862 484
380 336 666
381 62 678
382 995 86
383 737 314
384 851 39
385 649 895
386 278 480
387 743 173
388 909 106
389 407 905
390 662 941
391 234 442
392 984 38
393 584 667
394 624 9
395 690 580
396 725 65
397 821 470
398 926 460
399 779 78
400 871 94
401 560 796
402 616 675
403 973 189
404 699 19
405 989 17
406 786 720
407 679 710
408 290 543
409 887 516
410 828 401
411 633 696
412 702 64
413 816 442
414 501 973
415 567 951
416 653 134
417 605 770
418 465 620
419 914 529
420 810 491
421 173 471
422 914 548
423 803 366
424 860 113
425 736 168
426 459 508
427 723 145
428 723 696
429 644 653
430 478 427
431 694 521
432 191 588
433 663 791
434 659 188
435 700 411
436 677 609
437 731 580
438 610 105
439 548 155
440 103 585
441 363 542
442 909 473
443 501 937
444 981 71
445 563 789
446 842 508
447 706 155
448 904 130
449 543 567
450 951 14
451 583 963
452 803 5
453 997 36
454 163 492
455 117 572
456 570 35
457 538 21
458 789 108
459 119 667
460 186 678
461 935 216
462 68 669
463 494 839
464 92 755
465 598 137
466 246 562
467 822 278
468 521 156
469 31 373
470 518 956
471 304 521
472 918 124
473 949 54
474 905 132
475 595 694
476 882 445
477 753 45
478 206 365
479 959 557
480 983 471
481 712 137
482 818 383
483 662 684
484 615 759
485 717 11
486 637 657
487 807 419
488 389 951
489 757 185
490 294 482
491 475 464
492 725 970
493 566 971
494 714 5
495 588 715
496 782 808
497 891 415
498 614 647
499 688 869
500 763 96
501 205 708
502 885 493
503 273 424
504 536 88
505 972 618
506 994 28
507 475 786
508 993 34
509 847 29
510 601 7
511 743 509
512 481 877
513 654 629
514 829 429
515 562 686
516 797 386
517 194 570
518 712 142
519 681 104
520 38 680
521 606 919
DEMAND_SECTION
2 9
3 7
4 5
5 5
6 8
7 1
8 2
9 6
10 8
11 2
12 6
13 7
14 8
15 8
16 5
17 3
18 4
19 2
20 8
21 6
22 3
23 3
24 4
25 4
26 8
27 8
28 10
29 1
30 1
31 9
32 9
33 10
34 10
35 5
36 5
37 6
38 4
39 9
40 3
41 8
42 4
43 5
44 9
45 4
46 9
47 1
48 7
49 8
50 4
51 5
52 9
53 3
54 8
55 6
56 6
57 8
58 6
59 8
60 6
61 10
62 3
63 9
64 8
65 6
66 6
67 4
68 3
69 7
70 4
71 6
72 10
73 7
74 2
75 7
76 5
77 4
78 3
79 8
80 1
81 1
82 5
83 8
84 2
85 9
86 6
87 10
88 8
89 1
90 6
91 2
92 4
93 7
94 3
95 9
96 9
97 6
98 8
99 3
100 5
101 6
102 8
103 4
104 3
105 9
106 4
107 7
108 1
109 8
110 9
111 2
112 8
113 6
114 1
115 9
116 2
117 5
118 7
119 7
120 2
121 10
122 4
123 8
124 9
125 2
126 9
127 2
128 5
129 7
130 3
131 9
132 8
133 6
134 4
135 8
136 4
137 8
138 6
139 3
140 3
141 5
142 5
143 5
144 10
145 8
146 6
147 7
148 7
149 2
150 1
151 10
152 1
153 9
154 3
155 3
156 10
157 6
158 1
159 10
160 6
161 3
162 3
163 10
164 8
165 6
166 2
167 9
168 5
169 1
170 1
171 2
172 8
173 7
174 2
175 9
176 9
177 5
178 3
179 8
180 2
181 8
182 6
183 3
184 5
185 4
186 7
187 5
188 1
189 10
190 8
191 7
192 5
193 10
194 4
195 4
196 2
197 7
198 1
199 1
200 8
201 2
202 3
203 1
204 2
205 3
206 9
207 9
208 5
209 9
210 7
211 2
212 4
213 6
214 1
215 7
216 6
217 10
218 10
219 2
220 10
221 3
222 8
223 5
224 2
225 3
COVERAGE_SECTION
2 6 263 443 414 470 233 292 
3 7 507 295 347 370 84 230 463 
4 7 275 168 455 227 517 432 326 
5 7 10 44 61 464 459 460 236 
6 5 96 58 497 398 349 
7 7 126 254 194 93 13 117 108 
8 7 264 369 167 406 261 38 304 
9 7 91 249 380 286 250 291 127 
10 7 5 464 61 236 44 197 220 
11 7 119 81 205 469 355 144 199 
12 7 29 228 116 154 38 37 261 
13 7 126 7 254 93 194 108 142 
14 7 317 515 346 342 360 495 475 
15 7 361 345 356 324 338 45 306 
16 7 297 444 473 40 319 382 392 
17 7 132 215 66 184 216 46 191 
18 7 166 431 336 511 28 435 177 
19 7 69 133 215 269 66 132 46 
20 7 22 210 195 271 333 161 169 
21 7 447 299 518 150 481 335 427 
22 7 195 20 210 161 169 271 49 
23 7 181 376 391 139 53 331 421 
24 7 192 248 159 95 172 47 117 
25 7 158 213 190 488 389 252 318 
26 7 450 82 279 36 405 392 506 
27 7 516 423 482 357 50 410 487 
28 7 100 437 511 431 395 32 18 
29 7 116 12 37 154 203 228 186 
30 7 104 348 55 239 73 303 373 
31 7 256 125 163 248 294 198 262 
32 7 437 395 436 68 320 28 513 
33 7 95 110 172 159 86 252 190 
34 5 349 497 322 476 324 
35 7 225 222 176 265 191 51 184 
36 7 279 392 26 405 506 508 319 
37 7 116 180 29 186 154 276 155 
38 7 167 173 228 8 377 97 505 
39 7 89 210 271 351 51 162 241 
40 7 473 16 297 444 450 36 279 
41 6 179 456 510 120 457 394 
42 3 298 334 390 
43 7 206 101 177 435 201 239 383 
44 7 61 381 274 462 5 10 220 
45 7 366 50 423 374 27 71 15 
46 7 216 184 132 215 17 133 191 
47 7 242 108 142 95 93 194 24 
48 7 55 303 73 348 200 30 104 
49 7 169 161 478 195 241 22 181 
50 7 423 27 45 516 71 482 357 
51 7 176 222 89 35 225 46 39 
52 7 121 294 246 380 262 249 163 
53 7 503 333 181 260 391 23 169 
54 6 137 315 64 79 416 465 
55 7 348 73 303 48 30 104 200 
56 7 165 77 147 60 88 80 138 
57 7 271 174 204 48 210 88 55 
58 7 83 6 221 96 338 356 345 
59 6 188 519 296 280 481 375 
60 7 490 165 77 386 134 471 56 
61 7 44 464 220 381 10 274 5 
62 7 183 262 84 198 347 507 389 
63 7 417 484 118 90 445 305 321 
64 7 137 54 315 416 79 434 465 
65 7 429 513 486 498 136 281 483 
66 7 215 17 132 184 216 19 46 
67 7 196 415 245 378 470 521 443 
68 7 193 437 171 32 130 28 100 
69 7 133 19 269 178 129 215 46 
70 7 199 187 478 355 49 331 209 
71 7 101 224 50 157 383 27 423 
72 7 387 302 425 489 427 150 258 
73 7 303 55 348 48 373 200 30 
74 7 428 124 407 320 130 483 406 
75 7 422 109 419 332 409 479 377 
76 7 494 485 404 98 477 396 412 
77 7 165 56 60 260 147 333 490 
78 7 500 314 458 399 112 280 396 
79 6 315 465 54 137 438 64 
80 7 138 147 307 441 60 56 165 
81 7 119 205 11 144 469 202 199 
82 7 450 26 226 279 36 405 392 
83 7 58 221 6 277 461 148 96 
84 7 463 507 347 284 3 512 313 
85 7 434 99 218 243 64 137 21 
86 7 172 159 198 33 248 158 190 
87 7 152 270 253 209 469 355 227 
88 7 164 56 77 165 271 20 147 
89 7 51 268 129 176 39 351 178 
90 7 305 484 323 330 63 417 411 
91 7 9 286 249 291 250 380 127 
92 7 235 266 201 103 430 491 340 
93 7 194 7 126 108 254 47 142 
94 7 308 440 455 4 432 459 227 
95 7 33 47 242 110 24 172 159 
96 4 6 480 398 58 
97 7 257 505 377 479 332 75 422 
98 7 290 452 477 76 485 494 112 
99 7 218 85 434 229 243 239 30 
100 7 511 28 437 420 359 68 431 
101 7 383 71 206 224 157 43 50 
102 7 379 212 446 316 341 359 207 
103 7 491 430 426 340 164 105 235 
104 7 30 348 239 55 204 73 48 
105 7 211 340 426 267 103 491 223 
106 7 309 214 217 352 504 439 468 
107 7 148 403 182 143 123 461 237 
108 7 142 242 47 93 194 95 7 
109 7 409 75 341 419 422 502 446 
110 7 33 252 190 95 158 488 25 
111 7 312 170 272 217 268 468 309 
112 7 399 500 477 78 458 363 396 
113 7 400 388 424 448 343 474 472 
114 7 230 418 246 370 121 146 295 
115 7 393 371 498 281 402 342 475 
116 7 29 37 12 154 186 180 203 
117 7 236 192 464 197 10 7 194 
118 7 401 445 367 63 417 288 140 
119 7 11 81 205 469 144 355 199 
120 6 457 41 179 456 510 394 
121 7 246 52 294 230 262 380 114 
122 7 421 454 139 326 376 275 219 
123 7 182 143 403 148 472 237 474 
124 7 74 407 428 320 483 323 305 
125 7 501 256 163 31 460 365 325 
126 7 7 254 194 93 13 117 108 
127 7 339 175 441 223 267 307 138 
128 7 238 520 462 274 381 440 455 
129 7 178 312 268 269 170 111 89 
130 7 171 193 428 68 369 74 320 
131 7 413 514 287 358 487 311 410 
132 7 17 184 216 215 46 66 191 
133 7 69 19 46 215 269 216 132 
134 7 386 490 273 219 260 503 60 
135 7 496 276 232 300 261 154 406 
136 7 402 281 411 486 371 429 498 
137 7 64 54 315 79 465 416 243 
138 7 80 307 147 441 175 60 223 
139 7 376 391 23 421 122 273 219 
140 7 367 245 288 378 118 401 284 
141 7 499 329 385 301 327 285 231 
142 7 108 242 47 93 194 95 13 
143 7 182 403 123 148 107 461 237 
144 7 205 81 202 119 11 145 469 
145 7 160 251 202 144 205 191 265 
146 7 418 350 449 114 342 211 340 
147 7 80 138 307 56 165 60 77 
148 7 403 143 107 182 123 461 237 
149 6 289 207 476 379 442 502 
150 7 518 427 335 481 447 299 280 
151 7 492 310 368 185 155 42 231 
152 7 87 253 227 270 209 454 238 
153 6 229 258 244 489 72 387 
154 7 261 276 135 496 232 116 228 
155 7 180 310 151 492 368 37 185 
156 3 480 479 332 
157 7 224 71 516 27 435 50 101 
158 7 25 213 190 252 488 389 318 
159 7 172 86 248 198 33 24 95 
160 7 145 251 202 144 17 66 191 
161 7 169 49 195 53 478 22 333 
162 7 351 200 268 48 272 111 303 
163 7 125 294 250 325 256 31 380 
164 7 88 491 430 103 147 56 426 
165 7 77 56 60 147 260 80 490 
166 7 431 18 511 28 336 337 266 
167 7 38 173 377 8 97 228 505 
168 7 517 432 4 275 326 362 282 
169 7 161 49 195 478 53 333 22 
170 7 111 312 217 272 129 309 504 
171 7 193 130 369 264 68 304 406 
172 7 159 86 33 248 198 95 158 
173 7 38 167 505 257 97 228 377 
174 7 204 57 104 430 55 348 30 
175 7 441 127 339 471 307 138 408 
176 7 51 222 35 225 89 46 216 
177 7 435 43 201 18 157 224 206 
178 7 129 269 312 69 133 268 170 
179 5 41 456 510 120 457 
180 7 155 37 186 116 203 310 232 
181 7 23 391 53 376 478 503 139 
182 7 143 123 403 148 107 461 237 
183 7 62 262 198 84 213 347 389 
184 7 216 132 46 191 17 265 215 
185 7 231 368 492 390 310 334 329 
186 7 203 180 37 116 29 155 12 
187 7 70 199 478 355 331 49 209 
188 7 59 519 280 375 481 296 314 
189 7 237 208 474 448 472 123 364 
190 7 252 158 25 488 213 389 318 
191 7 265 184 225 216 35 46 132 
192 7 24 117 248 194 93 236 47 
193 7 171 68 130 264 304 369 437 
194 7 93 7 126 108 254 47 13 
195 7 22 161 169 20 49 210 241 
196 5 415 67 451 521 493 
197 7 220 464 236 234 61 44 10 
198 7 86 262 172 159 183 62 248 
199 7 70 187 478 355 49 11 119 
200 7 48 162 303 351 73 55 348 
201 7 177 43 92 435 235 239 206 
202 7 144 205 251 81 145 265 119 
203 7 186 116 37 29 180 12 155 
204 7 174 104 57 348 30 55 239 
205 7 81 144 119 11 202 469 199 
206 7 43 101 383 71 435 177 157 
207 7 502 379 149 341 102 289 409 
208 7 237 189 277 353 461 255 364 
209 7 253 331 355 421 87 187 152 
210 7 20 22 271 195 39 88 161 
211 7 105 426 340 267 223 103 491 
212 7 316 102 293 283 379 397 446 
213 7 25 158 389 190 488 252 318 
214 7 439 106 309 352 259 468 465 
215 7 132 17 66 216 46 184 133 
216 7 46 184 132 17 191 215 133 
217 7 309 106 504 272 352 468 214 
218 7 99 85 239 243 434 30 229 
219 7 273 386 134 391 490 376 139 
220 7 197 234 61 464 44 236 520 
221 7 338 356 83 58 306 345 361 
222 7 176 35 51 225 241 89 265 
223 7 267 339 441 127 307 211 138 
224 7 157 71 516 27 50 101 435 
225 7 35 265 191 222 176 184 216 
226 7 450 82 26 344 279 36 473 
227 7 455 440 4 275 94 238 152 
228 7 38 12 167 173 154 261 8 
229 7 153 244 99 383 258 489 218 
230 7 370 246 347 114 121 3 295 
231 7 368 185 329 499 390 492 141 
232 7 276 135 496 368 154 231 310 
233 7 318 389 2 292 263 488 247 
234 7 220 197 520 61 44 381 464 
235 7 92 266 103 491 430 201 340 
236 7 464 117 197 10 220 61 5 
237 7 189 208 461 123 277 143 182 
238 7 128 227 440 455 270 152 87 
239 7 30 104 218 99 43 348 206 
240 6 513 337 436 65 498 429 
241 7 195 49 222 22 161 169 210 
242 7 47 108 142 95 93 194 24 
243 7 373 85 64 137 434 259 54 
244 6 366 374 383 229 153 467 
245 6 140 378 288 367 67 284 
246 7 121 52 230 114 370 294 380 
247 7 292 318 488 233 2 25 252 
248 7 159 24 172 31 86 192 198 
249 7 380 9 250 91 286 291 52 
250 7 249 380 291 9 91 286 163 
251 7 145 160 202 191 17 265 66 
252 7 190 488 25 158 213 318 110 
253 7 209 331 355 421 87 152 454 
254 7 126 7 194 93 13 117 236 
255 5 258 353 467 374 208 
256 7 31 125 501 163 248 460 365 
257 7 505 97 479 377 332 173 75 
258 5 489 153 72 255 302 
259 7 439 465 214 373 79 137 243 
260 7 333 503 53 134 77 165 386 
261 7 154 276 496 8 135 300 406 
262 7 198 294 183 62 52 121 31 
263 6 2 443 414 470 233 292 
264 7 369 304 171 193 8 130 406 
265 7 191 225 35 184 216 46 132 
266 6 235 92 166 337 449 431 
267 7 223 339 211 307 441 127 105 
268 7 312 89 351 111 129 162 170 
269 7 178 69 129 133 19 312 170 
270 7 87 152 238 469 227 128 253 
271 7 210 20 57 22 88 39 195 
272 7 468 217 309 111 106 170 439 
273 7 219 134 386 391 376 490 139 
274 7 462 381 520 44 61 459 220 
275 7 4 168 326 454 227 455 517 
276 7 135 232 154 496 261 37 300 
277 7 461 208 237 306 143 189 148 
278 7 433 323 321 499 141 305 90 
279 7 36 392 26 405 506 508 450 
280 7 335 481 518 427 150 314 188 
281 7 402 136 371 486 498 115 411 
282 6 466 328 517 408 326 168 
283 6 293 316 212 397 358 379 
284 7 463 378 313 512 84 140 245 
285 6 301 327 385 288 521 141 
286 6 91 291 9 249 250 380 
287 7 131 413 311 487 514 358 397 
288 6 367 140 245 321 118 285 
289 4 476 149 322 207 
290 7 452 98 477 112 76 485 509 
291 6 286 91 250 9 249 325 
292 7 247 318 233 2 263 414 488 
293 6 283 316 212 397 102 358 
294 7 52 163 121 262 380 246 250 
295 7 3 370 507 346 347 230 14 
296 4 416 519 59 188 
297 7 16 473 444 319 392 36 279 
298 2 42 334 
299 7 447 21 150 518 427 481 335 
300 7 406 496 135 74 428 124 261 
301 6 327 385 285 329 141 521 
302 7 72 387 425 489 427 150 335 
303 7 73 55 48 348 200 373 30 
304 7 264 193 171 369 68 377 8 
305 7 90 323 484 407 330 411 433 
306 7 467 15 374 277 221 255 356 
307 7 138 80 441 147 223 267 175 
308 5 94 432 362 455 440 
309 7 106 217 214 468 352 439 272 
310 7 492 151 368 185 231 155 42 
311 7 287 413 131 487 397 514 358 
312 7 111 170 129 268 272 178 217 
313 7 512 284 378 443 463 263 67 
314 7 280 78 500 335 375 188 481 
315 6 79 54 137 465 438 416 
316 6 293 283 212 397 102 379 
317 7 14 515 346 342 360 495 475 
318 7 233 488 247 292 25 389 213 
319 7 392 453 508 297 444 506 36 
320 7 483 74 428 65 407 124 429 
321 7 288 433 118 417 63 367 278 
322 5 349 497 476 34 289 
323 7 305 90 433 407 278 124 484 
324 7 361 345 15 356 338 482 357 
325 5 365 291 163 250 460 
326 7 122 168 275 517 454 4 282 
327 5 301 385 285 329 141 
328 6 282 466 408 326 517 219 
329 7 385 327 141 301 499 390 231 
330 7 411 475 495 136 360 402 281 
331 7 209 253 23 181 421 478 139 
332 5 479 422 419 75 97 
333 7 260 503 53 134 77 161 169 
334 3 390 298 42 
335 7 427 481 518 150 280 447 299 
336 7 18 511 311 287 435 157 166 
337 6 395 240 436 431 513 32 
338 7 356 345 361 15 324 34 221 
339 7 127 223 441 175 267 307 138 
340 7 105 211 426 103 491 449 267 
341 7 502 207 379 409 102 446 109 
342 7 515 317 393 14 346 115 360 
343 7 424 364 400 113 448 474 363 
344 7 226 450 40 82 384 509 473 
345 7 361 356 338 15 324 34 482 
346 7 317 14 515 342 360 495 393 
347 7 507 3 370 84 230 295 463 
348 7 55 73 303 48 30 104 373 
349 5 497 322 34 476 289 
350 6 115 342 393 146 449 371 
351 7 162 200 268 48 111 272 89 
352 6 106 214 504 309 217 439 
353 5 364 255 208 343 189 
354 7 375 396 412 188 314 59 519 
355 7 209 253 187 331 469 70 199 
356 7 338 345 361 15 324 34 221 
357 7 482 410 516 27 423 487 514 
358 7 514 131 413 283 293 287 487 
359 7 446 102 420 212 341 397 379 
360 7 475 495 393 515 14 317 330 
361 7 345 356 15 324 338 34 482 
362 4 432 517 168 308 
363 7 458 399 112 424 343 500 78 
364 7 343 353 424 189 363 400 448 
365 5 460 501 325 125 362 
366 7 374 45 467 244 50 383 423 
367 7 140 288 118 401 245 445 378 
368 7 231 185 310 492 151 329 390 
369 7 264 171 406 193 130 8 304 
370 7 230 295 3 347 507 114 246 
371 7 498 281 115 402 136 393 486 
372 3 519 412 59 
373 7 243 73 259 303 439 348 55 
374 6 366 467 244 45 306 255 
375 7 354 412 396 188 314 59 519 
376 7 139 391 23 181 273 219 421 
377 7 97 505 257 75 167 422 332 
378 7 284 245 140 313 463 67 367 
379 7 102 207 212 341 502 316 149 
380 7 249 250 9 91 286 52 291 
381 7 274 462 520 44 61 459 220 
382 7 444 16 319 297 392 453 508 
383 7 101 244 71 206 366 45 229 
384 7 509 344 400 452 113 363 290 
385 6 327 301 329 285 141 499 
386 7 134 490 273 219 60 471 260 
387 7 72 425 302 489 427 150 299 
388 7 472 448 474 113 400 424 40 
389 7 213 25 233 158 318 488 190 
390 5 334 329 185 298 385 
391 7 376 23 181 139 273 53 219 
392 7 508 319 453 36 506 279 405 
393 7 115 342 371 360 475 515 402 
394 2 510 41 
395 7 337 436 32 437 28 240 431 
396 7 354 375 412 477 314 188 500 
397 7 316 212 420 293 283 413 102 
398 3 442 149 476 
399 7 112 500 78 458 363 477 314 
400 7 113 424 343 388 448 474 363 
401 7 445 118 367 140 63 417 288 
402 7 281 136 371 411 475 486 498 
403 7 148 143 182 107 123 461 237 
404 5 485 494 76 412 396 
405 7 506 508 36 279 453 26 392 
406 7 300 369 428 130 74 264 171 
407 7 124 483 74 305 428 323 320 
408 6 471 328 466 282 175 490 
409 6 341 109 502 419 207 379 
410 7 357 482 487 514 358 131 516 
411 7 330 136 402 281 483 475 486 
412 6 354 375 396 372 188 404 
413 7 131 287 514 358 311 487 397 
414 6 470 263 2 443 292 493 
415 4 451 493 196 67 
416 4 296 54 315 64 
417 7 63 484 118 90 445 321 305 
418 7 146 114 211 267 105 223 350 
419 5 422 409 109 332 75 
420 7 397 359 212 446 102 316 293 
421 7 122 454 139 376 23 326 331 
422 6 419 75 332 109 409 479 
423 7 50 27 516 482 357 45 410 
424 7 343 400 113 364 448 363 388 
425 7 387 72 302 427 489 150 299 
426 7 105 211 340 103 491 267 164 
427 7 150 335 518 481 447 280 425 
428 7 74 124 320 407 130 483 406 
429 7 486 65 513 136 281 498 371 
430 7 491 103 164 235 426 92 174 
431 7 166 18 28 511 337 395 437 
432 6 517 362 168 308 4 282 
433 7 278 323 321 90 305 484 63 
434 7 85 64 21 137 243 299 54 
435 7 177 157 224 336 43 18 71 
436 7 513 395 32 240 65 337 429 
437 7 32 28 68 395 100 436 431 
438 3 79 315 465 
439 7 214 468 259 106 309 352 272 
440 7 455 227 94 4 308 275 238 
441 7 175 127 307 339 138 223 80 
442 4 398 149 502 207 
443 6 263 2 470 414 313 67 
444 7 16 297 382 319 392 473 453 
445 7 401 118 367 417 63 140 288 
446 7 359 102 341 212 379 420 316 
447 7 299 150 518 21 481 427 335 
448 7 474 472 388 189 113 424 343 
449 6 350 146 340 105 211 266 
450 7 82 26 226 279 36 405 473 
451 3 493 415 196 
452 7 290 98 509 384 477 112 399 
453 7 508 506 392 319 405 36 279 
454 7 122 421 326 275 139 4 376 
455 7 440 227 4 94 275 308 168 
456 5 179 41 457 120 510 
457 6 120 456 41 179 510 504 
458 7 363 500 78 399 112 314 364 
459 7 274 462 5 44 381 308 61 
460 5 365 501 125 325 459 
461 7 277 143 237 148 182 403 208 
462 7 274 381 520 44 61 459 128 
463 7 284 84 512 313 378 507 3 
464 7 236 10 197 61 220 44 5 
465 7 79 315 259 54 137 438 214 
466 6 282 328 408 517 432 168 
467 6 374 366 306 45 255 244 
468 7 439 272 309 106 214 217 259 
469 7 355 11 119 87 209 81 253 
470 6 414 443 263 2 415 493 
471 7 408 490 60 386 175 134 328 
472 7 448 474 388 113 123 189 400 
473 7 297 40 16 36 279 444 319 
474 7 448 472 388 189 113 343 424 
475 7 360 495 330 402 393 515 136 
476 4 289 149 322 349 
477 7 396 112 98 399 354 290 485 
478 7 49 181 169 187 161 331 23 
479 6 332 422 419 257 75 156 
480 3 156 96 398 
481 7 518 335 150 280 427 447 299 
482 7 357 27 410 516 423 50 487 
483 7 407 411 320 429 136 486 65 
484 7 63 417 90 305 330 118 495 
485 7 76 494 404 98 477 396 412 
486 7 429 65 281 136 498 371 402 
487 7 287 131 514 413 410 358 311 
488 7 25 318 190 252 158 213 247 
489 7 72 302 387 425 258 153 427 
490 7 386 134 60 471 273 219 260 
491 7 103 430 426 164 340 105 235 
492 7 310 151 185 368 231 42 390 
493 3 451 415 196 
494 7 76 485 404 98 477 412 396 
495 7 360 475 330 14 317 515 346 
496 7 135 300 276 232 261 154 406 
497 4 349 322 34 476 
498 7 371 281 115 486 402 429 136 
499 7 141 329 385 301 327 231 278 
500 7 78 399 458 314 112 396 363 
501 6 125 460 365 256 325 163 
502 7 207 341 409 379 149 442 102 
503 7 53 333 260 134 391 181 273 
504 6 352 106 217 309 214 456 
505 7 257 97 377 479 173 332 167 
506 7 508 453 405 392 36 279 319 
507 7 347 3 84 370 295 463 230 
508 7 453 506 392 319 405 36 279 
509 7 384 452 344 290 400 113 363 
510 4 394 41 179 456 
511 7 100 28 18 336 431 166 420 
512 7 313 463 284 84 378 443 233 
513 7 65 429 436 486 240 498 320 
514 7 358 131 413 487 287 410 283 
515 7 317 14 342 346 360 393 475 
516 7 27 423 482 357 50 410 487 
517 7 168 432 362 326 4 282 275 
518 7 481 150 335 427 447 280 299 
519 4 59 188 296 372 
520 7 381 462 274 44 234 61 220 
521 3 196 327 301 
DEPOT_SECTION
   1
   -1
EOF
