NAME :  X-n599-kX-w59-c9.cctp
COMMENT : 	Adapted by Maziero, Usberti and Cavellucci from the Uchoa, Pecin, Pessoa, Poggi, Subramanian, and Vidal (2013)
TYPE :  CCTP
DIMENSION :    383
EDGE_WEIGHT_TYPE : 	EUC_2D	
CAPACITY : 	487
VERTICES_WITHIN_COVERAGE :  9
VERTICES_WITH_DEMAND : 	59
NODE_COORD_SECTION
1 284 167
2 6 711
3 874 746
4 483 894
5 733 189
6 336 29
7 488 684
8 825 903
9 98 412
10 206 306
11 497 641
12 499 745
13 481 40
14 500 390
15 851 268
16 51 278
17 805 796
18 554 771
19 576 984
20 734 251
21 325 414
22 658 81
23 279 467
24 1000 804
25 124 148
26 554 594
27 645 168
28 4 965
29 614 267
30 939 719
31 935 800
32 109 154
33 31 554
34 960 512
35 489 840
36 377 684
37 945 808
38 720 165
39 226 34
40 73 255
41 748 344
42 774 514
43 143 893
44 168 461
45 164 493
46 631 533
47 815 191
48 833 284
49 746 100
50 252 839
51 894 472
52 944 597
53 371 28
54 552 186
55 610 541
56 578 665
57 749 655
58 898 974
59 274 972
60 520 642
61 610 738
62 773 602
63 752 74
64 729 90
65 464 658
66 388 732
67 185 51
68 712 144
69 45 437
70 910 738
71 956 879
72 642 564
73 907 240
74 88 186
75 763 180
76 302 689
77 970 490
78 775 574
79 653 667
80 813 999
81 5 980
82 10 249
83 557 816
84 915 680
85 553 946
86 627 26
87 771 398
88 869 585
89 985 939
90 194 262
91 992 698
92 834 844
93 1 651
94 271 893
95 163 503
96 579 761
97 923 502
98 103 284
99 63 181
100 784 300
101 212 774
102 138 90
103 532 999
104 160 179
105 51 330
106 519 563
107 15 591
108 2 546
109 20 964
110 975 611
111 128 984
112 969 497
113 367 77
114 925 640
115 160 288
116 771 912
117 704 21
118 980 560
119 20 663
120 475 920
121 480 756
122 447 697
123 249 926
124 146 433
125 789 664
126 583 717
127 151 525
128 803 457
129 512 553
130 339 985
131 108 241
132 763 566
133 572 203
134 454 957
135 621 295
136 154 175
137 163 817
138 879 455
139 801 726
140 504 198
141 934 920
142 21 730
143 0 689
144 234 477
145 125 170
146 169 455
147 825 911
148 300 380
149 492 28
150 466 702
151 280 878
152 529 935
153 580 243
154 892 721
155 844 830
156 139 349
157 345 668
158 202 781
159 703 608
160 293 435
161 28 660
162 481 59
163 632 672
164 220 763
165 13 308
166 216 306
167 32 554
168 158 386
169 829 812
170 867 873
171 220 977
172 852 979
173 776 539
174 456 434
175 113 924
176 30 459
177 623 116
178 635 270
179 232 431
180 520 384
181 73 559
182 492 942
183 869 445
184 908 695
185 727 140
186 619 314
187 440 921
188 84 462
189 659 265
190 294 353
191 392 406
192 973 635
193 0 537
194 973 718
195 762 474
196 806 717
197 217 27
198 185 282
199 972 759
200 774 283
201 110 925
202 396 428
203 427 836
204 695 663
205 216 367
206 914 966
207 675 144
208 380 424
209 196 287
210 761 901
211 828 842
212 316 34
213 725 674
214 120 90
215 694 30
216 517 759
217 491 337
218 872 740
219 660 518
220 45 383
221 425 710
222 601 696
223 831 477
224 977 848
225 337 5
226 870 159
227 537 349
228 15 890
229 85 734
230 17 668
231 650 591
232 367 72
233 951 526
234 607 633
235 686 319
236 915 493
237 625 316
238 920 267
239 735 596
240 128 875
241 544 996
242 700 96
243 240 431
244 689 615
245 177 160
246 292 500
247 240 47
248 750 460
249 314 486
250 701 50
251 541 185
252 7 640
253 911 283
254 550 784
255 657 974
256 725 81
257 557 176
258 86 270
259 671 300
260 306 688
261 62 569
262 592 581
263 108 151
264 806 685
265 465 782
266 315 454
267 257 878
268 859 581
269 956 788
270 932 515
271 713 464
272 614 647
273 39 570
274 293 866
275 861 930
276 996 771
277 609 794
278 798 641
279 47 705
280 33 332
281 20 892
282 406 668
283 911 786
284 230 500
285 101 865
286 218 917
287 478 14
288 179 48
289 685 104
290 224 45
291 31 407
292 558 298
293 385 391
294 8 935
295 760 662
296 811 645
297 152 288
298 840 493
299 48 522
300 624 942
301 557 687
302 570 674
303 523 682
304 521 738
305 825 540
306 906 960
307 286 33
308 43 940
309 410 713
310 269 427
311 634 97
312 431 871
313 211 400
314 19 292
315 15 407
316 986 675
317 346 394
318 551 663
319 759 368
320 281 999
321 416 642
322 966 681
323 852 486
324 487 456
325 57 476
326 828 352
327 446 705
328 559 625
329 539 149
330 76 178
331 869 714
332 172 542
333 883 701
334 265 285
335 465 898
336 625 552
337 876 277
338 896 763
339 634 37
340 5 753
341 998 497
342 237 482
343 787 445
344 50 301
345 888 609
346 555 110
347 166 518
348 840 933
349 916 873
350 634 685
351 759 542
352 111 830
353 680 133
354 489 197
355 216 62
356 694 287
357 849 833
358 811 272
359 141 463
360 461 656
361 337 375
362 534 927
363 346 660
364 32 304
365 453 799
366 454 629
367 137 993
368 505 920
369 461 582
370 931 438
371 194 274
372 682 129
373 729 124
374 223 860
375 402 101
376 965 683
377 262 766
378 113 182
379 573 796
380 251 775
381 558 287
382 567 488
383 661 518
DEMAND_SECTION
2 63
3 89
4 97
5 78
6 92
7 55
8 97
9 88
10 95
11 64
12 80
13 68
14 71
15 95
16 75
17 89
18 54
19 75
20 61
21 66
22 86
23 56
24 99
25 65
26 56
27 99
28 79
29 73
30 53
31 63
32 76
33 67
34 77
35 82
36 67
37 68
38 64
39 69
40 68
41 83
42 77
43 67
44 74
45 80
46 55
47 86
48 68
49 62
50 78
51 67
52 90
53 63
54 90
55 56
56 69
57 97
58 87
59 87
60 70
COVERAGE_SECTION
2 9 143 142 279 340 230 119 161 93 252 
3 9 218 338 154 331 70 333 283 184 30 
4 9 335 120 368 182 187 35 312 362 152 
5 9 38 75 185 68 20 373 207 353 372 
6 8 212 225 53 307 232 113 247 375 
7 9 150 65 303 360 122 11 327 60 12 
8 8 147 348 275 170 116 92 211 210 
9 9 124 188 69 220 168 291 359 156 325 
10 9 166 209 198 371 90 115 297 205 334 
11 9 60 65 360 7 366 303 318 328 150 
12 9 121 216 304 265 150 18 7 254 327 
13 9 149 162 287 375 346 53 232 113 329 
14 5 180 217 227 174 324 
15 9 48 337 358 253 73 238 100 200 47 
16 9 344 40 364 314 258 165 82 98 105 
17 7 169 211 155 92 357 139 196 
18 9 254 96 379 216 83 304 277 12 126 
19 6 241 85 103 300 152 362 
20 9 200 356 5 100 189 75 259 358 235 
21 9 317 160 266 361 148 208 310 293 191 
22 9 311 289 242 177 339 250 372 353 215 
23 9 160 246 266 249 310 342 144 243 179 
24 9 276 269 224 199 37 31 71 194 283 
25 9 32 263 145 378 136 104 74 245 330 
26 9 328 262 106 60 129 234 318 11 56 
27 9 207 353 372 177 68 311 38 289 133 
28 7 81 109 294 308 281 228 201 
29 8 178 135 153 189 186 237 381 292 
30 8 194 70 184 376 84 154 322 199 
31 9 37 269 283 338 199 224 24 70 276 
32 8 263 25 145 378 74 330 136 99 
33 9 167 273 108 261 193 299 107 181 325 
34 9 112 233 77 270 97 341 236 118 51 
35 8 4 365 203 265 335 312 83 120 
36 9 282 157 363 309 66 221 321 122 260 
37 9 31 269 283 224 24 199 276 338 349 
38 9 68 185 5 373 75 207 353 372 49 
39 7 197 290 247 355 67 288 307 
40 9 258 16 131 98 344 82 364 314 74 
41 7 319 100 87 200 235 356 326 
42 9 173 351 195 132 305 248 78 128 223 
43 7 240 175 201 285 352 137 286 
44 9 146 359 45 124 95 347 127 144 179 
45 8 95 347 44 127 146 359 332 124 
46 7 336 55 72 219 383 231 262 
47 5 75 226 358 5 15 
48 8 15 358 337 100 200 326 253 73 
49 9 64 63 256 373 185 242 68 289 250 
50 9 374 267 151 274 94 380 377 101 158 
51 9 138 236 183 97 323 370 270 298 223 
52 7 110 114 192 118 345 233 88 
53 8 6 225 232 113 212 375 307 287 
54 9 251 257 133 329 140 153 354 346 27 
55 9 336 46 72 262 219 383 231 382 26 
56 9 302 318 301 222 272 234 328 126 163 
57 9 295 213 125 278 204 62 239 296 264 
58 9 306 206 172 275 141 348 80 89 147 
59 8 320 123 171 130 286 94 151 267 
60 9 11 318 303 328 7 65 301 26 302 
61 8 126 96 222 277 350 18 379 163 
62 9 78 132 239 278 296 57 295 351 173 
63 9 49 64 256 373 242 250 185 117 215 
64 9 256 49 63 242 373 289 250 185 68 
65 9 360 366 7 11 122 150 327 321 60 
66 7 309 221 36 327 282 122 157 
67 6 288 355 290 197 39 247 
68 9 185 38 373 353 372 207 289 242 5 
69 8 176 291 325 315 188 220 9 299 
70 9 154 338 30 3 218 184 333 283 331 
71 9 224 349 141 89 37 31 24 170 269 
72 8 336 231 46 55 219 383 262 244 
73 4 238 253 337 15 
74 8 330 99 378 32 145 263 25 131 
75 9 5 38 47 185 68 373 20 49 207 
76 4 260 157 363 36 
77 8 112 34 341 233 270 97 236 370 
78 8 132 62 173 351 239 42 305 278 
79 9 163 350 204 272 234 222 244 213 56 
80 5 172 348 275 58 147 
81 6 28 109 294 308 281 228 
82 9 314 16 165 364 40 344 258 99 280 
83 6 379 254 18 277 96 216 
84 8 184 333 114 30 154 376 322 331 
85 7 152 362 19 241 368 103 182 
86 9 339 22 215 311 117 250 177 289 242 
87 6 319 343 41 248 128 326 
88 8 268 345 305 52 114 296 278 270 
89 9 141 71 206 306 224 58 349 275 170 
90 7 371 198 209 115 10 166 297 
91 7 316 194 322 376 30 199 192 
92 8 211 155 357 169 170 17 8 147 
93 9 252 119 230 161 143 2 107 279 142 
94 8 151 267 274 123 50 286 374 59 
95 7 45 347 127 332 44 359 146 
96 9 18 379 254 61 126 277 83 216 304 
97 9 236 270 233 34 51 112 77 138 370 
98 9 258 40 131 297 16 344 115 105 156 
99 6 330 74 378 32 263 145 
100 8 200 358 48 41 326 20 319 15 
101 7 158 164 380 377 137 50 374 
102 3 214 288 25 
103 9 241 19 85 152 182 362 368 134 120 
104 7 136 245 145 378 25 32 263 
105 8 280 344 364 165 314 16 220 98 
106 6 129 26 369 328 262 60 
107 9 273 33 167 108 252 261 193 93 181 
108 8 193 33 167 273 107 299 261 181 
109 7 28 81 294 308 281 228 201 
110 7 192 52 118 114 316 322 376 
111 5 367 175 201 43 171 
112 9 77 34 341 233 270 97 236 118 370 
113 7 232 375 53 6 212 225 307 
114 8 84 52 192 345 110 184 322 376 
115 9 297 198 209 371 90 10 98 166 156 
116 3 210 147 8 
117 9 215 250 256 63 339 64 242 22 86 
118 9 233 110 34 52 112 270 341 77 192 
119 9 230 161 93 252 143 2 279 142 107 
120 9 335 4 182 368 187 134 152 362 312 
121 8 12 265 216 304 365 150 327 122 
122 9 327 150 221 309 7 65 360 282 321 
123 9 286 94 267 59 151 171 374 274 320 
124 9 359 146 44 168 9 45 188 95 313 
125 8 278 264 295 296 57 196 139 62 
126 9 222 61 301 96 302 56 350 18 318 
127 6 347 95 332 45 359 44 
128 8 343 223 195 298 248 323 42 87 
129 4 106 26 369 262 
130 5 320 59 123 94 134 
131 9 258 40 98 74 378 297 16 115 330 
132 8 78 351 173 62 239 42 305 159 
133 9 54 257 251 153 329 140 29 27 354 
134 6 187 182 120 335 368 4 
135 6 186 237 29 178 189 259 
136 7 104 245 145 25 378 32 263 
137 8 158 352 101 240 374 285 43 164 
138 8 183 51 323 236 223 298 370 97 
139 8 196 264 125 331 17 218 3 295 
140 6 354 251 54 257 329 133 
141 9 71 306 206 349 89 58 275 170 224 
142 8 2 340 279 143 230 229 119 161 
143 9 2 230 119 93 161 142 252 279 340 
144 8 342 284 23 179 243 310 246 44 
145 9 378 25 32 263 136 104 74 330 245 
146 9 44 359 124 45 95 347 179 144 313 
147 8 8 348 275 116 170 210 92 211 
148 8 190 361 21 317 160 310 266 243 
149 9 13 287 162 346 375 53 329 232 113 
150 9 122 327 7 221 65 360 12 121 309 
151 7 94 274 267 50 123 374 286 
152 8 362 85 368 182 120 4 241 103 
153 9 133 29 381 292 178 54 135 251 257 
154 9 333 331 70 218 3 184 338 30 84 
155 9 357 92 211 169 170 17 8 283 147 
156 9 168 297 115 98 9 205 10 198 124 
157 5 363 36 260 76 282 
158 7 101 164 380 137 377 50 374 
159 8 244 239 204 231 57 62 213 132 
160 9 310 266 23 21 243 148 249 179 246 
161 8 119 230 93 252 143 279 2 107 
162 9 13 149 287 375 346 329 53 113 232 
163 9 350 79 272 222 234 56 302 204 126 
164 6 101 158 380 377 137 50 
165 8 314 364 280 344 105 16 82 40 
166 8 10 209 198 371 90 334 115 205 
167 9 33 273 108 261 193 299 107 181 325 
168 9 156 124 313 205 9 146 44 359 179 
169 9 155 17 357 211 92 170 3 338 218 
170 9 92 357 155 349 211 8 147 275 348 
171 7 59 123 286 320 367 111 94 
172 8 80 58 348 275 306 206 147 8 
173 9 351 42 132 78 305 62 195 239 298 
174 4 324 202 14 191 
175 7 201 43 240 285 111 308 367 
176 8 69 325 291 188 315 299 220 9 
177 9 311 22 27 207 353 372 289 346 242 
178 9 29 189 135 186 237 259 153 356 235 
179 9 243 310 313 144 342 23 160 205 146 
180 3 14 227 217 
181 8 261 273 167 33 299 107 108 193 
182 9 368 120 152 134 362 4 335 187 85 
183 7 138 51 323 223 298 370 236 
184 9 84 333 154 30 70 331 114 218 376 
185 9 68 373 38 49 372 353 5 64 207 
186 5 237 135 29 178 259 
187 7 335 120 134 4 312 182 368 
188 8 325 69 9 176 359 124 299 291 
189 9 178 259 356 29 135 235 237 186 20 
190 7 148 361 317 21 334 310 205 
191 7 293 202 208 317 361 21 174 
192 7 110 316 322 52 114 376 91 
193 8 108 33 167 299 273 107 261 181 
194 7 91 30 376 322 199 316 276 
195 8 248 343 42 128 271 173 351 223 
196 8 139 264 125 331 218 295 296 3 
197 7 39 290 247 355 67 288 307 
198 7 209 371 90 115 10 297 166 
199 9 276 269 194 30 24 31 37 91 70 
200 9 100 358 20 48 41 15 356 319 326 
201 6 175 43 240 285 111 308 
202 6 208 191 293 174 317 21 
203 6 312 365 35 265 335 4 
204 9 213 79 244 57 159 163 295 350 239 
205 9 313 166 168 10 179 243 156 190 310 
206 9 306 58 141 172 275 89 348 349 71 
207 9 353 372 68 27 289 38 185 242 373 
208 8 202 191 293 317 21 361 266 174 
209 8 198 371 10 90 166 115 297 334 
210 2 116 8 
211 8 92 155 357 169 170 17 8 147 
212 8 6 307 225 53 232 113 247 39 
213 9 57 204 295 125 244 159 79 239 278 
214 4 102 25 263 32 
215 9 117 250 256 339 22 242 86 64 63 
216 9 304 12 121 18 254 265 96 379 83 
217 3 227 14 180 
218 9 3 331 154 338 70 333 184 283 30 
219 5 383 46 72 336 55 
220 8 291 315 280 105 69 9 176 364 
221 8 309 327 122 150 66 282 36 65 
222 9 126 350 302 56 163 61 301 272 79 
223 8 298 323 128 183 138 343 51 305 
224 9 71 24 37 31 269 349 276 141 199 
225 8 6 212 53 307 232 113 247 39 
226 1 47 
227 5 180 217 14 292 381 
228 6 281 294 308 109 28 285 
229 3 279 142 2 
230 9 119 161 93 143 252 2 279 142 107 
231 8 72 244 336 159 262 234 46 55 
232 7 113 53 375 6 212 225 307 
233 9 34 270 112 97 77 118 236 341 52 
234 9 272 56 163 328 262 302 79 350 231 
235 7 259 356 189 237 41 186 135 
236 9 97 270 51 34 233 138 112 77 370 
237 5 186 135 178 259 29 
238 4 253 73 337 15 
239 8 159 62 132 78 244 351 57 173 
240 6 43 285 352 175 201 137 
241 7 103 19 85 152 362 182 368 
242 9 289 256 64 372 373 353 22 49 250 
243 9 179 310 313 144 342 23 160 205 284 
244 8 159 231 204 239 79 72 213 57 
245 5 104 136 145 25 32 
246 7 249 23 266 342 144 284 160 
247 7 290 39 355 197 307 67 288 
248 6 195 271 343 128 42 87 
249 8 246 266 23 160 21 310 342 144 
250 9 215 117 256 242 64 22 63 289 49 
251 8 54 257 133 329 140 354 153 346 
252 8 93 119 161 230 143 107 2 279 
253 4 238 337 73 15 
254 8 18 379 83 96 216 304 277 12 
255 2 300 19 
256 9 64 49 63 242 250 373 289 185 215 
257 9 54 251 133 329 140 346 153 354 27 
258 9 40 98 16 131 344 364 297 105 314 
259 8 235 356 189 178 237 135 186 29 
260 4 76 157 363 36 
261 8 181 273 33 167 299 107 108 193 
262 9 26 55 336 72 234 328 231 46 272 
263 8 32 25 145 378 74 330 136 99 
264 8 125 196 296 139 278 295 57 331 
265 8 365 121 12 216 35 203 304 327 
266 9 160 249 23 21 246 310 317 208 148 
267 7 94 151 274 374 50 123 286 
268 8 88 345 305 296 78 52 278 62 
269 9 37 31 199 276 283 24 224 338 70 
270 9 97 233 34 236 112 77 51 118 341 
271 6 248 195 383 219 343 42 
272 9 234 163 56 350 79 222 302 328 318 
273 8 167 33 261 107 181 108 299 193 
274 6 151 94 267 50 374 123 
275 9 348 147 8 172 306 58 170 206 141 
276 9 199 24 269 194 37 31 91 30 224 
277 6 379 96 61 83 18 254 
278 7 296 125 295 264 62 57 78 
279 9 142 2 229 230 161 119 143 340 93 
280 8 105 364 165 344 314 220 16 291 
281 6 228 294 308 109 28 285 
282 9 321 36 309 221 122 327 360 65 157 
283 9 338 31 37 269 70 3 218 199 154 
284 6 342 144 23 246 45 347 
285 5 240 352 43 175 201 
286 8 123 267 374 94 171 151 59 43 
287 9 149 13 162 53 375 346 232 113 225 
288 5 67 355 197 290 39 
289 9 242 372 353 22 207 64 256 68 373 
290 7 39 247 197 355 67 288 307 
291 7 315 220 69 176 9 325 280 
292 6 381 227 153 135 186 29 
293 7 191 208 202 317 361 21 174 
294 6 28 109 308 81 281 228 
295 8 57 125 213 278 264 296 62 204 
296 7 278 125 264 295 62 57 196 
297 9 115 198 209 371 90 98 10 156 131 
298 8 323 223 305 128 138 183 51 42 
299 9 33 167 181 325 261 273 193 108 176 
300 2 255 19 
301 9 302 318 56 303 126 222 60 304 328 
302 9 56 301 318 222 126 303 328 272 234 
303 9 301 318 7 60 302 11 304 56 150 
304 9 216 12 121 18 254 303 96 301 7 
305 9 173 298 268 42 78 323 88 223 351 
306 9 206 58 141 275 172 348 89 349 71 
307 8 212 247 6 225 39 290 197 355 
308 7 109 294 28 281 81 228 201 
309 8 221 66 327 122 36 282 150 321 
310 9 160 243 179 23 266 148 21 144 313 
311 9 177 22 289 353 372 339 207 242 86 
312 6 203 335 187 4 35 120 
313 9 205 179 243 168 310 146 124 44 144 
314 8 165 364 344 16 280 82 105 40 
315 7 291 220 69 176 280 325 9 
316 7 322 376 91 192 194 30 110 
317 8 361 21 293 208 148 191 202 190 
318 9 302 301 56 303 60 328 11 222 126 
319 5 41 87 326 100 343 
320 7 59 130 171 123 286 94 151 
321 8 282 366 360 65 36 122 221 327 
322 7 376 316 91 194 30 192 84 
323 8 298 223 138 51 183 128 305 236 
324 2 174 14 
325 8 188 176 69 299 291 9 315 33 
326 3 48 100 319 
327 8 122 150 221 309 7 65 360 282 
328 9 26 318 60 56 234 302 262 272 301 
329 9 257 251 54 346 140 133 354 177 153 
330 6 99 74 378 32 263 145 
331 8 333 154 218 3 184 70 338 84 
332 4 347 127 95 45 
333 8 331 154 184 84 218 3 70 30 
334 3 166 10 209 
335 8 4 120 187 312 368 182 134 35 
336 8 55 46 72 262 231 219 383 26 
337 6 15 253 48 238 73 358 
338 9 283 3 70 218 154 31 331 30 333 
339 9 86 22 215 311 250 117 177 289 242 
340 7 142 2 143 279 229 230 119 
341 8 77 112 34 233 118 270 97 236 
342 8 144 284 23 179 243 246 310 44 
343 7 128 195 248 87 223 42 298 
344 9 364 16 105 314 280 165 258 40 98 
345 8 88 268 114 52 84 296 110 184 
346 9 329 257 177 54 251 311 162 133 13 
347 6 95 127 45 332 44 359 
348 8 275 147 8 172 170 58 80 306 
349 9 71 170 141 224 37 31 357 275 155 
350 9 163 79 222 272 61 56 234 126 204 
351 8 173 132 42 78 239 62 305 195 
352 4 285 240 137 43 
353 9 372 207 289 68 242 185 27 373 38 
354 6 140 251 54 329 257 133 
355 6 290 247 39 67 197 288 
356 8 259 235 189 20 178 135 237 41 
357 9 155 92 211 169 170 17 8 283 349 
358 9 48 100 200 15 337 20 47 326 41 
359 9 44 146 124 45 95 188 347 127 9 
360 9 65 366 7 11 122 150 321 327 282 
361 8 317 148 21 190 293 191 208 160 
362 6 152 85 368 182 120 4 
363 6 157 36 260 76 282 321 
364 8 314 344 165 280 16 105 82 40 
365 7 265 203 121 35 12 216 312 
366 8 360 65 321 11 369 282 7 60 
367 5 111 175 201 171 43 
368 9 182 152 120 362 4 335 85 134 187 
369 6 366 129 106 11 360 321 
370 6 51 138 236 183 97 77 
371 7 90 198 209 10 115 166 297 
372 9 353 207 289 68 242 185 373 38 22 
373 9 185 68 49 64 242 38 256 372 289 
374 9 50 267 286 94 151 274 123 137 158 
375 5 113 232 53 162 6 
376 7 322 316 91 194 30 192 84 
377 6 380 164 101 158 50 76 
378 9 145 74 32 263 25 330 136 104 99 
379 7 83 254 18 96 277 216 61 
380 6 377 164 101 158 50 374 
381 5 292 153 29 135 227 
382 1 55 
383 5 219 46 72 336 55 
DEPOT_SECTION
   1
   -1
EOF
