NAME :  X-n502-kX-w200-c7.cctp
COMMENT : 	Adapted by Maziero, Usberti and Cavellucci from the Uchoa, Pecin, Pessoa, Poggi, Subramanian, and Vidal (2013)
TYPE :  CCTP
DIMENSION :    484
EDGE_WEIGHT_TYPE : 	EUC_2D	
CAPACITY : 	13
VERTICES_WITHIN_COVERAGE :  7
VERTICES_WITH_DEMAND : 	200
NODE_COORD_SECTION
1 0 0
2 159 917
3 635 200
4 278 907
5 667 141
6 119 954
7 29 448
8 590 87
9 375 990
10 511 374
11 298 957
12 107 911
13 323 766
14 161 892
15 151 912
16 438 1000
17 284 933
18 724 191
19 286 940
20 144 785
21 672 157
22 759 176
23 553 179
24 625 167
25 133 924
26 695 73
27 149 946
28 599 162
29 305 712
30 229 709
31 332 874
32 756 143
33 696 248
34 94 777
35 381 975
36 224 928
37 414 951
38 910 190
39 749 162
40 668 273
41 146 786
42 17 793
43 255 883
44 326 837
45 549 226
46 137 868
47 74 977
48 618 248
49 328 898
50 62 802
51 177 914
52 646 208
53 666 142
54 591 205
55 163 873
56 721 164
57 623 153
58 333 956
59 237 874
60 729 102
61 330 896
62 192 949
63 446 930
64 148 897
65 92 876
66 389 942
67 131 847
68 237 990
69 594 149
70 780 190
71 719 271
72 168 982
73 278 911
74 256 896
75 279 903
76 613 47
77 597 187
78 440 296
79 320 872
80 261 925
81 301 931
82 599 218
83 227 860
84 591 189
85 319 992
86 617 172
87 118 839
88 117 909
89 578 300
90 503 966
91 232 907
92 34 955
93 191 816
94 273 42
95 171 877
96 132 920
97 113 906
98 581 125
99 138 910
100 149 870
101 622 303
102 278 845
103 587 60
104 234 818
105 310 832
106 568 227
107 711 167
108 728 251
109 185 937
110 110 840
111 254 945
112 140 937
113 238 919
114 9 875
115 97 799
116 804 100
117 243 927
118 310 938
119 171 826
120 677 213
121 708 166
122 151 931
123 262 920
124 121 769
125 149 660
126 199 749
127 78 738
128 323 963
129 63 799
130 233 931
131 693 170
132 673 156
133 213 980
134 620 191
135 125 946
136 748 117
137 250 926
138 661 327
139 147 831
140 181 923
141 548 235
142 682 157
143 263 898
144 469 339
145 144 915
146 569 234
147 577 450
148 598 231
149 693 229
150 227 952
151 211 643
152 12 942
153 288 969
154 734 312
155 641 37
156 241 761
157 618 206
158 156 915
159 712 391
160 74 787
161 705 109
162 240 902
163 603 338
164 572 363
165 620 204
166 272 925
167 652 231
168 585 299
169 107 789
170 617 223
171 242 907
172 601 240
173 453 388
174 301 889
175 246 818
176 356 916
177 681 238
178 607 119
179 351 970
180 159 896
181 582 156
182 472 257
183 143 878
184 113 926
185 236 888
186 738 73
187 677 194
188 716 196
189 532 304
190 334 772
191 514 326
192 220 712
193 631 121
194 531 262
195 707 228
196 617 160
197 624 151
198 609 191
199 599 228
200 210 727
201 481 78
202 239 749
203 650 373
204 550 138
205 393 807
206 195 806
207 81 873
208 375 829
209 506 104
210 104 898
211 674 225
212 271 910
213 222 806
214 655 37
215 324 847
216 622 54
217 101 875
218 668 402
219 30 895
220 241 842
221 627 176
222 869 235
223 812 223
224 561 286
225 171 973
226 582 242
227 651 183
228 175 840
229 365 946
230 215 770
231 125 924
232 296 984
233 682 174
234 165 846
235 185 807
236 236 972
237 278 948
238 338 880
239 759 215
240 498 51
241 253 878
242 190 865
243 612 266
244 204 902
245 169 877
246 101 877
247 586 247
248 242 885
249 235 775
250 585 201
251 592 164
252 461 897
253 652 246
254 267 899
255 298 852
256 156 936
257 268 927
258 303 918
259 110 877
260 625 248
261 265 857
262 592 325
263 715 115
264 565 376
265 306 759
266 208 961
267 120 892
268 115 963
269 33 726
270 750 227
271 432 927
272 97 802
273 552 303
274 257 846
275 595 189
276 190 815
277 175 949
278 359 932
279 458 246
280 175 872
281 486 173
282 320 818
283 207 945
284 32 894
285 183 837
286 76 937
287 154 972
288 215 886
289 647 225
290 90 963
291 635 199
292 310 860
293 757 281
294 528 222
295 187 947
296 568 144
297 179 893
298 429 939
299 323 841
300 527 77
301 611 282
302 170 927
303 776 408
304 136 925
305 161 968
306 575 237
307 283 911
308 684 269
309 303 957
310 98 843
311 608 145
312 136 934
313 435 879
314 421 265
315 189 916
316 296 925
317 394 969
318 161 856
319 222 947
320 189 816
321 470 256
322 239 875
323 171 888
324 433 776
325 205 941
326 55 872
327 354 803
328 612 189
329 135 857
330 664 215
331 145 863
332 740 71
333 102 946
334 592 250
335 519 99
336 214 884
337 402 983
338 593 174
339 118 922
340 738 121
341 41 948
342 350 705
343 544 124
344 196 681
345 160 889
346 159 858
347 654 195
348 782 275
349 328 864
350 605 668
351 241 885
352 740 404
353 266 914
354 717 180
355 458 81
356 684 230
357 301 860
358 180 920
359 301 865
360 294 964
361 383 912
362 559 143
363 747 383
364 433 966
365 563 258
366 827 145
367 294 784
368 147 707
369 173 944
370 298 915
371 175 923
372 333 919
373 280 869
374 596 219
375 614 286
376 104 861
377 279 771
378 188 938
379 100 840
380 117 866
381 722 126
382 215 853
383 276 893
384 444 296
385 547 286
386 213 803
387 86 990
388 173 947
389 672 173
390 360 987
391 718 192
392 66 817
393 657 97
394 33 914
395 649 414
396 680 208
397 623 266
398 678 101
399 270 864
400 620 232
401 335 935
402 451 57
403 295 987
404 101 738
405 359 881
406 158 934
407 182 919
408 717 177
409 653 54
410 683 139
411 381 928
412 277 962
413 645 238
414 608 267
415 625 217
416 565 76
417 523 188
418 519 855
419 165 947
420 305 922
421 406 294
422 125 702
423 227 858
424 774 36
425 611 204
426 107 703
427 209 979
428 557 175
429 80 903
430 172 890
431 203 984
432 665 200
433 230 892
434 138 914
435 270 872
436 702 198
437 737 258
438 150 975
439 666 196
440 174 804
441 266 959
442 142 936
443 79 750
444 208 836
445 439 240
446 438 339
447 841 230
448 289 910
449 309 861
450 242 958
451 408 932
452 243 954
453 616 200
454 729 281
455 642 230
456 707 106
457 395 678
458 134 820
459 514 197
460 547 236
461 660 98
462 0 923
463 302 673
464 50 967
465 79 930
466 628 254
467 3 965
468 159 988
469 613 252
470 229 833
471 343 877
472 255 772
473 626 246
474 332 921
475 214 861
476 117 872
477 119 964
478 370 865
479 632 243
480 304 893
481 434 232
482 288 773
483 301 905
484 284 799
DEMAND_SECTION
2 1
3 1
4 1
5 1
6 1
7 1
8 1
9 1
10 1
11 1
12 1
13 1
14 1
15 1
16 1
17 1
18 1
19 1
20 1
21 1
22 1
23 1
24 1
25 1
26 1
27 1
28 1
29 1
30 1
31 1
32 1
33 1
34 1
35 1
36 1
37 1
38 1
39 1
40 1
41 1
42 1
43 1
44 1
45 1
46 1
47 1
48 1
49 1
50 1
51 1
52 1
53 1
54 1
55 1
56 1
57 1
58 1
59 1
60 1
61 1
62 1
63 1
64 1
65 1
66 1
67 1
68 1
69 1
70 1
71 1
72 1
73 1
74 1
75 1
76 1
77 1
78 1
79 1
80 1
81 1
82 1
83 1
84 1
85 1
86 1
87 1
88 1
89 1
90 1
91 1
92 1
93 1
94 1
95 1
96 1
97 1
98 1
99 1
100 1
101 1
102 1
103 1
104 1
105 1
106 1
107 1
108 1
109 1
110 1
111 1
112 1
113 1
114 1
115 1
116 1
117 1
118 1
119 1
120 1
121 1
122 1
123 1
124 1
125 1
126 1
127 1
128 1
129 1
130 1
131 1
132 1
133 1
134 1
135 1
136 1
137 1
138 1
139 1
140 1
141 1
142 1
143 1
144 1
145 1
146 1
147 1
148 1
149 1
150 1
151 1
152 1
153 1
154 1
155 1
156 1
157 1
158 1
159 1
160 1
161 1
162 1
163 1
164 1
165 1
166 1
167 1
168 1
169 1
170 1
171 1
172 1
173 1
174 1
175 1
176 1
177 1
178 1
179 1
180 1
181 1
182 1
183 1
184 1
185 1
186 1
187 1
188 1
189 1
190 1
191 1
192 1
193 1
194 1
195 1
196 1
197 1
198 1
199 1
200 1
201 1
COVERAGE_SECTION
2 7 158 15 145 302 122 371 406 
3 7 291 52 165 134 157 453 347 
4 7 73 75 307 212 448 254 353 
5 7 53 132 410 21 142 389 233 
6 6 135 268 477 333 312 112 
7 7 125 151 426 422 269 368 344 
8 7 103 416 178 98 76 216 193 
9 7 390 35 317 337 179 229 66 
10 7 191 264 144 173 164 189 446 
11 7 309 360 153 19 118 237 412 
12 7 97 88 210 184 339 231 267 
13 7 190 265 367 482 377 327 484 
14 7 345 180 323 430 64 245 95 
15 7 158 145 2 99 434 64 180 
16 7 364 337 317 37 35 298 9 
17 7 19 166 316 237 81 257 307 
18 7 391 188 354 408 436 56 107 
19 7 17 237 81 316 11 166 257 
20 7 41 124 440 458 169 139 235 
21 7 132 142 53 389 5 233 410 
22 7 39 70 32 18 239 56 354 
23 7 428 417 362 181 296 84 250 
24 7 86 221 196 57 197 134 28 
25 7 304 96 231 312 434 145 99 
26 7 398 456 161 186 461 60 332 
27 7 256 442 112 122 406 419 312 
28 7 251 338 69 181 196 311 86 
29 7 463 342 265 13 482 377 190 
30 7 192 200 202 344 126 156 230 
31 7 238 349 471 79 61 49 292 
32 7 39 136 340 22 381 56 60 
33 7 177 149 356 195 308 108 211 
34 7 169 115 160 272 124 443 129 
35 7 317 9 337 390 179 229 66 
36 7 130 113 117 319 91 325 150 
37 7 298 451 364 66 317 271 337 
38 6 222 447 366 223 70 116 
39 7 22 32 56 408 354 18 107 
40 7 308 253 177 33 413 466 167 
41 7 20 124 440 458 169 235 139 
42 7 50 129 392 160 269 443 34 
43 7 241 74 248 351 143 322 435 
44 7 299 215 105 282 349 292 449 
45 7 141 460 106 294 146 306 365 
46 7 331 329 100 183 380 476 67 
47 7 387 290 464 286 333 268 341 
48 7 469 260 473 466 479 400 172 
49 7 61 238 372 474 31 480 471 
50 7 129 392 160 115 272 34 42 
51 7 358 407 371 140 315 302 2 
52 7 3 291 347 289 330 432 455 
53 7 5 21 132 410 142 389 233 
54 7 250 82 374 84 275 77 425 
55 7 245 95 280 100 345 346 318 
56 7 107 121 408 354 18 39 391 
57 7 197 196 24 311 86 221 28 
58 7 128 401 179 118 309 229 11 
59 7 322 248 351 185 241 83 423 
60 7 263 340 456 136 161 381 186 
61 7 49 238 31 372 471 474 79 
62 7 295 378 109 325 283 277 388 
63 7 271 298 252 37 364 451 313 
64 7 180 14 345 15 99 145 158 
65 6 217 246 207 259 376 210 
66 7 411 451 229 37 317 361 278 
67 7 329 87 331 46 110 139 380 
68 7 236 133 427 450 431 452 150 
69 7 28 181 251 311 196 338 296 
70 7 22 239 39 223 270 32 18 
71 7 454 108 437 33 308 293 154 
72 5 225 468 305 287 438 
73 7 4 307 212 75 448 353 166 
74 7 143 254 43 162 171 241 248 
75 7 4 73 307 383 212 448 254 
76 7 216 103 155 409 214 8 416 
77 7 275 84 198 338 328 250 54 
78 7 384 421 314 446 182 321 144 
79 7 349 31 292 449 238 359 357 
80 7 123 257 137 166 353 117 212 
81 7 316 420 118 258 370 17 19 
82 7 374 199 148 54 425 170 157 
83 6 423 475 382 59 322 220 
84 7 275 77 250 338 54 198 328 
85 7 232 403 128 309 360 58 153 
86 7 24 221 196 328 134 57 28 
87 7 110 67 379 310 329 458 376 
88 7 97 12 339 184 210 231 267 
89 7 168 224 273 262 385 301 375 
90 7 63 364 16 298 252 271 37 
91 7 162 171 113 433 185 36 117 
92 7 341 464 152 467 394 47 286 
93 7 276 320 206 235 440 119 285 
94 5 402 355 201 240 209 
95 7 245 280 55 323 430 345 14 
96 7 25 304 231 434 99 145 339 
97 7 88 12 210 267 339 184 231 
98 7 296 69 178 362 181 204 311 
99 7 434 145 96 15 25 304 64 
100 7 331 183 46 55 346 318 329 
101 7 375 301 168 262 397 243 414 
102 7 261 255 274 399 373 357 435 
103 7 8 416 76 216 155 178 300 
104 7 175 470 213 220 386 444 274 
105 7 299 44 282 215 255 292 357 
106 7 146 306 45 226 141 460 247 
107 7 121 56 408 354 131 391 18 
108 7 437 71 454 195 33 270 149 
109 7 378 295 62 369 140 277 388 
110 7 87 379 310 67 376 380 329 
111 7 452 441 450 137 80 117 257 
112 7 442 312 27 122 304 25 256 
113 7 117 91 130 171 137 36 162 
114 6 219 284 326 394 462 152 
115 7 272 169 34 160 129 50 392 
116 7 366 136 32 340 332 186 424 
117 7 137 113 130 80 36 123 171 
118 7 81 420 316 309 258 11 19 
119 7 228 285 234 320 93 276 440 
120 7 396 211 330 356 432 187 439 
121 7 107 56 408 131 354 233 142 
122 7 256 406 442 112 27 312 2 
123 7 80 353 257 166 137 212 73 
124 7 169 20 34 41 404 115 272 
125 7 368 422 344 426 151 192 200 
126 7 200 230 202 192 156 249 30 
127 7 443 404 34 426 269 160 124 
128 7 58 309 11 118 85 179 360 
129 7 50 160 392 115 272 34 169 
130 7 36 117 113 137 319 150 91 
131 7 233 121 142 107 389 132 21 
132 7 21 142 5 53 389 233 410 
133 7 427 431 266 236 68 150 319 
134 7 328 453 198 165 157 425 3 
135 7 6 312 112 477 268 442 231 
136 7 340 60 32 381 263 456 161 
137 7 117 80 123 113 130 257 111 
138 7 101 203 40 163 308 375 301 
139 7 458 67 234 119 228 318 329 
140 7 358 407 371 51 315 302 109 
141 7 460 45 146 106 294 306 365 
142 7 132 21 131 233 410 389 5 
143 7 254 74 212 383 353 4 43 
144 7 446 191 384 78 173 10 189 
145 7 434 15 99 158 96 304 25 
146 7 106 306 226 141 247 45 460 
147 7 264 395 164 10 218 203 163 
148 7 199 172 374 82 226 247 334 
149 7 356 195 177 33 211 120 396 
150 7 319 450 452 266 283 130 236 
151 7 344 125 30 192 200 368 463 
152 7 462 467 92 341 394 464 219 
153 7 360 412 11 232 309 403 237 
154 7 454 293 71 437 108 348 308 
155 7 214 409 216 76 103 393 461 
156 7 202 249 472 230 377 126 200 
157 7 165 453 425 415 134 170 198 
158 7 2 15 145 122 302 434 99 
159 7 352 363 218 203 303 395 138 
160 7 129 50 34 115 272 392 169 
161 7 456 263 381 60 398 340 26 
162 7 171 91 433 185 74 113 248 
163 7 262 101 164 168 89 375 264 
164 7 264 163 262 10 89 273 168 
165 7 157 453 425 134 415 3 291 
166 7 257 80 123 353 17 73 212 
167 7 289 413 455 253 330 211 479 
168 7 89 224 262 301 375 273 101 
169 7 115 272 34 124 160 20 41 
170 7 400 415 157 82 165 199 425 
171 7 162 91 113 74 433 117 185 
172 7 148 199 334 247 469 48 226 
173 7 446 144 10 191 384 78 421 
174 7 480 483 359 448 79 383 75 
175 7 104 470 220 213 274 386 102 
176 7 278 372 474 361 401 411 229 
177 7 356 149 211 33 120 195 330 
178 7 193 311 98 69 8 197 57 
179 7 390 58 229 128 35 9 401 
180 7 14 345 64 323 430 15 158 
181 7 251 69 28 296 338 362 311 
182 7 321 279 445 481 384 78 314 
183 7 100 46 331 64 345 55 329 
184 7 339 231 12 88 25 96 97 
185 7 351 248 433 322 59 162 91 
186 7 332 60 26 136 456 263 340 
187 7 439 432 396 120 233 389 347 
188 7 391 18 436 354 408 107 121 
189 7 273 385 191 224 194 89 168 
190 7 13 265 327 367 482 282 377 
191 7 189 273 144 10 385 224 194 
192 7 30 200 344 202 126 156 230 
193 7 178 197 57 311 393 461 5 
194 7 385 460 141 365 224 45 294 
195 7 149 33 356 177 436 108 188 
196 7 57 24 197 86 311 28 221 
197 7 57 196 24 311 86 221 28 
198 7 328 134 453 77 425 275 157 
199 7 148 374 82 172 170 400 226 
200 7 192 126 30 202 230 156 344 
201 7 355 240 209 402 335 300 343 
202 7 156 249 472 230 200 126 30 
203 7 218 395 138 163 159 101 262 
204 7 362 343 296 98 181 428 23 
205 6 208 327 324 478 190 44 
206 7 235 276 93 320 386 440 213 
207 7 65 217 246 326 376 259 429 
208 6 205 327 478 44 299 215 
209 7 335 300 201 343 355 240 204 
210 6 97 12 88 267 246 259 
211 7 356 120 330 177 396 149 167 
212 7 353 73 4 75 254 307 123 
213 7 386 104 175 206 470 93 276 
214 7 155 409 216 76 26 393 461 
215 7 299 44 349 292 105 449 79 
216 7 76 155 409 103 214 8 393 
217 6 246 65 259 376 476 380 
218 7 395 203 159 352 138 363 163 
219 6 284 394 114 326 462 152 
220 7 470 274 423 83 104 175 261 
221 7 24 86 134 196 328 57 198 
222 6 447 223 38 348 366 70 
223 6 447 70 239 222 348 270 
224 7 385 273 89 168 365 189 194 
225 6 72 305 287 468 438 277 
226 7 247 306 334 146 148 172 106 
227 7 347 439 432 3 291 389 52 
228 6 285 234 119 318 346 320 
229 7 278 66 411 179 176 401 35 
230 7 249 126 156 202 386 213 472 
231 7 339 25 96 304 184 312 434 
232 7 403 153 360 85 11 309 412 
233 7 389 131 142 21 132 187 121 
234 7 318 228 346 285 119 139 331 
235 7 276 206 320 93 440 119 386 
236 7 450 68 452 150 133 427 319 
237 7 19 412 17 441 11 153 257 
238 7 471 31 61 349 79 49 405 
239 7 270 70 22 18 188 391 108 
240 7 201 300 402 355 335 209 416 
241 7 43 248 322 351 59 74 435 
242 2 280 95 
243 7 414 397 469 301 48 375 466 
244 5 288 315 336 297 91 
245 7 95 55 280 323 430 345 14 
246 6 217 65 259 376 476 380 
247 7 226 334 306 172 148 146 199 
248 7 351 185 322 59 43 241 433 
249 7 156 472 230 202 213 386 104 
250 7 54 84 275 77 374 82 198 
251 7 28 338 181 69 77 84 196 
252 6 313 63 271 298 451 37 
253 7 413 167 455 479 289 466 473 
254 7 143 74 383 212 75 4 353 
255 7 357 359 292 449 102 105 373 
256 7 406 122 27 419 442 112 302 
257 7 166 80 123 353 17 212 137 
258 7 420 370 316 81 483 448 118 
259 6 217 246 476 380 376 65 
260 7 473 48 466 479 469 400 397 
261 7 399 274 435 102 373 241 43 
262 7 163 168 89 101 164 375 273 
263 7 161 456 381 60 340 136 398 
264 7 164 10 163 262 191 273 147 
265 7 13 482 367 377 190 484 29 
266 7 283 427 62 133 319 325 150 
267 6 97 88 210 259 476 12 
268 5 477 6 135 333 290 
269 7 127 443 42 404 160 426 129 
270 7 239 108 437 195 18 188 391 
271 7 298 63 451 37 364 252 66 
272 7 115 169 34 160 129 392 50 
273 7 385 224 189 89 168 191 194 
274 7 261 220 102 399 435 175 470 
275 7 77 84 198 338 54 250 328 
276 7 93 320 235 206 440 119 285 
277 6 388 369 419 295 109 62 
278 7 229 176 411 401 372 474 361 
279 7 321 182 445 481 314 384 78 
280 5 95 245 55 323 242 
281 6 459 417 294 23 428 209 
282 7 105 44 299 215 327 255 484 
283 7 325 319 62 266 295 378 150 
284 6 219 394 114 326 462 429 
285 6 228 119 234 93 320 276 
286 7 465 333 290 429 341 184 12 
287 5 438 305 72 225 468 
288 5 336 433 244 185 59 
289 7 455 167 413 52 330 253 415 
290 7 47 333 268 387 477 6 286 
291 7 3 52 165 134 157 347 453 
292 7 449 357 359 255 79 349 215 
293 6 348 454 437 71 154 108 
294 7 45 141 460 459 417 106 194 
295 6 62 378 109 277 369 388 
296 7 362 181 204 98 69 251 343 
297 6 430 323 14 95 245 345 
298 7 271 37 63 451 364 66 317 
299 7 44 215 105 282 292 349 449 
300 7 335 209 416 240 201 343 103 
301 7 375 414 243 397 101 469 168 
302 7 371 140 358 406 407 2 51 
303 7 352 363 159 154 218 395 293 
304 7 25 96 312 231 434 112 145 
305 6 287 225 438 72 468 419 
306 7 146 226 106 247 334 148 365 
307 7 73 4 448 75 212 370 353 
308 7 40 33 177 71 253 356 149 
309 7 11 360 153 118 128 19 81 
310 7 379 110 376 87 380 217 67 
311 7 69 57 196 197 28 251 178 
312 7 112 442 304 25 96 122 231 
313 6 252 271 63 451 298 361 
314 7 445 421 481 78 384 279 321 
315 7 407 358 140 51 371 109 244 
316 7 81 420 258 370 17 448 19 
317 7 35 337 37 66 9 229 390 
318 7 346 234 55 331 100 228 280 
319 7 150 283 325 36 130 266 452 
320 7 276 93 235 206 440 119 285 
321 7 182 279 445 481 384 78 314 
322 7 59 248 351 185 241 43 83 
323 7 430 297 14 95 245 345 180 
324 6 205 208 327 190 313 457 
325 7 283 62 378 319 295 109 266 
326 6 207 284 219 65 429 114 
327 6 208 190 282 205 44 13 
328 7 198 134 453 77 425 165 275 
329 7 46 67 331 100 380 183 476 
330 7 120 211 432 396 52 439 167 
331 7 100 46 329 183 346 318 55 
332 7 186 60 26 136 456 424 340 
333 7 6 268 290 135 184 477 286 
334 7 247 172 226 148 306 469 199 
335 7 209 300 343 201 204 416 240 
336 5 288 433 244 185 475 
337 7 317 35 9 37 364 16 390 
338 7 251 28 77 84 275 181 198 
339 7 184 231 88 96 25 12 97 
340 7 136 381 60 263 32 456 161 
341 7 92 464 152 394 286 465 467 
342 7 29 457 463 13 190 265 482 
343 7 204 362 296 335 98 209 181 
344 7 192 151 30 200 125 368 126 
345 7 14 180 323 430 64 245 55 
346 7 318 234 331 55 100 245 280 
347 7 227 432 439 52 291 3 330 
348 6 293 437 454 270 108 223 
349 7 31 79 215 292 238 449 471 
350 6 324 418 457 147 205 342 
351 7 248 185 322 59 433 43 241 
352 7 363 159 303 218 154 395 203 
353 7 212 123 73 80 166 257 4 
354 7 408 391 18 107 56 188 121 
355 6 201 402 240 209 335 300 
356 7 149 177 211 120 33 396 195 
357 7 359 449 255 292 79 373 215 
358 7 407 140 371 51 315 302 109 
359 7 357 449 292 255 79 373 174 
360 7 11 153 309 412 232 237 403 
361 7 411 176 66 278 451 229 405 
362 7 296 204 343 181 98 428 23 
363 7 352 159 303 154 218 203 293 
364 7 37 298 16 337 63 271 317 
365 7 306 146 226 247 141 460 224 
366 7 116 70 32 22 223 39 136 
367 7 482 484 377 265 13 472 190 
368 7 422 426 125 344 404 200 124 
369 7 388 277 419 109 295 378 302 
370 7 258 316 420 448 483 81 307 
371 7 140 302 358 407 51 315 2 
372 7 474 401 49 61 176 420 278 
373 7 435 399 261 359 357 102 383 
374 7 82 199 148 54 170 250 425 
375 7 301 101 243 414 397 168 469 
376 7 217 380 246 259 476 65 310 
377 7 482 367 472 484 265 156 13 
378 7 109 295 62 369 140 277 325 
379 7 310 110 87 376 380 67 217 
380 6 476 259 376 217 246 46 
381 7 263 340 161 60 456 136 32 
382 5 475 423 83 444 470 
383 7 75 254 4 143 73 212 307 
384 7 78 421 314 446 182 321 144 
385 7 224 273 189 194 365 89 168 
386 7 213 206 93 104 276 320 235 
387 6 47 290 268 477 464 333 
388 6 277 369 419 295 109 378 
389 7 233 21 132 142 131 187 227 
390 7 9 179 35 317 58 85 229 
391 7 188 18 354 408 436 107 56 
392 7 50 129 160 272 115 310 379 
393 7 461 398 193 409 5 26 53 
394 6 219 284 462 152 341 92 
395 7 218 203 159 147 138 163 164 
396 7 120 187 330 432 211 439 356 
397 7 243 466 414 469 260 48 301 
398 7 461 393 161 456 26 410 263 
399 7 435 261 373 102 241 274 43 
400 7 170 473 48 415 479 260 172 
401 7 474 372 58 278 118 176 128 
402 6 355 201 240 209 300 335 
403 7 232 153 360 85 11 309 412 
404 7 127 443 426 124 34 422 169 
405 7 471 478 238 31 61 49 176 
406 7 256 122 302 27 419 442 2 
407 7 358 140 51 315 371 302 109 
408 7 354 107 56 121 391 18 188 
409 7 214 155 216 76 393 461 26 
410 7 5 53 142 132 21 131 233 
411 7 66 361 278 229 451 176 37 
412 7 441 153 237 360 11 19 309 
413 7 455 167 253 289 479 473 260 
414 7 243 301 397 469 375 48 334 
415 7 170 157 165 400 425 453 3 
416 7 8 103 300 335 98 343 76 
417 7 459 23 294 428 281 45 141 
418 6 252 313 63 90 271 324 
419 6 388 369 277 256 406 27 
420 7 258 316 81 370 118 483 448 
421 7 314 78 384 446 445 481 279 
422 7 426 368 404 125 127 443 124 
423 6 83 382 475 59 220 322 
424 7 332 186 116 60 136 26 340 
425 7 453 157 165 198 328 134 82 
426 7 422 404 368 127 443 125 124 
427 7 133 431 266 236 68 150 62 
428 7 23 181 362 296 338 417 84 
429 6 210 465 12 65 207 97 
430 7 323 297 14 345 95 245 180 
431 6 427 133 266 225 68 72 
432 7 439 347 187 330 396 120 52 
433 7 185 351 162 248 91 288 336 
434 7 99 145 96 25 304 15 231 
435 7 399 373 261 241 43 383 143 
436 7 188 391 18 354 396 187 408 
437 7 108 71 454 293 270 33 195 
438 4 287 305 468 72 
439 7 432 187 347 396 330 120 227 
440 7 235 276 320 93 206 119 41 
441 7 412 237 111 153 450 452 19 
442 7 112 312 122 27 304 256 25 
443 7 127 404 34 160 124 169 115 
444 5 382 470 285 93 475 
445 6 481 279 314 321 182 78 
446 7 144 78 384 173 421 314 191 
447 6 222 223 70 348 38 239 
448 7 307 370 4 73 75 483 258 
449 7 292 357 359 255 79 349 215 
450 7 452 236 150 111 319 441 130 
451 7 37 66 298 271 411 361 63 
452 7 450 111 150 236 319 441 130 
453 7 157 165 425 134 198 328 3 
454 7 71 437 293 108 154 33 308 
455 7 289 413 167 479 253 415 52 
456 7 161 263 60 381 398 340 26 
457 7 342 463 29 324 190 13 265 
458 7 139 87 67 110 20 41 119 
459 7 417 294 281 23 45 428 141 
460 7 141 45 146 106 294 365 306 
461 7 393 398 193 26 5 53 409 
462 7 152 394 219 467 284 92 341 
463 7 29 342 30 265 192 457 13 
464 7 92 341 47 286 290 387 152 
465 7 286 429 333 12 184 290 339 
466 7 260 473 48 479 397 469 243 
467 7 152 92 341 462 464 394 47 
468 5 72 438 287 225 305 
469 7 48 260 243 473 466 414 172 
470 7 220 104 444 175 382 423 83 
471 7 238 31 405 349 61 79 49 
472 7 156 249 377 202 482 230 484 
473 7 260 479 48 466 469 400 397 
474 7 372 401 49 61 176 420 118 
475 5 382 83 423 336 242 
476 6 380 259 217 246 376 46 
477 4 268 6 135 333 
478 6 405 471 238 208 31 349 
479 7 473 260 466 413 48 400 455 
480 7 174 483 370 448 49 258 61 
481 5 445 279 314 321 182 
482 7 377 367 265 484 472 13 190 
483 7 370 480 258 448 174 420 307 
484 7 367 482 377 472 282 105 175 
DEPOT_SECTION
   1
   -1
EOF
