NAME :  X-n561-kX-w112-c7.cctp
COMMENT : 	Adapted by Maziero, Usberti and Cavellucci from the Uchoa, Pecin, Pessoa, Poggi, Subramanian, and Vidal (2013)
TYPE :  CCTP
DIMENSION :    436
EDGE_WEIGHT_TYPE : 	EUC_2D	
CAPACITY : 	74
VERTICES_WITHIN_COVERAGE :  7
VERTICES_WITH_DEMAND : 	112
NODE_COORD_SECTION
1 500 500
2 487 949
3 492 770
4 150 556
5 130 719
6 962 393
7 54 890
8 861 705
9 338 631
10 119 741
11 48 296
12 982 827
13 18 954
14 558 698
15 857 337
16 963 72
17 218 46
18 705 484
19 315 3
20 331 358
21 688 156
22 314 338
23 214 428
24 193 866
25 381 924
26 968 10
27 797 382
28 733 544
29 956 878
30 576 270
31 257 778
32 713 605
33 270 940
34 880 401
35 245 168
36 973 29
37 888 919
38 943 703
39 364 248
40 932 60
41 575 18
42 663 990
43 667 351
44 85 708
45 801 330
46 261 91
47 163 953
48 509 249
49 237 336
50 791 356
51 314 168
52 356 726
53 260 412
54 630 144
55 534 255
56 356 444
57 448 320
58 987 333
59 691 109
60 319 476
61 83 716
62 395 818
63 605 769
64 633 162
65 651 644
66 221 4
67 551 912
68 762 604
69 337 41
70 156 318
71 756 357
72 749 173
73 535 235
74 719 700
75 900 564
76 717 4
77 337 441
78 759 103
79 615 132
80 365 498
81 42 268
82 952 2
83 989 303
84 471 821
85 650 215
86 302 881
87 61 459
88 391 405
89 364 170
90 643 744
91 324 620
92 559 449
93 92 914
94 133 607
95 223 949
96 988 415
97 943 616
98 764 6
99 659 250
100 766 532
101 730 338
102 850 489
103 481 467
104 564 296
105 469 531
106 538 121
107 997 183
108 127 966
109 880 538
110 300 985
111 462 125
112 781 68
113 884 92
114 928 894
115 107 816
116 581 799
117 46 288
118 548 0
119 379 725
120 702 712
121 230 722
122 40 891
123 396 104
124 756 658
125 236 62
126 314 56
127 276 466
128 626 156
129 369 506
130 207 461
131 135 983
132 956 181
133 5 209
134 369 482
135 975 194
136 740 993
137 77 480
138 742 233
139 809 987
140 748 391
141 366 917
142 272 875
143 0 9
144 260 359
145 449 208
146 278 711
147 422 445
148 341 448
149 683 498
150 930 690
151 184 567
152 257 360
153 464 101
154 783 645
155 282 884
156 978 688
157 514 349
158 290 171
159 675 414
160 386 86
161 575 26
162 863 973
163 223 412
164 958 176
165 391 824
166 228 93
167 938 995
168 159 343
169 698 106
170 361 937
171 201 120
172 158 852
173 786 630
174 91 909
175 291 333
176 575 931
177 60 763
178 321 837
179 154 302
180 490 215
181 612 394
182 70 159
183 972 987
184 527 340
185 34 241
186 688 334
187 878 485
188 124 413
189 347 330
190 457 540
191 841 478
192 383 907
193 556 135
194 250 31
195 251 90
196 514 112
197 645 252
198 50 740
199 924 309
200 275 198
201 751 389
202 222 168
203 935 8
204 105 551
205 943 769
206 723 250
207 442 730
208 440 930
209 25 735
210 550 461
211 95 780
212 38 560
213 610 303
214 635 599
215 266 273
216 160 961
217 610 199
218 568 865
219 397 721
220 423 983
221 239 847
222 330 653
223 307 662
224 81 59
225 357 955
226 123 426
227 28 874
228 228 758
229 972 613
230 776 209
231 577 160
232 293 429
233 852 781
234 343 789
235 492 948
236 823 661
237 193 141
238 602 498
239 412 553
240 415 158
241 382 42
242 1 486
243 382 334
244 497 141
245 70 672
246 154 539
247 822 847
248 681 808
249 972 28
250 515 845
251 308 612
252 784 7
253 287 625
254 442 982
255 844 461
256 324 736
257 505 739
258 668 124
259 966 56
260 648 984
261 705 165
262 771 758
263 754 167
264 529 232
265 835 623
266 649 742
267 864 278
268 379 515
269 152 618
270 530 125
271 748 966
272 441 116
273 495 888
274 734 107
275 623 131
276 842 466
277 557 697
278 419 952
279 987 50
280 692 664
281 626 817
282 887 426
283 675 757
284 853 362
285 194 527
286 164 411
287 943 552
288 288 411
289 655 956
290 743 460
291 660 568
292 886 352
293 488 528
294 868 505
295 561 673
296 856 126
297 900 17
298 871 351
299 544 696
300 459 776
301 541 257
302 885 418
303 443 205
304 559 106
305 715 74
306 103 373
307 879 347
308 819 389
309 831 507
310 589 695
311 865 351
312 815 96
313 791 305
314 807 679
315 468 732
316 666 76
317 568 205
318 802 286
319 712 80
320 218 449
321 914 624
322 537 863
323 862 484
324 336 666
325 62 678
326 995 86
327 737 314
328 851 39
329 278 480
330 743 173
331 909 106
332 407 905
333 234 442
334 984 38
335 624 9
336 690 580
337 821 470
338 779 78
339 871 94
340 560 796
341 973 189
342 699 19
343 989 17
344 786 720
345 679 710
346 887 516
347 501 973
348 567 951
349 653 134
350 605 770
351 465 620
352 914 529
353 810 491
354 173 471
355 914 548
356 803 366
357 860 113
358 736 168
359 459 508
360 723 696
361 644 653
362 478 427
363 694 521
364 191 588
365 663 791
366 659 188
367 700 411
368 677 609
369 731 580
370 610 105
371 548 155
372 103 585
373 363 542
374 501 937
375 981 71
376 563 789
377 842 508
378 706 155
379 904 130
380 543 567
381 951 14
382 803 5
383 997 36
384 163 492
385 117 572
386 570 35
387 538 21
388 789 108
389 119 667
390 68 669
391 494 839
392 92 755
393 598 137
394 822 278
395 521 156
396 31 373
397 518 956
398 304 521
399 918 124
400 949 54
401 905 132
402 753 45
403 206 365
404 959 557
405 983 471
406 818 383
407 662 684
408 615 759
409 717 11
410 637 657
411 389 951
412 757 185
413 294 482
414 475 464
415 725 970
416 714 5
417 588 715
418 891 415
419 763 96
420 885 493
421 273 424
422 536 88
423 972 618
424 994 28
425 475 786
426 993 34
427 847 29
428 601 7
429 743 509
430 481 877
431 654 629
432 562 686
433 797 386
434 194 570
435 681 104
436 38 680
DEMAND_SECTION
2 9
3 7
4 5
5 5
6 8
7 1
8 2
9 6
10 8
11 2
12 6
13 7
14 8
15 8
16 5
17 3
18 4
19 2
20 8
21 6
22 3
23 3
24 4
25 4
26 8
27 8
28 10
29 1
30 1
31 9
32 9
33 10
34 10
35 5
36 5
37 6
38 4
39 9
40 3
41 8
42 4
43 5
44 9
45 4
46 9
47 1
48 7
49 8
50 4
51 5
52 9
53 3
54 8
55 6
56 6
57 8
58 6
59 8
60 6
61 10
62 3
63 9
64 8
65 6
66 6
67 4
68 3
69 7
70 4
71 6
72 10
73 7
74 2
75 7
76 5
77 4
78 3
79 8
80 1
81 1
82 5
83 8
84 2
85 9
86 6
87 10
88 8
89 1
90 6
91 2
92 4
93 7
94 3
95 9
96 9
97 6
98 8
99 3
100 5
101 6
102 8
103 4
104 3
105 9
106 4
107 7
108 1
109 8
110 9
111 2
112 8
113 6
COVERAGE_SECTION
2 6 235 374 347 397 208 254 
3 7 425 257 300 315 84 207 391 
4 7 246 151 385 204 434 364 285 
5 6 10 44 61 392 389 211 
6 4 96 58 418 302 
7 7 122 227 174 93 13 115 108 
8 7 236 314 150 344 233 38 265 
9 6 91 222 324 251 223 253 
10 7 5 392 61 211 44 177 198 
11 7 117 81 185 396 306 133 179 
12 6 29 205 114 38 37 233 
13 7 122 7 227 93 174 108 131 
14 6 277 432 299 295 310 417 
15 7 311 298 307 284 292 45 267 
16 7 259 375 400 40 279 326 334 
17 7 125 194 66 166 195 46 171 
18 7 149 363 290 429 28 367 159 
19 7 69 126 194 241 66 125 46 
20 7 22 189 175 243 288 144 152 
21 2 378 261 
22 7 175 20 189 144 152 243 49 
23 7 163 320 333 130 53 286 354 
24 7 172 221 142 95 155 47 115 
25 7 141 192 170 411 332 225 278 
26 7 381 82 249 36 343 334 424 
27 5 433 356 406 308 50 
28 7 100 369 429 363 336 32 18 
29 6 114 12 37 183 205 167 
30 7 104 301 55 213 73 264 317 
31 7 228 121 146 221 256 178 234 
32 7 369 336 368 68 280 28 431 
33 7 95 110 155 142 86 225 170 
34 4 302 418 282 284 
35 7 202 200 158 237 171 51 166 
36 7 249 334 26 343 424 426 279 
37 6 114 162 29 167 247 139 
38 7 150 156 205 8 321 97 423 
39 7 89 189 243 303 51 145 215 
40 7 400 16 259 375 381 36 249 
41 6 161 386 428 118 387 335 
42 2 260 289 
43 7 186 101 159 367 181 213 327 
44 7 61 325 245 390 5 10 198 
45 7 313 50 356 318 27 71 15 
46 7 195 166 125 194 17 126 171 
47 7 216 108 131 95 93 174 24 
48 7 55 264 73 301 180 30 104 
49 7 152 144 403 175 215 22 163 
50 7 356 27 45 433 71 406 308 
51 7 158 200 89 35 202 46 39 
52 7 119 256 219 324 234 222 146 
53 7 421 288 163 232 333 23 152 
54 6 128 275 64 79 349 393 
55 7 301 73 264 48 30 104 180 
56 7 148 77 134 60 88 80 129 
57 7 243 157 184 48 189 88 55 
58 7 83 6 199 96 292 307 298 
59 4 169 435 258 319 
60 7 413 148 77 329 127 398 56 
61 7 44 392 198 325 10 245 5 
62 7 165 234 84 178 300 425 332 
63 7 350 408 116 90 376 266 281 
64 7 128 54 275 349 79 366 393 
65 4 361 431 410 407 
66 7 194 17 125 166 195 19 46 
67 6 176 348 218 322 397 374 
68 7 173 369 154 32 124 28 100 
69 7 126 19 241 160 123 194 46 
70 7 179 168 403 306 49 286 188 
71 7 101 201 50 140 327 27 356 
72 5 330 263 358 412 230 
73 7 264 55 301 48 317 180 30 
74 7 360 120 345 280 124 407 344 
75 7 355 109 352 287 346 404 321 
76 5 416 409 342 98 402 
77 7 148 56 60 232 134 288 413 
78 5 419 274 388 338 112 
79 6 275 393 54 128 370 64 
80 7 129 134 268 373 60 56 148 
81 7 117 185 11 133 396 182 179 
82 7 381 26 203 249 36 343 334 
83 5 58 199 6 135 96 
84 7 391 425 300 250 3 430 273 
85 7 366 99 197 217 64 128 21 
86 7 155 142 178 33 221 141 170 
87 7 137 242 226 188 396 306 204 
88 7 147 56 77 148 243 20 134 
89 7 51 240 123 158 39 303 160 
90 5 266 408 283 63 350 
91 6 9 251 222 253 223 324 
92 7 210 238 181 103 362 414 293 
93 7 174 7 122 108 227 47 131 
94 7 269 372 385 4 364 389 204 
95 7 33 47 216 110 24 155 142 
96 3 6 405 58 
97 7 229 423 321 404 287 75 355 
98 7 252 382 402 76 409 416 112 
99 7 197 85 366 206 217 213 30 
100 7 429 28 369 353 309 68 363 
101 7 327 71 186 201 140 43 50 
102 7 323 191 377 276 294 309 187 
103 7 414 362 359 293 147 105 210 
104 7 30 301 213 55 184 73 48 
105 6 190 293 359 239 103 414 
106 7 270 193 196 304 422 371 395 
107 4 135 341 164 132 
108 7 131 216 47 93 174 95 7 
109 7 346 75 294 352 355 420 377 
110 7 33 225 170 95 141 411 25 
111 7 272 153 244 196 240 395 270 
112 6 338 419 402 78 388 312 
113 7 339 331 357 379 296 401 399 
114 6 29 37 12 167 162 183 
115 7 211 172 392 177 10 7 174 
116 4 340 376 63 350 
117 7 11 81 185 396 133 306 179 
118 6 387 41 161 386 428 335 
119 6 219 52 256 207 234 324 
120 7 74 345 360 280 407 283 266 
121 3 228 146 31 
122 7 7 227 174 93 13 115 108 
123 7 160 272 240 241 153 111 89 
124 7 154 173 360 68 314 74 280 
125 7 17 166 195 194 46 66 171 
126 7 69 19 46 194 241 195 125 
127 5 329 413 232 421 60 
128 7 64 54 275 79 393 349 217 
129 5 80 268 134 373 60 
130 4 320 333 23 354 
131 7 108 216 47 93 174 95 13 
132 4 164 341 135 107 
133 6 185 81 182 117 11 396 
134 7 80 129 268 56 148 60 77 
135 4 341 132 107 164 
136 4 415 271 139 42 
137 7 87 226 204 242 188 384 212 
138 5 206 230 412 72 330 
139 5 162 271 136 415 37 
140 7 201 71 433 27 367 50 101 
141 7 25 192 170 225 411 332 278 
142 7 155 86 221 178 33 24 95 
143 6 224 182 133 17 66 171 
144 7 152 49 175 53 403 22 288 
145 7 303 180 240 48 244 111 264 
146 6 121 256 223 228 31 324 
147 7 88 414 362 103 134 56 359 
148 7 77 56 60 134 232 80 413 
149 7 363 18 429 28 290 291 238 
150 7 38 156 321 8 97 205 423 
151 5 434 364 4 246 285 
152 7 144 49 175 403 53 288 22 
153 7 111 272 196 244 123 270 422 
154 7 173 124 314 236 68 265 344 
155 7 142 86 33 221 178 95 141 
156 7 38 150 423 229 97 205 321 
157 7 184 57 104 362 55 301 30 
158 7 51 200 35 202 89 46 195 
159 7 367 43 181 18 140 201 186 
160 7 123 241 272 69 126 240 153 
161 5 41 386 428 118 387 
162 6 139 37 167 114 183 271 
163 7 23 333 53 320 403 421 130 
164 4 132 341 135 107 
165 7 62 234 178 84 192 300 332 
166 7 195 125 46 171 17 237 194 
167 7 183 162 37 114 29 139 12 
168 7 70 179 403 306 286 49 188 
169 5 59 435 319 258 274 
170 7 225 141 25 411 192 332 278 
171 7 237 166 202 195 35 46 125 
172 7 24 115 221 174 93 211 47 
173 7 154 68 124 236 265 314 369 
174 7 93 7 122 108 227 47 13 
175 7 22 144 152 20 49 189 215 
176 2 348 67 
177 7 198 392 211 209 61 44 10 
178 7 86 234 155 142 165 62 221 
179 7 70 168 403 306 49 11 117 
180 7 48 145 264 303 73 55 301 
181 7 159 43 92 367 210 213 186 
182 6 133 185 224 81 237 117 
183 7 167 114 37 29 162 12 139 
184 7 157 104 57 301 30 55 213 
185 7 81 133 117 11 182 396 179 
186 7 43 101 327 71 367 159 140 
187 5 420 323 294 102 346 
188 7 226 286 306 354 87 168 137 
189 7 20 22 243 175 39 88 144 
190 6 105 359 293 239 103 414 
191 6 276 102 255 323 337 377 
192 7 25 141 332 170 411 225 278 
193 7 371 106 270 304 231 395 393 
194 7 125 17 66 195 46 166 126 
195 7 46 166 125 17 171 194 126 
196 7 270 106 422 244 304 395 193 
197 7 99 85 213 217 366 30 206 
198 7 177 209 61 392 44 211 436 
199 7 292 307 83 58 267 298 311 
200 7 158 35 51 202 215 89 237 
201 7 140 71 433 27 50 101 367 
202 7 35 237 171 200 158 166 195 
203 7 381 82 26 297 249 36 400 
204 7 385 372 4 246 94 212 137 
205 6 38 12 150 156 233 8 
206 6 138 99 327 230 412 197 
207 6 315 219 300 119 3 257 
208 7 278 332 2 254 235 411 220 
209 7 198 177 436 61 44 325 392 
210 7 92 238 103 414 362 181 293 
211 7 392 115 177 10 198 61 5 
212 6 204 372 385 242 137 87 
213 7 30 104 197 99 43 301 186 
214 5 431 291 368 65 361 
215 7 175 49 200 22 144 152 189 
216 7 47 108 131 95 93 174 24 
217 7 317 85 64 128 366 231 54 
218 3 322 67 250 
219 6 119 52 207 315 256 324 
220 7 254 278 411 208 2 25 225 
221 7 142 24 155 31 86 172 178 
222 7 324 9 223 91 251 253 52 
223 7 222 324 253 9 91 251 146 
224 6 143 182 171 17 237 66 
225 7 170 411 25 141 192 278 110 
226 7 188 286 306 354 87 137 384 
227 7 122 7 174 93 13 115 211 
228 4 31 121 146 221 
229 7 423 97 404 321 287 156 75 
230 4 412 138 72 263 
231 7 371 393 193 317 79 128 217 
232 7 288 421 53 127 77 148 329 
233 4 247 8 262 344 
234 7 178 256 165 62 52 119 31 
235 6 2 374 347 397 208 254 
236 7 314 265 154 173 8 124 344 
237 7 171 202 35 166 195 46 125 
238 6 210 92 149 291 380 363 
239 4 190 268 373 105 
240 7 272 89 303 111 123 145 153 
241 7 160 69 123 126 19 272 153 
242 6 87 137 212 396 204 226 
243 7 189 20 57 22 88 39 175 
244 7 395 196 270 111 106 153 371 
245 7 390 325 436 44 61 389 198 
246 7 4 151 285 384 204 385 434 
247 3 233 37 262 
248 5 365 283 281 266 90 
249 7 36 334 26 343 424 426 381 
250 6 391 322 273 430 84 218 
251 6 91 253 9 222 223 324 
252 7 382 98 402 112 76 409 427 
253 5 251 91 223 9 222 
254 7 220 278 208 2 235 347 411 
255 4 276 191 337 102 
256 7 52 146 119 234 324 219 223 
257 7 3 315 425 299 300 207 14 
258 4 349 435 59 169 
259 7 16 400 375 279 334 36 249 
260 2 42 289 
261 2 378 21 
262 5 344 74 360 120 233 
263 4 72 330 358 412 
264 7 73 55 48 301 180 317 30 
265 7 236 173 154 314 68 321 8 
266 5 90 283 408 345 365 
267 5 394 15 318 199 307 
268 5 129 80 373 134 239 
269 4 94 364 385 372 
270 7 106 196 193 395 304 371 244 
271 4 415 136 139 42 
272 7 111 153 123 240 244 160 196 
273 7 430 250 322 374 391 235 67 
274 4 78 419 319 169 
275 6 79 54 128 393 370 349 
276 5 255 191 337 102 323 
277 6 14 432 299 295 310 417 
278 7 208 411 220 254 25 332 192 
279 7 334 383 426 259 375 424 36 
280 7 407 74 360 65 345 120 361 
281 5 365 116 350 63 248 
282 3 302 418 34 
283 7 266 90 365 345 248 120 408 
284 7 311 298 15 307 292 406 308 
285 5 151 246 434 384 4 
286 7 188 226 23 163 354 403 130 
287 5 404 355 352 75 97 
288 7 232 421 53 127 77 144 152 
289 2 260 42 
290 5 18 429 367 140 149 
291 6 336 214 368 363 431 32 
292 7 307 298 311 15 284 34 199 
293 7 105 190 359 103 414 380 239 
294 7 420 187 323 346 102 377 109 
295 5 432 277 14 299 310 
296 6 357 339 113 379 401 312 
297 7 203 381 40 82 328 427 400 
298 7 311 307 292 15 284 34 406 
299 6 277 14 432 295 310 417 
300 7 425 3 315 84 207 257 391 
301 7 55 73 264 48 30 104 317 
302 3 418 282 34 
303 7 145 180 240 48 111 244 89 
304 6 106 193 422 270 196 371 
305 5 319 169 274 59 435 
306 7 188 226 168 286 396 70 179 
307 7 292 298 311 15 284 34 199 
308 4 406 433 27 356 
309 7 377 102 353 191 294 337 323 
310 4 417 432 14 277 
311 7 298 307 15 284 292 34 406 
312 7 388 338 112 357 296 419 78 
313 6 318 45 394 50 327 356 
314 7 236 154 344 173 124 8 265 
315 6 207 257 3 300 425 219 
316 2 435 59 
317 7 217 73 231 264 371 301 55 
318 4 313 394 45 267 
319 5 305 169 274 59 435 
320 5 130 333 23 163 354 
321 7 97 423 229 75 150 355 287 
322 5 250 218 273 391 67 
323 6 102 187 191 294 420 276 
324 7 222 223 9 91 251 52 253 
325 7 245 390 436 44 61 389 198 
326 7 375 16 279 259 334 383 426 
327 6 101 71 186 313 45 206 
328 7 427 297 339 382 113 312 252 
329 5 127 413 60 398 232 
330 5 72 358 263 412 261 
331 7 399 379 401 113 339 357 40 
332 7 192 25 208 141 278 411 170 
333 5 320 23 163 130 53 
334 7 426 279 383 36 424 249 343 
335 2 428 41 
336 7 291 368 32 369 28 214 363 
337 5 276 191 353 255 102 
338 7 112 419 78 388 312 402 274 
339 7 113 357 296 331 379 401 312 
340 4 376 116 63 350 
341 4 135 132 164 107 
342 3 409 416 76 
343 7 424 426 36 249 383 26 334 
344 7 262 314 360 124 74 236 154 
345 7 120 407 74 266 360 283 280 
346 6 294 109 420 352 187 323 
347 5 397 235 2 374 254 
348 2 176 67 
349 4 258 54 275 64 
350 7 63 408 116 90 376 281 266 
351 3 190 239 105 
352 5 355 346 109 287 75 
353 7 337 309 191 377 102 276 255 
354 6 384 130 320 23 285 286 
355 6 352 75 287 109 346 404 
356 6 50 27 433 406 308 45 
357 6 296 339 113 379 312 331 
358 5 330 72 263 412 261 
359 7 105 190 293 103 414 239 147 
360 7 74 120 280 345 124 407 344 
361 3 410 65 431 
362 7 414 103 147 210 359 92 157 
363 7 149 18 28 429 291 336 369 
364 4 434 151 269 4 
365 7 248 283 281 90 266 408 63 
366 7 85 64 21 128 217 261 54 
367 7 159 140 201 290 43 18 71 
368 7 431 336 32 214 65 291 361 
369 7 32 28 68 336 100 368 363 
370 3 79 275 393 
371 7 193 395 231 106 270 304 244 
372 7 385 204 94 4 269 246 212 
373 3 268 129 80 
374 6 235 2 397 347 273 67 
375 7 16 259 326 279 334 400 383 
376 4 340 116 350 63 
377 7 309 102 294 191 323 353 276 
378 2 261 21 
379 6 401 399 331 113 357 296 
380 4 293 105 190 238 
381 7 82 26 203 249 36 343 400 
382 7 252 98 427 328 402 112 338 
383 7 426 424 334 279 343 36 249 
384 6 354 285 246 130 4 320 
385 7 372 204 4 94 246 269 151 
386 5 161 41 387 118 428 
387 6 118 386 41 161 428 422 
388 6 312 419 78 338 112 274 
389 7 245 390 5 44 325 269 61 
390 6 245 325 436 44 61 389 
391 7 250 84 430 273 322 425 3 
392 7 211 10 177 61 198 44 5 
393 7 79 275 231 54 128 370 193 
394 4 318 313 267 45 
395 7 371 244 270 106 193 196 231 
396 7 306 11 117 87 188 81 226 
397 5 347 374 235 2 348 
398 4 413 60 329 127 
399 5 379 401 331 113 339 
400 7 259 40 16 36 249 375 279 
401 6 379 399 331 113 296 357 
402 6 112 98 338 305 252 409 
403 7 49 163 152 168 144 286 23 
404 5 287 355 352 229 75 
405 1 96 
406 5 308 27 433 356 50 
407 5 345 280 361 410 65 
408 6 63 350 90 266 116 417 
409 5 76 416 342 98 402 
410 2 361 65 
411 7 25 278 170 225 141 192 220 
412 6 72 263 330 358 230 138 
413 5 329 127 60 398 232 
414 7 103 362 359 147 293 105 210 
415 3 271 136 42 
416 5 76 409 342 98 402 
417 5 310 14 277 432 299 
418 3 302 282 34 
419 6 78 338 388 274 112 312 
420 5 187 294 346 323 102 
421 6 53 288 232 127 333 163 
422 6 304 106 196 270 193 386 
423 7 229 97 321 404 156 287 150 
424 7 426 383 343 334 36 249 279 
425 7 300 3 84 315 257 391 207 
426 7 383 424 334 279 343 36 249 
427 7 328 382 297 252 339 113 312 
428 4 335 41 161 386 
429 7 100 28 18 290 363 149 353 
430 7 273 391 250 84 322 374 208 
431 6 65 361 368 410 214 280 
432 5 277 14 295 299 310 
433 5 27 356 406 308 50 
434 5 151 364 285 4 246 
435 4 59 169 258 316 
436 7 325 390 245 44 209 61 198 
DEPOT_SECTION
   1
   -1
EOF
