NAME :  X-n573-kX-w114-c11.cctp
COMMENT : 	Adapted by Maziero, Usberti and Cavellucci from the Uchoa, Pecin, Pessoa, Poggi, Subramanian, and Vidal (2013)
TYPE :  CCTP
DIMENSION :    542
EDGE_WEIGHT_TYPE : 	EUC_2D	
CAPACITY : 	210
VERTICES_WITHIN_COVERAGE :  11
VERTICES_WITH_DEMAND : 	114
NODE_COORD_SECTION
1 0 0
2 753 355
3 663 83
4 725 286
5 734 504
6 704 145
7 728 311
8 675 58
9 617 242
10 864 334
11 772 258
12 516 109
13 717 123
14 768 161
15 598 365
16 896 569
17 781 281
18 898 397
19 714 126
20 780 311
21 809 60
22 728 244
23 724 219
24 712 177
25 694 432
26 491 157
27 854 648
28 612 179
29 623 337
30 788 320
31 772 378
32 736 308
33 692 303
34 737 334
35 576 27
36 731 360
37 763 301
38 633 578
39 935 244
40 513 73
41 511 133
42 671 349
43 729 254
44 771 261
45 851 278
46 827 365
47 682 113
48 553 425
49 544 282
50 706 165
51 527 26
52 580 220
53 908 303
54 841 306
55 656 34
56 864 196
57 618 270
58 699 347
59 787 289
60 678 11
61 643 387
62 757 114
63 858 395
64 706 157
65 713 243
66 663 319
67 615 448
68 898 477
69 767 131
70 718 334
71 871 216
72 694 435
73 617 345
74 645 75
75 513 50
76 767 259
77 773 313
78 589 104
79 760 287
80 595 425
81 763 240
82 569 225
83 702 417
84 593 51
85 656 83
86 532 93
87 834 351
88 832 274
89 751 126
90 796 290
91 872 212
92 835 257
93 702 185
94 673 187
95 596 422
96 740 147
97 890 180
98 556 120
99 638 386
100 748 319
101 620 112
102 794 226
103 641 383
104 594 302
105 725 400
106 731 321
107 703 296
108 614 503
109 715 179
110 781 317
111 841 365
112 783 270
113 778 420
114 770 372
115 907 192
116 913 434
117 647 749
118 683 171
119 649 324
120 359 195
121 867 471
122 585 218
123 757 323
124 914 399
125 681 323
126 603 251
127 554 275
128 762 315
129 813 342
130 801 379
131 724 14
132 727 221
133 715 314
134 731 363
135 788 250
136 649 29
137 655 407
138 567 325
139 624 88
140 763 422
141 669 54
142 785 537
143 765 384
144 654 348
145 677 313
146 848 491
147 814 112
148 658 353
149 550 42
150 853 372
151 540 24
152 626 65
153 661 37
154 769 395
155 715 396
156 714 325
157 729 241
158 715 360
159 697 213
160 704 114
161 699 231
162 911 240
163 789 296
164 598 279
165 656 384
166 636 117
167 864 347
168 844 382
169 595 121
170 590 28
171 734 288
172 641 174
173 789 60
174 729 563
175 685 249
176 626 159
177 610 15
178 1000 201
179 875 408
180 419 38
181 671 63
182 693 73
183 803 184
184 690 55
185 680 192
186 511 191
187 899 256
188 610 110
189 827 287
190 672 526
191 755 311
192 770 321
193 750 262
194 665 436
195 595 339
196 748 421
197 736 240
198 747 298
199 511 179
200 753 707
201 413 402
202 628 437
203 661 207
204 737 328
205 711 285
206 655 325
207 800 288
208 804 352
209 678 59
210 623 79
211 825 278
212 736 469
213 728 268
214 675 177
215 641 245
216 686 180
217 617 646
218 903 84
219 646 72
220 778 409
221 865 386
222 928 420
223 668 91
224 702 123
225 705 306
226 574 355
227 684 468
228 700 483
229 617 442
230 629 426
231 767 394
232 828 227
233 544 253
234 605 107
235 746 356
236 737 130
237 638 79
238 600 47
239 734 377
240 652 13
241 482 164
242 737 249
243 740 161
244 554 181
245 623 270
246 748 363
247 655 305
248 878 250
249 743 397
250 663 78
251 649 322
252 718 309
253 711 345
254 750 222
255 734 195
256 691 372
257 793 263
258 638 111
259 717 372
260 670 184
261 635 112
262 677 120
263 708 173
264 483 71
265 851 348
266 776 165
267 807 346
268 659 341
269 732 272
270 815 259
271 739 375
272 907 319
273 777 316
274 756 77
275 668 72
276 766 304
277 599 97
278 648 208
279 696 412
280 878 216
281 507 50
282 848 417
283 673 295
284 734 420
285 676 104
286 756 332
287 616 134
288 692 255
289 705 186
290 675 191
291 657 99
292 760 418
293 827 350
294 662 529
295 821 447
296 759 191
297 753 72
298 859 378
299 646 242
300 896 475
301 566 258
302 645 338
303 546 60
304 748 263
305 805 435
306 785 387
307 510 198
308 937 390
309 641 386
310 759 274
311 714 352
312 674 332
313 662 189
314 712 354
315 685 112
316 628 73
317 728 372
318 703 99
319 692 48
320 746 335
321 791 248
322 579 98
323 732 249
324 503 63
325 595 63
326 877 228
327 812 137
328 788 235
329 647 192
330 738 410
331 600 100
332 742 417
333 616 343
334 830 330
335 681 162
336 809 41
337 845 394
338 602 236
339 590 57
340 766 375
341 657 113
342 630 128
343 643 248
344 623 315
345 805 534
346 639 178
347 603 114
348 779 398
349 680 289
350 994 383
351 463 284
352 715 367
353 625 297
354 773 278
355 701 345
356 729 331
357 658 317
358 807 287
359 638 7
360 669 12
361 616 128
362 587 403
363 962 294
364 717 278
365 557 161
366 565 465
367 631 245
368 816 144
369 706 90
370 771 428
371 839 190
372 786 419
373 754 358
374 687 82
375 690 187
376 692 441
377 839 365
378 763 191
379 724 301
380 791 198
381 697 159
382 776 276
383 736 431
384 892 182
385 602 33
386 487 297
387 721 103
388 744 240
389 648 381
390 571 6
391 758 317
392 779 433
393 737 308
394 736 197
395 585 87
396 668 304
397 863 289
398 861 472
399 628 358
400 857 330
401 755 375
402 601 537
403 759 310
404 704 272
405 642 346
406 710 240
407 877 382
408 877 287
409 573 197
410 339 383
411 651 320
412 754 254
413 694 52
414 814 293
415 703 274
416 496 169
417 766 182
418 480 92
419 847 178
420 928 298
421 871 664
422 656 36
423 753 175
424 742 128
425 760 363
426 677 376
427 761 383
428 855 434
429 773 366
430 710 177
431 762 378
432 876 191
433 801 250
434 481 159
435 839 209
436 544 312
437 749 288
438 704 91
439 722 176
440 608 213
441 720 277
442 757 350
443 697 229
444 890 258
445 779 273
446 949 223
447 738 400
448 674 438
449 626 293
450 716 467
451 593 371
452 872 314
453 616 310
454 670 454
455 762 339
456 676 366
457 766 318
458 766 236
459 671 75
460 901 344
461 737 290
462 602 77
463 784 319
464 783 268
465 792 335
466 813 294
467 768 302
468 770 281
469 798 190
470 696 305
471 714 336
472 684 65
473 686 329
474 751 357
475 734 295
476 538 203
477 104 364
478 689 47
479 621 231
480 595 31
481 793 258
482 844 287
483 630 165
484 537 118
485 607 413
486 783 359
487 673 280
488 756 224
489 676 466
490 609 102
491 738 221
492 556 84
493 789 84
494 624 239
495 711 338
496 649 180
497 229 166
498 782 342
499 759 222
500 872 494
501 589 39
502 533 226
503 704 206
504 644 66
505 830 288
506 585 126
507 660 72
508 554 11
509 755 300
510 587 243
511 708 115
512 610 16
513 774 505
514 640 436
515 683 210
516 936 268
517 795 414
518 693 592
519 817 108
520 710 305
521 739 217
522 638 118
523 711 456
524 783 128
525 761 313
526 866 479
527 817 400
528 554 297
529 778 342
530 756 239
531 701 286
532 735 275
533 792 334
534 674 111
535 754 300
536 740 149
537 798 531
538 530 155
539 532 181
540 587 360
541 869 444
542 794 227
DEMAND_SECTION
2 78
3 96
4 64
5 87
6 70
7 57
8 63
9 86
10 89
11 64
12 53
13 86
14 69
15 94
16 62
17 96
18 89
19 92
20 72
21 59
22 93
23 55
24 96
25 81
26 65
27 52
28 99
29 99
30 57
31 100
32 73
33 61
34 64
35 85
36 69
37 55
38 95
39 95
40 64
41 73
42 99
43 88
44 89
45 10
46 9
47 5
48 1
49 3
50 9
51 5
52 4
53 10
54 3
55 5
56 7
57 9
58 6
59 5
60 8
61 2
62 4
63 3
64 3
65 6
66 3
67 3
68 8
69 5
70 9
71 10
72 4
73 2
74 10
75 1
76 3
77 2
78 5
79 4
80 5
81 7
82 3
83 1
84 7
85 9
86 4
87 4
88 6
89 2
90 8
91 8
92 5
93 5
94 9
95 10
96 8
97 1
98 6
99 10
100 6
101 10
102 6
103 7
104 6
105 2
106 9
107 6
108 8
109 6
110 3
111 10
112 6
113 4
114 2
115 9
COVERAGE_SECTION
2 11 373 474 442 235 246 425 455 401 320 36 134 
3 11 250 85 223 459 507 275 291 74 219 181 374 
4 11 171 441 364 461 475 205 379 532 269 213 107 
5 11 212 228 513 450 523 174 142 227 190 489 537 
6 11 64 381 50 19 224 13 263 335 511 160 24 
7 11 32 393 106 252 379 133 475 204 520 156 356 
8 11 209 181 141 472 184 275 459 478 319 413 507 
9 11 494 479 367 338 126 215 343 57 245 299 440 
10 11 400 167 265 452 87 334 54 460 111 150 293 
11 11 44 76 464 112 445 135 382 412 81 354 310 
12 11 86 484 41 40 418 98 492 324 538 264 26 
13 11 19 511 224 160 387 236 424 6 318 96 89 
14 11 266 417 423 243 69 378 536 96 296 524 89 
15 11 451 540 195 226 73 333 399 29 362 99 103 
16 10 500 27 68 146 300 526 345 421 121 398 
17 11 382 445 354 59 112 468 464 90 163 207 44 
18 11 124 179 407 221 222 63 116 308 298 150 337 
19 11 13 224 511 160 6 236 387 424 318 64 315 
20 11 110 273 77 463 30 192 467 276 457 163 128 
21 8 336 173 493 519 147 274 297 524 
22 10 157 323 197 43 242 65 388 406 132 213 
23 10 132 491 521 157 197 503 22 394 406 65 
24 11 430 109 263 439 289 50 93 64 381 375 216 
25 11 72 376 83 279 448 194 523 454 227 489 450 
26 11 434 241 416 199 41 186 538 307 539 12 484 
27 10 421 16 200 345 537 142 174 500 146 513 
28 10 483 176 346 172 440 329 496 409 287 278 
29 10 333 73 405 302 344 399 195 453 119 251 
30 11 463 110 20 273 533 465 77 192 457 498 163 
31 11 114 340 143 431 427 429 306 154 231 401 425 
32 11 393 7 475 106 379 198 100 252 461 191 171 
33 11 470 107 225 145 349 520 531 283 125 396 133 
34 11 204 320 356 106 70 100 286 123 471 235 7 
35 11 170 501 480 390 385 508 84 149 238 339 151 
36 11 134 317 158 235 239 246 271 352 259 311 314 
37 11 276 467 509 535 403 525 191 79 128 77 198 
38 11 402 294 518 190 217 108 174 228 489 227 5 
39 11 162 516 446 187 444 420 248 363 115 326 280 
40 11 324 75 281 86 264 303 12 418 492 149 51 
41 11 12 538 484 26 416 434 241 86 199 98 418 
42 11 148 268 144 312 456 473 58 125 302 426 206 
43 11 323 242 22 157 213 197 269 65 304 388 193 
44 11 11 76 445 464 112 382 354 310 412 135 468 
45 11 482 397 88 505 92 189 211 408 54 248 414 
46 11 377 111 293 87 168 208 129 150 267 265 130 
47 11 315 534 262 285 160 224 318 341 223 511 291 
48 11 362 80 366 95 485 67 229 451 226 540 15 
49 11 127 528 233 436 301 138 104 164 502 510 386 
50 11 64 263 381 24 430 109 439 6 93 289 118 
51 11 151 75 149 281 508 303 324 390 35 40 170 
52 11 122 82 409 510 338 440 126 301 479 9 476 
53 11 272 420 408 452 460 516 397 187 444 10 363 
54 11 482 505 189 334 397 400 45 414 466 211 452 
55 11 422 153 136 240 141 360 8 60 359 181 209 
56 11 432 91 71 280 419 371 435 97 384 326 115 
57 10 245 164 126 449 9 353 367 494 343 215 
58 11 355 253 314 495 311 471 158 473 70 256 352 
59 11 163 90 17 207 382 354 445 112 468 358 464 
60 11 360 240 153 55 422 136 478 319 359 141 413 
61 11 309 103 99 389 165 137 399 426 148 456 144 
62 11 89 69 424 236 524 96 274 387 536 13 297 
63 11 221 337 298 168 179 407 150 282 111 377 428 
64 11 50 381 6 263 430 24 109 335 439 118 93 
65 11 406 22 157 161 43 323 443 197 288 242 23 
66 11 357 206 411 251 119 145 247 396 312 125 268 
67 11 229 202 230 514 80 95 485 194 362 366 108 
68 10 300 500 121 526 398 541 116 146 428 222 
69 11 524 89 62 424 14 236 96 536 266 243 327 
70 11 471 495 156 356 253 106 311 34 133 204 355 
71 11 91 280 326 56 432 435 248 384 97 371 115 
72 11 25 376 83 448 279 523 194 454 227 489 450 
73 11 333 29 399 195 405 15 302 344 540 451 453 
74 11 219 237 504 85 507 316 250 3 152 210 275 
75 11 281 324 40 51 303 151 264 149 86 418 492 
76 11 44 11 412 193 310 445 464 81 112 304 382 
77 11 273 20 110 192 457 128 276 467 525 463 403 
78 11 277 322 331 234 347 395 169 490 188 506 462 
79 11 437 468 310 37 509 535 354 198 467 276 382 
80 11 95 485 362 229 67 230 202 48 514 366 451 
81 10 458 530 412 488 499 76 388 11 44 254 
82 11 52 122 510 409 301 338 502 233 476 440 126 
83 11 279 25 72 155 376 105 284 448 330 383 332 
84 11 339 238 325 501 385 480 170 462 35 152 395 
85 11 3 250 507 74 223 219 275 291 459 237 504 
86 11 12 484 492 40 98 303 324 41 75 322 281 
87 11 293 377 46 111 265 334 129 267 150 167 208 
88 11 211 189 505 92 482 45 270 414 358 466 54 
89 11 424 62 236 69 96 536 524 13 19 243 387 
90 11 207 59 163 358 17 466 414 112 382 445 20 
91 11 71 280 326 56 432 435 384 97 248 115 371 
92 11 88 270 211 45 189 232 482 505 433 358 257 
93 11 289 430 375 24 263 109 216 50 503 439 185 
94 11 260 290 185 214 313 216 375 118 203 496 515 
95 11 80 485 362 229 67 230 202 48 514 451 366 
96 11 536 243 236 424 89 14 69 423 13 19 439 
97 11 384 432 115 56 91 280 71 419 326 371 435 
98 11 484 506 322 86 492 78 169 12 365 395 538 
99 11 309 103 61 389 165 137 399 148 405 426 144 
100 11 123 391 191 204 403 525 128 286 32 320 393 
101 11 188 261 490 234 361 166 347 258 342 522 287 
102 11 542 328 321 135 433 380 458 481 81 232 499 
103 11 309 61 99 389 165 137 399 148 144 405 426 
104 10 164 453 353 344 449 138 195 57 528 245 
105 10 155 447 330 249 284 332 239 317 83 259 
106 11 204 7 356 32 34 393 100 133 156 70 252 
107 11 225 531 470 520 33 205 252 133 379 415 364 
108 11 402 67 294 229 190 366 202 489 514 454 38 
109 11 24 430 439 263 289 93 50 64 255 375 381 
110 11 273 463 20 30 77 192 457 128 276 467 525 
111 11 377 46 150 87 168 265 293 298 167 337 221 
112 11 464 445 382 17 257 354 44 11 481 468 59 
113 11 372 220 370 392 140 292 517 348 154 231 196 
114 11 340 31 429 431 143 425 427 401 486 306 373 
115 11 384 97 432 280 91 56 71 326 162 446 39 
116 11 222 124 18 300 541 68 179 308 428 121 407 
117 11 217 200 518 38 174 402 294 190 27 421 108 
118 11 216 335 214 375 260 381 94 185 290 50 93 
119 9 251 411 206 357 66 302 247 268 405 
120 11 241 434 497 26 351 416 307 186 199 418 41 
121 9 398 526 500 541 146 300 68 428 295 
122 11 52 82 409 440 338 510 126 479 9 301 494 
123 11 391 128 286 100 457 525 191 192 403 320 455 
124 11 18 222 308 116 179 407 221 63 460 298 541 
125 11 473 145 312 66 33 396 470 357 206 42 268 
126 11 338 9 510 57 494 479 164 245 367 122 215 
127 11 49 301 528 233 436 164 510 104 82 138 502 
128 11 525 391 457 403 191 123 192 77 276 37 467 
129 11 267 208 293 334 465 533 87 46 498 30 486 
130 11 306 527 208 486 31 348 46 429 114 267 340 
131 6 60 319 413 478 184 360 
132 8 23 491 521 157 197 22 254 388 
133 11 252 520 156 7 225 379 106 70 470 32 107 
134 11 36 317 239 271 158 352 235 246 259 311 314 
135 11 321 481 433 257 328 11 464 44 112 76 542 
136 11 55 422 153 240 359 360 141 60 504 8 181 
137 11 61 165 309 99 389 103 194 230 514 448 426 
138 11 436 195 226 528 104 540 49 15 453 127 333 
139 11 210 316 237 490 152 101 74 462 188 261 219 
140 11 292 370 113 196 392 220 332 372 154 231 330 
141 11 8 181 209 275 153 472 507 184 459 478 422 
142 9 537 345 513 5 174 146 212 295 500 
143 9 427 431 31 340 231 154 114 401 306 
144 11 148 268 405 302 42 206 119 251 312 399 411 
145 11 125 396 66 33 283 473 312 357 470 247 349 
146 9 526 398 500 121 300 541 68 295 428 
147 11 519 327 368 524 493 69 21 62 173 89 266 
148 11 144 268 42 405 302 456 312 206 119 389 399 
149 11 303 151 51 35 508 75 501 170 390 492 339 
150 11 298 168 111 377 221 337 63 265 407 46 167 
151 11 51 508 149 35 303 390 75 281 170 501 324 
152 11 316 210 237 504 74 219 139 462 325 238 85 
153 11 422 55 136 141 8 240 360 181 209 478 60 
154 10 231 348 143 427 31 220 306 431 340 114 
155 11 105 447 259 83 279 239 317 330 249 352 284 
156 11 70 133 471 495 252 356 106 7 253 520 225 
157 10 22 197 323 242 43 388 65 406 132 491 
158 11 314 352 311 259 36 134 253 317 58 355 495 
159 11 503 515 443 161 185 375 23 93 289 406 132 
160 11 511 224 318 13 19 315 387 47 438 369 262 
161 11 443 406 65 159 175 288 503 515 23 132 22 
162 11 187 39 444 248 326 516 280 446 71 91 115 
163 11 59 90 207 17 20 358 110 467 77 273 30 
164 10 57 104 245 126 449 353 453 301 510 9 
165 11 389 61 103 309 99 426 137 456 148 144 256 
166 9 522 261 258 342 101 341 361 287 188 
167 11 10 265 400 150 111 87 298 377 452 293 407 
168 11 337 150 298 111 377 63 221 46 527 87 407 
169 11 347 506 234 78 188 331 361 277 490 287 101 
170 11 480 501 385 35 238 84 512 177 339 390 325 
171 11 461 475 4 532 437 198 269 379 441 32 364 
172 9 346 496 483 329 176 313 28 260 214 
173 8 21 493 336 274 297 519 147 62 
174 11 518 5 142 190 513 294 537 345 228 212 38 
175 6 288 161 443 406 65 404 
176 8 483 172 346 28 287 342 496 361 
177 11 512 385 480 170 359 501 238 35 84 390 136 
178 11 446 39 115 516 162 363 384 97 187 420 280 
179 11 63 221 18 407 282 337 428 298 541 124 168 
180 11 264 418 324 281 75 40 51 12 151 86 303 
181 11 8 209 141 275 459 472 507 250 184 3 182 
182 10 374 472 184 209 369 413 438 459 8 181 
183 11 469 380 266 371 417 378 14 368 102 419 435 
184 9 413 319 478 472 209 8 182 141 181 
185 11 290 94 375 216 260 214 313 515 118 93 203 
186 11 307 199 539 416 476 26 241 502 538 244 434 
187 11 444 162 248 326 39 408 516 280 53 71 397 
188 11 234 347 490 101 331 277 169 361 78 261 287 
189 11 505 211 88 414 466 482 358 54 45 207 270 
190 11 294 228 227 489 108 38 5 174 518 402 454 
191 11 403 525 391 128 100 509 535 123 37 276 457 
192 11 457 77 273 128 110 525 123 391 20 463 403 
193 11 304 412 310 76 242 532 44 269 11 43 323 
194 11 448 454 514 376 25 72 137 489 202 227 230 
195 11 333 540 73 15 226 29 138 451 453 104 344 
196 10 332 292 284 140 330 383 447 370 249 113 
197 10 157 388 22 242 323 43 491 530 132 65 
198 11 535 509 437 461 475 393 32 191 37 171 79 
199 11 186 416 307 539 26 538 241 434 476 244 41 
200 11 117 27 421 518 174 217 142 38 345 537 190 
201 11 410 351 386 48 436 366 226 138 362 528 49 
202 11 230 229 514 67 485 80 95 194 137 454 448 
203 9 278 313 290 329 515 94 185 260 496 
204 11 34 106 356 320 100 7 286 32 70 393 123 
205 11 364 531 441 4 107 415 404 520 379 225 171 
206 10 119 411 251 357 66 268 302 247 312 144 
207 11 90 358 59 163 466 414 17 112 257 445 464 
208 11 267 129 465 486 533 293 498 46 130 529 87 
209 11 8 181 472 141 184 275 478 413 459 319 182 
210 11 316 139 152 237 462 74 219 504 490 277 331 
211 11 88 189 505 414 358 466 270 482 92 45 207 
212 11 450 523 5 383 228 196 284 227 332 376 513 
213 11 269 532 441 43 364 4 323 171 242 304 193 
214 11 260 94 118 216 290 185 335 313 375 496 93 
215 7 343 299 367 494 9 479 245 
216 11 375 118 214 185 94 260 290 93 335 289 263 
217 11 38 518 117 402 294 190 174 108 200 228 5 
218 11 519 147 21 97 384 336 327 368 115 419 432 
219 11 74 504 237 507 85 250 316 3 152 275 210 
220 11 113 348 372 154 517 231 140 292 370 306 392 
221 11 298 63 407 150 168 337 179 111 377 18 282 
222 11 116 124 308 18 179 68 300 407 541 221 63 
223 11 3 85 250 291 285 459 275 374 507 534 341 
224 11 160 511 19 13 315 6 47 318 262 387 534 
225 11 520 470 107 33 133 252 379 531 156 205 7 
226 11 540 451 15 195 138 73 333 362 29 436 399 
227 11 489 454 228 376 523 448 450 72 25 194 212 
228 11 227 450 489 523 212 5 454 376 72 25 190 
229 11 67 202 230 514 80 95 485 194 362 137 454 
230 11 202 514 229 67 485 137 95 80 194 61 99 
231 9 154 143 348 427 31 431 220 306 340 
232 11 435 92 102 542 270 433 371 328 321 71 91 
233 11 301 127 49 502 82 510 528 52 476 122 126 
234 11 188 490 347 331 277 78 101 169 361 139 322 
235 11 474 2 246 373 442 36 425 134 271 320 401 
236 11 424 89 96 536 13 19 62 69 243 387 511 
237 11 74 219 316 504 210 139 85 152 507 3 250 
238 11 84 339 385 501 325 480 170 462 35 152 512 
239 9 271 317 134 36 259 246 352 401 249 
240 11 359 136 360 55 422 60 153 177 512 141 478 
241 11 434 26 416 199 186 41 307 538 539 12 476 
242 11 323 43 197 22 157 388 193 304 412 213 530 
243 11 536 96 423 439 14 109 236 24 417 424 50 
244 11 365 539 409 476 538 199 186 82 52 307 122 
245 10 57 449 367 164 353 126 9 343 215 494 
246 11 235 474 373 2 425 401 271 442 36 134 239 
247 8 357 396 66 411 251 119 206 283 
248 11 444 187 326 162 280 71 408 91 45 397 92 
249 9 447 330 105 332 239 271 427 231 196 
250 11 3 507 275 85 459 223 181 74 219 291 504 
251 9 119 411 206 357 66 302 247 268 405 
252 11 133 520 7 379 225 156 32 106 393 107 475 
253 11 495 311 314 471 355 58 70 158 156 352 356 
254 8 488 499 491 521 530 388 458 81 
255 9 394 439 521 109 296 23 491 132 24 
256 11 426 456 352 58 259 158 314 355 42 311 155 
257 11 481 464 112 135 321 433 445 382 11 17 44 
258 9 261 166 522 101 341 342 291 139 188 
259 11 352 317 158 134 36 239 314 311 271 155 256 
260 11 94 214 290 313 185 216 118 375 496 329 203 
261 10 258 166 522 101 342 341 188 361 139 291 
262 9 47 534 315 285 341 224 160 291 223 
263 11 430 24 50 109 93 289 439 64 381 216 375 
264 11 418 324 40 281 75 12 86 51 303 41 180 
265 11 167 87 10 400 111 377 150 293 334 46 298 
266 11 14 417 423 378 296 183 469 69 243 380 524 
267 11 129 208 465 533 293 498 87 486 46 334 529 
268 11 144 148 42 302 206 312 405 119 251 66 411 
269 11 532 213 441 4 171 364 43 304 461 193 323 
270 11 433 92 211 257 481 88 321 135 358 189 207 
271 9 239 317 134 246 401 36 235 249 259 
272 11 53 460 420 452 408 10 167 400 397 516 363 
273 11 110 77 20 463 192 457 30 128 276 525 467 
274 6 297 493 62 173 387 89 
275 11 459 250 507 181 3 8 85 209 472 141 223 
276 11 467 37 403 525 77 128 509 191 535 457 391 
277 11 331 490 78 234 188 347 395 322 462 169 101 
278 10 203 329 313 496 346 290 94 260 299 172 
279 11 83 25 72 155 376 105 448 194 284 256 137 
280 11 71 91 326 56 432 248 384 97 115 435 162 
281 11 75 324 40 51 264 303 151 149 86 418 12 
282 10 428 337 63 179 541 168 221 527 295 298 
283 10 349 396 487 145 33 247 470 66 357 125 
284 10 332 330 383 196 447 105 249 292 140 155 
285 11 534 47 315 223 262 291 341 3 374 318 85 
286 11 123 455 320 100 391 457 128 192 442 34 204 
287 11 361 342 101 347 169 188 166 176 522 234 261 
288 7 175 404 415 406 65 161 443 
289 11 93 430 24 109 263 375 216 439 503 50 185 
290 11 94 185 260 313 214 216 375 203 515 118 93 
291 11 223 341 85 3 285 534 250 258 261 74 507 
292 11 140 196 370 113 332 220 330 392 154 231 284 
293 11 87 46 129 377 267 334 111 208 265 150 168 
294 11 190 108 38 228 402 227 489 518 174 454 5 
295 10 305 428 282 517 392 372 398 527 541 113 
296 9 378 417 423 394 255 14 266 499 254 
297 5 274 173 493 62 387 
298 11 150 221 168 63 407 337 111 377 167 265 179 
299 6 215 343 367 494 479 9 
300 9 68 121 526 500 398 541 116 146 428 
301 11 127 233 510 49 82 126 164 52 528 338 122 
302 11 405 144 268 119 206 251 411 148 29 357 66 
303 11 149 492 75 40 86 151 51 281 324 339 35 
304 11 193 412 310 242 269 532 76 43 213 323 44 
305 10 295 517 372 392 113 370 220 527 140 348 
306 11 348 31 130 154 231 143 114 340 220 427 429 
307 11 186 199 476 539 416 502 241 26 244 538 434 
308 11 124 222 18 116 350 460 407 179 221 272 63 
309 11 61 99 103 389 165 137 399 148 426 144 405 
310 11 79 468 193 354 304 76 382 437 44 445 11 
311 11 314 158 253 495 352 355 58 471 70 36 134 
312 11 125 473 42 66 268 145 206 357 119 144 148 
313 11 260 94 290 329 496 185 203 214 278 346 172 
314 11 311 158 253 352 355 58 495 471 259 36 70 
315 11 47 262 534 285 160 224 318 511 223 341 438 
316 11 152 210 237 139 74 504 219 462 85 507 325 
317 11 239 134 259 271 36 352 158 246 235 311 314 
318 11 438 369 160 511 387 315 374 224 47 285 13 
319 9 478 413 184 209 472 8 141 182 181 
320 11 34 286 204 100 123 455 356 442 2 106 235 
321 11 135 433 481 328 257 11 542 102 464 112 44 
322 11 78 395 277 331 492 169 234 347 506 490 462 
323 11 242 22 43 157 197 388 213 65 304 193 269 
324 11 40 281 75 264 418 86 303 51 12 149 151 
325 11 339 84 462 238 501 395 152 385 210 480 277 
326 11 280 71 91 248 444 56 162 187 432 435 115 
327 11 368 147 519 524 69 266 183 14 419 469 493 
328 11 542 102 321 135 433 458 481 81 11 257 44 
329 10 496 313 278 346 172 203 260 94 290 214 
330 9 332 447 284 249 196 105 383 292 155 
331 11 277 234 490 78 188 347 395 322 169 101 462 
332 9 196 330 284 383 447 292 249 140 105 
333 11 73 29 399 195 405 15 302 344 453 540 451 
334 11 293 87 129 54 400 265 267 10 208 46 377 
335 10 118 214 381 216 50 64 260 94 375 6 
336 7 21 173 493 274 297 519 147 
337 11 168 63 298 221 150 282 111 527 377 179 46 
338 11 126 9 510 479 494 440 122 52 367 82 57 
339 11 84 325 238 501 462 480 385 170 395 35 152 
340 10 114 431 31 143 427 401 429 425 231 154 
341 9 291 534 258 522 166 262 285 261 47 
342 8 166 522 361 287 261 101 258 188 
343 7 215 299 367 494 9 479 245 
344 8 453 353 29 449 251 119 411 333 
345 9 537 142 513 146 5 500 174 526 398 
346 9 172 496 329 483 176 313 28 278 260 
347 11 234 188 169 490 331 78 101 277 361 506 287 
348 11 154 220 231 306 143 31 113 372 427 517 340 
349 8 283 487 33 396 531 470 107 145 
350 11 308 222 124 363 116 18 460 272 420 53 407 
351 11 386 49 436 233 127 502 528 307 186 301 476 
352 11 259 158 314 317 311 134 36 239 253 256 271 
353 8 449 453 344 245 57 104 247 164 
354 11 382 468 445 17 112 464 310 79 44 59 11 
355 11 58 253 495 314 311 471 70 158 473 156 352 
356 11 34 204 106 70 156 471 320 495 7 100 133 
357 9 66 411 206 251 119 247 396 145 312 
358 11 207 414 466 90 59 163 189 211 505 17 88 
359 11 240 136 177 512 360 55 422 153 60 385 480 
360 11 60 240 55 136 153 422 359 478 141 319 8 
361 11 287 342 101 188 347 169 166 234 522 261 490 
362 11 95 485 80 451 15 48 540 230 229 226 67 
363 11 420 516 53 39 272 446 162 187 460 444 408 
364 11 441 205 4 404 213 415 269 531 532 171 107 
365 11 244 538 539 409 98 506 476 484 199 41 169 
366 11 48 80 67 95 229 108 362 485 202 230 402 
367 10 494 215 343 9 299 479 245 57 126 338 
368 11 327 147 519 524 183 266 419 469 14 69 371 
369 9 438 318 387 182 374 160 511 315 47 
370 11 392 140 113 292 372 220 196 517 332 348 154 
371 11 419 435 56 183 432 232 91 71 469 280 380 
372 11 113 517 220 392 370 348 140 305 292 154 231 
373 11 2 474 235 246 425 442 401 114 340 429 455 
374 10 182 459 472 438 223 275 369 318 3 250 
375 11 216 185 93 289 290 94 118 214 260 430 263 
376 11 72 25 448 523 83 454 194 227 279 489 450 
377 11 111 46 87 150 168 293 265 298 337 167 221 
378 9 296 417 423 394 255 266 380 14 499 
379 11 252 7 475 32 4 393 520 133 171 461 225 
380 10 469 183 102 378 542 417 296 266 328 499 
381 11 64 50 6 335 118 263 430 24 216 93 109 
382 11 354 445 17 468 112 464 44 59 310 11 76 
383 11 284 332 196 330 292 140 447 105 249 370 523 
384 11 97 115 432 56 91 280 71 419 326 371 435 
385 11 480 170 238 501 512 84 177 35 339 325 152 
386 11 351 49 436 528 127 233 138 502 301 307 226 
387 10 318 511 13 160 369 438 19 224 236 424 
388 10 197 242 530 157 323 22 412 81 254 488 
389 11 103 61 165 309 99 137 426 148 399 456 144 
390 11 508 35 170 480 151 501 177 512 385 149 51 
391 11 128 525 123 191 403 457 100 192 276 286 77 
392 11 370 113 372 140 220 292 517 305 196 348 154 
393 11 32 7 475 106 198 379 100 191 461 252 535 
394 9 255 521 296 491 23 439 132 109 378 
395 11 322 78 277 331 462 325 234 490 492 339 347 
396 11 283 145 247 66 357 349 125 411 33 206 487 
397 11 408 45 482 452 54 505 88 189 211 400 444 
398 9 121 526 146 500 541 300 68 428 295 
399 11 73 405 333 29 302 103 144 99 148 389 15 
400 11 10 167 265 452 334 54 87 293 111 377 397 
401 10 431 427 340 143 425 246 114 271 31 373 
402 11 108 38 294 190 366 67 229 489 202 518 227 
403 11 191 525 128 391 276 37 457 509 535 467 123 
404 10 415 364 531 205 441 288 107 213 4 269 
405 11 302 144 148 268 399 29 119 73 206 251 333 
406 11 65 161 443 22 157 288 43 323 23 132 197 
407 11 221 298 63 18 150 179 168 337 167 111 124 
408 11 397 452 45 444 482 53 248 187 54 272 88 
409 11 52 122 244 82 476 440 365 28 539 510 338 
410 11 201 351 386 120 436 48 49 528 138 477 226 
411 9 251 119 206 357 66 247 302 268 396 
412 11 193 304 76 530 81 388 11 44 242 310 458 
413 9 319 184 478 472 209 8 182 141 181 
414 11 466 358 189 207 505 90 211 163 88 59 54 
415 10 404 531 205 364 441 107 288 4 213 349 
416 11 26 241 199 434 186 307 538 539 41 476 244 
417 10 378 296 423 266 14 380 243 469 394 255 
418 11 264 324 40 12 281 41 86 75 484 26 434 
419 11 371 56 432 435 91 97 183 71 384 368 280 
420 11 53 272 516 363 187 408 460 39 444 452 162 
421 10 27 16 200 345 537 142 500 174 146 526 
422 11 55 153 136 141 240 360 8 181 209 504 60 
423 11 417 296 243 378 14 266 255 394 536 96 439 
424 11 236 89 96 62 536 13 69 19 243 387 511 
425 11 373 2 474 246 114 340 401 429 442 431 235 
426 11 456 256 165 42 389 148 58 61 144 103 309 
427 9 143 431 340 401 31 231 114 154 425 
428 10 541 282 179 295 398 63 121 337 526 221 
429 11 114 340 31 486 425 431 143 401 373 427 2 
430 11 24 263 109 289 93 439 50 64 375 381 216 
431 10 340 427 143 401 31 114 425 429 231 154 
432 11 56 97 384 91 71 280 115 419 326 371 435 
433 11 321 481 135 257 270 328 542 102 464 112 11 
434 11 241 26 416 199 41 186 307 538 539 12 418 
435 11 371 232 56 419 71 91 280 432 326 183 469 
436 11 528 138 49 127 104 226 195 301 233 386 164 
437 11 198 79 461 509 535 171 310 475 37 532 468 
438 9 369 318 374 182 387 160 511 315 47 
439 11 109 24 430 263 50 289 93 255 243 64 394 
440 11 479 122 338 52 9 494 28 510 126 409 367 
441 11 364 4 205 213 269 532 404 415 171 461 531 
442 10 2 373 474 455 235 425 246 286 320 529 
443 10 161 159 406 65 175 503 515 288 23 132 
444 11 187 248 162 408 326 397 45 280 71 39 516 
445 11 382 112 464 17 354 468 44 11 257 59 76 
446 11 39 162 516 115 178 187 444 384 280 326 363 
447 9 249 330 105 332 284 155 196 239 271 
448 11 194 454 376 72 25 489 227 279 514 83 137 
449 8 353 453 344 245 57 164 247 104 
450 11 523 212 228 227 376 72 489 5 25 383 454 
451 11 15 540 226 195 362 73 333 399 485 29 99 
452 11 10 400 397 408 54 167 272 53 482 265 45 
453 8 344 353 449 104 29 333 73 251 
454 11 489 448 194 227 376 72 25 514 523 228 202 
455 10 286 442 320 529 123 2 192 498 373 457 
456 11 426 256 42 148 165 144 58 268 389 355 312 
457 11 128 192 525 391 77 123 273 403 191 276 110 
458 10 81 530 488 499 254 328 388 412 11 76 
459 11 275 250 3 507 181 223 472 8 85 209 374 
460 11 272 167 10 53 452 407 400 265 18 420 298 
461 11 171 475 437 4 198 532 379 32 393 269 535 
462 11 325 277 395 210 331 339 139 316 490 152 84 
463 11 30 110 273 20 77 192 533 457 465 128 276 
464 11 112 445 257 382 17 44 354 481 11 76 468 
465 10 533 498 30 529 463 267 110 208 129 273 
466 11 414 358 207 189 90 505 211 163 59 88 54 
467 11 276 37 77 403 509 525 128 535 20 191 457 
468 11 354 382 17 79 445 310 112 464 59 44 37 
469 11 183 380 266 417 378 102 542 296 371 14 435 
470 11 33 225 107 520 531 133 145 252 125 349 205 
471 11 70 495 253 156 311 355 356 314 58 133 34 
472 10 209 8 182 184 181 413 459 275 374 141 
473 11 125 312 145 58 355 42 66 470 33 495 156 
474 11 2 373 235 246 442 425 401 36 134 455 271 
475 11 461 171 379 4 32 198 393 7 437 532 252 
476 11 539 502 244 307 186 199 409 82 52 365 122 
477 11 497 410 120 201 351 386 241 434 416 26 307 
478 9 319 413 184 209 8 472 141 181 182 
479 11 494 9 367 338 440 215 126 299 343 278 510 
480 11 170 385 501 238 35 84 512 177 339 325 390 
481 11 257 135 321 433 464 112 11 445 44 270 328 
482 11 45 505 189 88 54 397 211 92 414 466 408 
483 8 176 172 346 28 496 329 287 342 
484 11 98 12 86 41 538 492 322 365 506 40 78 
485 11 95 80 362 230 229 202 67 514 99 309 61 
486 10 429 498 114 529 31 208 340 425 465 130 
487 5 349 283 396 531 33 
488 8 499 254 530 458 81 491 521 388 
489 11 227 454 448 228 376 194 72 523 25 450 514 
490 11 234 188 331 277 347 101 78 139 169 462 210 
491 8 521 132 254 23 488 197 388 499 
492 11 86 303 322 395 98 78 484 149 339 40 325 
493 10 173 21 274 519 147 297 62 524 336 69 
494 11 9 367 479 215 343 299 338 126 245 440 57 
495 11 471 253 70 355 156 311 58 314 356 158 133 
496 10 172 346 329 313 260 483 94 214 278 290 
497 11 120 180 477 410 434 241 26 351 418 416 264 
498 10 529 465 533 486 455 30 463 192 208 110 
499 8 488 254 458 530 81 491 521 388 
500 9 526 121 146 398 68 300 541 428 295 
501 11 480 170 84 238 385 35 339 325 512 177 390 
502 11 476 233 82 307 186 539 301 52 409 244 199 
503 11 159 289 93 515 23 375 443 161 132 185 109 
504 11 219 74 237 316 507 152 85 250 3 210 275 
505 11 189 211 88 482 414 466 54 45 358 207 92 
506 11 169 78 347 234 322 98 188 331 361 277 287 
507 11 250 275 3 459 85 181 219 74 504 141 8 
508 11 390 151 35 51 149 170 501 480 303 385 84 
509 11 535 37 198 191 403 276 437 467 79 525 128 
510 11 338 126 52 82 122 301 9 479 440 494 164 
511 11 160 224 13 19 318 387 315 438 369 47 6 
512 11 177 385 480 170 359 501 238 35 84 390 136 
513 10 142 537 5 345 212 450 392 174 146 295 
514 11 202 230 229 194 67 137 448 454 485 80 95 
515 10 159 185 290 503 203 375 443 94 161 260 
516 11 39 420 363 162 187 53 444 446 272 248 408 
517 11 372 113 220 305 348 392 527 370 306 154 140 
518 11 174 38 190 294 217 5 142 402 228 108 513 
519 11 147 327 368 493 524 21 69 173 62 336 89 
520 11 225 252 133 107 470 379 33 7 156 205 531 
521 8 491 254 132 23 488 394 499 197 
522 9 166 258 261 342 101 341 361 287 291 
523 11 450 376 72 212 25 228 227 383 489 83 448 
524 11 69 62 327 89 147 14 368 266 519 424 493 
525 11 128 403 391 191 457 276 123 37 77 192 467 
526 9 121 398 500 146 300 68 541 428 295 
527 11 130 517 337 168 282 306 46 372 305 348 220 
528 11 49 436 127 138 104 301 233 164 195 226 453 
529 10 498 455 465 533 486 192 442 30 286 463 
530 10 81 458 388 412 488 499 254 197 242 76 
531 10 107 205 415 404 364 33 225 470 349 441 
532 11 269 213 171 4 441 461 304 364 437 193 475 
533 10 465 498 30 529 463 267 110 129 208 273 
534 10 285 47 262 315 341 223 291 3 160 224 
535 11 509 198 37 191 403 276 437 79 467 525 128 
536 11 96 243 236 424 89 423 14 69 439 13 19 
537 9 345 142 513 146 5 174 500 398 526 
538 11 539 365 41 199 244 416 484 26 186 98 307 
539 11 199 244 186 476 538 307 365 416 409 502 26 
540 11 15 451 226 195 73 333 138 399 29 362 99 
541 10 428 121 398 282 526 179 300 68 116 295 
542 11 102 328 321 135 433 380 458 481 81 232 499 
DEPOT_SECTION
   1
   -1
EOF
