NAME :  X-n573-kX-w114-c9.cctp
COMMENT : 	Adapted by Maziero, Usberti and Cavellucci from the Uchoa, Pecin, Pessoa, Poggi, Subramanian, and Vidal (2013)
TYPE :  CCTP
DIMENSION :    528
EDGE_WEIGHT_TYPE : 	EUC_2D	
CAPACITY : 	210
VERTICES_WITHIN_COVERAGE :  9
VERTICES_WITH_DEMAND : 	114
NODE_COORD_SECTION
1 0 0
2 753 355
3 663 83
4 725 286
5 734 504
6 704 145
7 728 311
8 675 58
9 617 242
10 864 334
11 772 258
12 516 109
13 717 123
14 768 161
15 598 365
16 896 569
17 781 281
18 898 397
19 714 126
20 780 311
21 809 60
22 728 244
23 724 219
24 712 177
25 694 432
26 491 157
27 854 648
28 612 179
29 623 337
30 788 320
31 772 378
32 736 308
33 692 303
34 737 334
35 576 27
36 731 360
37 763 301
38 633 578
39 935 244
40 513 73
41 511 133
42 671 349
43 729 254
44 771 261
45 851 278
46 827 365
47 682 113
48 553 425
49 544 282
50 706 165
51 527 26
52 580 220
53 908 303
54 841 306
55 656 34
56 864 196
57 618 270
58 699 347
59 787 289
60 678 11
61 643 387
62 757 114
63 858 395
64 706 157
65 713 243
66 663 319
67 615 448
68 898 477
69 767 131
70 718 334
71 871 216
72 694 435
73 617 345
74 645 75
75 513 50
76 767 259
77 773 313
78 589 104
79 760 287
80 595 425
81 763 240
82 569 225
83 702 417
84 593 51
85 656 83
86 532 93
87 834 351
88 832 274
89 751 126
90 796 290
91 872 212
92 835 257
93 702 185
94 673 187
95 596 422
96 740 147
97 890 180
98 556 120
99 638 386
100 748 319
101 620 112
102 794 226
103 641 383
104 594 302
105 725 400
106 731 321
107 703 296
108 614 503
109 715 179
110 781 317
111 841 365
112 783 270
113 778 420
114 770 372
115 907 192
116 913 434
117 647 749
118 683 171
119 649 324
120 359 195
121 867 471
122 585 218
123 757 323
124 914 399
125 681 323
126 603 251
127 554 275
128 762 315
129 813 342
130 801 379
131 724 14
132 727 221
133 715 314
134 731 363
135 788 250
136 649 29
137 655 407
138 567 325
139 624 88
140 763 422
141 669 54
142 785 537
143 765 384
144 654 348
145 677 313
146 848 491
147 814 112
148 658 353
149 550 42
150 853 372
151 540 24
152 626 65
153 661 37
154 769 395
155 715 396
156 714 325
157 729 241
158 715 360
159 697 213
160 704 114
161 699 231
162 911 240
163 789 296
164 598 279
165 656 384
166 636 117
167 864 347
168 844 382
169 595 121
170 590 28
171 734 288
172 641 174
173 789 60
174 729 563
175 626 159
176 610 15
177 1000 201
178 875 408
179 419 38
180 671 63
181 803 184
182 690 55
183 680 192
184 511 191
185 899 256
186 610 110
187 827 287
188 672 526
189 755 311
190 770 321
191 750 262
192 665 436
193 595 339
194 736 240
195 747 298
196 511 179
197 753 707
198 413 402
199 628 437
200 661 207
201 737 328
202 711 285
203 655 325
204 800 288
205 804 352
206 678 59
207 623 79
208 825 278
209 736 469
210 728 268
211 675 177
212 641 245
213 686 180
214 617 646
215 903 84
216 646 72
217 778 409
218 865 386
219 928 420
220 668 91
221 702 123
222 705 306
223 574 355
224 684 468
225 700 483
226 617 442
227 629 426
228 767 394
229 828 227
230 544 253
231 605 107
232 746 356
233 737 130
234 638 79
235 600 47
236 734 377
237 652 13
238 482 164
239 737 249
240 740 161
241 554 181
242 623 270
243 748 363
244 655 305
245 878 250
246 743 397
247 663 78
248 649 322
249 718 309
250 711 345
251 734 195
252 691 372
253 793 263
254 638 111
255 717 372
256 670 184
257 635 112
258 677 120
259 708 173
260 483 71
261 851 348
262 776 165
263 807 346
264 659 341
265 732 272
266 815 259
267 739 375
268 907 319
269 777 316
270 756 77
271 668 72
272 766 304
273 599 97
274 648 208
275 696 412
276 878 216
277 507 50
278 848 417
279 673 295
280 734 420
281 676 104
282 756 332
283 616 134
284 692 255
285 705 186
286 675 191
287 657 99
288 760 418
289 827 350
290 662 529
291 759 191
292 753 72
293 859 378
294 646 242
295 896 475
296 566 258
297 645 338
298 546 60
299 748 263
300 805 435
301 785 387
302 510 198
303 937 390
304 641 386
305 759 274
306 714 352
307 674 332
308 662 189
309 712 354
310 685 112
311 628 73
312 728 372
313 703 99
314 692 48
315 746 335
316 791 248
317 579 98
318 732 249
319 503 63
320 595 63
321 877 228
322 812 137
323 788 235
324 647 192
325 738 410
326 600 100
327 742 417
328 616 343
329 830 330
330 681 162
331 809 41
332 845 394
333 602 236
334 590 57
335 766 375
336 630 128
337 643 248
338 623 315
339 805 534
340 639 178
341 603 114
342 779 398
343 680 289
344 994 383
345 463 284
346 715 367
347 625 297
348 773 278
349 701 345
350 729 331
351 658 317
352 807 287
353 638 7
354 669 12
355 616 128
356 587 403
357 962 294
358 717 278
359 557 161
360 565 465
361 631 245
362 816 144
363 771 428
364 839 190
365 786 419
366 754 358
367 690 187
368 692 441
369 839 365
370 724 301
371 791 198
372 697 159
373 776 276
374 736 431
375 892 182
376 602 33
377 487 297
378 721 103
379 744 240
380 648 381
381 571 6
382 758 317
383 779 433
384 737 308
385 736 197
386 585 87
387 668 304
388 863 289
389 861 472
390 628 358
391 857 330
392 755 375
393 601 537
394 759 310
395 704 272
396 642 346
397 710 240
398 877 382
399 877 287
400 573 197
401 339 383
402 651 320
403 754 254
404 694 52
405 814 293
406 703 274
407 496 169
408 766 182
409 480 92
410 847 178
411 928 298
412 871 664
413 656 36
414 753 175
415 742 128
416 760 363
417 677 376
418 761 383
419 855 434
420 773 366
421 710 177
422 762 378
423 876 191
424 801 250
425 481 159
426 839 209
427 544 312
428 749 288
429 722 176
430 608 213
431 720 277
432 757 350
433 697 229
434 890 258
435 779 273
436 949 223
437 738 400
438 674 438
439 626 293
440 716 467
441 593 371
442 872 314
443 616 310
444 670 454
445 762 339
446 676 366
447 766 318
448 766 236
449 671 75
450 901 344
451 737 290
452 784 319
453 783 268
454 792 335
455 813 294
456 768 302
457 770 281
458 798 190
459 696 305
460 714 336
461 684 65
462 686 329
463 751 357
464 734 295
465 538 203
466 689 47
467 621 231
468 595 31
469 793 258
470 844 287
471 630 165
472 537 118
473 607 413
474 783 359
475 756 224
476 676 466
477 609 102
478 738 221
479 556 84
480 789 84
481 624 239
482 711 338
483 649 180
484 229 166
485 782 342
486 759 222
487 872 494
488 589 39
489 533 226
490 704 206
491 644 66
492 830 288
493 585 126
494 660 72
495 554 11
496 755 300
497 587 243
498 708 115
499 610 16
500 774 505
501 640 436
502 683 210
503 936 268
504 795 414
505 693 592
506 817 108
507 710 305
508 739 217
509 638 118
510 711 456
511 783 128
512 761 313
513 866 479
514 817 400
515 554 297
516 778 342
517 756 239
518 701 286
519 735 275
520 792 334
521 674 111
522 754 300
523 740 149
524 798 531
525 530 155
526 587 360
527 869 444
528 794 227
DEMAND_SECTION
2 78
3 96
4 64
5 87
6 70
7 57
8 63
9 86
10 89
11 64
12 53
13 86
14 69
15 94
16 62
17 96
18 89
19 92
20 72
21 59
22 93
23 55
24 96
25 81
26 65
27 52
28 99
29 99
30 57
31 100
32 73
33 61
34 64
35 85
36 69
37 55
38 95
39 95
40 64
41 73
42 99
43 88
44 89
45 10
46 9
47 5
48 1
49 3
50 9
51 5
52 4
53 10
54 3
55 5
56 7
57 9
58 6
59 5
60 8
61 2
62 4
63 3
64 3
65 6
66 3
67 3
68 8
69 5
70 9
71 10
72 4
73 2
74 10
75 1
76 3
77 2
78 5
79 4
80 5
81 7
82 3
83 1
84 7
85 9
86 4
87 4
88 6
89 2
90 8
91 8
92 5
93 5
94 9
95 10
96 8
97 1
98 6
99 10
100 6
101 10
102 6
103 7
104 6
105 2
106 9
107 6
108 8
109 6
110 3
111 10
112 6
113 4
114 2
115 9
COVERAGE_SECTION
2 9 366 463 432 232 243 416 445 392 315 
3 9 247 85 220 449 494 271 287 74 216 
4 9 171 431 358 451 464 202 370 519 265 
5 9 209 225 500 440 510 174 142 224 188 
6 9 64 372 50 19 221 13 259 330 498 
7 9 32 384 106 249 370 133 464 201 507 
8 9 206 180 141 461 182 271 449 466 314 
9 9 481 467 361 333 126 212 337 57 242 
10 9 391 167 261 442 87 329 54 450 111 
11 9 44 76 453 112 435 135 373 403 81 
12 9 86 472 41 40 409 98 479 319 525 
13 9 19 498 221 160 378 233 415 6 313 
14 8 262 408 414 240 69 523 96 291 
15 9 441 526 193 223 73 328 390 29 356 
16 8 487 27 68 146 295 513 339 412 
17 9 373 435 348 59 112 457 453 90 163 
18 9 124 178 398 218 219 63 116 303 293 
19 9 13 221 498 160 6 233 378 415 313 
20 9 110 269 77 452 30 190 456 272 447 
21 7 331 173 480 506 147 270 292 
22 8 157 318 194 43 239 65 379 397 
23 8 132 478 508 157 194 490 22 385 
24 9 421 109 259 429 285 50 93 64 372 
25 9 72 368 83 275 438 192 510 444 224 
26 8 425 238 407 196 41 184 525 302 
27 8 412 16 197 339 524 142 174 487 
28 8 471 175 340 172 430 324 483 400 
29 9 328 73 396 297 338 390 193 443 119 
30 9 452 110 20 269 520 454 77 190 447 
31 9 114 335 143 422 418 420 301 154 228 
32 9 384 7 464 106 370 195 100 249 451 
33 9 459 107 222 145 343 507 518 279 125 
34 9 201 315 350 106 70 100 282 123 460 
35 9 170 488 468 381 376 495 84 149 235 
36 9 134 312 158 232 236 243 267 346 255 
37 9 272 456 496 522 394 512 189 79 128 
38 9 393 290 505 188 214 108 174 225 476 
39 9 162 503 436 185 434 411 245 357 115 
40 9 319 75 277 86 260 298 12 409 479 
41 9 12 525 472 26 407 425 238 86 196 
42 9 148 264 144 307 446 462 58 125 297 
43 9 318 239 22 157 210 194 265 65 299 
44 9 11 76 435 453 112 373 348 305 403 
45 9 470 388 88 492 92 187 208 399 54 
46 9 369 111 289 87 168 205 129 150 263 
47 8 310 521 258 281 160 221 313 220 
48 9 356 80 360 95 473 67 226 441 223 
49 9 127 515 230 427 296 138 104 164 489 
50 9 64 259 372 24 421 109 429 6 93 
51 9 151 75 149 277 495 298 319 381 35 
52 9 122 82 400 497 333 430 126 296 467 
53 9 268 411 399 442 450 503 388 185 434 
54 9 470 492 187 329 388 391 45 405 455 
55 9 413 153 136 237 141 354 8 60 353 
56 9 423 91 71 276 410 364 426 97 375 
57 8 242 164 126 439 9 347 361 481 
58 9 349 250 309 482 306 460 158 462 70 
59 9 163 90 17 204 373 348 435 112 457 
60 9 354 237 153 55 413 136 466 314 353 
61 9 304 103 99 380 165 137 390 417 148 
62 9 89 69 415 233 511 96 270 378 523 
63 9 218 332 293 168 178 398 150 278 111 
64 9 50 372 6 259 421 24 109 330 429 
65 9 397 22 157 161 43 318 433 194 284 
66 9 351 203 402 248 119 145 244 387 307 
67 9 226 199 227 501 80 95 473 192 356 
68 9 295 487 121 513 389 527 116 146 419 
69 9 511 89 62 415 14 233 96 523 262 
70 9 460 482 156 350 250 106 306 34 133 
71 9 91 276 321 56 423 426 245 375 97 
72 9 25 368 83 438 275 510 192 444 224 
73 9 328 29 390 193 396 15 297 338 526 
74 9 216 234 491 85 494 311 247 3 152 
75 9 277 319 40 51 298 151 260 149 86 
76 9 44 11 403 191 305 435 453 81 112 
77 9 269 20 110 190 447 128 272 456 512 
78 9 273 317 326 231 341 386 169 477 186 
79 9 428 457 305 37 496 522 348 195 456 
80 9 95 473 356 226 67 227 199 48 501 
81 9 448 517 403 475 486 76 379 11 44 
82 9 52 122 497 400 296 333 489 230 465 
83 9 275 25 72 155 368 105 280 438 325 
84 8 334 235 320 488 376 468 170 35 
85 9 3 247 494 74 220 216 271 287 449 
86 9 12 472 479 40 98 298 319 41 75 
87 9 289 369 46 111 261 329 129 263 150 
88 9 208 187 492 92 470 45 266 405 352 
89 9 415 62 233 69 96 523 511 13 19 
90 9 204 59 163 352 17 455 405 112 373 
91 9 71 276 321 56 423 426 375 97 245 
92 9 88 266 208 45 187 229 470 492 424 
93 9 285 421 367 24 259 109 213 50 490 
94 9 256 286 183 211 308 213 367 118 200 
95 9 80 473 356 226 67 227 199 48 501 
96 9 523 240 233 415 89 14 69 414 13 
97 9 375 423 115 56 91 276 71 410 321 
98 9 472 493 317 86 479 78 169 12 359 
99 9 304 103 61 380 165 137 390 148 396 
100 9 123 382 189 201 394 512 128 282 32 
101 9 186 257 477 231 355 166 341 254 336 
102 9 528 323 316 135 424 371 448 469 81 
103 9 304 61 99 380 165 137 390 148 144 
104 9 164 443 347 338 439 138 193 57 515 
105 8 155 437 325 246 280 327 236 312 
106 9 201 7 350 32 34 384 100 133 156 
107 9 222 518 459 507 33 202 249 133 370 
108 9 393 67 290 226 188 360 199 476 501 
109 9 24 421 429 259 285 93 50 64 251 
110 9 269 452 20 30 77 190 447 128 272 
111 9 369 46 150 87 168 261 289 293 167 
112 9 453 435 373 17 253 348 44 11 469 
113 9 365 217 363 383 140 288 504 342 154 
114 9 335 31 420 422 143 416 418 392 474 
115 9 375 97 423 276 91 56 71 321 162 
116 9 219 124 18 295 527 68 178 303 419 
117 9 214 197 505 38 174 393 290 188 27 
118 9 213 330 211 367 256 372 94 183 286 
119 8 248 402 203 351 66 297 244 264 
120 9 238 425 484 26 345 407 302 184 196 
121 8 389 513 487 527 146 295 68 419 
122 9 52 82 400 430 333 497 126 467 9 
123 9 382 128 282 100 447 512 189 190 394 
124 9 18 219 303 116 178 398 218 63 450 
125 9 462 145 307 66 33 387 459 351 203 
126 9 333 9 497 57 481 467 164 242 361 
127 9 49 296 515 230 427 164 497 104 82 
128 9 512 382 447 394 189 123 190 77 272 
129 9 263 205 289 329 454 520 87 46 485 
130 9 301 514 205 474 31 342 46 420 114 
131 5 60 314 404 466 182 
132 6 23 478 508 157 194 22 
133 9 249 507 156 7 222 370 106 70 459 
134 9 36 312 236 267 158 346 232 243 255 
135 9 316 469 424 253 323 11 453 44 112 
136 9 55 413 153 237 353 354 141 60 491 
137 9 61 165 304 99 380 103 192 227 501 
138 9 427 193 223 515 104 526 49 15 443 
139 8 207 311 234 477 152 101 74 186 
140 8 288 363 113 383 217 327 365 154 
141 9 8 180 206 271 153 461 494 182 449 
142 7 524 339 500 5 174 146 209 
143 8 418 422 31 335 228 154 114 392 
144 9 148 264 396 297 42 203 119 248 307 
145 9 125 387 66 33 279 462 307 351 459 
146 7 513 389 487 121 295 527 68 
147 9 506 322 362 511 480 69 21 62 173 
148 9 144 264 42 396 297 446 307 203 119 
149 9 298 151 51 35 495 75 488 170 381 
150 9 293 168 111 369 218 332 63 261 398 
151 9 51 495 149 35 298 381 75 277 170 
152 8 311 207 234 491 74 216 139 320 
153 9 413 55 136 141 8 237 354 180 206 
154 8 228 342 143 418 31 217 301 422 
155 9 105 437 255 83 275 236 312 325 246 
156 9 70 133 460 482 249 350 106 7 250 
157 8 22 194 318 239 43 379 65 397 
158 9 309 346 306 255 36 134 250 312 58 
159 9 490 502 433 161 183 367 23 93 285 
160 8 498 221 313 13 19 310 378 47 
161 8 433 397 65 159 284 490 502 23 
162 9 185 39 434 245 321 503 276 436 71 
163 9 59 90 204 17 20 352 110 456 77 
164 9 57 104 242 126 439 347 443 296 497 
165 9 380 61 103 304 99 417 137 446 148 
166 6 509 257 254 336 101 355 
167 9 10 261 391 150 111 87 293 369 442 
168 9 332 150 293 111 369 63 218 46 514 
169 9 341 493 231 78 186 326 355 273 477 
170 9 468 488 376 35 235 84 499 176 334 
171 9 451 464 4 519 428 195 265 370 431 
172 7 340 483 471 324 175 308 28 
173 6 21 480 331 270 292 506 
174 9 505 5 142 188 500 290 524 339 225 
175 7 471 172 340 28 283 336 483 
176 9 499 376 468 170 353 488 235 35 84 
177 9 436 39 115 503 162 357 375 97 185 
178 9 63 218 18 398 278 332 419 293 527 
179 9 260 409 319 277 75 40 51 12 151 
180 9 8 206 141 271 449 461 494 247 182 
181 8 458 371 262 364 408 14 362 102 
182 7 404 314 466 461 206 8 141 
183 9 286 94 367 213 256 211 308 502 118 
184 8 302 196 407 465 26 238 489 525 
185 9 434 162 245 321 39 399 503 276 53 
186 9 231 341 477 101 326 273 169 355 78 
187 9 492 208 88 405 455 470 352 54 45 
188 9 290 225 224 476 108 38 5 174 505 
189 9 394 512 382 128 100 496 522 123 37 
190 9 447 77 269 128 110 512 123 382 20 
191 9 299 403 305 76 239 519 44 265 11 
192 9 438 444 501 368 25 72 137 476 199 
193 9 328 526 73 15 223 29 138 441 443 
194 8 157 379 22 239 318 43 478 517 
195 9 522 496 428 451 464 384 32 189 37 
196 8 184 407 302 26 525 238 425 465 
197 9 117 27 412 505 174 214 142 38 339 
198 9 401 345 377 48 427 360 223 138 356 
199 9 227 226 501 67 473 80 95 192 137 
200 8 274 308 286 324 502 94 183 256 
201 9 34 106 350 315 100 7 282 32 70 
202 9 358 518 431 4 107 406 395 507 370 
203 9 119 402 248 351 66 264 297 244 307 
204 9 90 352 59 163 455 405 17 112 253 
205 9 263 129 454 474 520 289 485 46 130 
206 9 8 180 461 141 182 271 466 404 449 
207 8 311 139 152 234 74 216 491 477 
208 9 88 187 492 405 352 455 266 470 92 
209 8 440 510 5 374 225 280 224 327 
210 9 265 519 431 43 358 4 318 171 239 
211 9 256 94 118 213 286 183 330 308 367 
212 6 337 294 361 481 9 467 
213 9 367 118 211 183 94 256 286 93 330 
214 9 38 505 117 393 290 188 174 108 197 
215 9 506 147 21 97 375 331 322 362 115 
216 9 74 491 234 494 85 247 311 3 152 
217 9 113 342 365 154 504 228 140 288 363 
218 9 293 63 398 150 168 332 178 111 369 
219 9 116 124 303 18 178 68 295 398 527 
220 8 3 85 247 287 281 449 271 494 
221 9 160 498 19 13 310 6 47 313 258 
222 9 507 459 107 33 133 249 370 518 156 
223 9 526 441 15 193 138 73 328 356 29 
224 9 476 444 225 368 510 438 440 72 25 
225 9 224 440 476 510 209 5 444 368 72 
226 9 67 199 227 501 80 95 473 192 356 
227 9 199 501 226 67 473 137 95 80 192 
228 8 154 143 342 418 31 422 217 301 
229 9 426 92 102 528 266 424 364 323 316 
230 9 296 127 49 489 82 497 515 52 465 
231 9 186 477 341 326 273 78 101 169 355 
232 9 463 2 243 366 432 36 416 134 267 
233 9 415 89 96 523 13 19 62 69 240 
234 9 74 216 311 491 207 139 85 152 494 
235 8 84 334 376 488 320 468 170 35 
236 8 267 312 134 36 255 243 346 392 
237 9 353 136 354 55 413 60 153 176 499 
238 8 425 26 407 196 184 41 302 525 
239 9 318 43 194 22 157 379 191 299 403 
240 9 523 96 414 429 14 109 233 24 408 
241 8 359 400 465 525 196 184 82 52 
242 8 57 439 361 164 347 126 9 337 
243 9 232 463 366 2 416 392 267 432 36 
244 6 351 387 66 402 248 119 
245 9 434 185 321 162 276 71 399 91 45 
246 7 437 325 105 327 236 267 418 
247 9 3 494 271 85 449 220 180 74 216 
248 7 119 402 203 351 66 297 244 
249 9 133 507 7 370 222 156 32 106 384 
250 9 482 306 309 460 349 58 70 158 156 
251 8 385 429 508 109 291 23 478 132 
252 9 417 446 346 58 255 158 309 349 42 
253 9 469 453 112 135 316 424 435 373 11 
254 6 257 166 509 101 336 287 
255 9 346 312 158 134 36 236 309 306 267 
256 9 94 211 286 308 183 213 118 367 483 
257 7 254 166 509 101 336 186 355 
258 6 47 521 310 281 221 160 
259 9 421 24 50 109 93 285 429 64 372 
260 9 409 319 40 277 75 12 86 51 298 
261 9 167 87 10 391 111 369 150 289 329 
262 8 14 408 414 291 181 458 69 240 
263 9 129 205 454 520 289 485 87 474 46 
264 9 144 148 42 297 203 307 396 119 248 
265 9 519 210 431 4 171 358 43 299 451 
266 9 424 92 208 253 469 88 316 135 352 
267 7 236 312 134 243 392 36 232 
268 9 53 450 411 442 399 10 167 391 388 
269 9 110 77 20 452 190 447 30 128 272 
270 5 292 480 62 173 378 
271 9 449 247 494 180 3 8 85 206 461 
272 9 456 37 394 512 77 128 496 189 522 
273 8 326 477 78 231 186 341 386 317 
274 8 200 324 308 483 340 286 94 256 
275 9 83 25 72 155 368 105 438 192 280 
276 9 71 91 321 56 423 245 375 97 115 
277 9 75 319 40 51 260 298 151 149 86 
278 8 419 332 63 178 527 168 218 514 
279 7 343 387 145 33 244 459 66 
280 8 327 325 374 437 105 246 288 140 
281 7 521 47 310 220 258 287 3 
282 9 123 445 315 100 382 447 128 190 432 
283 9 355 336 101 341 169 186 166 175 509 
284 5 395 406 397 65 161 
285 9 93 421 24 109 259 367 213 429 490 
286 9 94 183 256 308 211 213 367 200 502 
287 8 220 85 3 281 521 247 254 257 
288 8 140 363 113 327 217 325 383 154 
289 9 87 46 129 369 263 329 111 205 261 
290 9 188 108 38 225 393 224 476 505 174 
291 6 408 414 385 251 14 262 
292 4 270 173 480 62 
293 9 150 218 168 63 398 332 111 369 167 
294 6 212 337 361 481 467 9 
295 9 68 121 513 487 389 527 116 146 419 
296 9 127 230 497 49 82 126 164 52 515 
297 9 396 144 264 119 203 248 402 148 29 
298 9 149 479 75 40 86 151 51 277 319 
299 9 191 403 305 239 265 519 76 43 210 
300 7 504 365 383 113 363 217 514 
301 9 342 31 130 154 228 143 114 335 217 
302 8 184 196 465 407 489 238 26 241 
303 9 124 219 18 116 344 450 398 178 218 
304 9 61 99 103 380 165 137 390 148 417 
305 9 79 457 191 348 299 76 373 428 44 
306 9 309 158 250 482 346 349 58 460 70 
307 9 125 462 42 66 264 145 203 351 119 
308 9 256 94 286 324 483 183 200 211 274 
309 9 306 158 250 346 349 58 482 460 255 
310 9 47 258 521 281 160 221 313 498 220 
311 8 152 207 234 139 74 491 216 85 
312 9 236 134 255 267 36 346 158 243 232 
313 6 160 498 378 310 221 47 
314 7 466 404 182 206 461 8 141 
315 9 34 282 201 100 123 445 350 432 2 
316 9 135 424 469 323 253 11 528 102 453 
317 9 78 386 273 326 479 169 231 341 493 
318 9 239 22 43 157 194 379 210 65 299 
319 9 40 277 75 260 409 86 298 51 12 
320 8 334 84 235 488 386 152 376 207 
321 9 276 71 91 245 434 56 162 185 423 
322 9 362 147 506 511 69 262 181 14 410 
323 9 528 102 316 135 424 448 469 81 11 
324 9 483 308 274 340 172 200 256 94 286 
325 7 327 437 280 246 105 374 288 
326 9 273 231 477 78 186 341 386 317 169 
327 8 325 280 374 437 288 246 140 105 
328 9 73 29 390 193 396 15 297 338 443 
329 9 289 87 129 54 391 261 263 10 205 
330 8 118 211 372 213 50 64 256 94 
331 7 21 173 480 270 292 506 147 
332 9 168 63 293 218 150 278 111 514 369 
333 9 126 9 497 467 481 430 122 52 361 
334 8 84 320 235 488 468 376 170 386 
335 9 114 422 31 143 418 392 420 416 228 
336 7 166 509 355 283 257 101 254 
337 6 212 294 361 481 9 467 
338 6 443 347 29 439 248 119 
339 7 524 142 500 146 5 487 174 
340 7 172 483 324 471 175 308 28 
341 9 231 186 169 477 326 78 101 273 355 
342 9 154 217 228 301 143 31 113 365 418 
343 7 279 33 387 518 459 107 145 
344 9 303 219 124 357 116 18 450 268 411 
345 9 377 49 427 230 127 489 515 302 184 
346 9 255 158 309 312 306 134 36 236 250 
347 6 439 443 338 242 57 104 
348 9 373 457 435 17 112 453 305 79 44 
349 9 58 250 482 309 306 460 70 158 462 
350 9 34 201 106 70 156 460 315 482 7 
351 8 66 402 203 248 119 244 387 145 
352 9 204 405 455 90 59 163 187 208 492 
353 9 237 136 176 499 354 55 413 153 60 
354 9 60 237 55 136 153 413 353 466 141 
355 9 283 336 101 186 341 169 166 231 509 
356 9 95 473 80 441 15 48 526 227 226 
357 9 411 503 53 39 268 436 162 185 450 
358 9 431 202 4 395 210 406 265 518 519 
359 8 241 525 400 98 493 465 472 196 
360 9 48 80 67 95 226 108 356 473 199 
361 9 481 212 337 9 294 467 242 57 126 
362 9 322 147 506 511 181 262 410 458 14 
363 8 383 140 113 288 365 217 504 327 
364 9 410 426 56 181 423 229 91 71 458 
365 9 113 504 217 383 363 342 140 300 288 
366 9 2 463 232 243 416 432 392 114 335 
367 9 213 183 93 285 286 94 118 211 256 
368 9 72 25 438 510 83 444 192 224 275 
369 9 111 46 87 150 168 289 261 293 332 
370 9 249 7 464 32 4 384 507 133 171 
371 8 458 181 102 528 408 291 262 323 
372 9 64 50 6 330 118 259 421 24 213 
373 9 348 435 17 457 112 453 44 59 305 
374 8 280 327 325 288 140 437 105 246 
375 9 97 115 423 56 91 276 71 410 321 
376 9 468 170 235 488 499 84 176 35 334 
377 9 345 49 427 515 127 230 138 489 296 
378 7 313 498 13 160 19 221 233 
379 8 194 239 517 157 318 22 403 81 
380 9 103 61 165 304 99 137 417 148 390 
381 9 495 35 170 468 151 488 176 499 376 
382 9 128 512 123 189 394 447 100 190 272 
383 8 363 113 365 140 217 288 504 300 
384 9 32 7 464 106 195 370 100 189 451 
385 7 251 508 291 478 23 429 132 
386 8 317 78 273 326 320 231 477 479 
387 9 279 145 244 66 351 343 125 402 33 
388 9 399 45 470 442 54 492 88 187 208 
389 7 121 513 146 487 527 295 68 
390 9 73 396 328 29 297 103 144 99 148 
391 9 10 167 261 442 329 54 87 289 111 
392 8 422 418 335 143 416 243 114 267 
393 9 108 38 290 188 360 67 226 476 199 
394 9 189 512 128 382 272 37 447 496 522 
395 8 406 358 518 202 431 284 107 210 
396 9 297 144 148 264 390 29 119 73 203 
397 9 65 161 433 22 157 284 43 318 23 
398 9 218 293 63 18 150 178 168 332 167 
399 9 388 442 45 434 470 53 245 185 54 
400 8 52 122 241 82 465 430 359 28 
401 9 198 345 377 120 427 48 49 515 138 
402 7 248 119 203 351 66 244 297 
403 9 191 299 76 517 81 379 11 44 239 
404 6 314 182 466 461 206 8 
405 9 455 352 187 204 492 90 208 163 88 
406 8 395 518 202 358 431 107 284 4 
407 8 26 238 196 425 184 302 525 41 
408 7 291 414 262 14 371 240 458 
409 9 260 319 40 12 277 41 86 75 472 
410 9 364 56 423 426 91 97 181 71 375 
411 9 53 268 503 357 185 399 450 39 434 
412 8 27 16 197 339 524 142 487 174 
413 9 55 153 136 141 237 354 8 180 206 
414 8 408 291 240 14 262 251 385 523 
415 9 233 89 96 62 523 13 69 19 240 
416 9 366 2 463 243 114 335 392 420 432 
417 9 446 252 165 42 380 148 58 61 144 
418 8 143 422 335 392 31 228 114 154 
419 7 527 278 178 389 63 121 332 
420 9 114 335 31 474 416 422 143 392 366 
421 9 24 259 109 285 93 429 50 64 367 
422 8 335 418 143 392 31 114 416 420 
423 9 56 97 375 91 71 276 115 410 321 
424 9 316 469 135 253 266 323 528 102 453 
425 8 238 26 407 196 41 184 302 525 
426 9 364 229 56 410 71 91 276 423 321 
427 9 515 138 49 127 104 223 193 296 230 
428 9 195 79 451 496 522 171 305 464 37 
429 9 109 24 421 259 50 285 93 251 240 
430 9 467 122 333 52 9 481 28 497 126 
431 9 358 4 202 210 265 519 395 406 171 
432 9 2 366 463 445 232 416 243 282 315 
433 8 161 159 397 65 490 502 284 23 
434 9 185 245 162 399 321 388 45 276 71 
435 9 373 112 453 17 348 457 44 11 253 
436 9 39 162 503 115 177 185 434 375 276 
437 6 246 325 105 327 280 155 
438 9 192 444 368 72 25 476 224 275 501 
439 6 347 443 338 242 57 164 
440 9 510 209 225 224 368 72 476 5 25 
441 9 15 526 223 193 356 73 328 390 473 
442 9 10 391 388 399 54 167 268 53 470 
443 6 338 347 439 104 29 328 
444 9 476 438 192 224 368 72 25 501 510 
445 8 282 432 315 516 123 2 190 485 
446 9 417 252 42 148 165 144 58 264 380 
447 9 128 190 512 382 77 123 269 394 189 
448 8 81 517 475 486 323 379 403 11 
449 9 271 247 3 494 180 220 461 8 85 
450 9 268 167 10 53 442 398 391 261 18 
451 9 171 464 428 4 195 519 370 32 384 
452 9 30 110 269 20 77 190 520 447 454 
453 9 112 435 253 373 17 44 348 469 11 
454 8 520 485 30 516 452 263 110 205 
455 9 405 352 204 187 90 492 208 163 59 
456 9 272 37 77 394 496 512 128 522 20 
457 9 348 373 17 79 435 305 112 453 59 
458 8 181 371 262 408 102 528 291 364 
459 9 33 222 107 507 518 133 145 249 125 
460 9 70 482 250 156 306 349 350 309 58 
461 7 206 8 182 180 404 449 271 
462 9 125 307 145 58 349 42 66 459 33 
463 9 2 366 232 243 432 416 392 36 134 
464 9 451 171 370 4 32 195 384 7 428 
465 8 489 241 302 184 196 400 82 52 
466 8 314 404 182 206 8 461 141 180 
467 9 481 9 361 333 430 212 126 294 337 
468 9 170 376 488 235 35 84 499 176 334 
469 9 253 135 316 424 453 112 11 435 44 
470 9 45 492 187 88 54 388 208 92 405 
471 7 175 172 340 28 483 324 283 
472 9 98 12 86 41 525 479 317 359 493 
473 9 95 80 356 227 226 199 67 501 99 
474 8 420 485 114 516 31 205 335 416 
475 5 486 517 448 81 478 
476 9 224 444 438 225 368 192 72 510 25 
477 9 231 186 326 273 341 101 78 139 169 
478 5 508 132 23 475 194 
479 9 86 298 317 386 98 78 472 149 334 
480 8 173 21 270 506 147 292 62 511 
481 9 9 361 467 212 337 294 333 126 242 
482 9 460 250 70 349 156 306 58 309 350 
483 8 172 340 324 308 256 471 94 211 
484 8 120 179 401 425 238 26 345 409 
485 8 516 454 520 474 445 30 452 190 
486 5 475 448 517 81 478 
487 7 513 121 146 389 68 295 527 
488 9 468 170 84 235 376 35 334 320 499 
489 8 465 230 82 302 184 296 52 400 
490 9 159 285 93 502 23 367 433 161 132 
491 9 216 74 234 311 494 152 85 247 3 
492 9 187 208 88 470 405 455 54 45 352 
493 9 169 78 341 231 317 98 186 326 355 
494 9 247 271 3 449 85 180 216 74 491 
495 9 381 151 35 51 149 170 488 468 298 
496 9 522 37 195 189 394 272 428 456 79 
497 9 333 126 52 82 122 296 9 467 430 
498 7 160 221 13 19 313 378 310 
499 9 176 376 468 170 353 488 235 35 84 
500 8 142 524 5 339 209 440 383 174 
501 9 199 227 226 192 67 137 438 444 473 
502 8 159 183 286 490 200 367 433 94 
503 9 39 411 357 162 185 53 434 436 268 
504 9 365 113 217 300 342 383 514 363 301 
505 9 174 38 188 290 214 5 142 393 225 
506 9 147 322 362 480 511 21 69 173 62 
507 9 222 249 133 107 459 370 33 7 156 
508 5 478 132 23 475 385 
509 6 166 254 257 336 101 355 
510 9 440 368 72 209 25 225 224 374 476 
511 9 69 62 322 89 147 14 362 262 506 
512 9 128 394 382 189 447 272 123 37 77 
513 7 121 389 487 146 295 68 527 
514 9 130 504 332 168 278 301 46 365 300 
515 9 49 427 127 138 104 296 230 164 193 
516 8 485 445 454 520 474 190 432 30 
517 7 81 448 379 403 475 486 194 
518 8 107 202 406 395 358 33 222 459 
519 9 265 210 171 4 431 451 299 358 428 
520 8 454 485 30 516 452 263 110 129 
521 7 281 47 258 310 220 287 3 
522 9 496 195 37 189 394 272 428 79 456 
523 9 96 240 233 415 89 414 14 69 429 
524 7 339 142 500 146 5 174 487 
525 8 359 41 196 241 407 472 26 184 
526 9 15 441 223 193 73 328 138 390 29 
527 8 419 121 389 278 513 178 295 68 
528 9 102 323 316 135 424 371 448 469 81 
DEPOT_SECTION
   1
   -1
EOF
