NAME :  X-n561-kX-w224-c9.cctp
COMMENT : 	Adapted by Maziero, Usberti and Cavellucci from the Uchoa, Pecin, Pessoa, Poggi, Subramanian, and Vidal (2013)
TYPE :  CCTP
DIMENSION :    540
EDGE_WEIGHT_TYPE : 	EUC_2D	
CAPACITY : 	74
VERTICES_WITHIN_COVERAGE :  9
VERTICES_WITH_DEMAND : 	224
NODE_COORD_SECTION
1 500 500
2 487 949
3 492 770
4 150 556
5 130 719
6 962 393
7 54 890
8 861 705
9 338 631
10 119 741
11 48 296
12 982 827
13 18 954
14 558 698
15 857 337
16 963 72
17 218 46
18 705 484
19 315 3
20 331 358
21 688 156
22 314 338
23 214 428
24 193 866
25 381 924
26 968 10
27 797 382
28 733 544
29 956 878
30 576 270
31 257 778
32 713 605
33 270 940
34 880 401
35 245 168
36 973 29
37 888 919
38 943 703
39 364 248
40 932 60
41 575 18
42 663 990
43 667 351
44 85 708
45 801 330
46 261 91
47 163 953
48 509 249
49 237 336
50 791 356
51 314 168
52 356 726
53 260 412
54 630 144
55 534 255
56 356 444
57 448 320
58 987 333
59 691 109
60 319 476
61 83 716
62 395 818
63 605 769
64 633 162
65 651 644
66 221 4
67 551 912
68 762 604
69 337 41
70 156 318
71 756 357
72 749 173
73 535 235
74 719 700
75 900 564
76 717 4
77 337 441
78 759 103
79 615 132
80 365 498
81 42 268
82 952 2
83 989 303
84 471 821
85 650 215
86 302 881
87 61 459
88 391 405
89 364 170
90 643 744
91 324 620
92 559 449
93 92 914
94 133 607
95 223 949
96 988 415
97 943 616
98 764 6
99 659 250
100 766 532
101 730 338
102 850 489
103 481 467
104 564 296
105 469 531
106 538 121
107 997 183
108 127 966
109 880 538
110 300 985
111 462 125
112 781 68
113 884 92
114 438 673
115 591 658
116 928 894
117 107 816
118 581 799
119 46 288
120 548 0
121 379 725
122 186 490
123 947 161
124 702 712
125 230 722
126 40 891
127 362 568
128 26 614
129 396 104
130 756 658
131 818 433
132 236 62
133 314 56
134 276 466
135 789 828
136 626 677
137 626 156
138 369 506
139 207 461
140 566 842
141 676 871
142 135 983
143 956 181
144 5 209
145 10 57
146 499 617
147 369 482
148 975 194
149 882 465
150 716 147
151 740 993
152 77 480
153 742 233
154 869 824
155 809 987
156 999 514
157 748 391
158 366 917
159 272 875
160 0 9
161 260 359
162 449 208
163 278 711
164 422 445
165 341 448
166 683 498
167 930 690
168 184 567
169 257 360
170 464 101
171 783 645
172 282 884
173 978 688
174 514 349
175 343 552
176 290 171
177 675 414
178 386 86
179 575 26
180 863 973
181 223 412
182 958 176
183 391 824
184 228 93
185 704 946
186 938 995
187 159 343
188 698 106
189 896 169
190 361 937
191 201 120
192 158 852
193 786 630
194 91 909
195 291 333
196 575 931
197 60 763
198 321 837
199 154 302
200 490 215
201 612 394
202 70 159
203 972 987
204 527 340
205 34 241
206 688 334
207 878 485
208 885 205
209 124 413
210 347 330
211 457 540
212 841 478
213 383 907
214 556 135
215 250 31
216 251 90
217 514 112
218 645 252
219 250 482
220 50 740
221 924 309
222 275 198
223 402 554
224 751 389
225 222 168
226 935 8
227 105 551
228 943 769
229 723 250
230 442 730
231 711 917
232 794 873
233 440 930
234 25 735
235 550 461
236 95 780
237 905 187
238 807 232
239 38 560
240 610 303
241 635 599
242 266 273
243 160 961
244 610 199
245 761 276
246 568 865
247 397 721
248 423 983
249 239 847
250 330 653
251 307 662
252 81 59
253 357 955
254 123 426
255 28 874
256 820 222
257 228 758
258 972 613
259 776 209
260 577 160
261 293 429
262 852 781
263 343 789
264 492 948
265 823 661
266 193 141
267 602 498
268 412 553
269 415 158
270 382 42
271 1 486
272 382 334
273 497 141
274 251 476
275 70 672
276 154 539
277 822 847
278 593 573
279 915 235
280 681 808
281 972 28
282 717 124
283 619 669
284 859 453
285 240 554
286 847 459
287 189 652
288 515 845
289 625 873
290 308 612
291 803 434
292 592 840
293 662 92
294 879 454
295 784 7
296 287 625
297 442 982
298 844 461
299 324 736
300 505 739
301 668 124
302 966 56
303 648 984
304 705 165
305 771 758
306 643 891
307 930 487
308 754 167
309 529 232
310 835 623
311 649 742
312 864 278
313 379 515
314 152 618
315 530 125
316 748 966
317 794 447
318 441 116
319 495 888
320 734 107
321 623 131
322 842 466
323 869 433
324 557 697
325 419 952
326 987 50
327 692 664
328 626 817
329 203 625
330 887 426
331 675 757
332 853 362
333 246 660
334 194 527
335 644 895
336 246 544
337 672 902
338 816 214
339 619 709
340 164 411
341 943 552
342 288 411
343 655 956
344 720 138
345 743 460
346 660 568
347 886 352
348 375 573
349 488 528
350 868 505
351 561 673
352 856 126
353 900 17
354 871 351
355 544 696
356 459 776
357 541 257
358 885 418
359 556 622
360 443 205
361 559 106
362 840 180
363 715 74
364 103 373
365 879 347
366 819 389
367 588 69
368 833 434
369 831 507
370 589 695
371 865 351
372 202 605
373 815 96
374 843 150
375 944 461
376 197 668
377 791 305
378 574 826
379 733 935
380 807 679
381 468 732
382 609 656
383 666 76
384 568 205
385 802 286
386 712 80
387 218 449
388 914 624
389 537 863
390 862 484
391 336 666
392 62 678
393 869 431
394 995 86
395 737 314
396 851 39
397 649 895
398 278 480
399 743 173
400 909 106
401 407 905
402 662 941
403 234 442
404 984 38
405 584 667
406 624 9
407 690 580
408 725 65
409 821 470
410 926 460
411 779 78
412 871 94
413 560 796
414 616 675
415 973 189
416 699 19
417 989 17
418 786 720
419 679 710
420 290 543
421 887 516
422 828 401
423 633 696
424 702 64
425 816 442
426 501 973
427 567 951
428 653 134
429 605 770
430 544 972
431 465 620
432 914 529
433 810 491
434 173 471
435 914 548
436 803 366
437 860 113
438 736 168
439 459 508
440 602 884
441 723 145
442 723 696
443 644 653
444 478 427
445 694 521
446 191 588
447 663 791
448 659 188
449 700 411
450 677 609
451 731 580
452 610 105
453 548 155
454 103 585
455 363 542
456 615 90
457 909 473
458 501 937
459 981 71
460 563 789
461 842 508
462 706 155
463 904 130
464 543 567
465 951 14
466 583 963
467 803 5
468 997 36
469 916 439
470 163 492
471 117 572
472 570 35
473 538 21
474 789 108
475 119 667
476 186 678
477 935 216
478 68 669
479 653 116
480 494 839
481 92 755
482 598 137
483 246 562
484 822 278
485 521 156
486 31 373
487 518 956
488 304 521
489 918 124
490 949 54
491 905 132
492 595 694
493 882 445
494 753 45
495 206 365
496 959 557
497 983 471
498 712 137
499 818 383
500 662 684
501 615 759
502 717 11
503 637 657
504 807 419
505 389 951
506 757 185
507 294 482
508 475 464
509 725 970
510 566 971
511 714 5
512 588 715
513 782 808
514 891 415
515 614 647
516 688 869
517 763 96
518 205 708
519 885 493
520 570 972
521 273 424
522 636 107
523 536 88
524 972 618
525 994 28
526 475 786
527 993 34
528 847 29
529 601 7
530 743 509
531 481 877
532 654 629
533 829 429
534 562 686
535 797 386
536 194 570
537 712 142
538 681 104
539 38 680
540 606 919
DEMAND_SECTION
2 9
3 7
4 5
5 5
6 8
7 1
8 2
9 6
10 8
11 2
12 6
13 7
14 8
15 8
16 5
17 3
18 4
19 2
20 8
21 6
22 3
23 3
24 4
25 4
26 8
27 8
28 10
29 1
30 1
31 9
32 9
33 10
34 10
35 5
36 5
37 6
38 4
39 9
40 3
41 8
42 4
43 5
44 9
45 4
46 9
47 1
48 7
49 8
50 4
51 5
52 9
53 3
54 8
55 6
56 6
57 8
58 6
59 8
60 6
61 10
62 3
63 9
64 8
65 6
66 6
67 4
68 3
69 7
70 4
71 6
72 10
73 7
74 2
75 7
76 5
77 4
78 3
79 8
80 1
81 1
82 5
83 8
84 2
85 9
86 6
87 10
88 8
89 1
90 6
91 2
92 4
93 7
94 3
95 9
96 9
97 6
98 8
99 3
100 5
101 6
102 8
103 4
104 3
105 9
106 4
107 7
108 1
109 8
110 9
111 2
112 8
113 6
114 1
115 9
116 2
117 5
118 7
119 7
120 2
121 10
122 4
123 8
124 9
125 2
126 9
127 2
128 5
129 7
130 3
131 9
132 8
133 6
134 4
135 8
136 4
137 8
138 6
139 3
140 3
141 5
142 5
143 5
144 10
145 8
146 6
147 7
148 7
149 2
150 1
151 10
152 1
153 9
154 3
155 3
156 10
157 6
158 1
159 10
160 6
161 3
162 3
163 10
164 8
165 6
166 2
167 9
168 5
169 1
170 1
171 2
172 8
173 7
174 2
175 9
176 9
177 5
178 3
179 8
180 2
181 8
182 6
183 3
184 5
185 4
186 7
187 5
188 1
189 10
190 8
191 7
192 5
193 10
194 4
195 4
196 2
197 7
198 1
199 1
200 8
201 2
202 3
203 1
204 2
205 3
206 9
207 9
208 5
209 9
210 7
211 2
212 4
213 6
214 1
215 7
216 6
217 10
218 10
219 2
220 10
221 3
222 8
223 5
224 2
225 3
COVERAGE_SECTION
2 9 264 458 426 487 233 297 430 319 325 
3 9 526 300 356 381 84 230 480 413 460 
4 9 276 168 471 227 536 446 334 94 454 
5 9 10 44 61 481 475 476 236 275 518 
6 9 96 58 469 375 514 410 358 497 34 
7 9 126 255 194 93 13 117 108 192 236 
8 9 265 380 167 418 262 38 310 388 171 
9 9 91 250 391 290 251 296 127 348 175 
10 9 5 481 61 236 44 197 220 475 117 
11 9 119 81 205 486 364 144 199 70 187 
12 9 29 228 116 154 38 37 262 173 167 
13 9 126 7 255 93 194 108 142 243 47 
14 9 324 534 355 351 370 512 492 405 115 
15 9 371 354 365 332 347 45 312 499 436 
16 9 302 459 490 40 326 394 404 36 281 
17 9 132 215 66 184 216 46 191 133 266 
18 9 166 445 345 530 28 449 177 100 346 
19 9 69 133 215 270 66 132 46 17 216 
20 9 22 210 195 272 342 161 169 88 261 
21 9 462 304 537 150 498 344 441 301 428 
22 9 195 20 210 161 169 272 49 342 242 
23 9 181 387 403 139 53 340 434 521 274 
24 9 192 249 159 95 172 47 117 243 33 
25 9 158 213 190 505 401 253 325 233 248 
26 9 465 82 281 36 417 404 525 226 527 
27 9 535 436 499 366 50 422 504 224 71 
28 9 100 451 530 445 407 32 18 68 166 
29 9 116 12 37 154 203 228 186 180 277 
30 9 104 357 55 240 73 309 384 48 218 
31 9 257 125 163 249 299 198 263 518 159 
32 9 451 407 450 68 327 28 532 346 130 
33 9 95 110 172 159 86 253 190 249 158 
34 9 358 514 330 393 323 493 332 347 354 
35 9 225 222 176 266 191 51 184 216 46 
36 9 281 404 26 417 525 527 326 468 465 
37 9 116 180 29 186 154 277 155 232 203 
38 9 167 173 228 8 388 97 524 258 262 
39 9 89 210 272 360 51 162 242 222 22 
40 9 490 16 302 459 465 36 281 400 226 
41 7 179 472 529 120 473 406 367 
42 3 303 343 402 
43 9 206 101 177 449 201 240 395 71 157 
44 9 61 392 275 478 5 10 220 481 475 
45 9 377 50 436 385 27 71 15 484 499 
46 9 216 184 132 215 17 133 191 35 266 
47 9 243 108 142 95 93 194 24 192 33 
48 9 55 309 73 357 200 30 104 162 384 
49 9 169 161 495 195 242 22 181 187 53 
50 9 436 27 45 535 71 499 366 377 224 
51 9 176 222 89 35 225 46 39 216 269 
52 9 121 299 247 391 263 250 163 251 230 
53 9 521 342 181 261 403 23 169 161 134 
54 8 137 321 64 79 428 482 479 522 
55 9 357 73 309 48 30 104 200 384 204 
56 9 165 77 147 60 88 80 138 261 164 
57 9 272 174 204 48 210 88 55 39 444 
58 9 83 6 221 96 347 365 354 279 371 
59 9 188 538 301 282 293 498 386 479 537 
60 9 507 165 77 398 134 488 56 147 80 
61 9 44 481 220 392 10 275 5 478 197 
62 9 183 263 84 198 356 526 401 213 121 
63 9 429 501 118 90 460 311 328 413 512 
64 9 137 54 321 428 79 448 482 244 479 
65 9 443 532 503 515 136 283 500 382 450 
66 9 215 17 132 184 216 19 46 133 191 
67 9 196 427 246 389 487 540 458 440 430 
68 9 193 451 171 32 130 28 100 310 407 
69 9 133 19 270 178 129 215 46 216 132 
70 9 199 187 495 364 49 340 209 169 11 
71 9 101 224 50 157 395 27 436 535 45 
72 9 399 308 438 506 441 150 259 304 344 
73 9 309 55 357 48 384 200 30 104 485 
74 9 442 124 419 327 130 500 418 331 305 
75 8 435 109 432 341 421 496 388 97 
76 8 511 502 416 98 494 408 424 295 
77 9 165 56 60 261 147 342 507 80 88 
78 9 517 320 474 411 112 282 408 344 386 
79 9 321 482 54 137 452 522 64 428 479 
80 9 138 147 313 455 60 56 165 175 77 
81 9 119 205 11 144 486 202 199 364 70 
82 9 465 26 226 281 36 417 404 525 490 
83 9 58 221 6 279 477 148 96 347 415 
84 9 480 526 356 288 3 531 319 62 389 
85 9 448 99 218 244 64 137 21 54 304 
86 9 172 159 198 33 249 158 190 213 25 
87 9 152 271 254 209 486 364 227 239 470 
88 9 164 56 77 165 272 20 147 210 444 
89 9 51 269 129 176 39 360 178 162 222 
90 9 311 501 331 339 63 429 423 419 447 
91 9 9 290 250 296 251 391 127 348 175 
92 9 235 267 201 103 444 508 349 174 204 
93 9 194 7 126 108 255 47 142 243 13 
94 9 314 454 471 4 446 475 227 168 372 
95 9 33 47 243 110 24 172 159 142 108 
96 9 6 497 375 469 410 58 307 514 457 
97 9 258 524 388 496 341 75 435 167 173 
98 9 295 467 494 76 502 511 112 416 408 
99 9 218 85 448 229 244 240 30 153 206 
100 9 530 28 451 433 369 68 445 345 18 
101 9 395 71 206 224 157 43 50 245 377 
102 9 390 212 461 322 350 369 207 298 286 
103 9 508 444 439 349 164 105 235 211 92 
104 9 30 357 240 55 204 73 48 174 309 
105 9 211 349 439 268 103 508 223 464 431 
106 9 315 214 217 361 523 453 485 273 260 
107 9 148 415 182 143 123 477 237 279 394 
108 9 142 243 47 93 194 95 7 13 126 
109 8 421 75 350 432 435 519 461 207 
110 9 33 253 190 95 158 505 25 172 86 
111 9 318 170 273 217 269 485 315 129 106 
112 9 411 517 494 78 474 373 408 295 320 
113 9 412 400 437 463 352 491 489 40 396 
114 9 230 431 247 381 121 146 300 52 391 
115 9 405 382 515 283 414 351 492 370 136 
116 9 29 37 12 154 186 180 203 277 228 
117 9 236 192 481 197 10 7 194 220 255 
118 9 413 460 378 63 429 292 140 328 501 
119 9 11 81 205 486 144 364 199 70 187 
120 7 473 41 179 472 529 406 367 
121 9 247 52 299 230 263 391 114 250 381 
122 9 434 470 139 334 387 276 219 274 23 
123 9 182 143 415 148 489 237 491 189 463 
124 9 74 419 442 327 500 331 311 90 423 
125 9 518 257 163 31 476 376 333 287 299 
126 9 7 255 194 93 13 117 108 192 236 
127 9 348 175 455 223 268 313 138 91 9 
128 9 239 539 478 275 392 454 471 227 94 
129 9 178 318 269 270 170 111 89 69 133 
130 9 171 193 442 68 380 74 327 265 32 
131 9 425 533 291 368 504 317 422 409 298 
132 9 17 184 216 215 46 66 191 133 266 
133 9 69 19 46 215 270 216 132 178 184 
134 9 398 507 274 219 261 521 60 403 53 
135 9 513 277 232 305 262 154 418 516 280 
136 9 414 283 423 503 382 443 515 339 492 
137 9 64 54 321 79 482 428 244 448 479 
138 9 80 313 147 455 175 60 223 127 56 
139 9 387 403 23 434 122 274 219 181 470 
140 9 378 246 292 389 118 413 288 460 440 
141 9 516 337 397 306 335 289 231 280 402 
142 9 108 243 47 93 194 95 13 7 24 
143 9 182 415 123 148 107 477 237 189 279 
144 9 205 81 202 119 11 145 486 252 199 
145 9 160 252 202 144 205 191 266 17 81 
146 9 431 359 464 114 351 211 349 105 355 
147 9 80 138 313 56 165 60 77 455 164 
148 9 415 143 107 182 123 477 237 279 189 
149 9 294 207 493 284 390 457 519 323 286 
150 9 537 441 344 498 462 304 282 21 438 
151 9 509 316 379 185 155 42 231 303 343 
152 9 87 254 227 271 209 470 239 434 276 
153 9 229 259 245 506 72 399 238 438 308 
154 9 262 277 135 513 232 116 228 37 29 
155 9 180 316 151 509 379 37 185 232 231 
156 7 497 496 341 307 375 432 410 
157 9 224 71 535 27 449 50 101 436 504 
158 9 25 213 190 253 505 401 325 86 233 
159 9 172 86 249 198 33 24 95 31 158 
160 9 145 252 202 144 17 66 191 205 266 
161 9 169 49 195 53 495 22 342 181 521 
162 9 360 200 269 48 273 111 309 485 73 
163 9 125 299 251 333 257 31 391 518 250 
164 9 88 508 444 103 147 56 439 80 138 
165 9 77 56 60 147 261 80 507 138 342 
166 9 445 18 530 28 345 346 267 407 177 
167 9 38 173 388 8 97 228 524 258 265 
168 9 536 446 4 276 334 372 285 314 329 
169 9 161 49 195 495 53 342 22 181 521 
170 9 111 318 217 273 129 315 523 269 106 
171 9 193 130 380 265 68 310 418 442 32 
172 9 159 86 33 249 198 95 158 24 190 
173 9 38 167 524 258 97 228 388 8 496 
174 9 204 57 104 444 55 357 30 48 240 
175 9 455 127 348 488 313 138 420 80 223 
176 9 51 222 35 225 89 46 216 184 266 
177 9 449 43 201 18 157 224 206 345 166 
178 9 129 270 318 69 133 269 170 111 89 
179 7 41 472 529 120 473 367 406 
180 9 155 37 186 116 203 316 232 151 29 
181 9 23 403 53 387 495 521 139 340 169 
182 9 143 123 415 148 107 477 237 189 489 
183 9 62 263 198 84 213 356 401 526 158 
184 9 216 132 46 191 17 266 215 225 35 
185 8 231 379 509 402 316 343 337 151 
186 9 203 180 37 116 29 155 12 154 277 
187 9 70 199 495 364 340 49 209 254 181 
188 9 59 538 282 386 498 301 320 363 293 
189 9 237 208 491 463 489 123 374 362 352 
190 9 253 158 25 505 213 401 325 248 110 
191 9 266 184 225 216 35 46 132 17 215 
192 9 24 117 249 194 93 236 47 243 7 
193 9 171 68 130 265 310 380 451 32 418 
194 9 93 7 126 108 255 47 13 142 243 
195 9 22 161 169 20 49 210 242 342 53 
196 7 427 67 466 540 510 520 430 
197 9 220 481 236 234 61 44 10 117 5 
198 9 86 263 172 159 183 62 249 31 158 
199 9 70 187 495 364 49 11 119 340 209 
200 9 48 162 309 360 73 55 357 485 273 
201 9 177 43 92 449 235 240 206 204 267 
202 9 144 205 252 81 145 266 119 191 11 
203 9 186 116 37 29 180 12 155 154 277 
204 9 174 104 57 357 30 55 240 48 444 
205 9 81 144 119 11 202 486 199 70 364 
206 9 43 101 395 71 449 177 157 224 240 
207 9 519 390 149 350 102 294 421 457 284 
208 9 237 189 279 362 477 256 374 338 143 
209 9 254 340 364 434 87 187 152 470 23 
210 9 20 22 272 195 39 88 161 169 242 
211 9 105 439 349 268 223 103 508 431 313 
212 9 322 102 298 286 390 409 461 284 369 
213 9 25 158 401 190 505 253 325 233 183 
214 9 453 106 315 361 260 485 482 217 523 
215 9 132 17 66 216 46 184 133 19 69 
216 9 46 184 132 17 191 215 133 266 35 
217 9 315 106 523 273 361 485 214 170 111 
218 9 99 85 240 244 448 30 229 384 64 
219 9 274 398 134 403 507 387 139 336 521 
220 9 197 234 61 481 44 236 539 392 10 
221 9 347 365 83 58 312 354 371 15 279 
222 9 176 35 51 225 242 89 266 39 46 
223 9 268 348 455 127 313 211 138 175 80 
224 9 157 71 535 27 50 101 449 436 504 
225 9 35 266 191 222 176 184 216 46 51 
226 9 465 82 26 353 281 36 490 40 417 
227 9 471 454 4 276 94 239 152 168 314 
228 9 38 12 167 173 154 262 8 29 116 
229 9 153 245 99 395 259 506 218 399 72 
230 9 381 247 356 114 121 3 300 526 52 
231 9 379 185 337 516 402 509 141 316 397 
232 9 277 135 513 379 154 231 316 37 516 
233 9 325 401 2 297 264 505 248 25 213 
234 9 220 197 539 61 44 392 481 275 478 
235 9 92 267 103 508 444 201 349 439 464 
236 9 481 117 197 10 220 61 5 44 234 
237 9 189 208 477 123 279 143 182 491 463 
238 9 256 338 259 484 385 362 245 153 506 
239 9 128 227 454 471 271 152 87 94 4 
240 9 30 104 218 99 43 357 206 55 201 
241 9 532 346 450 65 278 515 443 407 503 
242 9 195 49 222 22 161 169 210 39 176 
243 9 47 108 142 95 93 194 24 192 33 
244 9 384 85 64 137 448 260 54 482 218 
245 9 377 385 395 229 153 484 238 45 101 
246 9 140 389 292 378 440 67 288 289 196 
247 9 121 52 230 114 381 299 391 356 263 
248 9 297 325 505 233 2 25 253 190 264 
249 9 159 24 172 31 86 192 198 257 33 
250 9 391 9 251 91 290 296 52 163 299 
251 9 250 391 296 9 91 290 163 333 299 
252 9 145 160 202 191 17 266 66 184 132 
253 9 190 505 25 158 213 325 110 401 248 
254 9 209 340 364 434 87 152 470 122 187 
255 9 126 7 194 93 13 117 236 197 192 
256 9 338 238 259 362 484 385 208 312 506 
257 9 31 125 518 163 249 476 376 299 333 
258 9 524 97 496 388 341 173 75 435 167 
259 9 506 238 338 153 72 256 308 399 438 
260 9 453 482 214 384 79 137 244 321 54 
261 9 342 521 53 134 77 165 398 507 60 
262 9 154 277 513 8 135 305 418 228 232 
263 9 198 299 183 62 52 121 31 247 86 
264 9 2 458 426 487 233 430 297 319 67 
265 9 380 310 171 193 8 130 418 68 388 
266 9 191 225 35 184 216 46 132 17 222 
267 9 235 92 278 166 346 464 445 18 201 
268 9 223 348 211 313 455 127 105 138 439 
269 9 318 89 360 111 129 162 170 178 273 
270 9 178 69 129 133 19 318 170 111 269 
271 9 87 152 239 486 227 128 254 454 209 
272 9 210 20 57 22 88 39 195 56 77 
273 9 485 217 315 111 106 170 453 214 318 
274 9 219 134 398 403 387 507 139 521 23 
275 9 478 392 539 44 61 475 220 128 5 
276 9 4 168 334 470 227 471 536 122 446 
277 9 135 232 154 513 262 37 305 116 379 
278 9 241 464 359 346 267 515 532 115 382 
279 9 477 208 237 312 143 189 148 182 415 
280 9 447 331 328 516 141 311 90 501 63 
281 9 36 404 26 417 525 527 465 468 326 
282 9 344 498 537 441 150 320 188 59 462 
283 9 414 136 382 503 515 115 423 443 405 
284 9 286 298 294 322 323 393 493 149 212 
285 8 483 336 536 420 334 168 446 372 
286 9 298 322 284 212 409 368 390 102 294 
287 9 376 476 329 372 314 333 518 446 94 
288 9 480 389 319 531 84 140 246 378 413 
289 9 306 440 335 397 292 540 141 337 328 
290 8 91 296 9 250 251 391 175 127 
291 9 131 425 317 504 533 368 409 422 366 
292 9 378 140 246 328 118 440 289 413 460 
293 6 383 538 479 522 301 59 
294 9 493 149 284 323 393 330 207 286 390 
295 9 467 98 494 112 76 502 528 511 411 
296 8 290 91 251 9 250 333 391 483 
297 9 248 325 233 2 264 426 505 458 487 
298 9 286 322 212 284 409 102 368 390 425 
299 9 52 163 121 263 391 247 251 31 250 
300 9 3 381 526 355 356 230 14 324 460 
301 8 479 428 538 59 293 188 522 21 
302 9 16 490 459 326 404 36 281 40 527 
303 3 42 343 402 
304 9 462 21 150 537 441 498 344 438 399 
305 9 418 513 135 74 442 124 262 380 331 
306 8 335 397 289 337 141 440 540 516 
307 7 457 410 375 432 519 469 207 
308 9 72 399 438 506 441 150 344 259 304 
309 9 73 55 48 357 200 384 30 104 485 
310 9 265 193 171 380 68 388 8 130 75 
311 9 90 331 501 419 339 423 447 63 429 
312 9 484 15 385 279 221 256 365 238 354 
313 9 138 80 455 147 223 268 175 127 348 
314 9 94 446 287 329 372 471 454 475 168 
315 9 106 217 214 485 361 453 273 523 260 
316 9 509 151 379 185 231 155 42 402 343 
317 9 291 425 131 504 409 533 368 433 298 
318 9 111 170 129 269 273 178 217 315 360 
319 9 531 288 389 458 480 264 67 2 233 
320 9 282 78 517 344 386 188 498 363 441 
321 9 79 54 137 482 522 452 428 64 479 
322 9 298 286 212 284 409 102 390 368 425 
323 9 393 493 330 284 358 294 514 34 286 
324 9 14 534 355 351 370 512 492 405 115 
325 9 233 505 248 297 25 401 213 190 253 
326 9 404 468 527 302 459 525 36 281 16 
327 9 500 74 442 65 419 124 443 532 503 
328 9 292 447 118 429 63 378 280 289 501 
329 9 372 287 446 376 314 333 476 536 168 
330 9 358 514 323 393 493 34 294 469 149 
331 9 311 90 447 419 280 124 501 63 429 
332 9 371 354 15 365 347 499 366 422 34 
333 9 376 296 329 287 163 251 476 518 125 
334 9 122 168 276 536 470 4 285 336 434 
335 8 306 397 289 337 141 440 540 402 
336 8 285 483 420 334 536 219 488 168 
337 8 397 335 141 306 516 402 231 185 
338 9 256 238 259 362 484 506 374 208 385 
339 9 423 492 512 136 370 414 283 90 311 
340 9 209 254 23 181 434 495 139 387 187 
341 7 496 435 432 75 97 109 307 
342 9 261 521 53 134 77 161 169 403 165 
343 4 402 303 42 185 
344 9 441 498 537 150 282 462 304 320 438 
345 9 18 530 317 291 449 157 166 224 433 
346 9 407 241 450 445 532 32 278 451 166 
347 9 365 354 371 15 332 34 221 514 358 
348 9 127 223 455 175 268 313 138 9 91 
349 9 105 211 439 103 508 464 268 146 223 
350 9 519 207 390 421 102 461 109 369 212 
351 9 534 324 405 14 355 115 370 492 512 
352 9 437 374 412 113 463 491 373 362 400 
353 9 226 465 40 82 396 528 490 26 281 
354 9 371 365 347 15 332 34 499 366 422 
355 9 324 14 534 351 370 512 405 492 300 
356 9 526 3 381 84 230 300 480 62 183 
357 9 55 73 309 48 30 104 384 200 240 
358 9 514 330 34 393 323 493 294 469 284 
359 9 115 351 405 146 464 278 382 515 534 
360 9 162 200 269 48 111 273 89 318 39 
361 9 106 214 523 315 217 367 453 482 452 
362 9 374 338 256 208 352 189 238 237 259 
363 9 386 408 424 188 320 59 538 494 383 
364 9 209 254 187 340 486 70 199 11 87 
365 9 347 354 371 15 332 34 221 514 312 
366 9 499 422 535 27 436 504 533 50 332 
367 5 456 472 452 179 361 
368 9 533 131 425 286 298 291 504 284 322 
369 9 461 102 433 212 350 409 390 322 298 
370 9 492 512 405 534 14 324 339 414 351 
371 9 354 365 15 332 347 34 499 366 422 
372 8 329 446 536 168 287 314 483 376 
373 9 474 411 112 437 352 517 78 412 374 
374 9 352 362 437 189 373 412 463 491 474 
375 7 410 307 469 457 497 149 96 
376 9 476 287 518 329 333 125 372 314 475 
377 9 385 45 484 245 50 395 436 71 101 
378 9 140 292 118 413 246 460 389 328 288 
379 9 231 185 316 509 151 337 402 516 343 
380 9 265 171 418 193 130 8 310 442 68 
381 9 230 300 3 356 526 114 247 355 84 
382 9 515 283 115 414 136 405 503 443 492 
383 6 293 538 424 59 479 522 
384 9 244 73 260 309 453 357 55 30 485 
385 9 377 484 245 45 238 312 256 50 395 
386 9 363 424 408 188 320 59 538 282 383 
387 9 139 403 23 181 274 219 434 122 53 
388 9 97 524 258 75 167 435 341 310 496 
389 9 288 246 140 319 480 67 378 531 292 
390 9 102 207 212 350 519 322 149 286 298 
391 9 250 251 9 91 290 52 296 299 121 
392 9 275 478 539 44 61 475 220 234 128 
393 9 323 330 493 358 284 294 514 34 149 
394 9 459 16 326 302 404 468 527 490 525 
395 9 101 245 71 206 377 45 229 50 385 
396 9 528 353 412 467 113 373 295 437 112 
397 8 335 306 337 289 141 516 402 440 
398 9 134 507 274 219 60 488 261 521 403 
399 9 72 438 308 506 441 150 304 462 344 
400 9 489 463 491 113 412 437 40 352 16 
401 9 213 25 233 158 325 505 190 253 531 
402 7 343 337 185 303 397 42 335 
403 9 387 23 181 139 274 53 219 521 134 
404 9 527 326 468 36 525 281 417 302 26 
405 9 115 351 382 370 492 534 414 283 515 
406 4 529 41 179 472 
407 9 346 450 32 451 28 241 445 532 65 
408 9 363 386 424 494 320 188 517 78 416 
409 9 322 212 433 298 286 425 102 317 131 
410 7 375 457 469 307 149 493 294 
411 9 112 517 78 474 373 494 320 408 363 
412 9 113 437 352 400 463 491 373 489 396 
413 9 460 118 378 140 63 429 292 501 288 
414 9 283 136 382 423 492 503 515 115 405 
415 9 148 143 182 107 123 477 237 279 189 
416 6 502 511 76 424 408 363 
417 9 525 527 36 281 468 26 404 326 465 
418 9 305 380 442 130 74 265 171 8 124 
419 9 124 500 74 311 442 331 327 423 90 
420 8 488 336 483 285 175 507 398 290 
421 8 350 109 519 432 207 390 435 102 
422 9 366 499 504 533 368 131 535 27 291 
423 9 339 136 414 283 500 492 503 370 443 
424 8 363 386 408 383 188 416 538 59 
425 9 131 291 533 368 317 504 409 298 286 
426 9 487 264 2 458 430 297 510 520 427 
427 7 466 510 520 196 430 67 487 
428 8 301 479 54 321 522 64 137 79 
429 9 63 501 118 90 460 328 311 413 512 
430 7 510 520 427 487 466 426 196 
431 9 146 114 211 268 105 223 359 464 349 
432 7 435 421 109 341 75 307 519 
433 9 409 369 212 461 102 322 298 317 286 
434 9 122 470 139 387 23 334 340 254 403 
435 7 432 75 341 109 421 496 519 
436 9 50 27 535 499 366 45 422 71 332 
437 9 352 412 113 374 463 373 400 491 489 
438 9 399 72 308 441 506 150 304 462 344 
439 9 105 211 349 103 508 268 164 223 313 
440 9 289 540 246 306 335 292 397 196 140 
441 9 150 344 537 498 462 282 438 304 399 
442 9 74 124 327 419 130 500 418 305 331 
443 9 503 65 532 136 283 515 382 414 500 
444 9 508 103 164 235 439 92 174 88 204 
445 9 166 18 28 530 346 407 451 100 345 
446 9 536 372 168 329 314 4 285 94 276 
447 9 280 331 328 90 311 501 63 429 141 
448 9 85 64 21 137 244 304 54 428 462 
449 9 177 157 224 345 43 18 71 206 101 
450 9 532 407 32 241 65 346 443 327 451 
451 9 32 28 68 407 100 450 445 346 530 
452 6 456 522 79 321 482 367 
453 9 214 485 260 106 315 361 273 482 384 
454 9 471 227 94 4 314 276 239 128 168 
455 9 175 127 313 348 138 223 80 268 147 
456 5 452 522 367 79 321 
457 8 410 307 149 519 207 469 294 375 
458 9 264 2 487 426 319 430 67 233 531 
459 9 16 302 394 326 404 490 468 527 36 
460 9 413 118 378 429 63 140 292 501 328 
461 9 369 102 350 212 390 433 322 207 409 
462 9 304 150 537 21 498 441 344 282 438 
463 9 491 489 400 189 113 437 352 412 123 
464 9 278 359 146 349 105 211 267 431 241 
465 9 82 26 226 281 36 417 490 404 302 
466 4 520 510 427 196 
467 9 295 98 528 396 494 112 411 76 502 
468 9 527 525 404 326 417 36 281 302 459 
469 9 410 330 457 493 514 375 358 294 149 
470 9 122 434 334 276 139 4 387 254 168 
471 9 454 227 4 94 276 314 168 446 536 
472 6 179 41 473 367 120 529 
473 8 120 472 41 179 529 523 367 406 
474 9 373 517 78 411 112 320 374 308 352 
475 9 275 478 5 44 392 314 61 94 476 
476 9 376 287 518 329 125 333 475 5 314 
477 9 279 143 237 148 182 415 208 123 189 
478 9 275 392 539 44 61 475 128 220 234 
479 8 301 428 522 293 538 321 54 59 
480 9 288 84 531 319 389 526 3 140 356 
481 9 236 10 197 61 220 44 5 117 234 
482 9 79 321 260 54 137 452 214 64 522 
483 8 285 336 420 536 446 168 372 334 
484 9 385 377 312 238 45 256 245 338 15 
485 9 453 273 315 106 214 217 260 361 111 
486 9 364 11 119 87 209 81 254 152 271 
487 9 426 458 264 430 2 427 510 520 67 
488 9 420 507 60 398 175 134 336 455 80 
489 9 463 491 400 113 123 189 412 437 352 
490 9 302 40 16 36 281 459 326 404 465 
491 9 463 489 400 189 113 352 437 123 412 
492 9 370 512 339 414 405 534 136 283 115 
493 9 294 323 393 149 330 284 358 514 469 
494 9 408 112 98 411 363 295 502 517 386 
495 9 49 181 169 187 161 340 23 70 53 
496 8 341 435 432 258 75 156 97 524 
497 7 375 156 307 96 410 457 469 
498 9 537 344 150 282 441 462 304 21 188 
499 9 366 27 422 535 436 50 504 332 533 
500 9 419 423 327 443 136 503 65 283 414 
501 9 63 429 90 311 339 118 512 447 328 
502 9 76 511 416 98 494 408 424 363 295 
503 9 443 65 283 136 515 382 414 532 500 
504 9 291 131 533 425 422 368 317 366 535 
505 9 25 325 190 253 158 213 248 401 233 
506 9 72 308 399 438 259 153 441 150 304 
507 9 398 134 60 488 274 219 261 165 77 
508 9 103 444 439 164 349 105 235 211 92 
509 9 316 151 185 379 231 42 402 343 303 
510 5 520 466 427 430 196 
511 8 76 502 416 98 494 424 408 363 
512 9 370 492 339 14 324 534 355 405 414 
513 9 135 305 277 232 262 154 418 280 516 
514 9 358 330 34 393 323 493 469 294 284 
515 9 382 283 115 503 414 443 136 405 65 
516 9 141 337 397 306 335 231 280 289 402 
517 9 78 411 474 320 112 408 373 494 363 
518 9 125 476 376 257 287 333 163 5 329 
519 8 207 350 421 390 149 457 102 294 
520 5 510 466 427 430 196 
521 9 53 342 261 134 403 181 274 398 23 
522 7 479 452 321 456 293 428 79 
523 9 361 106 217 315 214 367 472 273 473 
524 9 258 97 388 496 173 341 167 38 75 
525 9 527 468 417 404 36 281 326 26 302 
526 9 356 3 84 381 300 480 230 288 62 
527 9 468 525 404 326 417 36 281 26 302 
528 9 396 467 353 295 412 113 373 112 411 
529 4 406 41 179 472 
530 9 100 28 18 345 445 166 433 451 317 
531 9 319 480 288 84 389 458 233 2 264 
532 9 65 443 450 503 241 515 327 382 283 
533 9 368 131 425 504 291 422 286 298 284 
534 9 324 14 351 355 370 405 492 512 115 
535 9 27 436 499 366 50 422 504 224 291 
536 9 168 446 372 334 4 285 276 483 329 
537 9 498 150 344 441 462 282 304 21 438 
538 8 59 188 293 301 479 383 386 282 
539 9 392 478 275 44 234 61 220 128 475 
540 5 196 440 335 306 397 
DEPOT_SECTION
   1
   -1
EOF
