NAME :  X-n561-kX-w56-c7.cctp
COMMENT : 	Adapted by Maziero, Usberti and Cavellucci from the Uchoa, Pecin, Pessoa, Poggi, Subramanian, and Vidal (2013)
TYPE :  CCTP
DIMENSION :    282
EDGE_WEIGHT_TYPE : 	EUC_2D	
CAPACITY : 	74
VERTICES_WITHIN_COVERAGE :  7
VERTICES_WITH_DEMAND : 	56
NODE_COORD_SECTION
1 500 500
2 487 949
3 492 770
4 150 556
5 130 719
6 962 393
7 54 890
8 861 705
9 338 631
10 119 741
11 48 296
12 982 827
13 18 954
14 558 698
15 857 337
16 963 72
17 218 46
18 705 484
19 315 3
20 331 358
21 688 156
22 314 338
23 214 428
24 193 866
25 381 924
26 968 10
27 797 382
28 733 544
29 956 878
30 576 270
31 257 778
32 713 605
33 270 940
34 880 401
35 245 168
36 973 29
37 888 919
38 943 703
39 364 248
40 932 60
41 575 18
42 663 990
43 667 351
44 85 708
45 801 330
46 261 91
47 163 953
48 509 249
49 237 336
50 791 356
51 314 168
52 356 726
53 260 412
54 630 144
55 534 255
56 356 444
57 448 320
58 987 333
59 319 476
60 83 716
61 633 162
62 221 4
63 762 604
64 337 41
65 156 318
66 756 357
67 535 235
68 337 441
69 615 132
70 365 498
71 42 268
72 952 2
73 989 303
74 471 821
75 650 215
76 302 881
77 391 405
78 364 170
79 324 620
80 92 914
81 133 607
82 223 949
83 988 415
84 659 250
85 766 532
86 730 338
87 564 296
88 127 966
89 300 985
90 928 894
91 107 816
92 46 288
93 548 0
94 379 725
95 230 722
96 40 891
97 236 62
98 314 56
99 626 156
100 207 461
101 135 983
102 5 209
103 369 482
104 740 993
105 809 987
106 748 391
107 366 917
108 272 875
109 0 9
110 260 359
111 449 208
112 278 711
113 422 445
114 341 448
115 683 498
116 930 690
117 184 567
118 257 360
119 282 884
120 978 688
121 514 349
122 290 171
123 675 414
124 575 26
125 863 973
126 223 412
127 228 93
128 938 995
129 159 343
130 361 937
131 201 120
132 158 852
133 91 909
134 291 333
135 60 763
136 154 302
137 490 215
138 612 394
139 972 987
140 527 340
141 34 241
142 688 334
143 347 330
144 383 907
145 250 31
146 251 90
147 645 252
148 50 740
149 275 198
150 751 389
151 222 168
152 935 8
153 105 551
154 943 769
155 442 730
156 440 930
157 25 735
158 95 780
159 610 303
160 266 273
161 160 961
162 610 199
163 397 721
164 423 983
165 239 847
166 330 653
167 307 662
168 81 59
169 357 955
170 28 874
171 228 758
172 293 429
173 852 781
174 343 789
175 492 948
176 823 661
177 193 141
178 382 42
179 382 334
180 70 672
181 154 539
182 822 847
183 972 28
184 308 612
185 287 625
186 442 982
187 324 736
188 505 739
189 966 56
190 648 984
191 705 165
192 529 232
193 835 623
194 864 278
195 748 966
196 623 131
197 557 697
198 419 952
199 987 50
200 887 426
201 853 362
202 194 527
203 164 411
204 288 411
205 655 956
206 743 460
207 660 568
208 886 352
209 561 673
210 900 17
211 871 351
212 544 696
213 459 776
214 541 257
215 885 418
216 443 205
217 879 347
218 819 389
219 589 695
220 865 351
221 791 305
222 807 679
223 468 732
224 568 205
225 802 286
226 218 449
227 336 666
228 62 678
229 995 86
230 737 314
231 909 106
232 407 905
233 234 442
234 984 38
235 624 9
236 690 580
237 989 17
238 501 973
239 653 134
240 173 471
241 803 366
242 694 521
243 191 588
244 659 188
245 700 411
246 677 609
247 731 580
248 103 585
249 501 937
250 981 71
251 706 155
252 951 14
253 997 36
254 163 492
255 117 572
256 570 35
257 538 21
258 119 667
259 68 669
260 494 839
261 92 755
262 598 137
263 822 278
264 31 373
265 518 956
266 949 54
267 206 365
268 818 383
269 389 951
270 725 970
271 588 715
272 891 415
273 273 424
274 994 28
275 475 786
276 993 34
277 601 7
278 743 509
279 562 686
280 797 386
281 194 570
282 38 680
DEMAND_SECTION
2 9
3 7
4 5
5 5
6 8
7 1
8 2
9 6
10 8
11 2
12 6
13 7
14 8
15 8
16 5
17 3
18 4
19 2
20 8
21 6
22 3
23 3
24 4
25 4
26 8
27 8
28 10
29 1
30 1
31 9
32 9
33 10
34 10
35 5
36 5
37 6
38 4
39 9
40 3
41 8
42 4
43 5
44 9
45 4
46 9
47 1
48 7
49 8
50 4
51 5
52 9
53 3
54 8
55 6
56 6
57 8
COVERAGE_SECTION
2 6 175 249 238 265 156 186 
3 7 275 188 213 223 74 155 260 
4 7 181 117 255 153 281 243 202 
5 6 10 44 60 261 258 158 
6 4 83 58 272 215 
7 7 96 170 133 80 13 91 88 
8 6 176 222 116 173 38 193 
9 6 79 166 227 184 167 185 
10 7 5 261 60 158 44 135 148 
11 6 92 71 141 264 102 136 
12 6 29 154 90 38 37 173 
13 7 96 7 170 80 133 88 101 
14 6 197 279 212 209 219 271 
15 7 220 211 217 201 208 45 194 
16 7 189 250 266 40 199 229 234 
17 7 97 145 62 127 146 46 131 
18 7 115 242 206 278 28 245 123 
19 7 64 98 145 178 62 97 46 
20 7 22 143 134 179 204 110 118 
21 2 251 191 
22 7 134 20 143 110 118 179 49 
23 7 126 226 233 100 53 203 240 
24 7 132 165 108 82 119 47 91 
25 7 107 144 130 269 232 169 198 
26 7 252 72 183 36 237 234 274 
27 5 280 241 268 218 50 
28 7 85 247 278 242 236 32 18 
29 6 90 12 37 139 154 128 
30 7 87 214 55 159 67 192 224 
31 6 171 95 112 165 187 174 
32 5 247 236 246 63 28 
33 7 82 89 119 108 76 169 130 
34 4 215 272 200 201 
35 7 151 149 122 177 131 51 127 
36 7 183 234 26 237 274 276 199 
37 6 90 125 29 128 182 105 
38 4 116 120 154 8 
39 7 78 143 179 216 51 111 160 
40 7 266 16 189 250 252 36 183 
41 6 124 256 277 93 257 235 
42 2 190 205 
43 7 142 86 123 245 138 159 230 
44 7 60 228 180 259 5 10 148 
45 7 221 50 241 225 27 66 15 
46 7 146 127 97 145 17 98 131 
47 7 161 88 101 82 80 133 24 
48 7 55 192 67 214 137 30 87 
49 7 118 110 267 134 160 22 126 
50 7 241 27 45 280 66 268 218 
51 7 122 149 78 35 151 46 39 
52 7 94 187 163 227 174 166 112 
53 7 273 204 126 172 233 23 118 
54 6 99 196 61 69 239 262 
55 7 214 67 192 48 30 87 137 
56 6 114 68 103 59 77 70 
57 7 179 121 140 48 143 77 55 
58 6 73 6 83 208 217 211 
59 3 114 68 56 
60 7 44 261 148 228 10 180 5 
61 7 99 54 196 239 69 244 262 
62 7 145 17 97 127 146 19 46 
63 4 247 32 28 85 
64 5 98 19 178 145 46 
65 5 136 129 267 49 203 
66 7 86 150 50 106 230 27 241 
67 7 192 55 214 48 224 137 30 
68 6 114 56 59 172 103 204 
69 5 196 262 54 99 61 
70 4 103 59 56 114 
71 6 92 141 11 102 264 136 
72 7 252 26 152 183 36 237 234 
73 3 58 6 83 
74 4 260 275 213 3 
75 7 244 84 147 162 61 99 21 
76 6 119 108 33 165 107 130 
77 7 113 56 68 114 179 20 103 
78 4 51 122 39 216 
79 6 9 184 166 185 167 227 
80 7 133 7 96 88 170 47 101 
81 6 248 255 4 243 258 153 
82 7 33 47 161 89 24 119 108 
83 2 6 58 
84 6 147 75 244 162 159 30 
85 5 278 28 247 63 242 
86 7 230 66 142 150 106 43 50 
87 7 30 214 159 55 140 67 48 
88 7 101 161 47 80 133 82 7 
89 7 33 169 130 82 107 269 25 
90 6 29 37 12 128 125 139 
91 7 158 132 261 135 10 7 133 
92 6 11 71 141 264 102 136 
93 6 257 41 124 256 277 235 
94 6 163 52 187 155 174 227 
95 3 171 112 31 
96 7 7 170 133 80 13 91 88 
97 7 17 127 146 145 46 62 131 
98 7 64 19 46 145 178 146 97 
99 7 61 54 196 69 262 239 162 
100 4 226 233 23 240 
101 7 88 161 47 80 133 82 13 
102 5 141 71 92 11 264 
103 5 70 56 114 59 68 
104 4 270 195 105 42 
105 5 125 195 104 270 37 
106 7 150 66 280 27 245 50 86 
107 7 25 144 130 169 269 232 198 
108 6 119 76 165 33 24 82 
109 5 168 102 17 62 131 
110 7 118 49 134 53 267 22 204 
111 4 216 137 48 192 
112 6 95 187 167 171 31 227 
113 3 77 103 56 
114 6 68 56 59 103 172 70 
115 6 242 18 278 28 206 207 
116 4 38 120 8 154 
117 5 281 243 4 181 202 
118 7 110 49 134 267 53 204 22 
119 6 108 76 33 165 82 107 
120 3 38 116 154 
121 6 140 57 87 55 214 30 
122 7 51 149 35 151 78 46 146 
123 7 245 43 138 18 106 150 142 
124 5 41 256 277 93 257 
125 6 105 37 128 90 139 195 
126 7 23 233 53 226 267 273 100 
127 7 146 97 46 131 17 177 145 
128 7 139 125 37 90 29 105 12 
129 5 65 136 267 203 49 
130 7 169 107 25 269 144 232 198 
131 7 177 127 151 146 35 46 97 
132 7 24 91 165 133 80 158 47 
133 7 80 7 96 88 170 47 13 
134 7 22 110 118 20 49 143 160 
135 7 148 261 158 157 60 44 10 
136 6 65 129 267 49 11 92 
137 7 48 111 192 216 67 55 214 
138 5 123 43 245 159 142 
139 7 128 90 37 29 125 12 105 
140 7 121 87 57 214 30 55 159 
141 6 71 102 92 11 264 136 
142 7 43 86 230 66 245 123 106 
143 7 20 22 179 134 39 77 110 
144 7 25 107 232 130 269 169 198 
145 7 97 17 62 146 46 127 98 
146 7 46 127 97 17 131 145 98 
147 6 84 75 159 162 244 30 
148 7 135 157 60 261 44 158 282 
149 7 122 35 51 151 160 78 177 
150 7 106 66 280 27 50 86 245 
151 7 35 177 131 149 122 127 146 
152 7 252 72 26 210 183 36 266 
153 5 255 248 4 181 81 
154 6 38 12 116 120 173 8 
155 6 223 163 213 94 3 188 
156 7 198 232 2 186 175 269 164 
157 7 148 135 282 60 44 228 261 
158 7 261 91 135 10 148 60 5 
159 7 30 87 147 84 43 214 142 
160 7 134 49 149 22 110 118 143 
161 7 47 88 101 82 80 133 24 
162 6 224 75 61 99 244 54 
163 6 94 52 155 223 187 227 
164 7 186 198 269 156 2 25 169 
165 6 108 24 119 31 76 132 
166 7 227 9 167 79 184 185 52 
167 7 166 227 185 9 79 184 112 
168 5 109 131 17 177 62 
169 7 130 269 25 107 144 198 89 
170 7 96 7 133 80 13 91 158 
171 4 31 95 112 165 
172 5 204 273 53 68 114 
173 2 182 8 
174 4 187 52 94 31 
175 6 2 249 238 265 156 186 
176 3 222 193 8 
177 7 131 151 35 127 146 46 97 
178 3 64 98 19 
179 7 143 20 57 22 77 39 134 
180 7 259 228 282 44 60 258 148 
181 7 4 117 202 254 153 255 281 
182 2 173 37 
183 7 36 234 26 237 274 276 252 
184 6 79 185 9 166 167 227 
185 5 184 79 167 9 166 
186 7 164 198 156 2 175 238 269 
187 7 52 112 94 174 227 163 167 
188 7 3 223 275 212 213 155 14 
189 7 16 266 250 199 234 36 183 
190 2 42 205 
191 2 251 21 
192 7 67 55 48 214 137 224 30 
193 4 176 222 63 8 
194 4 263 15 225 217 
195 4 270 104 105 42 
196 5 69 54 99 262 239 
197 6 14 279 212 209 219 271 
198 7 156 269 164 186 25 232 144 
199 7 234 253 276 189 250 274 36 
200 3 215 272 34 
201 7 220 211 15 217 208 268 218 
202 5 117 181 281 254 4 
203 5 23 126 240 267 100 
204 6 172 273 53 68 110 118 
205 2 190 42 
206 5 18 278 245 106 115 
207 4 236 246 242 32 
208 6 217 211 220 15 201 34 
209 5 279 197 14 212 219 
210 5 152 252 40 72 266 
211 7 220 217 208 15 201 34 268 
212 6 197 14 279 209 219 271 
213 7 275 3 223 74 155 188 260 
214 7 55 67 192 48 30 87 224 
215 3 272 200 34 
216 4 111 137 48 78 
217 6 208 211 220 15 201 34 
218 4 268 280 27 241 
219 4 271 279 14 197 
220 7 211 217 15 201 208 34 268 
221 6 225 45 263 50 230 241 
222 3 176 8 193 
223 6 155 188 3 213 275 163 
224 5 162 67 192 214 55 
225 4 221 263 45 194 
226 5 100 233 23 126 240 
227 7 166 167 9 79 184 52 185 
228 7 180 259 282 44 60 258 148 
229 7 250 16 199 189 234 253 276 
230 5 86 66 142 221 45 
231 1 40 
232 7 144 25 156 107 198 269 130 
233 5 226 23 126 100 53 
234 7 276 199 253 36 274 183 237 
235 2 277 41 
236 6 207 246 32 247 28 242 
237 7 274 276 36 183 253 26 234 
238 5 265 175 2 249 186 
239 3 54 196 61 
240 6 254 100 226 23 202 203 
241 6 50 27 280 268 218 45 
242 7 115 18 28 278 207 236 247 
243 3 281 117 4 
244 7 75 61 21 99 162 191 54 
245 7 123 106 150 206 43 18 66 
246 3 236 32 207 
247 7 32 28 63 236 85 246 242 
248 5 255 153 81 4 181 
249 4 175 2 265 238 
250 7 16 189 229 199 234 266 253 
251 2 191 21 
252 7 72 26 152 183 36 237 266 
253 7 276 274 234 199 237 36 183 
254 6 240 202 181 100 4 226 
255 6 248 153 4 81 181 117 
256 5 124 41 257 93 277 
257 5 93 256 41 124 277 
258 6 180 259 5 44 228 60 
259 6 180 228 282 44 60 258 
260 3 74 275 3 
261 7 158 10 135 60 148 44 5 
262 4 69 196 54 99 
263 4 225 221 194 45 
264 3 11 92 71 
265 4 238 249 175 2 
266 7 189 40 16 36 183 250 199 
267 7 49 126 118 129 110 203 23 
268 5 218 27 280 241 50 
269 7 25 198 130 169 107 144 164 
270 3 195 104 42 
271 5 219 14 197 279 212 
272 3 215 200 34 
273 5 53 204 172 233 126 
274 7 276 253 237 234 36 183 199 
275 7 213 3 74 223 188 260 155 
276 7 253 274 234 199 237 36 183 
277 4 235 41 124 256 
278 6 85 28 18 206 242 115 
279 5 197 14 209 212 219 
280 5 27 241 268 218 50 
281 5 117 243 202 4 181 
282 7 228 259 180 44 157 60 148 
DEPOT_SECTION
   1
   -1
EOF
