NAME :  X-n524-kX-w104-c9.cctp
COMMENT : 	Adapted by Maziero, Usberti and Cavellucci from the Uchoa, Pecin, Pessoa, Poggi, Subramanian, and Vidal (2013)
TYPE :  CCTP
DIMENSION :    458
EDGE_WEIGHT_TYPE : 	EUC_2D	
CAPACITY : 	125
VERTICES_WITHIN_COVERAGE :  9
VERTICES_WITH_DEMAND : 	104
NODE_COORD_SECTION
1 691 729
2 978 828
3 427 367
4 777 543
5 190 596
6 773 750
7 234 727
8 851 358
9 140 69
10 891 285
11 467 13
12 537 162
13 636 355
14 213 284
15 75 877
16 384 814
17 606 173
18 76 236
19 86 733
20 642 61
21 303 261
22 771 775
23 107 264
24 763 43
25 811 873
26 38 170
27 822 920
28 907 792
29 539 273
30 576 836
31 491 411
32 430 725
33 727 248
34 532 825
35 457 218
36 398 153
37 942 597
38 8 330
39 637 85
40 75 781
41 578 635
42 560 188
43 27 523
44 432 198
45 359 691
46 695 372
47 203 307
48 641 389
49 836 612
50 375 499
51 818 980
52 577 226
53 889 259
54 516 324
55 102 346
56 318 976
57 223 11
58 484 245
59 365 982
60 648 790
61 878 261
62 600 800
63 493 722
64 549 214
65 714 918
66 638 166
67 452 172
68 711 687
69 924 905
70 326 662
71 786 203
72 24 32
73 529 661
74 843 248
75 115 449
76 82 971
77 876 644
78 322 24
79 642 810
80 685 607
81 141 824
82 351 732
83 641 954
84 330 941
85 830 188
86 469 250
87 970 812
88 723 360
89 274 238
90 668 103
91 562 82
92 269 147
93 135 493
94 895 953
95 930 729
96 579 972
97 901 987
98 546 102
99 664 479
100 967 393
101 388 767
102 977 995
103 933 329
104 947 364
105 242 400
106 991 716
107 738 728
108 436 466
109 346 490
110 639 634
111 765 715
112 772 60
113 254 183
114 804 906
115 150 451
116 378 297
117 881 802
118 959 912
119 225 450
120 842 994
121 662 474
122 20 116
123 562 217
124 709 544
125 50 682
126 771 244
127 538 704
128 506 883
129 414 522
130 583 435
131 210 579
132 326 715
133 92 24
134 879 544
135 648 720
136 291 405
137 14 19
138 446 28
139 130 966
140 978 572
141 333 105
142 558 84
143 288 10
144 783 837
145 319 895
146 76 494
147 289 952
148 254 165
149 915 405
150 151 945
151 407 685
152 106 831
153 373 284
154 875 321
155 768 758
156 735 150
157 304 323
158 760 158
159 277 663
160 217 608
161 712 264
162 879 873
163 52 214
164 63 197
165 690 714
166 579 862
167 313 245
168 32 608
169 9 608
170 840 747
171 152 742
172 994 868
173 294 57
174 76 784
175 302 11
176 527 742
177 753 939
178 156 870
179 571 127
180 913 884
181 637 341
182 162 87
183 581 979
184 93 14
185 427 499
186 856 260
187 54 332
188 459 387
189 118 61
190 754 299
191 233 411
192 883 640
193 288 268
194 720 892
195 115 418
196 22 358
197 839 126
198 516 272
199 361 714
200 157 512
201 855 12
202 798 356
203 882 889
204 554 183
205 354 851
206 21 719
207 812 664
208 650 254
209 196 793
210 668 231
211 412 946
212 57 773
213 911 335
214 371 480
215 723 473
216 223 658
217 234 50
218 118 434
219 393 488
220 225 141
221 444 66
222 547 252
223 106 475
224 636 540
225 104 269
226 135 647
227 844 424
228 428 875
229 94 941
230 325 93
231 172 293
232 381 958
233 148 504
234 588 69
235 709 51
236 129 266
237 679 164
238 977 422
239 372 843
240 912 957
241 1000 521
242 743 716
243 838 43
244 649 346
245 144 771
246 771 321
247 454 383
248 553 361
249 419 490
250 482 77
251 13 726
252 967 302
253 556 701
254 484 665
255 972 422
256 297 676
257 476 864
258 978 988
259 340 827
260 675 391
261 225 785
262 832 207
263 465 723
264 289 259
265 281 611
266 752 271
267 539 782
268 25 72
269 772 963
270 724 627
271 791 367
272 375 323
273 0 91
274 385 995
275 132 510
276 488 274
277 403 745
278 965 258
279 456 817
280 313 773
281 486 256
282 657 8
283 256 745
284 668 922
285 528 298
286 153 272
287 303 733
288 814 649
289 352 306
290 187 498
291 115 362
292 857 350
293 663 898
294 222 391
295 846 792
296 461 617
297 290 396
298 333 441
299 292 402
300 781 370
301 197 119
302 582 192
303 506 792
304 638 178
305 755 124
306 654 335
307 917 986
308 277 98
309 986 960
310 66 850
311 623 623
312 602 913
313 674 0
314 125 625
315 937 264
316 430 671
317 171 691
318 1 656
319 374 862
320 407 938
321 284 116
322 939 702
323 155 256
324 504 293
325 770 501
326 764 790
327 702 683
328 525 835
329 839 711
330 379 711
331 140 264
332 597 673
333 657 752
334 798 514
335 679 437
336 843 272
337 708 837
338 55 768
339 664 373
340 103 28
341 841 826
342 47 539
343 530 354
344 924 776
345 477 784
346 69 282
347 371 110
348 309 154
349 234 333
350 61 527
351 104 132
352 711 178
353 47 755
354 357 66
355 332 541
356 860 711
357 817 206
358 853 658
359 440 187
360 603 576
361 438 190
362 857 282
363 169 702
364 461 299
365 878 549
366 252 181
367 714 846
368 196 92
369 780 638
370 724 171
371 650 937
372 353 961
373 505 953
374 801 374
375 239 74
376 718 26
377 325 941
378 0 789
379 461 432
380 330 888
381 391 542
382 548 841
383 965 772
384 61 446
385 215 324
386 181 749
387 562 764
388 678 70
389 422 965
390 985 664
391 678 370
392 118 587
393 913 258
394 548 391
395 669 600
396 735 621
397 474 67
398 615 218
399 854 798
400 850 728
401 390 924
402 768 589
403 4 303
404 204 802
405 43 400
406 525 257
407 673 778
408 850 158
409 593 392
410 123 233
411 935 921
412 130 687
413 394 334
414 765 405
415 625 734
416 540 408
417 881 423
418 358 553
419 903 236
420 64 121
421 11 847
422 758 962
423 981 723
424 36 659
425 539 348
426 506 458
427 762 62
428 956 508
429 173 89
430 96 995
431 982 670
432 593 42
433 256 579
434 706 808
435 373 748
436 260 698
437 538 250
438 348 539
439 952 444
440 716 841
441 84 185
442 320 795
443 168 346
444 857 379
445 84 839
446 901 930
447 637 820
448 297 973
449 61 140
450 804 298
451 795 51
452 979 294
453 492 157
454 324 520
455 285 618
456 672 535
457 306 601
458 832 980
DEMAND_SECTION
2 95
3 66
4 66
5 50
6 55
7 91
8 100
9 73
10 96
11 85
12 82
13 72
14 77
15 62
16 86
17 100
18 63
19 94
20 97
21 78
22 94
23 83
24 90
25 71
26 59
27 88
28 50
29 65
30 75
31 50
32 56
33 90
34 56
35 71
36 95
37 93
38 97
39 79
40 94
41 69
42 90
43 63
44 93
45 82
46 53
47 92
48 70
49 88
50 57
51 93
52 69
53 66
54 98
55 75
56 69
57 87
58 69
59 55
60 64
61 92
62 96
63 80
64 85
65 66
66 99
67 54
68 77
69 67
70 77
71 66
72 74
73 93
74 81
75 60
76 73
77 64
78 84
79 60
80 57
81 95
82 63
83 51
84 77
85 67
86 70
87 98
88 66
89 60
90 56
91 72
92 77
93 71
94 51
95 79
96 97
97 93
98 84
99 79
100 75
101 86
102 58
103 65
104 54
105 57
COVERAGE_SECTION
2 9 87 172 383 344 28 118 180 69 117 
3 8 247 188 413 272 379 364 31 116 
4 8 334 325 402 124 215 396 49 369 
5 9 131 160 433 216 314 392 226 200 265 
6 9 155 22 111 107 326 242 170 329 400 
7 8 283 436 386 261 287 216 363 317 
8 9 292 444 154 374 202 271 213 227 300 
9 9 189 182 429 340 368 133 184 351 301 
10 9 53 61 362 393 154 186 336 419 315 
11 9 138 397 221 250 142 91 98 354 432 
12 9 204 42 453 179 64 302 123 98 17 
13 9 181 244 306 339 48 391 260 409 46 
14 9 47 385 231 349 286 323 89 331 193 
15 9 310 445 152 229 421 178 81 174 76 
16 9 239 259 101 205 319 435 442 277 279 
17 9 302 304 66 398 42 204 179 52 123 
18 9 163 164 23 225 346 410 441 236 331 
19 9 353 338 40 212 174 125 412 206 171 
20 9 39 388 90 432 234 282 235 313 91 
21 8 264 193 167 89 157 289 153 116 
22 9 155 326 6 107 111 144 242 434 170 
23 8 225 236 331 410 18 346 286 323 
24 9 112 427 451 376 235 243 305 388 201 
25 9 114 144 27 341 162 203 399 177 295 
26 9 164 449 163 441 420 122 18 351 273 
27 9 114 25 51 458 269 203 177 162 120 
28 9 344 117 399 295 383 87 95 341 2 
29 9 406 222 198 437 285 324 276 54 281 
30 9 166 382 62 34 328 447 267 79 387 
31 9 379 188 247 416 426 394 343 3 108 
32 9 277 263 151 330 316 101 435 63 199 
33 9 161 266 126 190 210 352 71 208 370 
34 9 328 382 303 267 30 166 128 257 387 
35 9 44 86 361 359 58 67 281 276 453 
36 9 347 359 361 44 67 141 35 348 230 
37 9 140 192 365 390 77 134 431 428 241 
38 9 403 196 187 346 405 55 291 225 18 
39 9 20 90 388 234 432 91 179 142 235 
40 9 174 212 338 353 19 152 445 245 310 
41 8 332 311 73 110 360 253 127 395 
42 9 204 302 64 123 12 52 17 179 398 
43 9 342 350 146 384 168 169 223 275 392 
44 9 361 359 35 67 36 86 58 453 281 
45 9 199 330 132 82 70 151 435 256 277 
46 9 391 260 88 339 244 306 48 13 181 
47 9 385 14 231 349 443 286 323 331 236 
48 9 339 13 260 391 244 181 409 306 46 
49 9 288 358 77 192 207 369 402 365 134 
50 9 214 219 109 129 249 381 438 185 454 
51 9 458 120 269 27 422 114 177 94 97 
52 9 123 64 302 398 222 42 437 204 17 
53 9 61 393 10 419 186 362 74 315 336 
54 9 285 324 343 425 198 248 29 276 364 
55 9 291 187 443 346 195 225 405 196 23 
56 9 448 377 84 147 372 59 232 274 145 
57 9 217 143 375 175 173 368 429 182 78 
58 9 281 86 276 35 198 406 324 437 364 
59 9 274 372 232 56 84 377 211 389 320 
60 9 79 407 447 333 62 415 434 135 337 
61 9 53 186 10 362 393 419 74 336 315 
62 9 447 30 79 60 387 267 166 382 415 
63 9 263 176 127 254 32 345 253 73 303 
64 9 123 42 52 204 222 437 302 406 12 
65 9 194 177 284 293 422 371 367 269 440 
66 9 304 17 237 398 302 90 210 352 179 
67 9 359 361 44 453 35 36 58 86 12 
68 9 327 165 242 107 111 270 396 135 80 
69 9 411 180 446 118 203 240 162 94 172 
70 9 256 45 159 132 455 199 457 265 330 
71 9 357 126 85 262 158 370 74 33 156 
72 9 137 268 273 133 184 340 122 189 420 
73 9 127 254 253 41 332 63 176 296 263 
74 9 186 336 61 362 262 53 357 10 85 
75 9 218 223 195 115 93 384 146 275 233 
76 9 430 229 139 150 15 310 178 445 152 
77 9 192 358 49 288 207 356 329 37 322 
78 9 175 143 173 354 230 141 308 217 375 
79 9 447 60 62 407 333 434 30 337 415 
80 9 395 270 396 110 311 124 456 327 224 
81 8 152 178 245 445 209 404 174 40 
82 9 199 435 132 330 45 287 101 277 280 
83 9 371 284 312 293 96 183 65 194 166 
84 9 377 372 56 147 448 145 380 59 232 
85 9 262 357 408 71 74 197 158 186 126 
86 9 58 281 276 35 364 198 324 406 44 
87 9 2 383 344 172 28 117 423 95 180 
88 9 46 391 260 300 339 246 414 190 271 
89 9 264 193 21 167 113 366 14 148 157 
90 9 388 39 20 237 235 66 304 156 352 
91 9 142 98 234 179 432 39 250 20 12 
92 9 148 321 366 113 348 220 308 141 301 
93 9 233 275 200 223 115 75 290 146 218 
94 9 240 446 97 307 411 69 203 120 458 
95 9 322 344 423 383 106 28 356 431 400 
96 7 183 312 83 373 371 284 166 
97 9 307 240 94 446 120 458 411 102 258 
98 9 142 91 179 234 12 250 432 453 397 
99 6 121 335 456 215 224 124 
100 9 255 238 104 149 439 103 213 252 417 
101 9 435 277 16 82 330 32 199 442 280 
102 9 258 309 307 240 97 118 411 94 446 
103 9 213 104 252 452 154 10 315 100 393 
104 9 100 103 213 149 255 238 252 452 439 
105 8 191 294 297 136 299 119 349 385 
106 9 423 431 390 322 95 383 344 87 2 
107 9 242 111 6 155 68 165 22 327 326 
108 7 249 185 379 219 129 214 50 
109 8 214 50 454 219 438 298 355 418 
110 9 311 395 80 332 41 360 327 270 135 
111 9 242 107 6 155 22 68 207 327 329 
112 9 427 24 451 235 376 305 243 197 388 
113 8 366 148 92 220 89 348 321 264 
114 9 27 25 177 269 144 422 51 458 203 
115 9 75 218 93 195 223 233 290 200 275 
116 8 153 272 289 413 157 21 167 364 
117 9 399 28 295 341 344 170 162 400 203 
118 9 411 69 180 309 172 446 240 94 258 
119 8 191 105 294 290 115 136 299 297 
120 9 458 51 97 94 307 27 269 240 446 
121 7 99 335 215 456 224 124 260 
122 9 273 268 420 449 26 72 351 164 441 
123 9 64 52 42 302 204 222 437 398 406 
124 9 456 80 4 395 215 224 402 325 99 
125 9 424 206 318 251 19 353 168 412 169 
126 9 266 33 71 190 357 161 450 262 74 
127 9 253 176 73 63 387 254 332 263 267 
128 6 257 328 382 34 373 166 
129 5 185 381 249 219 50 
130 6 409 416 394 48 248 426 
131 8 5 160 433 265 216 290 200 455 
132 9 287 82 199 45 256 70 330 435 280 
133 9 184 340 189 9 72 137 268 182 420 
134 6 365 49 37 428 334 192 
135 9 415 333 165 407 327 332 60 68 110 
136 5 299 297 105 298 191 
137 9 72 268 273 133 184 340 122 189 420 
138 9 11 221 397 250 354 347 78 98 142 
139 8 150 229 430 76 178 15 310 445 
140 9 37 241 428 390 431 134 365 192 77 
141 9 230 347 354 321 348 308 173 92 36 
142 9 91 98 234 179 432 250 39 12 397 
143 9 175 78 173 57 217 375 308 354 230 
144 9 25 326 341 22 440 367 114 337 295 
145 9 380 377 84 205 147 319 259 239 372 
146 9 223 350 384 342 43 275 93 75 218 
147 8 448 56 377 84 145 372 380 59 
148 9 366 113 92 220 348 321 308 301 89 
149 8 417 104 100 439 255 238 444 213 
150 7 139 229 76 430 178 15 81 
151 9 316 330 32 45 199 277 263 435 82 
152 9 445 81 310 15 174 40 178 245 212 
153 8 116 289 272 413 167 21 157 193 
154 9 292 10 213 362 8 103 336 61 444 
155 9 6 22 326 107 111 242 170 144 434 
156 9 370 158 305 352 237 71 90 427 112 
157 6 289 193 21 264 272 349 
158 9 156 305 370 71 352 357 85 237 197 
159 9 256 436 455 70 265 216 457 132 287 
160 9 5 131 433 216 265 455 159 457 226 
161 9 33 266 190 210 126 208 246 352 306 
162 9 203 180 69 341 446 25 117 27 411 
163 9 164 18 441 26 346 410 23 449 225 
164 8 163 441 26 18 449 410 420 351 
165 9 327 68 135 107 333 242 407 415 111 
166 9 30 382 312 34 328 62 447 128 79 
167 9 21 264 193 89 153 289 157 116 113 
168 9 169 424 318 342 125 43 350 392 314 
169 9 168 318 424 342 125 43 350 392 206 
170 9 400 329 356 295 399 6 117 155 22 
171 9 245 386 363 317 412 19 209 404 7 
172 9 2 118 87 69 411 180 309 383 446 
173 9 78 308 143 175 230 375 217 321 141 
174 9 40 212 338 353 19 152 445 310 245 
175 9 143 78 173 217 354 57 230 375 308 
176 9 63 127 387 267 253 303 263 345 73 
177 9 422 269 65 194 114 27 51 284 25 
178 7 81 152 150 445 15 404 209 
179 9 98 142 91 12 17 204 234 42 302 
180 9 69 203 162 411 446 118 94 240 172 
181 9 244 13 306 339 48 391 260 46 409 
182 9 429 9 368 301 189 351 375 217 220 
183 7 96 83 312 373 371 284 293 
184 9 133 340 189 72 9 137 268 182 429 
185 5 249 129 108 219 50 
186 9 74 336 61 362 53 10 419 393 262 
187 9 196 38 55 346 403 291 405 225 23 
188 9 247 3 31 379 343 108 413 416 54 
189 9 9 340 133 182 184 429 351 420 368 
190 9 246 266 450 161 33 126 88 202 300 
191 8 105 294 119 136 297 299 349 385 
192 9 77 358 49 288 37 207 356 322 329 
193 9 264 21 89 167 157 289 14 349 153 
194 9 65 367 440 337 177 293 284 422 371 
195 9 218 75 115 291 223 384 55 405 93 
196 9 38 187 405 403 55 346 291 384 195 
197 7 408 85 262 243 357 305 158 
198 9 406 29 324 276 285 437 281 222 58 
199 9 330 82 45 132 435 277 151 101 287 
200 9 233 275 93 290 115 223 75 146 131 
201 4 243 451 112 24 
202 9 271 374 300 246 8 450 292 414 444 
203 9 162 180 69 446 411 94 27 25 240 
204 9 42 12 302 64 123 52 17 179 453 
205 8 239 319 259 380 16 145 442 228 
206 9 251 353 125 338 424 212 19 318 378 
207 9 288 358 369 329 49 77 356 111 400 
208 9 210 398 161 33 304 52 306 181 66 
209 5 404 261 386 245 81 
210 9 208 161 398 33 304 237 352 66 370 
211 7 320 389 401 232 274 59 372 
212 9 338 40 353 174 19 378 251 206 445 
213 9 103 154 104 10 292 8 252 149 444 
214 8 50 219 109 249 298 185 129 454 
215 7 325 335 99 121 124 414 456 
216 9 160 159 436 317 5 7 363 455 265 
217 9 375 57 368 173 308 143 429 175 301 
218 9 75 195 115 223 384 93 291 146 233 
219 8 50 214 249 185 129 109 108 381 
220 8 301 148 92 366 113 368 321 308 
221 9 397 138 250 11 347 354 36 453 67 
222 9 437 29 406 198 64 123 52 285 324 
223 9 75 93 146 218 275 115 233 384 195 
224 5 456 360 99 395 121 
225 8 23 236 331 346 410 18 286 323 
226 9 314 412 317 392 363 5 216 160 125 
227 4 417 444 8 374 
228 8 257 319 401 239 279 320 211 16 
229 9 76 139 430 150 15 178 310 445 152 
230 9 141 354 321 173 308 347 348 78 92 
231 8 286 47 323 14 331 236 385 443 
232 9 372 59 211 320 401 274 389 84 377 
233 9 200 93 275 290 223 115 75 146 218 
234 9 432 91 142 39 98 20 179 90 388 
235 9 376 388 427 24 313 112 90 282 20 
236 8 331 23 225 286 323 410 231 18 
237 9 352 66 304 370 156 90 210 17 158 
238 9 255 100 439 149 104 428 417 241 103 
239 9 319 205 16 259 380 228 442 145 101 
240 9 94 307 446 97 411 69 118 180 258 
241 9 428 140 439 37 238 255 134 365 100 
242 9 107 111 68 6 155 165 327 22 326 
243 6 201 451 112 24 427 197 
244 9 306 181 13 339 391 48 260 46 409 
245 9 171 386 81 209 404 19 174 40 152 
246 9 190 450 202 271 300 266 374 88 126 
247 9 188 3 31 379 413 343 364 108 54 
248 9 425 343 394 416 409 54 285 31 130 
249 6 185 219 108 129 50 214 
250 9 397 221 138 11 98 142 91 453 67 
251 9 206 353 125 338 212 378 318 424 19 
252 8 452 103 278 315 104 213 393 10 
253 9 127 73 176 332 387 63 41 415 254 
254 9 73 296 316 63 263 127 151 253 32 
255 8 238 100 439 149 104 428 417 103 
256 9 159 70 436 132 287 455 45 265 199 
257 6 128 228 279 328 34 382 
258 9 102 309 307 240 97 118 411 94 446 
259 7 205 239 442 16 319 280 380 
260 9 339 391 46 48 335 244 13 88 306 
261 5 404 209 283 386 7 
262 9 357 85 74 71 408 186 336 61 126 
263 9 63 32 254 345 316 176 277 151 127 
264 9 193 21 89 167 157 289 14 113 366 
265 8 455 457 433 159 160 256 70 216 
266 9 190 126 33 161 246 450 71 336 357 
267 9 387 303 176 34 328 382 345 62 30 
268 9 273 72 122 137 420 449 133 184 340 
269 9 422 177 51 458 114 27 65 120 194 
270 9 396 80 369 402 327 68 395 124 110 
271 8 300 374 202 414 246 8 444 88 
272 6 413 116 289 153 3 157 
273 9 268 122 72 420 137 449 26 351 133 
274 8 59 232 372 389 211 320 56 401 
275 9 93 233 200 223 290 146 115 75 350 
276 9 281 324 198 58 86 364 406 285 29 
277 9 101 435 32 330 199 82 151 263 45 
278 6 315 452 252 393 419 53 
279 9 345 257 303 228 328 16 34 128 101 
280 6 442 287 82 132 259 283 
281 9 58 86 276 198 406 324 35 364 437 
282 9 313 20 376 388 235 432 39 234 90 
283 5 7 436 287 261 280 
284 9 371 293 83 65 194 312 177 367 337 
285 9 324 29 54 198 406 276 437 222 425 
286 8 331 323 236 231 23 225 410 14 
287 8 132 280 82 283 436 256 199 442 
288 9 207 369 358 49 77 329 192 402 356 
289 7 116 272 153 413 157 21 167 
290 8 200 233 93 275 115 119 131 223 
291 9 55 443 195 187 218 405 75 231 346 
292 9 8 444 154 213 202 374 271 362 10 
293 9 284 371 65 194 83 312 367 337 440 
294 9 105 191 119 349 385 297 136 443 299 
295 9 399 341 117 170 28 400 22 144 344 
296 4 254 316 73 151 
297 5 299 136 105 191 298 
298 6 109 214 136 299 297 50 
299 5 136 297 105 298 191 
300 8 271 374 202 414 246 88 8 190 
301 7 368 220 429 182 375 148 9 
302 9 42 204 17 123 52 64 398 12 304 
303 9 345 267 34 328 176 279 387 382 63 
304 9 66 17 237 398 302 210 352 208 52 
305 9 156 158 370 427 112 352 24 451 197 
306 9 244 181 13 339 391 46 48 260 88 
307 9 97 240 94 446 102 258 411 309 120 
308 9 321 173 375 230 92 141 217 348 220 
309 9 258 102 118 411 240 307 69 97 446 
310 9 445 15 152 421 174 40 212 81 338 
311 8 110 41 360 395 332 80 224 327 
312 9 371 166 83 96 293 284 183 30 382 
313 9 282 376 235 20 388 432 39 24 90 
314 9 226 392 412 5 317 363 125 160 168 
315 8 393 278 419 53 252 10 452 61 
316 8 151 32 254 296 263 330 45 277 
317 9 363 412 171 226 386 216 7 314 245 
318 9 424 169 125 168 206 251 353 19 338 
319 9 239 205 16 259 380 228 145 401 320 
320 7 211 401 389 232 372 59 274 
321 9 308 92 348 230 141 148 173 375 220 
322 9 95 423 106 431 390 383 344 356 192 
323 7 286 331 236 410 231 23 225 
324 9 198 276 285 54 29 281 406 364 58 
325 5 334 4 215 124 402 
326 9 22 155 6 144 434 107 440 337 111 
327 9 68 165 242 107 270 135 396 111 80 
328 9 34 382 303 30 128 267 257 166 345 
329 9 400 356 170 207 358 288 111 6 77 
330 9 199 45 82 435 151 277 32 132 101 
331 7 236 286 323 23 410 225 231 
332 9 41 253 311 110 127 415 73 135 360 
333 9 407 135 415 60 165 79 447 434 62 
334 6 325 4 402 215 134 365 
335 8 121 99 260 215 48 339 46 391 
336 9 362 186 74 61 450 53 10 154 262 
337 9 440 367 434 194 407 79 326 447 144 
338 9 212 353 40 174 19 251 378 206 445 
339 9 391 260 48 46 244 13 306 181 88 
340 9 133 184 189 9 72 182 137 268 429 
341 9 399 295 117 25 144 162 28 203 170 
342 9 350 43 146 168 169 392 223 275 384 
343 9 425 248 54 394 416 285 324 31 409 
344 9 28 383 95 117 87 399 2 322 423 
345 9 303 279 263 267 63 176 34 328 32 
346 9 225 23 18 187 236 403 163 55 331 
347 9 141 354 230 36 348 221 321 173 308 
348 9 92 321 141 148 113 230 366 308 347 
349 8 385 47 14 294 105 443 157 231 
350 9 342 43 146 223 275 93 384 392 168 
351 7 420 449 441 189 9 182 26 
352 9 370 237 156 158 210 305 33 304 66 
353 9 338 212 40 174 206 19 251 378 125 
354 9 230 141 347 78 173 175 308 221 321 
355 7 438 454 418 109 381 50 457 
356 9 400 329 170 358 207 77 95 192 288 
357 9 262 85 71 74 408 126 186 336 158 
358 9 77 192 288 207 49 356 329 400 369 
359 9 361 44 67 35 36 453 86 58 281 
360 5 224 311 41 110 395 
361 9 359 44 67 35 36 453 86 58 281 
362 9 336 186 61 10 74 53 154 450 393 
363 9 317 412 171 386 226 7 216 245 19 
364 9 276 324 86 281 58 54 198 285 3 
365 7 134 49 37 334 428 192 77 
366 8 113 148 92 220 89 348 321 301 
367 9 440 337 434 194 144 65 293 326 407 
368 9 429 301 182 375 217 220 9 308 189 
369 9 288 207 396 402 270 49 358 111 68 
370 9 352 156 158 237 305 71 33 210 66 
371 9 83 284 293 312 65 96 183 194 166 
372 9 59 232 84 377 56 274 401 448 320 
373 5 128 96 183 389 211 
374 8 271 202 300 414 8 444 246 292 
375 9 217 308 368 173 301 321 57 220 429 
376 9 235 24 313 427 388 112 282 451 20 
377 9 84 372 56 147 448 145 380 59 232 
378 9 353 212 338 421 251 206 40 174 310 
379 8 31 108 188 247 426 249 3 185 
380 8 145 205 319 84 377 239 259 401 
381 8 129 418 438 50 219 185 249 355 
382 9 34 328 30 166 128 267 303 62 257 
383 9 87 344 423 95 2 28 106 322 117 
384 9 405 146 75 223 218 195 350 43 93 
385 9 47 349 14 443 231 294 105 286 157 
386 8 171 245 209 363 7 261 404 317 
387 9 267 176 62 253 303 127 34 415 30 
388 9 90 235 20 39 376 282 313 427 24 
389 7 211 320 232 274 401 59 372 
390 9 431 106 423 322 37 95 140 192 383 
391 9 339 46 260 244 48 306 13 88 181 
392 9 314 226 5 275 350 200 342 233 168 
393 9 53 419 315 10 61 278 186 362 252 
394 9 416 248 343 425 409 130 31 54 426 
395 9 80 110 311 270 456 224 124 396 360 
396 9 270 402 369 80 395 68 327 124 288 
397 9 250 221 138 11 98 142 91 453 67 
398 9 52 302 17 304 208 123 210 66 42 
399 9 295 117 341 28 170 400 344 162 144 
400 9 329 356 170 295 358 399 207 6 95 
401 8 320 211 232 372 389 84 228 59 
402 9 396 4 369 270 49 124 288 334 80 
403 9 38 187 196 346 18 163 405 225 55 
404 4 209 261 386 81 
405 9 196 384 187 195 38 55 291 218 75 
406 9 437 198 29 222 281 276 285 324 58 
407 9 60 333 79 434 447 135 415 165 337 
408 7 197 85 262 357 71 74 158 
409 9 130 394 48 248 416 13 181 425 244 
410 6 236 23 331 323 225 18 
411 9 69 118 446 180 240 94 203 309 307 
412 9 226 317 363 171 314 19 125 386 245 
413 7 272 116 3 289 153 364 247 
414 6 300 271 374 202 88 46 
415 9 135 333 60 407 332 165 387 62 253 
416 8 394 31 248 130 343 409 425 426 
417 5 227 149 444 8 439 
418 8 438 355 381 454 50 109 129 457 
419 9 393 53 61 315 10 186 74 362 278 
420 9 449 351 122 26 268 441 273 164 189 
421 9 310 378 15 445 212 338 174 40 152 
422 9 269 177 65 51 114 458 27 194 120 
423 9 106 322 95 383 431 390 344 87 28 
424 9 125 318 168 169 206 251 19 314 353 
425 9 343 248 54 394 285 416 324 409 29 
426 4 31 379 416 108 
427 9 112 24 451 235 376 305 243 388 156 
428 8 241 439 140 134 255 365 238 37 
429 9 182 368 301 9 189 375 217 220 351 
430 8 76 139 229 150 15 178 310 445 
431 9 390 106 423 322 95 37 140 192 383 
432 9 234 91 20 142 39 282 98 179 388 
433 8 265 131 160 455 457 5 355 216 
434 9 337 440 367 407 60 326 79 447 22 
435 9 101 82 277 199 330 132 45 32 280 
436 9 7 159 256 283 216 287 132 70 455 
437 9 222 406 29 198 64 123 52 285 281 
438 8 355 418 454 381 50 109 214 129 
439 7 255 238 100 149 428 417 104 
440 9 367 337 434 194 144 326 407 65 293 
441 7 164 163 26 449 18 351 410 
442 6 280 259 287 205 16 82 
443 9 47 385 231 291 55 349 294 286 14 
444 9 8 292 227 417 374 154 202 149 271 
445 9 310 152 15 174 40 81 212 421 338 
446 9 94 240 69 411 203 180 97 307 118 
447 9 79 60 62 407 30 434 333 166 337 
448 8 56 147 377 84 372 59 145 232 
449 9 420 26 351 122 441 164 163 268 273 
450 9 246 336 190 362 202 266 74 126 186 
451 9 112 24 427 243 201 376 305 235 197 
452 7 252 278 315 103 393 104 213 
453 9 67 12 359 361 204 35 44 42 98 
454 7 355 438 109 418 50 214 381 
455 8 265 457 159 433 256 70 160 216 
456 8 224 124 99 121 395 80 215 360 
457 8 265 455 433 70 355 159 418 438 
458 9 51 120 27 269 94 97 422 114 240 
DEPOT_SECTION
   1
   -1
EOF
