NAME :  X-n599-kX-w239-c9.cctp
COMMENT : 	Adapted by Maziero, Usberti and Cavellucci from the Uchoa, Pecin, Pessoa, Poggi, Subramanian, and Vidal (2013)
TYPE :  CCTP
DIMENSION :    596
EDGE_WEIGHT_TYPE : 	EUC_2D	
CAPACITY : 	487
VERTICES_WITHIN_COVERAGE :  9
VERTICES_WITH_DEMAND : 	239
NODE_COORD_SECTION
1 284 167
2 6 711
3 874 746
4 483 894
5 733 189
6 336 29
7 488 684
8 825 903
9 98 412
10 206 306
11 497 641
12 499 745
13 481 40
14 500 390
15 851 268
16 51 278
17 805 796
18 554 771
19 576 984
20 734 251
21 325 414
22 658 81
23 279 467
24 1000 804
25 124 148
26 554 594
27 645 168
28 4 965
29 614 267
30 939 719
31 935 800
32 109 154
33 31 554
34 960 512
35 489 840
36 377 684
37 945 808
38 720 165
39 226 34
40 73 255
41 748 344
42 774 514
43 143 893
44 168 461
45 164 493
46 631 533
47 815 191
48 833 284
49 746 100
50 252 839
51 894 472
52 944 597
53 371 28
54 552 186
55 610 541
56 578 665
57 749 655
58 898 974
59 274 972
60 520 642
61 914 373
62 610 738
63 773 602
64 752 74
65 729 90
66 464 658
67 70 36
68 964 397
69 388 732
70 185 51
71 712 144
72 45 437
73 910 738
74 956 879
75 318 560
76 592 913
77 642 564
78 907 240
79 88 186
80 399 931
81 763 180
82 626 876
83 302 689
84 970 490
85 775 574
86 653 667
87 813 999
88 5 980
89 10 249
90 980 136
91 557 816
92 915 680
93 131 722
94 553 946
95 45 101
96 306 260
97 627 26
98 771 398
99 869 585
100 493 282
101 312 212
102 985 939
103 194 262
104 992 698
105 834 844
106 1 651
107 271 893
108 20 349
109 163 503
110 579 761
111 923 502
112 2 469
113 103 284
114 928 132
115 51 883
116 63 181
117 784 300
118 212 774
119 138 90
120 532 999
121 160 179
122 51 330
123 743 949
124 439 328
125 519 563
126 15 591
127 2 546
128 20 964
129 975 611
130 128 984
131 131 737
132 214 591
133 969 497
134 367 77
135 925 640
136 160 288
137 771 912
138 162 80
139 252 140
140 704 21
141 980 560
142 896 344
143 566 389
144 892 149
145 20 663
146 405 859
147 391 304
148 475 920
149 649 458
150 480 756
151 835 65
152 407 973
153 447 697
154 363 808
155 82 623
156 344 837
157 325 148
158 249 926
159 894 188
160 146 433
161 22 95
162 789 664
163 110 741
164 378 573
165 606 838
166 583 717
167 151 525
168 803 457
169 971 191
170 687 417
171 512 553
172 893 179
173 339 985
174 108 241
175 268 98
176 317 221
177 763 566
178 310 305
179 572 203
180 454 957
181 621 295
182 706 865
183 154 175
184 881 149
185 122 50
186 163 817
187 825 86
188 879 455
189 801 726
190 504 198
191 970 276
192 934 920
193 21 730
194 0 689
195 55 848
196 234 477
197 475 485
198 881 106
199 125 170
200 169 455
201 683 933
202 825 911
203 300 380
204 836 71
205 492 28
206 466 702
207 280 878
208 529 935
209 580 243
210 892 721
211 844 830
212 249 541
213 950 63
214 139 349
215 345 668
216 202 781
217 435 492
218 703 608
219 220 590
220 293 435
221 195 547
222 28 660
223 481 59
224 632 672
225 220 763
226 13 308
227 216 306
228 32 554
229 826 687
230 512 498
231 96 824
232 510 533
233 158 386
234 829 812
235 867 873
236 784 951
237 690 940
238 220 977
239 852 979
240 776 539
241 723 945
242 399 357
243 456 434
244 113 924
245 885 12
246 30 459
247 659 795
248 623 116
249 635 270
250 232 431
251 520 384
252 838 24
253 758 862
254 73 559
255 676 791
256 492 942
257 869 445
258 79 773
259 843 368
260 23 54
261 908 695
262 727 140
263 314 736
264 73 940
265 646 802
266 946 370
267 461 280
268 987 63
269 181 970
270 619 314
271 233 651
272 310 285
273 440 921
274 84 462
275 659 265
276 294 353
277 676 392
278 631 446
279 344 805
280 392 406
281 973 635
282 0 537
283 973 718
284 762 474
285 741 920
286 889 147
287 806 717
288 762 978
289 217 27
290 446 332
291 185 282
292 456 227
293 972 759
294 774 283
295 29 157
296 110 925
297 396 428
298 427 836
299 334 853
300 695 663
301 216 367
302 914 966
303 675 144
304 380 424
305 983 421
306 196 287
307 703 575
308 42 81
309 574 452
310 188 558
311 651 950
312 761 901
313 699 838
314 257 174
315 828 842
316 316 34
317 391 970
318 725 674
319 120 90
320 694 30
321 517 759
322 365 235
323 494 299
324 582 323
325 266 128
326 905 177
327 491 337
328 872 740
329 660 518
330 523 459
331 735 841
332 157 997
333 45 383
334 354 180
335 425 710
336 601 696
337 985 82
338 838 611
339 608 357
340 829 443
341 954 46
342 831 477
343 977 848
344 61 126
345 254 595
346 337 5
347 750 956
348 962 264
349 832 389
350 870 159
351 537 349
352 15 890
353 85 734
354 17 668
355 650 591
356 42 53
357 367 72
358 951 526
359 607 633
360 686 319
361 483 489
362 915 493
363 625 316
364 920 267
365 189 208
366 735 596
367 128 875
368 544 996
369 700 96
370 314 626
371 240 431
372 689 615
373 177 160
374 132 639
375 292 500
376 313 752
377 240 47
378 750 460
379 314 486
380 701 50
381 459 543
382 303 175
383 541 185
384 966 670
385 858 77
386 7 640
387 911 283
388 550 784
389 414 218
390 657 974
391 565 856
392 725 81
393 557 176
394 122 60
395 347 872
396 86 270
397 671 300
398 855 53
399 306 688
400 62 569
401 592 581
402 380 868
403 191 553
404 108 151
405 806 685
406 956 106
407 702 965
408 465 782
409 315 454
410 257 878
411 859 581
412 857 385
413 671 387
414 956 788
415 615 350
416 932 515
417 713 464
418 614 647
419 39 570
420 293 866
421 861 930
422 997 658
423 25 56
424 996 771
425 609 794
426 575 912
427 798 641
428 47 705
429 33 332
430 20 892
431 406 668
432 911 786
433 287 587
434 709 973
435 230 500
436 999 267
437 101 865
438 218 917
439 478 14
440 179 48
441 284 237
442 832 379
443 685 104
444 275 165
445 224 45
446 31 407
447 215 179
448 558 298
449 385 391
450 8 935
451 760 662
452 255 263
453 811 645
454 152 288
455 840 493
456 48 522
457 624 942
458 557 687
459 302 629
460 570 674
461 523 682
462 521 738
463 825 540
464 906 960
465 286 33
466 43 940
467 410 713
468 96 760
469 269 427
470 329 180
471 893 150
472 634 97
473 907 61
474 285 241
475 431 871
476 964 134
477 211 400
478 19 292
479 15 407
480 986 675
481 272 671
482 346 394
483 963 309
484 551 663
485 759 368
486 281 999
487 416 642
488 966 681
489 416 755
490 545 448
491 852 486
492 487 456
493 571 354
494 57 476
495 569 437
496 828 352
497 625 458
498 446 705
499 197 107
500 652 878
501 559 625
502 539 149
503 194 624
504 76 178
505 433 175
506 869 714
507 345 130
508 172 542
509 883 701
510 167 695
511 265 285
512 465 898
513 625 552
514 876 277
515 896 763
516 429 312
517 953 351
518 634 37
519 5 753
520 998 497
521 237 482
522 787 445
523 695 461
524 50 301
525 429 596
526 881 355
527 888 609
528 927 216
529 555 110
530 166 518
531 840 933
532 916 873
533 221 705
534 97 71
535 634 685
536 759 542
537 111 830
538 832 46
539 680 133
540 152 639
541 489 197
542 728 864
543 216 62
544 694 287
545 849 833
546 811 272
547 141 463
548 645 843
549 461 656
550 858 75
551 393 220
552 337 375
553 534 927
554 81 805
555 509 460
556 346 660
557 239 626
558 32 304
559 453 799
560 325 239
561 454 629
562 589 438
563 137 993
564 505 920
565 254 198
566 461 582
567 931 438
568 194 274
569 425 490
570 682 129
571 152 673
572 280 141
573 949 48
574 116 990
575 579 876
576 729 124
577 513 311
578 958 86
579 936 365
580 83 93
581 10 103
582 223 860
583 402 101
584 965 683
585 35 143
586 262 766
587 113 182
588 573 796
589 384 538
590 251 775
591 655 351
592 186 96
593 558 287
594 695 874
595 567 488
596 661 518
DEMAND_SECTION
2 63
3 89
4 97
5 78
6 92
7 55
8 97
9 88
10 95
11 64
12 80
13 68
14 71
15 95
16 75
17 89
18 54
19 75
20 61
21 66
22 86
23 56
24 99
25 65
26 56
27 99
28 79
29 73
30 53
31 63
32 76
33 67
34 77
35 82
36 67
37 68
38 64
39 69
40 68
41 83
42 77
43 67
44 74
45 80
46 55
47 86
48 68
49 62
50 78
51 67
52 90
53 63
54 90
55 56
56 69
57 97
58 87
59 87
60 70
61 75
62 73
63 81
64 97
65 88
66 68
67 53
68 64
69 95
70 87
71 92
72 79
73 77
74 75
75 86
76 85
77 55
78 60
79 78
80 71
81 68
82 69
83 73
84 89
85 64
86 95
87 61
88 85
89 55
90 96
91 51
92 98
93 82
94 89
95 71
96 60
97 94
98 64
99 74
100 75
101 91
102 63
103 67
104 91
105 77
106 65
107 89
108 50
109 77
110 88
111 66
112 98
113 64
114 51
115 64
116 96
117 51
118 54
119 68
120 59
121 100
122 61
123 62
124 99
125 77
126 52
127 81
128 80
129 94
130 91
131 65
132 89
133 90
134 94
135 91
136 68
137 93
138 74
139 100
140 60
141 79
142 89
143 96
144 63
145 57
146 53
147 60
148 51
149 58
150 69
151 71
152 56
153 88
154 58
155 89
156 64
157 94
158 66
159 53
160 69
161 95
162 75
163 96
164 95
165 74
166 81
167 59
168 76
169 80
170 79
171 86
172 53
173 93
174 65
175 61
176 81
177 56
178 51
179 81
180 93
181 66
182 91
183 66
184 91
185 77
186 64
187 52
188 83
189 63
190 80
191 87
192 93
193 55
194 94
195 88
196 82
197 77
198 75
199 67
200 78
201 98
202 54
203 68
204 69
205 52
206 68
207 59
208 64
209 69
210 72
211 98
212 61
213 59
214 71
215 99
216 76
217 75
218 54
219 73
220 93
221 70
222 98
223 74
224 65
225 84
226 72
227 59
228 91
229 81
230 79
231 59
232 88
233 53
234 80
235 68
236 97
237 90
238 100
239 86
240 79
COVERAGE_SECTION
2 9 194 193 428 519 354 145 222 106 386 
3 9 328 515 210 506 73 509 432 261 30 
4 9 512 148 564 256 273 35 475 553 208 
5 9 38 81 262 71 20 576 303 539 570 
6 9 316 346 53 465 357 134 175 377 583 
7 9 206 66 461 549 153 11 498 60 12 
8 9 202 531 421 235 137 105 315 236 312 
9 9 160 274 72 333 233 446 547 214 494 
10 9 227 306 291 568 103 136 454 301 511 
11 9 60 66 549 7 561 461 484 501 206 
12 9 150 321 462 408 206 18 7 388 498 
13 9 205 223 439 583 529 53 357 134 502 
14 9 251 327 351 243 143 492 555 330 490 
15 9 48 514 546 387 78 364 117 294 47 
16 9 524 40 558 478 396 226 89 113 122 
17 9 234 315 211 105 545 189 287 253 331 
18 9 388 110 588 321 91 462 425 12 166 
19 9 368 94 120 457 208 553 426 76 311 
20 9 294 544 5 117 275 81 397 546 360 
21 9 482 220 409 552 203 304 469 449 280 
22 9 472 443 369 248 518 380 570 539 320 
23 9 220 375 409 379 469 521 196 371 250 
24 9 424 414 343 293 37 31 74 283 432 
25 9 32 404 199 587 183 121 79 373 504 
26 9 501 401 125 60 171 359 484 11 56 
27 9 303 539 570 248 71 472 38 443 179 
28 9 88 128 450 466 264 430 352 115 296 
29 9 249 181 209 275 270 363 593 324 448 
30 9 283 73 261 584 92 210 488 293 384 
31 9 37 414 432 515 293 343 24 73 424 
32 9 404 25 199 587 79 504 183 116 344 
33 9 228 419 127 400 282 456 126 254 494 
34 9 133 358 84 416 111 520 362 141 51 
35 9 4 559 298 408 512 475 91 391 148 
36 9 431 215 556 467 69 335 487 153 399 
37 9 31 414 432 343 24 293 424 515 532 
38 9 71 262 5 576 81 303 539 570 49 
39 9 289 445 377 543 70 440 465 592 175 
40 9 396 16 174 113 524 89 558 478 79 
41 9 485 117 98 294 360 544 496 277 413 
42 9 240 536 284 177 463 378 85 168 342 
43 9 367 244 296 437 537 186 438 231 264 
44 9 200 547 45 160 109 530 167 196 250 
45 9 109 530 44 167 200 547 508 221 160 
46 9 513 55 77 329 596 355 401 497 149 
47 9 81 350 184 159 172 546 5 15 286 
48 9 15 546 514 117 294 496 387 259 78 
49 9 65 64 392 576 262 369 71 443 380 
50 9 582 410 207 420 107 590 586 118 216 
51 9 188 362 257 111 491 567 416 455 342 
52 9 129 135 281 141 527 358 99 384 422 
53 9 6 346 357 134 316 583 465 507 439 
54 9 383 393 179 502 190 209 541 529 27 
55 9 513 46 77 401 329 596 355 595 26 
56 9 460 484 458 336 418 359 501 166 224 
57 9 451 318 162 427 300 63 366 453 405 
58 9 464 302 239 421 192 531 87 102 202 
59 9 486 158 238 173 438 107 269 207 410 
60 9 11 484 461 501 7 66 458 26 460 
61 9 579 266 142 526 517 68 412 567 259 
62 9 166 110 336 425 535 18 588 224 265 
63 9 85 177 366 427 453 57 451 536 240 
64 9 49 65 392 576 369 380 262 140 320 
65 9 392 49 64 369 576 443 380 262 71 
66 9 549 561 7 11 153 206 498 487 60 
67 9 356 534 423 260 308 185 394 580 95 
68 9 305 266 579 517 567 61 142 483 84 
69 9 467 489 335 36 498 431 153 263 215 
70 9 440 543 138 445 289 39 592 377 499 
71 9 262 38 576 539 570 303 443 369 5 
72 9 246 446 494 479 274 112 333 9 456 
73 9 210 515 30 3 328 261 509 432 506 
74 9 343 532 192 102 37 31 24 235 414 
75 9 433 164 375 370 589 459 212 345 379 
76 9 426 575 457 82 94 553 391 208 500 
77 9 513 355 46 55 329 596 401 307 372 
78 9 364 528 387 514 159 348 15 172 326 
79 9 504 116 587 32 199 404 25 174 295 
80 9 317 273 152 180 402 475 146 512 148 
81 9 5 38 47 262 71 576 20 49 303 
82 9 500 548 165 575 76 426 391 457 594 
83 9 399 481 215 263 556 459 370 376 36 
84 9 133 34 520 358 416 111 362 567 305 
85 9 177 63 240 536 366 42 463 427 307 
86 9 224 535 300 418 359 336 372 318 56 
87 9 239 288 236 531 347 421 123 58 202 
88 9 28 128 450 466 264 430 352 115 574 
89 9 478 16 226 558 40 524 396 116 429 
90 9 476 406 114 337 578 169 268 213 326 
91 9 588 388 391 18 165 425 110 575 321 
92 9 261 509 135 30 210 584 488 384 506 
93 9 131 163 510 353 468 571 258 374 428 
94 9 208 553 426 19 76 368 564 120 256 
95 9 308 161 344 581 580 585 356 423 260 
96 9 272 474 560 441 176 178 101 511 452 
97 9 518 22 320 472 140 380 248 443 369 
98 9 485 522 41 349 442 378 168 340 496 
99 9 411 527 338 463 52 135 453 427 416 
100 9 323 267 577 327 593 292 448 290 124 
101 9 176 560 470 382 441 474 96 334 322 
102 9 192 74 302 464 343 58 532 421 235 
103 9 568 291 306 136 10 227 454 365 452 
104 9 480 283 488 584 384 422 30 293 281 
105 9 315 211 545 234 235 17 8 202 253 
106 9 386 145 354 222 194 2 126 428 193 
107 9 207 410 420 158 50 438 582 299 59 
108 9 429 122 226 333 558 478 524 479 446 
109 9 45 530 167 508 44 547 200 221 403 
110 9 18 588 388 62 166 425 91 321 462 
111 9 362 416 358 34 51 133 84 188 567 
112 9 246 72 494 479 282 446 456 127 274 
113 9 396 40 174 454 16 524 136 122 214 
114 9 476 406 471 144 286 184 326 90 198 
115 9 430 195 352 437 466 264 450 296 231 
116 9 504 79 295 585 587 32 404 344 199 
117 9 294 546 48 41 496 20 485 15 259 
118 9 216 225 590 586 186 533 50 582 131 
119 9 319 138 394 185 534 592 580 440 25 
120 9 368 19 94 208 256 553 564 180 148 
121 9 183 373 199 365 587 25 447 32 404 
122 9 429 524 558 108 226 478 16 333 113 
123 9 347 241 285 288 236 434 407 137 312 
124 9 290 516 242 267 327 147 323 100 577 
125 9 171 232 26 566 381 230 501 401 60 
126 9 419 33 228 127 386 400 282 106 254 
127 9 282 33 228 419 126 456 400 254 112 
128 9 28 88 450 466 264 430 352 115 296 
129 9 281 52 141 422 135 384 480 488 584 
130 9 563 574 332 269 244 296 264 43 238 
131 9 93 163 468 353 510 258 571 216 554 
132 9 219 503 345 310 557 403 221 212 271 
133 9 84 34 520 358 416 111 362 141 567 
134 9 357 583 53 6 507 316 346 157 465 
135 9 92 52 281 527 384 129 261 488 584 
136 9 454 291 306 568 103 10 113 227 214 
137 9 312 285 236 123 347 253 202 8 241 
138 9 119 592 440 70 319 499 394 185 543 
139 9 325 572 314 444 175 447 565 382 499 
140 9 320 380 392 64 518 65 369 22 97 
141 9 358 129 34 52 133 416 520 84 281 
142 9 526 61 579 266 412 517 259 387 496 
143 9 493 251 495 351 339 562 415 490 309 
144 9 471 286 184 350 172 326 159 114 198 
145 9 354 222 106 386 194 2 428 193 126 
146 9 402 475 298 395 156 154 273 299 80 
147 9 516 124 242 290 267 322 178 272 551 
148 9 512 4 256 564 273 180 208 553 475 
149 9 278 497 523 170 329 596 562 417 277 
150 9 12 408 321 462 559 206 498 489 153 
151 9 204 538 187 398 550 385 252 198 473 
152 9 317 80 180 273 173 148 256 512 475 
153 9 498 206 335 467 7 66 549 431 487 
154 9 279 156 299 402 146 395 298 376 489 
155 9 374 400 222 254 419 540 126 145 386 
156 9 299 279 154 395 402 420 146 207 298 
157 9 507 470 382 334 572 444 325 101 139 
158 9 438 107 410 59 207 238 582 420 486 
159 9 172 326 350 471 144 184 286 528 78 
160 9 547 200 44 233 9 45 274 109 477 
161 9 581 95 308 423 260 356 344 585 580 
162 9 427 405 451 453 57 229 287 189 63 
163 9 131 468 353 93 258 554 428 510 571 
164 9 589 525 75 487 370 566 381 433 556 
165 9 548 82 425 391 575 588 91 265 500 
166 9 336 62 458 110 460 56 535 18 484 
167 9 530 109 508 45 221 403 310 547 44 
168 9 522 340 342 284 455 378 491 42 98 
169 9 528 90 476 326 114 348 159 172 78 
170 9 277 413 523 417 149 278 591 497 378 
171 9 125 232 381 230 26 566 361 197 401 
172 9 159 326 471 144 350 184 286 528 114 
173 9 317 486 59 152 80 158 395 107 180 
174 9 396 40 113 79 587 454 16 136 504 
175 9 325 139 572 377 543 444 465 445 499 
176 9 101 560 441 474 96 470 382 322 334 
177 9 85 536 240 63 366 42 307 463 218 
178 9 272 96 511 276 560 452 474 441 552 
179 9 54 393 383 209 502 190 29 27 541 
180 9 273 256 148 152 512 80 564 317 4 
181 9 270 363 29 249 275 324 397 415 339 
182 9 594 542 313 331 253 500 285 548 312 
183 9 121 373 199 25 587 365 32 404 447 
184 9 286 144 471 350 172 326 159 198 114 
185 9 394 534 319 119 138 67 440 580 70 
186 9 216 537 118 231 367 582 437 43 225 
187 9 204 151 385 550 538 398 198 252 64 
188 9 257 51 491 340 362 342 455 567 111 
189 9 287 405 229 162 506 17 328 3 451 
190 9 541 383 54 292 393 502 179 505 100 
191 9 348 436 483 364 387 78 528 517 169 
192 9 74 464 302 532 102 58 421 235 343 
193 9 2 519 428 194 354 353 145 222 258 
194 9 2 354 145 106 222 193 386 428 519 
195 9 115 231 437 554 430 352 537 367 258 
196 9 521 435 23 250 371 469 375 212 44 
197 9 361 492 230 217 555 569 243 330 232 
198 9 385 550 286 184 144 471 473 114 350 
199 9 587 25 32 404 183 121 79 504 373 
200 9 44 547 160 45 109 530 250 196 477 
201 9 237 311 407 241 434 390 285 457 594 
202 9 8 531 421 137 235 236 312 105 315 
203 9 276 552 21 482 220 469 178 409 371 
204 9 151 187 550 385 538 398 252 198 473 
205 9 13 439 223 529 583 53 502 357 134 
206 9 153 498 7 335 66 549 12 150 467 
207 9 107 420 410 50 158 299 582 395 438 
208 9 553 94 564 256 426 148 4 368 120 
209 9 179 29 593 448 249 54 181 383 393 
210 9 509 506 73 328 3 261 515 30 92 
211 9 545 105 315 234 235 17 8 432 202 
212 9 435 221 345 219 375 403 433 521 132 
213 9 573 341 578 268 337 406 473 114 476 
214 9 233 454 136 113 9 301 10 291 160 
215 9 556 36 399 83 370 459 431 481 263 
216 9 118 225 590 186 586 50 533 582 131 
217 9 569 197 361 381 243 492 589 297 230 
218 9 372 307 366 300 355 57 63 318 177 
219 9 132 345 557 503 310 403 221 212 271 
220 9 469 409 23 21 371 203 379 250 375 
221 9 403 310 508 530 132 167 219 109 212 
222 9 145 354 106 386 194 428 2 155 126 
223 9 13 205 439 583 529 502 53 134 357 
224 9 535 86 418 336 359 56 460 300 166 
225 9 118 216 590 586 533 186 50 510 131 
226 9 478 558 429 524 108 122 16 89 40 
227 9 10 306 291 568 103 511 452 136 301 
228 9 33 419 127 400 282 456 126 254 494 
229 9 405 287 162 453 189 506 427 509 328 
230 9 361 232 555 197 330 492 171 595 490 
231 9 537 554 437 195 258 367 468 186 115 
232 9 171 125 230 361 381 197 566 555 595 
233 9 214 160 477 301 9 200 44 547 250 
234 9 211 17 545 315 105 235 3 515 328 
235 9 105 545 211 532 315 8 202 421 531 
236 9 347 288 123 137 285 312 87 202 531 
237 9 201 407 241 434 311 390 123 285 347 
238 9 269 59 158 438 486 332 563 130 107 
239 9 87 58 531 421 464 302 202 236 8 
240 9 536 42 177 85 463 63 284 366 455 
241 9 123 347 407 285 434 237 201 288 137 
242 9 449 124 280 290 147 516 482 552 304 
243 9 492 197 555 297 361 14 217 569 280 
244 9 296 43 264 367 437 130 574 466 563 
245 9 252 398 473 538 550 385 151 573 204 
246 9 72 112 494 446 274 479 456 333 9 
247 9 265 255 425 548 313 165 62 500 182 
248 9 472 22 27 303 539 570 443 529 369 
249 9 29 275 181 270 363 397 209 544 360 
250 9 371 469 477 196 521 23 220 301 200 
251 9 14 351 143 327 493 490 495 577 330 
252 9 538 398 151 204 245 550 385 187 473 
253 9 542 331 312 137 182 285 313 594 315 
254 9 400 419 228 33 456 155 126 127 282 
255 9 247 265 313 548 425 331 182 165 62 
256 9 564 148 208 180 553 4 512 273 94 
257 9 188 51 340 491 342 455 412 567 362 
258 9 468 554 353 163 231 131 537 193 93 
259 9 442 412 496 349 526 142 61 340 98 
260 9 423 356 308 161 67 581 95 580 534 
261 9 92 509 210 30 73 506 135 328 584 
262 9 71 576 38 49 570 539 5 65 303 
263 9 376 83 399 586 69 590 215 279 481 
264 9 466 296 244 128 115 450 574 130 430 
265 9 247 255 425 548 165 313 62 588 500 
266 9 579 517 61 68 142 305 483 526 567 
267 9 100 323 516 124 292 290 577 327 147 
268 9 337 213 341 578 573 406 90 476 473 
269 9 332 238 563 130 438 574 158 244 296 
270 9 363 181 415 324 339 29 249 591 397 
271 9 557 481 503 533 345 219 132 459 83 
272 9 178 96 511 560 474 441 452 176 276 
273 9 512 148 180 80 4 475 256 152 564 
274 9 494 72 9 246 547 160 456 446 112 
275 9 249 397 544 29 181 360 363 270 20 
276 9 203 552 178 482 21 272 511 469 301 
277 9 413 170 591 278 149 523 360 415 339 
278 9 497 149 562 309 170 495 523 277 413 
279 9 154 156 299 376 395 402 263 420 146 
280 9 449 297 304 482 242 552 21 243 569 
281 9 129 422 384 480 488 52 135 584 104 
282 9 127 33 228 456 419 126 112 400 254 
283 9 104 30 584 488 293 480 384 424 422 
284 9 378 522 42 168 417 240 523 536 342 
285 9 312 123 137 241 347 236 237 542 201 
286 9 144 471 184 350 172 326 159 114 198 
287 9 189 405 229 162 506 328 451 453 3 
288 9 347 123 236 241 434 87 407 285 137 
289 9 39 445 377 543 70 440 465 138 592 
290 9 124 516 327 242 267 323 147 100 577 
291 9 306 568 103 136 10 454 227 452 365 
292 8 389 541 267 190 505 551 100 323 
293 9 424 414 283 30 24 31 37 104 73 
294 9 117 546 20 48 41 15 544 485 496 
295 9 585 116 344 504 581 95 161 79 308 
296 9 244 264 43 367 437 130 574 466 115 
297 9 304 280 449 243 482 569 242 21 217 
298 9 146 475 559 402 35 408 154 512 4 
299 9 156 395 420 402 279 154 207 146 107 
300 9 318 86 372 57 218 224 451 535 366 
301 9 477 227 233 10 250 371 214 276 469 
302 9 464 58 192 239 421 102 531 532 74 
303 9 539 570 71 27 443 38 262 369 576 
304 9 297 280 449 482 21 552 242 409 243 
305 9 68 567 266 84 579 517 133 520 61 
306 9 291 568 10 103 227 136 454 452 511 
307 9 218 366 372 355 177 77 536 329 596 
308 9 95 161 356 423 260 581 580 344 67 
309 9 495 562 490 595 330 497 278 143 555 
310 9 403 221 508 132 219 530 167 109 212 
311 9 390 457 201 237 407 434 76 241 500 
312 9 137 285 253 542 123 236 347 241 8 
313 9 182 331 594 542 255 548 247 500 253 
314 7 444 565 139 572 447 382 325 
315 9 105 211 545 234 235 17 8 202 253 
316 9 6 465 346 53 357 134 377 175 39 
317 9 152 80 173 180 273 148 402 512 256 
318 9 57 300 451 162 372 218 86 366 427 
319 9 119 394 534 580 185 138 25 404 32 
320 9 140 380 392 518 22 369 97 65 64 
321 9 462 12 150 18 388 408 110 588 91 
322 8 551 560 176 389 334 101 96 470 
323 9 100 577 267 327 290 124 448 593 351 
324 9 493 448 270 339 415 593 363 181 351 
325 9 139 572 175 444 314 382 157 565 447 
326 9 172 159 471 144 286 184 350 528 114 
327 9 577 323 290 351 124 14 100 251 267 
328 9 3 506 210 515 73 509 261 432 30 
329 9 596 46 77 513 55 149 523 497 307 
330 9 555 490 492 230 361 309 495 595 197 
331 9 542 253 313 182 594 312 255 285 137 
332 9 563 130 269 574 238 244 296 438 264 
333 9 446 479 108 429 122 72 9 246 558 
334 8 470 157 382 507 101 176 322 551 
335 9 467 498 153 206 69 431 489 36 66 
336 9 166 535 460 56 224 62 458 418 86 
337 9 268 578 406 213 341 573 90 476 114 
338 9 411 99 453 427 527 63 162 463 85 
339 9 415 493 324 270 363 591 143 181 413 
340 9 168 342 257 522 491 188 455 349 412 
341 9 573 213 268 578 337 473 406 245 476 
342 9 455 491 168 340 257 188 522 51 463 
343 9 74 24 37 31 414 532 424 192 293 
344 9 95 585 580 295 308 161 404 504 116 
345 9 219 433 557 132 212 459 271 503 370 
346 9 6 316 53 465 357 134 377 39 175 
347 9 123 288 241 236 285 434 137 407 312 
348 9 191 436 364 483 387 528 78 169 514 
349 9 442 259 412 496 340 526 98 257 522 
350 9 184 286 144 471 172 159 326 198 47 
351 9 493 251 577 327 143 324 14 448 593 
352 9 430 115 450 466 195 128 28 264 437 
353 9 163 468 258 131 93 428 193 554 2 
354 9 145 222 106 194 386 2 428 193 126 
355 9 77 372 513 307 218 401 359 46 55 
356 9 423 260 308 67 161 95 580 534 581 
357 9 134 53 583 6 507 316 346 157 465 
358 9 34 416 133 111 84 141 362 520 52 
359 9 418 56 224 501 401 460 86 535 355 
360 9 397 544 591 275 363 41 270 181 413 
361 9 197 230 492 555 217 330 232 569 381 
362 9 111 416 51 34 358 188 133 84 567 
363 9 270 181 415 324 339 591 249 397 29 
364 9 387 78 348 514 191 528 483 15 436 
365 7 447 121 183 373 103 565 568 
366 9 218 63 307 177 85 372 536 57 240 
367 9 43 437 537 244 296 231 186 115 195 
368 9 120 19 94 208 553 256 564 426 76 
369 9 443 392 65 570 576 539 22 49 380 
370 9 459 433 556 215 481 399 83 75 345 
371 9 250 469 477 196 521 23 220 301 435 
372 9 218 307 355 300 366 86 77 318 57 
373 9 121 183 447 365 199 25 499 592 32 
374 9 540 571 155 503 510 93 132 131 310 
375 9 379 23 409 521 212 196 435 75 220 
376 9 263 586 279 83 399 590 154 69 156 
377 9 445 39 543 289 465 70 175 440 592 
378 9 284 417 522 168 523 42 98 170 340 
379 9 375 409 23 220 21 75 469 521 196 
380 9 320 140 392 369 65 22 64 443 49 
381 9 566 232 171 217 361 197 525 125 569 
382 9 470 444 157 101 572 314 176 334 565 
383 9 54 393 179 502 190 541 209 529 292 
384 9 488 584 480 422 281 104 283 135 92 
385 9 550 204 398 151 187 198 538 473 252 
386 9 106 145 222 354 194 126 2 428 155 
387 9 364 514 78 348 483 191 15 142 528 
388 9 18 588 91 110 321 462 425 12 391 
389 8 551 292 505 322 334 267 541 147 
390 9 311 407 457 237 201 434 241 19 76 
391 9 575 91 165 426 588 76 82 388 425 
392 9 65 49 64 369 380 576 443 262 320 
393 9 54 383 179 502 190 529 209 541 27 
394 9 185 534 319 119 138 580 67 440 70 
395 9 299 402 156 420 146 154 207 279 80 
396 9 40 113 16 174 524 558 454 122 478 
397 9 360 544 275 249 363 181 591 270 29 
398 9 550 151 385 538 204 252 187 245 473 
399 9 83 481 215 263 556 459 370 376 36 
400 9 254 419 33 228 456 126 155 127 282 
401 9 26 55 513 77 359 501 355 46 418 
402 9 146 395 156 299 475 298 154 80 279 
403 9 310 221 508 530 132 219 167 109 212 
404 9 32 25 199 587 79 504 183 344 116 
405 9 229 162 287 453 189 427 451 57 506 
406 9 578 476 90 114 337 213 268 573 341 
407 9 434 237 241 201 123 390 347 311 285 
408 9 559 150 12 489 321 35 298 462 498 
409 9 220 379 23 21 375 469 482 304 203 
410 9 107 207 420 582 50 158 438 299 395 
411 9 99 338 527 463 453 85 52 427 63 
412 9 259 349 442 526 496 142 61 257 340 
413 9 277 170 591 415 339 360 278 149 523 
414 9 37 31 293 424 432 24 343 515 73 
415 9 339 363 270 591 324 493 181 143 413 
416 9 111 358 34 362 133 84 51 141 520 
417 9 523 378 284 170 149 596 329 522 42 
418 9 359 224 56 535 86 336 460 501 484 
419 9 228 33 400 126 254 127 456 282 155 
420 9 207 107 410 299 50 395 156 582 158 
421 9 531 202 8 239 464 58 235 302 192 
422 9 480 281 384 488 104 584 129 283 135 
423 9 260 356 308 161 67 95 581 580 534 
424 9 293 24 414 283 37 31 104 30 343 
425 9 588 265 165 110 247 62 91 18 388 
426 9 76 575 94 553 208 391 457 82 564 
427 9 453 162 451 405 63 338 57 229 85 
428 9 193 2 353 354 222 145 194 519 106 
429 9 122 108 558 226 524 478 333 16 446 
430 9 352 115 450 466 195 128 264 28 437 
431 9 487 36 467 335 153 498 549 66 215 
432 9 515 31 37 414 73 3 328 293 210 
433 9 345 75 459 370 212 557 219 132 271 
434 9 407 241 237 123 347 201 390 288 285 
435 9 521 196 212 23 221 375 45 403 530 
436 9 191 348 483 364 169 528 387 78 517 
437 9 367 537 231 195 43 115 244 296 554 
438 9 158 410 582 107 238 269 207 59 43 
439 9 205 13 223 53 583 529 357 134 346 
440 9 70 138 543 289 445 39 592 185 394 
441 8 474 96 176 101 452 560 565 511 
442 9 349 259 412 496 526 98 340 142 485 
443 9 369 570 539 22 303 65 392 71 576 
444 8 314 572 382 139 325 565 157 470 
445 9 39 377 289 543 70 440 465 592 499 
446 9 479 333 72 246 108 9 112 494 429 
447 7 365 314 373 565 139 121 183 
448 9 593 324 577 351 493 209 181 270 29 
449 9 280 304 242 297 482 552 21 124 243 
450 9 28 128 466 88 430 352 264 115 195 
451 9 57 162 318 427 405 453 63 300 229 
452 8 511 474 441 96 227 272 103 568 
453 9 427 162 405 338 229 451 63 57 287 
454 9 136 291 306 568 103 113 10 214 174 
455 9 491 342 463 340 168 188 257 51 42 
456 9 33 228 254 494 400 419 282 127 246 
457 9 311 76 390 426 201 19 82 237 500 
458 9 460 484 56 461 166 336 60 462 501 
459 9 370 433 481 556 215 345 399 83 557 
460 9 56 458 484 336 166 461 501 418 359 
461 9 458 484 7 60 460 11 462 56 206 
462 9 321 12 150 18 388 461 110 458 7 
463 9 240 455 411 42 85 491 99 342 536 
464 9 302 58 192 421 239 531 102 532 74 
465 9 316 377 6 346 39 445 175 289 543 
466 9 264 128 450 28 430 88 352 115 296 
467 9 335 69 498 153 489 36 431 206 487 
468 9 258 163 353 131 554 93 231 537 428 
469 9 220 371 250 23 409 203 21 196 477 
470 9 334 382 157 101 176 507 444 560 572 
471 9 144 286 184 350 172 326 159 114 198 
472 9 248 22 443 539 570 518 303 369 97 
473 9 213 573 341 550 198 385 398 245 578 
474 8 441 96 452 176 101 560 511 272 
475 9 146 298 512 273 402 4 35 148 80 
476 9 90 406 114 578 337 169 213 326 471 
477 9 301 250 371 233 469 200 160 44 196 
478 9 226 558 524 16 429 89 122 108 40 
479 9 446 333 72 246 108 112 429 494 9 
480 9 422 384 488 584 104 281 283 30 129 
481 9 83 399 271 459 557 533 370 215 556 
482 9 552 21 449 304 203 280 297 242 276 
483 9 191 517 348 436 387 364 579 266 142 
484 9 460 458 56 461 60 501 11 336 166 
485 9 41 98 496 117 442 349 522 259 277 
486 9 59 173 238 158 438 269 107 317 207 
487 9 431 561 549 525 66 36 153 335 498 
488 9 584 384 480 104 283 422 30 281 92 
489 9 69 467 335 408 559 498 150 153 206 
490 9 330 495 309 555 562 595 492 230 143 
491 9 455 342 188 51 257 340 168 463 362 
492 9 555 197 361 330 243 230 490 217 14 
493 9 324 351 143 339 415 448 251 270 363 
494 9 274 246 72 456 112 446 9 479 33 
495 9 309 562 490 143 330 595 497 278 555 
496 9 259 442 349 412 526 48 117 142 485 
497 9 278 149 562 309 495 595 329 523 596 
498 9 153 206 335 467 7 66 549 431 489 
499 9 592 138 543 70 373 119 440 139 445 
500 9 82 548 594 182 165 313 201 76 457 
501 9 26 484 60 56 359 460 401 418 458 
502 9 393 383 54 529 190 179 541 248 209 
503 9 132 219 540 557 271 374 571 310 345 
504 9 116 79 587 32 404 199 295 344 585 
505 8 389 292 541 551 190 334 583 322 
506 9 509 210 328 3 261 73 229 515 92 
507 9 157 334 470 134 357 382 583 572 444 
508 9 403 310 221 530 167 109 45 132 219 
509 9 506 210 261 92 328 3 73 30 229 
510 9 571 93 131 533 540 374 163 503 271 
511 9 452 272 96 474 178 441 227 10 306 
512 9 4 148 273 475 564 256 180 35 146 
513 9 55 46 77 401 355 329 596 307 26 
514 9 15 387 48 364 78 546 142 526 528 
515 9 432 3 73 328 210 31 506 30 509 
516 9 124 290 147 267 242 323 327 100 577 
517 9 266 579 483 61 68 142 526 305 191 
518 9 97 22 320 472 380 140 248 443 369 
519 9 193 2 194 428 258 353 354 145 468 
520 9 84 133 34 358 141 416 111 305 362 
521 9 196 435 23 250 371 375 212 469 44 
522 9 168 284 378 340 98 342 42 349 455 
523 9 417 170 149 378 278 596 329 284 497 
524 9 558 16 122 478 429 226 396 40 113 
525 9 566 561 487 164 381 549 66 589 431 
526 9 142 61 412 259 496 442 579 349 266 
527 9 99 411 135 338 52 92 453 129 261 
528 9 78 159 326 172 169 364 348 387 191 
529 9 502 393 248 54 383 472 223 179 13 
530 9 109 167 45 508 221 403 310 44 547 
531 9 421 202 8 239 236 235 58 87 464 
532 9 74 235 192 343 37 31 545 421 211 
533 9 271 510 225 481 118 586 571 590 216 
534 9 580 394 319 185 67 119 308 356 95 
535 9 224 86 336 418 62 56 359 166 300 
536 9 240 177 42 85 366 63 307 463 284 
537 9 231 437 554 367 186 195 258 43 468 
538 9 151 252 398 204 550 385 187 245 473 
539 9 570 303 443 71 369 262 27 576 38 
540 9 374 571 503 510 155 132 271 219 93 
541 9 190 292 383 505 54 502 393 389 179 
542 9 182 331 253 594 313 312 285 137 500 
543 9 445 377 39 70 289 440 592 499 138 
544 9 397 360 275 20 249 181 363 591 41 
545 9 211 105 315 234 235 17 8 432 532 
546 9 48 117 294 15 514 20 47 496 41 
547 9 44 200 160 45 109 274 530 167 9 
548 9 500 82 165 265 247 313 594 255 425 
549 9 66 561 7 11 153 206 487 498 431 
550 9 385 204 398 151 187 198 538 473 252 
551 8 389 322 334 505 292 560 470 176 
552 9 482 203 21 276 449 280 242 304 220 
553 9 208 94 564 426 256 148 76 4 575 
554 9 231 258 537 468 195 437 163 353 186 
555 9 330 492 230 490 361 197 243 495 595 
556 9 215 36 370 399 83 459 431 487 481 
557 9 271 345 219 132 503 481 433 459 370 
558 9 478 524 226 429 16 122 108 89 40 
559 9 408 298 150 35 489 12 321 475 146 
560 9 176 96 101 322 474 441 272 470 334 
561 9 549 66 487 525 11 566 431 7 60 
562 9 495 309 497 278 490 143 595 149 330 
563 9 130 332 574 269 244 296 264 238 43 
564 9 256 208 148 553 4 512 94 180 273 
565 7 314 444 447 441 474 382 139 
566 9 525 381 561 171 125 11 232 549 487 
567 9 51 68 188 305 362 257 111 84 61 
568 9 103 291 306 10 136 227 454 452 365 
569 9 217 197 361 381 589 243 297 492 304 
570 9 539 303 443 71 369 262 576 38 22 
571 9 510 540 374 93 503 131 533 163 271 
572 9 325 444 139 314 382 175 157 470 565 
573 9 341 213 578 268 473 337 406 245 114 
574 9 130 563 332 296 244 264 269 466 128 
575 9 391 426 76 82 165 91 553 500 548 
576 9 262 71 49 65 369 38 392 570 443 
577 9 323 327 100 351 448 593 267 290 324 
578 9 406 213 337 268 573 341 476 90 114 
579 9 266 517 61 68 142 526 483 305 567 
580 9 534 319 95 344 308 394 119 356 67 
581 9 161 95 308 585 423 260 344 295 356 
582 9 50 410 438 107 207 420 158 186 216 
583 9 134 357 507 53 505 223 157 334 6 
584 9 488 384 480 104 283 422 30 281 92 
585 9 295 344 95 116 581 161 504 308 79 
586 9 590 225 118 376 263 216 533 50 83 
587 9 199 79 32 404 25 504 183 121 116 
588 9 91 388 18 110 425 165 391 321 62 
589 9 164 569 217 75 525 381 379 566 375 
590 9 586 225 118 216 50 376 263 533 582 
591 9 413 415 360 277 363 339 270 397 181 
592 9 499 138 70 543 119 440 445 373 319 
593 9 448 324 209 577 29 181 100 323 351 
594 9 182 542 313 500 331 548 201 253 285 
595 9 309 490 495 330 562 230 555 497 55 
596 9 329 46 77 513 55 149 523 497 307 
DEPOT_SECTION
   1
   -1
EOF
