NAME :  X-n536-kX-w53-c11.cctp
COMMENT : 	Adapted by Maziero, Usberti and Cavellucci from the Uchoa, Pecin, Pessoa, Poggi, Subramanian, and Vidal (2013)
TYPE :  CCTP
DIMENSION :    399
EDGE_WEIGHT_TYPE : 	EUC_2D	
CAPACITY : 	371
VERTICES_WITHIN_COVERAGE :  11
VERTICES_WITH_DEMAND : 	53
NODE_COORD_SECTION
1 500 500
2 957 135
3 149 141
4 1 96
5 228 268
6 781 529
7 867 797
8 109 53
9 9 127
10 258 317
11 89 54
12 167 155
13 739 534
14 962 896
15 975 122
16 960 68
17 205 52
18 841 806
19 739 677
20 90 192
21 842 772
22 972 143
23 27 85
24 953 240
25 185 211
26 652 428
27 764 523
28 159 142
29 101 113
30 879 837
31 885 326
32 953 118
33 777 491
34 65 66
35 976 171
36 961 748
37 710 493
38 778 708
39 277 223
40 88 112
41 172 57
42 2 209
43 121 64
44 938 29
45 166 160
46 142 97
47 84 284
48 269 224
49 940 727
50 876 822
51 131 169
52 951 768
53 278 21
54 292 280
55 94 96
56 212 89
57 270 368
58 852 777
59 170 200
60 951 777
61 756 532
62 101 29
63 136 52
64 953 784
65 170 135
66 861 728
67 172 133
68 735 672
69 837 833
70 723 538
71 931 862
72 214 45
73 938 2
74 918 296
75 931 760
76 994 40
77 302 389
78 115 120
79 138 134
80 764 502
81 962 408
82 888 216
83 100 131
84 15 209
85 782 310
86 922 706
87 279 265
88 750 566
89 276 393
90 133 16
91 372 183
92 761 503
93 116 205
94 240 222
95 95 100
96 261 357
97 288 231
98 245 331
99 815 790
100 257 215
101 949 42
102 83 118
103 529 414
104 462 64
105 146 141
106 618 497
107 742 619
108 954 95
109 133 147
110 938 798
111 92 54
112 866 805
113 74 30
114 120 81
115 69 324
116 719 569
117 788 550
118 120 172
119 14 196
120 179 85
121 171 66
122 107 83
123 861 867
124 617 454
125 28 140
126 91 118
127 880 814
128 670 343
129 940 211
130 708 548
131 695 683
132 71 239
133 804 481
134 181 205
135 237 246
136 987 269
137 851 904
138 193 200
139 156 48
140 169 133
141 824 526
142 52 78
143 636 413
144 158 202
145 661 518
146 227 248
147 90 2
148 122 18
149 786 523
150 960 117
151 958 161
152 752 556
153 24 141
154 116 95
155 371 175
156 184 142
157 937 88
158 22 198
159 882 774
160 639 445
161 810 457
162 127 62
163 5 118
164 876 63
165 174 145
166 778 665
167 22 131
168 196 67
169 261 221
170 782 505
171 220 252
172 173 150
173 806 559
174 14 85
175 779 840
176 726 649
177 789 502
178 139 183
179 866 897
180 853 747
181 863 901
182 155 178
183 969 132
184 299 256
185 158 110
186 159 108
187 125 34
188 22 156
189 573 369
190 6 58
191 917 123
192 240 291
193 986 55
194 253 263
195 943 195
196 30 327
197 778 781
198 981 137
199 954 848
200 797 822
201 954 250
202 225 255
203 174 53
204 956 816
205 214 280
206 805 500
207 50 35
208 185 185
209 65 68
210 207 260
211 156 61
212 71 6
213 927 138
214 140 191
215 850 719
216 176 26
217 991 261
218 929 775
219 153 149
220 185 155
221 230 56
222 170 174
223 239 290
224 781 515
225 99 71
226 148 140
227 791 748
228 924 218
229 82 136
230 310 69
231 66 21
232 736 530
233 701 510
234 63 50
235 230 7
236 695 484
237 251 194
238 242 319
239 244 217
240 961 173
241 110 95
242 189 198
243 978 223
244 47 97
245 959 147
246 156 229
247 53 374
248 169 153
249 936 80
250 205 289
251 951 155
252 191 58
253 126 58
254 722 532
255 921 656
256 85 69
257 810 844
258 113 73
259 862 810
260 25 56
261 203 221
262 969 661
263 719 562
264 241 314
265 764 525
266 573 430
267 276 185
268 247 342
269 295 317
270 815 268
271 351 420
272 893 135
273 863 815
274 94 122
275 873 783
276 964 182
277 303 71
278 801 527
279 743 469
280 263 62
281 691 763
282 981 160
283 226 261
284 231 277
285 0 66
286 48 108
287 848 757
288 92 81
289 203 265
290 98 266
291 148 150
292 988 69
293 741 524
294 961 140
295 132 74
296 828 773
297 785 734
298 142 62
299 781 499
300 980 94
301 26 148
302 981 717
303 797 521
304 875 253
305 502 408
306 295 92
307 5 77
308 164 234
309 63 110
310 117 104
311 900 127
312 319 211
313 837 700
314 109 209
315 696 686
316 293 351
317 167 171
318 357 171
319 183 209
320 99 228
321 897 821
322 219 49
323 188 30
324 261 197
325 958 11
326 824 818
327 156 230
328 109 154
329 194 32
330 920 831
331 995 157
332 760 310
333 180 73
334 98 90
335 946 255
336 953 881
337 162 8
338 883 804
339 109 131
340 883 880
341 242 262
342 232 252
343 352 260
344 362 335
345 64 199
346 890 788
347 901 823
348 942 120
349 662 470
350 300 261
351 967 790
352 965 126
353 102 58
354 116 327
355 1000 129
356 814 388
357 311 229
358 161 159
359 106 161
360 287 271
361 695 660
362 112 6
363 169 94
364 769 555
365 158 72
366 35 268
367 790 842
368 80 321
369 89 287
370 978 234
371 223 78
372 865 815
373 883 795
374 113 268
375 101 121
376 152 191
377 209 267
378 759 490
379 674 703
380 109 317
381 46 93
382 250 203
383 741 662
384 924 148
385 730 561
386 910 118
387 21 113
388 72 281
389 961 782
390 158 80
391 926 766
392 989 133
393 21 106
394 802 534
395 928 976
396 134 76
397 901 235
398 348 278
399 31 94
DEMAND_SECTION
2 22
3 94
4 52
5 51
6 54
7 96
8 96
9 82
10 77
11 82
12 55
13 78
14 77
15 40
16 47
17 89
18 77
19 94
20 78
21 81
22 37
23 66
24 8
25 79
26 24
27 70
28 80
29 100
30 53
31 30
32 10
33 34
34 63
35 29
36 80
37 41
38 80
39 62
40 100
41 66
42 79
43 71
44 29
45 94
46 99
47 59
48 57
49 93
50 52
51 54
52 65
53 64
54 52
COVERAGE_SECTION
2 11 294 183 245 352 22 32 150 251 348 15 198 
3 11 226 105 219 291 28 79 109 65 140 358 12 
4 11 174 307 163 393 387 23 285 399 9 190 167 
5 11 283 284 202 341 342 171 205 377 146 210 135 
6 11 149 224 265 27 303 278 117 394 170 61 177 
7 11 112 259 275 373 338 273 372 127 58 346 50 
8 11 353 43 111 253 11 162 258 225 62 187 63 
9 10 163 167 387 153 125 393 301 4 188 399 
10 11 238 264 98 268 192 223 269 96 284 316 54 
11 11 111 353 256 8 225 234 34 288 62 113 209 
12 11 248 45 358 172 165 28 219 317 220 222 65 
13 11 232 293 70 61 254 152 27 265 385 88 130 
14 10 336 71 199 330 204 340 395 347 179 181 
15 11 352 183 150 198 392 22 2 32 294 355 300 
16 11 249 101 108 292 193 157 300 76 44 150 32 
17 11 72 322 252 168 329 221 323 203 371 41 333 
18 11 259 326 273 112 372 69 7 58 99 21 296 
19 10 68 383 176 166 131 315 361 38 107 379 
20 7 314 345 93 359 118 320 328 
21 11 58 296 287 180 99 275 18 7 159 112 259 
22 11 183 198 294 245 2 352 282 392 15 151 251 
23 11 399 174 381 393 244 307 142 4 260 387 286 
24 11 201 335 370 243 129 228 217 136 195 397 276 
25 10 319 134 138 242 59 261 208 144 308 246 
26 11 160 143 349 124 236 106 266 37 128 145 233 
27 11 265 61 6 224 92 80 149 293 170 13 232 
28 11 219 3 226 65 105 140 291 12 165 248 67 
29 11 375 126 274 40 95 78 55 83 310 102 241 
30 11 50 127 321 347 372 273 259 338 112 123 330 
31 10 74 304 270 397 335 356 201 85 24 82 
32 11 150 348 352 2 183 15 108 294 245 22 213 
33 11 299 170 177 80 378 92 224 133 206 149 27 
34 11 209 234 142 256 11 111 288 381 207 225 244 
35 11 282 240 276 151 331 22 245 251 198 294 183 
36 11 52 49 60 75 389 64 302 391 218 351 110 
37 11 236 233 254 279 293 232 70 378 13 92 349 
38 9 297 227 166 19 68 383 313 197 215 
39 10 48 97 169 100 324 239 382 357 94 267 
40 11 126 102 274 29 95 375 55 83 334 229 309 
41 11 203 121 211 139 333 252 365 168 390 120 298 
42 10 84 119 158 188 345 301 366 153 125 132 
43 11 162 253 258 295 8 114 396 63 353 298 225 
44 11 101 73 325 16 249 193 76 157 292 108 164 
45 11 12 358 248 317 172 222 165 219 28 220 182 
46 11 186 185 396 390 295 154 310 114 363 365 241 
47 10 369 388 290 374 368 380 115 132 366 354 
48 9 39 169 100 97 239 324 382 94 237 
49 10 86 36 75 391 52 302 218 60 64 389 
50 11 127 372 30 273 259 338 112 321 347 7 373 
51 11 118 178 109 214 291 182 359 328 219 376 105 
52 11 60 64 389 36 75 218 391 351 110 49 204 
53 9 280 235 277 230 221 322 72 306 17 
54 11 360 87 350 184 269 194 97 10 192 341 223 
55 11 95 334 288 241 40 29 122 126 154 310 102 
56 7 371 168 120 333 252 17 221 
57 10 96 89 316 268 77 98 10 238 269 264 
58 11 21 287 275 296 7 159 180 18 112 259 373 
59 10 134 144 319 25 242 376 208 138 222 182 
60 10 64 52 389 351 218 110 75 391 36 204 
61 11 265 27 13 293 232 152 6 364 92 224 80 
62 11 148 8 187 362 111 113 11 147 353 90 231 
63 10 253 298 162 43 139 187 211 295 396 8 
64 10 60 389 351 52 110 218 204 391 75 36 
65 10 140 67 165 28 172 156 248 12 3 219 
66 6 215 180 287 313 21 58 
67 10 65 140 165 156 28 172 248 12 3 219 
68 10 19 383 176 131 315 361 166 107 38 379 
69 11 326 18 257 273 372 259 112 50 200 30 123 
70 11 254 232 13 130 293 263 385 116 61 152 233 
71 9 199 336 330 14 347 340 204 321 30 
72 11 322 17 221 329 252 168 323 371 203 235 216 
73 11 325 44 101 76 16 193 249 292 157 164 108 
74 11 31 335 201 304 397 24 136 228 217 82 370 
75 10 391 218 52 60 36 64 49 389 110 351 
76 11 193 292 16 101 325 300 44 73 108 249 157 
77 10 89 57 316 96 271 268 269 98 344 10 
78 9 339 375 29 310 83 274 126 154 241 
79 9 105 226 3 109 291 219 28 78 339 
80 11 92 378 33 299 170 27 224 265 177 149 61 
81 3 31 74 136 
82 8 397 228 304 129 195 24 335 201 
83 8 339 375 274 126 29 78 229 102 
84 9 42 119 158 345 188 301 366 132 153 
85 6 332 270 356 31 304 128 
86 6 49 255 75 36 302 391 
87 11 360 54 350 184 194 97 341 39 48 135 192 
88 10 152 385 364 116 263 13 61 70 232 117 
89 10 57 77 96 316 268 98 10 269 271 238 
90 9 148 187 362 337 62 63 139 253 8 
91 10 155 318 312 357 343 267 97 398 39 184 
92 11 80 378 27 33 299 170 265 224 177 61 293 
93 8 314 214 20 320 178 118 51 376 
94 7 239 100 169 382 135 48 146 
95 11 55 334 29 40 241 126 288 122 102 154 274 
96 10 57 268 98 316 89 10 238 264 77 269 
97 11 39 48 357 184 169 350 87 100 312 360 324 
98 10 268 238 264 10 96 192 223 57 269 316 
99 11 296 326 18 21 200 197 58 287 69 227 259 
100 8 169 239 382 48 94 324 39 237 
101 11 44 16 325 193 249 73 76 292 157 108 300 
102 10 40 126 274 229 375 29 83 95 309 55 
103 9 305 266 189 124 143 160 106 26 349 
104 8 155 91 318 230 277 306 53 280 
105 11 226 3 291 79 219 28 109 358 140 12 65 
106 7 124 145 349 160 26 236 266 
107 6 176 383 68 88 116 19 
108 11 157 32 150 249 300 16 348 352 15 2 183 
109 9 79 105 291 3 226 219 51 328 28 
110 8 64 60 204 218 389 351 52 391 
111 11 11 353 8 256 225 62 288 258 234 34 113 
112 11 259 7 273 372 127 338 50 373 275 18 346 
113 9 231 234 212 207 62 11 111 147 34 
114 11 258 122 295 154 396 43 241 162 225 310 253 
115 10 368 196 380 369 47 388 354 247 290 366 
116 9 263 385 130 70 88 152 254 13 232 
117 10 173 364 394 6 278 149 303 265 27 152 
118 9 51 359 328 178 109 214 93 20 182 
119 9 158 84 42 188 301 345 153 125 167 
120 9 333 363 121 390 168 365 41 186 252 
121 11 41 333 203 365 211 390 120 252 139 168 363 
122 11 334 241 258 114 225 154 288 55 95 310 43 
123 10 340 179 181 30 137 69 50 273 372 127 
124 10 160 106 26 143 349 266 145 236 189 103 
125 8 153 301 167 188 9 387 163 393 
126 11 274 40 102 375 29 83 95 229 55 339 78 
127 11 50 338 372 112 273 259 321 373 7 30 347 
128 9 143 26 332 189 160 85 124 349 266 
129 11 195 228 24 276 243 201 240 335 370 397 82 
130 10 70 263 254 116 385 232 13 233 293 152 
131 10 315 361 379 68 19 176 383 107 281 166 
132 10 320 290 345 388 366 47 314 20 369 374 
133 8 206 161 177 33 299 170 224 303 
134 10 319 25 242 59 138 208 144 261 376 222 
135 8 342 146 202 341 171 283 194 5 
136 11 217 370 201 335 24 243 74 129 228 195 276 
137 7 181 179 123 340 69 30 257 
138 9 242 134 319 25 208 59 261 144 222 
139 10 211 41 203 63 298 121 365 216 162 253 
140 10 65 67 28 165 156 172 248 3 12 226 
141 8 278 394 303 206 149 173 177 6 
142 11 209 381 34 244 23 399 234 286 256 309 260 
143 11 26 160 124 349 266 189 128 106 236 103 145 
144 10 59 376 214 134 182 319 178 246 25 327 
145 7 233 106 236 349 37 130 254 
146 7 342 202 171 135 283 5 341 
147 9 212 362 62 231 113 148 90 187 11 
148 9 90 187 362 62 147 8 63 253 337 
149 11 6 224 303 278 170 394 177 27 265 299 117 
150 11 32 352 15 183 2 348 108 294 22 198 245 
151 11 251 240 245 35 294 276 22 282 2 183 198 
152 10 88 364 385 61 13 232 265 70 263 293 
153 8 125 301 167 188 9 387 163 393 
154 11 241 310 114 122 334 55 95 258 29 78 46 
155 10 91 318 312 357 343 267 97 39 398 184 
156 8 165 220 172 67 65 140 248 12 
157 11 249 108 16 348 32 150 191 386 300 352 101 
158 8 119 84 42 188 345 301 153 125 
159 8 275 346 373 7 58 338 112 287 
160 10 26 124 143 349 106 236 266 145 37 233 
161 6 133 206 33 177 299 170 
162 11 253 43 63 295 298 396 258 8 114 353 187 
163 10 9 387 393 167 4 153 125 174 399 301 
164 9 249 386 157 311 44 191 272 101 16 
165 11 172 248 156 65 12 67 140 28 220 45 358 
166 7 383 19 38 68 176 107 297 
167 9 153 125 9 301 387 163 188 393 286 
168 10 252 17 333 120 121 41 203 56 72 322 
169 9 100 48 39 239 94 382 324 97 237 
170 11 299 177 224 33 80 149 92 303 6 206 27 
171 9 202 146 283 342 210 5 135 377 289 
172 11 165 248 12 45 220 156 65 358 28 67 140 
173 7 117 394 278 364 141 6 303 
174 11 307 23 4 399 393 285 190 387 260 381 163 
175 9 367 200 257 326 69 197 99 18 296 
176 8 383 68 19 361 107 131 315 166 
177 10 170 299 224 33 206 149 303 80 133 6 
178 10 214 376 51 182 118 144 317 93 222 358 
179 7 181 137 340 123 30 69 71 
180 8 287 66 21 215 58 296 159 275 
181 7 179 137 340 123 30 69 71 
182 10 376 317 222 178 214 358 45 144 12 51 
183 11 352 22 294 2 15 198 150 245 392 32 251 
184 11 350 360 87 54 97 357 39 48 194 312 169 
185 10 186 363 46 140 67 65 390 79 3 28 
186 9 185 363 46 140 67 390 65 120 79 
187 10 148 90 63 253 8 62 162 43 362 298 
188 7 301 153 125 167 9 119 158 
189 10 266 103 143 305 124 26 128 160 349 106 
190 8 285 260 307 174 23 4 399 142 
191 10 386 311 213 348 384 272 32 157 2 150 
192 11 223 284 264 5 205 238 341 194 10 283 250 
193 11 292 76 16 101 300 108 325 44 249 157 150 
194 11 341 135 342 5 87 284 283 202 146 223 192 
195 11 129 276 240 228 151 35 251 243 24 245 384 
196 10 115 368 247 366 388 47 369 380 354 290 
197 11 227 99 200 297 296 175 326 367 21 18 257 
198 11 392 22 183 15 352 294 355 282 2 245 331 
199 9 71 204 336 330 14 110 347 351 321 
200 10 367 175 257 326 99 69 197 18 296 259 
201 11 335 24 370 243 136 217 129 228 397 195 74 
202 9 171 283 146 342 5 135 341 210 377 
203 11 41 121 252 139 211 333 365 168 216 323 329 
204 9 110 351 64 199 389 60 330 52 218 
205 11 250 377 284 5 289 210 283 202 223 192 171 
206 10 177 133 303 170 299 278 224 33 149 141 
207 6 234 231 113 260 34 209 
208 8 242 138 222 134 59 317 319 25 
209 11 34 142 234 256 11 111 288 381 225 244 207 
210 8 289 377 171 202 283 205 5 146 
211 11 365 139 298 41 121 390 203 63 295 333 396 
212 8 231 147 113 207 62 362 234 11 
213 11 384 191 348 386 251 311 2 32 245 272 294 
214 10 178 376 182 144 51 93 118 59 222 317 
215 5 66 313 180 287 21 
216 9 323 329 337 203 139 41 252 17 121 
217 11 136 370 201 243 24 335 129 228 74 195 276 
218 8 391 75 60 52 110 64 389 346 
219 11 291 3 28 226 105 358 12 248 45 109 172 
220 10 156 172 165 248 12 45 222 317 358 65 
221 9 322 72 371 17 280 168 56 252 329 
222 10 317 45 182 358 12 208 248 172 220 376 
223 11 192 284 264 5 205 341 238 194 283 10 250 
224 11 149 170 6 177 299 303 27 265 80 92 278 
225 11 288 353 122 256 258 111 334 11 8 43 114 
226 11 3 105 219 291 28 79 109 140 65 358 12 
227 11 297 197 38 296 99 21 287 180 215 313 58 
228 10 129 397 195 24 82 335 201 243 276 370 
229 6 102 274 83 126 375 40 
230 6 277 306 280 53 221 371 
231 8 113 212 207 234 147 62 11 111 
232 11 13 293 254 70 61 265 27 152 385 130 263 
233 10 37 236 254 70 130 232 145 293 13 263 
234 9 34 209 207 113 11 111 231 256 142 
235 11 72 322 329 323 221 53 17 216 252 280 337 
236 11 37 233 349 145 279 254 70 293 232 378 130 
237 8 382 324 100 239 267 169 94 48 
238 10 264 98 10 268 192 223 96 284 205 250 
239 7 94 100 382 169 237 48 324 
240 11 276 151 35 251 282 245 195 22 294 2 331 
241 11 154 310 122 334 55 95 114 29 258 288 78 
242 9 138 134 319 25 208 59 261 144 222 
243 11 370 24 201 129 217 276 195 335 136 35 240 
244 10 381 286 399 142 309 23 393 387 209 174 
245 11 294 251 2 22 151 183 352 198 240 282 35 
246 7 327 308 144 59 25 319 134 
247 8 115 196 368 354 380 369 47 388 
248 11 12 172 45 165 358 28 219 220 65 317 156 
249 11 157 108 16 101 348 32 150 300 386 191 44 
250 9 205 377 289 210 284 5 223 192 283 
251 11 151 245 294 2 240 22 384 183 213 35 276 
252 11 168 17 203 41 333 121 72 329 323 322 120 
253 11 162 43 63 298 295 8 258 396 114 187 353 
254 11 70 232 13 130 293 233 263 385 61 116 152 
255 4 262 86 49 302 
256 11 225 288 11 111 34 209 353 334 122 55 258 
257 9 367 200 69 326 175 18 99 123 273 
258 11 114 43 122 225 162 295 353 8 253 396 154 
259 11 273 112 372 7 50 127 18 338 373 275 30 
260 8 190 285 23 307 174 207 142 234 
261 5 25 138 319 134 242 
262 8 255 302 86 49 36 75 52 391 
263 9 116 385 130 70 254 88 13 152 232 
264 10 238 10 98 192 223 268 284 205 250 96 
265 11 27 61 6 224 92 149 80 293 13 170 232 
266 10 103 124 189 143 160 305 26 106 349 145 
267 9 324 237 382 100 39 169 48 239 97 
268 10 98 96 238 10 264 57 316 192 223 269 
269 11 316 10 54 360 96 98 238 87 264 268 350 
270 6 85 304 332 82 31 397 
271 10 77 89 344 316 57 96 269 268 98 10 
272 8 311 386 191 213 384 348 251 32 
273 11 372 259 112 50 127 7 338 18 30 373 69 
274 10 126 375 29 83 40 102 339 229 78 95 
275 10 159 7 373 346 58 112 338 259 127 21 
276 11 240 35 151 195 282 251 245 129 22 331 294 
277 6 230 306 280 53 221 371 
278 10 303 394 149 6 141 224 117 206 177 170 
279 11 378 92 80 33 37 299 236 170 293 177 27 
280 8 221 277 371 53 306 322 230 72 
281 9 379 315 131 197 19 297 68 227 38 
282 11 35 331 22 151 198 240 245 276 294 392 183 
283 10 202 5 171 342 146 341 284 377 135 210 
284 11 5 223 192 205 283 341 202 377 342 194 171 
285 8 190 307 174 260 4 23 399 393 
286 9 244 309 381 399 387 393 142 23 167 
287 9 180 21 58 296 66 275 159 215 7 
288 11 334 225 256 55 122 95 258 241 353 11 111 
289 8 210 377 205 171 283 202 250 5 
290 7 374 47 369 388 132 320 380 
291 11 219 3 105 226 28 109 358 79 12 45 248 
292 11 193 300 16 76 108 101 249 157 15 150 32 
293 11 232 13 61 254 27 70 265 92 80 152 378 
294 11 2 245 22 183 352 251 198 151 15 32 150 
295 11 396 162 114 43 298 253 258 63 46 154 365 
296 11 21 99 58 287 18 180 227 326 7 275 112 
297 11 227 38 197 296 313 99 215 287 21 166 180 
298 11 63 211 162 253 295 396 365 139 43 390 114 
299 11 170 33 177 224 80 92 206 378 149 303 27 
300 11 108 292 15 150 16 352 32 193 183 355 392 
301 7 153 125 188 167 9 387 163 
302 11 36 49 262 52 86 75 60 389 64 351 391 
303 10 278 149 394 224 6 177 170 206 141 299 
304 9 397 82 228 74 270 335 31 129 24 
305 10 103 266 189 124 143 160 106 26 271 344 
306 4 277 230 280 53 
307 10 174 285 4 190 23 260 399 393 387 163 
308 7 246 327 25 319 144 134 59 
309 9 286 244 102 381 40 126 229 274 55 
310 11 154 241 78 29 95 114 122 375 55 334 46 
311 8 272 386 191 213 384 348 32 157 
312 11 357 97 39 184 267 48 350 318 169 343 91 
313 5 215 66 180 287 38 
314 8 93 320 20 214 118 178 51 345 
315 10 131 361 379 68 19 176 383 281 107 38 
316 11 57 96 269 77 89 268 10 98 238 264 54 
317 10 222 45 358 182 12 248 172 208 220 376 
318 9 155 91 312 357 267 343 97 39 324 
319 10 25 134 138 242 59 261 208 144 308 246 
320 7 314 93 132 20 290 374 345 
321 8 347 127 50 338 30 330 373 372 
322 11 72 221 17 168 252 371 329 323 56 235 203 
323 11 329 216 203 17 252 72 41 337 322 139 168 
324 9 237 382 100 267 169 239 48 39 94 
325 11 73 44 101 76 193 16 292 249 157 108 300 
326 11 69 18 200 99 257 259 273 372 367 112 296 
327 7 246 308 144 59 319 25 134 
328 8 359 118 339 83 109 51 229 375 
329 11 323 216 17 72 252 203 322 41 168 337 121 
330 8 347 321 71 110 199 204 30 127 
331 11 282 35 198 392 22 355 183 151 245 240 294 
332 6 85 270 356 128 31 304 
333 10 121 120 168 41 252 203 365 390 363 211 
334 11 55 95 122 288 241 154 225 29 258 40 114 
335 11 201 24 370 136 228 129 217 243 397 74 195 
336 10 14 71 199 330 204 340 347 321 110 30 
337 9 216 90 323 139 329 148 187 203 41 
338 10 373 127 7 112 346 50 372 259 321 273 
339 8 83 78 375 274 29 126 328 229 
340 10 179 123 181 137 30 71 50 347 321 330 
341 11 194 342 5 283 135 202 284 146 171 223 192 
342 9 146 135 202 283 171 341 5 194 284 
343 11 398 357 350 184 312 54 360 97 87 344 91 
344 11 398 269 316 343 77 271 54 350 57 360 184 
345 7 20 132 158 320 314 84 119 
346 9 373 159 338 275 7 127 112 321 259 
347 8 321 330 127 50 30 338 373 346 
348 11 32 150 2 213 352 191 108 294 183 157 245 
349 10 160 236 26 124 145 106 37 233 143 279 
350 11 184 360 54 87 97 357 39 194 48 398 343 
351 10 389 64 60 52 204 110 218 36 75 391 
352 11 183 150 15 2 32 294 22 198 245 348 392 
353 11 8 111 225 11 258 43 256 253 122 162 288 
354 5 380 368 115 369 47 
355 11 392 198 15 331 22 183 352 282 300 294 150 
356 5 161 85 31 133 332 
357 11 312 97 184 350 39 48 87 360 169 343 54 
358 11 45 12 248 219 317 172 291 28 222 165 182 
359 8 328 118 51 109 339 83 20 229 
360 11 54 87 350 184 194 97 341 269 357 39 48 
361 9 131 315 176 68 383 19 379 107 166 
362 9 148 147 90 62 187 212 113 8 231 
363 8 120 186 390 185 333 365 46 121 
364 9 152 117 88 61 6 265 27 149 13 
365 11 390 211 121 298 41 333 139 396 120 203 363 
366 11 388 132 47 369 196 84 290 115 42 368 158 
367 9 175 257 200 326 69 99 18 197 123 
368 9 115 380 369 354 47 388 196 290 247 
369 10 47 388 290 374 368 380 115 354 132 366 
370 11 243 24 201 217 136 335 129 195 276 228 35 
371 7 56 221 168 322 17 72 252 
372 11 273 259 112 50 127 7 338 18 30 373 69 
373 10 338 346 7 275 127 112 159 259 372 50 
374 6 290 369 47 320 388 380 
375 9 274 29 83 126 339 78 40 102 95 
376 10 214 144 182 178 59 222 317 51 134 358 
377 10 289 210 205 283 5 171 202 250 284 146 
378 11 80 92 33 299 279 170 177 27 224 265 293 
379 9 315 131 361 281 68 19 176 383 38 
380 7 354 368 369 47 115 374 290 
381 10 244 286 399 142 23 309 393 209 387 34 
382 8 237 324 100 239 94 169 48 267 
383 9 68 19 176 166 107 361 131 315 38 
384 10 213 191 251 311 348 386 272 2 245 151 
385 11 263 116 88 152 70 130 13 254 232 61 293 
386 10 191 311 272 213 348 384 157 32 249 2 
387 10 393 163 9 167 399 4 286 125 153 23 
388 11 47 369 290 366 368 132 115 374 380 320 196 
389 10 64 351 60 52 110 218 36 204 75 391 
390 11 365 363 121 211 120 46 333 298 396 41 295 
391 9 75 218 52 60 64 110 389 36 49 
392 11 198 355 15 22 183 331 352 282 294 2 150 
393 10 387 399 163 4 23 174 9 167 286 244 
394 9 278 303 149 117 6 141 173 224 206 
395 8 14 336 181 179 137 340 71 123 
396 11 295 114 162 298 43 253 258 46 63 365 390 
397 9 82 228 304 129 335 24 201 195 74 
398 11 343 350 184 54 344 357 360 269 87 312 97 
399 10 23 381 244 393 174 387 286 142 4 307 
DEPOT_SECTION
   1
   -1
EOF
