NAME :  X-n524-kX-w52-c9.cctp
COMMENT : 	Adapted by Maziero, Usberti and Cavellucci from the Uchoa, Pecin, Pessoa, Poggi, Subramanian, and Vidal (2013)
TYPE :  CCTP
DIMENSION :    335
EDGE_WEIGHT_TYPE : 	EUC_2D	
CAPACITY : 	125
VERTICES_WITHIN_COVERAGE :  9
VERTICES_WITH_DEMAND : 	52
NODE_COORD_SECTION
1 691 729
2 978 828
3 427 367
4 777 543
5 190 596
6 773 750
7 234 727
8 851 358
9 140 69
10 891 285
11 467 13
12 537 162
13 636 355
14 213 284
15 75 877
16 384 814
17 606 173
18 76 236
19 86 733
20 642 61
21 303 261
22 771 775
23 107 264
24 763 43
25 811 873
26 38 170
27 822 920
28 907 792
29 539 273
30 576 836
31 491 411
32 430 725
33 727 248
34 532 825
35 457 218
36 398 153
37 942 597
38 8 330
39 637 85
40 75 781
41 578 635
42 560 188
43 27 523
44 432 198
45 359 691
46 695 372
47 203 307
48 641 389
49 836 612
50 375 499
51 818 980
52 577 226
53 889 259
54 516 324
55 102 346
56 484 245
57 878 261
58 600 800
59 493 722
60 549 214
61 638 166
62 452 172
63 326 662
64 786 203
65 529 661
66 843 248
67 82 971
68 876 644
69 642 810
70 141 824
71 351 732
72 469 250
73 970 812
74 723 360
75 274 238
76 668 103
77 562 82
78 930 729
79 546 102
80 388 767
81 933 329
82 991 716
83 738 728
84 436 466
85 346 490
86 639 634
87 765 715
88 772 60
89 804 906
90 378 297
91 881 802
92 842 994
93 20 116
94 562 217
95 709 544
96 50 682
97 771 244
98 506 883
99 414 522
100 583 435
101 210 579
102 326 715
103 92 24
104 879 544
105 446 28
106 130 966
107 978 572
108 333 105
109 558 84
110 783 837
111 76 494
112 151 945
113 407 685
114 106 831
115 373 284
116 875 321
117 768 758
118 304 323
119 217 608
120 712 264
121 879 873
122 52 214
123 63 197
124 579 862
125 313 245
126 32 608
127 9 608
128 840 747
129 152 742
130 994 868
131 76 784
132 753 939
133 156 870
134 571 127
135 637 341
136 162 87
137 93 14
138 427 499
139 856 260
140 54 332
141 459 387
142 118 61
143 754 299
144 883 640
145 288 268
146 22 358
147 516 272
148 361 714
149 855 12
150 798 356
151 882 889
152 554 183
153 354 851
154 21 719
155 812 664
156 650 254
157 668 231
158 57 773
159 911 335
160 371 480
161 223 658
162 393 488
163 444 66
164 547 252
165 104 269
166 135 647
167 844 424
168 428 875
169 94 941
170 172 293
171 588 69
172 709 51
173 129 266
174 679 164
175 372 843
176 1000 521
177 743 716
178 838 43
179 649 346
180 144 771
181 454 383
182 553 361
183 419 490
184 482 77
185 13 726
186 967 302
187 556 701
188 484 665
189 297 676
190 476 864
191 340 827
192 675 391
193 225 785
194 465 723
195 289 259
196 752 271
197 539 782
198 772 963
199 791 367
200 375 323
201 0 91
202 488 274
203 403 745
204 965 258
205 456 817
206 486 256
207 657 8
208 256 745
209 528 298
210 153 272
211 814 649
212 352 306
213 857 350
214 846 792
215 333 441
216 781 370
217 197 119
218 582 192
219 506 792
220 638 178
221 755 124
222 654 335
223 66 850
224 623 623
225 602 913
226 674 0
227 125 625
228 937 264
229 430 671
230 171 691
231 1 656
232 374 862
233 155 256
234 504 293
235 770 501
236 764 790
237 525 835
238 839 711
239 379 711
240 140 264
241 597 673
242 798 514
243 679 437
244 843 272
245 55 768
246 664 373
247 103 28
248 841 826
249 47 539
250 530 354
251 924 776
252 477 784
253 69 282
254 371 110
255 234 333
256 61 527
257 104 132
258 711 178
259 47 755
260 332 541
261 853 658
262 440 187
263 603 576
264 438 190
265 857 282
266 169 702
267 461 299
268 878 549
269 196 92
270 780 638
271 724 171
272 801 374
273 718 26
274 0 789
275 461 432
276 391 542
277 548 841
278 965 772
279 61 446
280 215 324
281 181 749
282 562 764
283 678 70
284 985 664
285 678 370
286 118 587
287 913 258
288 548 391
289 474 67
290 615 218
291 854 798
292 850 728
293 768 589
294 4 303
295 43 400
296 525 257
297 593 392
298 123 233
299 130 687
300 394 334
301 765 405
302 540 408
303 881 423
304 358 553
305 903 236
306 64 121
307 11 847
308 758 962
309 981 723
310 36 659
311 539 348
312 506 458
313 762 62
314 956 508
315 173 89
316 96 995
317 982 670
318 593 42
319 256 579
320 706 808
321 373 748
322 260 698
323 538 250
324 348 539
325 84 185
326 320 795
327 168 346
328 857 379
329 84 839
330 637 820
331 61 140
332 795 51
333 492 157
334 324 520
335 832 980
DEMAND_SECTION
2 95
3 66
4 66
5 50
6 55
7 91
8 100
9 73
10 96
11 85
12 82
13 72
14 77
15 62
16 86
17 100
18 63
19 94
20 97
21 78
22 94
23 83
24 90
25 71
26 59
27 88
28 50
29 65
30 75
31 50
32 56
33 90
34 56
35 71
36 95
37 93
38 97
39 79
40 94
41 69
42 90
43 63
44 93
45 82
46 53
47 92
48 70
49 88
50 57
51 93
52 69
53 66
COVERAGE_SECTION
2 6 73 130 278 251 28 91 
3 8 181 141 300 200 275 267 31 90 
4 6 242 235 293 95 49 270 
5 7 101 119 319 161 227 286 166 
6 9 117 22 87 83 236 177 128 238 292 
7 7 208 322 281 193 161 266 230 
8 9 213 328 116 272 150 199 159 167 216 
9 9 142 136 315 247 269 103 137 257 217 
10 9 53 57 265 287 116 139 244 305 228 
11 8 105 289 163 184 109 77 79 318 
12 9 152 42 333 134 60 218 94 79 17 
13 9 135 179 222 246 48 285 192 297 46 
14 9 47 280 170 255 210 233 75 240 145 
15 9 223 329 114 169 307 133 70 131 67 
16 9 175 191 80 153 232 321 326 203 205 
17 9 218 220 61 290 42 152 134 52 94 
18 9 122 123 23 165 253 298 325 173 240 
19 9 259 245 40 158 131 96 299 154 129 
20 9 39 283 76 318 171 207 172 226 77 
21 8 195 145 125 75 118 212 115 90 
22 9 117 236 6 83 87 110 177 320 128 
23 8 165 173 240 298 18 253 210 233 
24 9 88 313 332 273 172 178 221 283 149 
25 9 89 110 27 248 121 151 291 132 214 
26 9 123 331 122 325 306 93 18 257 201 
27 9 89 25 51 335 198 151 132 121 92 
28 9 251 91 291 214 278 73 78 248 2 
29 9 296 164 147 323 209 234 202 54 206 
30 9 124 277 58 34 237 330 197 69 282 
31 9 275 141 181 302 312 288 250 3 84 
32 9 203 194 113 239 229 80 321 59 148 
33 9 120 196 97 143 157 258 64 156 271 
34 9 237 277 219 197 30 124 98 190 282 
35 9 44 72 264 262 56 62 206 202 333 
36 7 254 262 264 44 62 108 35 
37 9 107 144 268 284 68 104 317 314 176 
38 8 294 146 140 253 295 55 165 18 
39 9 20 76 283 171 318 77 134 109 172 
40 9 131 158 245 259 19 114 329 180 223 
41 6 241 224 65 86 263 187 
42 9 152 218 60 94 12 52 17 134 290 
43 7 249 256 111 279 126 127 286 
44 9 264 262 35 62 36 72 56 333 206 
45 9 148 239 102 71 63 113 321 189 203 
46 9 285 192 74 246 179 222 48 13 135 
47 9 280 14 170 255 327 210 233 240 173 
48 9 246 13 192 285 179 135 297 222 46 
49 9 211 261 68 144 155 270 293 268 104 
50 9 160 162 85 99 183 276 324 138 334 
51 7 335 92 198 27 308 89 132 
52 9 94 60 218 290 164 42 323 152 17 
53 9 57 287 10 305 139 265 66 228 244 
54 9 209 234 250 311 147 182 29 202 267 
55 7 140 327 253 165 295 146 23 
56 9 206 72 202 35 147 296 234 323 267 
57 9 53 139 10 265 287 305 66 244 228 
58 7 330 30 69 282 197 124 277 
59 7 194 188 32 252 187 65 219 
60 9 94 42 52 152 164 323 218 296 12 
61 9 220 17 174 290 218 76 157 258 134 
62 9 262 264 44 333 35 36 56 72 12 
63 5 189 45 102 148 239 
64 4 97 271 66 33 
65 6 188 187 41 241 59 194 
66 6 139 244 57 265 53 10 
67 9 316 169 106 112 15 223 133 329 114 
68 7 144 261 49 211 155 238 37 
69 4 330 58 320 30 
70 6 114 133 180 329 131 40 
71 7 148 321 102 239 45 80 203 
72 9 56 206 202 35 267 147 234 296 44 
73 8 2 278 251 130 28 91 309 78 
74 8 46 285 192 216 246 301 143 199 
75 6 195 145 21 125 14 118 
76 8 283 39 20 174 172 61 220 258 
77 9 109 79 171 134 318 39 184 20 12 
78 7 251 309 278 82 28 317 292 
79 9 109 77 134 171 12 184 318 333 289 
80 8 321 203 16 71 239 32 148 326 
81 6 159 186 116 10 228 287 
82 8 309 317 284 78 278 251 73 2 
83 6 177 87 6 117 22 236 
84 7 183 138 275 162 99 160 50 
85 8 160 50 334 162 324 215 260 304 
86 4 224 241 41 263 
87 7 177 83 6 117 22 155 238 
88 8 313 24 332 172 273 221 178 283 
89 9 27 25 132 198 110 308 51 335 151 
90 8 115 200 212 300 118 21 125 267 
91 9 291 28 214 248 251 128 121 292 151 
92 4 335 51 27 198 
93 7 201 306 331 26 257 123 325 
94 9 60 52 42 218 152 164 323 290 296 
95 3 4 293 235 
96 9 310 154 231 185 19 259 126 299 127 
97 6 196 33 64 143 120 66 
98 5 190 237 277 34 124 
99 5 138 276 183 162 50 
100 6 297 302 288 48 182 312 
101 4 5 119 319 161 
102 7 71 148 45 189 63 239 321 
103 6 137 247 142 9 136 306 
104 6 268 49 37 314 242 144 
105 7 11 163 289 184 254 79 109 
106 8 112 169 316 67 133 15 223 329 
107 9 37 176 314 284 317 104 268 144 68 
108 2 254 36 
109 9 77 79 171 134 318 184 39 12 289 
110 6 25 236 248 22 89 214 
111 4 256 279 249 43 
112 7 106 169 67 316 133 15 70 
113 9 229 239 32 45 148 203 194 321 71 
114 9 329 70 223 15 131 40 133 180 158 
115 8 90 212 200 300 125 21 118 145 
116 9 213 10 159 265 8 81 244 57 328 
117 9 6 22 236 83 87 177 128 110 320 
118 6 212 145 21 195 200 255 
119 5 5 101 319 161 166 
120 8 33 196 143 157 97 156 258 222 
121 5 151 248 25 91 27 
122 9 123 18 325 26 253 298 23 331 165 
123 8 122 325 26 18 331 298 306 257 
124 9 30 277 225 34 237 58 330 98 69 
125 8 21 195 145 75 115 212 118 90 
126 9 127 310 231 249 96 43 256 286 227 
127 9 126 231 310 249 96 43 256 286 154 
128 8 292 238 214 291 6 91 117 22 
129 7 180 281 266 230 299 19 7 
130 3 2 73 278 
131 9 40 158 245 259 19 114 329 223 180 
132 6 308 198 89 27 51 25 
133 5 70 114 112 329 15 
134 9 79 109 77 12 17 152 171 42 218 
135 9 179 13 222 246 48 285 192 46 297 
136 6 315 9 269 217 142 257 
137 6 103 247 142 9 136 315 
138 5 183 99 84 162 50 
139 8 66 244 57 265 53 10 305 287 
140 8 146 38 55 253 294 295 165 23 
141 9 181 3 31 275 250 84 300 302 54 
142 9 9 247 103 136 137 315 257 306 269 
143 7 196 120 33 97 74 150 216 
144 7 68 261 49 211 37 155 238 
145 9 195 21 75 125 118 212 14 255 115 
146 7 38 140 295 294 55 253 279 
147 9 296 29 234 202 209 323 206 164 56 
148 8 239 71 45 102 321 203 113 80 
149 4 178 332 88 24 
150 7 199 272 216 8 213 301 328 
151 3 121 27 25 
152 9 42 12 218 60 94 52 17 134 333 
153 6 175 232 191 16 326 168 
154 9 185 259 96 245 310 158 19 231 274 
155 8 211 261 270 238 49 68 87 292 
156 9 157 290 120 33 220 52 222 135 61 
157 9 156 120 290 33 220 174 258 61 271 
158 9 245 40 259 131 19 274 185 154 329 
159 7 81 116 10 213 8 186 328 
160 8 50 162 85 183 215 138 99 334 
161 6 119 322 230 5 7 266 
162 8 50 160 183 138 99 85 84 276 
163 8 289 105 184 11 254 36 333 62 
164 9 323 29 296 147 60 94 52 209 234 
165 8 23 173 240 253 298 18 210 233 
166 9 227 299 230 286 266 5 161 119 96 
167 4 303 328 8 272 
168 5 190 232 175 205 16 
169 9 67 106 316 112 15 133 223 329 114 
170 8 210 47 233 14 240 173 280 327 
171 9 318 77 109 39 79 20 134 76 283 
172 9 273 283 313 24 226 88 76 207 20 
173 8 240 23 165 210 233 298 170 18 
174 7 258 61 220 271 76 157 17 
175 7 232 153 16 191 168 326 80 
176 5 314 107 37 104 268 
177 6 83 87 6 117 22 236 
178 5 149 332 88 24 313 
179 9 222 135 13 246 285 48 192 46 297 
180 7 129 281 70 19 131 40 114 
181 9 141 3 31 275 300 250 267 84 54 
182 9 311 250 288 302 297 54 209 31 100 
183 6 138 162 84 99 50 160 
184 9 289 163 105 11 79 109 77 333 62 
185 9 154 259 96 245 158 274 231 310 19 
186 6 81 204 228 159 287 10 
187 6 65 241 282 59 41 188 
188 7 65 229 59 194 113 187 32 
189 5 63 322 102 45 148 
190 6 98 168 205 237 34 277 
191 5 153 175 326 16 232 
192 9 246 285 46 48 243 179 13 74 222 
193 3 208 281 7 
194 7 59 32 188 252 229 203 113 
195 7 145 21 75 125 118 212 14 
196 6 143 97 33 120 64 244 
197 8 282 219 34 237 277 252 58 30 
198 7 308 132 51 335 89 27 92 
199 7 216 272 150 301 8 328 74 
200 6 300 90 212 115 3 118 
201 6 93 306 331 26 257 103 
202 9 206 234 147 56 72 267 296 209 29 
203 9 80 321 32 239 148 71 113 194 45 
204 5 228 186 287 305 53 
205 9 252 190 219 168 237 16 34 98 80 
206 9 56 72 202 147 296 234 35 267 323 
207 9 226 20 273 283 172 318 39 171 76 
208 3 7 322 193 
209 9 234 29 54 147 296 202 323 164 311 
210 8 240 233 173 170 23 165 298 14 
211 8 155 270 261 49 68 238 144 293 
212 7 90 200 115 300 118 21 125 
213 9 8 328 116 159 150 272 199 265 10 
214 9 291 248 91 128 28 292 22 110 251 
215 3 85 160 50 
216 7 199 272 150 301 74 8 143 
217 4 269 315 136 9 
218 9 42 152 17 94 52 60 290 12 220 
219 8 252 197 34 237 205 282 277 59 
220 9 61 17 174 290 218 157 258 156 52 
221 6 271 313 88 258 24 332 
222 9 179 135 13 246 285 46 48 192 74 
223 9 329 15 114 307 131 40 158 70 245 
224 4 86 41 263 241 
225 3 124 30 277 
226 9 207 273 172 20 283 318 39 24 76 
227 9 166 286 299 5 230 266 96 119 126 
228 7 287 204 305 53 186 10 57 
229 7 113 32 188 194 239 45 203 
230 9 266 299 129 166 281 161 7 227 180 
231 9 310 127 96 126 154 185 259 19 245 
232 5 175 153 16 191 168 
233 7 210 240 173 298 170 23 165 
234 9 147 202 209 54 29 206 296 267 56 
235 4 242 4 95 293 
236 7 22 117 6 110 320 83 87 
237 9 34 277 219 30 98 197 190 124 252 
238 8 292 128 155 261 211 87 6 68 
239 9 148 45 71 321 113 203 32 102 80 
240 7 173 210 233 23 298 165 170 
241 6 41 187 224 86 65 263 
242 5 235 4 293 104 268 
243 5 192 48 246 46 285 
244 7 265 139 66 57 53 10 116 
245 9 158 259 40 131 19 185 274 154 329 
246 9 285 192 48 46 179 13 222 135 74 
247 6 103 137 142 9 136 315 
248 9 291 214 91 25 110 121 28 151 128 
249 7 256 43 111 126 127 286 279 
250 9 311 182 54 288 302 209 234 31 297 
251 8 28 278 78 91 73 291 2 309 
252 8 219 205 194 197 59 34 237 32 
253 9 165 23 18 140 173 294 122 55 240 
254 3 108 36 163 
255 6 280 47 14 327 118 170 
256 6 249 43 111 279 286 126 
257 7 306 331 325 142 9 136 26 
258 7 271 174 157 221 33 220 61 
259 9 245 158 40 131 154 19 185 274 96 
260 6 324 334 304 85 276 50 
261 8 68 144 211 155 49 238 292 270 
262 9 264 44 62 35 36 333 72 56 206 
263 3 224 41 86 
264 9 262 44 62 35 36 333 72 56 206 
265 8 244 139 57 10 66 53 116 287 
266 9 230 299 129 281 166 7 161 180 19 
267 9 202 234 72 206 56 54 147 209 3 
268 7 104 49 37 242 314 144 68 
269 5 315 217 136 9 142 
270 6 211 155 293 49 261 87 
271 7 258 174 221 64 33 157 61 
272 7 199 150 216 301 8 328 213 
273 9 172 24 226 313 283 88 207 332 20 
274 9 259 158 245 307 185 154 40 131 223 
275 8 31 84 141 181 312 183 3 138 
276 8 99 304 324 50 162 138 183 260 
277 9 34 237 30 124 98 197 219 58 190 
278 8 73 251 309 78 2 28 82 91 
279 4 295 111 256 43 
280 7 47 255 14 327 170 210 118 
281 6 129 180 266 7 193 230 
282 6 197 58 187 219 34 30 
283 9 76 172 20 39 273 207 226 313 24 
284 8 317 82 309 37 78 107 144 278 
285 9 246 46 192 179 48 222 13 74 135 
286 6 227 166 5 256 249 126 
287 9 53 305 228 10 57 204 139 265 186 
288 9 302 182 250 311 297 100 31 54 312 
289 9 184 163 105 11 79 109 77 333 62 
290 9 52 218 17 220 156 94 157 61 42 
291 9 214 91 248 28 128 292 251 121 110 
292 8 238 128 214 261 291 155 6 78 
293 6 4 270 49 95 211 242 
294 9 38 140 146 253 18 122 295 165 55 
295 5 146 279 140 38 55 
296 9 323 147 29 164 206 202 209 234 56 
297 9 100 288 48 182 302 13 135 311 179 
298 6 173 23 240 233 165 18 
299 9 166 230 266 129 227 19 96 281 180 
300 7 200 90 3 212 115 267 181 
301 6 216 199 272 150 74 46 
302 8 288 31 182 100 250 297 311 312 
303 3 167 328 8 
304 7 324 260 276 334 50 85 99 
305 9 287 53 57 228 10 139 66 265 204 
306 8 331 257 93 26 325 201 123 142 
307 9 223 274 15 329 158 245 131 40 114 
308 7 198 132 51 89 335 27 92 
309 8 82 78 278 317 284 251 73 28 
310 9 96 231 126 127 154 185 19 227 259 
311 9 250 182 54 288 209 302 234 297 29 
312 4 31 275 302 84 
313 8 88 24 332 172 273 221 178 283 
314 5 176 107 104 268 37 
315 6 136 269 217 9 142 257 
316 8 67 106 169 112 15 133 223 329 
317 8 284 82 309 78 37 107 144 278 
318 9 171 77 20 109 39 207 79 134 283 
319 5 101 119 5 260 161 
320 4 236 69 330 22 
321 8 80 71 203 148 239 102 45 32 
322 6 7 189 208 161 102 63 
323 9 164 296 29 147 60 94 52 209 206 
324 8 260 304 334 276 50 85 160 99 
325 7 123 122 26 331 18 257 298 
326 4 191 153 16 71 
327 7 47 280 170 55 255 210 14 
328 8 8 213 167 303 272 116 150 199 
329 9 223 114 15 131 40 70 158 307 245 
330 5 69 58 30 320 124 
331 8 306 26 257 93 325 123 122 201 
332 8 88 24 313 178 149 273 221 172 
333 9 62 12 262 264 152 35 44 42 79 
334 7 260 324 85 304 50 160 276 
335 6 51 92 27 198 308 89 
DEPOT_SECTION
   1
   -1
EOF
