NAME :  X-n599-kX-w119-c11.cctp
COMMENT : 	Adapted by Maziero, Usberti and Cavellucci from the Uchoa, Pecin, Pessoa, Poggi, Subramanian, and Vidal (2013)
TYPE :  CCTP
DIMENSION :    550
EDGE_WEIGHT_TYPE : 	EUC_2D	
CAPACITY : 	487
VERTICES_WITHIN_COVERAGE :  11
VERTICES_WITH_DEMAND : 	119
NODE_COORD_SECTION
1 284 167
2 6 711
3 874 746
4 483 894
5 733 189
6 336 29
7 488 684
8 825 903
9 98 412
10 206 306
11 497 641
12 499 745
13 481 40
14 500 390
15 851 268
16 51 278
17 805 796
18 554 771
19 576 984
20 734 251
21 325 414
22 658 81
23 279 467
24 1000 804
25 124 148
26 554 594
27 645 168
28 4 965
29 614 267
30 939 719
31 935 800
32 109 154
33 31 554
34 960 512
35 489 840
36 377 684
37 945 808
38 720 165
39 226 34
40 73 255
41 748 344
42 774 514
43 143 893
44 168 461
45 164 493
46 631 533
47 815 191
48 833 284
49 746 100
50 252 839
51 894 472
52 944 597
53 371 28
54 552 186
55 610 541
56 578 665
57 749 655
58 898 974
59 274 972
60 520 642
61 914 373
62 610 738
63 773 602
64 752 74
65 729 90
66 464 658
67 70 36
68 964 397
69 388 732
70 185 51
71 712 144
72 45 437
73 910 738
74 956 879
75 318 560
76 592 913
77 642 564
78 907 240
79 88 186
80 399 931
81 763 180
82 626 876
83 302 689
84 970 490
85 775 574
86 653 667
87 813 999
88 5 980
89 10 249
90 980 136
91 557 816
92 915 680
93 131 722
94 553 946
95 45 101
96 306 260
97 627 26
98 771 398
99 869 585
100 493 282
101 312 212
102 985 939
103 194 262
104 992 698
105 834 844
106 1 651
107 271 893
108 20 349
109 163 503
110 579 761
111 923 502
112 2 469
113 103 284
114 928 132
115 51 883
116 63 181
117 784 300
118 212 774
119 138 90
120 532 999
121 160 179
122 51 330
123 439 328
124 519 563
125 15 591
126 2 546
127 20 964
128 975 611
129 128 984
130 131 737
131 969 497
132 367 77
133 925 640
134 160 288
135 771 912
136 162 80
137 704 21
138 980 560
139 896 344
140 566 389
141 892 149
142 20 663
143 405 859
144 475 920
145 480 756
146 835 65
147 407 973
148 447 697
149 363 808
150 344 837
151 325 148
152 249 926
153 894 188
154 146 433
155 22 95
156 789 664
157 110 741
158 378 573
159 606 838
160 583 717
161 151 525
162 803 457
163 971 191
164 687 417
165 512 553
166 893 179
167 339 985
168 108 241
169 268 98
170 317 221
171 763 566
172 310 305
173 572 203
174 454 957
175 621 295
176 154 175
177 881 149
178 122 50
179 163 817
180 825 86
181 879 455
182 801 726
183 504 198
184 970 276
185 934 920
186 21 730
187 0 689
188 55 848
189 234 477
190 881 106
191 125 170
192 169 455
193 825 911
194 300 380
195 836 71
196 492 28
197 466 702
198 280 878
199 529 935
200 580 243
201 892 721
202 844 830
203 950 63
204 139 349
205 345 668
206 202 781
207 703 608
208 293 435
209 195 547
210 28 660
211 481 59
212 632 672
213 220 763
214 13 308
215 216 306
216 32 554
217 96 824
218 510 533
219 158 386
220 829 812
221 867 873
222 784 951
223 220 977
224 852 979
225 776 539
226 399 357
227 456 434
228 113 924
229 30 459
230 659 795
231 623 116
232 635 270
233 232 431
234 520 384
235 838 24
236 758 862
237 73 559
238 676 791
239 492 942
240 869 445
241 79 773
242 843 368
243 23 54
244 908 695
245 727 140
246 314 736
247 73 940
248 646 802
249 946 370
250 461 280
251 987 63
252 181 970
253 619 314
254 233 651
255 310 285
256 440 921
257 84 462
258 659 265
259 294 353
260 344 805
261 392 406
262 973 635
263 0 537
264 973 718
265 762 474
266 889 147
267 806 717
268 762 978
269 217 27
270 446 332
271 185 282
272 456 227
273 972 759
274 774 283
275 29 157
276 110 925
277 396 428
278 427 836
279 334 853
280 695 663
281 216 367
282 914 966
283 675 144
284 380 424
285 983 421
286 196 287
287 703 575
288 42 81
289 188 558
290 651 950
291 761 901
292 699 838
293 257 174
294 828 842
295 316 34
296 391 970
297 725 674
298 120 90
299 694 30
300 517 759
301 365 235
302 494 299
303 582 323
304 905 177
305 491 337
306 872 740
307 660 518
308 735 841
309 157 997
310 45 383
311 354 180
312 425 710
313 236 203
314 601 696
315 985 82
316 838 611
317 829 443
318 954 46
319 831 477
320 977 848
321 61 126
322 254 595
323 337 5
324 962 264
325 832 389
326 870 159
327 537 349
328 15 890
329 85 734
330 17 668
331 650 591
332 42 53
333 367 72
334 951 526
335 607 633
336 686 319
337 915 493
338 625 316
339 920 267
340 189 208
341 735 596
342 128 875
343 544 996
344 700 96
345 314 626
346 240 431
347 689 615
348 177 160
349 132 639
350 292 500
351 313 752
352 240 47
353 750 460
354 314 486
355 701 50
356 303 175
357 541 185
358 966 670
359 7 640
360 911 283
361 550 784
362 657 974
363 565 856
364 725 81
365 557 176
366 122 60
367 347 872
368 86 270
369 671 300
370 306 688
371 62 569
372 592 581
373 380 868
374 191 553
375 108 151
376 806 685
377 956 106
378 465 782
379 315 454
380 257 878
381 859 581
382 857 385
383 956 788
384 932 515
385 713 464
386 614 647
387 39 570
388 293 866
389 861 930
390 997 658
391 25 56
392 996 771
393 609 794
394 575 912
395 798 641
396 47 705
397 33 332
398 20 892
399 406 668
400 911 786
401 287 587
402 230 500
403 999 267
404 101 865
405 218 917
406 478 14
407 179 48
408 284 237
409 832 379
410 685 104
411 275 165
412 224 45
413 31 407
414 558 298
415 385 391
416 8 935
417 760 662
418 255 263
419 811 645
420 152 288
421 840 493
422 48 522
423 624 942
424 557 687
425 302 629
426 570 674
427 523 682
428 521 738
429 825 540
430 906 960
431 286 33
432 43 940
433 410 713
434 96 760
435 269 427
436 329 180
437 893 150
438 634 97
439 285 241
440 431 871
441 964 134
442 211 400
443 19 292
444 15 407
445 986 675
446 272 671
447 346 394
448 963 309
449 551 663
450 759 368
451 281 999
452 416 642
453 966 681
454 416 755
455 545 448
456 852 486
457 487 456
458 57 476
459 569 437
460 828 352
461 625 458
462 446 705
463 197 107
464 652 878
465 559 625
466 539 149
467 76 178
468 869 714
469 172 542
470 883 701
471 167 695
472 265 285
473 465 898
474 625 552
475 876 277
476 896 763
477 429 312
478 953 351
479 634 37
480 5 753
481 998 497
482 237 482
483 787 445
484 50 301
485 429 596
486 881 355
487 888 609
488 927 216
489 555 110
490 166 518
491 840 933
492 916 873
493 221 705
494 97 71
495 634 685
496 759 542
497 111 830
498 832 46
499 680 133
500 152 639
501 489 197
502 216 62
503 246 214
504 694 287
505 849 833
506 811 272
507 141 463
508 645 843
509 461 656
510 393 220
511 337 375
512 534 927
513 81 805
514 509 460
515 346 660
516 32 304
517 453 799
518 325 239
519 454 629
520 137 993
521 505 920
522 254 198
523 461 582
524 931 438
525 194 274
526 682 129
527 152 673
528 949 48
529 116 990
530 579 876
531 729 124
532 513 311
533 958 86
534 936 365
535 83 93
536 10 103
537 223 860
538 402 101
539 965 683
540 35 143
541 262 766
542 113 182
543 573 796
544 384 538
545 251 775
546 186 96
547 558 287
548 695 874
549 567 488
550 661 518
DEMAND_SECTION
2 63
3 89
4 97
5 78
6 92
7 55
8 97
9 88
10 95
11 64
12 80
13 68
14 71
15 95
16 75
17 89
18 54
19 75
20 61
21 66
22 86
23 56
24 99
25 65
26 56
27 99
28 79
29 73
30 53
31 63
32 76
33 67
34 77
35 82
36 67
37 68
38 64
39 69
40 68
41 83
42 77
43 67
44 74
45 80
46 55
47 86
48 68
49 62
50 78
51 67
52 90
53 63
54 90
55 56
56 69
57 97
58 87
59 87
60 70
61 75
62 73
63 81
64 97
65 88
66 68
67 53
68 64
69 95
70 87
71 92
72 79
73 77
74 75
75 86
76 85
77 55
78 60
79 78
80 71
81 68
82 69
83 73
84 89
85 64
86 95
87 61
88 85
89 55
90 96
91 51
92 98
93 82
94 89
95 71
96 60
97 94
98 64
99 74
100 75
101 91
102 63
103 67
104 91
105 77
106 65
107 89
108 50
109 77
110 88
111 66
112 98
113 64
114 51
115 64
116 96
117 51
118 54
119 68
120 59
COVERAGE_SECTION
2 11 187 186 396 480 330 142 210 106 359 329 241 
3 11 306 476 201 468 73 470 400 244 30 267 182 
4 11 473 144 521 239 256 35 440 512 199 174 278 
5 11 38 81 245 71 20 531 283 499 526 47 27 
6 10 295 323 53 431 333 132 169 352 538 39 
7 11 197 66 427 509 148 11 462 60 12 428 519 
8 11 193 491 389 221 135 105 294 222 291 505 202 
9 11 154 257 72 310 219 413 507 204 458 192 229 
10 11 215 286 271 525 103 134 420 281 472 418 204 
11 11 60 66 509 7 519 427 449 465 197 523 26 
12 11 145 300 428 378 197 18 7 361 462 427 148 
13 10 196 211 406 538 489 53 333 132 466 6 
14 9 234 305 327 227 140 457 514 455 270 
15 11 48 475 506 360 78 339 117 274 47 460 139 
16 11 484 40 516 443 368 214 89 113 122 397 168 
17 11 220 294 202 105 505 182 267 236 308 3 306 
18 11 361 110 543 300 91 428 393 12 160 62 145 
19 11 343 94 120 423 199 512 394 76 290 362 239 
20 11 274 504 5 117 258 81 369 506 336 38 41 
21 11 447 208 379 511 194 284 435 415 261 259 23 
22 11 438 410 344 231 479 355 526 499 299 97 283 
23 11 208 350 379 354 435 482 189 346 233 402 21 
24 11 392 383 320 273 37 31 74 264 400 30 104 
25 11 32 375 191 542 176 121 79 348 467 298 119 
26 11 465 372 124 60 165 335 449 11 56 218 55 
27 11 283 499 526 231 71 438 38 410 173 245 22 
28 11 88 127 416 432 247 398 328 115 276 529 228 
29 11 232 175 200 258 253 338 547 303 414 369 173 
30 11 264 73 244 539 92 201 453 273 358 104 470 
31 11 37 383 400 476 273 320 24 73 392 492 3 
32 11 375 25 191 542 79 467 176 116 321 121 298 
33 10 216 387 126 371 263 422 125 237 458 359 
34 11 131 334 84 384 111 481 337 138 51 524 52 
35 11 4 517 278 378 473 440 91 363 144 521 361 
36 11 399 205 515 433 69 312 452 148 370 462 83 
37 11 31 383 400 320 24 273 392 476 492 74 73 
38 11 71 245 5 531 81 283 499 526 49 410 344 
39 11 269 412 352 502 70 407 431 546 169 136 463 
40 11 368 16 168 113 484 89 516 443 79 116 467 
41 9 450 117 98 274 336 504 460 369 409 
42 11 225 496 265 171 429 353 85 162 319 421 483 
43 11 342 228 276 404 497 179 405 217 247 252 537 
44 11 192 507 45 154 109 490 161 189 233 482 402 
45 11 109 490 44 161 192 507 469 209 154 374 402 
46 10 474 55 77 307 550 331 372 461 549 287 
47 11 81 326 177 153 166 506 5 15 266 141 437 
48 11 15 506 475 117 274 460 360 242 78 486 139 
49 11 65 64 364 531 245 344 71 410 355 38 526 
50 11 537 380 198 388 107 545 541 118 206 213 279 
51 11 181 337 240 111 456 524 384 421 319 317 34 
52 11 128 133 262 138 487 334 99 358 390 384 34 
53 10 6 323 333 132 295 538 431 406 13 211 
54 11 357 365 173 466 183 200 501 489 27 231 547 
55 10 474 46 77 372 307 550 331 549 26 461 
56 11 426 449 424 314 386 335 465 160 212 427 495 
57 11 417 297 156 395 280 63 341 419 376 207 347 
58 11 430 282 224 389 185 491 87 102 193 8 492 
59 11 451 152 223 167 405 107 252 198 380 388 296 
60 11 11 449 427 465 7 66 424 26 426 509 56 
61 11 534 249 139 486 478 68 382 524 242 448 409 
62 11 160 110 314 393 495 18 543 212 248 424 230 
63 11 85 171 341 395 419 57 417 496 225 156 316 
64 11 49 65 364 531 344 355 245 137 299 410 180 
65 11 364 49 64 344 531 410 355 245 71 526 499 
66 11 509 519 7 11 148 197 462 452 60 399 427 
67 11 332 494 391 243 288 178 366 535 95 298 155 
68 11 285 249 534 478 524 61 139 448 84 486 131 
69 11 433 454 312 36 462 399 148 246 205 351 149 
70 11 407 502 136 412 269 39 546 352 463 119 178 
71 11 245 38 531 499 526 283 410 344 5 49 65 
72 11 229 413 458 444 257 112 310 9 422 108 507 
73 11 201 476 30 3 306 244 470 400 468 92 273 
74 11 320 492 185 102 37 31 24 221 383 430 282 
75 9 401 158 350 345 544 425 322 354 23 
76 11 394 530 423 82 94 512 363 199 464 290 19 
77 11 474 331 46 55 307 550 372 287 347 207 335 
78 11 339 488 360 475 153 324 15 166 304 184 163 
79 11 467 116 542 32 191 375 25 168 275 321 176 
80 11 296 256 147 174 373 440 143 473 144 367 167 
81 11 5 38 47 245 71 531 20 49 283 499 65 
82 11 464 508 159 530 76 394 363 423 548 248 290 
83 11 370 446 205 246 515 425 345 351 36 254 493 
84 11 131 34 481 334 384 111 337 524 285 138 51 
85 11 171 63 225 496 341 42 429 395 287 316 207 
86 11 212 495 280 386 335 314 347 297 56 331 207 
87 9 224 268 222 491 389 58 193 8 135 
88 11 28 127 416 432 247 398 328 115 529 276 228 
89 11 443 16 214 516 40 484 368 116 397 122 275 
90 11 441 377 114 315 533 163 251 203 304 437 141 
91 11 543 361 363 18 159 393 110 530 300 35 428 
92 11 244 470 133 30 201 539 453 358 468 73 264 
93 11 130 157 471 329 434 527 241 349 396 500 206 
94 11 199 512 394 19 76 343 521 120 239 423 530 
95 11 288 155 321 536 535 540 332 391 243 275 494 
96 11 255 439 518 408 170 172 101 472 418 301 503 
97 11 479 22 299 438 137 355 231 410 344 489 364 
98 11 450 483 41 325 409 353 162 317 460 265 242 
99 11 381 487 316 429 52 133 419 395 384 85 421 
100 11 302 250 532 305 547 272 414 270 123 477 327 
101 11 170 518 436 356 408 439 96 311 301 411 522 
102 11 185 74 282 430 320 58 492 389 221 24 37 
103 11 525 271 286 134 10 215 420 340 418 503 313 
104 11 445 264 453 539 358 390 30 273 262 392 92 
105 11 294 202 505 220 221 17 8 193 236 492 491 
106 10 359 142 330 210 187 2 125 396 186 387 
107 11 198 380 388 152 50 405 537 279 59 367 150 
108 11 397 122 214 310 516 443 484 444 413 16 72 
109 11 45 490 161 469 44 507 192 209 374 289 402 
110 11 18 543 361 62 160 393 91 300 428 314 424 
111 11 337 384 334 34 51 131 84 181 524 456 481 
112 11 229 72 458 444 263 413 422 126 257 33 216 
113 11 368 40 168 420 16 484 134 122 204 516 271 
114 11 441 377 437 141 266 177 304 90 190 533 166 
115 11 398 188 328 404 432 247 416 276 217 228 342 
116 11 467 79 275 540 542 32 375 321 191 25 40 
117 11 274 506 48 41 460 20 450 15 242 504 409 
118 11 206 213 545 541 179 493 50 537 130 471 93 
119 11 298 136 366 178 494 546 535 407 25 70 463 
120 11 343 19 94 199 239 512 521 174 144 394 76 
121 10 176 348 191 340 542 25 32 375 79 313 
122 11 397 484 516 108 214 443 16 310 113 368 40 
123 10 270 477 226 250 305 302 100 532 415 14 
124 8 165 218 26 523 465 372 60 11 
125 11 387 33 216 126 359 371 263 106 237 210 142 
126 11 263 33 216 387 125 422 371 237 112 458 229 
127 11 28 88 416 432 247 398 328 115 276 529 228 
128 11 262 52 138 390 133 358 445 453 539 487 334 
129 11 520 529 309 252 228 276 247 43 223 432 342 
130 11 93 157 434 329 471 241 527 206 513 179 118 
131 11 84 34 481 334 384 111 337 138 524 285 51 
132 10 333 538 53 6 295 323 151 431 169 311 
133 11 92 52 262 487 358 128 244 453 539 445 390 
134 11 420 271 286 525 103 10 113 215 204 168 368 
135 6 291 222 236 193 8 268 
136 11 119 546 407 70 298 463 366 178 502 494 412 
137 11 299 355 364 64 479 65 344 22 97 410 49 
138 11 334 128 34 52 131 384 481 84 262 111 337 
139 11 486 61 534 249 382 478 242 360 460 475 409 
140 6 234 459 327 455 14 303 
141 11 437 266 177 326 166 304 153 114 190 441 488 
142 10 330 210 106 359 187 2 396 186 125 480 
143 11 373 440 278 367 150 149 256 279 80 473 517 
144 11 473 4 239 521 256 174 199 512 440 80 35 
145 11 12 378 300 428 517 197 462 454 148 7 312 
146 6 195 498 180 235 190 64 
147 11 296 80 174 256 167 144 239 473 440 373 4 
148 11 462 197 312 433 7 66 509 399 452 454 145 
149 11 260 150 279 373 143 367 278 351 454 69 246 
150 11 279 260 149 367 373 388 143 198 278 351 50 
151 7 436 356 311 411 101 170 293 
152 11 405 107 380 59 198 223 537 388 451 252 50 
153 11 166 304 326 437 141 177 266 488 78 114 163 
154 11 507 192 44 219 9 45 257 109 442 204 233 
155 11 536 95 288 391 243 332 321 540 535 275 67 
156 10 395 376 417 419 57 267 182 63 297 316 
157 11 130 434 329 93 241 513 396 471 527 217 497 
158 10 544 485 75 452 345 523 401 515 425 519 
159 11 508 82 393 363 530 543 91 248 464 230 76 
160 11 314 62 424 110 426 56 495 18 449 428 212 
161 11 490 109 469 45 209 374 289 507 44 192 402 
162 11 483 317 319 265 421 353 456 42 98 240 325 
163 11 488 90 441 304 114 324 153 166 78 403 184 
164 5 385 461 353 98 450 
165 7 124 218 26 523 372 549 465 
166 11 153 304 437 141 326 177 266 488 114 78 190 
167 11 296 451 59 147 80 152 367 107 174 223 256 
168 11 368 40 113 79 542 420 16 134 467 191 116 
169 8 352 502 411 431 412 463 151 39 
170 11 101 518 408 439 96 436 356 301 311 255 522 
171 11 85 496 225 63 341 42 287 429 207 395 316 
172 10 255 96 472 259 518 418 439 408 511 194 
173 11 54 365 357 200 466 183 29 27 501 547 232 
174 11 256 239 144 147 473 80 521 296 4 199 512 
175 9 253 338 29 232 258 303 369 414 547 
176 10 121 348 191 25 542 340 32 375 79 467 
177 9 266 141 437 326 166 304 153 190 114 
178 11 366 494 298 119 136 67 407 535 70 546 332 
179 11 206 497 118 217 342 537 404 43 213 513 130 
180 8 195 146 498 190 235 64 49 177 
181 11 240 51 456 317 337 319 421 524 111 382 162 
182 10 267 376 156 468 17 306 3 417 419 395 
183 9 501 357 54 272 365 466 173 100 200 
184 11 324 403 448 339 360 78 488 478 163 475 534 
185 11 74 430 282 492 102 58 389 221 320 491 224 
186 11 2 480 396 187 330 329 142 210 241 106 434 
187 11 2 330 142 106 210 186 359 396 480 329 125 
188 11 115 217 404 513 398 328 497 342 241 432 247 
189 10 482 402 23 233 346 435 350 44 192 45 
190 8 266 177 141 437 114 326 195 180 
191 11 542 25 32 375 176 121 79 467 348 116 168 
192 11 44 507 154 45 109 490 233 189 442 219 161 
193 11 8 491 389 135 221 222 291 105 294 224 505 
194 11 259 511 21 447 208 435 172 379 346 233 281 
195 6 146 180 498 235 190 64 
196 11 13 406 211 489 538 53 466 333 132 97 479 
197 11 148 462 7 312 66 509 12 145 433 427 428 
198 11 107 388 380 50 152 279 537 367 405 150 59 
199 11 512 94 521 239 394 144 4 343 120 76 19 
200 11 173 29 547 414 232 54 175 357 365 303 253 
201 10 470 468 73 306 3 244 476 30 92 400 
202 11 505 105 294 220 221 17 8 400 193 492 476 
203 10 528 318 533 251 315 377 114 441 90 190 
204 11 219 420 134 113 9 281 10 271 154 286 215 
205 11 515 36 370 83 345 425 399 446 246 452 69 
206 11 118 213 545 179 541 50 493 537 130 93 471 
207 11 347 287 341 280 331 57 63 297 171 77 86 
208 11 435 379 23 21 346 194 354 233 350 447 189 
209 8 374 289 469 490 161 109 402 45 
210 10 142 330 106 359 187 396 2 125 186 387 
211 10 13 196 406 538 489 466 53 132 333 501 
212 11 495 86 386 314 335 56 426 280 160 62 424 
213 11 118 206 545 541 493 179 50 471 130 351 537 
214 11 443 516 397 484 108 122 16 89 40 310 368 
215 11 10 286 271 525 103 472 418 134 281 420 204 
216 10 33 387 126 371 263 422 125 237 458 112 
217 11 497 513 404 188 241 342 434 179 115 43 157 
218 6 165 124 523 514 549 26 
219 11 204 154 442 281 9 192 44 507 233 10 346 
220 11 202 17 505 294 105 221 3 476 306 400 236 
221 11 105 505 202 492 294 8 193 389 491 220 185 
222 7 268 135 291 87 193 491 8 
223 11 252 59 152 405 451 309 520 129 107 529 380 
224 11 87 58 491 389 430 282 193 222 8 268 185 
225 11 496 42 171 85 429 63 265 341 421 287 319 
226 10 415 123 261 270 477 447 511 284 277 21 
227 6 457 514 277 14 261 284 
228 11 276 43 247 342 404 129 529 432 520 115 252 
229 11 72 112 458 413 257 444 422 310 9 263 126 
230 10 248 238 393 508 292 159 62 464 543 82 
231 11 438 22 27 283 499 526 410 489 344 479 365 
232 11 29 258 175 253 338 369 200 504 336 303 547 
233 11 346 435 442 189 482 23 208 281 192 402 44 
234 9 14 327 140 305 455 459 532 514 457 
235 6 498 146 195 180 190 64 
236 8 308 291 135 292 548 294 105 8 
237 10 371 387 216 33 422 125 126 263 161 458 
238 10 230 248 292 508 393 308 159 62 548 464 
239 11 521 144 199 174 512 4 473 256 94 120 343 
240 11 181 51 317 456 319 421 382 524 337 162 325 
241 11 434 513 329 157 217 130 497 186 93 396 480 
242 11 409 382 460 325 486 139 61 317 98 240 450 
243 11 391 332 288 155 67 536 95 535 494 321 540 
244 11 92 470 201 30 73 468 133 306 539 453 3 
245 11 71 531 38 49 526 499 5 65 283 344 81 
246 11 351 83 370 541 69 545 205 260 446 36 515 
247 11 432 276 228 127 115 416 529 129 398 28 328 
248 11 230 238 393 508 159 292 62 543 464 82 110 
249 11 534 478 61 68 139 285 448 486 524 382 360 
250 8 100 302 477 123 272 270 532 305 
251 10 315 203 318 533 528 377 90 441 114 190 
252 11 309 223 520 129 405 529 152 228 276 43 59 
253 7 338 175 303 29 232 369 258 
254 7 446 493 322 425 83 471 370 
255 11 172 96 472 518 439 408 418 170 259 101 301 
256 11 473 144 174 80 4 440 239 147 521 296 143 
257 11 458 72 9 229 507 154 422 413 112 44 192 
258 10 232 369 504 29 175 336 338 253 20 200 
259 11 194 511 172 447 21 255 472 435 281 208 215 
260 11 149 150 279 351 367 373 246 388 143 69 454 
261 10 415 277 284 447 226 511 21 227 123 379 
262 11 128 390 358 445 453 52 133 539 104 92 138 
263 11 126 33 216 422 387 125 112 371 237 458 229 
264 11 104 30 539 453 273 445 358 392 390 73 92 
265 10 353 483 42 162 385 225 496 319 317 98 
266 10 141 437 177 326 166 304 153 114 190 441 
267 10 182 376 156 468 306 417 419 3 395 17 
268 4 222 87 135 291 
269 11 39 412 352 502 70 407 431 136 546 463 169 
270 10 123 477 305 226 250 302 100 532 14 415 
271 11 286 525 103 134 10 420 215 418 340 472 204 
272 8 501 250 183 510 100 302 477 301 
273 11 392 383 264 30 24 31 37 104 73 400 476 
274 11 117 506 20 48 41 15 504 450 460 336 47 
275 11 540 116 321 467 536 95 155 79 288 375 32 
276 11 228 247 43 342 404 129 529 432 115 520 252 
277 9 284 261 415 227 447 226 21 511 379 
278 11 143 440 517 373 35 378 149 473 4 454 150 
279 11 150 367 388 373 260 149 198 143 107 380 50 
280 11 297 86 347 57 207 212 417 495 341 386 331 
281 11 442 215 219 10 233 346 204 259 435 286 194 
282 11 430 58 185 224 389 102 491 492 74 221 193 
283 11 499 526 71 27 410 38 245 344 531 231 438 
284 9 277 261 415 447 21 511 226 379 227 
285 11 68 524 249 84 534 478 131 481 61 34 337 
286 11 271 525 10 103 215 134 420 418 472 340 281 
287 11 207 341 347 331 171 77 496 307 550 85 63 
288 11 95 155 332 391 243 536 535 321 67 494 540 
289 7 374 209 469 490 161 109 45 
290 6 362 423 76 464 82 19 
291 6 135 236 222 8 193 308 
292 9 308 548 238 508 230 464 236 248 82 
293 7 411 522 313 503 356 101 408 
294 11 105 202 505 220 221 17 8 193 236 291 135 
295 11 6 431 323 53 333 132 352 169 39 412 269 
296 11 147 80 167 174 256 144 373 473 239 367 440 
297 11 57 280 417 156 347 207 86 341 395 376 63 
298 11 119 366 494 535 178 136 25 375 32 546 321 
299 11 137 355 364 479 22 344 97 65 64 410 49 
300 11 428 12 145 18 361 378 110 543 91 517 197 
301 8 510 518 170 311 101 96 436 255 
302 11 100 532 250 305 270 123 414 547 327 477 272 
303 8 414 253 547 338 175 327 29 140 
304 11 166 153 437 141 266 177 326 488 114 78 163 
305 11 532 302 270 327 123 14 100 234 250 477 414 
306 10 3 468 201 476 73 470 244 400 30 267 
307 9 550 46 77 474 55 461 287 331 385 
308 8 236 292 548 291 238 135 17 230 
309 11 520 129 252 529 223 228 276 405 247 43 152 
310 11 413 444 108 397 122 72 9 229 516 214 484 
311 8 436 151 356 101 170 301 510 518 
312 11 433 462 148 197 69 399 454 36 66 509 7 
313 9 503 522 293 340 411 408 439 418 103 
314 11 160 495 426 56 212 62 424 386 86 449 335 
315 10 251 533 377 203 318 528 90 441 114 190 
316 10 381 99 419 395 487 63 156 429 85 376 
317 11 162 319 240 483 456 181 421 325 382 409 51 
318 9 528 203 251 533 315 377 441 114 90 
319 11 421 456 162 317 240 181 483 51 429 42 265 
320 11 74 24 37 31 383 492 392 185 273 102 400 
321 11 95 540 535 275 288 155 375 467 116 32 536 
322 6 401 425 254 345 75 209 
323 11 6 295 53 431 333 132 352 39 169 538 412 
324 11 184 403 339 448 360 488 78 163 475 478 153 
325 11 409 242 382 460 317 486 98 240 483 162 450 
326 11 177 266 141 437 166 153 304 190 47 114 488 
327 9 234 532 305 140 303 14 414 547 302 
328 11 398 115 416 432 188 127 28 247 404 88 276 
329 11 157 434 241 130 93 396 186 513 2 480 217 
330 10 142 210 106 187 359 2 396 186 125 480 
331 11 77 347 474 287 207 372 335 46 55 386 307 
332 11 391 243 288 67 155 95 535 494 536 321 178 
333 10 132 53 538 6 295 323 151 431 169 311 
334 11 34 384 131 111 84 138 337 481 52 51 128 
335 11 386 56 212 465 372 426 86 495 331 314 449 
336 8 369 504 258 338 41 253 175 232 
337 11 111 384 51 34 334 181 131 84 524 456 240 
338 8 253 175 303 232 369 29 258 336 
339 11 360 78 324 475 184 488 448 15 403 139 153 
340 10 121 313 176 348 103 503 522 525 191 271 
341 11 207 63 287 171 85 347 496 57 225 417 395 
342 11 43 404 497 228 276 217 179 115 188 513 247 
343 11 120 19 94 199 512 239 521 394 76 423 174 
344 11 410 364 65 526 531 499 22 49 355 71 245 
345 10 425 401 515 205 446 370 83 75 322 158 
346 11 233 435 442 189 482 23 208 281 402 192 44 
347 11 207 287 331 280 341 86 77 297 57 212 386 
348 10 121 176 340 191 25 463 546 32 542 375 
349 8 500 527 471 93 130 289 237 371 
350 10 354 23 379 482 189 402 75 208 435 346 
351 11 246 541 260 83 370 545 149 69 150 205 446 
352 11 412 39 502 269 431 70 169 407 546 463 295 
353 10 265 385 483 162 42 98 164 317 496 225 
354 10 350 379 23 208 21 75 435 482 189 402 
355 11 299 137 364 344 65 22 64 410 49 479 97 
356 8 436 411 151 101 293 170 311 522 
357 11 54 365 173 466 183 501 200 489 272 547 27 
358 11 453 539 445 390 262 104 264 133 92 30 128 
359 10 106 142 210 330 187 125 2 396 387 33 
360 11 339 475 78 324 448 184 15 139 488 48 486 
361 11 18 543 91 110 300 428 393 12 363 145 160 
362 4 290 423 19 76 
363 11 530 91 159 394 543 76 82 361 393 512 35 
364 11 65 49 64 344 355 531 410 245 299 71 137 
365 11 54 357 173 466 183 489 200 501 27 231 29 
366 11 178 494 298 119 136 535 67 407 70 546 332 
367 11 279 373 150 388 143 149 198 260 80 107 440 
368 11 40 113 16 168 484 516 420 122 443 134 89 
369 9 336 504 258 232 338 175 253 29 20 
370 11 83 446 205 246 515 425 345 351 36 254 493 
371 10 237 387 33 216 422 125 126 263 359 458 
372 11 26 55 474 77 335 465 331 46 386 124 56 
373 11 143 367 150 279 440 278 149 80 260 256 388 
374 8 289 209 469 490 161 109 45 402 
375 11 32 25 191 542 79 467 176 321 116 121 298 
376 10 156 267 419 182 395 417 57 468 470 316 
377 10 533 441 90 114 315 203 251 528 318 190 
378 11 517 145 12 454 300 35 278 428 462 197 312 
379 11 208 354 23 21 350 435 447 284 194 346 511 
380 11 107 198 388 537 50 152 405 279 367 59 150 
381 11 99 316 487 429 419 85 52 395 63 133 421 
382 11 242 325 409 486 460 139 61 240 317 181 534 
383 11 37 31 273 392 400 24 320 476 73 30 264 
384 11 111 334 34 337 131 84 51 138 481 524 181 
385 7 353 265 164 550 307 483 42 
386 11 335 212 56 495 86 314 426 465 449 331 372 
387 10 216 33 371 125 237 126 422 263 359 106 
388 11 198 107 380 279 50 367 150 537 152 260 373 
389 11 491 193 8 224 430 58 221 282 185 492 222 
390 11 445 262 358 453 104 539 128 264 133 52 30 
391 11 243 332 288 155 67 95 536 535 494 321 540 
392 11 273 24 383 264 37 31 104 30 320 400 73 
393 11 543 248 159 110 230 62 91 18 361 508 238 
394 11 76 530 94 512 199 363 423 82 521 19 159 
395 10 419 156 417 376 63 316 57 85 267 341 
396 11 186 2 329 330 210 142 187 480 106 157 434 
397 11 122 108 516 214 484 443 310 16 413 444 368 
398 11 328 115 416 432 188 127 247 28 404 88 276 
399 11 452 36 433 312 148 462 509 66 205 515 519 
400 11 476 31 37 383 73 3 306 273 201 30 505 
401 7 322 75 425 345 254 446 350 
402 10 482 189 23 209 350 45 374 490 109 233 
403 11 184 324 448 339 163 488 360 78 478 249 534 
404 11 342 497 217 188 43 115 228 276 513 179 247 
405 11 152 380 537 107 223 252 198 59 43 50 388 
406 11 196 13 211 53 538 489 333 132 323 6 466 
407 11 70 136 502 269 412 39 546 178 366 119 352 
408 11 439 96 170 101 418 518 503 522 472 255 313 
409 11 325 242 382 460 486 98 317 139 450 240 483 
410 11 344 526 499 22 283 65 364 71 531 438 245 
411 8 293 356 522 151 313 436 503 101 
412 11 39 352 269 502 70 407 431 546 463 169 136 
413 11 444 310 72 229 108 9 112 458 397 257 122 
414 10 547 303 532 327 200 175 253 29 302 100 
415 11 261 284 226 277 447 511 21 123 227 270 194 
416 11 28 127 432 88 398 328 247 115 188 276 228 
417 10 57 156 297 395 376 419 63 280 341 267 
418 11 472 439 408 503 96 215 255 103 525 313 286 
419 10 395 156 376 316 417 63 57 267 85 381 
420 11 134 271 286 525 103 113 10 204 168 215 368 
421 11 456 319 429 317 162 181 240 51 42 483 337 
422 11 33 216 237 458 371 387 263 126 229 112 257 
423 9 290 76 362 394 19 82 464 94 530 
424 11 426 449 56 427 160 314 60 428 465 7 386 
425 10 345 401 446 515 205 322 370 83 75 254 
426 11 56 424 449 314 160 427 465 386 335 60 212 
427 11 424 449 7 60 426 11 428 56 197 66 12 
428 11 300 12 145 18 361 427 110 424 7 160 197 
429 11 225 421 381 42 85 456 99 319 496 171 316 
430 11 282 58 185 389 224 491 102 492 74 193 221 
431 11 295 352 6 323 39 412 169 269 502 53 333 
432 11 247 127 416 28 398 88 328 115 276 228 529 
433 11 312 69 462 148 454 36 399 197 452 509 66 
434 11 241 157 329 130 513 93 217 497 396 186 179 
435 11 208 346 233 23 379 194 21 189 442 482 354 
436 9 311 356 151 101 170 411 518 301 293 
437 11 141 266 177 326 166 304 153 114 190 441 488 
438 11 231 22 410 499 526 479 283 344 97 27 489 
439 11 408 96 418 170 101 518 503 472 255 522 313 
440 11 143 278 473 256 373 4 35 144 80 517 367 
441 11 90 377 114 533 315 163 203 304 437 141 251 
442 11 281 233 346 219 435 192 154 44 189 482 204 
443 11 214 516 484 16 397 89 122 108 40 368 113 
444 11 413 310 72 229 108 112 397 458 9 122 257 
445 11 390 358 453 539 104 262 264 30 128 133 92 
446 10 83 370 254 425 493 345 205 515 246 322 
447 11 511 21 415 284 194 261 277 226 259 208 379 
448 11 184 478 324 403 360 339 534 249 139 61 68 
449 11 426 424 56 427 60 465 11 314 160 335 386 
450 10 41 98 460 117 409 325 483 242 274 164 
451 11 59 167 223 152 405 252 107 296 198 380 309 
452 11 399 519 509 485 66 36 148 312 462 433 515 
453 11 539 358 445 104 264 390 30 262 92 133 244 
454 11 69 433 312 378 517 462 145 148 197 149 36 
455 7 459 514 549 457 140 234 14 
456 11 421 319 181 51 240 317 162 429 337 111 483 
457 5 514 227 455 14 234 
458 11 257 229 72 422 112 413 9 444 33 216 263 
459 7 455 140 549 461 514 234 14 
460 11 242 409 325 382 486 48 117 139 450 98 41 
461 6 459 549 307 550 164 46 
462 11 148 197 312 433 7 66 509 399 454 145 69 
463 9 546 136 502 70 348 119 407 412 169 
464 8 82 508 548 159 292 76 423 290 
465 11 26 449 60 56 335 426 372 386 424 11 427 
466 11 365 357 54 489 183 173 501 231 200 211 27 
467 11 116 79 542 32 375 191 275 321 540 25 168 
468 10 470 201 306 3 244 73 476 92 267 182 
469 8 374 289 209 490 161 109 45 402 
470 10 468 201 244 92 306 3 73 30 476 133 
471 10 527 93 130 493 500 349 157 254 213 118 
472 11 418 255 96 439 172 408 215 10 286 525 503 
473 11 4 144 256 440 521 239 174 35 143 278 80 
474 11 55 46 77 372 331 307 550 287 26 335 549 
475 11 15 360 48 339 78 506 139 486 488 324 460 
476 11 400 3 73 306 201 31 468 30 470 383 37 
477 10 123 270 250 226 302 305 100 532 272 415 
478 11 249 534 448 61 68 139 486 285 184 360 324 
479 11 97 22 299 438 355 137 231 410 344 364 526 
480 11 186 2 187 396 241 329 330 142 434 513 210 
481 11 84 131 34 334 138 384 111 285 337 524 68 
482 10 189 402 23 233 346 350 435 44 192 208 
483 11 162 265 353 317 98 319 42 325 421 385 456 
484 11 516 16 122 443 397 214 368 40 113 108 89 
485 10 523 519 452 158 509 66 544 399 11 165 
486 11 139 61 382 242 460 409 534 325 249 478 360 
487 11 99 381 133 316 52 92 419 128 244 262 470 
488 11 78 153 304 166 163 339 324 360 184 437 141 
489 11 466 365 231 54 357 438 211 173 13 183 196 
490 11 109 161 45 469 209 374 289 44 507 192 402 
491 11 389 193 8 224 222 221 58 87 430 135 282 
492 11 74 221 185 320 37 31 505 389 202 105 400 
493 10 254 471 213 446 118 541 527 545 206 83 
494 11 535 366 298 178 67 119 288 332 95 136 321 
495 11 212 86 314 386 62 56 335 160 280 426 424 
496 11 225 171 42 85 341 63 287 429 265 353 207 
497 11 217 404 513 342 179 188 241 43 434 115 157 
498 6 146 235 195 180 190 64 
499 11 526 283 410 71 344 245 27 531 38 22 438 
500 6 349 527 471 254 93 289 
501 8 183 272 357 54 466 365 173 100 
502 11 412 352 39 70 269 407 546 463 136 169 431 
503 10 313 522 293 408 439 418 340 411 101 356 
504 10 369 336 258 20 232 175 338 41 253 274 
505 11 202 105 294 220 221 17 8 400 492 193 476 
506 11 48 117 274 15 475 20 47 460 41 78 242 
507 11 44 192 154 45 109 257 490 161 9 219 458 
508 10 464 82 159 248 230 292 548 238 393 530 
509 11 66 519 7 11 148 197 452 462 399 60 312 
510 7 301 311 272 518 436 170 101 
511 11 447 194 21 259 415 261 226 284 208 172 277 
512 11 199 94 521 394 239 144 76 4 530 343 19 
513 11 217 241 497 434 188 404 157 329 179 115 130 
514 6 457 455 227 459 549 14 
515 11 205 36 345 370 83 425 399 452 446 246 69 
516 11 443 484 214 397 16 122 108 89 40 368 113 
517 11 378 278 145 35 454 12 300 440 143 149 428 
518 11 170 96 101 301 439 408 255 436 311 172 356 
519 11 509 66 452 485 11 523 399 7 60 148 197 
520 11 129 309 529 252 228 276 247 223 43 432 405 
521 11 239 199 144 512 4 473 94 174 256 394 35 
522 8 503 313 293 411 408 439 356 101 
523 10 485 519 165 124 11 218 509 452 66 158 
524 11 51 68 181 285 337 240 111 84 61 131 249 
525 11 103 271 286 10 134 215 420 418 340 472 503 
526 11 499 283 410 71 344 245 531 38 22 27 438 
527 9 471 500 349 93 130 493 157 254 329 
528 9 318 203 533 251 315 377 114 441 190 
529 11 129 520 309 276 228 247 252 432 127 43 223 
530 11 363 394 76 82 159 91 512 464 508 94 199 
531 11 245 71 49 65 344 38 364 526 410 499 64 
532 10 302 305 100 327 414 547 250 270 303 234 
533 10 377 203 315 251 528 318 441 90 114 190 
534 11 249 478 61 68 139 486 448 285 524 382 360 
535 11 494 298 95 321 288 366 119 332 67 178 155 
536 11 155 95 288 540 391 243 321 275 332 535 67 
537 11 50 380 405 107 198 388 152 179 206 43 118 
538 9 132 333 53 211 151 311 6 13 436 
539 11 453 358 445 104 264 390 30 262 92 244 133 
540 11 275 321 95 116 536 155 467 288 79 535 375 
541 11 545 213 118 351 246 206 493 50 83 370 260 
542 11 191 79 32 375 25 467 176 121 116 168 348 
543 11 91 361 18 110 393 159 363 300 62 248 428 
544 7 158 75 485 354 523 350 379 
545 11 541 213 118 206 50 351 246 493 537 179 260 
546 11 463 136 70 502 119 407 412 348 298 352 366 
547 10 414 303 200 532 29 175 100 302 327 253 
548 6 292 464 308 508 236 82 
549 6 455 459 514 461 55 218 
550 9 307 46 77 474 55 461 287 331 385 
DEPOT_SECTION
   1
   -1
EOF
