NAME :  X-n524-kX-w209-c11.cctp
COMMENT : 	Adapted by Maziero, Usberti and Cavellucci from the Uchoa, Pecin, Pessoa, Poggi, Subramanian, and Vidal (2013)
TYPE :  CCTP
DIMENSION :    520
EDGE_WEIGHT_TYPE : 	EUC_2D	
CAPACITY : 	125
VERTICES_WITHIN_COVERAGE :  11
VERTICES_WITH_DEMAND : 	209
NODE_COORD_SECTION
1 691 729
2 978 828
3 427 367
4 777 543
5 190 596
6 773 750
7 234 727
8 851 358
9 140 69
10 891 285
11 467 13
12 537 162
13 636 355
14 213 284
15 75 877
16 384 814
17 606 173
18 76 236
19 86 733
20 642 61
21 303 261
22 771 775
23 107 264
24 763 43
25 811 873
26 38 170
27 822 920
28 907 792
29 539 273
30 576 836
31 491 411
32 430 725
33 727 248
34 532 825
35 457 218
36 398 153
37 942 597
38 8 330
39 637 85
40 75 781
41 578 635
42 560 188
43 27 523
44 432 198
45 359 691
46 695 372
47 203 307
48 641 389
49 836 612
50 375 499
51 818 980
52 577 226
53 889 259
54 516 324
55 102 346
56 318 976
57 223 11
58 484 245
59 365 982
60 648 790
61 878 261
62 600 800
63 493 722
64 549 214
65 714 918
66 638 166
67 452 172
68 711 687
69 924 905
70 326 662
71 786 203
72 24 32
73 529 661
74 843 248
75 115 449
76 82 971
77 876 644
78 322 24
79 642 810
80 685 607
81 141 824
82 351 732
83 641 954
84 330 941
85 830 188
86 469 250
87 970 812
88 723 360
89 274 238
90 668 103
91 562 82
92 269 147
93 135 493
94 895 953
95 930 729
96 579 972
97 901 987
98 546 102
99 664 479
100 967 393
101 388 767
102 977 995
103 933 329
104 947 364
105 242 400
106 991 716
107 983 38
108 738 728
109 436 466
110 346 490
111 639 634
112 765 715
113 772 60
114 254 183
115 804 906
116 150 451
117 378 297
118 881 802
119 959 912
120 225 450
121 213 802
122 842 994
123 662 474
124 20 116
125 562 217
126 709 544
127 50 682
128 771 244
129 538 704
130 506 883
131 341 389
132 414 522
133 583 435
134 210 579
135 326 715
136 92 24
137 969 100
138 252 841
139 879 544
140 648 720
141 291 405
142 14 19
143 446 28
144 130 966
145 978 572
146 333 105
147 558 84
148 288 10
149 783 837
150 1000 230
151 319 895
152 76 494
153 289 952
154 254 165
155 915 405
156 151 945
157 407 685
158 294 824
159 106 831
160 373 284
161 875 321
162 768 758
163 735 150
164 304 323
165 760 158
166 277 663
167 217 608
168 712 264
169 958 12
170 879 873
171 52 214
172 63 197
173 690 714
174 579 862
175 313 245
176 32 608
177 9 608
178 840 747
179 152 742
180 994 868
181 294 57
182 76 784
183 302 11
184 527 742
185 753 939
186 156 870
187 571 127
188 913 884
189 922 146
190 900 41
191 346 427
192 637 341
193 162 87
194 581 979
195 93 14
196 888 48
197 168 188
198 427 499
199 856 260
200 54 332
201 459 387
202 118 61
203 754 299
204 233 411
205 883 640
206 288 268
207 489 533
208 720 892
209 115 418
210 22 358
211 839 126
212 516 272
213 162 208
214 361 714
215 157 512
216 855 12
217 798 356
218 882 889
219 554 183
220 354 851
221 21 719
222 812 664
223 650 254
224 196 793
225 668 231
226 412 946
227 57 773
228 911 335
229 490 922
230 371 480
231 723 473
232 223 658
233 234 50
234 408 609
235 118 434
236 393 488
237 225 141
238 444 66
239 547 252
240 132 189
241 865 488
242 106 475
243 636 540
244 104 269
245 135 647
246 222 849
247 844 424
248 428 875
249 94 941
250 325 93
251 957 47
252 172 293
253 381 958
254 148 504
255 588 69
256 863 453
257 709 51
258 129 266
259 679 164
260 977 422
261 372 843
262 912 957
263 1000 521
264 442 912
265 743 716
266 838 43
267 649 346
268 144 771
269 771 321
270 454 383
271 553 361
272 419 490
273 482 77
274 13 726
275 967 302
276 556 701
277 484 665
278 969 209
279 972 422
280 297 676
281 461 532
282 476 864
283 978 988
284 340 827
285 675 391
286 895 110
287 225 785
288 832 207
289 465 723
290 289 259
291 281 611
292 875 10
293 752 271
294 926 12
295 539 782
296 25 72
297 530 546
298 772 963
299 724 627
300 791 367
301 375 323
302 0 91
303 385 995
304 132 510
305 941 144
306 488 274
307 403 745
308 965 258
309 456 817
310 313 773
311 486 256
312 657 8
313 231 914
314 256 745
315 668 922
316 528 298
317 153 272
318 303 733
319 814 649
320 352 306
321 187 498
322 141 175
323 115 362
324 857 350
325 878 459
326 663 898
327 592 503
328 222 391
329 846 792
330 461 617
331 290 396
332 333 441
333 292 402
334 522 501
335 489 939
336 781 370
337 197 119
338 582 192
339 299 353
340 506 792
341 638 178
342 755 124
343 654 335
344 917 986
345 277 98
346 986 960
347 66 850
348 623 623
349 602 913
350 674 0
351 125 625
352 937 264
353 430 671
354 171 691
355 1 656
356 374 862
357 407 938
358 284 116
359 939 702
360 155 256
361 504 293
362 770 501
363 764 790
364 702 683
365 525 835
366 839 711
367 379 711
368 140 264
369 597 673
370 657 752
371 265 523
372 798 514
373 679 437
374 843 272
375 981 47
376 708 837
377 55 768
378 965 58
379 664 373
380 103 28
381 841 826
382 47 539
383 530 354
384 924 776
385 477 784
386 69 282
387 371 110
388 309 154
389 234 333
390 460 499
391 61 527
392 104 132
393 711 178
394 602 538
395 47 755
396 357 66
397 332 541
398 332 390
399 860 711
400 817 206
401 853 658
402 440 187
403 603 576
404 438 190
405 857 282
406 169 702
407 461 299
408 878 549
409 252 181
410 714 846
411 196 92
412 995 201
413 780 638
414 724 171
415 650 937
416 353 961
417 505 953
418 801 374
419 239 74
420 718 26
421 325 941
422 0 789
423 461 518
424 559 493
425 461 432
426 330 888
427 391 542
428 548 841
429 965 772
430 252 790
431 181 188
432 61 446
433 215 324
434 181 749
435 562 764
436 678 70
437 422 965
438 985 664
439 344 341
440 678 370
441 118 587
442 483 572
443 913 258
444 548 391
445 669 600
446 951 149
447 735 621
448 474 67
449 765 428
450 615 218
451 854 798
452 850 728
453 928 10
454 154 235
455 390 924
456 768 589
457 4 303
458 204 802
459 43 400
460 525 257
461 673 778
462 850 158
463 593 392
464 123 233
465 935 921
466 130 687
467 394 334
468 765 405
469 625 734
470 540 408
471 881 423
472 358 553
473 903 236
474 524 486
475 64 121
476 11 847
477 758 962
478 981 723
479 36 659
480 539 348
481 506 458
482 762 62
483 465 529
484 956 508
485 294 792
486 173 89
487 96 995
488 982 670
489 593 42
490 473 529
491 256 579
492 538 566
493 706 808
494 373 748
495 346 575
496 252 819
497 260 698
498 538 250
499 348 539
500 952 444
501 716 841
502 84 185
503 320 795
504 168 346
505 857 379
506 84 839
507 901 930
508 637 820
509 297 973
510 61 140
511 804 298
512 795 51
513 979 294
514 492 157
515 324 520
516 285 618
517 672 535
518 306 601
519 832 980
520 450 987
DEMAND_SECTION
2 95
3 66
4 66
5 50
6 55
7 91
8 100
9 73
10 96
11 85
12 82
13 72
14 77
15 62
16 86
17 100
18 63
19 94
20 97
21 78
22 94
23 83
24 90
25 71
26 59
27 88
28 50
29 65
30 75
31 50
32 56
33 90
34 56
35 71
36 95
37 93
38 97
39 79
40 94
41 69
42 90
43 63
44 93
45 82
46 53
47 92
48 70
49 88
50 57
51 93
52 69
53 66
54 98
55 75
56 69
57 87
58 69
59 55
60 64
61 92
62 96
63 80
64 85
65 66
66 99
67 54
68 77
69 67
70 77
71 66
72 74
73 93
74 81
75 60
76 73
77 64
78 84
79 60
80 57
81 95
82 63
83 51
84 77
85 67
86 70
87 98
88 66
89 60
90 56
91 72
92 77
93 71
94 51
95 79
96 97
97 93
98 84
99 79
100 75
101 86
102 58
103 65
104 54
105 57
106 81
107 88
108 85
109 82
110 82
111 81
112 59
113 81
114 94
115 82
116 81
117 94
118 75
119 63
120 95
121 54
122 85
123 52
124 53
125 67
126 56
127 61
128 53
129 80
130 76
131 56
132 52
133 61
134 53
135 87
136 95
137 73
138 52
139 60
140 91
141 98
142 58
143 65
144 88
145 60
146 62
147 97
148 96
149 59
150 76
151 83
152 64
153 83
154 65
155 57
156 55
157 93
158 71
159 89
160 69
161 93
162 86
163 99
164 70
165 56
166 75
167 95
168 60
169 54
170 57
171 89
172 53
173 73
174 78
175 76
176 55
177 96
178 80
179 58
180 83
181 75
182 84
183 69
184 90
185 57
186 61
187 100
188 95
189 59
190 60
191 74
192 55
193 92
194 76
195 70
196 92
197 85
198 85
199 51
200 61
201 63
202 59
203 86
204 86
205 71
206 50
207 6
208 6
209 10
210 2
COVERAGE_SECTION
2 11 87 180 429 384 28 119 188 69 118 465 478 
3 11 270 201 467 301 425 407 31 117 439 131 320 
4 10 372 362 456 126 231 447 49 413 299 408 
5 11 134 167 491 232 351 441 245 215 291 354 321 
6 11 162 22 112 108 363 265 178 366 452 329 68 
7 11 314 497 434 287 430 318 232 406 354 224 166 
8 11 324 505 161 418 217 300 228 247 336 471 405 
9 11 202 193 486 380 411 136 195 392 337 475 233 
10 11 53 61 405 443 161 199 374 473 352 228 74 
11 11 143 448 238 273 147 91 98 396 489 255 387 
12 11 219 42 514 187 64 338 125 98 17 52 147 
13 11 192 267 343 379 48 440 285 463 46 271 88 
14 11 47 433 252 389 317 360 89 368 206 454 504 
15 11 347 506 159 249 476 186 81 182 76 40 156 
16 11 261 284 101 220 356 494 503 307 309 248 310 
17 11 338 341 66 450 42 219 187 52 125 12 64 
18 11 171 172 23 244 386 464 502 258 368 240 26 
19 11 395 377 40 227 182 127 466 221 179 268 274 
20 11 39 436 90 489 255 312 257 350 91 420 147 
21 11 290 206 175 89 164 320 160 117 439 114 339 
22 11 162 363 6 108 112 149 265 493 178 329 451 
23 11 244 258 368 464 18 386 317 360 454 252 171 
24 11 113 482 512 420 257 266 342 436 216 350 163 
25 11 115 149 27 381 170 218 451 185 329 208 363 
26 11 172 510 171 502 475 124 18 392 302 240 296 
27 11 115 25 51 519 298 218 185 170 122 477 94 
28 11 384 118 451 329 429 87 95 381 2 178 170 
29 11 460 239 212 498 316 361 306 54 311 52 64 
30 11 174 428 62 34 365 508 295 79 435 349 340 
31 11 425 201 270 470 481 444 383 3 109 480 271 
32 11 307 289 157 367 353 101 494 63 214 385 45 
33 11 168 293 128 203 225 393 71 223 414 269 511 
34 11 365 428 340 295 30 174 130 282 435 385 62 
35 11 44 86 404 402 58 67 311 306 514 460 212 
36 11 387 402 404 44 67 146 35 388 250 514 396 
37 11 145 205 408 438 77 139 488 484 263 359 49 
38 11 457 210 200 386 459 55 323 244 18 23 171 
39 11 20 90 436 255 489 91 187 147 257 312 66 
40 11 182 227 377 395 19 159 506 268 347 422 81 
41 11 369 348 73 111 403 276 129 492 445 277 394 
42 11 219 338 64 125 12 52 17 187 450 239 498 
43 11 382 391 152 432 176 177 242 304 441 93 75 
44 11 404 402 35 67 36 86 58 514 311 306 160 
45 11 214 367 135 82 70 157 494 280 307 318 353 
46 11 440 285 88 379 267 343 48 13 192 373 468 
47 11 433 14 252 389 504 317 360 368 258 328 454 
48 11 379 13 285 440 267 192 463 343 46 373 133 
49 11 319 401 77 205 222 413 456 408 139 4 366 
50 11 230 236 110 132 272 427 499 198 515 472 397 
51 11 519 122 298 27 477 115 185 94 97 262 507 
52 11 125 64 338 450 239 42 498 219 17 29 460 
53 11 61 443 10 473 199 405 74 352 374 161 308 
54 11 316 361 383 480 212 271 29 306 407 460 311 
55 11 323 200 504 386 209 244 459 210 23 258 252 
56 11 509 421 84 153 416 59 253 303 151 426 455 
57 11 233 148 419 183 181 411 486 193 78 9 345 
58 11 311 86 306 35 212 460 361 498 407 29 239 
59 11 303 416 253 56 84 421 226 437 357 455 509 
60 11 79 461 508 370 62 469 493 140 376 30 501 
61 11 53 199 10 405 443 473 74 374 352 161 288 
62 11 508 30 79 60 435 295 174 428 469 34 370 
63 11 289 184 129 277 32 385 276 73 340 295 353 
64 11 125 42 52 219 239 498 338 460 12 29 450 
65 11 208 185 315 326 477 415 410 298 501 83 376 
66 11 341 17 259 450 338 90 225 393 187 39 42 
67 11 402 404 44 514 35 36 58 86 12 311 273 
68 11 364 173 265 108 112 299 447 140 80 370 413 
69 11 465 188 507 119 218 262 170 94 180 344 346 
70 11 280 45 166 135 516 214 518 291 367 82 318 
71 11 400 128 85 288 165 414 74 33 163 293 462 
72 11 142 296 302 136 195 380 124 202 475 510 9 
73 11 129 277 276 41 369 63 184 330 289 492 353 
74 11 199 374 61 405 288 53 400 10 85 473 511 
75 11 235 242 209 116 93 432 152 304 254 215 321 
76 11 487 249 144 156 15 347 186 506 159 476 81 
77 11 205 401 49 319 222 399 366 37 359 452 408 
78 11 183 148 181 396 250 146 345 233 419 387 57 
79 11 508 60 62 461 370 493 30 376 469 410 501 
80 11 445 299 447 111 348 126 517 364 243 68 456 
81 11 159 186 268 506 224 458 121 182 40 347 179 
82 11 214 494 135 367 45 318 101 307 310 503 157 
83 11 415 315 349 326 96 194 65 208 174 185 477 
84 11 421 416 56 153 509 151 426 59 253 455 303 
85 11 288 400 462 71 74 211 165 199 128 374 61 
86 11 58 311 306 35 407 212 361 460 44 404 402 
87 11 2 429 384 180 28 118 478 95 188 106 119 
88 11 46 440 285 336 379 269 468 203 300 343 217 
89 11 290 206 21 175 114 409 14 154 164 92 388 
90 11 436 39 20 259 257 66 341 163 393 255 414 
91 11 147 98 255 187 489 39 273 20 12 448 17 
92 11 154 358 409 114 388 237 345 146 337 250 419 
93 11 254 304 215 242 116 75 321 152 235 209 391 
94 11 262 507 97 344 465 69 218 122 519 188 119 
95 11 359 384 478 429 106 28 399 488 452 438 118 
96 11 194 349 83 417 415 335 229 315 174 326 130 
97 11 344 262 94 507 122 519 465 102 283 51 69 
98 11 147 91 187 255 12 273 489 514 448 219 42 
99 10 123 373 517 231 243 327 126 394 285 133 
100 11 279 260 104 155 500 103 228 275 471 513 325 
101 11 494 307 16 82 367 32 214 503 310 284 261 
102 11 283 346 344 262 97 119 465 94 507 69 180 
103 11 228 104 275 513 161 10 352 100 443 155 308 
104 11 100 103 228 155 279 260 275 513 500 161 471 
105 11 204 328 331 141 333 120 389 339 433 398 504 
106 11 478 488 438 359 95 429 384 87 2 28 37 
107 11 375 378 251 169 453 294 137 190 196 292 286 
108 11 265 112 6 162 68 173 22 364 363 461 370 
109 11 272 198 390 425 236 423 132 230 50 483 481 
110 11 230 50 515 236 499 332 397 191 472 427 272 
111 11 348 445 80 369 41 403 364 299 140 68 243 
112 11 265 108 6 162 22 68 222 364 366 173 363 
113 11 482 24 512 257 420 342 266 211 436 216 163 
114 11 409 154 92 237 89 388 358 431 290 175 197 
115 11 27 25 185 298 149 477 51 519 218 170 208 
116 11 75 235 93 209 242 254 321 215 304 120 152 
117 11 160 301 320 467 439 164 21 175 407 3 206 
118 11 451 28 329 381 384 178 170 452 218 95 188 
119 11 465 69 188 346 180 507 262 94 283 218 102 
120 11 204 105 328 321 116 141 333 371 331 215 254 
121 11 458 224 287 430 496 246 138 434 314 81 268 
122 11 519 51 97 94 344 27 298 262 507 477 115 
123 10 99 373 231 517 243 327 126 285 48 133 
124 11 302 296 475 510 26 72 392 172 502 142 171 
125 11 64 52 42 338 219 239 498 450 460 12 29 
126 11 517 80 4 445 231 243 456 362 99 447 123 
127 11 479 221 355 274 19 395 176 466 177 377 227 
128 11 293 33 71 203 400 168 511 288 74 269 374 
129 11 276 184 73 63 435 277 369 289 295 41 469 
130 11 282 229 365 335 428 34 264 417 174 248 309 
131 11 398 191 439 331 333 141 332 339 301 164 467 
132 11 198 427 272 236 50 423 281 390 483 490 109 
133 11 463 470 444 424 327 48 474 271 481 123 334 
134 11 5 167 491 291 371 232 321 215 516 441 254 
135 11 318 82 214 45 280 70 367 494 310 497 166 
136 11 195 380 202 9 72 142 296 193 475 486 392 
137 11 378 305 446 251 375 107 189 286 169 190 196 
138 11 496 246 158 430 121 287 458 485 224 313 503 
139 11 408 241 49 37 325 484 372 256 205 77 4 
140 11 469 370 173 461 364 369 60 68 111 79 108 
141 11 333 331 398 105 131 339 332 204 191 328 120 
142 11 72 296 302 136 195 380 124 202 475 510 9 
143 11 11 238 448 273 396 387 78 98 147 91 36 
144 11 156 249 487 76 186 15 313 347 506 159 81 
145 11 37 263 484 438 488 139 408 205 77 500 359 
146 11 250 387 396 358 388 345 181 92 36 78 154 
147 11 91 98 255 187 489 273 39 12 448 20 514 
148 11 183 78 181 57 233 419 345 396 250 146 358 
149 11 25 363 381 22 501 410 115 376 329 162 451 
150 11 412 278 308 513 352 275 443 446 473 305 53 
151 11 426 421 84 220 153 356 284 261 416 158 455 
152 11 242 391 432 382 43 304 93 75 235 254 215 
153 11 509 56 421 84 151 416 313 426 59 253 303 
154 11 409 114 92 237 388 358 345 337 89 431 197 
155 11 471 104 100 500 279 260 505 325 228 256 247 
156 11 144 249 76 487 186 313 15 246 81 159 506 
157 11 353 367 32 45 214 307 289 494 82 234 277 
158 11 485 503 496 138 284 310 430 220 426 151 246 
159 11 506 81 347 15 182 40 186 268 227 377 395 
160 11 117 320 301 467 439 175 21 164 206 290 407 
161 11 324 10 228 405 8 103 374 61 505 53 199 
162 11 6 22 363 108 112 265 178 149 493 329 366 
163 11 414 165 342 393 259 71 90 482 113 33 66 
164 11 339 439 320 206 21 290 301 389 398 331 131 
165 11 163 342 414 71 393 400 85 259 211 128 288 
166 11 280 497 516 70 291 232 518 135 318 7 167 
167 11 5 134 491 232 291 516 166 518 245 351 354 
168 11 33 293 203 225 128 223 269 393 343 414 71 
169 11 453 294 251 107 375 378 190 196 292 137 216 
170 11 218 188 69 381 507 25 118 27 465 451 94 
171 11 172 18 502 26 386 464 23 510 244 240 258 
172 11 171 502 26 18 510 240 464 475 392 23 322 
173 11 364 68 140 108 370 265 461 469 112 60 6 
174 11 30 428 349 34 365 62 508 130 79 295 326 
175 11 21 290 206 89 160 320 164 117 114 409 388 
176 11 177 479 355 382 127 43 391 441 351 245 221 
177 11 176 355 479 382 127 43 391 441 221 351 274 
178 11 452 366 399 329 451 6 118 162 22 381 28 
179 11 268 434 406 354 466 19 224 458 7 81 287 
180 11 2 119 87 69 465 188 346 429 507 218 170 
181 11 78 345 148 183 250 419 233 358 146 396 57 
182 11 40 227 377 395 19 159 506 347 268 81 422 
183 11 148 78 181 233 396 57 250 419 345 146 358 
184 11 63 129 435 295 276 340 289 385 73 34 277 
185 11 477 298 65 208 115 27 51 315 25 519 326 
186 11 81 159 246 156 506 15 458 224 313 121 347 
187 11 98 147 91 12 17 219 255 42 338 39 66 
188 11 69 218 170 465 507 119 94 262 180 2 118 
189 11 305 446 286 137 462 278 211 412 473 378 85 
190 11 196 294 292 453 216 251 266 169 378 286 375 
191 11 332 131 398 141 230 333 110 331 236 50 439 
192 11 267 13 343 379 48 440 285 46 463 271 88 
193 11 486 9 411 337 202 392 419 233 237 380 322 
194 11 96 83 349 417 415 335 315 229 326 174 130 
195 11 136 380 202 72 9 142 296 193 486 475 392 
196 11 190 292 216 266 294 453 286 251 378 169 211 
197 11 431 213 322 240 454 464 360 237 337 368 409 
198 11 272 132 390 109 236 423 281 483 50 490 427 
199 11 74 374 61 405 53 10 473 443 288 161 511 
200 11 210 38 55 386 457 323 459 244 23 18 258 
201 11 270 3 31 425 383 109 467 470 54 481 407 
202 11 9 380 136 193 195 486 392 475 411 296 510 
203 11 269 293 511 168 33 128 88 217 336 300 418 
204 11 105 328 120 141 331 333 389 339 433 116 504 
205 11 77 401 49 319 37 222 399 359 366 408 452 
206 11 290 21 89 175 164 320 14 389 160 339 114 
207 11 490 483 281 423 442 297 390 334 474 492 198 
208 11 65 410 501 376 185 326 315 477 415 149 115 
209 11 235 75 116 323 242 432 55 459 93 152 504 
210 11 38 200 459 457 55 386 323 432 209 244 235 
211 11 462 286 85 288 266 400 342 165 189 512 196 
212 11 460 29 361 306 316 498 311 239 58 54 86 
213 11 197 431 454 240 322 464 360 368 317 258 23 
214 11 367 82 45 135 494 307 157 101 318 70 32 
215 11 254 304 93 321 116 242 75 152 134 441 235 
216 11 292 266 196 190 294 512 453 113 24 169 286 
217 11 300 418 336 269 8 511 324 468 505 203 88 
218 11 170 188 69 507 465 94 27 25 262 381 115 
219 11 42 12 338 64 125 52 17 187 514 239 498 
220 11 261 356 284 426 16 151 158 503 248 455 485 
221 11 274 395 127 377 479 227 19 355 422 40 182 
222 11 319 401 413 366 49 77 399 112 452 205 265 
223 11 225 450 168 33 341 52 343 192 66 17 267 
224 11 458 121 287 434 268 430 246 496 81 179 138 
225 11 223 168 450 33 341 259 393 66 414 17 52 
226 11 357 437 455 253 264 303 520 59 416 248 335 
227 11 377 40 395 182 19 422 274 221 506 159 347 
228 11 103 161 104 10 324 8 275 155 505 352 405 
229 11 335 417 130 264 282 520 248 437 226 357 365 
230 11 50 236 110 272 332 191 198 132 515 499 427 
231 10 362 373 99 123 449 126 468 517 372 4 
232 11 167 166 497 354 5 7 406 516 291 280 134 
233 11 419 57 411 181 345 148 486 183 337 193 358 
234 11 330 353 427 495 472 157 442 132 499 281 277 
235 11 75 209 116 242 432 93 323 152 254 304 459 
236 11 50 230 272 198 132 110 109 427 390 499 423 
237 11 337 154 92 409 114 411 358 431 345 419 197 
238 11 448 143 273 11 387 396 36 514 67 98 147 
239 11 498 29 460 212 64 125 52 316 361 311 58 
240 11 322 197 213 464 502 431 454 392 172 360 18 
241 10 325 256 139 408 247 471 372 484 362 155 
242 11 75 93 152 235 304 116 254 432 209 215 391 
243 9 394 517 403 327 99 445 123 126 80 
244 11 23 258 368 386 464 18 317 360 454 252 171 
245 11 351 466 354 441 406 5 232 167 127 179 19 
246 11 138 496 121 458 224 287 313 430 186 158 81 
247 9 256 471 505 325 8 418 241 155 324 
248 11 264 282 356 455 261 309 357 226 16 130 220 
249 11 76 144 487 156 15 186 347 506 159 476 81 
250 11 146 396 358 181 345 387 388 78 92 183 419 
251 11 378 375 107 169 294 453 137 190 196 286 292 
252 11 317 47 360 14 368 258 433 504 454 23 244 
253 11 416 59 226 357 455 303 437 84 421 56 520 
254 11 215 93 304 321 242 116 75 152 235 441 391 
255 11 489 91 147 39 98 20 187 90 436 312 12 
256 9 325 241 247 471 155 505 372 500 139 
257 11 420 436 482 24 350 113 90 312 20 39 342 
258 11 368 23 244 317 360 464 454 252 18 386 213 
259 11 393 66 341 414 163 90 225 17 165 450 342 
260 11 279 100 500 155 104 484 471 263 103 325 228 
261 11 356 220 16 284 426 248 503 151 101 158 455 
262 11 94 344 507 97 465 69 119 188 283 218 346 
263 11 484 145 500 37 260 279 139 408 100 325 241 
264 11 248 357 226 229 455 335 437 282 130 417 520 
265 11 108 112 68 6 162 173 364 22 363 222 413 
266 11 216 512 196 292 190 113 24 482 211 286 294 
267 11 343 192 13 379 440 48 285 46 463 88 223 
268 11 179 434 81 224 458 19 182 40 159 406 121 
269 11 203 511 217 300 336 293 418 88 128 168 468 
270 11 201 3 31 425 467 383 407 109 54 470 481 
271 11 480 383 444 470 463 54 316 31 133 13 361 
272 11 198 236 109 132 390 50 230 423 281 427 483 
273 11 448 238 143 11 98 147 91 514 67 12 187 
274 11 221 395 127 377 227 422 355 479 19 40 182 
275 11 513 103 308 352 104 228 443 10 150 53 100 
276 11 129 73 184 369 435 63 41 469 277 295 140 
277 11 73 330 353 63 289 129 157 276 32 184 442 
278 11 412 150 308 446 352 305 473 443 189 513 275 
279 11 260 100 500 155 104 484 471 103 325 263 228 
280 11 166 70 497 135 318 516 45 291 214 232 518 
281 11 483 490 423 207 390 442 198 132 272 334 297 
282 11 130 248 309 365 264 229 34 335 428 340 385 
283 11 102 346 344 262 97 119 465 94 507 69 180 
284 11 220 261 503 16 158 356 485 310 426 151 101 
285 11 379 440 46 48 373 267 13 88 343 192 463 
286 11 189 305 211 196 462 446 190 137 378 251 266 
287 11 121 430 458 224 496 314 434 7 138 246 485 
288 11 400 85 74 71 462 199 374 61 128 53 473 
289 11 63 32 277 385 353 184 307 157 129 340 367 
290 11 206 21 89 175 164 320 14 114 409 160 389 
291 11 516 518 491 166 167 280 70 495 232 134 397 
292 11 216 190 196 266 294 453 169 251 512 286 378 
293 11 203 128 33 168 269 511 71 374 400 225 74 
294 11 453 169 190 251 292 196 378 107 375 216 266 
295 11 435 340 184 34 365 428 385 62 30 63 129 
296 11 302 72 124 142 475 510 136 195 380 202 26 
297 9 492 207 334 442 490 424 474 483 281 
298 11 477 185 51 519 115 27 65 122 208 25 315 
299 11 447 80 413 456 364 68 445 126 111 265 173 
300 11 336 418 217 468 269 8 449 505 88 324 511 
301 11 467 117 320 439 160 3 164 131 398 339 407 
302 11 296 124 72 475 142 510 26 392 136 195 380 
303 11 59 253 416 437 226 357 520 56 455 84 421 
304 11 93 254 215 242 321 152 116 75 391 235 441 
305 11 446 189 137 286 278 412 378 462 251 473 150 
306 11 311 361 212 58 86 407 460 316 29 498 54 
307 11 101 494 32 367 214 82 157 289 45 16 353 
308 11 352 513 275 150 278 443 412 473 53 103 10 
309 11 385 282 340 248 365 16 34 130 101 261 307 
310 11 503 485 318 158 82 135 284 430 314 494 101 
311 11 58 86 306 212 460 361 35 407 498 29 316 
312 11 350 20 420 436 257 489 39 255 90 24 482 
313 11 246 153 138 156 186 509 151 496 421 426 84 
314 11 7 430 497 318 287 485 310 121 496 434 135 
315 11 415 326 83 65 208 349 185 410 376 501 477 
316 11 361 29 54 212 460 306 498 239 480 383 311 
317 11 368 360 258 252 454 23 244 464 14 47 213 
318 11 135 310 82 314 497 280 485 214 503 7 45 
319 11 222 413 401 49 77 366 205 456 399 112 447 
320 11 117 301 160 439 467 164 21 339 175 206 290 
321 11 215 254 93 304 116 120 371 134 242 75 235 
322 11 240 197 213 431 392 502 454 464 337 172 360 
323 11 55 504 209 200 235 459 75 252 386 210 244 
324 11 8 505 161 228 217 418 300 405 10 511 247 
325 10 256 241 471 247 155 500 505 139 408 484 
326 11 315 415 65 208 83 349 410 376 501 508 79 
327 9 424 394 243 133 334 474 403 297 99 
328 11 105 204 120 389 433 331 141 504 333 47 339 
329 11 451 381 118 178 28 452 22 149 384 366 363 
330 11 442 277 234 353 73 281 157 483 207 490 492 
331 11 333 141 398 339 105 131 204 332 191 328 164 
332 11 191 110 398 131 230 141 333 331 50 236 515 
333 11 141 331 398 339 105 131 332 191 204 328 164 
334 10 474 424 207 297 481 490 390 423 483 492 
335 11 229 417 264 130 520 437 282 226 357 248 96 
336 11 300 418 217 468 269 88 449 8 203 511 505 
337 11 411 237 486 193 419 431 154 197 9 92 233 
338 11 42 219 17 125 52 64 450 12 341 66 187 
339 11 164 331 439 333 398 141 131 389 320 105 301 
340 11 385 295 34 365 184 309 435 428 63 282 289 
341 11 66 17 259 450 338 225 393 223 52 42 90 
342 11 163 165 414 482 113 393 24 512 211 71 257 
343 11 267 192 13 379 440 46 48 285 88 223 463 
344 11 97 262 94 507 102 283 465 346 122 69 119 
345 11 358 181 419 250 92 146 233 388 237 154 411 
346 11 283 102 119 465 262 344 69 97 507 94 180 
347 11 506 15 159 476 182 40 227 81 377 422 186 
348 11 111 41 403 445 369 80 243 394 364 140 73 
349 11 415 174 83 96 326 315 194 30 428 508 130 
350 11 312 420 257 20 436 489 39 24 90 482 255 
351 11 245 441 466 5 354 406 127 167 176 479 134 
352 11 443 308 473 53 275 10 513 61 278 103 150 
353 11 157 32 277 330 289 367 234 45 307 63 214 
354 11 406 466 179 245 434 232 7 351 268 497 19 
355 11 479 177 127 176 221 274 395 19 377 382 351 
356 11 261 220 16 284 426 248 151 455 357 264 503 
357 11 226 455 437 253 264 416 59 303 520 248 84 
358 11 345 92 388 250 146 154 181 419 237 409 114 
359 11 95 478 106 488 438 429 384 399 205 77 452 
360 11 317 368 454 258 464 252 23 213 244 14 197 
361 11 212 306 316 54 29 311 460 407 58 86 498 
362 9 372 4 231 449 126 456 241 468 517 
363 11 22 162 6 149 493 108 501 376 112 410 265 
364 11 68 173 265 108 299 140 447 112 80 111 370 
365 11 34 428 340 30 130 295 282 174 385 309 435 
366 11 452 399 178 222 401 319 112 6 77 329 205 
367 11 214 45 82 494 157 307 32 135 101 353 70 
368 11 258 317 360 454 23 464 244 252 213 18 386 
369 11 41 276 348 111 129 469 73 140 403 435 184 
370 11 461 140 469 60 173 79 508 493 62 364 108 
371 11 491 515 397 134 321 120 499 110 518 291 495 
372 9 362 4 241 456 231 139 408 256 449 
373 11 123 99 285 231 48 379 46 440 449 88 468 
374 11 405 199 74 61 511 53 10 161 288 473 400 
375 11 107 378 251 169 137 294 453 190 196 305 446 
376 11 501 410 493 208 461 79 363 508 149 60 326 
377 11 227 395 40 182 19 274 422 221 506 159 347 
378 11 251 375 107 137 169 294 453 190 196 286 305 
379 11 440 285 48 46 267 13 343 192 88 373 463 
380 11 136 195 202 9 72 193 142 296 486 475 392 
381 11 451 329 118 25 149 170 28 218 178 363 22 
382 11 391 43 152 176 177 441 242 304 432 93 254 
383 11 480 271 54 444 470 316 361 31 463 201 29 
384 11 28 429 95 118 87 451 2 359 478 329 452 
385 11 340 309 289 295 63 184 34 365 32 282 307 
386 11 244 23 18 200 258 457 171 55 368 464 38 
387 11 146 396 250 36 388 238 358 181 345 78 67 
388 11 92 358 146 154 114 250 409 345 387 237 36 
389 11 433 47 14 328 105 504 339 164 252 204 331 
390 11 423 483 198 281 490 109 272 207 132 334 481 
391 11 382 43 152 242 304 93 432 441 176 254 75 
392 11 475 510 322 502 240 202 9 193 26 172 486 
393 11 414 259 163 165 225 342 33 341 66 71 90 
394 9 243 327 403 424 492 517 297 99 123 
395 11 377 227 40 182 221 19 274 422 127 506 159 
396 11 250 146 387 78 181 183 345 238 358 148 36 
397 11 499 515 472 495 110 427 50 518 371 230 236 
398 11 131 191 331 333 141 339 439 332 164 301 467 
399 11 452 366 178 401 222 77 95 205 319 359 329 
400 11 288 85 71 74 462 128 199 374 165 61 211 
401 11 77 205 319 222 49 399 366 452 413 178 359 
402 11 404 44 67 35 36 514 86 58 311 306 12 
403 9 394 243 348 41 492 111 445 327 297 
404 11 402 44 67 35 36 514 86 58 311 306 12 
405 11 374 199 61 10 74 53 161 511 443 473 324 
406 11 354 466 179 434 245 7 232 268 19 351 497 
407 11 306 361 86 311 58 54 212 316 3 467 460 
408 11 139 241 49 37 372 484 325 205 77 256 4 
409 11 114 154 92 237 89 388 431 358 337 197 290 
410 11 501 376 493 208 149 65 326 363 461 79 508 
411 11 486 337 193 419 233 237 9 345 202 57 92 
412 11 278 150 308 446 305 352 189 513 473 443 137 
413 11 319 222 447 456 299 49 401 112 68 265 364 
414 11 393 163 165 259 342 71 33 225 66 341 128 
415 11 83 315 326 349 65 96 194 208 174 185 410 
416 11 59 253 84 421 56 303 455 509 357 226 153 
417 11 335 229 520 130 264 96 194 437 226 282 357 
418 10 300 217 336 468 8 505 269 324 449 247 
419 11 233 345 411 181 337 358 57 237 486 193 92 
420 11 257 24 350 482 436 113 312 512 20 90 39 
421 11 84 416 56 153 509 151 426 59 253 455 303 
422 11 395 227 377 476 274 221 40 182 347 506 19 
423 11 483 281 490 390 207 198 132 272 109 442 334 
424 9 327 474 334 297 394 133 481 492 207 
425 11 31 109 201 270 481 390 272 3 198 470 474 
426 11 151 220 356 84 421 261 284 455 158 153 416 
427 11 132 472 499 50 236 198 495 272 397 230 110 
428 11 34 365 30 174 130 295 340 62 282 435 349 
429 11 87 384 478 95 2 28 106 359 118 180 488 
430 11 287 496 121 485 314 458 138 158 224 310 7 
431 11 197 213 322 240 454 237 337 409 114 360 464 
432 11 459 152 75 242 235 209 391 43 93 116 382 
433 11 47 389 14 504 252 328 105 317 164 204 339 
434 11 179 268 224 406 7 287 458 354 121 314 466 
435 11 295 184 62 276 340 129 34 469 30 428 365 
436 11 90 257 20 39 420 312 350 482 24 489 255 
437 11 226 357 520 253 303 455 264 59 416 335 229 
438 11 488 106 478 359 37 95 145 205 429 77 384 
439 11 301 320 164 339 131 398 467 117 160 331 333 
440 11 379 46 285 267 48 343 13 88 192 373 463 
441 11 351 245 5 304 391 215 382 254 176 134 93 
442 11 207 490 281 483 330 297 492 423 390 334 234 
443 11 53 473 352 10 61 308 199 405 275 74 374 
444 11 470 271 383 480 463 133 31 54 481 201 48 
445 11 80 111 348 299 517 243 126 447 403 364 394 
446 11 305 189 137 278 286 412 378 150 473 462 251 
447 11 299 456 413 80 445 68 364 126 319 222 4 
448 11 273 238 143 11 98 147 91 514 67 387 12 
449 9 468 336 231 418 300 362 217 247 88 
450 11 52 338 17 341 223 125 225 66 42 64 219 
451 11 329 118 381 28 178 452 384 170 149 22 25 
452 11 366 399 178 329 401 451 222 6 95 118 28 
453 11 294 169 190 251 292 196 378 107 375 216 266 
454 11 360 213 464 368 317 258 197 240 431 23 244 
455 11 357 226 253 416 437 264 84 248 59 356 421 
456 11 447 4 413 299 49 126 319 372 80 222 362 
457 11 38 200 210 386 18 171 459 244 55 23 172 
458 11 121 224 287 430 246 496 434 138 81 268 314 
459 11 210 432 200 209 38 55 323 235 75 242 152 
460 11 498 212 29 239 311 306 316 361 58 64 125 
461 11 60 370 79 493 508 140 469 173 376 62 501 
462 11 211 85 288 400 286 189 71 74 165 305 473 
463 11 133 444 48 271 470 13 192 480 267 379 383 
464 11 454 258 23 368 360 244 240 213 18 317 322 
465 11 69 119 507 188 262 94 218 346 344 97 170 
466 11 245 354 406 179 351 19 127 434 268 232 479 
467 11 301 117 3 320 439 160 131 407 270 201 398 
468 9 449 336 300 418 217 88 46 231 247 
469 11 140 370 60 461 369 173 435 62 276 79 508 
470 11 444 31 271 133 383 463 480 481 474 425 201 
471 10 256 325 247 155 505 241 8 500 324 104 
472 11 499 495 397 427 515 50 110 132 518 230 236 
473 11 443 53 61 352 10 199 74 405 308 374 278 
474 10 334 481 424 207 297 390 490 327 423 483 
475 11 510 392 124 26 296 502 302 172 202 9 171 
476 11 347 422 15 506 227 377 182 40 159 395 274 
477 11 298 185 65 51 115 519 27 208 122 315 25 
478 11 106 359 95 429 488 438 384 87 28 2 399 
479 11 127 355 176 177 221 274 19 351 395 466 245 
480 11 383 271 54 444 316 470 361 463 29 31 212 
481 11 474 334 31 425 470 390 424 109 423 207 490 
482 11 113 24 512 257 420 342 266 436 163 165 211 
483 11 281 490 423 207 390 442 198 132 272 334 297 
484 11 263 500 145 139 279 408 260 37 325 241 256 
485 11 503 310 158 430 496 284 314 318 138 287 121 
486 11 193 411 337 9 202 419 233 237 392 322 57 
487 11 76 144 249 156 15 186 347 506 313 159 476 
488 11 438 106 478 359 95 37 145 205 429 77 384 
489 11 255 91 20 147 39 312 98 187 436 350 90 
490 11 483 281 207 423 390 442 198 334 132 297 272 
491 11 291 134 167 516 518 371 5 397 232 166 495 
492 9 297 442 207 403 334 394 490 424 41 
493 11 376 501 410 461 60 363 79 508 22 370 162 
494 11 101 82 307 214 367 135 45 32 310 16 503 
495 11 472 499 397 518 427 515 234 291 516 50 110 
496 11 138 430 158 246 121 287 485 458 224 503 314 
497 11 7 166 280 314 232 318 135 70 516 291 354 
498 11 239 460 29 212 64 125 52 316 311 58 306 
499 11 397 472 515 495 427 50 110 230 132 236 518 
500 11 279 260 100 155 484 471 325 104 256 263 241 
501 11 410 376 493 208 149 363 461 65 326 79 508 
502 11 172 171 26 240 510 18 392 322 464 475 213 
503 11 310 485 284 158 318 220 16 430 82 261 494 
504 11 47 433 252 323 55 389 328 317 14 368 209 
505 10 8 324 247 471 418 161 217 155 300 228 
506 11 347 159 15 182 40 81 227 476 377 186 268 
507 11 94 262 69 465 218 188 97 344 119 170 27 
508 11 79 60 62 461 30 493 370 174 376 410 326 
509 11 56 153 421 84 416 59 151 253 313 303 426 
510 11 475 26 392 124 502 172 171 296 302 240 322 
511 11 269 374 203 405 217 293 74 128 199 300 324 
512 11 113 24 482 266 216 420 342 257 211 292 196 
513 11 275 308 352 103 150 443 104 228 278 10 412 
514 11 67 12 402 404 219 35 44 42 98 64 273 
515 11 397 499 110 472 50 371 495 230 427 236 332 
516 11 291 518 166 491 280 70 167 232 495 497 134 
517 10 243 126 99 123 445 394 80 231 403 327 
518 11 291 516 495 491 70 397 166 472 499 280 515 
519 11 51 122 27 298 94 97 477 115 262 344 507 
520 11 437 226 335 303 357 417 253 264 229 59 455 
DEPOT_SECTION
   1
   -1
EOF
