NAME :  X-n561-kX-w56-c11.cctp
COMMENT : 	Adapted by Maziero, Usberti and Cavellucci from the Uchoa, Pecin, Pessoa, Poggi, Subramanian, and Vidal (2013)
TYPE :  CCTP
DIMENSION :    352
EDGE_WEIGHT_TYPE : 	EUC_2D	
CAPACITY : 	74
VERTICES_WITHIN_COVERAGE :  11
VERTICES_WITH_DEMAND : 	56
NODE_COORD_SECTION
1 500 500
2 487 949
3 492 770
4 150 556
5 130 719
6 962 393
7 54 890
8 861 705
9 338 631
10 119 741
11 48 296
12 982 827
13 18 954
14 558 698
15 857 337
16 963 72
17 218 46
18 705 484
19 315 3
20 331 358
21 688 156
22 314 338
23 214 428
24 193 866
25 381 924
26 968 10
27 797 382
28 733 544
29 956 878
30 576 270
31 257 778
32 713 605
33 270 940
34 880 401
35 245 168
36 973 29
37 888 919
38 943 703
39 364 248
40 932 60
41 575 18
42 663 990
43 667 351
44 85 708
45 801 330
46 261 91
47 163 953
48 509 249
49 237 336
50 791 356
51 314 168
52 356 726
53 260 412
54 630 144
55 534 255
56 356 444
57 448 320
58 987 333
59 319 476
60 83 716
61 395 818
62 633 162
63 221 4
64 762 604
65 337 41
66 156 318
67 756 357
68 535 235
69 337 441
70 615 132
71 365 498
72 42 268
73 952 2
74 989 303
75 471 821
76 650 215
77 302 881
78 391 405
79 364 170
80 324 620
81 92 914
82 133 607
83 223 949
84 988 415
85 943 616
86 659 250
87 766 532
88 730 338
89 564 296
90 127 966
91 300 985
92 884 92
93 438 673
94 928 894
95 107 816
96 46 288
97 548 0
98 379 725
99 186 490
100 230 722
101 40 891
102 362 568
103 26 614
104 396 104
105 756 658
106 236 62
107 314 56
108 276 466
109 626 156
110 369 506
111 207 461
112 135 983
113 5 209
114 10 57
115 369 482
116 716 147
117 740 993
118 77 480
119 869 824
120 809 987
121 748 391
122 366 917
123 272 875
124 0 9
125 260 359
126 449 208
127 278 711
128 422 445
129 341 448
130 683 498
131 930 690
132 184 567
133 257 360
134 783 645
135 282 884
136 978 688
137 514 349
138 290 171
139 675 414
140 386 86
141 575 26
142 863 973
143 223 412
144 391 824
145 228 93
146 704 946
147 938 995
148 159 343
149 361 937
150 201 120
151 158 852
152 786 630
153 91 909
154 291 333
155 60 763
156 321 837
157 154 302
158 490 215
159 612 394
160 70 159
161 972 987
162 527 340
163 34 241
164 688 334
165 124 413
166 347 330
167 383 907
168 250 31
169 251 90
170 645 252
171 250 482
172 50 740
173 924 309
174 275 198
175 751 389
176 222 168
177 935 8
178 105 551
179 943 769
180 442 730
181 794 873
182 440 930
183 25 735
184 95 780
185 38 560
186 610 303
187 266 273
188 160 961
189 610 199
190 761 276
191 397 721
192 423 983
193 239 847
194 330 653
195 307 662
196 81 59
197 357 955
198 123 426
199 28 874
200 228 758
201 972 613
202 577 160
203 293 429
204 852 781
205 343 789
206 492 948
207 823 661
208 193 141
209 602 498
210 415 158
211 382 42
212 382 334
213 251 476
214 70 672
215 154 539
216 822 847
217 972 28
218 717 124
219 615 988
220 308 612
221 287 625
222 442 982
223 324 736
224 505 739
225 668 124
226 966 56
227 648 984
228 705 165
229 529 232
230 835 623
231 864 278
232 379 515
233 152 618
234 748 966
235 495 888
236 623 131
237 869 433
238 557 697
239 419 952
240 987 50
241 692 664
242 887 426
243 853 362
244 194 527
245 164 411
246 288 411
247 655 956
248 720 138
249 743 460
250 660 568
251 886 352
252 375 573
253 561 673
254 900 17
255 871 351
256 544 696
257 459 776
258 541 257
259 885 418
260 443 205
261 103 373
262 879 347
263 819 389
264 588 69
265 589 695
266 865 351
267 197 668
268 791 305
269 807 679
270 468 732
271 568 205
272 802 286
273 218 449
274 914 624
275 336 666
276 62 678
277 869 431
278 995 86
279 737 314
280 851 39
281 909 106
282 407 905
283 662 941
284 234 442
285 984 38
286 584 667
287 624 9
288 615 986
289 690 580
290 989 17
291 786 720
292 828 401
293 501 973
294 653 134
295 173 471
296 803 366
297 723 145
298 694 521
299 191 588
300 659 188
301 700 411
302 677 609
303 731 580
304 610 105
305 103 585
306 501 937
307 981 71
308 563 789
309 706 155
310 951 14
311 997 36
312 163 492
313 117 572
314 570 35
315 538 21
316 119 667
317 186 678
318 68 669
319 653 116
320 494 839
321 92 755
322 598 137
323 822 278
324 31 373
325 518 956
326 918 124
327 949 54
328 595 694
329 206 365
330 983 471
331 712 137
332 818 383
333 807 419
334 389 951
335 725 970
336 588 715
337 891 415
338 205 708
339 273 424
340 636 107
341 972 618
342 994 28
343 475 786
344 993 34
345 601 7
346 743 509
347 481 877
348 562 686
349 797 386
350 194 570
351 712 142
352 38 680
DEMAND_SECTION
2 9
3 7
4 5
5 5
6 8
7 1
8 2
9 6
10 8
11 2
12 6
13 7
14 8
15 8
16 5
17 3
18 4
19 2
20 8
21 6
22 3
23 3
24 4
25 4
26 8
27 8
28 10
29 1
30 1
31 9
32 9
33 10
34 10
35 5
36 5
37 6
38 4
39 9
40 3
41 8
42 4
43 5
44 9
45 4
46 9
47 1
48 7
49 8
50 4
51 5
52 9
53 3
54 8
55 6
56 6
57 8
COVERAGE_SECTION
2 10 206 306 293 325 182 222 235 239 192 347 
3 9 343 224 257 270 75 180 320 308 256 
4 11 215 132 313 178 350 299 244 82 305 233 312 
5 11 10 44 60 321 316 317 184 214 338 276 318 
6 8 84 58 337 259 330 34 242 251 
7 11 101 199 153 81 13 95 90 151 184 112 47 
8 10 207 269 131 291 204 38 230 274 134 179 
9 8 80 194 275 220 195 221 102 252 
10 11 5 321 60 184 44 155 172 316 95 214 276 
11 11 96 72 163 324 261 113 157 66 148 160 165 
12 11 29 179 94 119 38 37 204 136 131 161 216 
13 11 101 7 199 81 153 90 112 188 47 95 151 
14 8 238 348 256 253 265 336 328 286 
15 11 266 255 262 243 251 45 231 332 296 263 34 
16 11 226 307 327 40 240 278 285 36 217 344 311 
17 11 106 168 63 145 169 46 150 107 208 19 65 
18 10 130 298 249 346 28 301 139 87 250 289 
19 11 65 107 168 211 63 106 46 17 169 140 145 
20 11 22 166 154 212 246 125 133 78 203 69 339 
21 11 309 228 351 116 331 248 297 225 294 218 300 
22 11 154 20 166 125 133 212 49 246 187 53 203 
23 11 143 273 284 111 53 245 295 339 213 329 171 
24 11 151 193 123 83 135 47 95 188 33 31 77 
25 11 122 167 149 334 282 197 239 182 192 222 77 
26 11 310 73 217 36 290 285 342 177 344 311 240 
27 11 349 296 332 263 50 292 333 175 67 121 45 
28 11 87 303 346 298 289 32 18 64 130 250 249 
29 11 94 12 37 119 161 179 147 142 216 204 181 
30 11 89 258 55 186 68 229 271 48 170 189 86 
31 11 200 100 127 193 223 156 205 338 123 24 135 
32 9 303 289 302 64 241 28 250 105 152 
33 11 83 91 135 123 77 197 149 193 122 24 47 
34 10 259 337 242 277 237 243 251 255 266 292 
35 11 176 174 138 208 150 51 145 169 46 106 187 
36 11 217 285 26 290 342 344 240 311 310 226 73 
37 10 94 142 29 147 119 216 120 181 161 12 
38 11 131 136 179 8 274 85 341 201 204 207 12 
39 11 79 166 212 260 51 126 187 174 22 210 138 
40 11 327 16 226 307 310 36 217 281 177 254 240 
41 7 141 314 345 97 315 287 264 
42 6 227 247 219 288 283 146 
43 11 164 88 139 301 159 186 279 67 121 175 86 
44 11 60 276 214 318 5 10 172 321 316 352 155 
45 11 268 50 296 272 27 67 15 323 332 349 243 
46 11 169 145 106 168 17 107 150 35 208 138 176 
47 11 188 90 112 83 81 153 24 151 33 7 193 
48 11 55 229 68 258 158 30 89 126 271 260 162 
49 11 133 125 329 154 187 22 143 148 53 66 157 
50 11 296 27 45 349 67 332 263 268 175 121 292 
51 11 138 174 79 35 176 46 39 169 210 104 140 
52 11 98 223 191 275 205 194 127 195 180 9 93 
53 11 339 246 143 203 284 23 133 125 108 273 213 
54 10 109 236 62 70 294 322 319 340 225 304 
55 11 258 68 229 48 30 89 158 271 162 186 189 
56 10 129 69 115 59 78 71 110 203 128 232 
57 10 212 137 162 48 166 78 55 39 126 258 
58 10 74 6 173 84 251 262 255 266 337 34 
59 8 129 69 108 56 115 71 203 110 
60 11 44 321 172 276 10 214 5 318 155 352 183 
61 11 144 205 75 156 257 343 282 167 98 191 52 
62 11 109 54 236 294 70 300 322 189 319 225 21 
63 11 168 17 106 145 169 19 46 107 150 65 208 
64 11 152 303 134 32 105 28 87 230 289 207 302 
65 11 107 19 211 140 104 168 46 169 106 17 145 
66 11 157 148 329 261 49 245 165 133 11 125 198 
67 11 88 175 50 121 279 27 296 349 45 268 332 
68 9 229 55 258 48 271 158 30 89 189 
69 10 129 56 59 203 115 246 71 78 108 339 
70 9 236 322 54 109 304 340 62 294 319 
71 7 110 115 232 59 56 129 69 
72 11 96 163 11 113 324 160 157 261 66 148 165 
73 11 310 26 177 217 36 290 285 342 327 344 254 
74 6 58 173 6 84 251 262 
75 9 320 343 257 3 347 235 61 144 224 
76 10 300 86 170 189 62 109 21 54 228 294 
77 11 135 123 156 33 193 122 149 167 25 197 205 
78 10 128 56 69 129 212 20 115 166 71 59 
79 9 51 210 104 138 39 260 140 126 174 
80 8 9 220 194 221 195 275 102 252 
81 11 153 7 101 90 199 47 112 188 13 151 95 
82 10 233 305 313 4 299 316 178 132 215 350 
83 11 33 47 188 91 24 135 123 112 90 193 77 
84 4 6 330 58 337 
85 6 201 341 274 131 136 38 
86 9 170 76 300 189 186 30 164 62 228 
87 7 346 28 303 64 298 249 18 
88 11 279 67 164 175 121 43 50 190 268 45 296 
89 11 30 258 186 55 162 68 48 137 229 271 170 
90 11 112 188 47 81 153 83 7 13 101 151 24 
91 11 33 197 149 83 122 334 25 135 77 123 167 
92 4 281 326 40 280 
93 9 180 191 270 98 224 52 275 257 9 
94 11 29 37 12 119 147 142 161 216 179 181 204 
95 11 184 151 321 155 10 7 153 172 199 24 81 
96 11 11 72 163 324 113 261 157 66 148 160 165 
97 7 315 41 141 314 345 287 264 
98 11 191 52 223 180 205 275 93 194 270 61 257 
99 11 295 312 111 244 273 215 171 213 23 284 4 
100 9 338 200 127 31 317 267 223 195 5 
101 11 7 199 153 81 13 95 90 151 184 155 112 
102 7 252 232 110 80 9 71 220 
103 11 185 352 318 214 276 305 313 178 82 316 44 
104 7 140 210 211 79 65 107 51 
105 8 134 152 64 269 241 207 32 291 
106 11 17 145 169 168 46 63 150 107 208 19 65 
107 11 65 19 46 168 211 169 106 140 145 104 17 
108 9 213 171 203 339 59 284 53 246 273 
109 11 62 54 236 70 322 294 189 300 319 202 340 
110 7 71 232 115 59 102 56 129 
111 11 273 284 23 295 99 213 171 143 312 245 244 
112 11 90 188 47 81 153 83 13 7 24 101 151 
113 11 163 72 160 96 11 114 324 196 157 66 261 
114 11 124 196 160 113 163 150 208 17 72 63 145 
115 8 71 110 232 56 129 59 69 128 
116 8 351 297 248 331 309 228 218 21 
117 8 335 234 146 120 42 227 247 283 
118 9 198 178 165 312 185 295 215 313 4 
119 8 204 216 181 94 179 37 29 12 
120 9 142 234 117 335 37 146 181 147 216 
121 10 175 67 349 27 301 50 88 296 333 249 
122 11 25 167 149 197 334 282 239 77 182 192 135 
123 11 135 77 193 156 33 24 83 31 122 149 205 
124 11 114 196 160 113 17 63 150 163 208 106 145 
125 11 133 49 154 53 329 22 246 143 339 20 203 
126 7 260 158 210 48 229 68 79 
127 10 100 223 195 200 31 275 338 194 52 221 
128 7 78 115 56 71 110 129 232 
129 10 69 56 59 115 203 71 110 246 78 108 
130 11 298 18 346 28 249 250 209 289 139 301 87 
131 11 38 136 274 8 85 179 341 201 207 230 204 
132 7 350 299 4 215 244 233 82 
133 11 125 49 154 329 53 246 22 143 339 20 203 
134 9 152 105 269 207 64 230 291 32 303 
135 11 123 77 33 193 156 83 122 24 149 91 197 
136 9 38 131 341 201 85 179 274 8 12 
137 9 162 57 89 55 258 30 48 186 159 
138 11 51 174 35 176 79 46 169 145 208 150 187 
139 11 301 43 159 18 121 175 164 249 130 88 67 
140 8 104 211 65 107 210 79 19 51 
141 7 41 314 345 97 315 264 287 
142 10 120 37 147 94 161 234 181 117 29 216 
143 11 23 284 53 273 329 339 111 245 133 125 246 
144 11 61 205 156 75 167 257 282 343 122 25 98 
145 11 169 106 46 150 17 208 168 176 35 63 107 
146 7 335 283 234 247 117 42 227 
147 11 161 142 37 94 29 120 12 119 216 181 234 
148 11 66 157 329 261 245 49 165 198 143 133 23 
149 11 197 122 25 334 167 282 239 192 91 182 77 
150 11 208 145 176 169 35 46 106 17 168 138 174 
151 11 24 95 193 153 81 184 47 188 7 123 83 
152 9 134 64 105 207 230 269 303 32 291 
153 11 81 7 101 90 199 47 13 112 188 151 95 
154 11 22 125 133 20 49 166 187 246 53 212 329 
155 11 172 321 184 183 60 44 10 95 5 276 352 
156 11 77 205 135 123 144 61 193 31 122 167 223 
157 11 66 148 329 261 49 11 96 245 165 187 72 
158 8 48 126 229 260 68 55 258 271 
159 9 139 43 301 186 164 162 209 137 89 
160 11 113 163 196 72 114 208 96 150 11 176 124 
161 11 147 94 37 29 142 12 120 119 216 181 179 
162 10 137 89 57 258 30 55 186 48 159 68 
163 11 72 113 96 11 160 324 157 66 261 148 114 
164 10 43 88 279 67 301 139 121 175 186 86 
165 10 198 245 261 295 148 118 312 23 329 111 
166 11 20 22 212 154 39 78 125 133 187 246 57 
167 11 25 122 282 149 334 197 239 182 144 77 192 
168 11 106 17 63 169 46 145 107 19 65 150 208 
169 11 46 145 106 17 150 168 107 208 35 176 138 
170 10 86 76 186 189 300 30 271 62 89 164 
171 8 213 108 284 273 111 339 99 23 
172 11 155 183 60 321 44 184 352 276 10 214 318 
173 10 251 262 74 58 231 255 266 15 243 6 
174 11 138 35 51 176 187 79 208 39 46 150 169 
175 11 121 67 349 27 50 88 301 296 333 332 263 
176 11 35 208 150 174 138 145 169 46 51 106 187 
177 11 310 73 26 254 217 36 327 40 290 226 285 
178 11 313 305 4 215 82 185 118 132 233 312 350 
179 11 38 12 131 136 119 204 8 29 94 216 274 
180 11 270 191 257 93 98 3 224 343 52 75 61 
181 6 216 119 234 37 204 120 
182 11 239 282 2 222 206 334 192 25 167 306 347 
183 11 172 155 352 60 44 276 321 214 318 184 10 
184 11 321 95 155 10 172 60 5 44 183 151 276 
185 9 103 178 305 313 118 82 4 318 214 
186 11 30 89 170 86 43 258 164 55 159 162 76 
187 11 154 49 174 22 125 133 166 39 138 20 35 
188 11 47 90 112 83 81 153 24 151 33 7 101 
189 11 271 76 62 109 300 202 54 322 170 70 236 
190 6 268 272 279 323 45 88 
191 11 98 52 180 93 270 223 275 257 205 194 61 
192 11 222 239 334 182 2 25 197 149 206 293 282 
193 11 123 24 135 31 77 151 156 200 33 83 205 
194 10 275 9 195 80 220 221 52 127 223 98 
195 9 194 275 221 9 80 220 127 223 52 
196 11 114 124 160 150 17 208 63 145 106 113 168 
197 11 149 334 25 122 167 239 91 282 192 182 33 
198 10 165 245 261 295 118 312 99 148 23 111 
199 11 101 7 153 81 13 95 184 155 151 90 321 
200 10 31 100 338 127 193 317 267 223 5 10 
201 6 341 85 274 136 131 38 
202 8 322 271 70 109 189 236 54 62 
203 9 246 339 53 108 69 129 59 284 213 
204 8 119 216 8 291 179 181 269 38 
205 11 156 223 144 61 52 98 31 191 77 127 123 
206 9 2 306 293 325 182 222 235 347 239 
207 9 269 230 134 152 8 105 291 64 274 
208 11 150 176 35 145 169 46 106 17 174 138 51 
209 6 130 250 298 18 159 139 
210 7 79 260 104 126 140 158 51 
211 8 140 65 104 107 19 210 79 46 
212 11 166 20 57 22 78 39 154 56 69 128 129 
213 9 171 108 284 273 111 339 23 203 53 
214 11 318 276 352 44 60 316 172 103 5 183 10 
215 11 4 132 244 312 178 313 350 99 299 305 82 
216 6 181 119 204 37 94 291 
217 11 36 285 26 290 342 344 310 311 240 226 73 
218 7 248 331 351 297 116 309 21 
219 3 288 227 42 
220 7 80 221 9 194 195 275 102 
221 6 220 80 195 9 194 275 
222 11 192 239 182 2 206 293 334 306 325 25 282 
223 11 52 127 98 205 275 191 195 31 194 100 200 
224 10 3 270 343 256 257 180 14 238 308 348 
225 6 319 294 340 21 54 236 
226 11 16 327 307 240 285 36 217 40 344 311 342 
227 5 42 247 219 288 283 
228 8 309 21 116 351 297 331 248 218 
229 9 68 55 48 258 158 271 30 89 126 
230 9 207 152 134 269 64 274 8 105 85 
231 7 323 15 272 173 262 255 266 
232 7 110 71 115 102 252 59 56 
233 8 82 299 313 305 316 132 4 350 
234 8 335 117 146 120 42 283 247 227 
235 8 347 306 320 206 2 182 75 325 
236 9 70 54 109 322 340 304 294 62 319 
237 5 277 242 259 337 34 
238 8 14 348 256 253 265 336 328 286 
239 11 182 334 192 222 25 282 167 149 197 122 2 
240 11 285 311 344 226 307 342 36 217 16 290 278 
241 2 302 32 
242 5 259 337 237 277 34 
243 11 266 255 15 262 251 332 263 292 34 296 27 
244 8 99 132 215 350 312 4 295 299 
245 11 165 198 23 143 295 329 111 273 148 261 284 
246 11 203 339 53 108 69 125 133 284 129 143 20 
247 6 283 227 42 146 288 219 
248 8 297 331 351 116 218 309 228 21 
249 7 18 346 301 121 130 175 87 
250 7 289 302 298 32 303 130 28 
251 11 262 255 266 15 243 34 173 337 259 242 332 
252 7 102 232 110 9 80 71 220 
253 8 348 238 286 14 256 265 328 336 
254 10 177 310 40 73 280 327 26 217 36 92 
255 11 266 262 251 15 243 34 332 263 292 337 173 
256 9 238 14 348 253 265 336 286 328 224 
257 10 343 3 270 75 180 224 320 61 144 191 
258 11 55 68 229 48 30 89 271 158 186 162 189 
259 5 337 242 34 277 237 
260 7 126 158 210 48 79 39 229 
261 10 165 198 148 245 324 66 157 11 96 329 
262 11 251 255 266 15 243 34 173 337 231 259 332 
263 8 332 292 349 27 296 333 50 243 
264 4 314 304 141 41 
265 7 328 336 286 348 14 238 253 
266 11 255 262 15 243 251 34 332 263 292 296 45 
267 7 317 338 100 233 316 299 5 
268 10 272 45 323 190 50 279 296 67 88 15 
269 8 207 134 291 152 105 8 230 64 
270 11 180 224 3 257 343 93 191 256 75 98 14 
271 8 189 68 202 229 258 55 30 48 
272 8 268 323 190 45 231 50 279 15 
273 11 111 284 23 143 213 171 295 99 53 108 339 
274 7 85 341 201 131 230 38 136 
275 11 194 195 9 80 220 52 221 223 98 127 191 
276 11 214 318 352 44 60 316 172 183 103 5 321 
277 5 237 242 259 337 34 
278 11 307 16 240 226 285 311 344 327 342 36 217 
279 10 88 190 67 164 268 45 50 272 175 121 
280 3 254 92 40 
281 5 326 92 40 16 327 
282 11 167 25 182 122 239 334 149 197 347 192 144 
283 4 247 146 227 42 
284 10 273 23 143 111 213 53 171 339 108 203 
285 11 344 240 311 36 342 217 290 226 26 307 327 
286 6 253 265 328 348 14 238 
287 4 345 41 141 314 
288 3 219 227 42 
289 8 250 302 32 303 28 298 64 130 
290 11 342 344 36 217 311 26 285 240 310 73 226 
291 6 269 105 207 134 8 152 
292 6 263 332 333 349 27 296 
293 6 325 206 2 306 222 182 
294 9 225 319 54 236 340 62 109 70 21 
295 11 99 312 111 273 23 244 245 198 284 215 165 
296 11 50 27 349 332 263 45 292 67 243 333 175 
297 8 116 248 351 331 309 218 228 21 
298 11 130 18 28 346 250 289 303 87 249 32 302 
299 7 350 132 233 4 82 215 244 
300 11 76 62 21 109 189 228 54 294 309 86 225 
301 11 139 121 175 249 43 18 67 164 88 130 159 
302 5 289 32 250 241 303 
303 11 32 28 64 289 87 302 298 250 346 152 105 
304 7 340 70 236 322 264 54 319 
305 11 313 178 82 4 233 215 185 103 132 316 299 
306 7 206 2 325 293 235 182 347 
307 11 16 226 278 240 285 327 311 344 36 217 342 
308 1 3 
309 8 228 116 351 21 331 297 248 218 
310 11 73 26 177 217 36 290 327 285 226 342 344 
311 11 344 342 285 240 290 36 217 226 307 26 16 
312 11 99 295 244 215 111 4 273 198 132 245 23 
313 11 305 178 4 82 215 233 132 299 350 185 244 
314 7 141 41 315 264 97 345 287 
315 7 97 314 41 141 345 264 287 
316 10 214 318 5 44 276 233 60 82 317 10 
317 7 267 338 100 316 5 233 82 
318 11 214 276 352 44 60 316 103 172 183 5 10 
319 6 225 294 340 236 54 70 
320 6 75 347 235 343 3 257 
321 11 184 10 155 60 172 44 5 95 183 276 214 
322 8 70 236 202 54 109 304 62 340 
323 7 272 268 231 45 190 15 50 
324 9 261 11 96 165 72 198 118 148 163 
325 4 293 306 206 2 
326 3 281 92 40 
327 11 226 40 16 36 217 307 240 285 310 26 177 
328 6 265 336 286 348 14 238 
329 11 49 143 133 148 125 245 23 66 53 157 284 
330 2 84 6 
331 8 351 248 116 218 297 309 228 21 
332 8 263 27 292 349 296 50 333 243 
333 5 292 263 349 27 332 
334 11 25 239 149 197 122 167 192 282 182 222 91 
335 8 234 117 146 42 283 247 227 120 
336 8 265 328 14 238 348 256 286 253 
337 5 259 242 34 277 237 
338 8 100 317 267 200 127 5 31 10 
339 10 53 246 203 108 284 143 213 23 273 171 
340 7 319 304 236 294 70 225 54 
341 6 201 85 274 136 131 38 
342 11 344 311 290 285 36 217 240 26 226 307 310 
343 9 257 3 75 270 224 320 180 61 308 
344 11 311 342 285 240 290 36 217 26 226 307 310 
345 6 287 41 141 314 97 264 
346 7 87 28 18 249 298 130 303 
347 8 235 320 75 306 182 2 206 282 
348 8 238 14 253 256 265 286 328 336 
349 10 27 296 332 263 50 292 333 175 121 67 
350 5 132 299 244 4 215 
351 8 331 116 248 297 309 218 228 21 
352 11 276 318 214 44 183 60 172 103 316 155 321 
DEPOT_SECTION
   1
   -1
EOF
