NAME :  X-n536-kX-w107-c7.cctp
COMMENT : 	Adapted by Maziero, Usberti and Cavellucci from the Uchoa, Pecin, Pessoa, Poggi, Subramanian, and Vidal (2013)
TYPE :  CCTP
DIMENSION :    459
EDGE_WEIGHT_TYPE : 	EUC_2D	
CAPACITY : 	371
VERTICES_WITHIN_COVERAGE :  7
VERTICES_WITH_DEMAND : 	107
NODE_COORD_SECTION
1 500 500
2 957 135
3 149 141
4 1 96
5 228 268
6 781 529
7 867 797
8 109 53
9 9 127
10 258 317
11 89 54
12 167 155
13 739 534
14 962 896
15 975 122
16 960 68
17 205 52
18 841 806
19 739 677
20 90 192
21 842 772
22 972 143
23 27 85
24 953 240
25 185 211
26 652 428
27 764 523
28 159 142
29 101 113
30 879 837
31 885 326
32 953 118
33 777 491
34 65 66
35 976 171
36 961 748
37 710 493
38 778 708
39 277 223
40 88 112
41 172 57
42 2 209
43 121 64
44 938 29
45 166 160
46 142 97
47 84 284
48 269 224
49 940 727
50 876 822
51 131 169
52 951 768
53 278 21
54 292 280
55 672 616
56 94 96
57 212 89
58 270 368
59 852 777
60 170 200
61 848 123
62 951 777
63 756 532
64 101 29
65 136 52
66 831 553
67 953 784
68 170 135
69 861 728
70 172 133
71 826 899
72 832 615
73 142 249
74 900 565
75 735 672
76 837 833
77 723 538
78 931 862
79 214 45
80 938 2
81 918 296
82 931 760
83 994 40
84 302 389
85 115 120
86 138 134
87 764 502
88 962 408
89 888 216
90 209 168
91 100 131
92 900 163
93 15 209
94 219 170
95 782 310
96 922 706
97 279 265
98 750 566
99 276 393
100 133 16
101 372 183
102 761 503
103 116 205
104 33 8
105 203 336
106 240 222
107 95 100
108 261 357
109 12 26
110 288 231
111 861 613
112 245 331
113 815 790
114 257 215
115 949 42
116 83 118
117 462 64
118 146 141
119 799 566
120 618 497
121 742 619
122 954 95
123 133 147
124 179 120
125 938 798
126 92 54
127 188 352
128 866 805
129 660 583
130 74 30
131 119 236
132 120 81
133 69 324
134 719 569
135 788 550
136 120 172
137 14 196
138 171 66
139 861 867
140 108 141
141 617 454
142 28 140
143 91 118
144 880 814
145 670 343
146 940 211
147 708 548
148 695 683
149 71 239
150 804 481
151 181 205
152 987 269
153 851 904
154 193 200
155 156 48
156 169 133
157 824 526
158 52 78
159 636 413
160 158 202
161 661 518
162 90 2
163 122 18
164 786 523
165 960 117
166 958 161
167 752 556
168 24 141
169 116 95
170 371 175
171 184 142
172 937 88
173 875 736
174 22 198
175 882 774
176 639 445
177 810 457
178 127 62
179 5 118
180 95 143
181 876 63
182 773 583
183 238 111
184 192 112
185 174 145
186 778 665
187 22 131
188 196 67
189 261 221
190 782 505
191 173 150
192 816 601
193 806 559
194 14 85
195 110 144
196 779 840
197 726 649
198 24 33
199 789 502
200 891 441
201 139 183
202 866 897
203 853 747
204 863 901
205 969 132
206 299 256
207 158 110
208 159 108
209 125 34
210 22 156
211 573 369
212 917 123
213 240 291
214 986 55
215 818 595
216 253 263
217 943 195
218 131 242
219 30 327
220 981 137
221 954 848
222 797 822
223 954 250
224 225 255
225 174 53
226 956 816
227 214 280
228 185 185
229 65 68
230 156 61
231 49 5
232 71 6
233 927 138
234 140 191
235 814 161
236 850 719
237 176 26
238 991 261
239 929 775
240 153 149
241 185 155
242 230 56
243 170 174
244 239 290
245 781 515
246 148 140
247 791 748
248 924 218
249 803 391
250 82 136
251 310 69
252 736 530
253 701 510
254 875 534
255 687 967
256 63 50
257 759 255
258 230 7
259 874 209
260 695 484
261 849 700
262 739 85
263 851 157
264 794 978
265 242 319
266 821 949
267 244 217
268 961 173
269 110 95
270 189 198
271 978 223
272 47 97
273 959 147
274 156 229
275 169 153
276 936 80
277 226 227
278 951 155
279 881 702
280 191 58
281 126 58
282 722 532
283 921 656
284 168 349
285 85 69
286 810 844
287 113 73
288 863 716
289 862 810
290 25 56
291 203 221
292 969 661
293 719 562
294 884 752
295 241 314
296 764 525
297 132 265
298 573 430
299 276 185
300 247 342
301 888 516
302 295 317
303 228 115
304 815 268
305 351 420
306 893 135
307 863 815
308 28 41
309 711 120
310 94 122
311 873 783
312 964 182
313 303 71
314 801 527
315 743 469
316 263 62
317 691 763
318 981 160
319 226 261
320 231 277
321 0 66
322 199 93
323 848 757
324 92 81
325 98 266
326 148 150
327 988 69
328 741 524
329 961 140
330 132 74
331 828 773
332 785 734
333 48 26
334 700 593
335 142 62
336 198 427
337 781 499
338 980 94
339 828 87
340 26 148
341 981 717
342 884 608
343 797 521
344 875 253
345 5 77
346 164 234
347 63 110
348 117 104
349 900 127
350 219 151
351 319 211
352 837 700
353 109 209
354 696 686
355 868 544
356 293 351
357 167 171
358 357 171
359 183 209
360 99 228
361 897 821
362 209 175
363 219 49
364 188 30
365 242 211
366 958 11
367 824 818
368 156 230
369 109 154
370 194 32
371 920 831
372 995 157
373 760 310
374 180 73
375 98 90
376 946 255
377 953 881
378 162 8
379 883 804
380 232 412
381 109 131
382 883 880
383 242 262
384 232 252
385 352 260
386 813 936
387 362 335
388 64 199
389 890 788
390 901 823
391 942 120
392 662 470
393 300 261
394 967 790
395 965 126
396 102 58
397 794 886
398 788 252
399 763 349
400 1000 129
401 814 388
402 198 136
403 425 178
404 227 226
405 311 229
406 161 159
407 106 161
408 287 271
409 695 660
410 207 138
411 112 6
412 915 537
413 169 94
414 769 555
415 158 72
416 35 268
417 790 842
418 80 321
419 89 287
420 645 573
421 165 193
422 978 234
423 138 28
424 223 78
425 865 815
426 883 795
427 113 268
428 143 232
429 235 221
430 840 666
431 197 130
432 101 121
433 153 12
434 152 191
435 209 267
436 759 490
437 674 703
438 109 317
439 46 93
440 250 203
441 741 662
442 924 148
443 622 606
444 730 561
445 21 113
446 72 281
447 961 782
448 158 80
449 926 766
450 800 624
451 989 133
452 21 106
453 802 534
454 928 976
455 162 281
456 134 76
457 901 235
458 348 278
459 31 94
DEMAND_SECTION
2 22
3 94
4 52
5 51
6 54
7 96
8 96
9 82
10 77
11 82
12 55
13 78
14 77
15 40
16 47
17 89
18 77
19 94
20 78
21 81
22 37
23 66
24 8
25 79
26 24
27 70
28 80
29 100
30 53
31 30
32 10
33 34
34 63
35 29
36 80
37 41
38 80
39 62
40 100
41 66
42 79
43 71
44 29
45 94
46 99
47 59
48 57
49 93
50 52
51 54
52 65
53 64
54 52
55 88
56 56
57 76
58 82
59 65
60 77
61 41
62 94
63 100
64 94
65 97
66 56
67 92
68 79
69 59
70 78
71 99
72 91
73 59
74 64
75 61
76 80
77 99
78 66
79 95
80 28
81 5
82 69
83 9
84 86
85 73
86 58
87 98
88 15
89 19
90 71
91 88
92 26
93 79
94 64
95 32
96 75
97 54
98 97
99 82
100 92
101 51
102 68
103 84
104 56
105 65
106 56
107 63
108 53
COVERAGE_SECTION
2 7 329 205 273 395 22 32 165 
3 7 246 118 240 326 28 86 123 
4 7 194 345 179 452 445 23 321 
5 6 319 320 224 383 384 227 
6 7 164 245 296 27 343 314 135 
7 7 128 289 311 426 379 307 425 
8 7 396 43 126 281 11 178 287 
9 7 179 187 445 168 142 452 340 
10 7 265 295 112 300 213 244 302 
11 6 126 396 285 8 256 34 
12 7 275 45 406 191 185 28 240 
13 7 252 328 77 63 282 167 27 
14 7 377 78 221 371 226 382 454 
15 7 395 205 165 220 451 22 2 
16 7 276 115 122 327 214 172 338 
17 7 79 363 280 188 370 242 364 
18 7 289 367 307 128 425 76 7 
19 7 75 441 197 186 148 354 409 
20 7 353 388 103 407 136 360 369 
21 7 59 331 323 203 113 311 18 
22 7 205 220 329 273 2 395 318 
23 7 459 194 439 452 272 345 158 
24 7 223 376 422 271 146 248 238 
25 7 359 151 154 270 60 291 228 
26 7 176 159 392 141 260 120 298 
27 7 296 63 6 245 102 87 164 
28 7 240 3 246 68 118 156 326 
29 7 432 143 310 40 107 85 56 
30 7 50 144 361 390 425 307 289 
31 7 81 344 304 457 376 401 223 
32 7 165 391 395 2 205 15 122 
33 7 337 190 199 87 436 102 245 
34 7 229 256 158 285 11 126 324 
35 7 318 268 312 166 372 22 273 
36 7 52 49 62 82 447 67 341 
37 7 260 253 282 315 328 252 77 
38 7 332 247 186 19 75 441 352 
39 6 48 110 189 114 267 440 
40 7 143 116 310 29 107 432 56 
41 7 225 138 230 155 374 280 415 
42 6 93 137 174 210 388 340 
43 7 178 281 287 330 8 132 456 
44 7 115 80 366 16 276 214 83 
45 7 12 406 275 357 191 243 185 
46 7 208 207 456 448 330 169 348 
47 7 419 446 325 427 418 438 133 
48 6 39 189 114 110 267 440 
49 7 96 36 82 449 52 341 239 
50 7 144 425 30 307 289 379 128 
51 6 136 201 123 234 326 407 
52 7 62 67 447 36 82 239 449 
53 6 316 258 313 251 242 363 
54 7 408 97 393 206 302 216 110 
55 6 129 334 409 420 443 197 
56 6 107 375 324 269 40 29 
57 6 322 424 188 184 303 183 
58 7 108 99 356 300 84 112 10 
59 7 21 323 311 331 7 175 203 
60 7 421 151 160 359 25 270 434 
61 6 263 339 306 235 349 92 
62 7 67 52 447 394 239 125 82 
63 7 296 27 13 328 252 167 6 
64 7 163 8 209 411 126 130 11 
65 7 281 335 178 43 155 209 230 
66 7 193 157 119 453 355 314 135 
67 7 62 447 394 52 125 239 226 
68 7 156 70 185 28 191 171 124 
69 7 288 236 173 203 261 323 279 
70 7 68 156 185 124 171 28 191 
71 7 153 397 204 386 202 139 266 
72 6 192 215 111 450 342 430 
73 7 218 428 297 274 368 131 346 
74 7 412 355 254 342 301 111 66 
75 7 19 441 197 148 354 409 186 
76 7 367 18 286 307 425 289 128 
77 7 282 252 13 147 328 293 444 
78 6 221 377 371 14 390 382 
79 7 363 17 242 370 280 188 364 
80 7 366 44 115 83 16 214 276 
81 7 31 376 223 344 457 24 152 
82 7 449 239 52 62 36 67 49 
83 7 214 327 16 115 366 338 44 
84 7 99 58 356 108 305 300 302 
85 7 381 432 29 348 91 310 140 
86 7 118 246 3 123 326 240 28 
87 7 102 436 33 337 190 27 245 
88 3 200 31 81 
89 7 259 457 248 344 146 92 217 
90 7 362 94 350 241 228 410 402 
91 7 381 432 310 140 180 143 195 
92 6 442 306 349 233 212 263 
93 6 42 137 174 388 210 340 
94 6 90 362 350 410 228 241 
95 7 373 399 304 398 257 249 401 
96 6 49 279 283 82 173 36 
97 7 408 54 393 206 216 110 383 
98 7 167 444 414 182 134 293 13 
99 7 58 84 108 356 380 300 112 
100 7 163 423 209 433 411 378 64 
101 7 170 358 403 351 405 385 299 
102 7 87 436 27 33 337 190 296 
103 7 353 234 20 360 131 201 136 
104 5 231 333 198 109 308 
105 6 127 284 112 265 295 300 
106 7 429 267 365 404 277 114 189 
107 7 56 375 29 40 269 143 324 
108 7 58 300 112 356 99 10 265 
109 5 198 308 104 290 333 
110 7 39 48 405 206 189 393 97 
111 6 342 72 192 215 430 74 
112 7 300 265 295 10 108 213 244 
113 6 331 367 18 21 222 59 
114 6 189 267 440 48 365 106 
115 7 44 16 366 214 276 80 83 
116 7 40 143 310 250 432 29 91 
117 6 403 170 101 358 251 313 
118 7 246 3 326 86 240 28 123 
119 6 193 135 182 414 453 66 
120 5 141 161 392 176 26 
121 5 197 441 182 334 75 
122 7 172 32 165 276 338 16 391 
123 7 86 118 326 3 246 240 51 
124 7 70 184 156 68 431 171 207 
125 5 67 62 226 239 447 
126 6 11 396 8 285 64 324 
127 2 284 105 
128 7 289 7 307 425 144 379 50 
129 5 420 55 334 443 147 
130 5 256 232 333 64 11 
131 7 218 360 428 73 353 103 297 
132 6 287 330 169 456 43 269 
133 6 418 219 438 419 47 446 
134 7 293 444 147 77 98 334 167 
135 7 119 193 414 453 6 314 164 
136 7 51 407 369 201 123 234 195 
137 6 174 93 42 210 340 388 
138 6 41 374 225 415 230 448 
139 7 382 202 204 30 153 76 50 
140 7 195 381 91 180 369 407 432 
141 7 176 120 26 159 392 298 161 
142 5 168 340 187 210 9 
143 7 310 40 116 432 29 91 107 
144 7 50 379 425 128 307 289 361 
145 7 159 26 399 373 211 176 95 
146 7 217 248 24 312 271 223 268 
147 6 77 293 282 134 444 252 
148 7 354 409 437 75 19 197 441 
149 7 360 325 388 446 416 47 131 
150 5 177 199 33 337 190 
151 7 359 25 270 60 154 228 421 
152 7 238 422 223 376 24 271 81 
153 7 204 202 71 139 382 386 266 
154 7 270 151 359 25 228 60 291 
155 7 230 41 225 65 335 138 415 
156 7 68 70 28 185 124 171 191 
157 4 314 453 343 66 
158 7 229 439 34 272 23 459 256 
159 7 26 176 141 392 298 211 145 
160 6 421 60 434 234 151 359 
161 5 253 120 260 392 37 
162 6 232 411 64 130 163 231 
163 7 100 209 411 423 64 433 162 
164 7 6 245 343 314 190 453 199 
165 7 32 395 15 205 2 391 122 
166 7 278 268 273 35 329 312 22 
167 7 98 414 444 63 13 252 296 
168 5 142 340 187 210 9 
169 6 269 348 132 375 56 107 
170 7 101 358 403 351 405 385 299 
171 7 185 241 191 70 402 68 156 
172 7 276 122 16 391 32 165 212 
173 7 69 294 288 203 236 323 279 
174 6 137 93 42 210 388 340 
175 7 311 389 426 294 7 59 379 
176 7 26 141 159 392 120 260 298 
177 3 150 33 199 
178 7 281 43 65 330 335 456 287 
179 7 9 445 452 187 4 168 142 
180 7 91 140 195 250 369 381 310 
181 6 339 276 61 172 349 44 
182 4 414 98 119 167 
183 4 303 57 424 410 
184 7 124 431 322 402 70 413 57 
185 7 191 275 171 68 12 70 156 
186 6 441 19 38 75 450 197 
187 6 168 142 9 340 445 179 
188 6 280 17 374 138 41 225 
189 7 114 48 39 267 106 365 440 
190 7 337 199 245 33 87 164 102 
191 7 185 275 12 45 241 171 68 
192 5 215 72 450 119 193 
193 6 119 135 453 66 314 414 
194 6 345 23 4 459 452 321 
195 7 140 369 381 180 91 407 123 
196 6 417 222 286 397 367 76 
197 7 441 75 19 409 121 148 354 
198 5 308 109 290 333 104 
199 6 190 337 245 33 164 343 
200 2 301 88 
201 6 234 434 51 136 160 421 
202 7 204 153 382 139 71 30 386 
203 7 323 69 173 21 236 59 294 
204 7 202 153 382 139 71 386 266 
205 7 395 22 329 2 15 220 165 
206 7 393 408 97 54 110 405 39 
207 7 208 413 46 124 156 70 68 
208 7 207 413 46 124 156 70 448 
209 7 423 163 100 65 281 8 64 
210 5 340 168 142 187 9 
211 5 298 159 141 26 145 
212 6 349 233 391 442 306 32 
213 7 244 320 295 5 227 265 383 
214 7 327 83 16 115 338 122 366 
215 5 192 72 450 119 193 
216 6 383 384 5 97 320 319 
217 7 146 312 268 248 166 35 278 
218 7 73 131 428 297 274 368 427 
219 6 133 418 416 446 47 419 
220 7 451 22 205 15 395 329 400 
221 6 78 226 377 371 14 125 
222 6 417 196 286 367 113 76 
223 7 376 24 422 271 152 238 146 
224 3 319 384 5 
225 7 41 138 280 155 230 374 415 
226 6 125 394 67 221 447 62 
227 4 435 320 5 319 
228 7 270 154 243 151 60 421 357 
229 7 34 158 256 285 11 126 324 
230 7 415 155 335 41 138 448 225 
231 5 104 333 232 130 198 
232 5 162 231 130 333 64 
233 6 442 212 391 278 349 2 
234 6 201 434 160 51 421 103 
235 6 263 61 339 259 306 92 
236 7 288 69 261 352 203 173 279 
237 7 364 370 378 225 433 155 41 
238 7 152 422 223 271 24 376 146 
239 6 449 82 62 52 125 67 
240 7 326 3 28 246 118 406 12 
241 7 171 191 185 275 12 45 402 
242 7 363 79 424 17 316 188 57 
243 6 357 45 406 12 228 421 
244 7 213 320 295 5 227 383 265 
245 7 164 190 6 199 337 343 27 
246 7 3 118 240 326 28 86 123 
247 6 332 38 331 113 21 323 
248 7 146 457 217 24 89 376 223 
249 4 401 399 177 95 
250 5 180 116 310 91 143 
251 3 313 316 53 
252 7 13 328 282 77 63 296 27 
253 7 37 260 282 77 147 252 161 
254 4 355 301 74 412 
255 6 264 386 397 266 71 196 
256 6 34 229 130 11 333 126 
257 6 398 373 304 95 399 235 
258 7 79 363 370 364 242 53 17 
259 6 89 457 344 248 92 263 
260 7 37 253 392 161 315 282 77 
261 6 352 236 288 69 279 430 
262 6 309 339 235 61 263 181 
263 7 61 235 306 92 259 349 89 
264 7 266 386 71 397 153 204 202 
265 7 295 112 10 300 213 244 108 
266 7 386 264 71 153 204 202 397 
267 7 106 365 429 114 440 189 404 
268 7 312 166 35 278 318 273 217 
269 6 169 348 375 56 107 132 
270 7 154 151 359 25 228 60 421 
271 7 422 24 223 146 238 312 217 
272 5 439 459 158 347 23 
273 7 329 278 2 22 166 205 395 
274 7 368 346 428 73 160 218 60 
275 7 12 191 45 185 406 28 240 
276 7 172 122 16 115 391 32 165 
277 4 404 429 106 267 
278 7 166 273 329 2 268 22 442 
279 6 288 261 69 173 236 96 
280 7 188 17 225 41 374 138 79 
281 7 178 43 65 335 330 8 287 
282 7 77 252 13 147 328 253 293 
283 6 292 96 279 342 49 111 
284 2 127 105 
285 6 324 11 126 34 229 396 
286 7 417 222 76 367 196 397 18 
287 5 132 43 178 330 396 
288 7 69 236 261 173 279 352 203 
289 7 307 128 425 7 50 144 18 
290 6 308 198 321 23 345 194 
291 5 25 154 359 277 404 
292 6 283 341 96 49 36 279 
293 7 134 444 147 77 282 98 13 
294 7 173 175 203 69 311 323 389 
295 7 265 10 112 213 244 300 320 
296 7 27 63 6 245 102 164 87 
297 7 73 427 218 131 325 455 428 
298 5 141 211 159 176 26 
299 4 440 114 39 189 
300 7 112 108 265 10 295 58 105 
301 4 254 355 412 74 
302 7 356 10 54 408 108 112 265 
303 4 183 57 410 431 
304 6 398 95 257 344 373 259 
305 7 84 99 387 356 58 108 302 
306 6 349 212 92 233 442 61 
307 7 425 289 128 50 144 7 379 
308 5 198 290 109 333 104 
309 6 262 235 339 61 257 263 
310 7 143 432 29 91 40 116 381 
311 7 175 7 426 389 59 128 379 
312 7 268 35 166 217 318 278 273 
313 3 251 316 53 
314 6 343 453 164 6 157 245 
315 7 436 102 87 33 37 337 260 
316 4 242 313 424 53 
317 4 437 354 148 19 
318 7 35 372 22 166 220 268 273 
319 5 224 5 384 383 320 
320 7 5 244 213 227 319 383 224 
321 6 345 194 290 4 23 308 
322 6 57 184 188 374 424 413 
323 7 203 21 59 331 69 173 294 
324 5 375 285 56 107 287 
325 7 427 47 419 446 297 131 149 
326 7 240 3 118 246 28 123 406 
327 7 214 338 16 83 122 115 276 
328 7 252 13 63 282 27 77 296 
329 7 2 273 22 205 395 278 220 
330 7 456 178 132 43 335 281 287 
331 7 21 113 59 323 18 203 247 
332 6 247 38 331 352 113 236 
333 5 231 104 198 308 130 
334 6 134 55 293 129 444 147 
335 7 65 230 178 281 330 456 415 
336 5 380 127 284 99 105 
337 6 190 33 199 245 87 102 
338 7 122 327 15 165 16 395 32 
339 6 61 181 263 235 306 349 
340 5 168 142 210 187 9 
341 7 36 49 292 52 96 82 62 
342 6 111 74 72 283 355 215 
343 7 314 164 453 245 6 199 190 
344 7 457 89 259 248 81 304 376 
345 6 194 321 4 23 290 459 
346 7 274 368 428 73 25 359 160 
347 5 272 116 439 40 143 
348 6 169 269 85 29 107 132 
349 6 306 212 233 442 92 391 
350 6 410 94 90 362 402 431 
351 7 405 110 39 206 299 48 393 
352 7 261 236 288 430 69 279 203 
353 7 103 360 20 131 234 136 201 
354 7 148 409 437 75 19 197 441 
355 6 254 301 66 74 157 412 
356 7 58 108 302 84 99 300 10 
357 6 243 45 406 12 275 191 
358 7 170 101 351 403 405 299 385 
359 7 25 151 154 270 60 291 228 
360 7 353 131 103 149 218 20 325 
361 5 390 144 50 379 30 
362 7 90 94 228 350 154 270 241 
363 7 79 242 17 188 280 424 370 
364 7 370 237 225 17 280 79 41 
365 6 267 106 440 429 114 189 
366 7 80 44 115 83 214 16 327 
367 7 76 18 222 113 286 289 307 
368 7 274 346 428 73 160 218 60 
369 7 407 195 140 180 136 381 91 
370 7 364 237 17 79 280 225 363 
371 4 390 361 78 125 
372 7 318 35 220 451 22 400 205 
373 7 95 399 257 398 304 249 401 
374 6 138 188 41 280 225 415 
375 5 56 107 324 269 169 
376 7 223 24 422 152 248 146 238 
377 6 14 78 221 371 226 382 
378 7 433 237 100 423 364 155 370 
379 7 426 144 7 128 389 50 425 
380 7 336 99 58 108 300 84 127 
381 7 91 140 85 195 432 310 180 
382 7 202 139 204 153 30 78 50 
383 6 216 384 5 319 224 320 
384 4 224 319 383 5 
385 7 458 405 393 206 351 54 408 
386 7 266 71 264 153 397 204 202 
387 7 458 302 356 385 84 305 54 
388 3 20 149 174 
389 5 426 175 379 311 7 
390 5 361 371 144 50 30 
391 7 32 165 2 233 395 212 122 
392 7 176 260 26 141 161 120 37 
393 7 206 408 54 97 110 405 39 
394 7 447 67 62 52 226 125 239 
395 7 205 165 15 2 32 329 22 
396 6 8 126 11 287 43 285 
397 7 71 417 286 196 386 153 222 
398 6 257 304 95 373 344 235 
399 7 373 95 249 401 145 257 304 
400 7 451 220 15 372 22 205 395 
401 4 249 399 177 95 
402 7 431 410 171 241 124 184 70 
403 7 101 170 358 385 351 117 405 
404 5 277 429 106 267 365 
405 7 351 110 206 393 39 48 97 
406 7 45 12 275 240 357 191 326 
407 7 369 195 136 140 180 51 123 
408 7 54 97 393 206 216 110 383 
409 7 148 354 197 75 441 19 437 
410 6 402 431 350 171 241 90 
411 7 163 162 100 64 209 423 232 
412 5 74 301 254 355 342 
413 6 208 448 207 374 415 46 
414 7 167 135 98 63 182 6 296 
415 7 448 230 138 335 41 374 155 
416 7 446 149 47 419 219 93 325 
417 7 196 286 222 367 397 76 113 
418 6 133 438 419 47 446 219 
419 7 47 446 325 427 418 438 133 
420 5 129 443 55 161 334 
421 6 60 160 434 151 243 228 
422 7 271 24 223 238 152 376 146 
423 7 100 209 163 433 65 155 378 
424 7 57 242 322 188 363 17 79 
425 7 307 289 128 50 144 7 379 
426 6 379 389 7 311 144 128 
427 7 325 297 419 218 47 131 73 
428 7 274 368 218 73 346 131 160 
429 7 106 404 267 277 365 114 440 
430 6 352 261 72 236 279 288 
431 7 402 410 171 184 124 70 68 
432 7 310 29 91 143 381 85 40 
433 7 378 100 423 237 163 155 209 
434 6 234 160 421 201 60 243 
435 4 227 319 5 224 
436 7 87 102 33 337 315 190 199 
437 7 354 148 409 317 75 19 197 
438 4 418 419 47 133 
439 6 272 459 158 23 347 452 
440 4 365 114 267 106 
441 7 75 19 197 186 121 409 148 
442 6 233 212 92 278 349 391 
443 3 420 129 55 
444 7 293 134 98 167 77 147 13 
445 6 452 179 9 187 459 4 
446 7 47 419 325 416 418 149 133 
447 7 67 394 62 52 125 239 36 
448 6 415 413 138 230 46 374 
449 6 82 239 52 62 67 125 
450 4 192 72 215 186 
451 7 220 400 15 22 205 372 395 
452 7 445 459 179 4 23 194 9 
453 7 314 343 164 135 6 157 193 
454 7 14 377 204 202 153 382 266 
455 2 297 73 
456 7 330 132 178 335 43 281 287 
457 7 89 248 344 259 146 376 24 
458 7 385 393 206 54 387 405 408 
459 6 23 439 272 452 194 445 
DEPOT_SECTION
   1
   -1
EOF
