NAME :  X-n502-kX-w200-c11.cctp
COMMENT : 	Adapted by Maziero, Usberti and Cavellucci from the Uchoa, Pecin, Pessoa, Poggi, Subramanian, and Vidal (2013)
TYPE :  CCTP
DIMENSION :    500
EDGE_WEIGHT_TYPE : 	EUC_2D	
CAPACITY : 	13
VERTICES_WITHIN_COVERAGE :  11
VERTICES_WITH_DEMAND : 	200
NODE_COORD_SECTION
1 0 0
2 159 917
3 635 200
4 278 907
5 667 141
6 119 954
7 29 448
8 590 87
9 375 990
10 511 374
11 298 957
12 107 911
13 323 766
14 161 892
15 151 912
16 438 1000
17 284 933
18 724 191
19 286 940
20 144 785
21 672 157
22 759 176
23 553 179
24 625 167
25 133 924
26 695 73
27 149 946
28 599 162
29 305 712
30 229 709
31 332 874
32 756 143
33 696 248
34 94 777
35 381 975
36 224 928
37 414 951
38 910 190
39 749 162
40 668 273
41 146 786
42 17 793
43 255 883
44 326 837
45 549 226
46 137 868
47 74 977
48 618 248
49 328 898
50 62 802
51 177 914
52 646 208
53 666 142
54 591 205
55 163 873
56 721 164
57 623 153
58 333 956
59 237 874
60 729 102
61 330 896
62 192 949
63 446 930
64 148 897
65 92 876
66 389 942
67 131 847
68 237 990
69 594 149
70 780 190
71 719 271
72 168 982
73 278 911
74 256 896
75 279 903
76 613 47
77 597 187
78 440 296
79 320 872
80 261 925
81 301 931
82 599 218
83 227 860
84 591 189
85 319 992
86 617 172
87 118 839
88 117 909
89 578 300
90 503 966
91 232 907
92 34 955
93 191 816
94 273 42
95 171 877
96 132 920
97 113 906
98 581 125
99 138 910
100 149 870
101 622 303
102 278 845
103 587 60
104 234 818
105 310 832
106 568 227
107 711 167
108 728 251
109 185 937
110 110 840
111 254 945
112 140 937
113 238 919
114 9 875
115 97 799
116 804 100
117 243 927
118 310 938
119 171 826
120 677 213
121 708 166
122 151 931
123 262 920
124 121 769
125 149 660
126 199 749
127 78 738
128 323 963
129 63 799
130 233 931
131 693 170
132 673 156
133 213 980
134 620 191
135 125 946
136 748 117
137 250 926
138 661 327
139 147 831
140 181 923
141 548 235
142 682 157
143 263 898
144 469 339
145 144 915
146 569 234
147 577 450
148 598 231
149 693 229
150 227 952
151 211 643
152 12 942
153 288 969
154 734 312
155 641 37
156 241 761
157 618 206
158 156 915
159 712 391
160 74 787
161 705 109
162 240 902
163 603 338
164 572 363
165 620 204
166 272 925
167 652 231
168 585 299
169 107 789
170 617 223
171 242 907
172 601 240
173 453 388
174 301 889
175 246 818
176 356 916
177 681 238
178 607 119
179 351 970
180 159 896
181 582 156
182 472 257
183 143 878
184 113 926
185 236 888
186 738 73
187 677 194
188 716 196
189 532 304
190 334 772
191 514 326
192 220 712
193 631 121
194 531 262
195 707 228
196 617 160
197 624 151
198 609 191
199 599 228
200 210 727
201 481 78
202 239 749
203 650 373
204 550 138
205 393 807
206 195 806
207 81 873
208 375 829
209 506 104
210 104 898
211 674 225
212 271 910
213 222 806
214 655 37
215 324 847
216 622 54
217 399 213
218 101 875
219 668 402
220 30 895
221 241 842
222 627 176
223 869 235
224 812 223
225 561 286
226 171 973
227 582 242
228 651 183
229 175 840
230 365 946
231 215 770
232 125 924
233 296 984
234 682 174
235 165 846
236 136 982
237 397 821
238 185 807
239 236 972
240 278 948
241 338 880
242 759 215
243 498 51
244 177 962
245 253 878
246 190 865
247 612 266
248 204 902
249 169 877
250 101 877
251 586 247
252 242 885
253 235 775
254 585 201
255 592 164
256 461 897
257 652 246
258 267 899
259 204 860
260 298 852
261 156 936
262 135 977
263 268 927
264 303 918
265 110 877
266 625 248
267 265 857
268 592 325
269 715 115
270 565 376
271 306 759
272 208 961
273 120 892
274 115 963
275 33 726
276 750 227
277 432 927
278 97 802
279 552 303
280 257 846
281 191 873
282 595 189
283 190 815
284 175 949
285 359 932
286 458 246
287 175 872
288 486 173
289 320 818
290 207 945
291 32 894
292 183 837
293 76 937
294 154 972
295 215 886
296 647 225
297 90 963
298 635 199
299 310 860
300 757 281
301 528 222
302 187 947
303 568 144
304 179 893
305 429 939
306 323 841
307 527 77
308 116 883
309 792 274
310 611 282
311 170 927
312 776 408
313 136 925
314 161 968
315 575 237
316 283 911
317 684 269
318 303 957
319 98 843
320 608 145
321 136 934
322 412 885
323 435 879
324 421 265
325 189 916
326 296 925
327 394 969
328 161 856
329 222 947
330 189 816
331 470 256
332 239 875
333 171 888
334 433 776
335 434 170
336 205 941
337 55 872
338 354 803
339 612 189
340 135 857
341 664 215
342 145 863
343 740 71
344 102 946
345 592 250
346 519 99
347 214 884
348 402 983
349 593 174
350 118 922
351 738 121
352 41 948
353 350 705
354 544 124
355 196 681
356 160 889
357 159 858
358 654 195
359 782 275
360 328 864
361 605 668
362 241 885
363 740 404
364 266 914
365 717 180
366 458 81
367 684 230
368 301 860
369 180 920
370 301 865
371 294 964
372 383 912
373 559 143
374 747 383
375 433 966
376 563 258
377 827 145
378 294 784
379 147 707
380 173 944
381 298 915
382 175 923
383 333 919
384 280 869
385 596 219
386 614 286
387 104 861
388 279 771
389 188 938
390 100 840
391 117 866
392 722 126
393 215 853
394 276 893
395 444 296
396 547 286
397 213 803
398 86 990
399 173 947
400 672 173
401 130 983
402 360 987
403 718 192
404 66 817
405 657 97
406 33 914
407 649 414
408 680 208
409 623 266
410 678 101
411 270 864
412 620 232
413 335 935
414 451 57
415 295 987
416 101 738
417 359 881
418 158 934
419 182 919
420 717 177
421 653 54
422 683 139
423 381 928
424 277 962
425 645 238
426 608 267
427 625 217
428 565 76
429 523 188
430 519 855
431 165 947
432 305 922
433 406 294
434 125 702
435 227 858
436 774 36
437 611 204
438 107 703
439 209 979
440 557 175
441 80 903
442 172 890
443 203 984
444 665 200
445 230 892
446 138 914
447 270 872
448 702 198
449 737 258
450 150 975
451 666 196
452 174 804
453 266 959
454 142 936
455 142 976
456 79 750
457 208 836
458 439 240
459 438 339
460 841 230
461 289 910
462 191 888
463 309 861
464 242 958
465 408 932
466 243 954
467 616 200
468 729 281
469 642 230
470 707 106
471 395 678
472 134 820
473 514 197
474 547 236
475 660 98
476 0 923
477 190 870
478 302 673
479 50 967
480 79 930
481 628 254
482 3 965
483 159 988
484 613 252
485 229 833
486 343 877
487 255 772
488 626 246
489 332 921
490 214 861
491 117 872
492 119 964
493 370 865
494 632 243
495 304 893
496 52 899
497 434 232
498 288 773
499 301 905
500 284 799
DEMAND_SECTION
2 1
3 1
4 1
5 1
6 1
7 1
8 1
9 1
10 1
11 1
12 1
13 1
14 1
15 1
16 1
17 1
18 1
19 1
20 1
21 1
22 1
23 1
24 1
25 1
26 1
27 1
28 1
29 1
30 1
31 1
32 1
33 1
34 1
35 1
36 1
37 1
38 1
39 1
40 1
41 1
42 1
43 1
44 1
45 1
46 1
47 1
48 1
49 1
50 1
51 1
52 1
53 1
54 1
55 1
56 1
57 1
58 1
59 1
60 1
61 1
62 1
63 1
64 1
65 1
66 1
67 1
68 1
69 1
70 1
71 1
72 1
73 1
74 1
75 1
76 1
77 1
78 1
79 1
80 1
81 1
82 1
83 1
84 1
85 1
86 1
87 1
88 1
89 1
90 1
91 1
92 1
93 1
94 1
95 1
96 1
97 1
98 1
99 1
100 1
101 1
102 1
103 1
104 1
105 1
106 1
107 1
108 1
109 1
110 1
111 1
112 1
113 1
114 1
115 1
116 1
117 1
118 1
119 1
120 1
121 1
122 1
123 1
124 1
125 1
126 1
127 1
128 1
129 1
130 1
131 1
132 1
133 1
134 1
135 1
136 1
137 1
138 1
139 1
140 1
141 1
142 1
143 1
144 1
145 1
146 1
147 1
148 1
149 1
150 1
151 1
152 1
153 1
154 1
155 1
156 1
157 1
158 1
159 1
160 1
161 1
162 1
163 1
164 1
165 1
166 1
167 1
168 1
169 1
170 1
171 1
172 1
173 1
174 1
175 1
176 1
177 1
178 1
179 1
180 1
181 1
182 1
183 1
184 1
185 1
186 1
187 1
188 1
189 1
190 1
191 1
192 1
193 1
194 1
195 1
196 1
197 1
198 1
199 1
200 1
201 1
COVERAGE_SECTION
2 11 158 15 145 311 122 382 418 51 261 180 369 
3 11 298 52 165 134 157 467 358 427 228 437 222 
4 11 73 75 316 212 461 258 364 394 143 166 123 
5 11 53 132 422 21 142 400 234 131 193 410 197 
6 11 135 274 492 344 321 112 262 184 454 297 27 
7 11 125 151 438 434 275 379 355 127 416 456 192 
8 11 103 428 178 98 76 216 193 354 303 320 69 
9 11 402 35 327 348 179 230 66 58 37 85 128 
10 11 191 270 144 173 164 189 459 279 268 396 163 
11 11 318 371 153 19 118 240 424 81 128 233 17 
12 11 97 88 210 184 350 232 273 96 441 25 308 
13 11 190 271 378 498 388 338 500 289 29 105 353 
14 11 356 180 333 442 64 249 95 304 55 15 183 
15 11 158 145 2 99 446 64 180 122 313 96 14 
16 11 375 348 327 37 35 305 9 63 90 277 465 
17 11 19 166 326 240 81 263 316 73 381 80 264 
18 11 403 188 365 420 448 56 107 121 131 22 39 
19 11 17 240 81 326 11 166 263 118 318 424 371 
20 11 41 124 452 472 169 139 238 115 119 278 34 
21 11 132 142 53 400 5 234 422 131 228 121 187 
22 11 39 70 32 18 242 56 365 420 403 188 107 
23 11 440 429 373 181 303 84 254 349 204 255 282 
24 11 86 222 196 57 197 134 28 339 320 198 228 
25 11 313 96 232 321 446 145 99 112 350 454 122 
26 11 410 470 161 186 475 60 343 405 421 269 214 
27 11 261 454 112 122 418 431 321 135 380 399 313 
28 11 255 349 69 181 196 320 86 77 24 57 197 
29 11 478 353 271 13 498 388 190 378 30 202 487 
30 11 192 200 202 355 126 156 231 253 151 487 29 
31 11 241 360 486 79 61 49 299 463 215 417 370 
32 11 39 136 351 22 392 56 60 269 107 420 70 
33 11 177 149 367 195 317 108 211 71 40 120 449 
34 11 169 115 160 278 124 456 129 416 50 127 404 
35 11 327 9 348 402 179 230 66 37 423 285 465 
36 11 130 113 117 329 91 336 150 290 137 171 162 
37 11 305 465 375 66 327 277 348 63 423 35 230 
38 11 223 460 377 224 70 116 309 22 242 359 32 
39 11 22 32 56 420 365 18 107 121 70 351 403 
40 11 317 257 177 33 425 481 167 367 409 494 211 
41 11 20 124 452 472 169 238 139 119 115 278 330 
42 11 50 129 404 160 275 456 34 115 278 114 127 
43 11 245 74 252 362 143 332 447 59 185 258 394 
44 11 306 215 105 289 360 299 463 260 368 79 31 
45 11 141 474 106 301 146 315 376 227 194 251 254 
46 11 342 340 100 183 391 491 67 357 55 308 328 
47 11 398 297 479 293 344 274 352 92 480 492 6 
48 11 484 266 488 481 494 412 172 247 409 426 170 
49 11 61 241 383 489 31 495 486 79 174 499 264 
50 11 129 404 160 115 278 34 42 169 390 319 456 
51 11 369 419 382 140 325 311 2 158 304 109 180 
52 11 3 298 358 296 341 444 469 427 451 167 228 
53 11 5 21 132 422 142 400 234 131 193 197 410 
54 11 254 82 385 84 282 77 437 198 199 467 339 
55 11 249 95 287 100 356 357 328 333 14 442 183 
56 11 107 121 420 365 18 39 403 131 188 392 448 
57 11 197 196 24 320 86 222 28 69 193 255 349 
58 11 128 413 179 118 318 230 11 285 489 383 85 
59 11 332 252 362 185 245 83 435 445 43 295 347 
60 11 269 351 470 136 161 392 186 343 26 32 410 
61 11 49 241 31 383 486 489 79 495 174 499 360 
62 11 302 389 109 336 290 284 399 244 272 380 431 
63 11 277 305 256 37 375 465 323 322 66 327 423 
64 11 180 14 356 15 99 145 158 183 446 2 333 
65 11 218 250 207 265 387 210 308 491 391 441 273 
66 11 423 465 230 37 327 372 285 35 305 176 348 
67 11 340 87 342 46 110 139 391 472 100 491 357 
68 11 239 133 439 464 443 466 150 272 453 329 111 
69 11 28 181 255 320 196 349 303 98 57 197 86 
70 11 22 242 39 224 276 32 18 403 56 188 365 
71 11 468 108 449 33 317 300 154 195 149 177 40 
72 11 226 483 314 294 450 244 455 236 262 284 399 
73 11 4 316 212 75 461 364 166 258 123 394 263 
74 11 143 258 43 162 171 245 252 362 394 212 364 
75 11 4 73 316 394 212 461 258 143 364 381 499 
76 11 216 103 155 421 214 8 428 405 475 178 193 
77 11 282 84 198 349 339 254 54 437 134 467 255 
78 11 395 433 324 459 182 331 144 286 458 497 191 
79 11 360 31 299 463 241 370 368 486 174 215 61 
80 11 123 263 137 166 364 117 212 111 73 17 113 
81 11 326 432 118 264 381 17 19 461 11 318 499 
82 11 385 199 148 54 437 170 157 172 254 165 412 
83 11 435 490 393 59 332 221 259 347 485 185 252 
84 11 282 77 254 349 54 198 339 255 437 467 28 
85 11 233 415 128 318 371 58 153 179 11 402 424 
86 11 24 222 196 339 134 57 28 198 197 349 77 
87 11 110 67 390 319 340 472 387 391 139 491 46 
88 11 97 12 350 184 210 232 273 96 99 25 446 
89 11 168 225 279 268 396 310 386 101 163 376 426 
90 11 63 375 16 305 256 277 37 465 348 327 323 
91 11 162 171 113 445 185 36 117 130 252 362 74 
92 11 352 479 152 482 406 47 293 476 480 297 496 
93 11 283 330 206 238 452 119 292 397 457 229 213 
94 11 414 366 335 201 217 243 209 497 288 346 307 
95 11 249 287 55 333 442 356 14 304 281 477 180 
96 11 25 313 232 446 99 145 350 321 88 112 454 
97 11 88 12 210 273 350 184 232 308 96 99 446 
98 11 303 69 178 373 181 204 320 354 8 28 255 
99 11 446 145 96 15 25 313 64 158 232 88 2 
100 11 342 183 46 55 357 328 340 249 356 95 14 
101 11 386 310 168 268 409 247 426 163 89 138 481 
102 11 267 260 280 411 384 368 447 370 105 299 463 
103 11 8 428 76 216 155 178 307 98 421 214 193 
104 11 175 485 213 221 397 457 280 393 206 435 83 
105 11 306 44 289 215 260 299 368 463 370 102 360 
106 11 146 315 45 227 141 474 251 385 148 199 254 
107 11 121 56 420 365 131 403 18 188 234 142 448 
108 11 449 71 468 195 33 276 149 300 242 317 177 
109 11 389 302 62 380 140 284 399 382 311 369 419 
110 11 87 390 319 67 387 391 340 472 491 218 265 
111 11 466 453 464 137 80 117 263 240 130 123 166 
112 11 454 321 27 122 313 25 261 135 418 96 232 
113 11 117 91 130 171 137 36 162 80 123 364 445 
114 11 220 291 337 406 476 496 152 207 441 352 404 
115 11 278 169 34 160 129 50 404 124 390 110 472 
116 11 377 136 32 351 343 186 436 60 39 392 22 
117 11 137 113 130 80 36 123 171 111 91 162 263 
118 11 81 432 326 318 264 11 19 413 17 381 128 
119 11 229 292 235 330 93 283 452 238 139 206 328 
120 11 408 211 341 367 444 187 451 149 177 358 448 
121 11 107 56 420 131 365 234 142 403 18 188 448 
122 11 261 418 454 112 27 321 2 313 145 158 15 
123 11 80 364 263 166 137 212 73 117 4 143 258 
124 11 169 20 34 41 416 115 278 456 160 127 472 
125 11 379 434 355 438 151 192 200 416 30 126 127 
126 11 200 231 202 192 156 253 30 397 206 238 452 
127 11 456 416 34 438 275 160 124 169 434 129 115 
128 11 58 318 11 118 85 179 371 413 233 153 415 
129 11 50 160 404 115 278 34 169 42 456 390 319 
130 11 36 117 113 137 329 150 91 111 466 171 464 
131 11 234 121 142 107 400 132 21 420 365 56 187 
132 11 21 142 5 53 400 234 422 131 228 121 187 
133 11 439 443 272 239 68 150 329 290 464 62 244 
134 11 339 467 198 165 157 437 3 222 298 86 77 
135 11 6 321 112 492 274 454 232 25 184 344 27 
136 11 351 60 32 392 269 470 161 39 186 343 56 
137 11 117 80 123 113 130 263 111 364 171 166 36 
138 11 101 203 40 163 317 386 310 268 409 154 219 
139 11 472 67 235 119 229 328 340 87 357 342 292 
140 11 369 419 382 51 325 311 109 389 380 2 302 
141 11 474 45 146 106 301 315 376 194 227 251 345 
142 11 132 21 131 234 422 400 5 53 121 107 187 
143 11 258 74 212 394 364 4 43 75 73 123 245 
144 11 459 191 395 78 173 10 189 433 182 331 324 
145 11 446 15 99 158 96 313 25 2 122 64 232 
146 11 106 315 227 141 251 45 474 376 345 148 199 
147 11 270 407 164 10 219 203 163 268 173 191 159 
148 11 199 172 385 82 227 251 345 170 412 315 48 
149 11 367 195 177 33 211 120 408 341 448 187 188 
150 11 329 464 466 272 290 130 239 36 336 111 117 
151 11 355 125 30 192 200 379 478 434 126 202 29 
152 11 476 482 92 352 406 479 220 291 496 293 114 
153 11 371 424 11 233 318 415 240 453 19 17 128 
154 11 468 300 71 449 108 359 317 309 374 33 138 
155 11 214 421 216 76 103 405 475 26 8 410 193 
156 11 202 253 487 231 388 126 200 213 498 397 30 
157 11 165 467 437 427 134 170 198 3 298 339 82 
158 11 2 15 145 122 311 446 99 180 418 64 51 
159 11 363 374 219 203 312 407 138 154 468 300 71 
160 11 129 50 34 115 278 404 169 456 127 124 416 
161 11 470 269 392 60 410 351 26 422 136 475 186 
162 11 171 91 445 185 74 113 252 362 143 43 117 
163 11 268 101 164 168 89 386 270 310 138 203 279 
164 11 270 163 268 10 89 279 168 191 189 101 225 
165 11 157 467 437 134 427 3 298 198 339 170 82 
166 11 263 80 123 364 17 73 212 316 4 19 137 
167 11 296 425 469 257 341 211 494 52 177 427 488 
168 11 89 225 268 310 386 279 101 426 396 163 247 
169 11 115 278 34 124 160 20 41 472 129 50 456 
170 11 412 427 157 82 165 199 437 148 385 172 467 
171 11 162 91 113 74 445 117 185 137 252 362 143 
172 11 148 199 345 251 484 48 227 412 82 385 170 
173 11 459 144 10 191 395 78 433 270 189 164 324 
174 11 495 499 370 461 79 394 75 381 49 316 4 
175 11 104 485 221 213 280 397 102 457 500 267 253 
176 11 285 383 489 372 413 423 230 49 61 417 241 
177 11 367 149 211 33 120 195 341 167 257 408 317 
178 11 193 320 98 69 8 197 57 196 28 181 303 
179 11 402 58 230 128 35 9 413 85 285 327 66 
180 11 14 356 64 333 442 15 158 304 2 249 95 
181 11 255 69 28 303 349 373 320 98 440 77 84 
182 11 331 286 458 497 395 78 324 194 301 473 189 
183 11 100 46 342 64 356 55 340 14 180 249 357 
184 11 350 232 12 88 25 96 97 135 313 344 321 
185 11 362 252 445 332 59 162 91 43 171 245 295 
186 11 343 60 26 136 470 269 351 161 436 392 410 
187 11 451 444 408 120 234 400 358 341 448 228 131 
188 11 403 18 448 365 420 107 121 56 195 131 408 
189 11 279 396 191 225 194 89 168 376 268 474 141 
190 11 13 271 338 378 498 289 388 500 44 105 29 
191 11 189 279 144 10 396 225 194 89 164 270 168 
192 11 30 200 355 202 126 156 231 253 487 151 379 
193 11 178 197 57 320 405 475 5 53 196 24 69 
194 11 396 474 141 376 225 45 301 189 279 146 106 
195 11 149 33 367 177 448 108 188 211 120 408 403 
196 11 57 24 197 86 320 28 222 69 255 349 339 
197 11 57 196 24 320 86 222 28 69 193 255 178 
198 11 339 134 467 77 437 282 157 165 84 86 54 
199 11 148 385 82 172 170 412 227 251 345 54 315 
200 11 192 126 30 202 231 156 355 253 487 379 397 
201 11 366 243 209 414 346 307 354 428 204 288 373 
202 11 156 253 487 231 200 126 30 192 388 498 213 
203 11 219 407 138 163 159 101 268 164 270 386 363 
204 11 373 354 303 98 181 440 23 69 255 346 28 
205 11 237 208 338 334 493 190 44 289 306 215 322 
206 11 238 283 93 330 397 452 213 119 292 457 229 
207 11 65 218 250 337 387 265 441 210 319 308 491 
208 11 237 205 338 493 44 306 215 417 289 486 360 
209 11 346 307 201 354 366 243 204 428 373 288 414 
210 11 97 12 88 273 308 250 265 218 65 441 350 
211 11 367 120 341 177 408 149 167 296 444 257 451 
212 11 364 73 4 75 258 316 123 143 166 263 80 
213 11 397 104 175 206 485 93 283 457 253 330 231 
214 11 155 421 216 76 26 405 475 410 103 8 470 
215 11 306 44 360 299 105 463 79 260 368 31 289 
216 11 76 155 421 103 214 8 405 475 428 178 193 
217 11 497 458 335 324 286 433 331 182 78 395 288 
218 11 250 65 265 387 491 308 391 207 210 273 319 
219 11 407 203 159 363 138 374 163 147 164 270 268 
220 11 291 406 496 114 337 476 152 441 352 207 92 
221 11 485 280 435 83 104 175 267 393 59 332 490 
222 11 24 86 134 196 339 57 198 298 3 197 228 
223 11 460 224 38 309 359 377 70 242 276 300 22 
224 11 460 70 242 309 223 359 276 22 377 300 449 
225 11 396 279 89 168 376 189 194 251 345 227 268 
226 11 72 314 244 294 483 450 284 399 431 380 455 
227 11 251 315 345 146 148 172 106 199 376 385 82 
228 11 358 451 444 3 298 400 52 222 187 24 134 
229 10 292 235 119 328 357 330 93 139 246 283 
230 11 285 66 423 179 176 413 35 58 327 372 402 
231 11 253 126 156 202 397 213 487 206 200 238 283 
232 11 350 25 96 313 184 321 446 88 99 112 145 
233 11 415 153 371 85 11 318 424 128 453 240 19 
234 11 400 131 142 21 132 187 121 451 107 444 448 
235 10 328 229 357 292 119 139 342 55 287 100 
236 11 262 401 455 450 294 483 492 274 314 72 6 
237 11 205 208 338 493 334 322 323 417 44 215 289 
238 11 283 206 330 93 452 119 397 292 229 213 457 
239 11 464 68 466 150 133 439 329 272 111 453 443 
240 11 19 424 17 453 11 153 263 371 111 166 318 
241 11 486 31 61 360 79 49 417 299 463 493 215 
242 11 276 70 22 18 188 403 108 449 39 195 224 
243 11 201 307 414 366 346 209 428 354 103 8 204 
244 11 226 284 399 314 302 380 431 62 72 294 109 
245 11 43 252 332 362 59 74 447 185 143 411 267 
246 9 477 281 259 287 95 462 249 490 55 
247 11 426 409 484 310 48 386 481 266 488 345 172 
248 10 295 462 325 347 304 91 419 445 51 369 
249 11 95 55 287 333 442 356 14 304 100 180 357 
250 11 218 65 265 308 387 491 391 207 210 273 97 
251 11 227 345 315 172 148 146 199 376 106 484 385 
252 11 362 185 332 59 43 245 445 162 74 171 91 
253 11 156 487 231 202 213 397 104 126 175 388 206 
254 11 54 84 282 77 385 82 198 437 349 199 339 
255 11 28 349 181 69 77 84 196 282 320 86 303 
256 11 323 63 277 322 305 465 37 430 375 372 90 
257 11 425 167 469 494 296 481 488 266 177 211 40 
258 11 143 74 394 212 75 4 364 73 43 316 123 
259 9 490 393 246 477 281 83 435 457 347 
260 11 368 370 299 463 102 105 384 215 306 79 411 
261 11 418 122 27 431 454 112 311 2 380 321 399 
262 11 236 455 401 450 294 492 274 483 6 314 72 
263 11 166 80 123 364 17 212 137 73 4 19 316 
264 11 432 381 326 81 499 461 118 316 17 495 73 
265 11 308 218 250 491 391 387 65 273 210 46 97 
266 11 488 48 481 494 484 412 409 247 425 172 426 
267 11 411 280 447 102 384 245 43 221 332 59 260 
268 11 163 168 89 101 164 386 279 310 225 270 396 
269 11 161 470 392 60 351 136 410 422 26 186 56 
270 11 164 10 163 268 191 279 147 89 189 168 203 
271 11 13 498 378 388 190 500 29 487 289 156 338 
272 11 290 439 62 133 329 336 150 443 302 239 389 
273 11 308 97 88 210 265 491 12 250 99 218 391 
274 11 492 6 135 344 262 297 401 236 455 112 321 
275 11 127 456 42 416 160 438 129 34 50 434 115 
276 11 242 108 449 195 18 188 403 70 22 71 300 
277 11 305 63 465 37 375 256 66 322 323 372 423 
278 11 115 169 34 160 129 404 50 390 110 124 319 
279 11 396 225 189 89 168 191 194 268 376 163 164 
280 11 267 221 102 411 447 175 485 245 435 83 384 
281 9 477 246 462 287 259 95 249 304 333 
282 11 77 84 198 349 54 254 339 437 467 134 255 
283 11 93 330 238 206 452 119 292 397 457 229 213 
284 11 399 380 431 302 244 109 62 389 261 311 418 
285 11 230 176 423 413 383 489 372 66 58 179 49 
286 11 331 182 458 497 324 395 78 217 433 301 473 
287 11 95 249 55 477 281 333 246 442 304 328 357 
288 11 473 429 335 301 23 440 209 204 354 286 373 
289 11 105 44 306 215 338 260 500 299 378 463 368 
290 11 336 329 62 272 302 389 150 109 36 130 284 
291 11 220 406 496 114 337 476 441 152 207 352 480 
292 10 229 119 235 93 330 283 457 246 328 238 
293 11 480 344 297 441 352 184 12 47 479 350 496 
294 11 450 314 455 72 226 483 262 236 244 27 401 
295 10 347 445 248 185 462 59 490 332 362 91 
296 11 469 167 425 52 341 257 427 494 211 3 412 
297 11 47 344 274 398 492 6 293 480 135 479 184 
298 11 3 52 165 134 157 358 467 427 228 222 339 
299 11 463 368 370 260 79 360 215 306 31 44 105 
300 11 359 468 449 309 71 154 108 276 242 33 195 
301 11 45 141 474 473 429 106 194 146 315 23 376 
302 11 62 389 109 284 380 399 244 336 290 431 140 
303 11 373 181 204 98 69 255 354 440 28 23 349 
304 11 442 333 462 14 95 249 356 180 51 287 281 
305 11 277 37 63 465 375 66 327 423 348 256 372 
306 11 44 215 105 289 299 360 463 260 368 79 370 
307 11 346 209 428 243 201 354 103 8 204 366 98 
308 11 265 273 491 250 218 391 210 97 65 387 46 
309 11 359 300 224 449 276 468 460 108 242 154 71 
310 11 386 426 247 409 101 484 168 481 48 266 345 
311 11 382 140 369 418 419 2 51 261 380 109 158 
312 11 363 374 159 154 219 407 300 203 359 309 468 
313 11 25 96 321 232 446 112 145 454 99 122 350 
314 11 294 226 450 72 244 483 431 455 284 399 27 
315 11 146 227 106 251 345 148 376 172 199 141 45 
316 11 73 4 461 75 212 381 364 166 326 394 499 
317 11 40 33 177 71 257 367 149 211 195 468 108 
318 11 11 371 153 118 128 19 81 424 240 233 58 
319 11 390 110 387 87 391 218 67 65 207 250 491 
320 11 69 57 196 197 28 255 178 24 86 181 193 
321 11 112 454 313 25 96 122 232 135 27 261 446 
322 11 323 372 277 465 493 256 417 423 63 305 66 
323 11 322 256 277 63 465 305 372 493 237 423 37 
324 11 458 433 497 78 395 286 331 182 217 459 144 
325 11 419 369 140 51 382 109 248 311 389 304 462 
326 11 81 432 264 381 17 461 19 118 316 499 73 
327 11 35 348 37 66 9 230 402 375 465 179 423 
328 11 357 235 55 342 100 229 287 249 95 340 46 
329 11 150 290 336 36 130 272 466 464 117 239 62 
330 11 283 93 238 206 452 119 292 397 229 457 213 
331 11 182 286 458 497 395 78 324 194 301 433 473 
332 11 59 252 362 185 245 43 83 445 435 295 74 
333 11 442 304 14 95 249 356 180 287 55 462 64 
334 11 205 237 208 338 190 323 471 353 493 13 322 
335 11 288 217 497 458 286 473 429 366 331 182 324 
336 11 290 62 389 329 302 109 272 36 150 130 140 
337 11 207 496 291 220 65 441 114 218 250 406 387 
338 11 208 190 289 205 44 237 13 306 105 215 378 
339 11 198 134 467 77 437 165 282 86 157 222 84 
340 11 46 67 342 100 391 183 491 357 87 328 139 
341 11 120 211 444 408 52 451 167 296 358 187 367 
342 11 100 46 340 183 357 328 55 67 235 249 391 
343 11 186 60 26 136 470 436 351 269 161 392 410 
344 11 6 274 297 135 184 492 293 480 350 232 12 
345 11 251 172 227 148 315 484 199 426 48 247 146 
346 11 209 307 354 201 204 428 243 373 366 98 303 
347 10 295 445 248 185 462 490 59 281 259 83 
348 11 327 35 9 37 375 16 402 66 465 230 305 
349 11 255 28 77 84 282 181 198 86 339 69 196 
350 11 184 232 88 96 25 12 97 313 321 446 99 
351 11 136 392 60 269 32 470 161 39 56 186 343 
352 11 92 479 152 406 293 480 482 47 476 496 297 
353 11 29 471 478 13 190 271 498 378 388 338 334 
354 11 204 373 303 346 98 209 181 307 428 440 23 
355 11 192 151 30 200 125 379 126 434 202 231 156 
356 11 14 180 333 442 64 249 55 95 304 183 100 
357 11 328 235 342 55 100 249 287 95 46 229 340 
358 11 228 444 451 52 298 3 341 187 400 120 408 
359 11 309 300 449 468 276 108 224 154 71 242 460 
360 11 31 79 215 299 241 463 486 306 44 368 370 
361 11 334 430 471 147 205 237 353 407 256 323 219 
362 11 252 185 332 59 445 43 245 162 74 171 91 
363 11 374 159 312 219 154 407 203 138 468 300 71 
364 11 212 123 73 80 166 263 4 258 143 75 316 
365 11 420 403 18 107 56 188 121 448 131 234 39 
366 11 201 414 243 209 346 307 335 288 354 428 204 
367 11 149 177 211 120 33 408 195 341 167 257 444 
368 11 370 463 260 299 79 384 215 102 360 105 174 
369 11 419 140 382 51 325 311 109 389 2 158 380 
370 11 368 463 299 260 79 384 174 360 495 215 102 
371 11 11 153 318 424 233 240 415 19 453 128 118 
372 11 423 176 66 285 465 230 417 322 493 37 383 
373 11 303 204 354 181 98 440 23 69 255 28 349 
374 11 363 159 312 154 219 203 300 138 407 468 359 
375 11 37 305 16 348 63 277 327 465 66 35 9 
376 11 315 146 227 251 141 474 225 345 106 194 396 
377 11 116 70 32 22 224 39 136 460 351 38 242 
378 11 498 500 388 271 13 487 190 289 105 156 175 
379 11 434 438 125 355 416 200 124 126 192 127 20 
380 11 399 284 431 109 302 389 311 244 418 261 62 
381 11 264 326 432 461 499 81 316 73 4 75 17 
382 11 140 311 369 419 51 325 2 109 389 418 158 
383 11 489 413 49 61 176 432 285 118 264 81 381 
384 11 447 411 267 370 368 102 394 260 245 43 174 
385 11 82 199 148 54 170 254 437 172 157 227 412 
386 11 310 101 247 426 409 168 484 481 48 89 266 
387 11 218 391 250 265 491 65 319 390 110 308 87 
388 11 498 378 487 500 271 156 13 253 202 190 175 
389 11 109 302 62 380 140 284 336 399 290 369 382 
390 11 319 110 87 387 391 67 218 491 65 250 207 
391 11 491 265 387 308 218 250 46 340 67 273 65 
392 11 269 351 161 60 470 136 32 56 422 107 121 
393 10 490 259 435 83 457 485 221 246 59 477 
394 11 75 258 4 143 73 212 316 74 461 447 43 
395 11 78 433 324 459 182 331 144 286 458 497 191 
396 11 225 279 189 194 376 89 168 474 141 191 251 
397 11 213 206 93 104 283 330 238 231 457 485 175 
398 11 47 297 274 492 479 401 344 6 236 262 293 
399 11 284 380 431 302 109 244 389 62 261 311 418 
400 11 234 21 132 142 131 187 228 451 358 444 5 
401 11 236 262 455 450 492 274 294 483 6 314 135 
402 11 9 179 35 327 58 85 230 348 128 66 285 
403 11 188 18 365 420 448 107 56 121 131 195 234 
404 11 50 129 160 278 115 319 390 34 110 169 42 
405 11 475 410 193 421 5 26 53 161 422 470 178 
406 11 220 291 496 476 152 352 92 114 337 441 293 
407 11 219 203 159 147 138 163 164 270 363 374 268 
408 11 120 187 341 444 211 451 367 448 149 358 177 
409 11 247 481 426 484 266 48 310 488 386 494 172 
410 11 475 405 161 470 26 422 269 5 53 60 193 
411 11 447 267 384 102 245 280 43 260 394 368 370 
412 11 170 488 48 427 494 266 172 199 484 148 469 
413 11 489 383 58 285 118 176 128 230 432 81 264 
414 11 366 201 243 209 307 346 335 354 428 288 204 
415 11 233 153 371 85 11 318 424 128 453 240 19 
416 11 127 456 438 124 34 434 169 379 160 115 20 
417 11 486 493 241 31 61 49 176 360 372 79 383 
418 11 261 122 311 27 431 454 2 112 380 158 382 
419 11 369 140 51 325 382 311 109 389 2 158 304 
420 11 365 107 56 121 403 18 188 131 448 39 234 
421 11 214 155 216 76 405 475 26 410 103 8 193 
422 11 5 53 142 132 21 131 234 400 121 161 410 
423 11 66 372 285 230 465 176 37 327 35 413 305 
424 11 453 153 240 371 11 19 318 111 233 17 415 
425 11 469 167 257 296 494 488 266 481 412 48 427 
426 11 247 310 409 484 386 48 345 481 266 172 488 
427 11 170 157 165 412 437 467 3 298 469 52 296 
428 11 8 103 307 346 98 354 76 178 216 204 209 
429 11 473 23 301 440 288 45 141 474 204 373 106 
430 11 256 323 63 322 90 277 334 305 237 205 465 
431 11 399 380 284 261 418 27 244 122 311 314 109 
432 11 264 326 81 381 118 499 461 17 316 19 489 
433 11 324 78 395 459 458 497 286 331 182 144 217 
434 11 438 379 416 125 127 456 124 355 34 20 41 
435 11 83 393 490 59 221 332 259 485 347 457 295 
436 11 343 186 116 60 136 26 351 470 269 161 392 
437 11 467 157 165 198 339 134 82 427 54 170 385 
438 11 434 416 379 127 456 125 124 34 275 169 20 
439 11 133 443 272 239 68 150 62 290 329 244 226 
440 11 23 181 373 303 349 429 84 255 204 254 282 
441 11 210 480 12 496 65 207 97 250 293 218 88 
442 11 333 304 14 356 95 249 180 287 55 462 51 
443 11 439 133 272 226 244 68 72 239 62 290 150 
444 11 451 358 187 341 408 120 52 228 211 400 3 
445 11 185 362 162 252 91 295 347 59 171 332 74 
446 11 99 145 96 25 313 15 232 158 64 321 2 
447 11 411 384 267 245 43 394 143 258 74 102 280 
448 11 188 403 18 365 408 187 420 120 131 195 234 
449 11 108 71 468 300 276 33 195 242 359 149 154 
450 11 294 455 314 262 236 483 72 226 401 27 244 
451 11 444 187 358 408 341 120 228 52 400 234 211 
452 11 238 283 330 93 206 119 41 292 20 229 139 
453 11 424 240 111 153 464 466 19 371 11 17 263 
454 11 112 321 122 27 313 261 25 418 96 135 145 
455 11 262 236 450 294 401 314 483 492 72 226 274 
456 11 127 416 34 160 124 169 115 129 275 50 278 
457 10 393 485 259 292 93 490 283 330 435 83 
458 11 497 286 324 331 182 217 78 395 433 335 288 
459 11 144 78 395 173 433 324 191 10 182 331 286 
460 11 223 224 309 70 359 38 242 377 276 22 300 
461 11 316 381 4 73 75 499 264 326 212 432 394 
462 10 304 281 477 248 442 333 95 246 287 347 
463 11 299 368 370 260 79 360 215 306 31 44 105 
464 11 466 239 150 111 329 453 130 117 68 137 272 
465 11 37 66 305 277 423 372 63 327 375 230 322 
466 11 464 111 150 239 329 453 130 117 137 36 80 
467 11 157 165 437 134 198 339 3 298 427 77 170 
468 11 71 449 300 108 154 33 317 359 195 276 40 
469 11 296 425 167 494 257 427 52 412 488 266 170 
470 11 161 269 60 392 410 351 26 422 136 186 343 
471 11 353 478 29 334 190 13 271 205 338 237 498 
472 11 139 87 67 110 20 41 119 340 390 235 169 
473 11 429 301 288 23 45 440 141 474 106 146 194 
474 11 141 45 146 106 301 376 315 194 227 251 345 
475 11 405 410 193 26 5 53 421 161 422 470 178 
476 11 152 406 220 482 291 92 352 114 496 479 337 
477 9 281 246 287 259 462 95 249 304 333 
478 11 29 353 30 271 192 471 13 151 202 388 498 
479 11 92 352 47 293 297 398 152 480 482 344 406 
480 11 293 441 344 12 184 297 350 210 496 97 352 
481 11 266 488 48 494 409 484 247 412 425 426 257 
482 11 152 92 352 476 479 406 47 220 291 293 496 
483 11 72 450 294 226 314 455 236 262 401 244 431 
484 11 48 266 247 488 481 426 172 409 345 412 494 
485 11 221 104 457 175 393 435 83 213 280 490 397 
486 11 241 31 417 360 61 79 49 493 215 299 463 
487 11 156 253 388 202 498 231 500 378 175 213 104 
488 11 266 494 48 481 484 412 409 425 469 247 170 
489 11 383 413 49 61 176 432 118 264 285 81 58 
490 9 393 259 83 435 347 246 295 59 281 
491 11 391 265 308 218 250 387 46 273 340 65 183 
492 11 274 6 135 262 401 236 344 455 297 450 112 
493 11 417 486 241 208 31 360 322 215 372 79 61 
494 11 488 266 481 425 48 412 469 257 484 167 296 
495 11 174 499 381 461 49 264 61 79 75 316 370 
496 11 291 220 406 337 441 207 480 293 65 114 352 
497 11 458 286 324 217 331 182 335 78 395 433 288 
498 11 388 378 271 500 487 13 190 156 253 202 289 
499 11 381 495 264 461 174 432 316 326 75 4 73 
500 11 378 498 388 487 289 105 175 102 271 13 104 
DEPOT_SECTION
   1
   -1
EOF
