NAME :  X-n513-kX-w204-c7.cctp
COMMENT : 	Adapted by Maziero, Usberti and Cavellucci from the Uchoa, Pecin, Pessoa, Poggi, Subramanian, and Vidal (2013)
TYPE :  CCTP
DIMENSION :    419
EDGE_WEIGHT_TYPE : 	EUC_2D	
CAPACITY : 	142
VERTICES_WITHIN_COVERAGE :  7
VERTICES_WITH_DEMAND : 	204
NODE_COORD_SECTION
1 500 500
2 425 323
3 806 514
4 853 637
5 326 818
6 601 664
7 680 704
8 358 401
9 688 267
10 146 846
11 171 615
12 962 75
13 710 565
14 662 574
15 665 599
16 112 811
17 439 69
18 573 69
19 997 647
20 338 524
21 626 29
22 633 570
23 957 890
24 746 397
25 224 83
26 425 827
27 787 99
28 518 378
29 890 763
30 860 608
31 683 188
32 417 680
33 483 987
34 676 197
35 294 710
36 284 281
37 568 565
38 942 896
39 223 358
40 538 428
41 910 702
42 550 516
43 524 467
44 675 128
45 977 488
46 725 890
47 205 512
48 768 660
49 443 407
50 518 363
51 730 609
52 973 64
53 683 832
54 308 298
55 510 14
56 17 647
57 275 527
58 303 571
59 415 624
60 713 483
61 502 147
62 38 76
63 265 477
64 446 909
65 849 738
66 878 222
67 334 250
68 683 28
69 502 235
70 513 433
71 850 764
72 465 213
73 854 966
74 465 648
75 491 477
76 916 597
77 999 146
78 581 824
79 892 989
80 734 581
81 232 386
82 538 431
83 139 541
84 697 331
85 557 181
86 339 957
87 271 514
88 162 281
89 175 424
90 819 403
91 783 931
92 562 627
93 995 892
94 135 789
95 117 954
96 911 834
97 125 757
98 279 646
99 175 386
100 296 128
101 379 78
102 567 526
103 809 171
104 389 7
105 772 308
106 143 492
107 322 894
108 935 730
109 24 791
110 482 626
111 974 278
112 258 823
113 58 256
114 884 523
115 475 692
116 763 576
117 498 330
118 978 797
119 491 640
120 428 548
121 174 25
122 222 572
123 139 270
124 314 61
125 618 247
126 402 994
127 491 870
128 58 704
129 563 291
130 131 720
131 69 366
132 376 831
133 448 343
134 352 424
135 351 829
136 560 60
137 914 981
138 835 298
139 267 968
140 983 778
141 305 670
142 677 546
143 701 632
144 593 635
145 170 268
146 805 891
147 989 313
148 419 48
149 758 526
150 472 66
151 419 642
152 66 699
153 522 581
154 763 327
155 736 892
156 220 35
157 620 463
158 87 942
159 635 473
160 141 772
161 411 593
162 684 692
163 264 440
164 171 385
165 959 282
166 118 379
167 727 988
168 228 622
169 529 231
170 789 316
171 577 949
172 308 992
173 91 33
174 415 835
175 323 299
176 987 269
177 818 672
178 550 782
179 929 654
180 917 999
181 584 19
182 73 17
183 305 771
184 327 985
185 468 340
186 692 921
187 822 44
188 529 801
189 252 789
190 441 883
191 799 15
192 409 285
193 921 912
194 185 815
195 11 860
196 934 42
197 162 143
198 116 639
199 185 898
200 644 943
201 869 312
202 254 796
203 501 86
204 163 620
205 633 133
206 948 742
207 691 976
208 371 447
209 545 965
210 504 676
211 227 60
212 30 899
213 398 274
214 460 653
215 262 554
216 258 600
217 646 981
218 491 605
219 764 475
220 715 67
221 111 495
222 342 496
223 888 336
224 560 874
225 911 52
226 309 177
227 596 454
228 977 808
229 56 272
230 181 471
231 484 988
232 289 633
233 796 913
234 178 219
235 524 516
236 255 573
237 954 1
238 722 654
239 518 137
240 433 330
241 939 901
242 595 961
243 951 404
244 715 956
245 156 471
246 713 616
247 460 949
248 189 916
249 498 652
250 924 598
251 609 662
252 189 622
253 758 634
254 484 682
255 488 618
256 739 645
257 502 601
258 106 709
259 631 577
260 266 653
261 782 596
262 328 752
263 228 334
264 432 519
265 17 636
266 284 656
267 131 872
268 58 388
269 610 626
270 297 531
271 728 700
272 118 496
273 753 510
274 591 648
275 263 861
276 116 727
277 121 722
278 110 712
279 179 790
280 700 602
281 92 664
282 687 608
283 576 520
284 619 668
285 2 770
286 689 614
287 273 795
288 37 884
289 310 576
290 242 839
291 565 629
292 961 754
293 548 608
294 387 643
295 735 499
296 506 675
297 127 530
298 306 597
299 267 712
300 719 490
301 218 615
302 297 575
303 154 759
304 186 516
305 610 659
306 421 630
307 572 520
308 57 672
309 88 728
310 573 664
311 112 761
312 589 737
313 732 501
314 118 871
315 168 777
316 764 912
317 242 665
318 330 661
319 131 744
320 235 557
321 410 622
322 34 593
323 789 712
324 601 803
325 557 731
326 46 784
327 109 480
328 333 755
329 175 561
330 606 451
331 188 796
332 453 855
333 600 675
334 313 597
335 802 569
336 455 570
337 617 795
338 579 361
339 614 547
340 270 627
341 695 617
342 136 446
343 650 520
344 154 412
345 365 805
346 308 730
347 640 776
348 582 522
349 678 545
350 565 565
351 411 449
352 774 557
353 467 625
354 240 552
355 513 635
356 476 556
357 92 562
358 699 606
359 723 565
360 676 382
361 104 337
362 181 846
363 332 761
364 123 806
365 886 668
366 130 804
367 429 696
368 337 809
369 145 717
370 161 642
371 76 787
372 302 650
373 458 725
374 233 529
375 574 742
376 659 593
377 777 565
378 170 895
379 149 566
380 279 673
381 269 700
382 427 710
383 428 661
384 674 700
385 18 398
386 665 706
387 522 638
388 228 762
389 231 527
390 146 811
391 161 286
392 662 668
393 748 588
394 171 610
395 321 708
396 614 614
397 502 561
398 266 647
399 130 680
400 687 567
401 102 614
402 730 598
403 303 683
404 484 712
405 101 747
406 31 623
407 80 401
408 642 718
409 780 648
410 149 448
411 212 489
412 119 675
413 777 609
414 527 562
415 649 760
416 94 663
417 85 721
418 437 708
419 46 689
DEMAND_SECTION
2 8
3 2
4 10
5 7
6 10
7 7
8 7
9 2
10 9
11 9
12 1
13 3
14 9
15 4
16 10
17 3
18 4
19 2
20 8
21 2
22 9
23 2
24 8
25 8
26 5
27 8
28 4
29 5
30 9
31 8
32 5
33 2
34 10
35 1
36 3
37 9
38 3
39 8
40 4
41 2
42 6
43 8
44 9
45 4
46 1
47 6
48 2
49 1
50 10
51 3
52 4
53 2
54 7
55 3
56 6
57 1
58 5
59 4
60 1
61 7
62 4
63 9
64 7
65 5
66 4
67 6
68 10
69 1
70 6
71 1
72 8
73 3
74 5
75 5
76 6
77 1
78 9
79 1
80 2
81 5
82 10
83 7
84 6
85 5
86 10
87 4
88 6
89 10
90 3
91 10
92 4
93 10
94 3
95 8
96 9
97 3
98 2
99 8
100 7
101 7
102 8
103 2
104 9
105 4
106 9
107 1
108 6
109 8
110 1
111 8
112 2
113 5
114 6
115 4
116 10
117 4
118 4
119 2
120 9
121 2
122 2
123 5
124 9
125 1
126 5
127 2
128 9
129 7
130 8
131 10
132 8
133 3
134 5
135 8
136 9
137 3
138 9
139 9
140 7
141 9
142 5
143 3
144 1
145 9
146 1
147 6
148 2
149 5
150 8
151 3
152 5
153 7
154 5
155 2
156 1
157 2
158 7
159 7
160 9
161 4
162 5
163 3
164 9
165 2
166 6
167 5
168 7
169 9
170 10
171 9
172 2
173 7
174 8
175 2
176 9
177 7
178 8
179 5
180 6
181 10
182 10
183 3
184 5
185 4
186 4
187 3
188 6
189 8
190 8
191 9
192 9
193 4
194 5
195 9
196 5
197 7
198 8
199 10
200 3
201 2
202 3
203 3
204 8
205 6
COVERAGE_SECTION
2 7 240 133 192 185 213 117 49 
3 7 149 273 352 335 219 377 295 
4 7 30 365 177 409 76 179 250 
5 7 368 135 345 183 132 363 287 
6 7 251 305 333 284 274 310 144 
7 6 384 162 386 392 408 271 
8 7 134 208 351 49 222 163 2 
9 7 84 34 125 31 105 154 170 
10 7 267 362 390 314 366 364 16 
11 7 394 204 252 370 301 329 379 
12 7 52 196 225 237 77 187 66 
13 7 359 400 80 142 280 349 402 
14 7 376 15 400 22 259 142 349 
15 4 376 282 14 286 
16 7 364 366 94 390 371 10 160 
17 7 148 150 101 203 104 55 61 
18 7 136 181 21 203 55 239 205 
19 7 179 250 76 41 108 206 292 
20 7 222 270 58 289 57 302 87 
21 7 181 68 18 136 220 205 44 
22 6 259 14 339 376 15 396 
23 7 38 241 93 193 96 228 118 
24 7 154 360 90 219 84 60 170 
25 7 211 156 121 100 197 124 226 
26 5 174 332 132 190 345 
27 7 187 103 220 191 44 68 225 
28 7 50 117 40 70 82 185 338 
29 7 71 65 108 206 41 292 96 
30 7 4 76 250 365 335 177 261 
31 7 34 44 205 9 125 220 85 
32 5 367 383 382 418 151 
33 7 231 247 209 126 64 171 190 
34 7 31 44 9 125 205 85 84 
35 6 346 299 381 395 403 380 
36 7 54 175 67 263 39 226 213 
37 7 350 102 414 307 348 283 293 
38 7 241 23 193 93 96 137 228 
39 7 263 81 99 164 89 344 163 
40 7 82 70 43 28 227 50 75 
41 7 108 365 179 206 29 65 292 
42 7 102 307 235 283 348 350 414 
43 7 75 70 82 40 235 42 307 
44 7 205 31 34 220 68 21 27 
45 7 243 114 250 76 19 30 3 
46 7 155 186 316 244 91 53 233 
47 7 304 411 389 374 230 354 320 
48 7 409 253 256 238 177 413 323 
49 7 351 133 185 70 240 28 208 
50 7 28 117 185 338 40 70 82 
51 7 402 246 80 393 280 358 341 
52 7 12 196 225 237 77 187 191 
53 7 347 46 337 155 415 324 186 
54 7 175 36 67 263 213 192 39 
55 7 150 136 203 181 18 17 148 
56 6 265 406 308 419 322 128 
57 7 87 270 215 374 354 389 236 
58 6 302 289 298 334 270 215 
59 6 321 306 151 161 294 383 
60 7 300 313 295 273 219 149 349 
61 7 239 203 85 72 150 69 169 
62 7 173 182 197 121 113 25 156 
63 7 87 163 57 411 389 374 270 
64 7 190 247 332 127 174 26 33 
65 7 71 29 323 41 177 365 108 
66 7 103 138 201 165 111 223 176 
67 7 175 54 36 213 226 192 2 
68 7 220 21 181 44 205 18 191 
69 7 169 72 85 129 61 117 239 
70 7 40 82 43 75 28 50 49 
71 7 65 29 323 41 108 96 177 
72 7 69 169 61 192 213 239 85 
73 7 79 137 180 91 233 193 146 
74 7 214 353 119 110 249 255 254 
75 7 43 70 235 82 40 42 264 
76 7 250 30 179 4 365 114 19 
77 7 12 52 196 176 225 111 165 
78 7 324 337 178 224 188 347 375 
79 7 137 180 73 193 241 38 23 
80 7 393 402 359 51 13 116 280 
81 7 39 263 99 164 163 89 344 
82 7 40 70 43 28 227 75 50 
83 6 297 379 329 106 272 357 
84 7 360 9 154 105 24 170 125 
85 7 169 239 61 69 125 205 72 
86 7 184 172 107 126 139 64 247 
87 7 57 270 63 215 374 389 354 
88 7 391 145 123 234 361 263 39 
89 7 344 410 99 164 342 230 245 
90 7 24 219 170 154 223 201 105 
91 7 233 316 146 155 46 244 73 
92 7 291 293 144 274 310 387 269 
93 7 23 38 241 193 228 118 96 
94 7 366 160 364 390 16 97 315 
95 7 158 378 248 267 314 199 212 
96 7 38 228 23 241 29 118 193 
97 6 311 319 160 405 303 276 
98 7 266 398 260 232 340 372 380 
99 7 164 344 89 39 81 166 410 
100 7 226 124 25 101 211 156 67 
101 7 148 17 124 104 150 100 226 
102 7 307 283 348 42 37 350 235 
103 7 27 66 31 187 138 34 220 
104 7 148 101 17 124 150 55 203 
105 7 170 154 138 84 9 24 201 
106 7 245 272 221 327 297 230 410 
107 7 86 275 135 5 132 368 184 
108 7 206 292 41 29 140 179 365 
109 7 326 285 371 195 405 16 309 
110 7 255 353 119 218 74 249 257 
111 7 165 176 147 223 201 66 243 
112 7 290 202 287 189 275 5 388 
113 7 229 123 361 88 391 131 145 
114 7 3 76 250 30 335 45 352 
115 7 254 404 210 296 373 418 214 
116 7 377 393 352 261 80 413 335 
117 7 185 50 28 133 240 2 129 
118 7 228 140 292 206 96 108 29 
119 7 249 110 255 355 74 353 387 
120 7 264 336 161 356 397 321 59 
121 7 156 211 25 173 182 197 62 
122 7 320 354 236 301 215 374 216 
123 7 88 391 145 234 361 113 229 
124 7 101 100 211 104 25 156 148 
125 7 129 9 34 31 85 169 84 
126 7 86 247 184 33 231 172 64 
127 7 332 190 64 224 26 188 174 
128 7 152 419 308 417 309 258 281 
129 7 169 125 338 117 69 50 28 
130 6 277 369 276 278 319 258 
131 5 268 407 361 166 385 
132 6 135 345 174 368 26 5 
133 7 185 240 2 117 49 192 50 
134 7 8 208 351 222 163 49 20 
135 7 368 132 5 345 174 107 363 
136 7 18 181 203 55 21 150 239 
137 7 180 79 73 193 241 38 23 
138 7 201 170 105 223 154 66 90 
139 7 172 184 86 107 248 275 199 
140 7 118 228 292 206 108 96 29 
141 6 403 372 266 380 318 98 
142 7 349 400 14 343 13 22 359 
143 6 341 246 286 358 282 238 
144 7 274 269 291 305 6 396 251 
145 7 88 391 123 234 263 361 39 
146 7 233 91 316 155 46 73 244 
147 7 111 165 176 243 223 201 66 
148 7 17 101 104 150 203 55 124 
149 7 273 295 352 313 377 3 116 
150 7 17 203 148 55 239 61 136 
151 7 306 59 383 321 294 32 214 
152 7 128 419 308 417 309 258 281 
153 7 414 257 397 293 218 350 37 
154 7 105 170 84 24 138 90 9 
155 7 46 316 186 91 233 244 146 
156 7 211 121 25 124 100 197 173 
157 7 159 330 227 343 348 283 307 
158 7 95 212 288 314 267 378 248 
159 7 157 330 227 343 348 283 339 
160 6 94 303 97 315 319 311 
161 7 321 59 306 120 151 336 294 
162 6 7 384 386 392 271 408 
163 7 63 81 411 87 57 134 230 
164 7 99 344 89 166 39 81 410 
165 7 111 176 147 223 201 66 243 
166 7 361 407 344 131 164 99 268 
167 7 244 207 186 91 217 316 200 
168 7 301 216 252 340 317 398 260 
169 7 69 85 72 129 61 125 239 
170 7 105 154 138 201 24 90 84 
171 7 242 209 200 217 224 33 231 
172 7 184 86 139 126 107 275 248 
173 7 182 62 121 156 197 211 25 
174 6 26 132 332 190 345 135 
175 7 54 36 67 213 192 263 2 
176 7 111 165 147 66 223 77 201 
177 7 409 4 323 48 365 253 65 
178 7 188 375 325 78 324 312 337 
179 7 365 41 250 76 19 108 4 
180 7 137 79 73 193 241 38 23 
181 7 21 136 18 55 68 203 150 
182 7 173 62 121 156 197 211 25 
183 7 363 262 328 287 346 368 5 
184 7 172 86 139 126 107 247 275 
185 7 133 117 240 2 50 28 49 
186 7 244 46 155 200 207 316 167 
187 7 191 27 225 220 196 103 237 
188 7 178 78 324 375 325 127 224 
189 4 202 287 112 388 
190 7 64 332 127 174 26 247 132 
191 7 187 27 220 68 225 196 103 
192 7 213 2 240 133 185 67 175 
193 7 241 38 23 137 93 96 79 
194 5 331 279 362 390 315 
195 7 288 212 109 326 285 371 314 
196 7 225 12 52 237 187 77 191 
197 7 234 25 211 121 156 145 123 
198 7 401 416 281 412 399 370 204 
199 7 378 248 362 267 10 314 290 
200 7 217 242 186 207 171 244 167 
201 7 223 138 170 66 165 105 90 
202 5 189 287 112 388 290 
203 7 150 239 61 17 136 55 18 
204 6 11 394 370 252 198 301 
205 7 44 31 34 18 85 136 21 
206 7 108 292 140 41 29 118 228 
207 7 244 167 217 186 200 46 155 
208 7 134 351 8 222 49 20 264 
209 7 171 242 231 33 247 224 200 
210 4 296 254 249 115 
211 7 25 156 121 124 100 197 173 
212 7 288 195 158 314 95 267 109 
213 7 192 2 240 67 175 133 72 
214 7 74 353 383 119 110 249 254 
215 7 236 354 320 57 374 87 302 
216 7 236 340 168 301 232 122 215 
217 7 200 207 242 244 171 186 167 
218 7 257 255 110 353 119 355 153 
219 7 273 295 313 300 149 60 3 
220 7 68 44 27 21 191 205 187 
221 4 272 327 106 297 
222 7 20 208 270 87 134 57 63 
223 7 201 138 165 243 90 170 111 
224 7 78 127 171 188 324 209 178 
225 7 196 12 52 237 187 191 77 
226 7 100 67 36 124 54 101 175 
227 7 330 157 159 82 40 283 348 
228 7 118 140 292 96 206 23 93 
229 7 113 361 123 131 88 391 145 
230 7 245 411 410 106 304 89 47 
231 7 33 247 209 126 64 171 190 
232 6 98 340 372 266 398 260 
233 7 91 146 316 155 46 73 244 
234 7 145 88 123 391 197 36 263 
235 7 42 102 414 307 43 397 75 
236 7 215 320 354 216 122 302 58 
237 7 196 52 225 12 187 77 191 
238 7 256 143 246 253 48 51 271 
239 7 61 203 85 150 18 136 72 
240 7 2 133 185 192 117 213 49 
241 7 38 23 193 93 96 137 79 
242 7 171 209 200 217 224 207 186 
243 7 45 223 147 165 201 111 90 
244 7 207 167 186 316 46 155 91 
245 6 410 106 230 342 272 327 
246 7 358 51 341 280 143 286 402 
247 7 64 33 231 190 126 127 209 
248 7 199 378 362 267 95 10 314 
249 6 119 355 296 210 387 110 
250 7 76 179 30 365 4 114 19 
251 7 305 6 284 333 274 144 269 
252 7 11 394 204 301 370 168 122 
253 7 256 409 48 413 51 238 261 
254 5 115 210 296 404 249 
255 7 110 218 119 257 353 355 249 
256 7 238 253 48 51 246 143 409 
257 7 218 255 153 110 355 397 119 
258 7 278 277 276 417 309 130 412 
259 6 22 14 376 339 15 396 
260 6 398 98 266 380 340 317 
261 7 413 116 377 335 393 352 253 
262 5 328 363 183 346 395 
263 7 39 81 99 164 36 391 88 
264 7 120 336 356 75 351 161 397 
265 5 56 406 322 308 419 
266 7 98 260 380 372 398 232 141 
267 7 314 10 378 362 199 390 16 
268 4 131 407 385 166 
269 4 396 144 274 305 
270 7 57 87 58 20 215 302 289 
271 7 162 238 7 384 256 48 323 
272 4 221 327 106 297 
273 7 149 295 313 219 300 60 352 
274 7 144 6 305 251 310 333 269 
275 7 290 112 202 287 107 189 5 
276 7 277 278 130 258 319 405 309 
277 7 276 130 278 258 319 369 405 
278 7 258 277 276 130 309 417 369 
279 4 331 315 194 390 
280 7 358 282 286 341 246 143 402 
281 7 416 412 198 308 399 152 258 
282 6 286 341 358 280 15 246 
283 7 307 348 102 42 37 350 339 
284 5 251 305 6 333 274 
285 7 109 326 371 128 195 419 152 
286 6 282 341 358 280 143 246 
287 7 202 189 112 183 290 388 5 
288 7 212 195 158 314 109 267 326 
289 5 58 302 298 334 270 
290 7 112 275 202 189 287 362 194 
291 7 92 293 144 274 310 387 269 
292 7 206 140 108 118 228 29 41 
293 7 92 291 153 387 355 350 37 
294 3 321 151 59 
295 7 313 300 273 60 149 219 359 
296 4 210 254 249 115 
297 6 83 272 221 106 379 357 
298 5 334 289 302 58 232 
299 3 381 35 380 
300 7 60 313 295 273 219 149 349 
301 7 168 252 122 216 11 394 340 
302 7 58 289 298 334 215 236 270 
303 3 160 315 319 
304 7 47 411 230 329 389 106 374 
305 7 251 6 284 333 274 144 269 
306 7 59 151 321 383 294 161 214 
307 7 283 102 348 42 37 350 235 
308 7 419 152 128 281 416 56 265 
309 7 417 405 258 278 276 277 152 
310 7 274 6 333 144 251 291 305 
311 7 97 405 319 160 276 94 277 
312 6 375 325 408 178 333 337 
313 7 295 300 273 60 149 219 359 
314 7 267 10 378 16 364 390 362 
315 4 279 303 160 331 
316 7 91 233 155 46 146 244 186 
317 5 260 398 380 98 266 
318 1 141 
319 6 97 276 130 277 311 303 
320 7 354 122 236 215 374 389 216 
321 6 59 306 151 161 294 383 
322 3 406 265 56 
323 7 177 48 271 65 409 71 253 
324 7 337 78 347 178 415 312 375 
325 4 375 312 178 310 
326 7 109 371 285 405 309 311 16 
327 3 221 272 106 
328 4 262 363 183 346 
329 7 379 83 304 122 394 11 47 
330 7 227 157 159 82 40 283 348 
331 4 279 194 315 390 
332 7 190 26 127 174 64 132 188 
333 7 6 251 305 284 274 310 144 
334 4 298 289 302 58 
335 7 377 352 261 116 413 3 393 
336 7 356 120 397 161 218 257 264 
337 6 324 347 78 415 312 178 
338 7 50 28 129 40 82 117 330 
339 7 22 259 348 343 283 37 307 
340 7 232 398 98 260 216 266 372 
341 6 286 282 358 143 280 246 
342 6 410 245 344 327 89 106 
343 7 142 349 339 159 22 14 259 
344 6 89 164 99 410 342 166 
345 5 132 135 368 5 363 
346 7 35 395 262 328 363 183 299 
347 6 415 337 324 408 312 53 
348 7 283 307 102 42 339 37 350 
349 7 142 400 14 13 343 359 22 
350 7 37 414 102 153 283 293 307 
351 7 208 49 134 8 264 222 75 
352 7 377 116 335 149 261 393 80 
353 7 110 255 74 119 214 218 249 
354 7 320 215 374 236 122 389 57 
355 6 387 119 249 255 110 257 
356 7 336 397 120 218 414 153 257 
357 2 297 83 
358 7 280 282 341 286 246 143 51 
359 7 13 80 393 402 400 116 280 
360 7 84 24 157 330 338 159 154 
361 7 166 131 407 268 123 391 88 
362 7 194 10 390 331 378 199 267 
363 5 328 262 183 346 368 
364 7 366 16 94 390 160 10 311 
365 7 41 4 179 30 177 76 65 
366 7 364 94 390 16 160 10 97 
367 6 382 418 32 383 373 115 
368 7 5 135 345 132 363 183 328 
369 3 130 277 319 
370 5 204 11 252 394 198 
371 7 326 16 311 405 364 109 97 
372 6 266 141 232 98 318 380 
373 6 418 404 382 115 367 254 
374 7 389 354 320 47 215 87 57 
375 6 312 325 178 324 337 333 
376 5 15 14 259 282 22 
377 7 352 116 335 261 393 149 413 
378 7 199 248 267 362 10 314 95 
379 7 329 83 297 394 11 204 357 
380 6 266 260 141 403 98 381 
381 4 299 35 380 403 
382 4 418 367 32 373 
383 7 151 32 306 214 367 59 74 
384 6 7 386 162 392 408 271 
385 3 268 131 407 
386 5 384 7 162 408 392 
387 6 355 249 119 255 293 296 
388 1 189 
389 7 374 354 47 320 215 87 411 
390 7 366 364 94 16 10 160 194 
391 7 88 145 123 234 361 263 39 
392 2 162 384 
393 7 80 116 402 51 359 261 413 
394 7 11 204 252 370 301 329 379 
395 4 346 35 403 141 
396 3 269 144 259 
397 7 414 356 153 257 218 336 235 
398 7 260 98 266 340 232 380 317 
399 5 412 258 278 130 369 
400 7 13 142 349 14 359 280 376 
401 6 198 416 281 357 204 412 
402 7 51 80 393 246 280 358 359 
403 6 141 380 35 395 266 372 
404 5 115 373 254 210 296 
405 7 311 309 276 97 319 417 277 
406 4 265 56 322 308 
407 3 268 131 166 
408 6 386 384 7 415 162 392 
409 7 48 253 413 256 177 261 238 
410 6 342 245 89 344 230 106 
411 7 47 230 304 389 374 63 245 
412 6 399 416 281 198 258 278 
413 7 261 253 116 393 409 377 51 
414 7 153 397 350 37 235 257 42 
415 6 347 408 337 386 7 312 
416 7 281 412 198 308 399 152 258 
417 7 309 258 278 152 405 128 276 
418 6 382 367 373 32 115 404 
419 7 128 308 152 417 56 281 416 
DEPOT_SECTION
   1
   -1
EOF
