NAME :  X-n536-kX-w214-c7.cctp
COMMENT : 	Adapted by Maziero, Usberti and Cavellucci from the Uchoa, Pecin, Pessoa, Poggi, Subramanian, and Vidal (2013)
TYPE :  CCTP
DIMENSION :    526
EDGE_WEIGHT_TYPE : 	EUC_2D	
CAPACITY : 	371
VERTICES_WITHIN_COVERAGE :  7
VERTICES_WITH_DEMAND : 	214
NODE_COORD_SECTION
1 500 500
2 957 135
3 149 141
4 1 96
5 228 268
6 781 529
7 867 797
8 109 53
9 9 127
10 258 317
11 89 54
12 167 155
13 739 534
14 962 896
15 975 122
16 960 68
17 205 52
18 841 806
19 739 677
20 90 192
21 842 772
22 972 143
23 27 85
24 953 240
25 185 211
26 652 428
27 764 523
28 159 142
29 101 113
30 879 837
31 885 326
32 953 118
33 777 491
34 65 66
35 976 171
36 961 748
37 710 493
38 778 708
39 277 223
40 88 112
41 172 57
42 2 209
43 121 64
44 938 29
45 166 160
46 142 97
47 84 284
48 269 224
49 940 727
50 876 822
51 131 169
52 951 768
53 278 21
54 292 280
55 672 616
56 94 96
57 212 89
58 270 368
59 852 777
60 170 200
61 848 123
62 951 777
63 756 532
64 101 29
65 136 52
66 831 553
67 953 784
68 170 135
69 861 728
70 172 133
71 826 899
72 832 615
73 142 249
74 900 565
75 735 672
76 837 833
77 723 538
78 931 862
79 214 45
80 938 2
81 918 296
82 931 760
83 994 40
84 302 389
85 115 120
86 138 134
87 764 502
88 962 408
89 888 216
90 209 168
91 100 131
92 900 163
93 15 209
94 219 170
95 782 310
96 922 706
97 279 265
98 750 566
99 276 393
100 133 16
101 372 183
102 761 503
103 116 205
104 33 8
105 203 336
106 240 222
107 95 100
108 261 357
109 633 551
110 904 796
111 12 26
112 288 231
113 861 613
114 245 331
115 815 790
116 257 215
117 949 42
118 83 118
119 529 414
120 462 64
121 146 141
122 799 566
123 618 497
124 742 619
125 954 95
126 57 141
127 133 147
128 179 120
129 938 798
130 92 54
131 188 352
132 211 240
133 866 805
134 660 583
135 74 30
136 119 236
137 120 81
138 69 324
139 719 569
140 788 550
141 120 172
142 14 196
143 179 85
144 171 66
145 107 83
146 861 867
147 108 141
148 272 82
149 838 505
150 43 122
151 617 454
152 28 140
153 91 118
154 880 814
155 833 431
156 130 386
157 670 343
158 940 211
159 708 548
160 695 683
161 71 239
162 804 481
163 181 205
164 237 246
165 783 600
166 987 269
167 851 904
168 193 200
169 156 48
170 169 133
171 824 526
172 52 78
173 636 413
174 158 202
175 661 518
176 503 293
177 575 564
178 227 248
179 90 2
180 122 18
181 786 523
182 960 117
183 958 161
184 752 556
185 24 141
186 116 95
187 371 175
188 184 142
189 937 88
190 875 736
191 22 198
192 882 774
193 639 445
194 810 457
195 127 62
196 5 118
197 95 143
198 876 63
199 285 103
200 773 583
201 81 381
202 238 111
203 192 112
204 174 145
205 778 665
206 511 970
207 22 131
208 196 67
209 261 221
210 782 505
211 220 252
212 173 150
213 816 601
214 806 559
215 14 85
216 256 96
217 278 754
218 110 144
219 779 840
220 726 649
221 24 33
222 789 502
223 891 441
224 139 183
225 866 897
226 853 747
227 863 901
228 969 132
229 299 256
230 158 110
231 159 108
232 909 804
233 125 34
234 22 156
235 573 369
236 815 507
237 6 58
238 917 123
239 240 291
240 986 55
241 818 595
242 253 263
243 943 195
244 131 242
245 30 327
246 778 781
247 981 137
248 121 775
249 954 848
250 797 822
251 954 250
252 225 255
253 174 53
254 956 816
255 214 280
256 805 500
257 873 491
258 256 117
259 50 35
260 185 185
261 65 68
262 207 260
263 156 61
264 49 5
265 71 6
266 927 138
267 140 191
268 814 161
269 850 719
270 176 26
271 991 261
272 848 439
273 929 775
274 153 149
275 185 155
276 230 56
277 170 174
278 239 290
279 63 148
280 781 515
281 99 71
282 148 140
283 791 748
284 924 218
285 803 391
286 82 136
287 310 69
288 66 21
289 736 530
290 701 510
291 875 534
292 687 967
293 63 50
294 759 255
295 230 7
296 874 209
297 695 484
298 849 700
299 251 194
300 739 85
301 851 157
302 794 978
303 242 319
304 821 949
305 244 217
306 961 173
307 110 95
308 50 170
309 919 814
310 189 198
311 978 223
312 47 97
313 959 147
314 156 229
315 53 374
316 169 153
317 936 80
318 772 613
319 226 227
320 951 155
321 881 702
322 191 58
323 126 58
324 722 532
325 921 656
326 168 349
327 85 69
328 810 844
329 113 73
330 863 716
331 862 810
332 250 187
333 25 56
334 203 221
335 969 661
336 719 562
337 884 752
338 241 314
339 764 525
340 132 265
341 144 344
342 573 430
343 276 185
344 247 342
345 837 453
346 888 516
347 219 242
348 295 317
349 228 115
350 815 268
351 351 420
352 67 154
353 893 135
354 863 815
355 159 324
356 28 41
357 711 120
358 94 122
359 873 783
360 964 182
361 303 71
362 801 527
363 743 469
364 263 62
365 691 763
366 981 160
367 226 261
368 231 277
369 0 66
370 48 108
371 680 554
372 199 93
373 848 757
374 92 81
375 203 265
376 98 266
377 67 156
378 148 150
379 988 69
380 741 524
381 961 140
382 132 74
383 828 773
384 785 734
385 69 154
386 48 26
387 700 593
388 142 62
389 198 427
390 781 499
391 980 94
392 828 87
393 26 148
394 194 252
395 981 717
396 884 608
397 797 521
398 875 253
399 502 408
400 295 92
401 5 77
402 164 234
403 63 110
404 117 104
405 46 147
406 900 127
407 219 151
408 319 211
409 837 700
410 109 209
411 696 686
412 868 544
413 293 351
414 167 171
415 357 171
416 183 209
417 99 228
418 897 821
419 209 175
420 219 49
421 188 30
422 261 197
423 242 211
424 958 11
425 824 818
426 156 230
427 109 154
428 194 32
429 920 831
430 995 157
431 760 310
432 180 73
433 98 90
434 946 255
435 953 881
436 162 8
437 883 804
438 232 412
439 109 131
440 883 880
441 242 262
442 232 252
443 352 260
444 813 936
445 362 335
446 64 199
447 890 788
448 901 823
449 942 120
450 662 470
451 300 261
452 967 790
453 965 126
454 102 58
455 794 886
456 788 252
457 116 327
458 763 349
459 1000 129
460 814 388
461 198 136
462 425 178
463 227 226
464 311 229
465 161 159
466 106 161
467 287 271
468 695 660
469 207 138
470 112 6
471 915 537
472 169 94
473 769 555
474 158 72
475 35 268
476 790 842
477 80 321
478 150 503
479 89 287
480 645 573
481 165 193
482 135 337
483 978 234
484 138 28
485 223 78
486 865 815
487 883 795
488 113 268
489 143 232
490 235 221
491 840 666
492 197 130
493 101 121
494 786 589
495 153 12
496 152 191
497 209 267
498 232 124
499 89 490
500 759 490
501 674 703
502 109 317
503 46 93
504 250 203
505 741 662
506 924 148
507 622 606
508 730 561
509 910 118
510 21 113
511 879 493
512 72 281
513 961 782
514 158 80
515 926 766
516 800 624
517 989 133
518 21 106
519 802 534
520 601 532
521 928 976
522 162 281
523 134 76
524 901 235
525 348 278
526 31 94
DEMAND_SECTION
2 22
3 94
4 52
5 51
6 54
7 96
8 96
9 82
10 77
11 82
12 55
13 78
14 77
15 40
16 47
17 89
18 77
19 94
20 78
21 81
22 37
23 66
24 8
25 79
26 24
27 70
28 80
29 100
30 53
31 30
32 10
33 34
34 63
35 29
36 80
37 41
38 80
39 62
40 100
41 66
42 79
43 71
44 29
45 94
46 99
47 59
48 57
49 93
50 52
51 54
52 65
53 64
54 52
55 88
56 56
57 76
58 82
59 65
60 77
61 41
62 94
63 100
64 94
65 97
66 56
67 92
68 79
69 59
70 78
71 99
72 91
73 59
74 64
75 61
76 80
77 99
78 66
79 95
80 28
81 5
82 69
83 9
84 86
85 73
86 58
87 98
88 15
89 19
90 71
91 88
92 26
93 79
94 64
95 32
96 75
97 54
98 97
99 82
100 92
101 51
102 68
103 84
104 56
105 65
106 56
107 63
108 53
109 77
110 81
111 85
112 65
113 67
114 67
115 78
116 93
117 48
118 54
119 21
120 56
121 81
122 58
123 36
124 72
125 1
126 95
127 99
128 74
129 79
130 94
131 98
132 72
133 72
134 56
135 65
136 89
137 98
138 55
139 60
140 67
141 91
142 84
143 69
144 80
145 71
146 80
147 80
148 60
149 72
150 51
151 34
152 61
153 97
154 73
155 47
156 55
157 46
158 31
159 91
160 90
161 72
162 38
163 100
164 87
165 72
166 45
167 73
168 86
169 99
170 90
171 56
172 70
173 29
174 51
175 56
176 43
177 59
178 85
179 88
180 65
181 80
182 26
183 11
184 76
185 59
186 73
187 69
188 57
189 43
190 59
191 69
192 94
193 1
194 6
195 82
196 65
197 97
198 2
199 84
200 63
201 94
202 57
203 62
204 89
205 83
206 88
207 81
208 63
209 89
210 68
211 98
212 81
213 67
214 96
215 98
COVERAGE_SECTION
2 7 381 228 313 453 22 32 182 
3 7 282 121 274 378 28 86 127 
4 7 215 401 196 518 510 23 369 
5 7 367 368 252 441 442 211 255 
6 7 181 280 339 27 397 362 140 
7 7 133 331 359 487 437 354 486 
8 7 454 43 130 323 11 195 329 
9 7 196 207 510 185 152 518 393 
10 7 303 338 114 344 239 278 348 
11 7 130 454 327 8 281 293 34 
12 7 316 45 465 212 204 28 274 
13 7 289 380 77 63 324 184 27 
14 7 435 78 249 429 254 440 521 
15 7 453 228 182 247 517 22 2 
16 7 317 117 125 379 240 189 391 
17 7 79 420 322 208 428 276 421 
18 7 331 425 354 133 486 76 7 
19 7 75 505 220 205 160 411 468 
20 7 410 446 103 466 141 417 427 
21 7 59 383 373 226 115 359 18 
22 7 228 247 381 313 2 453 366 
23 7 526 215 503 518 312 401 172 
24 7 251 434 483 311 158 284 271 
25 7 416 163 168 310 60 334 260 
26 7 193 173 450 151 297 123 342 
27 7 339 63 6 280 102 87 181 
28 7 274 3 282 68 121 170 378 
29 7 493 153 358 40 107 85 56 
30 7 50 154 418 448 486 354 331 
31 7 81 398 350 524 434 460 251 
32 7 182 449 453 2 228 15 125 
33 7 390 210 222 87 500 102 280 
34 7 261 293 172 327 11 130 374 
35 7 366 306 360 183 430 22 313 
36 7 52 49 62 82 513 67 395 
37 7 297 290 324 363 380 289 77 
38 7 384 283 205 19 75 505 409 
39 7 48 112 209 116 422 305 504 
40 7 153 118 358 29 107 493 56 
41 7 253 144 263 169 432 322 474 
42 7 93 142 191 234 308 446 393 
43 7 195 323 329 382 8 137 523 
44 7 117 80 424 16 317 240 83 
45 7 12 465 316 414 212 277 204 
46 7 231 230 523 514 382 186 404 
47 7 479 512 376 488 477 502 138 
48 7 39 209 116 112 305 422 504 
49 7 96 36 82 515 52 395 273 
50 7 154 486 30 354 331 437 133 
51 6 141 224 127 267 378 466 
52 7 62 67 513 36 82 273 515 
53 7 364 295 361 287 276 148 420 
54 7 467 97 451 229 348 242 112 
55 7 134 387 468 480 507 220 371 
56 7 107 433 374 307 40 29 145 
57 7 372 485 208 203 349 143 202 
58 7 108 99 413 344 84 114 10 
59 7 21 373 359 383 7 192 226 
60 7 481 163 174 416 25 310 496 
61 7 301 392 353 268 406 509 92 
62 7 67 52 513 452 273 129 82 
63 7 339 27 13 380 289 184 6 
64 7 180 8 233 470 130 135 11 
65 7 323 388 195 43 169 233 263 
66 7 214 171 122 519 412 362 140 
67 7 62 513 452 52 129 273 254 
68 7 170 70 204 28 212 188 128 
69 7 330 269 190 226 298 373 321 
70 7 68 170 204 128 188 28 212 
71 7 167 455 227 444 225 146 304 
72 7 213 241 113 516 165 396 491 
73 7 244 489 340 314 426 136 402 
74 7 471 412 291 396 346 113 66 
75 7 19 505 220 160 411 468 205 
76 7 425 18 328 354 486 331 133 
77 7 324 289 13 159 380 336 508 
78 7 249 435 429 14 309 448 440 
79 7 420 17 276 428 322 208 421 
80 7 424 44 117 83 16 240 317 
81 7 31 434 251 398 524 24 166 
82 7 515 273 52 62 36 67 49 
83 7 240 379 16 117 424 391 44 
84 7 99 58 413 108 351 344 348 
85 7 439 493 29 404 91 358 147 
86 7 121 282 3 127 378 274 28 
87 7 102 500 33 390 210 27 280 
88 7 223 31 272 511 81 257 155 
89 7 296 524 284 398 158 92 243 
90 7 419 94 407 275 260 469 461 
91 7 439 493 358 147 197 153 218 
92 7 506 353 406 266 238 509 301 
93 7 42 142 191 446 308 234 393 
94 7 90 419 407 469 332 260 275 
95 7 431 458 350 456 294 285 460 
96 6 49 321 325 82 190 36 
97 7 467 54 451 229 242 112 441 
98 7 184 508 473 200 139 336 13 
99 7 58 84 108 413 438 344 114 
100 7 180 484 233 495 470 436 64 
101 7 187 415 462 408 464 443 343 
102 7 87 500 27 33 390 210 339 
103 7 410 267 20 417 136 224 141 
104 7 264 386 221 111 259 356 288 
105 6 131 326 114 303 338 344 
106 7 490 305 423 463 319 116 209 
107 7 56 433 29 40 307 153 374 
108 7 58 344 114 413 99 10 303 
109 7 480 520 134 175 371 123 507 
110 7 232 447 487 437 309 418 448 
111 7 221 356 104 237 333 386 259 
112 7 39 48 464 229 209 451 97 
113 6 396 72 213 241 491 74 
114 7 344 303 338 10 108 239 278 
115 7 383 425 18 21 250 246 59 
116 7 209 305 504 48 423 106 422 
117 7 44 16 424 240 317 80 83 
118 7 40 153 358 286 493 29 91 
119 7 399 342 235 151 173 193 123 
120 7 462 187 101 415 287 361 400 
121 7 282 3 378 86 274 28 127 
122 7 214 140 494 200 473 519 66 
123 7 520 151 175 450 109 193 26 
124 7 318 220 505 165 200 387 75 
125 7 189 32 182 317 391 16 449 
126 7 279 405 352 377 385 150 286 
127 7 86 121 378 3 282 274 51 
128 7 70 203 170 68 492 188 230 
129 7 67 62 254 273 309 513 232 
130 7 11 454 8 327 281 64 374 
131 5 326 105 355 341 482 
132 7 347 211 178 262 319 252 334 
133 7 331 7 354 486 154 437 50 
134 7 480 55 371 387 109 507 159 
135 7 288 293 265 259 386 64 11 
136 7 244 417 489 73 410 103 340 
137 7 329 145 382 186 523 43 307 
138 7 477 245 502 479 47 512 457 
139 7 336 508 159 77 98 387 184 
140 7 122 214 473 519 6 362 181 
141 7 51 466 427 224 127 267 218 
142 7 191 93 42 234 308 393 446 
143 7 432 472 144 372 514 208 474 
144 7 41 432 253 474 263 514 143 
145 7 433 307 329 137 281 186 374 
146 7 440 225 227 30 167 76 50 
147 7 218 439 91 197 427 466 493 
148 7 216 364 199 400 361 258 287 
149 7 236 171 256 257 162 362 511 
150 7 370 152 207 403 126 510 312 
151 7 193 123 26 173 450 342 175 
152 7 185 393 207 234 405 9 150 
153 7 358 40 118 493 29 91 107 
154 7 50 437 486 133 354 331 418 
155 7 272 345 194 460 285 162 223 
156 7 341 201 482 326 457 131 355 
157 7 173 26 458 431 235 193 95 
158 7 243 284 24 360 311 251 306 
159 7 77 336 324 139 508 371 289 
160 7 411 468 501 75 19 220 505 
161 7 417 376 446 512 475 47 136 
162 7 256 194 222 236 33 390 210 
163 7 416 25 310 60 168 260 481 
164 7 442 178 252 441 211 347 367 
165 7 494 318 200 516 213 241 122 
166 7 271 483 251 434 24 311 81 
167 7 227 225 71 146 440 444 304 
168 7 310 163 416 25 260 60 334 
169 7 263 41 253 65 388 144 474 
170 7 68 70 28 204 128 188 212 
171 7 236 362 519 149 397 66 256 
172 7 261 503 34 312 23 526 293 
173 7 26 193 151 450 342 235 157 
174 6 481 60 496 267 163 416 
175 7 290 371 109 123 297 450 37 
176 7 235 399 119 462 445 342 443 
177 7 520 109 507 480 123 134 175 
178 7 442 252 211 164 347 367 132 
179 7 265 470 64 288 135 180 264 
180 7 100 233 470 484 64 495 179 
181 7 6 280 397 362 210 519 222 
182 7 32 453 15 228 2 449 125 
183 7 320 306 313 35 381 360 22 
184 7 98 473 508 63 13 289 339 
185 7 152 393 207 234 9 405 150 
186 7 307 404 137 145 433 56 107 
187 7 101 415 462 408 464 443 343 
188 7 204 275 212 70 461 68 170 
189 7 317 125 16 449 32 182 238 
190 7 69 337 330 226 269 373 321 
191 7 142 93 42 308 234 446 393 
192 7 359 447 487 337 7 59 437 
193 7 26 151 173 450 123 297 342 
194 7 162 345 155 272 256 33 222 
195 7 323 43 65 382 388 523 329 
196 7 9 510 518 207 4 185 152 
197 7 91 147 218 286 427 439 358 
198 7 392 317 509 61 189 406 44 
199 7 400 148 216 258 361 287 364 
200 7 494 165 473 98 318 122 184 
201 7 315 156 138 477 457 482 502 
202 7 349 498 258 216 57 485 469 
203 7 128 492 372 461 70 472 57 
204 7 212 316 188 68 12 70 170 
205 7 505 19 38 75 516 318 220 
206 5 292 365 302 455 219 
207 7 185 152 9 393 510 196 150 
208 7 322 17 432 143 144 41 253 
209 7 116 48 39 305 106 423 504 
210 7 390 222 280 33 87 181 102 
211 7 252 178 347 367 442 132 262 
212 7 204 316 12 45 275 188 68 
213 7 241 72 516 494 165 122 214 
214 7 122 140 519 66 362 494 473 
215 7 401 23 4 526 518 369 237 
216 7 148 258 202 199 349 364 498 
217 7 248 478 206 499 389 351 438 
218 7 147 427 439 197 91 466 127 
219 7 476 250 328 455 425 76 246 
220 7 505 75 19 468 124 160 411 
221 7 356 111 333 386 259 104 237 
222 7 210 390 280 33 256 181 397 
223 7 272 257 511 345 155 346 88 
224 6 267 496 51 141 174 481 
225 7 227 167 440 146 71 30 444 
226 7 373 69 190 21 269 59 337 
227 7 225 167 440 146 71 444 304 
228 7 453 22 381 2 15 247 182 
229 7 451 467 97 54 112 464 39 
230 7 231 472 46 128 170 70 68 
231 7 230 472 46 128 170 70 514 
232 7 110 309 418 448 447 437 487 
233 7 484 180 100 65 323 8 64 
234 7 393 185 152 207 405 308 9 
235 7 342 119 173 399 151 26 157 
236 7 256 171 149 397 362 222 162 
237 7 369 333 401 215 356 221 111 
238 7 509 406 266 449 506 353 32 
239 7 278 368 338 5 255 303 441 
240 7 379 83 16 117 391 125 424 
241 7 213 72 494 516 122 165 214 
242 7 441 164 442 5 97 368 367 
243 7 158 360 306 284 183 35 320 
244 7 73 136 489 340 314 426 488 
245 7 138 477 315 475 512 47 479 
246 7 283 115 250 384 383 219 425 
247 7 517 22 228 15 453 381 459 
248 7 217 478 499 389 438 156 201 
249 7 78 254 435 429 14 309 129 
250 7 476 219 328 425 115 76 246 
251 7 434 24 483 311 166 271 158 
252 7 211 367 178 442 5 347 164 
253 7 41 144 322 169 263 432 474 
254 7 129 452 67 249 513 309 62 
255 6 497 368 5 375 262 367 
256 7 236 222 162 397 210 390 362 
257 7 511 346 149 291 345 223 412 
258 7 202 216 498 349 199 148 400 
259 7 386 293 288 356 135 221 264 
260 7 310 168 277 163 60 481 414 
261 7 34 172 293 327 11 130 374 
262 7 375 497 211 394 252 367 132 
263 7 474 169 388 41 144 514 253 
264 7 104 386 265 288 259 135 221 
265 7 288 179 264 135 386 259 64 
266 7 506 238 449 509 320 406 2 
267 6 224 496 174 51 481 103 
268 6 301 61 392 296 353 92 
269 7 330 69 298 409 226 190 321 
270 7 421 428 436 253 495 169 41 
271 7 166 483 251 311 24 434 158 
272 7 155 345 194 223 257 162 460 
273 7 515 82 62 52 129 67 110 
274 7 378 3 28 282 121 465 12 
275 7 188 212 204 316 12 45 461 
276 7 420 79 485 17 364 208 57 
277 6 414 45 465 12 260 481 
278 7 239 368 338 5 255 441 303 
279 7 352 385 126 377 405 286 308 
280 7 181 210 6 222 390 397 27 
281 7 374 454 145 327 329 130 433 
282 7 3 121 274 378 28 86 127 
283 7 384 246 38 383 115 21 373 
284 7 158 524 243 24 89 434 251 
285 7 460 155 458 194 272 345 95 
286 7 197 118 358 91 153 279 385 
287 7 361 400 148 199 364 53 216 
288 7 135 265 386 259 264 293 179 
289 7 13 380 324 77 63 339 27 
290 7 37 297 324 77 159 289 175 
291 7 412 346 74 471 511 257 149 
292 6 302 444 455 304 71 219 
293 7 34 261 259 135 11 386 130 
294 6 456 431 350 95 458 268 
295 7 79 420 428 421 276 53 17 
296 6 89 524 398 284 92 301 
297 7 37 290 450 175 363 324 77 
298 6 409 269 330 69 321 491 
299 7 332 504 422 423 116 305 343 
300 6 357 392 268 61 301 198 
301 7 61 268 353 92 296 406 89 
302 7 304 444 71 455 167 227 225 
303 7 338 114 10 344 239 278 108 
304 7 444 302 71 167 227 225 455 
305 7 106 423 490 116 504 209 463 
306 7 360 183 35 320 366 313 243 
307 7 186 404 145 433 56 107 137 
308 7 377 352 405 385 279 126 234 
309 7 232 429 448 110 418 129 254 
310 7 168 163 416 25 260 60 481 
311 7 483 24 251 158 271 360 243 
312 7 503 370 526 172 403 23 150 
313 7 381 320 2 22 183 228 453 
314 7 426 402 489 73 174 244 60 
315 7 201 138 245 477 156 457 502 
316 7 12 212 45 204 465 28 274 
317 7 189 125 16 117 449 32 182 
318 7 165 494 200 516 124 213 241 
319 7 463 490 106 347 132 178 305 
320 7 183 313 381 2 306 22 506 
321 6 330 298 69 190 269 96 
322 7 208 17 253 41 432 144 79 
323 7 195 43 65 388 382 8 329 
324 7 77 289 13 159 380 290 336 
325 6 335 96 321 396 49 113 
326 6 131 341 355 482 105 156 
327 7 281 374 11 130 34 261 454 
328 7 476 250 76 425 219 455 18 
329 7 137 43 145 281 195 382 454 
330 7 69 269 298 190 321 409 226 
331 7 354 133 486 7 50 154 18 
332 7 299 422 504 423 343 116 305 
333 7 356 237 221 369 23 401 215 
334 7 25 132 168 416 319 463 347 
335 6 325 395 96 49 36 321 
336 7 139 508 159 77 324 98 13 
337 7 190 192 226 69 359 373 447 
338 7 303 10 114 239 278 344 368 
339 7 27 63 6 280 102 181 87 
340 7 73 488 244 136 376 522 489 
341 6 482 326 355 457 156 502 
342 7 119 151 235 173 193 399 26 
343 7 422 332 299 504 116 39 209 
344 7 114 108 303 10 338 58 105 
345 7 272 155 194 162 149 257 223 
346 7 291 511 257 412 471 74 149 
347 7 132 178 211 252 442 319 164 
348 7 413 10 54 467 108 114 303 
349 7 498 202 258 57 469 216 492 
350 6 456 95 294 398 431 296 
351 7 84 99 445 413 58 108 348 
352 7 377 385 279 126 405 286 308 
353 7 406 509 238 92 266 506 61 
354 7 486 331 133 50 154 7 437 
355 4 341 326 482 131 
356 7 221 333 111 259 386 237 104 
357 6 300 268 392 61 294 301 
358 7 153 493 29 91 40 118 439 
359 7 192 7 487 447 59 133 437 
360 7 306 35 183 243 366 320 313 
361 7 287 400 148 199 364 216 53 
362 7 397 519 181 6 171 280 236 
363 7 500 102 87 33 37 390 297 
364 7 148 276 216 361 485 53 400 
365 5 501 411 160 246 19 
366 7 35 430 22 183 247 306 313 
367 7 252 5 211 442 178 441 368 
368 7 5 278 239 255 367 441 252 
369 7 237 401 215 333 4 23 356 
370 7 312 150 403 503 526 510 518 
371 7 159 134 336 480 175 139 387 
372 7 57 203 143 208 432 485 472 
373 7 226 21 59 383 69 190 337 
374 7 433 281 327 56 145 107 329 
375 7 262 497 394 255 211 367 252 
376 7 488 47 479 512 340 136 161 
377 7 352 385 279 126 308 405 286 
378 7 274 3 121 282 28 127 465 
379 7 240 391 16 83 125 117 317 
380 7 289 13 63 324 27 77 339 
381 7 2 313 22 228 453 320 247 
382 7 523 195 137 43 388 323 329 
383 7 21 115 59 373 18 226 283 
384 7 283 38 246 383 409 115 269 
385 7 352 377 279 126 286 405 308 
386 7 259 288 264 104 221 356 135 
387 7 139 55 336 134 371 508 159 
388 7 65 263 195 323 382 523 474 
389 7 438 131 156 326 99 478 105 
390 7 210 33 222 280 87 102 256 
391 7 125 379 15 182 16 453 32 
392 7 61 198 301 268 353 406 509 
393 7 185 152 234 207 405 9 150 
394 7 262 375 132 497 211 347 252 
395 7 36 49 335 52 96 82 62 
396 6 113 74 72 325 412 241 
397 7 362 181 519 280 6 222 210 
398 7 524 89 296 284 81 350 434 
399 7 119 342 235 176 151 173 193 
400 7 199 361 148 287 216 364 258 
401 7 215 369 4 237 23 333 526 
402 7 314 426 489 73 25 416 174 
403 7 370 312 118 150 503 40 153 
404 7 186 307 85 29 107 137 145 
405 7 126 279 152 393 352 185 308 
406 7 353 509 238 266 506 92 449 
407 7 469 94 90 419 461 492 498 
408 7 464 112 39 229 343 48 451 
409 7 298 269 330 491 69 321 226 
410 7 103 417 20 136 267 141 224 
411 7 160 468 501 75 19 220 505 
412 7 291 346 66 74 171 471 149 
413 7 58 108 348 84 99 344 10 
414 6 277 45 465 12 316 212 
415 7 187 101 408 462 464 343 443 
416 7 25 163 168 310 60 334 260 
417 7 410 136 103 161 244 20 376 
418 7 448 154 50 232 437 309 30 
419 7 90 94 260 407 168 310 275 
420 7 79 276 17 208 322 485 428 
421 7 428 270 253 17 322 79 41 
422 7 299 504 332 116 343 209 423 
423 7 305 106 504 490 116 299 209 
424 7 80 44 117 83 240 16 379 
425 7 76 18 250 115 328 331 354 
426 7 314 402 489 73 174 244 60 
427 7 466 218 147 197 141 439 91 
428 7 421 270 17 79 322 253 420 
429 7 309 448 418 232 78 110 129 
430 7 366 35 247 517 22 459 228 
431 7 95 458 294 456 350 285 460 
432 7 144 143 208 41 322 253 474 
433 7 56 107 145 374 307 186 281 
434 7 251 24 483 166 284 158 271 
435 7 14 78 249 429 254 440 309 
436 7 495 270 100 484 421 169 428 
437 7 487 154 7 133 447 50 486 
438 7 389 99 58 108 344 84 131 
439 7 91 147 85 218 493 358 197 
440 7 225 146 227 167 30 78 50 
441 7 242 442 5 367 164 252 368 
442 7 178 164 252 367 211 441 5 
443 7 525 464 451 229 408 54 467 
444 7 304 71 302 167 455 227 225 
445 7 525 348 413 443 84 351 54 
446 7 20 308 161 191 377 352 385 
447 7 487 110 192 437 359 7 232 
448 7 418 309 232 429 154 50 30 
449 7 32 182 2 266 453 238 125 
450 7 193 297 26 151 175 123 37 
451 7 229 467 54 97 112 464 39 
452 7 513 67 62 52 254 129 273 
453 7 228 182 15 2 32 381 22 
454 7 8 130 281 11 329 43 327 
455 7 71 476 328 219 444 167 250 
456 6 294 350 95 431 398 268 
457 6 502 482 341 477 355 138 
458 7 431 95 285 460 157 294 350 
459 7 517 247 15 430 22 228 453 
460 7 285 155 272 458 194 345 95 
461 7 492 469 188 275 128 203 70 
462 7 101 187 415 443 408 120 464 
463 7 319 490 106 347 305 132 423 
464 7 408 112 229 451 39 48 97 
465 7 45 12 316 274 414 212 378 
466 7 427 218 141 147 197 51 127 
467 7 54 97 451 229 242 112 441 
468 7 160 411 220 75 505 19 501 
469 7 461 492 407 188 275 498 90 
470 7 180 179 100 64 233 484 265 
471 7 74 346 291 412 511 257 396 
472 7 143 231 514 230 432 474 46 
473 7 184 140 98 63 200 6 339 
474 7 514 263 144 388 41 432 169 
475 7 512 161 47 479 245 93 376 
476 7 219 328 250 425 455 76 115 
477 7 138 502 479 457 47 512 245 
478 7 499 389 156 438 201 326 131 
479 7 47 512 376 488 477 502 138 
480 7 134 109 371 507 55 175 387 
481 6 60 174 496 163 277 260 
482 6 341 457 355 502 326 156 
483 7 311 24 251 271 166 434 158 
484 7 100 233 180 495 65 169 436 
485 7 57 276 372 208 420 17 79 
486 7 354 331 133 50 154 7 437 
487 7 437 447 7 359 154 133 110 
488 7 376 340 479 244 47 136 73 
489 7 314 426 244 73 402 136 174 
490 7 106 463 305 319 423 116 504 
491 6 409 298 72 269 321 330 
492 7 461 469 188 203 128 70 68 
493 7 358 29 91 153 439 85 40 
494 7 165 200 122 318 213 241 214 
495 7 436 100 484 270 180 169 233 
496 6 267 174 481 224 60 277 
497 7 375 262 255 367 5 211 252 
498 7 349 202 258 469 407 461 492 
499 7 478 201 156 315 389 341 482 
500 7 87 102 33 390 363 210 222 
501 7 411 160 468 365 75 19 220 
502 6 457 477 482 479 47 138 
503 7 312 370 526 172 23 403 518 
504 7 299 423 422 116 305 332 106 
505 7 75 19 220 205 124 468 160 
506 7 266 238 92 320 406 449 509 
507 7 480 134 55 109 177 520 371 
508 7 336 139 98 184 77 159 13 
509 7 238 406 353 266 449 506 189 
510 7 518 196 9 207 526 150 4 
511 7 257 346 291 149 412 223 471 
512 7 47 479 376 475 477 161 138 
513 7 67 452 62 52 129 273 36 
514 7 474 472 144 263 143 46 432 
515 7 82 273 52 62 67 129 110 
516 7 213 165 318 72 241 494 205 
517 7 247 459 15 22 228 430 453 
518 7 510 526 196 4 23 215 9 
519 7 362 397 181 140 6 171 214 
520 7 109 123 177 480 175 507 134 
521 7 14 435 227 225 167 440 304 
522 3 340 73 355 
523 7 382 137 195 388 43 323 329 
524 7 89 284 398 296 158 434 24 
525 7 443 451 229 54 445 464 467 
526 7 23 503 312 518 215 510 370 
DEPOT_SECTION
   1
   -1
EOF
