NAME :  X-n524-kX-w52-c7.cctp
COMMENT : 	Adapted by Maziero, Usberti and Cavellucci from the Uchoa, Pecin, Pessoa, Poggi, Subramanian, and Vidal (2013)
TYPE :  CCTP
DIMENSION :    302
EDGE_WEIGHT_TYPE : 	EUC_2D	
CAPACITY : 	125
VERTICES_WITHIN_COVERAGE :  7
VERTICES_WITH_DEMAND : 	52
NODE_COORD_SECTION
1 691 729
2 978 828
3 427 367
4 777 543
5 190 596
6 773 750
7 234 727
8 851 358
9 140 69
10 891 285
11 467 13
12 537 162
13 636 355
14 213 284
15 75 877
16 384 814
17 606 173
18 76 236
19 86 733
20 642 61
21 303 261
22 771 775
23 107 264
24 763 43
25 811 873
26 38 170
27 822 920
28 907 792
29 539 273
30 576 836
31 491 411
32 430 725
33 727 248
34 532 825
35 457 218
36 398 153
37 942 597
38 8 330
39 637 85
40 75 781
41 578 635
42 560 188
43 27 523
44 432 198
45 359 691
46 695 372
47 203 307
48 641 389
49 836 612
50 375 499
51 818 980
52 577 226
53 889 259
54 516 324
55 484 245
56 878 261
57 600 800
58 493 722
59 549 214
60 638 166
61 452 172
62 326 662
63 529 661
64 843 248
65 82 971
66 876 644
67 642 810
68 351 732
69 469 250
70 970 812
71 723 360
72 274 238
73 668 103
74 562 82
75 930 729
76 546 102
77 388 767
78 933 329
79 738 728
80 346 490
81 639 634
82 765 715
83 772 60
84 804 906
85 378 297
86 881 802
87 842 994
88 20 116
89 562 217
90 709 544
91 50 682
92 771 244
93 506 883
94 414 522
95 583 435
96 210 579
97 326 715
98 92 24
99 879 544
100 446 28
101 130 966
102 978 572
103 558 84
104 783 837
105 76 494
106 151 945
107 407 685
108 106 831
109 373 284
110 875 321
111 768 758
112 304 323
113 217 608
114 712 264
115 879 873
116 52 214
117 63 197
118 579 862
119 313 245
120 32 608
121 9 608
122 840 747
123 152 742
124 994 868
125 76 784
126 753 939
127 156 870
128 571 127
129 637 341
130 162 87
131 93 14
132 856 260
133 54 332
134 459 387
135 118 61
136 754 299
137 883 640
138 288 268
139 22 358
140 516 272
141 361 714
142 798 356
143 882 889
144 554 183
145 354 851
146 21 719
147 812 664
148 650 254
149 668 231
150 57 773
151 911 335
152 371 480
153 223 658
154 393 488
155 444 66
156 547 252
157 104 269
158 135 647
159 844 424
160 94 941
161 172 293
162 588 69
163 709 51
164 129 266
165 372 843
166 1000 521
167 743 716
168 838 43
169 649 346
170 144 771
171 454 383
172 419 490
173 482 77
174 556 701
175 297 676
176 476 864
177 340 827
178 675 391
179 465 723
180 289 259
181 752 271
182 539 782
183 772 963
184 791 367
185 375 323
186 0 91
187 403 745
188 456 817
189 486 256
190 657 8
191 256 745
192 528 298
193 153 272
194 814 649
195 352 306
196 857 350
197 846 792
198 582 192
199 506 792
200 638 178
201 755 124
202 654 335
203 66 850
204 623 623
205 674 0
206 125 625
207 937 264
208 430 671
209 171 691
210 374 862
211 155 256
212 504 293
213 770 501
214 764 790
215 525 835
216 379 711
217 140 264
218 597 673
219 798 514
220 679 437
221 843 272
222 55 768
223 664 373
224 103 28
225 841 826
226 47 539
227 924 776
228 477 784
229 69 282
230 371 110
231 234 333
232 61 527
233 104 132
234 711 178
235 47 755
236 332 541
237 853 658
238 440 187
239 603 576
240 438 190
241 857 282
242 169 702
243 878 549
244 196 92
245 780 638
246 724 171
247 801 374
248 718 26
249 0 789
250 461 432
251 391 542
252 548 841
253 965 772
254 215 324
255 181 749
256 562 764
257 678 70
258 985 664
259 678 370
260 118 587
261 913 258
262 548 391
263 474 67
264 615 218
265 854 798
266 768 589
267 4 303
268 43 400
269 525 257
270 593 392
271 123 233
272 130 687
273 394 334
274 540 408
275 358 553
276 903 236
277 64 121
278 11 847
279 758 962
280 36 659
281 506 458
282 762 62
283 173 89
284 96 995
285 982 670
286 593 42
287 256 579
288 373 748
289 260 698
290 538 250
291 348 539
292 84 185
293 320 795
294 168 346
295 857 379
296 84 839
297 637 820
298 61 140
299 795 51
300 492 157
301 324 520
302 832 980
DEMAND_SECTION
2 95
3 66
4 66
5 50
6 55
7 91
8 100
9 73
10 96
11 85
12 82
13 72
14 77
15 62
16 86
17 100
18 63
19 94
20 97
21 78
22 94
23 83
24 90
25 71
26 59
27 88
28 50
29 65
30 75
31 50
32 56
33 90
34 56
35 71
36 95
37 93
38 97
39 79
40 94
41 69
42 90
43 63
44 93
45 82
46 53
47 92
48 70
49 88
50 57
51 93
52 69
53 66
COVERAGE_SECTION
2 5 70 124 253 227 28 
3 6 171 134 273 185 250 31 
4 5 219 213 266 90 49 
5 7 96 113 287 153 206 260 158 
6 7 111 22 82 79 214 167 122 
7 4 191 289 255 153 
8 7 196 295 110 247 142 184 151 
9 7 135 130 283 224 244 98 131 
10 7 53 56 241 261 110 132 221 
11 7 100 263 155 173 103 74 76 
12 7 144 42 300 128 59 198 89 
13 7 129 169 202 223 48 259 178 
14 7 47 254 161 231 193 211 72 
15 6 203 296 108 160 278 127 
16 7 165 177 77 145 210 288 293 
17 7 198 200 60 264 42 144 128 
18 7 116 117 23 157 229 271 292 
19 7 235 222 40 150 125 91 272 
20 7 39 257 73 286 162 190 163 
21 7 180 138 119 72 112 195 109 
22 7 111 214 6 79 82 104 167 
23 7 157 164 217 271 18 229 193 
24 7 83 282 299 248 163 168 201 
25 7 84 104 27 225 115 143 265 
26 7 117 298 116 292 277 88 18 
27 7 84 25 51 302 183 143 126 
28 7 227 86 265 197 253 70 75 
29 6 269 156 140 290 192 212 
30 7 118 252 57 34 215 297 182 
31 6 250 134 171 274 281 262 
32 7 187 179 107 216 208 77 288 
33 6 114 181 92 136 149 234 
34 7 215 252 199 182 30 118 93 
35 7 44 69 240 238 55 61 189 
36 6 230 238 240 44 61 35 
37 7 102 137 243 258 66 99 285 
38 5 267 139 133 229 268 
39 7 20 73 257 162 286 74 128 
40 7 125 150 222 235 19 108 296 
41 6 218 204 63 81 239 174 
42 7 144 198 59 89 12 52 17 
43 5 226 232 105 120 121 
44 7 240 238 35 61 36 69 55 
45 7 141 216 97 68 62 107 288 
46 7 259 178 71 223 169 202 48 
47 7 254 14 161 231 294 193 211 
48 7 223 13 178 259 169 129 270 
49 7 194 237 66 137 147 245 266 
50 7 152 154 80 94 172 251 291 
51 7 302 87 183 27 279 84 126 
52 7 89 59 198 264 156 42 290 
53 7 56 261 10 276 132 241 64 
54 4 192 212 140 29 
55 6 189 69 35 140 269 212 
56 7 53 132 10 241 261 276 64 
57 6 297 30 67 256 182 118 
58 4 179 32 228 174 
59 7 89 42 52 144 156 290 198 
60 6 200 17 264 198 73 149 
61 7 238 240 44 300 35 36 55 
62 4 175 45 97 141 
63 4 174 41 218 58 
64 5 132 221 56 241 53 
65 7 284 160 101 106 15 203 127 
66 5 137 237 49 194 147 
67 3 297 57 30 
68 6 141 288 97 216 45 77 
69 5 55 189 35 140 212 
70 6 2 253 227 124 28 86 
71 4 46 259 178 223 
72 5 180 138 21 119 14 
73 6 257 39 20 163 60 200 
74 7 103 76 162 128 286 39 173 
75 3 227 253 28 
76 7 103 74 128 162 12 173 286 
77 7 288 187 16 68 216 32 141 
78 4 151 110 10 207 
79 5 167 82 6 111 22 
80 6 152 50 301 154 291 236 
81 4 204 218 41 239 
82 6 167 79 6 111 22 147 
83 7 282 24 299 163 248 201 168 
84 7 27 25 126 183 104 279 51 
85 6 109 185 195 273 112 21 
86 7 265 28 197 225 227 122 115 
87 4 302 51 27 183 
88 5 186 277 298 26 233 
89 7 59 52 42 198 144 156 290 
90 2 4 266 
91 5 280 146 19 235 120 
92 4 181 33 136 114 
93 4 176 215 252 34 
94 4 251 172 154 50 
95 4 270 274 262 48 
96 4 5 113 287 153 
97 6 68 141 45 175 62 216 
98 4 131 224 135 9 
99 4 243 49 37 219 
100 5 11 155 263 173 230 
101 6 106 160 284 65 127 15 
102 6 37 166 258 285 99 243 
103 7 74 76 162 128 286 173 39 
104 5 25 214 225 22 84 
105 3 232 226 43 
106 6 101 160 65 284 127 15 
107 7 208 216 32 45 141 187 179 
108 6 296 203 15 125 40 127 
109 6 85 195 185 273 119 21 
110 7 196 10 151 241 8 78 221 
111 7 6 22 214 79 82 167 122 
112 5 195 138 21 180 185 
113 4 5 96 287 153 
114 6 33 181 136 149 92 148 
115 4 143 225 25 86 
116 7 117 18 292 26 229 271 23 
117 6 116 292 26 18 298 271 
118 6 30 252 34 215 57 297 
119 7 21 180 138 72 109 195 112 
120 6 121 280 226 91 43 232 
121 6 120 280 226 91 43 232 
122 4 197 265 6 86 
123 6 170 255 242 209 272 19 
124 2 2 70 
125 7 40 150 222 235 19 108 296 
126 5 279 183 84 27 51 
127 4 108 106 296 15 
128 7 76 103 74 12 17 144 162 
129 7 169 13 202 223 48 259 178 
130 5 283 9 244 135 233 
131 4 98 224 135 9 
132 7 64 221 56 241 53 10 276 
133 5 139 38 229 267 268 
134 5 171 3 31 250 273 
135 7 9 224 98 130 131 283 233 
136 5 181 114 33 92 71 
137 6 66 237 49 194 37 147 
138 7 180 21 72 119 112 195 14 
139 5 38 133 268 267 229 
140 6 269 29 212 192 290 189 
141 7 216 68 45 97 288 187 107 
142 4 184 247 8 196 
143 2 115 27 
144 7 42 12 198 59 89 52 17 
145 4 165 210 177 16 
146 6 235 91 222 280 150 19 
147 5 194 237 245 49 66 
148 7 149 264 114 33 200 52 202 
149 6 148 114 264 33 200 234 
150 6 222 40 235 125 19 249 
151 5 78 110 10 196 8 
152 4 50 154 80 172 
153 6 113 289 209 5 7 242 
154 5 50 152 172 94 80 
155 6 263 100 173 11 230 36 
156 7 290 29 269 140 59 89 52 
157 7 23 164 217 229 271 18 193 
158 7 206 272 209 260 242 5 153 
159 3 295 8 247 
160 7 65 101 284 106 15 127 203 
161 7 193 47 211 14 217 164 254 
162 7 286 74 103 39 76 20 128 
163 7 248 257 282 24 205 83 73 
164 6 217 23 157 193 211 271 
165 5 210 145 16 177 293 
166 3 102 37 99 
167 4 79 82 6 111 
168 3 299 83 24 
169 7 202 129 13 223 259 48 178 
170 4 123 255 19 125 
171 5 134 3 31 250 273 
172 4 154 94 50 152 
173 7 263 155 100 11 76 103 74 
174 5 63 218 256 58 41 
175 4 62 289 97 45 
176 4 93 188 215 34 
177 5 145 165 293 16 210 
178 7 223 259 46 48 220 169 13 
179 5 58 32 228 208 187 
180 7 138 21 72 119 112 195 14 
181 4 136 92 33 114 
182 6 256 199 34 215 252 228 
183 6 279 126 51 302 84 27 
184 3 247 142 8 
185 6 273 85 195 109 3 112 
186 4 88 277 298 26 
187 7 77 288 32 216 141 68 107 
188 6 228 176 199 215 16 34 
189 6 55 69 140 269 212 35 
190 7 205 20 248 257 163 286 39 
191 2 7 289 
192 6 212 29 54 140 269 290 
193 6 217 211 164 161 23 157 
194 6 147 245 237 49 66 137 
195 6 85 185 109 273 112 21 
196 7 8 295 110 151 142 247 184 
197 6 265 225 86 122 28 22 
198 7 42 144 17 89 52 59 264 
199 6 228 182 34 215 188 256 
200 6 60 17 264 198 149 234 
201 5 246 282 83 234 24 
202 7 169 129 13 223 259 46 48 
203 7 296 15 108 278 125 40 150 
204 4 81 41 239 218 
205 7 190 248 163 20 257 286 39 
206 7 158 260 272 5 209 242 91 
207 4 261 276 53 10 
208 4 107 32 179 216 
209 7 242 272 123 158 255 153 7 
210 4 165 145 16 177 
211 6 193 217 164 271 161 23 
212 6 140 192 54 29 189 269 
213 3 219 4 90 
214 5 22 111 6 104 79 
215 7 34 252 199 30 93 182 176 
216 7 141 45 68 288 107 187 32 
217 6 164 193 211 23 271 157 
218 5 41 174 204 81 63 
219 3 213 4 266 
220 4 178 48 223 46 
221 6 241 132 64 56 53 10 
222 6 150 235 40 125 19 249 
223 7 259 178 48 46 169 13 202 
224 5 98 131 135 9 130 
225 7 265 197 86 25 104 115 28 
226 6 232 43 105 120 121 260 
227 7 28 253 75 86 70 265 2 
228 6 199 188 179 182 58 34 
229 7 157 23 18 133 164 267 116 
230 2 36 155 
231 4 254 47 14 294 
232 3 226 43 105 
233 5 277 298 292 135 9 
234 4 246 149 201 33 
235 6 222 150 40 125 146 19 
236 6 291 301 275 80 251 50 
237 5 66 137 194 147 49 
238 7 240 44 61 35 36 300 69 
239 2 204 41 
240 7 238 44 61 35 36 300 69 
241 7 221 132 56 10 64 53 110 
242 7 209 272 123 255 158 7 153 
243 4 99 49 37 219 
244 3 283 130 9 
245 5 194 147 266 49 237 
246 3 234 201 33 
247 4 184 142 8 295 
248 7 163 24 205 282 257 83 190 
249 6 235 150 222 278 146 40 
250 5 31 134 171 281 172 
251 5 94 275 291 50 154 
252 7 34 215 30 118 93 182 199 
253 5 70 227 75 2 28 
254 5 47 231 14 294 161 
255 4 123 170 242 7 
256 5 182 57 174 199 34 
257 7 73 163 20 39 248 190 205 
258 4 285 37 75 102 
259 7 223 46 178 169 48 202 13 
260 5 206 158 5 232 226 
261 6 53 276 207 10 56 132 
262 4 274 270 95 31 
263 7 173 155 100 11 76 103 74 
264 7 52 198 17 200 148 89 149 
265 6 197 86 225 28 122 227 
266 5 4 245 49 90 194 
267 7 38 133 139 229 18 116 268 
268 3 139 133 38 
269 6 290 140 29 156 189 192 
270 6 95 262 48 274 13 129 
271 5 164 23 217 211 157 
272 7 158 209 242 123 206 19 91 
273 5 185 85 3 195 109 
274 4 262 31 95 270 
275 6 291 236 251 301 50 80 
276 7 261 53 56 207 10 132 64 
277 6 298 233 88 26 292 186 
278 7 203 249 15 296 150 222 125 
279 6 183 126 51 84 302 27 
280 5 91 120 121 146 19 
281 3 31 250 274 
282 7 83 24 299 163 248 201 168 
283 4 130 244 9 135 
284 7 65 101 160 106 15 127 203 
285 4 258 75 37 102 
286 7 162 74 20 103 39 190 76 
287 3 96 113 5 
288 7 77 68 187 141 216 97 45 
289 5 7 175 191 153 97 
290 7 156 269 29 140 59 89 52 
291 6 236 275 301 251 50 80 
292 6 117 116 26 298 18 233 
293 3 177 145 16 
294 4 47 254 161 231 
295 6 8 196 159 247 110 142 
296 6 203 108 15 125 40 150 
297 3 67 57 30 
298 7 277 26 233 88 292 117 116 
299 6 83 24 282 168 248 201 
300 7 61 12 238 240 144 35 44 
301 5 236 291 80 275 50 
302 5 51 87 27 183 279 
DEPOT_SECTION
   1
   -1
EOF
