NAME :  X-n599-kX-w119-c7.cctp
COMMENT : 	Adapted by Maziero, Usberti and Cavellucci from the Uchoa, Pecin, Pessoa, Poggi, Subramanian, and Vidal (2013)
TYPE :  CCTP
DIMENSION :    464
EDGE_WEIGHT_TYPE : 	EUC_2D	
CAPACITY : 	487
VERTICES_WITHIN_COVERAGE :  7
VERTICES_WITH_DEMAND : 	119
NODE_COORD_SECTION
1 284 167
2 6 711
3 874 746
4 483 894
5 733 189
6 336 29
7 488 684
8 825 903
9 98 412
10 206 306
11 497 641
12 499 745
13 481 40
14 500 390
15 851 268
16 51 278
17 805 796
18 554 771
19 576 984
20 734 251
21 325 414
22 658 81
23 279 467
24 1000 804
25 124 148
26 554 594
27 645 168
28 4 965
29 614 267
30 939 719
31 935 800
32 109 154
33 31 554
34 960 512
35 489 840
36 377 684
37 945 808
38 720 165
39 226 34
40 73 255
41 748 344
42 774 514
43 143 893
44 168 461
45 164 493
46 631 533
47 815 191
48 833 284
49 746 100
50 252 839
51 894 472
52 944 597
53 371 28
54 552 186
55 610 541
56 578 665
57 749 655
58 898 974
59 274 972
60 520 642
61 914 373
62 610 738
63 773 602
64 752 74
65 729 90
66 464 658
67 70 36
68 964 397
69 388 732
70 185 51
71 712 144
72 45 437
73 910 738
74 956 879
75 318 560
76 592 913
77 642 564
78 907 240
79 88 186
80 399 931
81 763 180
82 626 876
83 302 689
84 970 490
85 775 574
86 653 667
87 813 999
88 5 980
89 10 249
90 980 136
91 557 816
92 915 680
93 131 722
94 553 946
95 45 101
96 306 260
97 627 26
98 771 398
99 869 585
100 493 282
101 312 212
102 985 939
103 194 262
104 992 698
105 834 844
106 1 651
107 271 893
108 20 349
109 163 503
110 579 761
111 923 502
112 2 469
113 103 284
114 928 132
115 51 883
116 63 181
117 784 300
118 212 774
119 138 90
120 532 999
121 160 179
122 51 330
123 519 563
124 15 591
125 2 546
126 20 964
127 975 611
128 131 737
129 969 497
130 367 77
131 925 640
132 160 288
133 162 80
134 704 21
135 980 560
136 896 344
137 20 663
138 475 920
139 480 756
140 407 973
141 447 697
142 249 926
143 146 433
144 22 95
145 789 664
146 110 741
147 378 573
148 606 838
149 583 717
150 151 525
151 971 191
152 512 553
153 339 985
154 108 241
155 317 221
156 763 566
157 310 305
158 572 203
159 454 957
160 621 295
161 154 175
162 122 50
163 163 817
164 879 455
165 801 726
166 504 198
167 970 276
168 934 920
169 21 730
170 0 689
171 55 848
172 234 477
173 125 170
174 169 455
175 825 911
176 300 380
177 492 28
178 466 702
179 280 878
180 529 935
181 580 243
182 892 721
183 844 830
184 139 349
185 345 668
186 202 781
187 703 608
188 293 435
189 28 660
190 481 59
191 632 672
192 220 763
193 13 308
194 216 306
195 32 554
196 158 386
197 829 812
198 867 873
199 784 951
200 220 977
201 852 979
202 776 539
203 456 434
204 113 924
205 30 459
206 659 795
207 623 116
208 635 270
209 232 431
210 520 384
211 73 559
212 492 942
213 869 445
214 843 368
215 23 54
216 908 695
217 727 140
218 314 736
219 73 940
220 646 802
221 946 370
222 461 280
223 987 63
224 619 314
225 310 285
226 440 921
227 84 462
228 659 265
229 294 353
230 392 406
231 973 635
232 0 537
233 973 718
234 762 474
235 762 978
236 217 27
237 185 282
238 972 759
239 774 283
240 29 157
241 110 925
242 427 836
243 695 663
244 216 367
245 914 966
246 675 144
247 380 424
248 983 421
249 196 287
250 703 575
251 42 81
252 651 950
253 828 842
254 316 34
255 391 970
256 725 674
257 120 90
258 694 30
259 517 759
260 365 235
261 494 299
262 491 337
263 872 740
264 660 518
265 45 383
266 354 180
267 425 710
268 601 696
269 985 82
270 838 611
271 977 848
272 61 126
273 337 5
274 962 264
275 832 389
276 537 349
277 15 890
278 85 734
279 17 668
280 650 591
281 42 53
282 367 72
283 951 526
284 607 633
285 686 319
286 915 493
287 920 267
288 189 208
289 735 596
290 128 875
291 544 996
292 700 96
293 314 626
294 240 431
295 689 615
296 177 160
297 132 639
298 292 500
299 313 752
300 240 47
301 750 460
302 314 486
303 701 50
304 303 175
305 541 185
306 966 670
307 7 640
308 911 283
309 550 784
310 565 856
311 725 81
312 557 176
313 122 60
314 86 270
315 306 688
316 62 569
317 592 581
318 108 151
319 956 106
320 465 782
321 315 454
322 257 878
323 859 581
324 857 385
325 956 788
326 932 515
327 614 647
328 39 570
329 293 866
330 861 930
331 997 658
332 25 56
333 996 771
334 609 794
335 575 912
336 798 641
337 47 705
338 33 332
339 20 892
340 406 668
341 911 786
342 287 587
343 230 500
344 101 865
345 218 917
346 478 14
347 179 48
348 284 237
349 832 379
350 685 104
351 224 45
352 31 407
353 385 391
354 8 935
355 760 662
356 255 263
357 811 645
358 152 288
359 48 522
360 624 942
361 557 687
362 570 674
363 523 682
364 521 738
365 825 540
366 906 960
367 286 33
368 43 940
369 410 713
370 96 760
371 269 427
372 329 180
373 634 97
374 285 241
375 431 871
376 964 134
377 19 292
378 15 407
379 986 675
380 272 671
381 346 394
382 551 663
383 759 368
384 281 999
385 416 642
386 966 681
387 416 755
388 852 486
389 57 476
390 828 352
391 446 705
392 197 107
393 652 878
394 559 625
395 539 149
396 76 178
397 869 714
398 172 542
399 883 701
400 167 695
401 265 285
402 465 898
403 625 552
404 876 277
405 896 763
406 953 351
407 634 37
408 5 753
409 998 497
410 237 482
411 787 445
412 50 301
413 429 596
414 881 355
415 888 609
416 927 216
417 555 110
418 166 518
419 840 933
420 916 873
421 221 705
422 97 71
423 634 685
424 759 542
425 680 133
426 489 197
427 216 62
428 694 287
429 849 833
430 811 272
431 141 463
432 645 843
433 461 656
434 337 375
435 534 927
436 346 660
437 32 304
438 453 799
439 325 239
440 454 629
441 505 920
442 461 582
443 931 438
444 194 274
445 682 129
446 152 673
447 579 876
448 729 124
449 513 311
450 936 365
451 83 93
452 10 103
453 223 860
454 402 101
455 965 683
456 35 143
457 262 766
458 113 182
459 573 796
460 384 538
461 251 775
462 186 96
463 558 287
464 661 518
DEMAND_SECTION
2 63
3 89
4 97
5 78
6 92
7 55
8 97
9 88
10 95
11 64
12 80
13 68
14 71
15 95
16 75
17 89
18 54
19 75
20 61
21 66
22 86
23 56
24 99
25 65
26 56
27 99
28 79
29 73
30 53
31 63
32 76
33 67
34 77
35 82
36 67
37 68
38 64
39 69
40 68
41 83
42 77
43 67
44 74
45 80
46 55
47 86
48 68
49 62
50 78
51 67
52 90
53 63
54 90
55 56
56 69
57 97
58 87
59 87
60 70
61 75
62 73
63 81
64 97
65 88
66 68
67 53
68 64
69 95
70 87
71 92
72 79
73 77
74 75
75 86
76 85
77 55
78 60
79 78
80 71
81 68
82 69
83 73
84 89
85 64
86 95
87 61
88 85
89 55
90 96
91 51
92 98
93 82
94 89
95 71
96 60
97 94
98 64
99 74
100 75
101 91
102 63
103 67
104 91
105 77
106 65
107 89
108 50
109 77
110 88
111 66
112 98
113 64
114 51
115 64
116 96
117 51
118 54
119 68
120 59
COVERAGE_SECTION
2 7 170 169 337 408 279 137 189 
3 7 263 405 182 397 73 399 341 
4 7 402 138 441 212 226 35 375 
5 7 38 81 217 71 20 448 246 
6 6 254 273 53 367 282 130 
7 7 178 66 363 433 141 11 391 
8 6 175 419 330 198 105 253 
9 7 143 227 72 265 196 352 431 
10 7 194 249 237 444 103 132 358 
11 7 60 66 433 7 440 363 382 
12 7 139 259 364 320 178 18 7 
13 7 177 190 346 454 417 53 282 
14 4 210 262 276 203 
15 7 48 404 430 308 78 287 117 
16 7 412 40 437 377 314 193 89 
17 6 197 253 183 105 429 165 
18 7 309 110 459 259 91 364 334 
19 7 291 94 120 360 180 435 335 
20 6 239 428 5 117 228 81 
21 7 381 188 321 434 176 247 371 
22 7 373 350 292 207 407 303 445 
23 7 188 298 321 302 371 410 172 
24 7 333 325 271 238 37 31 74 
25 7 32 318 173 458 161 121 79 
26 7 394 317 123 60 152 284 382 
27 7 246 425 445 207 71 373 38 
28 7 88 126 354 368 219 339 277 
29 6 208 160 181 228 224 463 
30 7 233 73 216 455 92 182 386 
31 7 37 325 341 405 238 271 24 
32 7 318 25 173 458 79 396 161 
33 7 195 328 125 316 232 359 124 
34 7 129 283 84 326 111 409 286 
35 7 4 438 242 320 402 375 91 
36 7 340 185 436 369 69 267 385 
37 7 31 325 341 271 24 238 333 
38 7 71 217 5 448 81 246 425 
39 7 236 351 300 427 70 347 367 
40 7 314 16 154 113 412 89 437 
41 7 383 117 98 239 285 428 390 
42 7 202 424 234 156 365 301 85 
43 6 290 204 241 344 163 345 
44 7 174 431 45 143 109 418 150 
45 7 109 418 44 150 174 431 398 
46 7 403 55 77 264 464 280 317 
47 3 81 430 5 
48 7 15 430 404 117 239 390 308 
49 7 65 64 311 448 217 292 71 
50 7 453 322 179 329 107 461 457 
51 7 164 286 213 111 388 443 326 
52 7 127 131 231 135 415 283 99 
53 7 6 273 282 130 254 454 367 
54 7 305 312 158 395 166 181 426 
55 7 403 46 77 317 264 464 280 
56 7 362 382 361 268 327 284 394 
57 7 355 256 145 336 243 63 289 
58 7 366 245 201 330 168 419 87 
59 6 384 142 200 153 345 107 
60 7 11 382 363 394 7 66 361 
61 7 450 221 136 414 406 68 324 
62 7 149 110 268 334 423 18 459 
63 7 85 156 289 336 357 57 355 
64 7 49 65 311 448 292 303 217 
65 7 311 49 64 292 448 350 303 
66 7 433 440 7 11 141 178 391 
67 7 281 422 332 215 251 162 313 
68 7 248 221 450 406 443 61 136 
69 7 369 387 267 36 391 340 141 
70 7 347 427 133 351 236 39 462 
71 7 217 38 448 425 445 246 350 
72 7 205 352 389 378 227 112 265 
73 7 182 405 30 3 263 216 399 
74 7 271 420 168 102 37 31 24 
75 5 342 147 298 293 460 
76 7 335 447 360 82 94 435 310 
77 7 403 280 46 55 264 464 317 
78 6 287 416 308 404 274 15 
79 7 396 116 458 32 173 318 25 
80 5 255 226 140 159 375 
81 7 5 38 47 217 71 448 20 
82 7 393 432 148 447 76 335 310 
83 6 315 380 185 218 436 293 
84 7 129 34 409 283 326 111 286 
85 7 156 63 202 424 289 42 365 
86 7 191 423 243 327 284 268 295 
87 5 201 235 199 419 330 
88 7 28 126 354 368 219 339 277 
89 7 377 16 193 437 40 412 314 
90 6 376 319 114 269 151 223 
91 7 459 309 310 18 148 334 110 
92 7 216 399 131 30 182 455 386 
93 6 128 146 400 278 370 446 
94 7 180 435 335 19 76 291 441 
95 7 251 144 272 452 451 456 281 
96 7 225 374 439 348 155 157 101 
97 7 407 22 258 373 134 303 207 
98 6 383 411 41 275 349 301 
99 7 323 415 270 365 52 131 357 
100 5 261 222 449 262 463 
101 7 155 439 372 304 348 374 96 
102 7 168 74 245 366 271 58 420 
103 7 444 237 249 132 10 194 358 
104 7 379 233 386 455 306 331 30 
105 7 253 183 429 197 198 17 8 
106 7 307 137 279 189 170 2 124 
107 7 179 322 329 142 50 345 453 
108 7 338 122 193 265 437 377 412 
109 7 45 418 150 398 44 431 174 
110 7 18 459 309 62 149 334 91 
111 7 286 326 283 34 51 129 84 
112 7 205 72 389 378 232 352 359 
113 7 314 40 154 358 16 412 132 
114 2 376 319 
115 7 339 171 277 344 368 219 354 
116 7 396 79 240 456 458 32 318 
117 7 239 430 48 41 390 20 383 
118 7 186 192 461 457 163 421 50 
119 7 257 133 313 162 422 462 451 
120 7 291 19 94 180 212 435 441 
121 6 161 296 173 288 458 25 
122 7 338 412 437 108 193 377 16 
123 4 152 26 442 394 
124 7 328 33 195 125 307 316 232 
125 7 232 33 195 328 124 359 316 
126 7 28 88 354 368 219 339 277 
127 7 231 52 135 331 131 306 379 
128 6 93 146 370 278 400 446 
129 7 84 34 409 283 326 111 286 
130 6 282 454 53 6 254 273 
131 7 92 52 231 415 306 127 216 
132 7 358 237 249 444 103 10 113 
133 7 119 462 347 70 257 392 313 
134 7 258 303 311 64 407 65 292 
135 7 283 127 34 52 129 326 409 
136 7 414 61 450 221 324 406 214 
137 7 279 189 106 307 170 2 337 
138 7 402 4 212 441 226 159 180 
139 7 12 320 259 364 438 178 391 
140 7 255 80 159 226 153 138 212 
141 7 391 178 267 369 7 66 433 
142 7 345 107 322 59 179 200 453 
143 7 431 174 44 196 9 45 227 
144 7 452 95 251 332 215 281 272 
145 4 336 355 357 57 
146 5 128 370 278 93 337 
147 6 460 413 75 385 293 442 
148 7 432 82 334 310 447 459 91 
149 7 268 62 361 110 362 56 423 
150 4 418 109 398 45 
151 5 416 90 376 114 274 
152 3 123 26 442 
153 6 255 384 59 140 80 142 
154 7 314 40 113 79 458 358 16 
155 7 101 439 348 374 96 372 304 
156 7 85 424 202 63 289 42 250 
157 7 225 96 401 229 439 356 374 
158 7 54 312 305 181 395 166 29 
159 7 226 212 138 140 402 80 441 
160 4 224 29 208 228 
161 7 121 296 173 25 458 288 32 
162 7 313 422 257 119 133 67 347 
163 5 186 118 290 453 344 
164 4 213 51 388 286 
165 4 145 397 17 263 
166 6 426 305 54 312 395 158 
167 5 274 287 308 78 416 
168 7 74 366 245 420 102 58 330 
169 7 2 408 337 170 279 278 137 
170 7 2 279 137 106 189 169 307 
171 4 115 344 339 277 
172 7 410 343 23 209 294 371 298 
173 7 458 25 32 318 161 121 79 
174 7 44 431 143 45 109 418 209 
175 5 8 419 330 198 199 
176 7 229 434 21 381 188 371 157 
177 7 13 346 190 417 454 53 395 
178 7 141 391 7 267 66 433 12 
179 6 107 329 322 50 142 453 
180 7 435 94 441 212 335 138 4 
181 6 158 29 463 208 54 160 
182 7 399 397 73 263 3 216 405 
183 7 429 105 253 197 198 17 8 
184 7 196 358 132 113 9 244 10 
185 6 436 36 315 83 293 340 
186 7 118 192 461 163 457 50 421 
187 7 295 250 289 243 280 57 63 
188 7 371 321 23 21 294 176 302 
189 7 137 279 106 307 170 337 2 
190 7 13 177 346 454 417 395 53 
191 7 423 86 327 268 284 56 362 
192 7 118 186 461 457 421 163 50 
193 7 377 437 338 412 108 122 16 
194 7 10 249 237 444 103 401 356 
195 7 33 328 125 316 232 359 124 
196 6 184 143 244 9 174 44 
197 7 183 17 429 253 105 198 3 
198 7 105 429 183 420 253 8 175 
199 2 235 87 
200 4 59 142 345 384 
201 7 87 58 419 330 366 245 175 
202 7 424 42 156 85 365 63 234 
203 1 14 
204 5 241 43 219 290 344 
205 7 72 112 389 352 227 378 359 
206 5 220 334 432 148 62 
207 7 373 22 27 246 425 445 350 
208 5 29 228 160 224 181 
209 6 294 371 172 410 23 188 
210 3 14 276 262 
211 6 316 328 195 33 359 124 
212 7 441 138 180 159 435 4 402 
213 4 164 51 388 324 
214 7 349 324 390 275 414 136 61 
215 7 332 281 251 144 67 452 95 
216 7 92 399 182 30 73 397 131 
217 7 71 448 38 49 445 425 5 
218 7 299 83 315 457 69 461 185 
219 6 368 241 204 126 115 354 
220 5 206 334 432 148 62 
221 6 450 406 61 68 136 248 
222 3 100 261 449 
223 3 269 319 90 
224 3 160 29 208 
225 7 157 96 401 439 374 348 356 
226 7 402 138 159 80 4 375 212 
227 7 389 72 9 205 431 143 359 
228 5 208 428 29 160 285 
229 7 176 434 157 381 21 225 401 
230 5 353 247 381 434 21 
231 7 127 331 306 379 386 52 131 
232 7 125 33 195 359 328 124 112 
233 7 104 30 455 386 238 379 306 
234 4 301 411 42 202 
235 2 199 87 
236 7 39 351 300 427 70 347 367 
237 7 249 444 103 132 10 358 194 
238 7 333 325 233 30 24 31 37 
239 7 117 430 20 48 41 15 428 
240 7 456 116 272 396 452 95 144 
241 5 204 219 43 290 344 
242 4 375 438 35 320 
243 7 256 86 295 57 187 191 355 
244 6 194 196 10 209 294 184 
245 7 366 58 168 201 330 102 419 
246 7 425 445 71 27 350 38 217 
247 5 230 353 381 21 434 
248 7 68 443 221 84 450 406 129 
249 7 237 444 10 103 194 132 358 
250 7 187 289 295 280 156 77 424 
251 7 95 144 281 332 215 452 451 
252 2 360 76 
253 7 105 183 429 197 198 17 8 
254 7 6 367 273 53 282 130 300 
255 6 140 80 153 159 226 138 
256 7 57 243 355 145 295 187 86 
257 7 119 313 422 451 162 133 25 
258 7 134 303 311 407 22 292 97 
259 7 364 12 139 18 309 320 110 
260 4 439 155 266 101 
261 4 100 449 222 262 
262 5 449 261 276 14 100 
263 7 3 397 182 405 73 399 216 
264 5 464 46 77 403 55 
265 7 352 378 108 338 122 72 9 
266 5 372 304 101 155 260 
267 7 369 391 141 178 69 340 387 
268 7 149 423 362 56 191 62 361 
269 3 223 319 90 
270 7 323 99 357 336 415 63 145 
271 7 74 24 37 31 325 420 333 
272 7 95 456 451 240 251 144 318 
273 7 6 254 53 367 282 130 300 
274 5 167 287 308 416 78 
275 6 349 214 324 390 414 98 
276 4 210 449 262 14 
277 7 339 115 354 368 171 126 28 
278 6 146 370 128 93 337 169 
279 7 137 189 106 170 307 2 337 
280 7 77 295 403 250 187 317 284 
281 7 332 215 251 67 144 95 451 
282 6 130 53 454 6 254 273 
283 7 34 326 129 111 84 135 286 
284 7 327 56 191 394 317 362 86 
285 4 428 228 41 224 
286 7 111 326 51 34 283 164 129 
287 6 308 78 274 404 167 416 
288 4 121 161 296 103 
289 7 187 63 250 156 85 295 424 
290 5 43 344 204 241 163 
291 7 120 19 94 180 435 212 441 
292 7 350 311 65 445 448 425 22 
293 6 342 436 185 380 315 83 
294 6 209 371 172 410 23 188 
295 7 187 250 280 243 289 86 77 
296 6 121 161 288 173 25 392 
297 3 446 400 93 
298 6 302 23 321 410 172 343 
299 5 218 457 83 315 461 
300 6 351 39 427 236 367 70 
301 4 234 411 42 98 
302 7 298 321 23 188 21 75 371 
303 7 258 134 311 292 65 22 64 
304 3 372 101 155 
305 7 54 312 158 395 166 426 181 
306 7 386 455 379 331 231 104 233 
307 7 106 137 189 279 170 124 2 
308 6 287 404 78 274 167 15 
309 7 18 459 91 110 259 364 334 
310 7 447 91 148 335 459 76 82 
311 7 65 49 64 292 303 448 350 
312 7 54 305 158 395 166 417 181 
313 7 162 422 257 119 133 451 67 
314 7 40 113 16 154 412 437 358 
315 6 83 380 185 218 436 293 
316 6 211 328 33 195 359 124 
317 7 26 55 403 77 284 394 280 
318 7 32 25 173 458 79 396 161 
319 5 376 90 114 269 223 
320 7 438 139 12 387 259 35 242 
321 7 188 302 23 21 298 371 381 
322 7 107 179 329 453 50 142 345 
323 7 99 270 415 365 357 85 52 
324 7 214 275 349 414 390 136 61 
325 7 37 31 238 333 341 24 271 
326 7 111 283 34 286 129 84 51 
327 7 284 191 56 423 86 268 362 
328 7 195 33 316 124 211 125 359 
329 4 179 107 322 50 
330 7 419 175 8 201 366 58 198 
331 7 379 231 306 386 104 455 127 
332 7 215 281 251 144 67 95 452 
333 7 238 24 325 233 37 31 104 
334 7 459 220 148 110 206 62 91 
335 7 76 447 94 435 180 310 360 
336 6 357 145 355 63 270 57 
337 7 169 2 278 279 189 137 170 
338 7 122 108 437 193 412 377 265 
339 7 277 115 354 368 171 126 219 
340 7 385 36 369 267 141 391 433 
341 7 405 31 37 325 73 3 263 
342 2 75 293 
343 5 410 172 23 298 45 
344 5 290 171 43 115 204 
345 6 142 322 453 107 200 179 
346 7 177 13 190 53 454 417 282 
347 7 70 133 427 236 351 39 462 
348 6 374 96 155 101 356 439 
349 6 275 214 324 390 414 98 
350 7 292 445 425 22 246 65 311 
351 7 39 300 236 427 70 347 367 
352 7 378 265 72 205 108 9 112 
353 5 230 247 381 434 21 
354 7 28 126 368 88 339 277 219 
355 6 57 145 256 336 357 63 
356 6 401 374 348 96 194 225 
357 5 336 145 270 355 63 
358 7 132 237 249 444 103 113 10 
359 7 33 195 211 389 316 328 232 
360 5 252 76 335 19 82 
361 7 362 382 56 363 149 268 60 
362 7 56 361 382 268 149 363 394 
363 7 361 382 7 60 362 11 364 
364 7 259 12 139 18 309 363 110 
365 6 202 323 42 85 388 99 
366 7 245 58 168 330 201 419 102 
367 6 254 300 6 273 39 351 
368 7 219 126 354 28 339 88 277 
369 7 267 69 391 141 387 36 340 
370 4 146 278 128 93 
371 7 188 294 209 23 321 176 21 
372 4 266 304 101 155 
373 7 207 22 350 425 445 407 246 
374 6 348 96 356 155 101 439 
375 5 242 402 226 4 35 
376 5 90 319 114 269 151 
377 7 193 437 412 16 338 89 122 
378 7 352 265 72 205 108 112 338 
379 7 331 306 386 455 104 231 233 
380 4 83 315 421 293 
381 6 434 21 353 247 176 230 
382 7 362 361 56 363 60 394 11 
383 7 41 98 390 117 349 275 411 
384 6 59 153 200 142 345 107 
385 7 340 440 433 413 66 36 141 
386 7 455 306 379 104 233 331 30 
387 7 69 369 267 320 438 391 139 
388 3 164 51 213 
389 7 227 205 72 359 112 352 9 
390 7 214 349 275 324 414 48 117 
391 7 141 178 267 369 7 66 433 
392 7 462 133 427 70 296 119 347 
393 3 82 432 148 
394 7 26 382 60 56 284 362 317 
395 7 312 305 54 417 166 158 426 
396 7 116 79 458 32 318 173 240 
397 6 399 182 263 3 216 73 
398 4 418 150 109 45 
399 7 397 182 216 92 263 3 73 
400 6 446 93 128 421 297 146 
401 7 356 225 96 374 157 348 194 
402 7 4 138 226 375 441 212 159 
403 7 55 46 77 317 280 264 464 
404 7 15 308 48 287 78 430 136 
405 7 341 3 73 263 182 31 397 
406 6 221 450 61 68 136 414 
407 7 97 22 258 373 303 134 207 
408 6 169 2 170 337 278 279 
409 7 84 129 34 283 135 326 111 
410 6 172 343 23 209 294 298 
411 4 234 301 98 42 
412 7 437 16 122 377 338 193 314 
413 6 442 440 385 147 433 66 
414 7 136 61 324 214 390 349 450 
415 7 99 323 131 270 52 92 357 
416 4 78 151 287 274 
417 7 395 312 207 54 305 373 190 
418 4 109 150 45 398 
419 7 330 175 8 201 199 198 58 
420 7 74 198 168 271 37 31 429 
421 6 400 192 380 118 457 446 
422 7 451 313 257 162 67 119 251 
423 7 191 86 268 327 62 56 284 
424 7 202 156 42 85 289 63 250 
425 7 445 246 350 71 292 217 27 
426 5 166 305 54 395 312 
427 7 351 300 39 70 236 347 462 
428 5 285 228 20 208 160 
429 7 183 105 253 197 198 17 8 
430 7 48 117 239 15 404 20 47 
431 7 44 174 143 45 109 227 418 
432 5 393 82 148 220 206 
433 7 66 440 7 11 141 178 385 
434 6 381 176 21 229 353 230 
435 7 180 94 441 335 212 138 76 
436 6 185 36 293 315 83 340 
437 7 377 412 193 338 16 122 108 
438 7 320 242 139 35 387 12 259 
439 7 155 96 101 260 374 348 225 
440 7 433 66 385 413 11 442 340 
441 7 212 180 138 435 4 402 94 
442 5 413 440 152 123 11 
443 7 51 68 164 248 286 213 111 
444 7 103 237 249 10 132 194 358 
445 7 425 246 350 71 292 217 448 
446 5 400 297 93 128 421 
447 7 310 335 76 82 148 91 435 
448 7 217 71 49 65 292 38 311 
449 6 261 262 100 276 463 222 
450 6 221 406 61 68 136 414 
451 7 422 257 95 272 251 313 119 
452 7 144 95 251 456 332 215 272 
453 7 50 322 345 107 179 329 142 
454 4 130 282 53 190 
455 7 386 306 379 104 233 331 30 
456 7 240 272 95 116 452 144 396 
457 7 461 192 118 299 218 186 421 
458 7 173 79 32 318 25 396 161 
459 7 91 309 18 110 334 148 310 
460 4 147 75 413 302 
461 7 457 192 118 186 50 299 218 
462 7 392 133 70 427 119 347 351 
463 5 181 449 29 160 100 
464 5 264 46 77 403 55 
DEPOT_SECTION
   1
   -1
EOF
