NAME :  X-n536-kX-w214-c9.cctp
COMMENT : 	Adapted by Maziero, Usberti and Cavellucci from the Uchoa, Pecin, Pessoa, Poggi, Subramanian, and Vidal (2013)
TYPE :  CCTP
DIMENSION :    532
EDGE_WEIGHT_TYPE : 	EUC_2D	
CAPACITY : 	371
VERTICES_WITHIN_COVERAGE :  9
VERTICES_WITH_DEMAND : 	214
NODE_COORD_SECTION
1 500 500
2 957 135
3 149 141
4 1 96
5 228 268
6 781 529
7 867 797
8 109 53
9 9 127
10 258 317
11 89 54
12 167 155
13 739 534
14 962 896
15 975 122
16 960 68
17 205 52
18 841 806
19 739 677
20 90 192
21 842 772
22 972 143
23 27 85
24 953 240
25 185 211
26 652 428
27 764 523
28 159 142
29 101 113
30 879 837
31 885 326
32 953 118
33 777 491
34 65 66
35 976 171
36 961 748
37 710 493
38 778 708
39 277 223
40 88 112
41 172 57
42 2 209
43 121 64
44 938 29
45 166 160
46 142 97
47 84 284
48 269 224
49 940 727
50 876 822
51 131 169
52 951 768
53 278 21
54 292 280
55 672 616
56 94 96
57 212 89
58 270 368
59 852 777
60 170 200
61 848 123
62 951 777
63 756 532
64 101 29
65 136 52
66 831 553
67 953 784
68 170 135
69 861 728
70 172 133
71 826 899
72 832 615
73 142 249
74 900 565
75 735 672
76 837 833
77 723 538
78 931 862
79 214 45
80 938 2
81 918 296
82 931 760
83 994 40
84 302 389
85 115 120
86 138 134
87 764 502
88 962 408
89 888 216
90 209 168
91 100 131
92 900 163
93 15 209
94 219 170
95 782 310
96 922 706
97 279 265
98 750 566
99 276 393
100 133 16
101 372 183
102 761 503
103 116 205
104 33 8
105 203 336
106 240 222
107 95 100
108 261 357
109 633 551
110 904 796
111 12 26
112 288 231
113 861 613
114 245 331
115 815 790
116 257 215
117 949 42
118 83 118
119 529 414
120 462 64
121 146 141
122 799 566
123 618 497
124 742 619
125 954 95
126 57 141
127 133 147
128 179 120
129 938 798
130 92 54
131 188 352
132 211 240
133 866 805
134 660 583
135 74 30
136 119 236
137 120 81
138 69 324
139 719 569
140 788 550
141 120 172
142 14 196
143 179 85
144 171 66
145 107 83
146 861 867
147 108 141
148 272 82
149 838 505
150 43 122
151 617 454
152 28 140
153 91 118
154 880 814
155 833 431
156 130 386
157 670 343
158 940 211
159 708 548
160 695 683
161 71 239
162 804 481
163 181 205
164 237 246
165 783 600
166 987 269
167 851 904
168 193 200
169 156 48
170 169 133
171 824 526
172 52 78
173 636 413
174 158 202
175 661 518
176 503 293
177 575 564
178 227 248
179 90 2
180 122 18
181 786 523
182 960 117
183 958 161
184 752 556
185 24 141
186 116 95
187 371 175
188 184 142
189 937 88
190 875 736
191 22 198
192 882 774
193 639 445
194 810 457
195 127 62
196 5 118
197 95 143
198 876 63
199 285 103
200 773 583
201 81 381
202 238 111
203 192 112
204 174 145
205 778 665
206 511 970
207 22 131
208 196 67
209 261 221
210 782 505
211 220 252
212 173 150
213 816 601
214 806 559
215 14 85
216 256 96
217 278 754
218 110 144
219 779 840
220 726 649
221 24 33
222 789 502
223 891 441
224 139 183
225 866 897
226 853 747
227 863 901
228 155 178
229 969 132
230 299 256
231 158 110
232 159 108
233 909 804
234 125 34
235 22 156
236 573 369
237 815 507
238 6 58
239 917 123
240 240 291
241 986 55
242 818 595
243 253 263
244 943 195
245 131 242
246 30 327
247 778 781
248 981 137
249 121 775
250 954 848
251 797 822
252 954 250
253 225 255
254 174 53
255 956 816
256 214 280
257 805 500
258 873 491
259 256 117
260 50 35
261 185 185
262 65 68
263 207 260
264 156 61
265 49 5
266 71 6
267 927 138
268 140 191
269 814 161
270 850 719
271 176 26
272 991 261
273 848 439
274 929 775
275 153 149
276 185 155
277 230 56
278 170 174
279 239 290
280 63 148
281 781 515
282 99 71
283 148 140
284 791 748
285 924 218
286 803 391
287 82 136
288 876 669
289 310 69
290 66 21
291 736 530
292 701 510
293 875 534
294 687 967
295 63 50
296 759 255
297 230 7
298 874 209
299 695 484
300 849 700
301 251 194
302 739 85
303 851 157
304 794 978
305 242 319
306 821 949
307 244 217
308 961 173
309 110 95
310 50 170
311 919 814
312 189 198
313 978 223
314 47 97
315 959 147
316 156 229
317 53 374
318 169 153
319 936 80
320 772 613
321 205 289
322 226 227
323 951 155
324 881 702
325 191 58
326 126 58
327 722 532
328 921 656
329 168 349
330 85 69
331 810 844
332 113 73
333 863 716
334 862 810
335 250 187
336 25 56
337 203 221
338 969 661
339 719 562
340 884 752
341 241 314
342 764 525
343 132 265
344 144 344
345 573 430
346 276 185
347 247 342
348 837 453
349 888 516
350 219 242
351 295 317
352 228 115
353 815 268
354 351 420
355 67 154
356 893 135
357 863 815
358 159 324
359 28 41
360 711 120
361 94 122
362 873 783
363 964 182
364 303 71
365 801 527
366 743 469
367 263 62
368 691 763
369 981 160
370 226 261
371 231 277
372 0 66
373 48 108
374 162 295
375 680 554
376 199 93
377 848 757
378 92 81
379 203 265
380 98 266
381 67 156
382 148 150
383 988 69
384 741 524
385 961 140
386 132 74
387 828 773
388 785 734
389 69 154
390 48 26
391 700 593
392 142 62
393 198 427
394 781 499
395 980 94
396 828 87
397 26 148
398 194 252
399 981 717
400 884 608
401 797 521
402 875 253
403 502 408
404 295 92
405 5 77
406 164 234
407 63 110
408 117 104
409 46 147
410 900 127
411 219 151
412 319 211
413 837 700
414 109 209
415 696 686
416 868 544
417 293 351
418 167 171
419 357 171
420 183 209
421 99 228
422 897 821
423 209 175
424 219 49
425 188 30
426 261 197
427 242 211
428 958 11
429 824 818
430 156 230
431 109 154
432 194 32
433 920 831
434 995 157
435 760 310
436 180 73
437 98 90
438 946 255
439 953 881
440 162 8
441 883 804
442 232 412
443 109 131
444 883 880
445 813 219
446 242 262
447 232 252
448 352 260
449 813 936
450 362 335
451 64 199
452 890 788
453 901 823
454 942 120
455 662 470
456 300 261
457 967 790
458 965 126
459 102 58
460 794 886
461 788 252
462 116 327
463 763 349
464 1000 129
465 814 388
466 198 136
467 425 178
468 227 226
469 311 229
470 161 159
471 106 161
472 287 271
473 695 660
474 207 138
475 112 6
476 915 537
477 169 94
478 769 555
479 158 72
480 35 268
481 790 842
482 80 321
483 150 503
484 89 287
485 645 573
486 190 296
487 165 193
488 135 337
489 978 234
490 138 28
491 223 78
492 865 815
493 883 795
494 113 268
495 143 232
496 235 221
497 840 666
498 197 130
499 101 121
500 786 589
501 153 12
502 152 191
503 209 267
504 232 124
505 89 490
506 759 490
507 674 703
508 109 317
509 46 93
510 250 203
511 741 662
512 924 148
513 622 606
514 730 561
515 910 118
516 21 113
517 879 493
518 72 281
519 961 782
520 158 80
521 926 766
522 800 624
523 989 133
524 21 106
525 802 534
526 601 532
527 928 976
528 162 281
529 134 76
530 901 235
531 348 278
532 31 94
DEMAND_SECTION
2 22
3 94
4 52
5 51
6 54
7 96
8 96
9 82
10 77
11 82
12 55
13 78
14 77
15 40
16 47
17 89
18 77
19 94
20 78
21 81
22 37
23 66
24 8
25 79
26 24
27 70
28 80
29 100
30 53
31 30
32 10
33 34
34 63
35 29
36 80
37 41
38 80
39 62
40 100
41 66
42 79
43 71
44 29
45 94
46 99
47 59
48 57
49 93
50 52
51 54
52 65
53 64
54 52
55 88
56 56
57 76
58 82
59 65
60 77
61 41
62 94
63 100
64 94
65 97
66 56
67 92
68 79
69 59
70 78
71 99
72 91
73 59
74 64
75 61
76 80
77 99
78 66
79 95
80 28
81 5
82 69
83 9
84 86
85 73
86 58
87 98
88 15
89 19
90 71
91 88
92 26
93 79
94 64
95 32
96 75
97 54
98 97
99 82
100 92
101 51
102 68
103 84
104 56
105 65
106 56
107 63
108 53
109 77
110 81
111 85
112 65
113 67
114 67
115 78
116 93
117 48
118 54
119 21
120 56
121 81
122 58
123 36
124 72
125 1
126 95
127 99
128 74
129 79
130 94
131 98
132 72
133 72
134 56
135 65
136 89
137 98
138 55
139 60
140 67
141 91
142 84
143 69
144 80
145 71
146 80
147 80
148 60
149 72
150 51
151 34
152 61
153 97
154 73
155 47
156 55
157 46
158 31
159 91
160 90
161 72
162 38
163 100
164 87
165 72
166 45
167 73
168 86
169 99
170 90
171 56
172 70
173 29
174 51
175 56
176 43
177 59
178 85
179 88
180 65
181 80
182 26
183 11
184 76
185 59
186 73
187 69
188 57
189 43
190 59
191 69
192 94
193 1
194 6
195 82
196 65
197 97
198 2
199 84
200 63
201 94
202 57
203 62
204 89
205 83
206 88
207 81
208 63
209 89
210 68
211 98
212 81
213 67
214 96
215 98
COVERAGE_SECTION
2 9 385 229 315 458 22 32 182 323 454 
3 9 283 121 275 382 28 86 127 68 170 
4 9 215 405 196 524 516 23 372 532 9 
5 9 370 371 253 446 447 211 256 503 178 
6 9 181 281 342 27 401 365 140 525 210 
7 9 133 334 362 493 441 357 492 154 59 
8 9 459 43 130 326 11 195 332 282 64 
9 9 196 207 516 185 152 524 397 4 235 
10 9 305 341 114 347 240 279 351 108 371 
11 9 130 459 330 8 282 295 34 378 64 
12 9 318 45 470 212 204 28 275 418 276 
13 9 291 384 77 63 327 184 27 342 514 
14 9 439 78 250 433 255 444 527 311 453 
15 9 458 229 182 248 523 22 2 32 385 
16 9 319 117 125 383 241 189 395 83 44 
17 9 79 424 325 208 432 277 425 254 491 
18 9 334 429 357 133 492 76 7 59 115 
19 9 75 511 220 205 160 415 473 38 124 
20 9 414 451 103 471 141 421 431 381 389 
21 9 59 387 377 226 115 362 18 7 192 
22 9 229 248 385 315 2 458 369 523 15 
23 9 532 215 509 524 314 405 172 4 336 
24 9 252 438 489 313 158 285 272 166 244 
25 9 420 163 168 312 60 337 261 487 174 
26 9 193 173 455 151 299 123 345 37 157 
27 9 342 63 6 281 102 87 181 384 210 
28 9 275 3 283 68 121 170 382 12 204 
29 9 499 153 361 40 107 85 56 91 408 
30 9 50 154 422 453 492 357 334 441 133 
31 9 81 402 353 530 438 465 252 95 286 
32 9 182 454 458 2 229 15 125 385 315 
33 9 394 210 222 87 506 102 281 162 257 
34 9 262 295 172 330 11 130 378 509 260 
35 9 369 308 363 183 434 22 315 323 248 
36 9 52 49 62 82 519 67 399 521 274 
37 9 299 292 327 366 384 291 77 506 13 
38 9 388 284 205 19 75 511 413 300 247 
39 9 48 112 209 116 426 307 510 469 106 
40 9 153 118 361 29 107 499 56 91 437 
41 9 254 144 264 169 436 325 479 208 520 
42 9 93 142 191 235 310 451 397 480 185 
43 9 195 326 332 386 8 137 529 65 459 
44 9 117 80 428 16 319 241 83 189 383 
45 9 12 470 318 418 212 278 204 275 28 
46 9 232 231 529 520 386 186 408 137 477 
47 9 484 518 380 494 482 508 138 161 343 
48 9 39 209 116 112 307 426 510 106 427 
49 9 96 36 82 521 52 399 274 62 67 
50 9 154 492 30 357 334 441 133 422 453 
51 9 141 224 127 268 382 228 471 431 275 
52 9 62 67 519 36 82 274 521 457 129 
53 9 367 297 364 289 277 148 424 79 404 
54 9 472 97 456 230 351 243 112 10 240 
55 9 134 391 473 485 513 220 375 139 124 
56 9 107 437 378 309 40 29 145 153 186 
57 9 376 491 208 203 352 143 202 436 325 
58 9 108 99 417 347 84 114 10 305 351 
59 9 21 377 362 387 7 192 226 18 133 
60 9 487 163 174 420 25 312 502 261 168 
61 9 303 396 356 269 410 515 92 198 239 
62 9 67 52 519 457 274 129 82 521 36 
63 9 342 27 13 384 291 184 6 478 102 
64 9 180 8 234 475 130 135 11 179 459 
65 9 326 392 195 43 169 234 264 386 490 
66 9 214 171 122 525 416 365 140 242 401 
67 9 62 519 457 52 129 274 255 521 82 
68 9 170 70 204 28 212 188 128 318 12 
69 9 333 270 190 226 300 377 324 340 413 
70 9 68 170 204 128 188 28 212 318 12 
71 9 167 460 227 449 225 146 306 331 444 
72 9 213 242 113 522 165 400 497 500 122 
73 9 245 495 343 316 430 136 406 494 528 
74 9 476 416 293 400 349 113 66 517 258 
75 9 19 511 220 160 415 473 205 124 38 
76 9 429 18 331 357 492 334 133 50 251 
77 9 327 291 13 159 384 339 514 139 63 
78 9 250 439 433 14 311 453 444 255 422 
79 9 424 17 277 432 325 208 425 491 254 
80 9 428 44 117 83 16 241 319 383 189 
81 9 31 438 252 402 530 24 166 285 272 
82 9 521 274 52 62 36 67 49 519 129 
83 9 241 383 16 117 428 395 44 80 125 
84 9 99 58 417 108 354 347 351 442 114 
85 9 443 499 29 408 91 361 147 153 186 
86 9 121 283 3 127 382 275 28 85 443 
87 9 102 506 33 394 210 27 281 342 222 
88 9 223 31 273 517 81 258 155 349 348 
89 9 298 530 285 402 158 92 244 24 303 
90 9 423 94 411 276 261 474 466 168 188 
91 9 443 499 361 147 197 153 218 29 85 
92 9 512 356 410 267 239 515 303 323 298 
93 9 42 142 191 451 310 235 397 480 161 
94 9 90 423 411 474 335 261 276 168 301 
95 9 435 463 353 461 296 286 465 445 31 
96 9 49 324 328 82 190 36 288 333 340 
97 9 472 54 456 230 243 112 446 39 48 
98 9 184 514 478 200 139 339 13 63 77 
99 9 58 84 108 417 442 347 114 10 351 
100 9 180 490 234 501 475 440 64 65 169 
101 9 187 419 467 412 469 448 346 112 531 
102 9 87 506 27 33 394 210 342 281 222 
103 9 414 268 20 421 136 224 141 495 51 
104 9 265 390 221 111 260 359 290 266 135 
105 9 131 329 114 486 305 341 347 358 321 
106 9 496 307 427 468 322 116 209 510 164 
107 9 56 437 29 40 309 153 378 145 118 
108 9 58 347 114 417 99 10 305 341 84 
109 9 485 526 134 175 375 123 513 177 159 
110 9 233 452 493 441 311 422 453 154 192 
111 9 221 359 104 238 336 390 260 372 265 
112 9 39 48 469 230 209 456 97 116 412 
113 9 400 72 213 242 497 288 74 522 66 
114 9 347 305 341 10 108 240 279 105 58 
115 9 387 429 18 21 251 247 59 377 76 
116 9 209 307 510 48 427 106 426 39 301 
117 9 44 16 428 241 319 80 83 383 189 
118 9 40 153 361 287 499 29 91 107 407 
119 9 403 345 236 151 173 193 123 26 176 
120 9 467 187 101 419 289 364 404 199 53 
121 9 283 3 382 86 275 28 127 470 170 
122 9 214 140 500 200 478 525 66 242 165 
123 9 526 151 175 455 109 193 26 299 177 
124 9 320 220 511 165 200 391 75 500 98 
125 9 189 32 182 319 395 16 454 458 15 
126 9 280 409 355 381 389 150 287 152 310 
127 9 86 121 382 3 283 275 51 218 431 
128 9 70 203 170 68 498 188 231 232 204 
129 9 67 62 255 274 311 519 233 457 52 
130 9 11 459 8 330 282 64 378 332 295 
131 8 329 105 358 344 488 486 347 114 
132 9 350 211 178 263 322 253 337 398 468 
133 9 334 7 357 492 154 441 50 493 362 
134 9 485 55 375 391 109 513 159 139 339 
135 9 290 295 266 260 390 64 11 130 179 
136 9 245 421 495 73 414 103 343 494 380 
137 9 332 145 386 186 529 43 309 195 282 
138 9 482 246 508 484 47 518 462 317 201 
139 9 339 514 159 77 98 391 184 327 13 
140 9 122 214 478 525 6 365 181 401 342 
141 9 51 471 431 224 127 268 218 103 147 
142 9 191 93 42 235 310 397 451 185 152 
143 9 436 477 144 376 520 208 479 41 203 
144 9 41 436 254 479 264 520 143 325 169 
145 9 437 309 332 137 282 186 378 56 107 
146 9 444 225 227 30 167 76 50 71 357 
147 9 218 443 91 197 431 471 499 85 361 
148 9 216 367 199 404 364 259 289 202 277 
149 9 237 171 257 258 162 365 517 401 525 
150 9 373 152 207 407 126 516 314 409 185 
151 9 193 123 26 173 455 345 175 526 299 
152 9 185 397 207 235 409 9 150 516 126 
153 9 361 40 118 499 29 91 107 287 56 
154 9 50 441 492 133 357 334 422 493 7 
155 9 273 348 194 465 286 162 223 258 149 
156 8 344 201 488 329 462 131 358 508 
157 9 173 26 463 435 236 193 95 151 296 
158 9 244 285 24 363 313 252 308 438 489 
159 9 77 339 327 139 514 375 291 13 292 
160 9 415 473 507 75 19 220 511 55 124 
161 9 421 380 451 518 480 47 136 414 20 
162 9 257 194 222 237 33 394 210 281 401 
163 9 420 25 312 60 168 261 487 174 337 
164 9 447 178 253 446 211 350 370 322 468 
165 9 500 320 200 522 213 242 122 124 98 
166 9 272 489 252 438 24 313 81 158 285 
167 9 227 225 71 146 444 449 306 460 76 
168 9 312 163 420 25 261 60 337 487 423 
169 9 264 41 254 65 392 144 479 490 271 
170 9 68 70 28 204 128 188 212 318 3 
171 9 237 365 525 149 401 66 257 181 214 
172 9 262 509 34 314 23 532 295 373 330 
173 9 26 193 151 455 345 236 157 123 299 
174 9 487 60 502 268 163 228 420 224 316 
175 9 292 375 109 123 299 455 37 159 485 
176 9 236 403 119 467 450 345 448 531 101 
177 9 526 109 513 485 123 134 175 375 55 
178 9 447 253 211 164 350 370 132 5 322 
179 9 266 475 64 290 135 180 265 100 234 
180 9 100 234 475 490 64 501 179 8 65 
181 9 6 281 401 365 210 525 222 27 342 
182 9 32 458 15 229 2 454 125 385 22 
183 9 323 308 315 35 385 363 22 369 2 
184 9 98 478 514 63 13 291 342 77 200 
185 9 152 397 207 235 9 409 150 516 196 
186 9 309 408 137 145 437 56 107 332 29 
187 9 101 419 467 412 469 448 346 112 39 
188 9 204 276 212 70 466 68 170 498 318 
189 9 319 125 16 454 32 182 239 515 395 
190 9 69 340 333 226 270 377 324 192 300 
191 9 142 93 42 310 235 451 397 409 185 
192 9 362 452 493 340 7 59 441 110 133 
193 9 26 151 173 455 123 299 345 175 37 
194 9 162 348 155 273 257 33 222 237 394 
195 9 326 43 65 386 392 529 332 8 137 
196 9 9 516 524 207 4 185 152 215 532 
197 9 91 147 218 287 431 443 361 471 499 
198 9 396 319 515 61 189 410 44 239 356 
199 9 404 148 216 259 364 289 367 202 504 
200 9 500 165 478 98 320 122 184 140 214 
201 9 317 156 138 482 462 488 508 344 246 
202 9 352 504 259 216 57 491 474 376 411 
203 9 128 498 376 466 70 477 57 143 474 
204 9 212 318 188 68 12 70 170 28 276 
205 9 511 19 38 75 522 320 220 124 497 
206 7 294 368 304 460 219 449 481 
207 9 185 152 9 397 516 196 150 235 524 
208 9 325 17 436 143 144 41 254 376 57 
209 9 116 48 39 307 106 427 510 426 496 
210 9 394 222 281 33 87 181 102 401 6 
211 9 253 178 350 370 447 132 263 5 164 
212 9 204 318 12 45 276 188 68 470 28 
213 9 242 72 522 500 165 122 214 320 113 
214 9 122 140 525 66 365 500 478 171 242 
215 9 405 23 4 532 524 372 238 516 336 
216 9 148 259 202 199 352 367 504 491 404 
217 9 249 483 206 505 393 354 442 177 99 
218 9 147 431 443 197 91 471 127 85 499 
219 9 481 251 331 460 429 76 247 115 18 
220 9 511 75 19 473 124 160 415 205 320 
221 9 359 111 336 390 260 104 238 265 372 
222 9 210 394 281 33 257 181 401 87 162 
223 9 273 258 517 348 155 349 88 149 194 
224 9 268 502 51 228 141 174 487 418 103 
225 9 227 167 444 146 71 30 449 306 76 
226 9 377 69 190 21 270 59 340 333 387 
227 9 225 167 444 146 71 449 306 30 460 
228 9 502 418 278 224 487 268 470 45 174 
229 9 458 22 385 2 15 248 182 315 523 
230 9 456 472 97 54 112 469 39 48 243 
231 9 232 477 46 128 170 70 68 520 86 
232 9 231 477 46 128 170 70 520 68 143 
233 9 110 311 422 453 452 441 493 433 129 
234 9 490 180 100 65 326 8 64 195 43 
235 9 397 185 152 207 409 310 9 126 150 
236 9 345 119 173 403 151 26 157 193 176 
237 9 257 171 149 401 365 222 162 525 181 
238 9 372 336 405 215 359 221 111 23 4 
239 9 515 410 267 454 512 356 32 189 2 
240 9 279 371 341 5 256 305 446 243 10 
241 9 383 83 16 117 395 125 428 44 319 
242 9 213 72 500 522 122 165 214 66 113 
243 9 446 164 447 5 97 371 370 253 178 
244 9 158 363 308 285 183 35 323 313 24 
245 9 73 136 495 343 316 430 494 406 421 
246 9 138 482 317 480 518 47 484 201 508 
247 9 284 115 251 388 387 219 429 481 21 
248 9 523 22 229 15 458 385 464 369 2 
249 9 217 483 505 393 442 156 201 317 99 
250 9 78 255 439 433 14 311 129 453 457 
251 9 481 219 331 429 115 76 247 18 387 
252 9 438 24 489 313 166 272 158 285 530 
253 9 211 370 178 447 5 350 164 446 263 
254 9 41 144 325 169 264 436 479 208 271 
255 9 129 457 67 250 519 311 62 433 52 
256 9 321 503 371 5 379 263 370 253 279 
257 9 237 222 162 401 210 394 365 281 33 
258 9 517 349 149 293 348 223 416 273 171 
259 9 202 216 504 352 199 148 404 411 491 
260 9 390 295 290 359 135 221 265 104 336 
261 9 312 168 278 163 60 487 418 420 25 
262 9 34 172 295 330 11 130 378 509 282 
263 9 379 503 211 398 253 370 132 256 5 
264 9 479 169 392 41 144 520 254 65 386 
265 9 104 390 266 290 260 135 221 179 359 
266 9 290 179 265 135 390 260 64 104 475 
267 9 512 239 454 515 323 410 2 32 315 
268 9 224 502 228 174 51 487 103 141 60 
269 9 303 61 445 396 298 356 92 89 410 
270 9 333 69 300 413 226 190 324 377 340 
271 9 425 432 440 254 501 169 41 325 490 
272 9 166 489 252 313 24 438 158 285 81 
273 9 155 348 194 223 258 162 465 517 286 
274 9 521 82 62 52 129 67 110 519 233 
275 9 382 3 28 283 121 470 12 318 45 
276 9 188 212 204 318 12 45 466 278 418 
277 9 424 79 491 17 367 208 57 325 432 
278 9 418 45 228 470 12 261 487 318 212 
279 9 240 371 341 5 256 446 305 243 370 
280 9 355 389 126 381 409 287 310 197 150 
281 9 181 210 6 222 394 401 27 342 87 
282 9 378 459 145 330 332 130 437 11 8 
283 9 3 121 275 382 28 86 127 170 68 
284 9 388 247 38 387 115 21 377 226 270 
285 9 158 530 244 24 89 438 252 298 313 
286 9 465 155 463 194 273 348 95 162 435 
287 9 197 118 361 91 153 280 389 355 499 
288 9 324 497 300 328 333 413 270 113 96 
289 9 364 404 148 199 367 53 216 259 277 
290 9 135 266 390 260 265 295 179 104 64 
291 9 13 384 327 77 63 342 27 184 514 
292 9 37 299 327 77 159 291 175 384 13 
293 9 416 349 74 476 517 258 149 66 171 
294 7 304 449 460 306 71 219 481 
295 9 34 262 260 135 11 390 130 290 330 
296 9 461 435 353 95 445 463 269 402 298 
297 9 79 424 432 425 277 53 17 271 325 
298 9 89 530 402 285 92 303 445 158 244 
299 9 37 292 455 175 366 327 77 384 291 
300 9 413 270 333 69 324 497 288 190 226 
301 9 335 510 426 427 116 307 346 209 106 
302 9 360 396 269 61 303 198 445 356 410 
303 9 61 269 356 92 298 410 89 515 445 
304 9 306 449 71 460 167 227 225 294 146 
305 9 341 114 10 347 240 279 108 105 371 
306 9 449 304 71 167 227 225 460 146 444 
307 9 106 427 496 116 510 209 468 322 301 
308 9 363 183 35 323 369 315 244 22 385 
309 9 186 408 145 437 56 107 137 29 332 
310 9 381 355 409 389 280 126 235 451 397 
311 9 233 433 453 110 422 129 255 441 154 
312 9 168 163 420 25 261 60 487 337 423 
313 9 489 24 252 158 272 363 244 438 166 
314 9 509 373 532 172 407 23 150 524 516 
315 9 385 323 2 22 183 229 458 248 308 
316 9 430 406 495 73 174 245 60 25 420 
317 9 201 138 246 482 156 462 508 488 484 
318 9 12 212 45 204 470 28 275 276 68 
319 9 189 125 16 117 454 32 182 395 515 
320 9 165 500 200 522 124 213 242 98 205 
321 8 256 486 503 379 263 371 5 279 
322 9 468 496 106 350 132 178 307 164 427 
323 9 183 315 385 2 308 22 512 229 267 
324 9 333 300 69 288 190 270 96 413 340 
325 9 208 17 254 41 436 144 79 432 425 
326 9 195 43 65 392 386 8 332 529 137 
327 9 77 291 13 159 384 292 339 514 63 
328 9 288 338 96 324 400 49 113 497 333 
329 8 131 344 358 488 105 156 374 462 
330 9 282 378 11 130 34 262 459 437 145 
331 9 481 251 76 429 219 460 18 115 146 
332 9 137 43 145 282 195 386 459 8 326 
333 9 69 270 300 190 324 413 226 340 377 
334 9 357 133 492 7 50 154 18 441 493 
335 9 301 426 510 427 346 116 307 94 106 
336 9 359 238 221 372 23 405 215 111 260 
337 9 25 132 168 420 322 468 350 163 312 
338 9 328 399 96 49 36 288 324 400 82 
339 9 139 514 159 77 327 98 13 184 291 
340 9 190 192 226 69 362 377 452 59 333 
341 9 305 10 114 240 279 347 371 256 105 
342 9 27 63 6 281 102 181 87 384 13 
343 9 73 494 245 136 380 528 495 374 430 
344 8 488 329 358 462 156 508 131 374 
345 9 119 151 236 173 193 403 26 123 455 
346 9 426 335 301 510 116 39 209 48 427 
347 9 114 108 305 10 341 58 105 417 240 
348 9 273 155 194 162 149 258 223 257 237 
349 9 293 517 258 416 476 74 149 171 66 
350 9 132 178 211 253 447 322 164 468 370 
351 9 417 10 54 472 108 114 305 97 341 
352 9 504 202 259 57 474 216 498 203 376 
353 9 461 445 95 296 402 435 298 89 31 
354 9 84 99 450 417 58 108 351 442 347 
355 9 381 389 280 126 409 287 310 197 118 
356 9 410 515 239 92 267 512 61 303 454 
357 9 492 334 133 50 154 7 441 18 30 
358 7 344 329 488 374 131 486 462 
359 9 221 336 111 260 390 238 104 295 372 
360 9 302 269 396 61 445 296 303 461 198 
361 9 153 499 29 91 40 118 443 287 85 
362 9 192 7 493 452 59 133 441 334 154 
363 9 308 35 183 244 369 323 315 158 22 
364 9 289 404 148 199 367 216 53 259 277 
365 9 401 525 181 6 171 281 237 140 257 
366 9 506 102 87 33 37 394 299 210 384 
367 9 148 277 216 364 491 53 404 424 199 
368 7 507 415 160 247 19 388 75 
369 9 35 434 22 183 248 308 315 363 385 
370 9 253 5 211 447 178 446 371 503 164 
371 9 5 279 240 256 370 446 253 503 447 
372 9 238 405 215 336 4 23 359 221 111 
373 9 314 150 407 509 532 516 524 172 23 
374 7 528 486 358 343 321 73 488 
375 9 159 134 339 485 175 139 391 77 109 
376 9 57 203 143 208 436 491 477 128 325 
377 9 226 21 59 387 69 190 340 362 192 
378 9 437 282 330 56 145 107 332 309 459 
379 9 263 503 398 256 211 370 253 321 5 
380 9 494 47 484 518 343 136 161 421 245 
381 9 355 389 280 126 310 409 287 197 471 
382 9 275 3 121 283 28 127 470 86 12 
383 9 241 395 16 83 125 117 319 189 15 
384 9 291 13 63 327 27 77 342 102 87 
385 9 2 315 22 229 458 323 248 183 15 
386 9 529 195 137 43 392 326 332 65 46 
387 9 21 115 59 377 18 226 284 429 7 
388 9 284 38 247 387 413 115 270 377 21 
389 9 355 381 280 126 287 409 310 197 471 
390 9 260 290 265 104 221 359 135 295 266 
391 9 139 55 339 134 375 514 159 124 98 
392 9 65 264 195 326 386 529 479 169 43 
393 9 442 131 156 329 99 483 105 58 108 
394 9 210 33 222 281 87 102 257 506 181 
395 9 125 383 15 182 16 458 32 241 229 
396 9 61 198 303 269 356 410 515 302 239 
397 9 185 152 235 207 409 9 150 126 310 
398 9 263 379 132 503 211 350 253 337 178 
399 9 36 49 338 52 96 82 62 519 67 
400 9 113 74 72 328 288 416 242 213 497 
401 9 365 181 525 281 6 222 210 257 237 
402 9 530 89 298 285 81 353 438 445 31 
403 9 119 345 236 176 151 173 193 123 26 
404 9 199 364 148 289 216 367 259 202 352 
405 9 215 372 4 238 23 336 532 524 516 
406 9 316 430 495 73 25 420 174 163 245 
407 9 373 314 118 150 509 40 153 126 287 
408 9 186 309 85 29 107 137 145 499 56 
409 9 126 280 152 397 355 185 310 381 389 
410 9 356 515 239 267 512 92 454 61 32 
411 9 474 94 90 423 466 498 504 276 188 
412 9 469 112 39 230 346 48 456 419 209 
413 9 300 270 333 497 69 324 226 288 190 
414 9 103 421 20 136 268 141 224 245 495 
415 9 160 473 507 75 19 220 511 55 368 
416 9 293 349 66 74 171 476 149 517 258 
417 9 58 108 351 84 99 347 10 114 305 
418 9 278 45 470 228 12 318 212 487 261 
419 9 187 101 412 467 469 346 448 112 39 
420 9 25 163 168 312 60 337 261 487 174 
421 9 414 136 103 161 245 20 380 494 495 
422 9 453 154 50 233 441 311 30 433 110 
423 9 90 94 261 411 168 312 276 474 278 
424 9 79 277 17 208 325 491 432 425 57 
425 9 432 271 254 17 325 79 41 440 424 
426 9 301 510 335 116 346 209 427 307 48 
427 9 307 106 510 496 116 301 209 468 322 
428 9 80 44 117 83 241 16 383 319 189 
429 9 76 18 251 115 331 334 357 492 481 
430 9 316 406 495 73 174 245 60 420 25 
431 9 471 218 147 197 141 443 91 127 51 
432 9 425 271 17 79 325 254 424 41 208 
433 9 311 453 422 233 78 110 129 250 255 
434 9 369 35 248 523 22 464 229 183 315 
435 9 95 463 296 461 353 286 465 157 445 
436 9 144 143 208 41 325 254 479 520 477 
437 9 56 107 145 378 309 186 282 29 332 
438 9 252 24 489 166 285 158 272 313 530 
439 9 14 78 250 433 255 444 311 453 422 
440 9 501 271 100 490 425 169 432 180 234 
441 9 493 154 7 133 452 50 492 110 334 
442 9 393 99 58 108 347 84 131 105 114 
443 9 91 147 85 218 499 361 197 29 153 
444 9 225 146 227 167 30 78 50 71 453 
445 9 461 353 269 298 296 402 303 89 530 
446 9 243 447 5 370 164 253 371 178 211 
447 9 178 164 253 370 211 446 5 350 132 
448 9 531 469 456 230 412 54 472 112 97 
449 9 306 71 304 167 460 227 225 146 444 
450 9 531 351 417 448 84 354 54 456 58 
451 9 20 310 161 191 381 355 389 421 414 
452 9 493 110 192 441 362 7 233 154 133 
453 9 422 311 233 433 154 50 30 441 110 
454 9 32 182 2 267 458 239 125 385 229 
455 9 193 299 26 151 175 123 37 292 173 
456 9 230 472 54 97 112 469 39 243 48 
457 9 519 67 62 52 255 129 274 36 82 
458 9 229 182 15 2 32 385 22 248 315 
459 9 8 130 282 11 332 43 330 326 145 
460 9 71 481 331 219 449 167 251 76 306 
461 9 296 353 445 95 435 402 269 298 463 
462 8 508 488 344 482 358 138 484 47 
463 9 435 95 286 465 157 296 353 461 155 
464 9 523 248 15 434 22 229 458 369 395 
465 9 286 155 273 463 194 348 95 223 31 
466 9 498 474 188 276 128 203 70 204 411 
467 9 101 187 419 448 412 120 469 531 176 
468 9 322 496 106 350 307 132 427 164 178 
469 9 412 112 230 456 39 48 97 472 209 
470 9 45 12 318 275 418 212 382 28 278 
471 9 431 218 141 147 197 51 127 443 91 
472 9 54 97 456 230 243 112 446 351 469 
473 9 160 415 220 75 511 19 507 55 124 
474 9 466 498 411 188 276 504 90 203 352 
475 9 180 179 100 64 234 490 266 501 135 
476 9 74 349 293 416 517 258 400 149 66 
477 9 143 232 520 231 436 479 46 128 144 
478 9 184 140 98 63 200 6 342 27 122 
479 9 520 264 144 392 41 436 169 529 143 
480 9 518 161 47 484 246 93 380 138 42 
481 9 219 331 251 429 460 76 115 18 247 
482 9 138 508 484 462 47 518 246 488 380 
483 9 505 393 156 442 201 329 131 344 317 
484 9 47 518 380 494 482 508 138 343 462 
485 9 134 109 375 513 55 175 391 526 159 
486 8 321 374 256 528 379 503 263 105 
487 9 60 174 502 228 163 278 261 418 420 
488 8 344 462 358 508 329 156 374 131 
489 9 313 24 252 272 166 438 158 244 363 
490 9 100 234 180 501 65 169 440 326 392 
491 9 57 277 376 208 424 17 79 202 352 
492 9 357 334 133 50 154 7 441 18 30 
493 9 441 452 7 362 154 133 110 192 334 
494 9 380 343 484 245 47 136 73 421 518 
495 9 316 430 245 73 406 136 174 343 103 
496 9 106 468 307 322 427 116 510 164 209 
497 9 413 300 288 72 270 324 333 113 522 
498 9 466 474 188 203 128 70 68 204 170 
499 9 361 29 91 153 443 85 40 118 147 
500 9 165 200 122 320 213 242 214 478 522 
501 9 440 100 490 271 180 169 234 425 475 
502 9 268 174 228 487 224 60 278 418 51 
503 9 379 263 256 370 5 211 253 398 321 
504 9 352 202 259 474 411 466 498 216 57 
505 9 483 201 156 317 393 344 488 329 442 
506 9 87 102 33 394 366 210 222 27 281 
507 9 415 160 473 368 75 19 220 511 55 
508 8 462 482 488 484 47 138 344 494 
509 9 314 373 532 172 23 407 524 150 262 
510 9 301 427 426 116 307 335 106 209 496 
511 9 75 19 220 205 124 473 160 415 320 
512 9 267 239 92 323 410 454 515 356 2 
513 9 485 134 55 109 177 526 375 391 473 
514 9 339 139 98 184 77 159 13 327 291 
515 9 239 410 356 267 454 512 189 32 92 
516 9 524 196 9 207 532 150 4 373 152 
517 9 258 349 293 149 416 223 476 348 273 
518 9 47 484 380 480 482 161 138 494 508 
519 9 67 457 62 52 129 274 36 255 82 
520 9 479 477 144 264 143 46 436 392 529 
521 9 82 274 52 62 67 129 110 519 36 
522 9 213 165 320 72 242 500 205 200 122 
523 9 248 464 15 22 229 434 458 369 385 
524 9 516 532 196 4 23 215 9 207 150 
525 9 365 401 181 140 6 171 214 281 237 
526 9 109 123 177 485 175 513 134 151 375 
527 9 14 439 227 225 167 444 306 78 449 
528 7 374 486 343 73 358 398 321 
529 9 386 137 195 392 43 326 332 46 65 
530 9 89 285 402 298 158 438 24 252 244 
531 9 448 456 230 54 450 469 472 351 97 
532 9 23 509 314 524 215 516 373 172 4 
DEPOT_SECTION
   1
   -1
EOF
