NAME :  X-n561-kX-w112-c9.cctp
COMMENT : 	Adapted by Maziero, Usberti and Cavellucci from the Uchoa, Pecin, Pessoa, Poggi, Subramanian, and Vidal (2013)
TYPE :  CCTP
DIMENSION :    470
EDGE_WEIGHT_TYPE : 	EUC_2D	
CAPACITY : 	74
VERTICES_WITHIN_COVERAGE :  9
VERTICES_WITH_DEMAND : 	112
NODE_COORD_SECTION
1 500 500
2 487 949
3 492 770
4 150 556
5 130 719
6 962 393
7 54 890
8 861 705
9 338 631
10 119 741
11 48 296
12 982 827
13 18 954
14 558 698
15 857 337
16 963 72
17 218 46
18 705 484
19 315 3
20 331 358
21 688 156
22 314 338
23 214 428
24 193 866
25 381 924
26 968 10
27 797 382
28 733 544
29 956 878
30 576 270
31 257 778
32 713 605
33 270 940
34 880 401
35 245 168
36 973 29
37 888 919
38 943 703
39 364 248
40 932 60
41 575 18
42 663 990
43 667 351
44 85 708
45 801 330
46 261 91
47 163 953
48 509 249
49 237 336
50 791 356
51 314 168
52 356 726
53 260 412
54 630 144
55 534 255
56 356 444
57 448 320
58 987 333
59 691 109
60 319 476
61 83 716
62 395 818
63 605 769
64 633 162
65 651 644
66 221 4
67 551 912
68 762 604
69 337 41
70 156 318
71 756 357
72 749 173
73 535 235
74 719 700
75 900 564
76 717 4
77 337 441
78 759 103
79 615 132
80 365 498
81 42 268
82 952 2
83 989 303
84 471 821
85 650 215
86 302 881
87 61 459
88 391 405
89 364 170
90 643 744
91 324 620
92 559 449
93 92 914
94 133 607
95 223 949
96 988 415
97 943 616
98 764 6
99 659 250
100 766 532
101 730 338
102 850 489
103 481 467
104 564 296
105 469 531
106 538 121
107 997 183
108 127 966
109 880 538
110 300 985
111 462 125
112 781 68
113 884 92
114 438 673
115 928 894
116 107 816
117 581 799
118 46 288
119 548 0
120 379 725
121 186 490
122 702 712
123 230 722
124 40 891
125 362 568
126 26 614
127 396 104
128 756 658
129 236 62
130 314 56
131 276 466
132 626 156
133 369 506
134 207 461
135 135 983
136 956 181
137 5 209
138 10 57
139 499 617
140 369 482
141 975 194
142 716 147
143 740 993
144 77 480
145 742 233
146 869 824
147 809 987
148 748 391
149 366 917
150 272 875
151 0 9
152 260 359
153 449 208
154 278 711
155 422 445
156 341 448
157 683 498
158 930 690
159 184 567
160 257 360
161 464 101
162 783 645
163 282 884
164 978 688
165 514 349
166 343 552
167 290 171
168 675 414
169 386 86
170 575 26
171 863 973
172 223 412
173 958 176
174 391 824
175 228 93
176 938 995
177 159 343
178 698 106
179 361 937
180 201 120
181 158 852
182 786 630
183 91 909
184 291 333
185 575 931
186 60 763
187 321 837
188 154 302
189 490 215
190 612 394
191 70 159
192 972 987
193 527 340
194 34 241
195 688 334
196 878 485
197 124 413
198 347 330
199 457 540
200 841 478
201 383 907
202 556 135
203 250 31
204 251 90
205 514 112
206 645 252
207 50 740
208 924 309
209 275 198
210 402 554
211 751 389
212 222 168
213 935 8
214 105 551
215 943 769
216 723 250
217 442 730
218 794 873
219 440 930
220 25 735
221 550 461
222 95 780
223 38 560
224 610 303
225 635 599
226 266 273
227 160 961
228 610 199
229 761 276
230 568 865
231 397 721
232 423 983
233 239 847
234 330 653
235 307 662
236 81 59
237 357 955
238 123 426
239 28 874
240 228 758
241 972 613
242 776 209
243 577 160
244 293 429
245 852 781
246 343 789
247 492 948
248 823 661
249 193 141
250 602 498
251 412 553
252 415 158
253 382 42
254 1 486
255 382 334
256 497 141
257 251 476
258 70 672
259 154 539
260 822 847
261 681 808
262 972 28
263 717 124
264 847 459
265 189 652
266 515 845
267 308 612
268 662 92
269 784 7
270 287 625
271 442 982
272 844 461
273 324 736
274 505 739
275 668 124
276 966 56
277 648 984
278 705 165
279 771 758
280 754 167
281 529 232
282 835 623
283 649 742
284 864 278
285 379 515
286 152 618
287 530 125
288 748 966
289 441 116
290 495 888
291 734 107
292 623 131
293 842 466
294 869 433
295 557 697
296 419 952
297 987 50
298 692 664
299 626 817
300 887 426
301 675 757
302 853 362
303 194 527
304 619 709
305 164 411
306 943 552
307 288 411
308 655 956
309 743 460
310 660 568
311 886 352
312 375 573
313 488 528
314 868 505
315 561 673
316 856 126
317 900 17
318 871 351
319 544 696
320 459 776
321 541 257
322 885 418
323 443 205
324 559 106
325 715 74
326 103 373
327 879 347
328 819 389
329 831 507
330 589 695
331 865 351
332 815 96
333 944 461
334 791 305
335 807 679
336 468 732
337 666 76
338 568 205
339 802 286
340 712 80
341 218 449
342 914 624
343 537 863
344 862 484
345 336 666
346 62 678
347 869 431
348 995 86
349 737 314
350 851 39
351 278 480
352 743 173
353 909 106
354 407 905
355 662 941
356 234 442
357 984 38
358 624 9
359 690 580
360 725 65
361 821 470
362 779 78
363 871 94
364 560 796
365 973 189
366 699 19
367 989 17
368 786 720
369 679 710
370 887 516
371 828 401
372 702 64
373 501 973
374 567 951
375 653 134
376 605 770
377 465 620
378 914 529
379 810 491
380 173 471
381 914 548
382 803 366
383 860 113
384 736 168
385 459 508
386 723 696
387 644 653
388 478 427
389 694 521
390 191 588
391 663 791
392 659 188
393 700 411
394 677 609
395 731 580
396 610 105
397 548 155
398 103 585
399 363 542
400 615 90
401 501 937
402 981 71
403 563 789
404 842 508
405 706 155
406 904 130
407 543 567
408 951 14
409 803 5
410 997 36
411 163 492
412 117 572
413 570 35
414 538 21
415 789 108
416 119 667
417 186 678
418 68 669
419 653 116
420 494 839
421 92 755
422 598 137
423 822 278
424 521 156
425 31 373
426 518 956
427 304 521
428 918 124
429 949 54
430 905 132
431 753 45
432 206 365
433 959 557
434 983 471
435 712 137
436 818 383
437 662 684
438 615 759
439 717 11
440 637 657
441 389 951
442 757 185
443 294 482
444 475 464
445 725 970
446 714 5
447 588 715
448 891 415
449 614 647
450 763 96
451 205 708
452 885 493
453 273 424
454 636 107
455 536 88
456 972 618
457 994 28
458 475 786
459 993 34
460 847 29
461 601 7
462 743 509
463 481 877
464 654 629
465 562 686
466 797 386
467 194 570
468 712 142
469 681 104
470 38 680
DEMAND_SECTION
2 9
3 7
4 5
5 5
6 8
7 1
8 2
9 6
10 8
11 2
12 6
13 7
14 8
15 8
16 5
17 3
18 4
19 2
20 8
21 6
22 3
23 3
24 4
25 4
26 8
27 8
28 10
29 1
30 1
31 9
32 9
33 10
34 10
35 5
36 5
37 6
38 4
39 9
40 3
41 8
42 4
43 5
44 9
45 4
46 9
47 1
48 7
49 8
50 4
51 5
52 9
53 3
54 8
55 6
56 6
57 8
58 6
59 8
60 6
61 10
62 3
63 9
64 8
65 6
66 6
67 4
68 3
69 7
70 4
71 6
72 10
73 7
74 2
75 7
76 5
77 4
78 3
79 8
80 1
81 1
82 5
83 8
84 2
85 9
86 6
87 10
88 8
89 1
90 6
91 2
92 4
93 7
94 3
95 9
96 9
97 6
98 8
99 3
100 5
101 6
102 8
103 4
104 3
105 9
106 4
107 7
108 1
109 8
110 9
111 2
112 8
113 6
COVERAGE_SECTION
2 8 247 401 373 426 219 271 290 296 
3 9 458 274 320 336 84 217 420 364 403 
4 9 259 159 412 214 467 390 303 94 398 
5 9 10 44 61 421 416 417 222 258 451 
6 7 96 58 333 448 322 434 34 
7 9 124 239 183 93 13 116 108 181 222 
8 9 248 335 158 368 245 38 282 342 162 
9 9 91 234 345 267 235 270 125 312 166 
10 9 5 421 61 222 44 186 207 416 116 
11 9 118 81 194 425 326 137 188 70 177 
12 9 29 215 115 146 38 37 245 164 158 
13 9 124 7 239 93 183 108 135 227 47 
14 6 295 465 319 315 330 447 
15 9 331 318 327 302 311 45 284 436 382 
16 9 276 402 429 40 297 348 357 36 262 
17 9 129 203 66 175 204 46 180 130 249 
18 9 157 389 309 462 28 393 168 100 310 
19 9 69 130 203 253 66 129 46 17 204 
20 9 22 198 184 255 307 152 160 88 244 
21 7 405 278 468 142 435 275 375 
22 9 184 20 198 152 160 255 49 307 226 
23 9 172 341 356 134 53 305 380 453 257 
24 9 181 233 150 95 163 47 116 227 33 
25 9 149 201 179 441 354 237 296 219 232 
26 9 408 82 262 36 367 357 457 213 459 
27 8 466 382 436 328 50 371 211 71 
28 9 100 395 462 389 359 32 18 68 157 
29 9 115 12 37 146 192 215 176 171 260 
30 9 104 321 55 224 73 281 338 48 206 
31 9 240 123 154 233 273 187 246 451 150 
32 9 395 359 394 68 298 28 464 310 128 
33 9 95 110 163 150 86 237 179 233 149 
34 8 322 448 300 347 294 302 311 318 
35 9 212 209 167 249 180 51 175 204 46 
36 9 262 357 26 367 457 459 297 410 408 
37 9 115 171 29 176 146 260 147 218 192 
38 9 158 164 215 8 342 97 456 241 245 
39 9 89 198 255 323 51 153 226 209 22 
40 9 429 16 276 402 408 36 262 353 213 
41 6 170 413 461 119 414 358 
42 3 277 308 355 
43 9 195 101 168 393 190 224 349 71 148 
44 9 61 346 258 418 5 10 207 421 416 
45 9 334 50 382 339 27 71 15 423 436 
46 9 204 175 129 203 17 130 180 35 249 
47 9 227 108 135 95 93 183 24 181 33 
48 9 55 281 73 321 189 30 104 153 338 
49 9 160 152 432 184 226 22 172 177 53 
50 9 382 27 45 466 71 436 328 334 211 
51 9 167 209 89 35 212 46 39 204 252 
52 9 120 273 231 345 246 234 154 235 217 
53 9 453 307 172 244 356 23 160 152 131 
54 8 132 292 64 79 375 422 419 454 
55 9 321 73 281 48 30 104 189 338 193 
56 9 156 77 140 60 88 80 133 244 155 
57 9 255 165 193 48 198 88 55 39 388 
58 8 83 6 208 96 311 327 318 331 
59 9 178 469 275 263 268 435 340 419 468 
60 9 443 156 77 351 131 427 56 140 80 
61 9 44 421 207 346 10 258 5 418 186 
62 9 174 246 84 187 320 458 354 201 120 
63 9 376 438 117 90 403 283 299 364 447 
64 9 132 54 292 375 79 392 422 228 419 
65 6 387 464 440 449 437 394 
66 9 203 17 129 175 204 19 46 130 180 
67 6 185 374 230 343 426 401 
68 9 182 395 162 32 128 28 100 282 359 
69 9 130 19 253 169 127 203 46 204 129 
70 9 188 177 432 326 49 305 197 160 11 
71 9 101 211 50 148 349 27 382 466 45 
72 7 352 280 384 442 142 242 278 
73 9 281 55 321 48 338 189 30 104 424 
74 9 386 122 369 298 128 437 368 301 279 
75 8 381 109 378 306 370 433 342 97 
76 8 446 439 366 98 431 360 372 269 
77 9 156 56 60 244 140 307 443 80 88 
78 8 450 291 415 362 112 263 360 340 
79 9 292 422 54 132 396 454 64 375 419 
80 9 133 140 285 399 60 56 156 166 77 
81 9 118 194 11 137 425 191 188 326 70 
82 9 408 26 213 262 36 367 357 457 429 
83 7 58 208 6 141 96 311 365 
84 9 420 458 320 266 3 463 290 62 343 
85 9 392 99 206 228 64 132 21 54 278 
86 9 163 150 187 33 233 149 179 201 25 
87 9 144 254 238 197 425 326 214 223 411 
88 9 155 56 77 156 255 20 140 198 388 
89 9 51 252 127 167 39 323 169 153 209 
90 8 283 438 301 304 63 376 369 391 
91 9 9 267 234 270 235 345 125 312 166 
92 9 221 250 190 103 388 444 313 165 193 
93 9 183 7 124 108 239 47 135 227 13 
94 8 286 398 412 4 390 416 214 159 
95 9 33 47 227 110 24 163 150 135 108 
96 5 6 434 333 58 448 
97 9 241 456 342 433 306 75 381 158 164 
98 9 269 409 431 76 439 446 112 366 360 
99 9 206 85 392 216 228 224 30 145 195 
100 9 462 28 395 379 329 68 389 309 18 
101 9 349 71 195 211 148 43 50 229 334 
102 9 344 200 404 293 314 329 196 272 264 
103 9 444 388 385 313 155 105 221 199 92 
104 9 30 321 224 55 193 73 48 165 281 
105 9 199 313 385 251 103 444 210 407 377 
106 9 287 202 205 324 455 397 424 256 243 
107 5 141 365 173 136 348 
108 9 135 227 47 93 183 95 7 13 124 
109 8 370 75 314 378 381 452 404 196 
110 9 33 237 179 95 149 441 25 163 86 
111 9 289 161 256 205 252 424 287 127 106 
112 9 362 450 431 78 415 332 360 269 291 
113 9 363 353 383 406 316 430 428 40 350 
114 9 217 377 231 336 120 139 274 52 345 
115 9 29 37 12 146 176 171 192 260 215 
116 9 222 181 421 186 10 7 183 207 239 
117 6 364 403 63 376 299 438 
118 9 11 81 194 425 137 326 188 70 177 
119 6 414 41 170 413 461 358 
120 9 231 52 273 217 246 345 114 234 336 
121 8 380 411 134 303 341 259 257 23 
122 8 74 369 386 298 437 301 283 90 
123 7 451 240 154 31 417 265 273 
124 9 7 239 183 93 13 116 108 181 222 
125 9 312 166 399 210 251 285 133 91 9 
126 9 223 470 418 258 346 398 412 214 94 
127 9 169 289 252 253 161 111 89 69 130 
128 9 162 182 386 68 335 74 298 248 32 
129 9 17 175 204 203 46 66 180 130 249 
130 9 69 19 46 203 253 204 129 169 175 
131 8 351 443 257 244 453 60 356 53 
132 9 64 54 292 79 422 375 228 392 419 
133 9 80 285 140 399 166 60 210 125 56 
134 8 341 356 23 380 121 257 172 411 
135 9 108 227 47 93 183 95 13 7 24 
136 4 173 365 141 107 
137 9 194 81 191 118 11 138 425 236 188 
138 9 151 236 191 137 194 180 249 17 81 
139 8 377 407 114 315 199 313 105 319 
140 9 80 133 285 56 156 60 77 399 155 
141 4 365 136 107 173 
142 7 468 435 405 278 263 21 384 
143 6 445 288 147 42 277 308 
144 9 87 238 214 254 197 411 223 380 259 
145 8 216 242 229 442 72 352 384 280 
146 7 245 260 218 115 215 37 29 
147 6 171 288 143 445 37 218 
148 8 211 71 466 27 393 50 101 382 
149 9 25 201 179 237 441 354 296 86 219 
150 9 163 86 233 187 33 24 95 31 149 
151 9 138 236 191 137 17 66 180 194 249 
152 9 160 49 184 53 432 22 307 172 453 
153 9 323 189 252 48 256 111 281 424 73 
154 8 123 273 235 240 31 345 451 234 
155 9 88 444 388 103 140 56 385 80 133 
156 9 77 56 60 140 244 80 443 133 307 
157 9 389 18 462 28 309 310 250 359 168 
158 9 38 164 342 8 97 215 456 241 248 
159 6 467 390 4 259 303 286 
160 9 152 49 184 432 53 307 22 172 453 
161 9 111 289 205 256 127 287 455 252 106 
162 9 182 128 335 248 68 282 368 386 32 
163 9 150 86 33 233 187 95 149 24 179 
164 9 38 158 456 241 97 215 342 8 433 
165 9 193 57 104 388 55 321 30 48 224 
166 8 399 125 312 427 285 133 80 210 
167 9 51 209 35 212 89 46 204 175 249 
168 9 393 43 190 18 148 211 195 309 157 
169 9 127 253 289 69 130 252 161 111 89 
170 6 41 413 461 119 414 358 
171 9 147 37 176 115 192 288 218 143 29 
172 9 23 356 53 341 432 453 134 305 160 
173 5 136 365 141 107 428 
174 9 62 246 187 84 201 320 354 458 149 
175 9 204 129 46 180 17 249 203 212 35 
176 9 192 171 37 115 29 147 12 146 260 
177 9 70 188 432 326 305 49 197 238 172 
178 9 59 469 263 340 435 275 291 325 268 
179 9 237 149 25 441 201 354 296 232 110 
180 9 249 175 212 204 35 46 129 17 203 
181 9 24 116 233 183 93 222 47 227 7 
182 9 162 68 128 248 282 335 395 32 368 
183 9 93 7 124 108 239 47 13 135 227 
184 9 22 152 160 20 49 198 226 307 53 
185 2 374 67 
186 9 207 421 222 220 61 44 10 116 5 
187 9 86 246 163 150 174 62 233 31 149 
188 9 70 177 432 326 49 11 118 305 197 
189 9 48 153 281 323 73 55 321 424 256 
190 9 168 43 92 393 221 224 195 193 250 
191 9 137 194 236 81 138 249 118 180 11 
192 9 176 115 37 29 171 12 147 146 260 
193 9 165 104 57 321 30 55 224 48 388 
194 9 81 137 118 11 191 425 188 70 326 
195 9 43 101 349 71 393 168 148 211 224 
196 5 452 344 314 102 370 
197 9 238 305 326 380 87 177 144 411 23 
198 9 20 22 255 184 39 88 152 160 226 
199 9 105 385 313 251 210 103 444 377 285 
200 8 293 102 272 264 344 361 404 329 
201 9 25 149 354 179 441 237 296 219 174 
202 9 397 106 287 324 243 424 422 205 455 
203 9 129 17 66 204 46 175 130 19 69 
204 9 46 175 129 17 180 203 130 249 35 
205 9 287 106 455 256 324 424 202 161 111 
206 9 99 85 224 228 392 30 216 338 64 
207 9 186 220 61 421 44 222 470 346 10 
208 8 311 327 83 58 284 318 331 15 
209 9 167 35 51 212 226 89 249 39 46 
210 9 251 312 399 125 285 199 133 166 80 
211 8 148 71 466 27 50 101 393 382 
212 9 35 249 180 209 167 175 204 46 51 
213 9 408 82 26 317 262 36 429 40 367 
214 9 412 398 4 259 94 223 144 159 286 
215 9 38 12 158 164 146 245 8 29 115 
216 9 145 229 99 349 242 442 206 352 72 
217 9 336 231 320 114 120 3 274 458 52 
218 4 260 146 288 37 
219 9 296 354 2 271 247 441 232 25 201 
220 9 207 186 470 61 44 346 421 258 418 
221 9 92 250 103 444 388 190 313 385 407 
222 9 421 116 186 10 207 61 5 44 220 
223 9 126 214 398 412 254 144 87 94 4 
224 9 30 104 206 99 43 321 195 55 190 
225 8 464 310 394 65 449 387 359 440 
226 9 184 49 209 22 152 160 198 39 167 
227 9 47 108 135 95 93 183 24 181 33 
228 9 338 85 64 132 392 243 54 422 206 
229 8 334 339 349 216 145 423 45 101 
230 4 343 67 266 185 
231 9 120 52 217 114 336 273 345 320 246 
232 9 271 296 441 219 2 25 237 179 247 
233 9 150 24 163 31 86 181 187 240 33 
234 9 345 9 235 91 267 270 52 154 273 
235 8 234 345 270 9 91 267 154 273 
236 9 138 151 191 180 17 249 66 175 129 
237 9 179 441 25 149 201 296 110 354 232 
238 9 197 305 326 380 87 144 411 121 177 
239 9 124 7 183 93 13 116 222 186 181 
240 7 31 123 451 154 233 417 273 
241 9 456 97 433 342 306 164 75 381 158 
242 6 442 145 72 280 352 384 
243 9 397 422 202 338 79 132 228 292 54 
244 9 307 453 53 131 77 156 351 443 60 
245 7 146 260 8 279 368 215 218 
246 9 187 273 174 62 52 120 31 231 86 
247 8 2 401 373 426 219 271 290 67 
248 9 335 282 162 182 8 128 368 68 342 
249 9 180 212 35 175 204 46 129 17 209 
250 8 221 92 157 310 407 389 18 190 
251 9 210 312 199 285 399 125 105 133 385 
252 9 289 89 323 111 127 153 161 169 256 
253 9 169 69 127 130 19 289 161 111 252 
254 9 87 144 223 425 214 126 238 398 197 
255 9 198 20 57 22 88 39 184 56 77 
256 9 424 205 287 111 106 161 397 202 289 
257 8 131 351 356 341 443 134 453 23 
258 9 418 346 470 44 61 416 207 126 5 
259 9 4 159 303 411 214 412 467 121 390 
260 6 218 146 245 37 279 115 
261 7 391 301 299 283 90 438 63 
262 9 36 357 26 367 457 459 408 410 297 
263 7 435 468 142 291 178 59 405 
264 6 272 293 200 361 344 102 
265 5 417 286 451 390 94 
266 7 420 343 290 463 84 230 364 
267 8 91 270 9 234 235 345 166 125 
268 6 337 469 419 454 275 59 
269 9 409 98 431 112 76 439 460 446 362 
270 6 267 91 235 9 234 345 
271 9 232 296 219 2 247 373 441 401 426 
272 6 264 293 200 361 102 344 
273 9 52 154 120 246 345 231 235 31 234 
274 9 3 336 458 319 320 217 14 295 403 
275 8 419 375 469 59 268 178 454 21 
276 9 16 429 402 297 357 36 262 40 459 
277 3 42 308 355 
278 7 405 21 142 468 435 384 352 
279 7 368 74 386 122 245 335 301 
280 7 72 352 384 442 142 242 278 
281 9 73 55 48 321 189 338 30 104 424 
282 9 248 182 162 335 68 342 8 128 75 
283 8 90 301 438 369 304 391 63 376 
284 6 423 15 339 208 327 318 
285 9 133 80 399 140 210 251 166 125 312 
286 7 94 390 265 412 398 416 159 
287 9 106 205 202 424 324 397 256 455 243 
288 6 445 143 147 42 355 308 
289 9 111 161 127 252 256 169 205 287 323 
290 9 463 266 343 401 420 247 67 2 219 
291 7 263 78 450 340 178 435 325 
292 9 79 54 132 422 454 396 375 64 419 
293 6 272 264 200 361 102 344 
294 6 347 300 322 448 34 264 
295 6 14 465 319 315 330 447 
296 9 219 441 232 271 25 354 201 179 237 
297 9 357 410 459 276 402 457 36 262 16 
298 9 437 74 386 65 369 122 387 464 440 
299 6 391 117 376 63 261 438 
300 5 322 448 294 347 34 
301 9 283 90 391 369 261 122 438 63 376 
302 9 331 318 15 327 311 436 328 371 34 
303 7 121 159 259 467 411 4 380 
304 4 447 330 90 283 
305 9 197 238 23 172 380 432 134 341 177 
306 6 433 381 378 75 97 109 
307 9 244 453 53 131 77 152 160 356 156 
308 3 355 277 42 
309 7 18 462 393 148 157 211 379 
310 8 359 225 394 389 464 32 395 157 
311 9 327 318 331 15 302 34 208 448 322 
312 9 125 210 399 166 251 285 133 9 91 
313 9 105 199 385 103 444 407 251 139 210 
314 9 452 196 344 370 102 404 109 329 200 
315 6 465 295 14 319 330 447 
316 7 383 363 113 406 430 332 353 
317 9 213 408 40 82 350 460 429 26 262 
318 9 331 327 311 15 302 34 436 328 371 
319 7 295 14 465 315 330 447 274 
320 9 458 3 336 84 217 274 420 62 174 
321 9 55 73 281 48 30 104 338 189 224 
322 5 448 300 34 347 294 
323 9 153 189 252 48 111 256 89 289 39 
324 8 106 202 455 287 205 397 422 396 
325 9 340 360 372 178 291 59 469 431 337 
326 9 197 238 177 305 425 70 188 11 87 
327 9 311 318 331 15 302 34 208 448 284 
328 7 436 371 466 27 382 50 302 
329 9 404 102 379 200 314 361 344 293 272 
330 6 447 465 14 295 304 315 
331 9 318 327 15 302 311 34 436 328 371 
332 8 415 362 112 383 316 450 78 363 
333 2 434 96 
334 9 339 45 423 229 50 349 382 71 101 
335 9 248 162 368 182 128 8 282 386 68 
336 9 217 274 3 320 458 114 231 319 84 
337 6 268 469 372 59 419 454 
338 9 228 73 243 281 397 321 55 30 424 
339 7 334 423 229 45 284 50 349 
340 9 325 372 360 178 291 59 469 263 337 
341 8 134 356 23 172 257 380 121 53 
342 9 97 456 241 75 158 381 306 282 433 
343 6 266 230 290 420 67 463 
344 8 102 196 200 314 452 293 264 272 
345 9 234 235 9 91 267 52 270 273 120 
346 9 258 418 470 44 61 416 207 220 126 
347 5 294 300 322 448 34 
348 9 402 16 297 276 357 410 459 429 457 
349 9 101 229 71 195 334 45 216 50 339 
350 9 460 317 363 409 113 332 269 383 112 
351 8 131 443 257 60 427 244 453 356 
352 7 72 384 280 442 142 278 405 
353 9 428 406 430 113 363 383 40 316 16 
354 9 201 25 219 149 296 441 179 237 463 
355 3 308 277 42 
356 8 341 23 172 134 257 53 453 131 
357 9 459 297 410 36 457 262 367 276 26 
358 4 461 41 170 413 
359 9 310 394 32 395 28 225 389 464 65 
360 9 325 340 372 431 291 178 450 78 366 
361 6 293 200 379 272 264 102 
362 9 112 450 78 415 332 431 291 360 325 
363 9 113 383 316 353 406 430 332 428 350 
364 6 403 117 63 376 438 266 
365 4 141 136 173 107 
366 6 439 446 76 372 360 325 
367 9 457 459 36 262 410 26 357 297 408 
368 9 279 335 386 128 74 248 162 8 122 
369 8 122 437 74 283 386 301 298 90 
370 8 314 109 452 378 196 344 381 102 
371 4 328 436 466 27 
372 8 325 340 360 337 178 366 469 59 
373 6 426 247 2 401 271 374 
374 3 185 67 426 
375 8 275 419 54 292 454 64 132 79 
376 9 63 438 117 90 403 299 283 364 447 
377 8 139 114 199 251 105 210 407 313 
378 6 381 370 109 306 75 452 
379 8 361 329 200 404 102 293 272 264 
380 9 121 411 134 341 23 303 305 238 356 
381 7 378 75 306 109 370 433 452 
382 9 50 27 466 436 328 45 371 71 302 
383 8 316 363 113 406 332 353 430 428 
384 7 352 72 280 442 142 278 405 
385 9 105 199 313 103 444 251 155 210 285 
386 9 74 122 298 369 128 437 368 279 301 
387 5 440 65 464 449 437 
388 9 444 103 155 221 385 92 165 88 193 
389 9 157 18 28 462 310 359 395 100 309 
390 6 467 159 286 4 94 259 
391 8 261 301 299 90 283 438 63 376 
392 9 85 64 21 132 228 278 54 375 405 
393 9 168 148 211 309 43 18 71 195 101 
394 9 464 359 32 225 65 310 387 298 395 
395 9 32 28 68 359 100 394 389 310 462 
396 5 400 454 79 292 422 
397 9 202 424 243 106 287 324 256 422 338 
398 9 412 214 94 4 286 259 223 126 159 
399 9 166 125 285 312 133 210 80 251 140 
400 4 396 454 79 292 
401 8 247 2 426 373 290 67 219 463 
402 9 16 276 348 297 357 429 410 459 36 
403 6 364 117 376 63 438 299 
404 9 329 102 314 200 344 379 293 196 361 
405 7 278 142 468 21 435 263 384 
406 7 430 428 353 113 383 316 363 
407 7 139 313 105 199 250 377 225 
408 9 82 26 213 262 36 367 429 357 276 
409 9 269 98 460 350 431 112 362 76 439 
410 9 459 457 357 297 367 36 262 276 402 
411 9 121 380 303 259 134 4 341 238 159 
412 9 398 214 4 94 259 286 159 390 467 
413 5 170 41 414 119 461 
414 7 119 413 41 170 461 455 358 
415 8 332 450 78 362 112 291 280 316 
416 9 258 418 5 44 346 286 61 94 417 
417 6 265 451 123 416 5 286 
418 9 258 346 470 44 61 416 126 207 220 
419 8 275 375 454 268 469 292 54 59 
420 8 266 84 463 290 343 458 3 320 
421 9 222 10 186 61 207 44 5 116 220 
422 9 79 292 243 54 132 396 202 64 454 
423 6 339 334 284 45 229 15 
424 9 397 256 287 106 202 205 243 324 111 
425 9 326 11 118 87 197 81 238 144 254 
426 6 373 401 247 2 374 67 
427 7 443 60 351 166 131 399 80 
428 7 406 430 353 113 363 383 316 
429 9 276 40 16 36 262 402 297 357 408 
430 7 406 428 353 113 316 383 363 
431 9 360 112 98 362 325 269 439 450 340 
432 9 49 172 160 177 152 305 23 70 53 
433 7 306 381 378 241 75 97 456 
434 2 333 96 
435 7 468 142 263 405 278 21 178 
436 7 328 27 371 466 382 50 302 
437 5 369 298 387 440 65 
438 9 63 376 90 283 304 117 447 391 299 
439 9 76 446 366 98 431 360 372 325 269 
440 5 387 65 449 464 437 
441 9 25 296 179 237 149 201 232 354 219 
442 8 72 280 352 384 242 145 142 278 
443 8 351 131 60 427 257 244 156 77 
444 9 103 388 385 155 313 105 221 199 92 
445 6 288 143 42 355 308 277 
446 8 76 439 366 98 431 372 360 325 
447 6 330 304 14 295 465 319 
448 5 322 300 34 347 294 
449 3 440 387 65 
450 9 78 362 415 291 112 360 332 431 325 
451 6 123 417 240 265 154 5 
452 5 196 314 370 344 102 
453 9 53 307 244 131 356 172 257 351 23 
454 7 419 396 292 400 268 375 79 
455 8 324 106 205 287 202 413 256 414 
456 9 241 97 342 433 164 306 158 38 75 
457 9 459 410 367 357 36 262 297 26 276 
458 9 320 3 84 336 274 420 217 266 62 
459 9 410 457 357 297 367 36 262 26 276 
460 9 350 409 317 269 363 113 332 112 362 
461 4 358 41 170 413 
462 8 100 28 18 309 389 157 379 395 
463 9 290 420 266 84 343 401 219 2 247 
464 7 65 387 394 440 225 449 298 
465 6 295 14 315 319 330 447 
466 7 27 382 436 328 50 371 211 
467 5 159 390 303 4 259 
468 7 435 142 405 263 278 21 384 
469 8 59 178 268 275 419 337 340 263 
470 9 346 418 258 44 220 61 207 126 416 
DEPOT_SECTION
   1
   -1
EOF
