NAME :  X-n573-kX-w57-c7.cctp
COMMENT : 	Adapted by Maziero, Usberti and Cavellucci from the Uchoa, Pecin, Pessoa, Poggi, Subramanian, and Vidal (2013)
TYPE :  CCTP
DIMENSION :    351
EDGE_WEIGHT_TYPE : 	EUC_2D	
CAPACITY : 	210
VERTICES_WITHIN_COVERAGE :  7
VERTICES_WITH_DEMAND : 	57
NODE_COORD_SECTION
1 0 0
2 753 355
3 663 83
4 725 286
5 734 504
6 704 145
7 728 311
8 675 58
9 617 242
10 864 334
11 772 258
12 516 109
13 717 123
14 768 161
15 598 365
16 896 569
17 781 281
18 898 397
19 714 126
20 780 311
21 809 60
22 728 244
23 724 219
24 712 177
25 694 432
26 491 157
27 854 648
28 612 179
29 623 337
30 788 320
31 772 378
32 736 308
33 692 303
34 737 334
35 576 27
36 731 360
37 763 301
38 633 578
39 935 244
40 513 73
41 511 133
42 671 349
43 729 254
44 771 261
45 851 278
46 827 365
47 682 113
48 553 425
49 544 282
50 706 165
51 527 26
52 580 220
53 908 303
54 841 306
55 656 34
56 864 196
57 618 270
58 699 347
59 787 289
60 678 11
61 706 157
62 713 243
63 767 131
64 871 216
65 694 435
66 617 345
67 513 50
68 767 259
69 773 313
70 760 287
71 569 225
72 702 417
73 656 83
74 532 93
75 834 351
76 832 274
77 796 290
78 872 212
79 835 257
80 702 185
81 740 147
82 890 180
83 731 321
84 703 296
85 715 179
86 781 317
87 841 365
88 783 270
89 770 372
90 907 192
91 913 434
92 647 749
93 359 195
94 585 218
95 914 399
96 681 323
97 603 251
98 554 275
99 801 379
100 727 221
101 715 314
102 731 363
103 788 250
104 649 29
105 567 325
106 669 54
107 785 537
108 765 384
109 654 348
110 677 313
111 814 112
112 658 353
113 550 42
114 540 24
115 661 37
116 769 395
117 729 241
118 715 360
119 697 213
120 704 114
121 911 240
122 789 296
123 598 279
124 864 347
125 590 28
126 734 288
127 789 60
128 729 563
129 626 159
130 1000 201
131 875 408
132 419 38
133 671 63
134 803 184
135 690 55
136 511 191
137 899 256
138 672 526
139 750 262
140 665 436
141 595 339
142 736 240
143 747 298
144 511 179
145 753 707
146 413 402
147 737 328
148 711 285
149 800 288
150 678 59
151 736 469
152 728 268
153 641 245
154 617 646
155 903 84
156 928 420
157 668 91
158 702 123
159 705 306
160 574 355
161 700 483
162 767 394
163 544 253
164 746 356
165 737 130
166 734 377
167 652 13
168 482 164
169 737 249
170 740 161
171 623 270
172 748 363
173 663 78
174 718 309
175 711 345
176 734 195
177 691 372
178 717 372
179 677 120
180 708 173
181 483 71
182 851 348
183 776 165
184 659 341
185 732 272
186 739 375
187 907 319
188 777 316
189 668 72
190 766 304
191 696 412
192 878 216
193 507 50
194 673 295
195 676 104
196 705 186
197 657 99
198 827 350
199 662 529
200 566 258
201 546 60
202 785 387
203 937 390
204 714 352
205 674 332
206 712 354
207 685 112
208 728 372
209 692 48
210 746 335
211 791 248
212 732 249
213 503 63
214 877 228
215 616 343
216 830 330
217 681 162
218 809 41
219 602 236
220 766 375
221 643 248
222 623 315
223 805 534
224 779 398
225 680 289
226 994 383
227 463 284
228 715 367
229 773 278
230 701 345
231 729 331
232 638 7
233 669 12
234 587 403
235 962 294
236 717 278
237 565 465
238 631 245
239 839 190
240 754 358
241 692 441
242 839 365
243 724 301
244 697 159
245 776 276
246 892 182
247 487 297
248 721 103
249 744 240
250 571 6
251 737 308
252 736 197
253 863 289
254 628 358
255 857 330
256 601 537
257 759 310
258 642 346
259 710 240
260 877 382
261 877 287
262 573 197
263 339 383
264 754 254
265 694 52
266 496 169
267 766 182
268 480 92
269 847 178
270 928 298
271 871 664
272 656 36
273 753 175
274 742 128
275 760 363
276 677 376
277 761 383
278 773 366
279 710 177
280 762 378
281 876 191
282 481 159
283 839 209
284 544 312
285 722 176
286 608 213
287 720 277
288 757 350
289 890 258
290 779 273
291 949 223
292 674 438
293 593 371
294 872 314
295 670 454
296 762 339
297 676 366
298 671 75
299 901 344
300 737 290
301 784 319
302 783 268
303 792 335
304 768 302
305 770 281
306 696 305
307 684 65
308 686 329
309 751 357
310 734 295
311 689 47
312 621 231
313 595 31
314 793 258
315 844 287
316 630 165
317 537 118
318 783 359
319 738 221
320 789 84
321 624 239
322 711 338
323 229 166
324 782 342
325 589 39
326 704 206
327 830 288
328 660 72
329 554 11
330 755 300
331 587 243
332 708 115
333 774 505
334 936 268
335 693 592
336 817 108
337 710 305
338 739 217
339 711 456
340 783 128
341 817 400
342 554 297
343 701 286
344 735 275
345 792 334
346 674 111
347 754 300
348 740 149
349 798 531
350 530 155
351 587 360
DEMAND_SECTION
2 78
3 96
4 64
5 87
6 70
7 57
8 63
9 86
10 89
11 64
12 53
13 86
14 69
15 94
16 62
17 96
18 89
19 92
20 72
21 59
22 93
23 55
24 96
25 81
26 65
27 52
28 99
29 99
30 57
31 100
32 73
33 61
34 64
35 85
36 69
37 55
38 95
39 95
40 64
41 73
42 99
43 88
44 89
45 10
46 9
47 5
48 1
49 3
50 9
51 5
52 4
53 10
54 3
55 5
56 7
57 9
58 6
COVERAGE_SECTION
2 7 240 309 288 164 172 275 296 
3 7 173 73 157 298 328 189 197 
4 7 126 287 236 300 310 148 243 
5 6 151 161 333 339 128 107 
6 7 61 244 50 19 158 13 180 
7 7 32 251 83 174 243 101 310 
8 7 150 133 106 307 135 189 298 
9 7 321 312 238 219 97 153 221 
10 7 255 124 182 294 75 216 54 
11 7 44 68 302 88 290 103 245 
12 5 74 317 41 40 268 
13 7 19 332 158 120 248 165 274 
14 6 183 267 273 170 63 348 
15 7 293 351 141 160 66 215 254 
16 1 27 
17 7 245 290 229 59 88 305 302 
18 5 95 131 260 156 91 
19 7 13 158 332 120 6 165 248 
20 6 86 188 69 301 30 304 
21 5 218 127 320 336 111 
22 7 117 212 142 43 169 62 249 
23 6 100 319 338 117 142 326 
24 7 279 85 180 285 196 50 80 
25 7 65 241 72 191 292 140 339 
26 7 282 168 266 144 41 136 350 
27 6 271 16 145 223 349 107 
28 3 316 129 286 
29 6 215 66 258 222 254 141 
30 7 301 86 20 188 345 303 69 
31 7 89 220 108 280 277 278 202 
32 6 251 7 310 83 243 143 
33 7 306 84 159 110 225 337 343 
34 4 147 210 231 83 
35 5 125 325 313 250 329 
36 7 102 208 118 164 166 172 186 
37 5 190 304 330 347 257 
38 6 256 199 335 138 154 128 
39 6 121 334 291 137 289 270 
40 7 213 67 193 74 181 201 12 
41 7 12 350 317 26 266 282 168 
42 7 112 184 109 205 297 308 58 
43 7 212 169 22 117 152 142 185 
44 7 11 68 290 302 88 245 229 
45 5 315 253 76 327 79 
46 4 242 87 198 75 
47 6 207 346 179 195 120 158 
48 2 234 237 
49 6 98 342 163 284 200 105 
50 7 61 180 244 24 279 85 285 
51 7 114 67 113 193 329 201 213 
52 7 94 71 262 331 219 286 97 
53 7 187 270 261 294 299 334 253 
54 6 315 327 216 253 255 45 
55 7 272 115 104 167 106 233 8 
56 7 281 78 64 192 269 239 283 
57 5 171 123 97 9 238 
58 6 230 175 206 322 204 118 
59 7 122 77 17 149 245 229 290 
60 7 233 167 115 55 272 104 311 
61 7 50 244 6 180 279 24 85 
62 5 259 22 117 43 212 
63 5 340 274 14 165 81 
64 6 78 192 214 56 281 283 
65 7 25 241 72 292 191 339 140 
66 6 215 29 254 141 258 15 
67 7 193 213 40 51 201 114 181 
68 6 44 11 264 139 290 302 
69 4 188 20 86 190 
70 5 305 37 330 347 229 
71 6 52 94 331 262 200 219 
72 4 191 25 65 241 
73 5 3 173 328 157 189 
74 5 12 317 40 201 213 
75 6 198 242 46 87 182 216 
76 4 327 79 315 45 
77 4 149 59 122 17 
78 7 64 192 214 56 281 283 246 
79 3 76 45 315 
80 5 196 279 24 180 85 
81 6 348 170 165 274 14 63 
82 7 246 281 90 56 78 192 64 
83 6 147 7 231 32 34 251 
84 7 159 343 306 337 33 148 174 
85 7 24 279 285 180 196 80 50 
86 5 188 301 20 30 69 
87 5 242 46 75 182 198 
88 6 302 290 245 17 229 44 
89 7 220 31 278 280 108 275 277 
90 7 246 82 281 192 78 56 64 
91 4 156 95 18 131 
92 7 154 145 335 38 128 256 199 
93 6 168 282 323 26 227 266 
94 7 52 71 262 286 219 331 97 
95 6 18 156 203 91 131 260 
96 5 308 110 205 33 306 
97 7 219 9 331 57 321 312 123 
98 7 49 200 342 163 284 123 331 
99 6 202 341 318 31 224 46 
100 6 23 319 338 117 142 22 
101 6 174 337 7 159 243 83 
102 7 36 208 166 186 118 228 164 
103 4 211 314 11 302 
104 7 55 272 115 167 232 233 106 
105 6 284 141 160 342 351 49 
106 7 8 133 150 189 115 307 328 
107 5 349 223 333 5 128 
108 7 277 280 31 220 162 116 89 
109 4 112 184 258 42 
110 5 96 33 194 308 205 
111 5 336 340 320 63 21 
112 6 109 184 42 258 297 205 
113 7 201 114 51 35 329 67 325 
114 7 51 329 113 35 201 250 67 
115 7 272 55 104 106 8 167 233 
116 5 162 224 108 277 31 
117 7 22 142 212 169 43 249 62 
118 7 206 228 204 178 36 102 175 
119 2 326 23 
120 6 332 158 13 19 207 248 
121 6 137 39 289 214 334 192 
122 6 59 77 149 17 20 86 
123 3 57 171 97 
124 5 10 182 255 87 75 
125 3 313 325 35 
126 6 300 310 4 344 143 185 
127 3 21 320 218 
128 7 335 5 107 138 333 199 349 
129 2 316 28 
130 7 291 39 90 334 121 235 246 
131 2 18 260 
132 7 181 268 213 193 67 40 51 
133 7 8 150 106 189 298 307 328 
134 4 183 239 267 14 
135 6 265 209 311 307 150 8 
136 4 144 266 26 168 
137 6 289 121 214 39 261 334 
138 4 199 161 38 5 
139 5 264 68 169 344 44 
140 5 292 295 241 25 65 
141 7 215 351 66 15 160 29 105 
142 6 117 249 22 169 212 43 
143 6 347 330 300 310 251 32 
144 5 136 266 26 350 168 
145 7 92 27 271 335 128 154 107 
146 7 263 227 247 48 284 237 160 
147 5 34 83 231 210 7 
148 5 236 343 287 4 84 
149 4 77 59 122 17 
150 7 8 133 307 106 135 189 311 
151 3 339 5 161 
152 7 185 344 287 43 236 4 212 
153 5 221 238 321 9 312 
154 7 38 335 92 256 199 138 128 
155 6 336 111 21 82 246 218 
156 5 91 95 203 18 131 
157 7 3 73 173 197 195 298 189 
158 7 120 332 19 13 207 6 47 
159 7 337 306 84 33 101 174 243 
160 7 351 293 15 141 105 66 215 
161 4 339 151 5 295 
162 6 116 108 224 277 31 280 
163 6 200 98 49 71 331 342 
164 7 309 2 172 240 288 36 275 
165 5 274 81 348 13 19 
166 6 186 208 102 36 178 172 
167 7 232 104 233 55 272 60 115 
168 6 282 26 266 144 136 41 
169 7 212 43 142 22 117 249 139 
170 7 348 81 273 285 14 85 165 
171 5 57 238 123 97 9 
172 6 164 309 240 2 275 186 
173 7 3 328 189 73 298 157 133 
174 6 101 337 7 243 159 32 
175 5 322 204 206 230 58 
176 5 252 285 338 85 23 
177 7 276 297 228 58 178 118 206 
178 7 228 208 118 102 36 166 206 
179 5 47 346 207 195 158 
180 7 279 24 50 85 80 196 285 
181 7 268 213 40 193 67 12 74 
182 6 124 75 10 255 87 242 
183 4 14 267 273 134 
184 5 109 112 42 205 258 
185 7 344 152 287 4 126 236 43 
186 5 166 208 102 172 36 
187 7 53 299 270 294 261 10 124 
188 5 86 69 20 301 30 
189 7 298 173 328 133 3 8 73 
190 5 304 37 257 69 330 
191 5 72 25 65 241 292 
192 6 64 78 214 56 281 246 
193 7 67 213 40 51 181 201 114 
194 3 225 110 33 
195 6 346 47 207 157 179 197 
196 5 80 279 24 85 180 
197 6 157 73 3 195 346 173 
198 5 75 46 242 216 87 
199 4 138 38 161 256 
200 7 98 163 331 49 71 97 123 
201 6 113 67 40 74 114 51 
202 7 224 31 99 116 162 108 89 
203 7 95 156 18 91 226 299 260 
204 7 206 118 175 322 228 230 58 
205 5 96 308 42 184 110 
206 7 204 118 175 228 230 58 322 
207 6 47 179 346 195 120 158 
208 7 166 102 178 186 36 228 118 
209 6 311 265 135 150 307 8 
210 4 34 147 296 231 
211 3 103 314 11 
212 7 169 22 43 117 142 249 152 
213 7 40 193 67 181 268 74 201 
214 6 192 64 78 289 56 121 
215 6 66 29 254 141 258 15 
216 5 198 75 54 255 182 
217 3 244 50 61 
218 3 21 127 320 
219 7 97 9 331 312 321 286 94 
220 6 89 280 31 108 277 278 
221 4 153 238 321 9 
222 1 29 
223 4 349 107 333 5 
224 5 116 162 202 108 31 
225 4 194 33 343 306 
226 7 203 156 95 235 91 18 299 
227 6 247 49 284 163 98 342 
228 7 178 118 206 208 204 102 36 
229 6 245 305 290 17 88 302 
230 5 58 175 322 206 204 
231 4 34 147 83 210 
232 5 167 104 233 55 272 
233 7 60 167 55 104 115 272 232 
234 4 293 15 48 351 
235 7 270 334 53 39 187 291 121 
236 5 287 148 4 152 185 
237 2 48 234 
238 6 321 153 221 9 312 171 
239 6 269 283 56 134 281 78 
240 6 2 309 164 172 275 288 
241 7 65 25 292 339 72 295 140 
242 5 87 46 75 198 182 
243 7 174 7 310 32 4 251 337 
244 6 61 50 6 217 180 279 
245 7 229 290 17 305 88 302 44 
246 7 82 90 281 56 78 192 64 
247 7 227 49 284 342 98 163 105 
248 4 332 13 120 19 
249 5 142 169 117 212 22 
250 6 329 35 125 313 114 325 
251 6 32 7 310 83 143 243 
252 4 176 338 319 23 
253 7 261 45 315 294 54 327 76 
254 5 66 258 215 29 109 
255 7 10 124 182 294 216 54 75 
256 4 38 199 138 237 
257 2 190 37 
258 5 109 112 184 254 29 
259 4 62 22 117 43 
260 2 18 131 
261 6 253 294 45 289 315 53 
262 4 52 94 71 286 
263 7 146 227 247 93 284 48 49 
264 4 139 68 249 11 
265 6 209 135 311 307 150 8 
266 6 26 168 144 282 136 350 
267 4 273 183 14 170 
268 7 181 213 40 12 193 41 74 
269 7 239 56 281 283 78 82 134 
270 7 53 187 334 235 137 261 299 
271 6 27 16 145 223 349 107 
272 7 55 115 104 106 167 233 8 
273 5 267 170 14 183 176 
274 5 165 81 348 13 63 
275 6 240 2 309 172 89 220 
276 5 297 177 42 112 58 
277 5 108 280 220 31 162 
278 7 89 220 31 318 275 280 108 
279 7 24 180 85 196 80 285 50 
280 5 220 277 108 31 89 
281 7 56 82 246 78 64 192 90 
282 6 168 26 266 144 41 136 
283 6 239 56 269 64 78 192 
284 6 342 105 49 98 160 141 
285 7 85 24 279 180 50 196 80 
286 7 312 94 219 52 9 321 28 
287 6 236 4 148 152 185 344 
288 7 2 240 309 296 164 275 172 
289 6 137 121 261 214 253 45 
290 7 245 88 302 17 229 305 44 
291 7 39 121 334 90 130 137 289 
292 5 140 295 241 65 25 
293 7 15 351 160 141 234 66 215 
294 7 10 255 253 261 54 124 187 
295 5 292 140 241 65 25 
296 3 288 210 2 
297 6 276 177 42 112 109 58 
298 7 189 173 3 328 133 157 307 
299 7 187 124 10 53 294 260 255 
300 6 126 310 4 143 344 243 
301 6 30 86 188 20 69 345 
302 6 88 290 245 17 44 229 
303 4 345 324 30 301 
304 5 190 37 69 257 330 
305 6 229 245 17 70 290 88 
306 7 33 159 84 337 343 101 110 
307 5 150 8 135 133 265 
308 6 96 205 110 58 230 42 
309 6 2 240 164 172 288 275 
310 7 300 126 243 4 32 143 251 
311 7 209 265 135 150 8 307 106 
312 7 321 9 238 219 286 153 97 
313 3 125 325 35 
314 5 103 211 302 88 11 
315 5 45 327 76 54 253 
316 2 129 28 
317 4 12 74 41 350 
318 4 278 324 89 31 
319 3 338 100 23 
320 4 127 21 336 111 
321 6 9 238 312 153 221 219 
322 4 175 230 204 58 
323 6 93 132 263 282 168 26 
324 5 303 345 318 296 30 
325 3 313 125 35 
326 4 119 196 80 23 
327 3 76 315 54 
328 6 173 189 3 298 73 133 
329 7 250 114 35 51 113 125 325 
330 5 347 37 143 257 190 
331 7 219 97 52 71 94 200 9 
332 6 120 158 13 19 248 207 
333 5 107 349 5 223 151 
334 7 39 270 235 121 137 53 289 
335 7 128 38 138 199 154 5 107 
336 5 111 320 340 21 63 
337 7 159 174 101 84 306 243 33 
338 3 319 100 23 
339 5 241 65 151 25 161 
340 3 63 111 14 
341 3 99 202 46 
342 6 49 284 98 105 200 163 
343 4 84 148 236 33 
344 6 185 152 126 4 287 300 
345 4 303 324 30 301 
346 6 195 47 179 207 157 197 
347 5 330 143 37 257 190 
348 6 81 170 165 274 273 14 
349 5 223 107 333 5 128 
350 4 41 144 266 317 
351 7 15 293 160 141 66 215 105 
DEPOT_SECTION
   1
   -1
EOF
