NAME :  X-n548-kX-w218-c11.cctp
COMMENT : 	Adapted by Maziero, Usberti and Cavellucci from the Uchoa, Pecin, Pessoa, Poggi, Subramanian, and Vidal (2013)
TYPE :  CCTP
DIMENSION :    548
EDGE_WEIGHT_TYPE : 	EUC_2D	
CAPACITY : 	11
VERTICES_WITHIN_COVERAGE :  11
VERTICES_WITH_DEMAND : 	218
NODE_COORD_SECTION
1 0 0
2 221 542
3 320 456
4 576 827
5 679 994
6 371 461
7 961 844
8 986 379
9 175 540
10 126 517
11 329 626
12 477 890
13 191 356
14 584 917
15 308 653
16 0 7
17 273 302
18 672 381
19 235 415
20 583 149
21 672 124
22 644 646
23 400 544
24 832 999
25 842 964
26 582 965
27 544 311
28 429 2
29 939 849
30 898 605
31 363 130
32 639 874
33 323 201
34 829 350
35 7 53
36 801 92
37 57 330
38 943 0
39 579 275
40 833 402
41 408 940
42 635 871
43 631 630
44 733 313
45 344 619
46 628 291
47 674 92
48 74 602
49 38 354
50 473 107
51 668 279
52 510 811
53 366 16
54 49 182
55 528 946
56 271 745
57 405 872
58 65 893
59 622 488
60 668 978
61 939 73
62 556 632
63 270 446
64 586 348
65 951 167
66 385 308
67 247 997
68 992 460
69 128 590
70 746 847
71 279 459
72 428 183
73 364 167
74 656 687
75 547 792
76 517 152
77 252 618
78 464 284
79 184 96
80 457 269
81 590 47
82 348 609
83 777 112
84 528 198
85 877 457
86 812 650
87 864 723
88 584 875
89 817 233
90 186 909
91 439 447
92 560 994
93 818 658
94 134 903
95 447 951
96 969 519
97 488 401
98 142 666
99 287 534
100 399 181
101 141 22
102 29 248
103 313 643
104 20 974
105 294 475
106 439 214
107 327 361
108 79 657
109 165 601
110 345 144
111 90 914
112 400 256
113 177 633
114 549 135
115 812 166
116 887 565
117 455 695
118 180 298
119 658 126
120 18 638
121 327 299
122 195 261
123 245 439
124 355 299
125 827 854
126 881 666
127 144 893
128 34 637
129 187 150
130 350 673
131 380 917
132 271 505
133 347 879
134 45 456
135 930 78
136 860 22
137 448 112
138 236 704
139 222 587
140 670 76
141 333 821
142 521 123
143 642 795
144 152 816
145 50 360
146 325 936
147 24 690
148 836 158
149 351 981
150 405 377
151 159 405
152 825 285
153 187 320
154 342 200
155 290 713
156 304 144
157 216 909
158 46 173
159 613 524
160 35 950
161 298 667
162 257 579
163 775 393
164 860 681
165 996 407
166 42 719
167 379 14
168 195 581
169 75 328
170 295 405
171 481 721
172 539 661
173 6 525
174 239 471
175 88 989
176 965 196
177 460 479
178 927 260
179 663 933
180 626 229
181 814 564
182 737 136
183 620 811
184 253 65
185 645 544
186 877 977
187 825 518
188 656 780
189 235 74
190 881 673
191 101 93
192 221 710
193 69 200
194 115 635
195 721 215
196 414 959
197 336 858
198 270 287
199 912 701
200 278 898
201 426 373
202 867 569
203 354 11
204 937 660
205 434 965
206 753 436
207 681 746
208 86 648
209 656 239
210 604 359
211 979 146
212 507 27
213 94 695
214 424 827
215 287 592
216 554 230
217 952 222
218 48 840
219 99 106
220 661 456
221 133 601
222 635 416
223 860 852
224 842 165
225 752 0
226 173 90
227 469 632
228 184 590
229 619 482
230 981 411
231 778 389
232 359 222
233 751 498
234 201 444
235 91 710
236 111 324
237 867 389
238 309 269
239 669 317
240 768 421
241 889 891
242 605 483
243 221 579
244 729 804
245 442 624
246 719 697
247 413 1000
248 977 29
249 356 605
250 107 39
251 362 727
252 570 421
253 162 737
254 557 652
255 139 48
256 145 568
257 596 316
258 681 194
259 268 893
260 420 824
261 94 529
262 422 341
263 226 328
264 687 807
265 299 951
266 549 281
267 944 64
268 316 904
269 554 49
270 160 221
271 302 952
272 258 765
273 406 684
274 182 881
275 641 481
276 541 807
277 107 602
278 870 999
279 247 282
280 771 712
281 109 942
282 305 827
283 865 629
284 632 928
285 571 734
286 899 632
287 189 934
288 385 166
289 851 399
290 890 198
291 370 248
292 372 910
293 11 248
294 845 326
295 508 769
296 511 900
297 320 984
298 158 330
299 159 327
300 798 648
301 746 195
302 555 541
303 832 900
304 809 931
305 460 869
306 585 804
307 487 102
308 194 288
309 340 877
310 127 981
311 39 692
312 187 528
313 462 482
314 890 450
315 857 64
316 96 223
317 610 842
318 910 604
319 260 757
320 809 211
321 767 499
322 48 352
323 23 950
324 289 98
325 622 891
326 499 618
327 873 960
328 82 752
329 65 845
330 281 842
331 990 747
332 809 808
333 693 76
334 744 478
335 506 411
336 668 167
337 301 696
338 61 500
339 9 695
340 939 496
341 390 699
342 741 894
343 39 477
344 476 728
345 663 477
346 112 160
347 588 281
348 215 559
349 528 309
350 839 820
351 601 769
352 668 953
353 594 865
354 407 905
355 478 244
356 423 639
357 174 707
358 635 465
359 570 151
360 651 612
361 785 786
362 166 64
363 684 574
364 598 632
365 645 944
366 976 284
367 576 737
368 87 725
369 177 414
370 865 221
371 459 506
372 23 683
373 507 320
374 961 987
375 497 889
376 888 561
377 963 175
378 223 208
379 308 530
380 237 184
381 576 387
382 937 529
383 463 219
384 210 641
385 582 748
386 215 107
387 985 385
388 22 783
389 920 945
390 502 117
391 851 594
392 467 732
393 728 54
394 64 249
395 492 57
396 415 372
397 852 45
398 503 209
399 292 125
400 316 855
401 340 273
402 242 217
403 85 788
404 700 96
405 942 989
406 37 511
407 663 175
408 670 279
409 611 829
410 471 843
411 268 61
412 412 350
413 4 325
414 454 981
415 94 359
416 688 524
417 982 397
418 725 208
419 793 620
420 337 779
421 106 856
422 350 826
423 965 538
424 780 360
425 144 904
426 225 646
427 666 449
428 510 276
429 564 632
430 573 501
431 903 827
432 605 806
433 38 525
434 445 738
435 138 788
436 216 988
437 944 955
438 220 716
439 788 589
440 75 130
441 858 686
442 107 314
443 717 125
444 991 306
445 62 373
446 641 426
447 747 436
448 350 855
449 42 62
450 184 460
451 153 199
452 618 878
453 986 690
454 430 839
455 161 233
456 840 747
457 284 582
458 899 505
459 453 998
460 134 596
461 30 955
462 437 412
463 660 92
464 203 828
465 524 418
466 723 31
467 869 759
468 824 606
469 764 469
470 760 852
471 119 378
472 352 365
473 954 998
474 381 873
475 905 972
476 222 302
477 0 783
478 746 114
479 670 702
480 447 881
481 14 996
482 844 110
483 315 373
484 115 329
485 808 697
486 992 409
487 692 929
488 897 142
489 397 338
490 334 75
491 104 954
492 537 581
493 502 262
494 346 190
495 812 171
496 361 170
497 44 202
498 326 351
499 525 950
500 773 202
501 650 781
502 906 167
503 910 793
504 752 234
505 147 12
506 542 768
507 82 850
508 358 588
509 68 802
510 19 296
511 114 406
512 228 854
513 147 444
514 954 410
515 529 392
516 77 383
517 822 126
518 284 784
519 804 876
520 200 797
521 735 425
522 784 608
523 870 566
524 968 481
525 228 806
526 548 87
527 609 314
528 328 85
529 852 128
530 505 944
531 358 609
532 311 26
533 855 140
534 909 915
535 407 84
536 523 987
537 690 982
538 841 250
539 499 9
540 646 414
541 516 682
542 713 221
543 328 800
544 944 22
545 691 660
546 763 609
547 44 506
548 756 289
DEMAND_SECTION
2 1
3 1
4 1
5 1
6 1
7 1
8 1
9 1
10 1
11 1
12 1
13 1
14 1
15 1
16 1
17 1
18 1
19 1
20 1
21 1
22 1
23 1
24 1
25 1
26 1
27 1
28 1
29 1
30 1
31 1
32 1
33 1
34 1
35 1
36 1
37 1
38 1
39 1
40 1
41 1
42 1
43 1
44 1
45 1
46 1
47 1
48 1
49 1
50 1
51 1
52 1
53 1
54 1
55 1
56 1
57 1
58 1
59 1
60 1
61 1
62 1
63 1
64 1
65 1
66 1
67 1
68 1
69 1
70 1
71 1
72 1
73 1
74 1
75 1
76 1
77 1
78 1
79 1
80 1
81 1
82 1
83 1
84 1
85 1
86 1
87 1
88 1
89 1
90 1
91 1
92 1
93 1
94 1
95 1
96 1
97 1
98 1
99 1
100 1
101 1
102 1
103 1
104 1
105 1
106 1
107 1
108 1
109 1
110 1
111 1
112 1
113 1
114 1
115 1
116 1
117 1
118 1
119 1
120 1
121 1
122 1
123 1
124 1
125 1
126 1
127 1
128 1
129 1
130 1
131 1
132 1
133 1
134 1
135 1
136 1
137 1
138 1
139 1
140 1
141 1
142 1
143 1
144 1
145 1
146 1
147 1
148 1
149 1
150 1
151 1
152 1
153 1
154 1
155 1
156 1
157 1
158 1
159 1
160 1
161 1
162 1
163 1
164 1
165 1
166 1
167 1
168 1
169 1
170 1
171 1
172 1
173 1
174 1
175 1
176 1
177 1
178 1
179 1
180 1
181 1
182 1
183 1
184 1
185 1
186 1
187 1
188 1
189 1
190 1
191 1
192 1
193 1
194 1
195 1
196 1
197 1
198 1
199 1
200 1
201 1
202 1
203 1
204 1
205 1
206 1
207 1
208 1
209 1
210 1
211 1
212 1
213 1
214 1
215 1
216 1
217 1
218 1
219 1
COVERAGE_SECTION
2 11 348 243 312 139 9 168 162 228 132 99 174 
3 11 105 71 6 63 170 132 379 123 174 483 99 
4 11 306 409 432 317 276 353 75 183 88 351 452 
5 11 537 60 352 365 179 487 284 26 325 342 92 
6 11 3 91 105 462 23 150 177 71 313 379 170 
7 11 29 431 503 241 534 223 331 389 437 350 467 
8 11 387 417 165 486 230 514 444 68 366 524 237 
9 11 312 256 348 2 168 228 10 243 109 139 69 
10 11 261 9 256 312 338 69 513 460 450 547 221 
11 11 45 103 82 15 249 531 508 130 161 215 457 
12 11 375 305 480 296 410 530 95 454 354 57 55 
13 11 153 298 299 263 118 151 369 476 308 19 471 
14 11 88 325 26 284 452 353 55 365 499 42 32 
15 11 103 161 11 337 130 45 82 155 215 77 531 
16 11 35 449 250 191 219 101 440 255 505 158 362 
17 11 198 279 238 476 121 263 498 401 107 308 124 
18 11 540 222 446 239 427 210 220 521 44 64 358 
19 11 123 234 63 174 369 170 71 450 13 151 105 
20 11 359 114 76 142 526 84 119 407 216 336 390 
21 11 119 47 463 404 336 443 140 333 407 182 258 
22 11 43 360 74 364 545 479 429 363 254 62 246 
23 11 508 371 249 531 82 6 177 313 245 379 45 
24 11 25 278 186 327 304 475 303 389 405 534 437 
25 11 327 24 186 278 304 475 303 389 534 241 519 
26 11 92 14 55 499 284 536 365 530 325 60 179 
27 11 349 266 373 428 39 257 347 64 493 527 210 
28 11 167 53 539 203 212 395 535 137 50 307 490 
29 11 7 431 503 241 534 223 389 350 437 125 331 
30 11 318 286 116 283 376 202 391 523 126 204 190 
31 11 110 73 496 288 528 156 100 490 494 535 399 
32 11 42 452 325 317 353 409 284 88 179 183 14 
33 11 154 494 232 496 73 156 110 291 238 288 401 
34 11 294 424 40 237 289 231 152 163 240 548 538 
35 11 449 16 250 191 440 219 158 255 54 101 505 
36 11 83 517 482 478 529 315 397 533 115 148 182 
37 11 169 322 49 145 445 415 510 442 413 236 516 
38 11 544 248 267 61 135 136 397 315 482 488 211 
39 11 347 266 257 527 27 216 46 349 180 428 64 
40 11 289 237 34 231 163 240 424 85 314 294 206 
41 11 196 354 131 205 95 292 247 414 57 149 480 
42 11 32 452 325 317 353 409 88 284 183 179 14 
43 11 22 360 364 74 429 545 62 254 363 479 185 
44 11 548 239 424 408 51 504 231 163 18 542 152 
45 11 82 11 531 249 508 103 15 130 215 161 457 
46 11 527 257 347 51 408 239 39 209 180 64 210 
47 11 463 140 333 404 21 119 443 393 336 478 182 
48 11 277 208 128 194 69 108 221 460 120 261 256 
49 11 322 145 37 445 169 413 516 415 510 236 442 
50 11 307 137 390 142 395 76 535 526 114 212 72 
51 11 408 239 46 209 180 527 44 542 347 257 195 
52 11 276 75 295 410 506 4 306 305 375 454 12 
53 11 167 203 532 28 490 528 535 411 324 31 184 
54 11 158 497 193 440 316 346 102 394 293 219 191 
55 11 499 530 536 296 26 92 14 375 12 95 414 
56 11 319 272 155 518 138 337 438 192 420 525 543 
57 11 474 354 454 480 214 260 292 131 305 133 448 
58 11 111 507 329 421 218 160 281 94 323 461 491 
59 11 229 242 275 358 159 345 220 430 427 185 446 
60 11 5 537 352 365 179 487 284 26 325 14 32 
61 11 135 267 544 248 38 488 315 211 397 136 65 
62 11 429 254 172 364 492 326 541 43 227 22 302 
63 11 71 123 105 174 19 170 3 132 234 483 450 
64 11 210 257 381 527 27 347 349 46 515 39 252 
65 11 377 176 211 502 217 488 290 135 61 178 533 
66 11 124 489 262 412 112 401 121 291 472 396 150 
67 11 436 265 271 297 287 157 146 200 149 259 90 
68 11 524 230 486 165 96 514 340 417 387 8 423 
69 11 460 221 277 256 109 194 48 228 113 168 9 
70 11 470 244 342 519 264 361 332 125 350 487 303 
71 11 63 105 123 3 174 132 170 19 99 379 234 
72 11 100 106 288 383 73 496 137 112 232 355 398 
73 11 496 288 494 110 31 100 154 33 232 156 72 
74 11 479 22 545 43 207 246 360 364 188 367 501 
75 11 276 506 306 52 4 295 385 351 432 367 285 
76 11 142 114 390 84 359 307 398 50 20 526 137 
77 11 162 426 139 215 384 457 243 15 103 161 168 
78 11 80 355 493 428 373 383 349 112 262 106 66 
79 11 226 386 362 129 189 255 184 191 101 219 411 
80 11 78 355 493 383 428 106 112 373 398 262 349 
81 11 269 526 463 140 212 47 114 395 539 20 142 
82 11 249 531 45 508 11 103 15 215 130 457 161 
83 11 36 478 182 517 443 115 482 495 148 393 529 
84 11 398 216 76 359 114 355 383 493 20 142 428 
85 11 314 458 289 237 40 340 187 514 382 524 376 
86 11 93 300 419 468 485 522 164 283 441 546 439 
87 11 456 467 441 164 190 199 126 485 93 503 86 
88 11 353 452 325 14 317 4 42 409 32 306 284 
89 11 320 538 370 152 500 495 504 115 224 148 290 
90 11 287 274 157 425 127 94 512 464 259 281 436 
91 11 462 177 313 371 97 6 201 335 150 396 465 
92 11 26 536 499 55 530 14 284 365 296 414 459 
93 11 86 300 485 419 164 441 468 283 522 126 190 
94 11 425 127 111 281 90 274 421 491 287 58 507 
95 11 205 414 196 41 459 530 247 354 12 480 131 
96 11 423 382 340 524 68 458 376 116 318 314 230 
97 11 335 465 515 462 91 201 396 177 373 252 313 
98 11 194 113 357 213 208 108 221 235 109 460 384 
99 11 379 132 457 162 215 105 2 71 348 174 243 
100 11 288 72 73 496 106 494 232 154 31 110 291 
101 11 505 255 250 362 226 191 79 219 189 449 386 
102 11 293 394 497 510 193 54 316 158 413 37 169 
103 11 15 11 161 45 130 82 337 531 215 249 77 
104 11 461 481 323 160 175 491 111 58 281 310 94 
105 11 71 3 63 132 174 379 99 123 170 6 19 
106 11 383 72 355 100 112 80 398 288 78 291 493 
107 11 498 483 472 170 121 124 489 66 17 150 412 
108 11 208 213 194 128 311 235 48 277 372 98 120 
109 11 228 460 221 113 168 69 256 277 139 194 243 
110 11 31 73 496 156 288 494 154 399 33 528 100 
111 11 58 281 491 94 425 127 421 507 160 329 461 
112 11 291 232 66 106 80 124 401 78 383 100 72 
113 11 109 384 228 98 426 221 168 460 194 139 69 
114 11 359 142 76 20 526 390 84 307 50 269 398 
115 11 495 148 224 517 320 533 500 529 83 482 89 
116 11 376 523 202 30 318 391 458 382 283 286 181 
117 11 171 344 392 434 273 541 356 227 341 245 326 
118 11 308 153 299 298 122 476 263 13 455 279 484 
119 11 21 463 47 336 407 140 404 443 333 258 20 
120 11 128 372 147 311 339 108 48 208 166 213 277 
121 11 124 401 238 498 17 198 66 107 291 472 483 
122 11 308 118 455 476 270 279 153 378 402 263 299 
123 11 19 63 174 71 234 170 105 450 132 369 3 
124 11 121 401 66 291 238 489 498 112 472 107 412 
125 11 519 223 350 303 332 470 241 304 361 70 431 
126 11 190 164 441 286 283 199 204 87 30 93 318 
127 11 425 94 274 90 421 111 281 287 491 157 507 
128 11 120 372 108 48 208 147 311 339 194 277 166 
129 11 386 79 380 451 226 378 270 346 402 455 362 
130 11 15 103 341 11 161 45 337 251 273 82 531 
131 11 292 354 41 474 133 57 196 309 146 268 448 
132 11 99 105 379 71 174 63 2 3 123 162 348 
133 11 309 197 448 474 400 268 292 131 422 57 141 
134 11 343 338 547 406 433 173 516 445 511 261 145 
135 11 61 267 544 248 488 315 38 211 397 136 65 
136 11 397 315 544 38 482 135 36 61 267 529 225 
137 11 50 307 535 390 395 72 142 76 288 100 31 
138 11 192 438 56 155 319 426 357 272 337 384 161 
139 11 243 168 348 162 228 77 2 384 109 426 457 
140 11 47 463 333 404 21 119 393 443 466 81 478 
141 11 422 543 282 197 400 448 420 309 330 133 518 
142 11 390 76 114 307 526 50 359 20 395 137 84 
143 11 501 188 183 432 409 264 351 317 306 207 4 
144 11 435 464 520 421 274 403 127 525 507 253 509 
145 11 322 49 445 37 516 169 415 413 236 471 510 
146 11 271 265 268 297 149 292 131 200 133 309 259 
147 11 372 311 339 166 120 128 108 213 235 368 208 
148 11 224 115 533 495 529 517 482 320 488 290 370 
149 11 297 146 271 265 247 196 41 131 292 205 268 
150 11 396 201 412 262 489 462 472 66 91 107 498 
151 11 369 513 511 471 234 13 450 298 19 299 415 
152 11 538 294 89 34 548 370 320 424 504 44 500 
153 11 118 299 298 308 13 476 263 122 279 484 236 
154 11 494 33 232 496 73 288 110 291 100 156 31 
155 11 337 56 161 319 138 272 15 192 438 518 130 
156 11 399 110 324 33 31 494 496 73 528 154 490 
157 11 90 287 274 259 512 200 425 127 436 94 464 
158 11 54 497 193 440 346 316 102 394 293 219 191 
159 11 59 185 229 242 430 275 302 358 345 416 220 
160 11 461 323 104 481 58 111 175 491 281 310 329 
161 11 15 103 337 155 11 130 45 77 138 215 426 
162 11 457 215 139 243 77 348 2 99 168 379 228 
163 11 231 240 424 206 447 521 40 34 289 469 44 
164 11 441 190 126 87 93 283 485 199 86 286 456 
165 11 486 230 417 387 8 514 68 524 444 340 314 
166 11 311 147 339 372 368 235 328 213 388 108 477 
167 11 53 203 28 532 535 490 528 31 137 539 395 
168 11 228 243 139 348 109 9 2 256 312 113 162 
169 11 37 442 236 322 415 484 145 49 445 516 510 
170 11 483 63 107 71 3 123 19 498 105 472 174 
171 11 344 392 117 434 541 295 506 172 273 227 285 
172 11 254 541 62 429 326 364 227 285 492 171 367 
173 11 433 406 547 343 338 134 261 48 120 128 10 
174 11 123 63 71 132 234 105 19 450 2 312 99 
175 11 491 310 281 160 461 104 481 111 323 94 58 
176 11 377 217 65 211 502 178 290 488 366 370 444 
177 11 313 371 91 462 335 97 23 465 6 201 515 
178 11 217 366 290 370 176 444 538 377 502 65 152 
179 11 352 365 487 284 60 537 325 5 32 42 452 
180 11 209 46 347 51 258 407 39 408 216 336 527 
181 11 439 468 187 391 202 522 523 419 546 116 376 
182 11 443 478 83 404 301 21 418 333 500 336 47 
183 11 432 409 143 317 306 501 351 4 188 353 42 
184 11 411 189 324 386 532 399 79 528 490 226 362 
185 11 159 416 363 59 275 229 360 345 242 358 430 
186 11 327 278 475 25 24 389 405 534 437 473 304 
187 11 181 321 202 523 458 376 233 116 469 85 391 
188 11 501 143 264 207 183 351 432 409 306 244 317 
189 11 184 411 386 79 324 226 362 399 129 532 528 
190 11 126 164 441 199 286 283 87 204 93 30 86 
191 11 219 440 250 255 449 346 362 226 101 79 505 
192 11 438 138 357 56 319 426 253 272 155 384 337 
193 11 497 54 158 316 394 346 102 440 293 451 270 
194 11 208 277 221 98 108 460 69 48 109 113 213 
195 11 418 542 301 504 258 500 209 407 336 182 408 
196 11 41 205 95 247 414 131 354 459 292 149 480 
197 11 448 309 400 133 422 141 282 474 268 330 543 
198 11 17 279 238 476 121 263 401 402 308 122 498 
199 11 190 126 204 87 164 441 286 467 453 456 283 
200 11 259 268 330 265 400 271 146 157 309 512 197 
201 11 396 150 412 262 462 489 97 472 91 66 335 
202 11 523 116 376 391 30 181 318 468 283 187 286 
203 11 53 167 532 490 28 528 535 411 324 184 31 
204 11 286 199 126 190 453 318 30 283 164 441 87 
205 11 95 196 414 41 459 247 354 131 530 292 149 
206 11 447 240 521 469 334 163 231 233 321 424 40 
207 11 188 479 501 264 246 143 74 244 351 545 183 
208 11 108 194 48 213 277 128 98 235 311 221 120 
209 11 180 51 408 258 46 542 407 195 336 418 239 
210 11 64 381 257 527 222 540 18 252 46 27 239 
211 11 377 65 176 502 217 488 61 135 267 290 248 
212 11 539 395 269 526 307 28 81 50 390 142 137 
213 11 235 368 108 208 311 98 166 328 194 147 372 
214 11 260 454 57 410 305 480 474 422 448 354 12 
215 11 457 162 77 11 103 99 45 82 15 139 379 
216 11 84 39 266 398 347 493 428 180 355 359 27 
217 11 176 178 377 65 290 366 502 211 370 444 488 
218 11 329 507 509 58 421 388 403 477 111 328 435 
219 11 191 440 346 250 255 449 226 362 158 79 54 
220 11 427 345 358 275 446 540 222 229 59 242 416 
221 11 460 69 277 109 256 194 228 113 48 168 98 
222 11 540 446 427 220 358 18 210 252 275 381 345 
223 11 125 350 241 431 303 519 332 503 29 534 467 
224 11 148 533 115 495 529 517 482 320 290 488 370 
225 11 466 393 333 36 404 136 397 140 478 83 47 
226 11 79 362 386 255 129 189 191 101 219 505 250 
227 11 245 326 356 117 541 172 273 492 62 171 254 
228 11 168 109 139 243 113 348 256 460 9 221 69 
229 11 59 242 275 358 159 345 220 430 427 446 185 
230 11 486 417 165 387 514 8 68 524 340 314 444 
231 11 163 424 240 206 447 521 40 34 289 469 44 
232 11 154 291 494 33 496 112 401 73 100 288 238 
233 11 321 334 469 206 447 416 521 187 240 345 181 
234 11 450 369 123 19 174 513 151 63 71 312 13 
235 11 213 368 328 166 108 311 208 98 147 372 253 
236 11 484 442 169 415 298 299 37 471 516 322 445 
237 11 289 40 34 314 294 85 231 514 163 424 240 
238 11 401 121 198 17 124 279 291 33 232 154 498 
239 11 51 408 46 527 18 44 257 210 209 64 347 
240 11 206 447 163 521 231 469 334 424 40 321 233 
241 11 534 223 303 389 29 431 327 125 475 437 7 
242 11 229 59 358 275 430 159 345 220 446 427 252 
243 11 139 348 168 162 2 228 77 9 109 312 384 
244 11 264 70 470 361 207 188 332 501 143 342 280 
245 11 356 227 326 273 117 531 249 23 341 508 541 
246 11 545 479 280 207 74 485 22 300 546 86 188 
247 11 459 196 205 414 41 95 149 131 297 354 292 
248 11 544 38 267 61 135 136 211 315 397 488 65 
249 11 531 82 508 45 11 103 15 130 215 23 356 
250 11 255 101 505 191 362 219 449 226 79 440 35 
251 11 341 130 420 273 337 155 543 434 161 15 56 
252 11 381 465 515 222 335 210 242 446 64 540 229 
253 11 357 435 438 192 520 98 235 368 144 213 138 
254 11 62 172 429 364 541 326 492 43 285 22 367 
255 11 101 362 250 505 226 191 79 219 386 449 189 
256 11 69 460 221 109 9 228 277 168 10 312 261 
257 11 527 64 347 46 39 210 27 266 349 239 381 
258 11 407 336 542 195 418 209 180 301 21 119 443 
259 11 200 268 330 157 512 400 265 271 146 309 197 
260 11 214 454 57 410 305 474 480 422 448 354 12 
261 11 10 338 547 433 406 256 69 277 48 343 460 
262 11 412 489 201 396 150 66 78 462 472 124 80 
263 11 476 153 13 279 308 17 118 198 299 298 122 
264 11 188 244 501 143 207 183 70 409 32 42 432 
265 11 271 146 297 268 200 149 259 67 292 309 133 
266 11 27 39 349 347 428 216 493 373 257 527 64 
267 11 61 135 544 248 38 315 211 488 136 397 65 
268 11 146 309 200 133 259 400 197 265 271 292 448 
269 11 81 526 212 395 539 142 307 114 390 50 359 
270 11 455 451 122 316 378 308 129 346 118 402 380 
271 11 265 146 297 268 149 200 259 67 292 309 131 
272 11 319 56 518 525 155 438 138 192 520 282 543 
273 11 341 356 117 130 251 434 245 392 227 344 171 
274 11 90 127 157 425 94 287 512 464 144 421 520 
275 11 358 59 229 345 220 242 427 159 446 185 416 
276 11 75 52 506 4 306 295 432 351 385 409 317 
277 11 69 221 460 48 194 208 256 109 108 98 261 
278 11 186 24 327 475 25 405 389 473 437 304 374 
279 11 198 476 17 263 308 122 238 402 118 153 378 
280 11 485 246 300 93 86 361 456 441 87 164 419 
281 11 491 111 310 94 175 425 127 58 160 287 461 
282 11 330 141 400 543 197 422 518 448 420 309 133 
283 11 286 391 126 30 190 468 318 164 93 86 441 
284 11 365 179 325 352 14 452 32 42 487 26 60 
285 11 367 385 506 351 75 306 295 541 276 172 432 
286 11 30 318 283 126 190 204 391 164 116 441 199 
287 11 90 157 274 425 436 127 94 310 281 67 491 
288 11 73 100 496 31 72 110 494 154 232 33 106 
289 11 40 237 34 85 314 294 231 163 424 240 514 
290 11 370 502 488 224 217 148 65 533 538 178 176 
291 11 232 112 401 124 154 66 494 238 33 121 100 
292 11 131 354 474 133 309 41 57 146 268 448 197 
293 11 102 510 394 497 193 54 413 158 316 37 169 
294 11 34 152 237 289 424 538 40 231 548 89 163 
295 11 506 52 75 276 344 171 392 434 285 367 385 
296 11 375 12 530 55 499 305 480 410 14 88 95 
297 11 149 271 265 146 67 268 131 292 247 200 196 
298 11 299 153 118 13 484 236 442 308 471 263 415 
299 11 298 153 118 13 484 236 308 442 471 263 476 
300 11 86 93 419 522 468 485 546 439 280 164 283 
301 11 418 500 195 504 542 182 258 320 495 115 443 
302 11 430 492 159 242 59 229 185 62 429 326 364 
303 11 519 304 125 223 241 25 327 534 350 470 186 
304 11 303 25 519 327 24 342 125 186 241 278 470 
305 11 480 12 410 375 454 57 214 260 296 354 52 
306 11 432 4 183 409 351 75 276 317 385 506 143 
307 11 50 390 137 142 395 76 526 114 212 535 269 
308 11 118 122 476 153 263 299 279 298 455 13 270 
309 11 133 197 448 400 268 474 292 422 141 131 146 
310 11 491 175 281 111 94 287 425 436 127 90 160 
311 11 147 372 166 339 108 128 213 235 120 368 208 
312 11 9 2 348 168 256 243 10 228 450 139 109 
313 11 177 371 91 462 335 97 23 465 6 302 515 
314 11 85 458 289 237 340 40 514 524 382 187 230 
315 11 397 136 482 36 529 517 135 533 61 267 488 
316 11 193 394 497 54 451 270 346 455 158 102 293 
317 11 409 353 183 432 4 452 42 88 32 306 325 
318 11 30 286 116 376 283 202 523 391 204 126 190 
319 11 272 56 518 155 438 138 525 192 520 337 420 
320 11 89 500 495 115 538 224 370 148 504 301 152 
321 11 233 469 334 187 206 447 240 181 521 416 439 
322 11 145 49 37 445 169 516 415 413 510 236 442 
323 11 461 160 104 481 58 111 175 491 281 310 218 
324 11 399 528 411 156 184 490 189 110 386 532 31 
325 11 452 32 42 284 353 88 14 317 365 179 409 
326 11 227 492 245 62 172 429 541 254 356 117 302 
327 11 186 25 475 278 389 24 534 304 241 437 303 
328 11 368 403 235 166 509 213 435 388 311 253 147 
329 11 218 507 421 509 58 403 111 388 94 477 127 
330 11 282 400 259 512 141 200 197 518 543 525 309 
331 11 453 199 503 7 204 29 431 467 87 190 126 
332 11 350 361 125 470 223 456 519 70 467 244 303 
333 11 404 140 47 463 393 21 466 443 119 478 182 
334 11 233 469 321 447 206 521 240 416 345 427 220 
335 11 465 97 515 252 462 381 91 177 313 201 373 
336 11 407 258 119 21 443 418 542 195 209 47 180 
337 11 155 161 15 103 130 56 138 251 319 11 192 
338 11 547 406 343 433 261 134 173 10 48 513 256 
339 11 147 372 311 166 120 128 108 235 368 213 477 
340 11 382 524 96 458 423 68 314 85 376 116 514 
341 11 273 251 130 117 434 356 392 337 245 344 45 
342 11 470 70 487 519 304 179 244 303 352 125 264 
343 11 134 547 338 406 433 173 261 10 516 511 445 
344 11 171 392 434 117 295 541 506 273 52 341 172 
345 11 220 275 427 358 59 229 416 446 242 540 222 
346 11 440 219 451 193 316 54 158 191 129 270 497 
347 11 39 257 266 527 46 27 216 180 349 64 428 
348 11 2 243 139 168 312 9 228 162 109 77 256 
349 11 27 373 266 428 493 39 347 257 78 64 80 
350 11 332 125 223 361 431 519 467 456 503 303 470 
351 11 385 432 306 367 183 285 143 501 188 75 506 
352 11 179 60 365 487 537 5 284 325 32 26 42 
353 11 88 452 317 325 409 42 4 32 14 183 432 
354 11 131 57 41 292 474 480 196 95 305 133 205 
355 11 383 493 80 78 398 428 106 84 216 72 112 
356 11 245 227 273 117 341 531 249 326 45 82 130 
357 11 253 192 438 98 138 113 384 426 213 235 368 
358 11 275 229 59 220 345 242 427 446 222 540 159 
359 11 20 114 76 142 84 526 390 216 398 119 180 
360 11 43 22 363 364 545 185 74 429 479 416 159 
361 11 332 244 350 456 470 70 280 125 467 485 519 
362 11 226 255 79 101 505 250 386 189 191 219 184 
363 11 185 360 416 43 22 545 546 159 345 233 275 
364 11 43 429 62 254 22 360 172 74 492 541 545 
365 11 179 284 352 60 487 325 537 5 26 14 32 
366 11 444 178 217 176 8 387 377 417 65 290 165 
367 11 285 385 351 506 75 306 295 432 276 541 172 
368 11 235 328 213 166 311 403 108 147 253 208 372 
369 11 151 234 513 450 19 13 511 471 123 174 298 
370 11 290 538 89 320 224 502 148 178 495 152 115 
371 11 313 177 91 23 462 6 302 335 492 97 465 
372 11 147 311 339 166 120 128 108 208 213 235 368 
373 11 349 27 428 78 266 493 80 515 355 97 64 
374 11 473 405 437 475 389 186 534 278 327 241 25 
375 11 296 12 305 480 410 530 55 499 52 95 454 
376 11 116 523 202 30 318 391 458 382 283 286 181 
377 11 65 176 211 217 502 488 290 178 135 61 370 
378 11 402 380 122 270 455 129 451 279 308 198 476 
379 11 99 132 105 457 215 162 3 71 508 2 82 
380 11 378 402 129 156 386 399 270 451 33 122 455 
381 11 252 64 210 515 465 222 257 335 540 446 527 
382 11 423 340 96 458 524 376 116 523 318 202 30 
383 11 106 355 398 72 80 493 78 84 112 100 428 
384 11 426 113 77 139 228 109 168 243 138 192 98 
385 11 367 285 351 506 75 306 432 276 183 143 501 
386 11 79 189 226 129 184 362 411 324 399 380 156 
387 11 8 417 165 486 230 514 68 444 524 366 314 
388 11 477 509 218 403 166 328 329 368 339 507 147 
389 11 437 475 534 327 405 186 374 241 473 278 25 
390 11 142 307 50 76 114 137 526 395 359 84 269 
391 11 202 468 523 283 116 30 181 376 318 286 439 
392 11 344 171 434 117 295 541 273 506 341 52 75 
393 11 466 333 404 225 140 478 47 443 83 463 36 
394 11 102 316 193 497 293 510 54 158 442 169 37 
395 11 212 307 539 50 390 269 526 137 142 28 535 
396 11 150 201 412 262 489 462 472 66 91 97 107 
397 11 315 136 482 36 529 135 517 61 267 533 544 
398 11 84 383 355 493 216 76 106 428 80 72 78 
399 11 156 324 528 110 490 411 31 184 189 386 380 
400 11 197 282 309 448 330 141 133 422 268 543 200 
401 11 121 124 238 291 232 66 112 198 17 154 33 
402 11 378 380 122 279 198 270 33 455 238 308 129 
403 11 509 328 435 329 507 368 388 218 421 144 235 
404 11 333 47 443 140 21 463 478 393 119 182 466 
405 11 473 374 437 475 389 186 278 327 534 25 24 
406 11 547 433 338 173 343 134 261 10 48 277 69 
407 11 336 258 119 21 209 180 542 195 418 443 463 
408 11 51 239 209 46 180 527 44 542 195 347 257 
409 11 317 183 432 4 306 353 143 42 452 32 88 
410 11 305 454 480 12 52 214 375 260 296 57 276 
411 11 184 189 324 532 528 490 399 386 156 79 203 
412 11 262 489 396 201 150 66 472 462 124 78 107 
413 11 510 49 322 37 145 169 445 293 102 516 415 
414 11 459 205 95 247 196 41 530 536 499 55 354 
415 11 516 471 445 169 484 236 145 37 322 442 511 
416 11 185 363 345 275 233 334 220 59 159 427 358 
417 11 387 230 486 165 8 514 68 524 444 314 340 
418 11 195 542 301 504 258 500 336 407 182 209 443 
419 11 522 300 439 546 468 86 93 181 391 283 485 
420 11 543 141 422 518 251 282 56 448 197 400 272 
421 11 507 329 127 58 94 111 218 144 425 509 403 
422 11 141 448 543 197 282 400 420 309 133 474 260 
423 11 96 382 340 524 458 376 68 116 318 30 523 
424 11 231 163 34 240 44 40 294 548 521 206 289 
425 11 94 127 90 274 281 287 111 421 491 157 310 
426 11 384 77 113 138 139 192 243 228 438 168 162 
427 11 220 345 446 358 540 275 222 229 59 18 242 
428 11 493 349 266 373 355 78 27 80 216 398 39 
429 11 62 254 364 172 492 326 43 541 22 360 302 
430 11 242 302 159 229 59 275 358 252 185 492 345 
431 11 503 29 223 7 350 241 467 125 534 332 303 
432 11 183 306 409 4 317 351 143 501 188 75 353 
433 11 406 547 173 338 343 261 134 48 10 277 69 
434 11 392 344 171 117 273 341 295 251 260 541 214 
435 11 144 403 253 520 328 509 421 464 368 507 357 
436 11 67 287 157 90 310 265 271 297 259 200 425 
437 11 389 405 374 475 473 534 186 327 241 278 25 
438 11 192 138 357 319 56 253 272 155 426 384 337 
439 11 522 419 546 181 468 300 391 86 93 187 202 
440 11 219 191 346 158 54 193 449 497 316 250 35 
441 11 164 190 126 87 93 485 199 283 86 456 286 
442 11 236 484 169 415 37 298 299 471 322 145 445 
443 11 182 478 404 21 47 333 119 83 336 463 140 
444 11 366 8 178 387 417 217 165 486 230 514 176 
445 11 145 516 322 49 415 37 169 471 511 236 484 
446 11 222 540 427 220 358 18 275 345 229 59 242 
447 11 206 521 240 469 334 163 231 233 321 427 424 
448 11 197 133 309 422 400 474 141 282 57 292 543 
449 11 35 191 16 250 219 440 255 101 158 505 54 
450 11 234 513 369 174 151 123 19 312 9 10 63 
451 11 270 455 346 129 316 378 122 193 380 402 308 
452 11 325 42 32 353 88 317 409 14 284 4 183 
453 11 204 331 199 286 190 126 318 30 87 164 441 
454 11 214 260 57 410 305 480 474 12 354 422 448 
455 11 270 451 122 308 316 378 118 402 129 346 380 
456 11 467 87 485 441 361 332 164 350 280 503 190 
457 11 215 162 77 99 379 139 11 243 103 82 45 
458 11 340 382 85 314 376 116 523 96 202 524 423 
459 11 414 205 247 95 196 536 41 530 499 55 149 
460 11 221 69 277 256 109 194 228 113 48 168 9 
461 11 160 323 104 481 175 58 111 491 281 310 329 
462 11 91 201 396 150 97 412 335 177 262 313 6 
463 11 47 140 21 119 333 404 443 336 393 81 407 
464 11 520 525 512 144 274 435 330 157 90 272 127 
465 11 335 515 97 252 381 462 177 313 91 64 430 
466 11 393 225 333 404 140 47 478 463 443 83 36 
467 11 456 87 503 350 199 441 431 332 164 190 485 
468 11 391 419 439 522 181 86 283 300 93 202 523 
469 11 334 321 233 206 447 240 521 163 187 231 416 
470 11 70 342 519 244 332 125 361 350 264 303 304 
471 11 511 415 516 151 484 236 445 298 299 442 169 
472 11 107 498 483 489 150 412 396 66 124 170 121 
473 11 374 405 437 475 389 186 278 327 534 25 24 
474 11 57 133 448 292 309 354 131 197 422 454 214 
475 11 186 389 327 405 437 278 473 534 374 25 24 
476 11 263 308 279 153 118 122 198 17 13 299 298 
477 11 388 509 218 166 403 328 339 329 147 311 372 
478 11 182 83 443 404 36 393 333 21 47 517 301 
479 11 74 207 545 246 22 188 501 43 360 351 143 
480 11 305 12 57 410 454 354 375 214 260 474 296 
481 11 104 461 323 160 175 491 281 111 310 58 94 
482 11 529 517 533 36 315 148 224 488 115 397 83 
483 11 107 498 170 472 121 17 3 124 63 489 19 
484 11 236 442 415 169 298 299 471 37 516 445 322 
485 11 93 280 86 300 441 164 456 87 190 419 126 
486 11 165 230 417 387 8 514 68 524 340 444 314 
487 11 179 352 365 537 60 284 342 5 32 325 42 
488 11 502 533 529 290 65 224 482 148 135 377 517 
489 11 412 262 66 396 150 201 472 124 498 107 121 
490 11 528 324 532 31 399 53 203 411 110 535 156 
491 11 281 310 175 111 94 425 160 58 127 461 323 
492 11 302 326 62 429 254 172 364 227 430 159 541 
493 11 428 355 78 80 266 398 349 373 383 216 27 
494 11 154 33 496 73 232 110 288 100 31 156 291 
495 11 115 148 224 320 517 500 533 529 89 83 482 
496 11 73 288 494 110 154 31 100 33 232 156 72 
497 11 54 193 158 102 394 316 293 440 346 510 451 
498 11 107 483 472 121 124 170 17 489 66 401 150 
499 11 55 530 536 296 92 26 375 14 12 414 95 
500 11 301 320 504 418 495 115 89 195 542 182 148 
501 11 188 143 183 264 207 351 432 409 306 317 385 
502 11 488 290 65 377 533 224 176 529 370 148 217 
503 11 431 467 29 7 350 223 87 456 199 331 241 
504 11 195 418 500 301 542 548 320 89 44 258 495 
505 11 101 255 250 362 226 79 191 219 189 449 386 
506 11 75 295 276 285 385 367 52 306 351 4 432 
507 11 329 421 218 58 509 403 111 94 127 144 425 
508 11 249 531 82 45 11 23 103 215 457 379 15 
509 11 403 218 329 388 507 328 421 435 477 368 144 
510 11 413 102 293 37 49 322 169 394 145 445 442 
511 11 471 516 151 513 415 445 369 484 145 236 134 
512 11 464 525 274 330 157 259 520 200 90 282 144 
513 11 450 151 369 511 234 471 10 19 312 516 174 
514 11 230 417 486 387 165 8 68 524 314 340 237 
515 11 465 335 97 381 252 64 373 27 210 349 462 
516 11 445 415 145 322 471 511 49 169 37 484 236 
517 11 482 529 148 533 36 115 224 495 83 315 478 
518 11 272 319 56 543 282 420 330 525 141 155 400 
519 11 125 303 470 304 223 70 342 350 332 241 361 
520 11 525 464 144 435 512 272 253 319 438 518 274 
521 11 447 206 240 163 469 334 231 427 233 18 424 
522 11 419 439 546 468 300 86 181 93 391 283 202 
523 11 202 116 376 391 30 318 181 468 283 187 458 
524 11 68 340 96 382 423 230 514 458 486 165 314 
525 11 520 464 512 272 319 518 330 56 144 282 274 
526 11 269 142 114 390 81 307 395 359 20 76 212 
527 11 257 46 347 64 210 39 239 27 266 51 408 
528 11 490 324 399 31 110 532 156 411 184 203 53 
529 11 533 482 517 148 224 488 115 495 36 315 502 
530 11 499 55 296 536 375 95 12 414 92 205 459 
531 11 249 82 45 508 11 103 130 15 356 215 23 
532 11 203 490 411 53 528 167 184 324 189 399 535 
533 11 529 148 224 482 517 488 115 495 502 290 36 
534 11 241 389 437 475 327 186 29 303 223 405 25 
535 11 137 31 50 490 167 53 528 307 28 288 110 
536 11 499 92 55 530 26 414 459 95 296 205 14 
537 11 5 60 352 487 179 365 284 342 26 325 32 
538 11 89 152 370 320 290 294 500 495 224 178 115 
539 11 212 395 269 28 526 307 81 50 390 137 142 
540 11 222 446 427 18 220 358 345 275 210 229 381 
541 11 172 254 171 344 117 62 326 227 429 392 285 
542 11 195 418 504 258 301 209 500 407 336 408 51 
543 11 141 420 422 282 518 400 197 448 330 272 309 
544 11 38 248 267 61 135 136 397 315 211 488 482 
545 11 74 246 479 22 360 43 363 207 546 280 364 
546 11 522 419 439 300 468 86 181 93 363 545 391 
547 11 406 338 433 343 173 134 261 10 48 277 69 
548 11 44 504 152 424 542 195 89 408 418 51 500 
DEPOT_SECTION
   1
   -1
EOF
