NAME :  X-n561-kX-w56-c9.cctp
COMMENT : 	Adapted by Maziero, Usberti and Cavellucci from the Uchoa, Pecin, Pessoa, Poggi, Subramanian, and Vidal (2013)
TYPE :  CCTP
DIMENSION :    320
EDGE_WEIGHT_TYPE : 	EUC_2D	
CAPACITY : 	74
VERTICES_WITHIN_COVERAGE :  9
VERTICES_WITH_DEMAND : 	56
NODE_COORD_SECTION
1 500 500
2 487 949
3 492 770
4 150 556
5 130 719
6 962 393
7 54 890
8 861 705
9 338 631
10 119 741
11 48 296
12 982 827
13 18 954
14 558 698
15 857 337
16 963 72
17 218 46
18 705 484
19 315 3
20 331 358
21 688 156
22 314 338
23 214 428
24 193 866
25 381 924
26 968 10
27 797 382
28 733 544
29 956 878
30 576 270
31 257 778
32 713 605
33 270 940
34 880 401
35 245 168
36 973 29
37 888 919
38 943 703
39 364 248
40 932 60
41 575 18
42 663 990
43 667 351
44 85 708
45 801 330
46 261 91
47 163 953
48 509 249
49 237 336
50 791 356
51 314 168
52 356 726
53 260 412
54 630 144
55 534 255
56 356 444
57 448 320
58 987 333
59 319 476
60 83 716
61 633 162
62 221 4
63 762 604
64 337 41
65 156 318
66 756 357
67 535 235
68 337 441
69 615 132
70 365 498
71 42 268
72 952 2
73 989 303
74 471 821
75 650 215
76 302 881
77 391 405
78 364 170
79 324 620
80 92 914
81 133 607
82 223 949
83 988 415
84 659 250
85 766 532
86 730 338
87 564 296
88 127 966
89 300 985
90 884 92
91 438 673
92 928 894
93 107 816
94 46 288
95 548 0
96 379 725
97 186 490
98 230 722
99 40 891
100 362 568
101 756 658
102 236 62
103 314 56
104 276 466
105 626 156
106 369 506
107 207 461
108 135 983
109 5 209
110 10 57
111 369 482
112 716 147
113 740 993
114 869 824
115 809 987
116 748 391
117 366 917
118 272 875
119 0 9
120 260 359
121 449 208
122 278 711
123 422 445
124 341 448
125 683 498
126 930 690
127 184 567
128 257 360
129 783 645
130 282 884
131 978 688
132 514 349
133 290 171
134 675 414
135 575 26
136 863 973
137 223 412
138 228 93
139 938 995
140 159 343
141 361 937
142 201 120
143 158 852
144 786 630
145 91 909
146 291 333
147 60 763
148 321 837
149 154 302
150 490 215
151 612 394
152 70 159
153 972 987
154 527 340
155 34 241
156 688 334
157 124 413
158 347 330
159 383 907
160 250 31
161 251 90
162 645 252
163 50 740
164 924 309
165 275 198
166 751 389
167 222 168
168 935 8
169 105 551
170 943 769
171 442 730
172 794 873
173 440 930
174 25 735
175 95 780
176 38 560
177 610 303
178 266 273
179 160 961
180 610 199
181 761 276
182 397 721
183 423 983
184 239 847
185 330 653
186 307 662
187 81 59
188 357 955
189 28 874
190 228 758
191 577 160
192 293 429
193 852 781
194 343 789
195 492 948
196 823 661
197 193 141
198 602 498
199 382 42
200 382 334
201 251 476
202 70 672
203 154 539
204 822 847
205 972 28
206 308 612
207 287 625
208 442 982
209 324 736
210 505 739
211 668 124
212 966 56
213 648 984
214 705 165
215 529 232
216 835 623
217 864 278
218 748 966
219 495 888
220 623 131
221 869 433
222 557 697
223 419 952
224 987 50
225 887 426
226 853 362
227 194 527
228 164 411
229 288 411
230 655 956
231 743 460
232 660 568
233 886 352
234 375 573
235 561 673
236 900 17
237 871 351
238 544 696
239 459 776
240 541 257
241 885 418
242 443 205
243 103 373
244 879 347
245 819 389
246 589 695
247 865 351
248 791 305
249 807 679
250 468 732
251 568 205
252 802 286
253 218 449
254 336 666
255 62 678
256 869 431
257 995 86
258 737 314
259 909 106
260 407 905
261 662 941
262 234 442
263 984 38
264 624 9
265 690 580
266 989 17
267 786 720
268 828 401
269 501 973
270 653 134
271 173 471
272 803 366
273 694 521
274 191 588
275 659 188
276 700 411
277 677 609
278 731 580
279 103 585
280 501 937
281 981 71
282 706 155
283 951 14
284 997 36
285 163 492
286 117 572
287 570 35
288 538 21
289 119 667
290 186 678
291 68 669
292 653 116
293 494 839
294 92 755
295 598 137
296 822 278
297 31 373
298 518 956
299 949 54
300 206 365
301 712 137
302 818 383
303 389 951
304 725 970
305 588 715
306 891 415
307 205 708
308 273 424
309 972 618
310 994 28
311 475 786
312 993 34
313 601 7
314 743 509
315 481 877
316 562 686
317 797 386
318 194 570
319 712 142
320 38 680
DEMAND_SECTION
2 9
3 7
4 5
5 5
6 8
7 1
8 2
9 6
10 8
11 2
12 6
13 7
14 8
15 8
16 5
17 3
18 4
19 2
20 8
21 6
22 3
23 3
24 4
25 4
26 8
27 8
28 10
29 1
30 1
31 9
32 9
33 10
34 10
35 5
36 5
37 6
38 4
39 9
40 3
41 8
42 4
43 5
44 9
45 4
46 9
47 1
48 7
49 8
50 4
51 5
52 9
53 3
54 8
55 6
56 6
57 8
COVERAGE_SECTION
2 8 195 280 269 298 173 208 219 223 
3 7 311 210 239 250 74 171 293 
4 9 203 127 286 169 318 274 227 81 279 
5 9 10 44 60 294 289 290 175 202 307 
6 5 83 58 306 241 34 
7 9 99 189 145 80 13 93 88 143 175 
8 8 196 249 126 267 193 38 216 129 
9 8 79 185 254 206 186 207 100 234 
10 9 5 294 60 175 44 147 163 289 93 
11 9 94 71 155 297 243 109 149 65 140 
12 9 29 170 92 114 38 37 193 131 126 
13 9 99 7 189 80 145 88 108 179 47 
14 6 222 316 238 235 246 305 
15 9 247 237 244 226 233 45 217 302 272 
16 9 212 281 299 40 224 257 263 36 205 
17 9 102 160 62 138 161 46 142 103 197 
18 9 125 273 231 314 28 276 134 85 232 
19 9 64 103 160 199 62 102 46 17 161 
20 9 22 158 146 200 229 120 128 77 192 
21 7 282 214 319 112 301 211 270 
22 9 146 20 158 120 128 200 49 229 178 
23 9 137 253 262 107 53 228 271 308 201 
24 9 143 184 118 82 130 47 93 179 33 
25 9 117 159 141 303 260 188 223 173 183 
26 9 283 72 205 36 266 263 310 168 312 
27 8 317 272 302 245 50 268 166 66 
28 9 85 278 314 273 265 32 18 63 125 
29 9 92 12 37 114 153 170 139 136 204 
30 9 87 240 55 177 67 215 251 48 162 
31 9 190 98 122 184 209 148 194 307 118 
32 7 278 265 277 63 28 232 101 
33 9 82 89 130 118 76 188 141 184 117 
34 8 241 306 225 256 221 226 233 237 
35 9 167 165 133 197 142 51 138 161 46 
36 9 205 263 26 266 310 312 224 284 283 
37 9 92 136 29 139 114 204 115 172 153 
38 6 126 131 170 8 309 193 
39 9 78 158 200 242 51 121 178 165 22 
40 9 299 16 212 281 283 36 205 259 168 
41 6 135 287 313 95 288 264 
42 3 213 230 261 
43 9 156 86 134 276 151 177 258 66 116 
44 9 60 255 202 291 5 10 163 294 289 
45 9 248 50 272 252 27 66 15 296 302 
46 9 161 138 102 160 17 103 142 35 197 
47 9 179 88 108 82 80 145 24 143 33 
48 9 55 215 67 240 150 30 87 121 251 
49 9 128 120 300 146 178 22 137 140 53 
50 9 272 27 45 317 66 302 245 248 166 
51 8 133 165 78 35 167 46 39 161 
52 9 96 209 182 254 194 185 122 186 171 
53 9 308 229 137 192 262 23 128 120 104 
54 7 105 220 61 69 270 295 292 
55 9 240 67 215 48 30 87 150 251 154 
56 9 124 68 111 59 77 70 106 192 123 
57 8 200 132 154 48 158 77 55 39 
58 8 73 6 164 83 233 244 237 247 
59 6 124 68 104 56 111 70 
60 9 44 294 163 255 10 202 5 291 147 
61 9 105 54 220 270 69 275 295 180 292 
62 9 160 17 102 138 161 19 46 103 142 
63 9 144 278 129 32 101 28 85 216 265 
64 7 103 19 199 160 46 161 102 
65 9 149 140 300 243 49 228 157 128 11 
66 9 86 166 50 116 258 27 272 317 45 
67 8 215 55 240 48 251 150 30 87 
68 8 124 56 59 192 111 229 70 77 
69 7 220 295 54 105 61 270 292 
70 6 106 111 59 56 124 68 
71 9 94 155 11 109 297 152 149 243 65 
72 9 283 26 168 205 36 266 263 310 299 
73 5 58 164 6 83 233 
74 6 293 311 239 3 315 219 
75 9 275 84 162 180 61 105 21 54 214 
76 9 130 118 148 33 184 117 141 159 25 
77 8 123 56 68 124 200 20 111 158 
78 6 51 133 39 242 121 165 
79 8 9 206 185 207 186 254 100 234 
80 9 145 7 99 88 189 47 108 179 13 
81 7 279 286 4 274 289 169 127 
82 9 33 47 179 89 24 130 118 108 88 
83 3 6 58 306 
84 7 162 75 275 180 177 30 156 
85 7 314 28 278 63 273 231 18 
86 9 258 66 156 166 116 43 50 181 248 
87 9 30 240 177 55 154 67 48 132 215 
88 9 108 179 47 80 145 82 7 13 99 
89 9 33 188 141 82 117 303 25 130 76 
90 2 259 40 
91 7 171 182 250 96 210 52 254 
92 9 29 37 12 114 139 136 153 204 170 
93 9 175 143 294 147 10 7 145 163 189 
94 9 11 71 155 297 109 243 149 65 140 
95 6 288 41 135 287 313 264 
96 9 182 52 209 171 194 254 91 185 250 
97 8 271 285 107 227 253 203 201 23 
98 6 307 190 122 31 290 209 
99 9 7 189 145 80 13 93 88 143 175 
100 4 234 106 79 9 
101 6 129 144 63 249 196 32 
102 9 17 138 161 160 46 62 142 103 197 
103 8 64 19 46 160 199 161 102 138 
104 6 201 192 308 59 262 53 
105 9 61 54 220 69 295 270 180 275 292 
106 5 70 111 59 100 56 
107 8 253 262 23 271 97 201 137 285 
108 9 88 179 47 80 145 82 13 7 24 
109 9 155 71 152 94 11 110 297 187 149 
110 9 119 187 152 109 155 142 197 17 71 
111 7 70 106 56 124 59 68 123 
112 5 319 301 282 214 21 
113 6 304 218 115 42 213 230 
114 7 193 204 172 92 170 37 29 
115 6 136 218 113 304 37 172 
116 8 166 66 317 27 276 50 86 272 
117 9 25 159 141 188 303 260 223 76 173 
118 9 130 76 184 148 33 24 82 31 117 
119 9 110 187 152 109 17 62 142 155 197 
120 9 128 49 146 53 300 22 229 137 308 
121 5 242 150 48 215 67 
122 8 98 209 186 190 31 254 307 185 
123 5 77 111 56 70 106 
124 8 68 56 59 111 192 70 106 229 
125 9 273 18 314 28 231 232 198 265 134 
126 6 38 131 8 170 309 196 
127 5 318 274 4 203 227 
128 9 120 49 146 300 53 229 22 137 308 
129 8 144 101 249 196 63 216 267 32 
130 9 118 76 33 184 148 82 117 24 141 
131 5 38 126 309 170 8 
132 8 154 57 87 55 240 30 48 177 
133 9 51 165 35 167 78 46 161 138 197 
134 9 276 43 151 18 116 166 156 231 125 
135 6 41 287 313 95 288 264 
136 9 115 37 139 92 153 218 172 113 29 
137 9 23 262 53 253 300 308 107 228 128 
138 9 161 102 46 142 17 197 160 167 35 
139 9 153 136 37 92 29 115 12 114 204 
140 8 65 149 300 243 228 49 157 137 
141 9 188 117 25 303 159 260 223 183 89 
142 9 197 138 167 161 35 46 102 17 160 
143 9 24 93 184 145 80 175 47 179 7 
144 9 129 63 101 196 216 249 278 32 267 
145 9 80 7 99 88 189 47 13 108 179 
146 9 22 120 128 20 49 158 178 229 53 
147 9 163 294 175 174 60 44 10 93 5 
148 7 76 194 130 118 184 31 117 
149 9 65 140 300 243 49 11 94 228 157 
150 7 48 121 215 242 67 55 240 
151 7 134 43 276 177 156 154 198 
152 9 109 155 187 71 110 197 94 142 11 
153 9 139 92 37 29 136 12 115 114 204 
154 8 132 87 57 240 30 55 177 48 
155 9 71 109 94 11 152 297 149 65 243 
156 9 43 86 258 66 276 134 116 166 177 
157 6 228 243 271 140 285 23 
158 9 20 22 200 146 39 77 120 128 178 
159 8 25 117 260 141 303 188 223 173 
160 9 102 17 62 161 46 138 103 19 64 
161 9 46 138 102 17 142 160 103 197 35 
162 8 84 75 177 180 275 30 251 61 
163 9 147 174 60 294 44 175 320 255 10 
164 8 233 244 73 58 217 237 247 15 
165 9 133 35 51 167 178 78 197 39 46 
166 8 116 66 317 27 50 86 276 272 
167 9 35 197 142 165 133 138 161 46 51 
168 9 283 72 26 236 205 36 299 40 266 
169 7 286 279 4 203 81 176 127 
170 9 38 12 126 131 114 193 8 29 92 
171 9 250 182 239 91 96 3 210 311 52 
172 4 204 114 218 37 
173 9 223 260 2 208 195 303 183 25 159 
174 9 163 147 320 60 44 255 294 202 291 
175 9 294 93 147 10 163 60 5 44 174 
176 5 169 279 286 81 4 
177 9 30 87 162 84 43 240 156 55 151 
178 9 146 49 165 22 120 128 158 39 133 
179 9 47 88 108 82 80 145 24 143 33 
180 9 251 75 61 105 275 191 54 295 162 
181 6 248 252 258 296 45 86 
182 9 96 52 171 91 250 209 254 239 194 
183 9 208 223 303 173 2 25 188 141 195 
184 9 118 24 130 31 76 143 148 190 33 
185 9 254 9 186 79 206 207 52 122 209 
186 8 185 254 207 9 79 206 122 209 
187 9 110 119 152 142 17 197 62 138 102 
188 9 141 303 25 117 159 223 89 260 183 
189 9 99 7 145 80 13 93 175 147 143 
190 7 31 98 307 122 184 290 209 
191 7 295 251 69 105 180 220 54 
192 7 229 308 53 104 68 124 59 
193 6 114 204 8 267 170 172 
194 7 148 209 52 96 31 182 76 
195 7 2 280 269 298 173 208 219 
196 8 249 216 129 144 8 101 267 63 
197 9 142 167 35 138 161 46 102 17 165 
198 5 125 232 273 18 151 
199 3 64 103 19 
200 9 158 20 57 22 77 39 146 56 68 
201 6 104 262 253 107 308 23 
202 8 291 255 320 44 60 289 163 5 
203 9 4 127 227 285 169 286 318 97 274 
204 5 172 114 193 37 92 
205 9 36 263 26 266 310 312 283 284 224 
206 7 79 207 9 185 186 254 100 
207 6 206 79 186 9 185 254 
208 9 183 223 173 2 195 269 303 280 298 
209 9 52 122 96 194 254 182 186 31 185 
210 8 3 250 311 238 239 171 14 222 
211 3 292 270 21 
212 9 16 299 281 224 263 36 205 40 312 
213 3 42 230 261 
214 5 282 21 112 319 301 
215 8 67 55 48 240 150 251 30 87 
216 7 196 144 129 249 63 8 101 
217 6 296 15 252 164 244 237 
218 6 304 113 115 42 261 230 
219 6 315 280 293 195 2 173 
220 7 69 54 105 295 270 61 292 
221 5 256 225 241 306 34 
222 6 14 316 238 235 246 305 
223 9 173 303 183 208 25 260 159 141 188 
224 9 263 284 312 212 281 310 36 205 16 
225 5 241 306 221 256 34 
226 9 247 237 15 244 233 302 245 268 34 
227 7 97 127 203 318 285 4 271 
228 8 157 23 137 271 300 107 253 140 
229 9 192 308 53 104 68 120 128 262 124 
230 3 261 213 42 
231 6 18 314 276 116 125 166 
232 6 265 277 273 32 278 125 
233 9 244 237 247 15 226 34 164 306 241 
234 4 100 106 9 79 
235 6 316 222 14 238 246 305 
236 7 168 283 40 72 299 26 205 
237 9 247 244 233 15 226 34 302 245 268 
238 7 222 14 316 235 246 305 210 
239 7 311 3 250 74 171 210 293 
240 9 55 67 215 48 30 87 251 150 177 
241 5 306 225 34 256 221 
242 5 121 150 48 78 39 
243 7 157 140 228 297 65 149 11 
244 9 233 237 247 15 226 34 164 306 217 
245 7 302 268 317 27 272 50 226 
246 5 305 316 14 222 235 
247 9 237 244 15 226 233 34 302 245 268 
248 9 252 45 296 181 50 258 272 66 86 
249 8 196 129 267 144 101 8 216 63 
250 9 171 210 3 239 311 91 182 238 74 
251 7 180 67 191 215 240 55 30 
252 7 248 296 181 45 217 50 258 
253 8 107 262 23 137 201 271 97 53 
254 9 185 186 9 79 206 52 207 209 96 
255 8 202 291 320 44 60 289 163 174 
256 5 221 225 241 306 34 
257 9 281 16 224 212 263 284 312 299 310 
258 8 86 181 66 156 248 45 50 252 
259 3 90 40 16 
260 9 159 25 173 117 223 303 141 188 315 
261 3 230 213 42 
262 8 253 23 137 107 201 53 308 104 
263 9 312 224 284 36 310 205 266 212 26 
264 4 313 41 135 287 
265 6 232 277 32 278 28 273 
266 9 310 312 36 205 284 26 263 224 283 
267 5 249 101 196 129 8 
268 4 245 302 317 27 
269 5 298 195 2 280 208 
270 7 211 292 54 220 61 105 69 
271 8 97 285 107 253 23 227 228 262 
272 9 50 27 317 302 245 45 268 66 226 
273 9 125 18 28 314 232 265 278 85 231 
274 5 318 127 4 81 203 
275 9 75 61 21 105 180 214 54 270 282 
276 9 134 116 166 231 43 18 66 156 86 
277 4 265 32 232 278 
278 9 32 28 63 265 85 277 273 232 314 
279 7 286 169 81 4 203 176 127 
280 7 195 2 298 269 219 173 315 
281 9 16 212 257 224 263 299 284 312 36 
282 5 214 112 319 21 301 
283 9 72 26 168 205 36 266 299 263 212 
284 9 312 310 263 224 266 36 205 212 281 
285 8 97 271 227 203 107 4 253 127 
286 8 279 169 4 81 203 127 274 318 
287 5 135 41 288 95 313 
288 6 95 287 41 135 313 264 
289 8 202 291 5 44 255 60 81 290 
290 4 307 98 289 5 
291 8 202 255 320 44 60 289 163 174 
292 4 211 270 220 54 
293 6 74 315 219 311 3 239 
294 9 175 10 147 60 163 44 5 93 174 
295 6 69 220 191 54 105 61 
296 6 252 248 217 45 181 15 
297 5 243 11 94 157 71 
298 4 269 280 195 2 
299 9 212 40 16 36 205 281 224 263 283 
300 9 49 137 128 140 120 228 23 65 53 
301 5 319 112 282 214 21 
302 7 245 27 268 317 272 50 226 
303 9 25 223 141 188 117 159 183 260 173 
304 6 218 113 42 261 230 213 
305 5 246 14 222 316 238 
306 5 241 225 34 256 221 
307 5 98 290 190 122 5 
308 8 53 229 192 104 262 137 201 23 
309 3 131 126 38 
310 9 312 284 266 263 36 205 224 26 212 
311 7 239 3 74 250 210 293 171 
312 9 284 310 263 224 266 36 205 26 212 
313 4 264 41 135 287 
314 7 85 28 18 231 273 125 278 
315 7 219 293 74 280 173 2 195 
316 6 222 14 235 238 246 305 
317 7 27 272 302 245 50 268 166 
318 5 127 274 227 4 203 
319 5 301 112 282 214 21 
320 8 255 291 202 44 174 60 163 289 
DEPOT_SECTION
   1
   -1
EOF
