NAME :  X-n536-kX-w107-c9.cctp
COMMENT : 	Adapted by Maziero, Usberti and Cavellucci from the Uchoa, Pecin, Pessoa, Poggi, Subramanian, and Vidal (2013)
TYPE :  CCTP
DIMENSION :    493
EDGE_WEIGHT_TYPE : 	EUC_2D	
CAPACITY : 	371
VERTICES_WITHIN_COVERAGE :  9
VERTICES_WITH_DEMAND : 	107
NODE_COORD_SECTION
1 500 500
2 957 135
3 149 141
4 1 96
5 228 268
6 781 529
7 867 797
8 109 53
9 9 127
10 258 317
11 89 54
12 167 155
13 739 534
14 962 896
15 975 122
16 960 68
17 205 52
18 841 806
19 739 677
20 90 192
21 842 772
22 972 143
23 27 85
24 953 240
25 185 211
26 652 428
27 764 523
28 159 142
29 101 113
30 879 837
31 885 326
32 953 118
33 777 491
34 65 66
35 976 171
36 961 748
37 710 493
38 778 708
39 277 223
40 88 112
41 172 57
42 2 209
43 121 64
44 938 29
45 166 160
46 142 97
47 84 284
48 269 224
49 940 727
50 876 822
51 131 169
52 951 768
53 278 21
54 292 280
55 672 616
56 94 96
57 212 89
58 270 368
59 852 777
60 170 200
61 848 123
62 951 777
63 756 532
64 101 29
65 136 52
66 831 553
67 953 784
68 170 135
69 861 728
70 172 133
71 826 899
72 832 615
73 142 249
74 900 565
75 735 672
76 837 833
77 723 538
78 931 862
79 214 45
80 938 2
81 918 296
82 931 760
83 994 40
84 302 389
85 115 120
86 138 134
87 764 502
88 962 408
89 888 216
90 209 168
91 100 131
92 900 163
93 15 209
94 219 170
95 782 310
96 922 706
97 279 265
98 750 566
99 276 393
100 133 16
101 372 183
102 761 503
103 116 205
104 33 8
105 203 336
106 240 222
107 95 100
108 261 357
109 12 26
110 288 231
111 861 613
112 245 331
113 815 790
114 257 215
115 949 42
116 83 118
117 529 414
118 462 64
119 146 141
120 799 566
121 618 497
122 742 619
123 954 95
124 133 147
125 179 120
126 938 798
127 92 54
128 188 352
129 866 805
130 660 583
131 74 30
132 119 236
133 120 81
134 69 324
135 719 569
136 788 550
137 120 172
138 14 196
139 179 85
140 171 66
141 107 83
142 861 867
143 108 141
144 617 454
145 28 140
146 91 118
147 880 814
148 670 343
149 940 211
150 708 548
151 695 683
152 71 239
153 804 481
154 181 205
155 783 600
156 987 269
157 851 904
158 193 200
159 156 48
160 169 133
161 824 526
162 52 78
163 636 413
164 158 202
165 661 518
166 503 293
167 575 564
168 227 248
169 90 2
170 122 18
171 786 523
172 960 117
173 958 161
174 752 556
175 24 141
176 116 95
177 371 175
178 184 142
179 937 88
180 875 736
181 22 198
182 882 774
183 639 445
184 810 457
185 127 62
186 5 118
187 95 143
188 876 63
189 773 583
190 238 111
191 192 112
192 174 145
193 778 665
194 22 131
195 196 67
196 261 221
197 782 505
198 220 252
199 173 150
200 816 601
201 806 559
202 14 85
203 278 754
204 110 144
205 779 840
206 726 649
207 24 33
208 789 502
209 891 441
210 139 183
211 866 897
212 853 747
213 863 901
214 155 178
215 969 132
216 299 256
217 158 110
218 159 108
219 125 34
220 22 156
221 573 369
222 6 58
223 917 123
224 240 291
225 986 55
226 818 595
227 253 263
228 943 195
229 131 242
230 30 327
231 778 781
232 981 137
233 121 775
234 954 848
235 797 822
236 954 250
237 225 255
238 174 53
239 956 816
240 214 280
241 805 500
242 50 35
243 185 185
244 65 68
245 207 260
246 156 61
247 49 5
248 71 6
249 927 138
250 140 191
251 814 161
252 850 719
253 176 26
254 991 261
255 929 775
256 153 149
257 185 155
258 230 56
259 170 174
260 239 290
261 781 515
262 99 71
263 148 140
264 791 748
265 924 218
266 803 391
267 82 136
268 876 669
269 310 69
270 66 21
271 736 530
272 701 510
273 875 534
274 687 967
275 63 50
276 759 255
277 230 7
278 874 209
279 695 484
280 849 700
281 251 194
282 739 85
283 851 157
284 794 978
285 242 319
286 821 949
287 244 217
288 961 173
289 110 95
290 189 198
291 978 223
292 47 97
293 959 147
294 156 229
295 169 153
296 936 80
297 772 613
298 205 289
299 226 227
300 951 155
301 881 702
302 191 58
303 126 58
304 722 532
305 921 656
306 168 349
307 85 69
308 810 844
309 113 73
310 863 716
311 862 810
312 250 187
313 25 56
314 203 221
315 969 661
316 719 562
317 884 752
318 241 314
319 764 525
320 132 265
321 573 430
322 276 185
323 247 342
324 888 516
325 295 317
326 228 115
327 815 268
328 351 420
329 893 135
330 863 815
331 28 41
332 711 120
333 94 122
334 873 783
335 964 182
336 303 71
337 801 527
338 743 469
339 263 62
340 691 763
341 981 160
342 226 261
343 231 277
344 0 66
345 48 108
346 162 295
347 680 554
348 199 93
349 848 757
350 92 81
351 203 265
352 98 266
353 148 150
354 988 69
355 741 524
356 961 140
357 132 74
358 828 773
359 785 734
360 48 26
361 700 593
362 142 62
363 198 427
364 781 499
365 980 94
366 828 87
367 26 148
368 981 717
369 884 608
370 797 521
371 875 253
372 502 408
373 5 77
374 164 234
375 63 110
376 117 104
377 900 127
378 219 151
379 319 211
380 837 700
381 109 209
382 696 686
383 868 544
384 293 351
385 167 171
386 357 171
387 183 209
388 99 228
389 897 821
390 209 175
391 219 49
392 188 30
393 261 197
394 242 211
395 958 11
396 824 818
397 156 230
398 109 154
399 194 32
400 920 831
401 995 157
402 760 310
403 180 73
404 98 90
405 946 255
406 953 881
407 162 8
408 883 804
409 232 412
410 109 131
411 883 880
412 813 219
413 242 262
414 232 252
415 352 260
416 813 936
417 362 335
418 64 199
419 890 788
420 901 823
421 942 120
422 662 470
423 300 261
424 967 790
425 965 126
426 102 58
427 794 886
428 788 252
429 116 327
430 763 349
431 1000 129
432 814 388
433 198 136
434 425 178
435 227 226
436 311 229
437 161 159
438 106 161
439 287 271
440 695 660
441 207 138
442 112 6
443 915 537
444 169 94
445 769 555
446 158 72
447 35 268
448 790 842
449 80 321
450 89 287
451 645 573
452 190 296
453 165 193
454 978 234
455 138 28
456 223 78
457 865 815
458 883 795
459 113 268
460 143 232
461 235 221
462 840 666
463 197 130
464 101 121
465 153 12
466 152 191
467 209 267
468 232 124
469 759 490
470 674 703
471 109 317
472 46 93
473 250 203
474 741 662
475 924 148
476 622 606
477 730 561
478 910 118
479 21 113
480 72 281
481 961 782
482 158 80
483 926 766
484 800 624
485 989 133
486 21 106
487 802 534
488 928 976
489 162 281
490 134 76
491 901 235
492 348 278
493 31 94
DEMAND_SECTION
2 22
3 94
4 52
5 51
6 54
7 96
8 96
9 82
10 77
11 82
12 55
13 78
14 77
15 40
16 47
17 89
18 77
19 94
20 78
21 81
22 37
23 66
24 8
25 79
26 24
27 70
28 80
29 100
30 53
31 30
32 10
33 34
34 63
35 29
36 80
37 41
38 80
39 62
40 100
41 66
42 79
43 71
44 29
45 94
46 99
47 59
48 57
49 93
50 52
51 54
52 65
53 64
54 52
55 88
56 56
57 76
58 82
59 65
60 77
61 41
62 94
63 100
64 94
65 97
66 56
67 92
68 79
69 59
70 78
71 99
72 91
73 59
74 64
75 61
76 80
77 99
78 66
79 95
80 28
81 5
82 69
83 9
84 86
85 73
86 58
87 98
88 15
89 19
90 71
91 88
92 26
93 79
94 64
95 32
96 75
97 54
98 97
99 82
100 92
101 51
102 68
103 84
104 56
105 65
106 56
107 63
108 53
COVERAGE_SECTION
2 9 356 215 293 425 22 32 172 300 421 
3 9 263 119 256 353 28 86 124 68 160 
4 9 202 373 186 486 479 23 344 493 9 
5 9 342 343 237 413 414 198 240 467 168 
6 9 171 261 319 27 370 337 136 487 197 
7 9 129 311 334 458 408 330 457 147 59 
8 9 426 43 127 303 11 185 309 262 64 
9 9 186 194 479 175 145 486 367 4 220 
10 9 285 318 112 323 224 260 325 108 343 
11 9 127 426 307 8 262 275 34 350 64 
12 9 295 45 437 199 192 28 256 385 257 
13 9 271 355 77 63 304 174 27 319 477 
14 8 406 78 234 400 239 411 488 420 
15 9 425 215 172 232 485 22 2 32 356 
16 9 296 115 123 354 225 179 365 83 44 
17 9 79 391 302 195 399 258 392 238 456 
18 9 311 396 330 129 457 76 7 59 113 
19 9 75 474 206 193 151 382 440 38 122 
20 7 381 418 103 438 137 388 398 
21 9 59 358 349 212 113 334 18 7 182 
22 9 215 232 356 293 2 425 341 485 15 
23 9 493 202 472 486 292 373 162 4 313 
24 9 236 405 454 291 149 265 254 156 228 
25 9 387 154 158 290 60 314 243 453 164 
26 9 183 163 422 144 279 121 321 37 148 
27 9 319 63 6 261 102 87 171 355 197 
28 9 256 3 263 68 119 160 353 12 192 
29 9 464 146 333 40 107 85 56 91 376 
30 9 50 147 389 420 457 330 311 408 129 
31 9 81 371 327 491 405 432 236 95 266 
32 9 172 421 425 2 215 15 123 356 293 
33 9 364 197 208 87 469 102 261 153 241 
34 9 244 275 162 307 11 127 350 472 242 
35 9 341 288 335 173 401 22 293 300 232 
36 9 52 49 62 82 481 67 368 483 255 
37 9 279 272 304 338 355 271 77 469 13 
38 9 359 264 193 19 75 474 380 280 231 
39 9 48 110 196 114 393 287 473 436 106 
40 9 146 116 333 29 107 464 56 91 404 
41 9 238 140 246 159 403 302 446 195 482 
42 8 93 138 181 220 418 367 447 175 
43 9 185 303 309 357 8 133 490 65 426 
44 9 115 80 395 16 296 225 83 179 354 
45 9 12 437 295 385 199 259 192 256 28 
46 9 218 217 490 482 357 176 376 133 444 
47 9 450 480 352 459 449 471 134 152 320 
48 9 39 196 114 110 287 393 473 106 394 
49 9 96 36 82 483 52 368 255 62 67 
50 9 147 457 30 330 311 408 129 389 420 
51 9 137 210 124 250 353 214 438 398 256 
52 9 62 67 481 36 82 255 483 424 126 
53 7 339 277 336 269 258 391 79 
54 9 439 97 423 216 325 227 110 10 224 
55 9 130 361 440 451 476 206 347 135 122 
56 9 107 404 350 289 40 29 141 146 176 
57 9 348 456 195 191 326 139 190 403 302 
58 9 108 99 384 323 84 112 10 285 325 
59 9 21 349 334 358 7 182 212 18 129 
60 9 453 154 164 387 25 290 466 243 158 
61 9 283 366 329 251 377 478 92 188 223 
62 9 67 52 481 424 255 126 82 483 36 
63 9 319 27 13 355 271 174 6 445 102 
64 9 170 8 219 442 127 131 11 169 426 
65 9 303 362 185 43 159 219 246 357 455 
66 9 201 161 120 487 383 337 136 226 370 
67 9 62 481 424 52 126 255 239 483 82 
68 9 160 70 192 28 199 178 125 295 12 
69 9 310 252 180 212 280 349 301 317 380 
70 9 68 160 192 125 178 28 199 295 12 
71 9 157 427 213 416 211 142 286 308 411 
72 8 200 226 111 484 155 369 462 120 
73 9 229 460 320 294 397 132 374 459 489 
74 7 443 383 273 369 324 111 66 
75 9 19 474 206 151 382 440 193 122 38 
76 9 396 18 308 330 457 311 129 50 235 
77 9 304 271 13 150 355 316 477 135 63 
78 8 234 406 400 14 420 411 239 389 
79 9 391 17 258 399 302 195 392 456 238 
80 9 395 44 115 83 16 225 296 354 179 
81 9 31 405 236 371 491 24 156 265 254 
82 9 483 255 52 62 36 67 49 481 126 
83 9 225 354 16 115 395 365 44 80 123 
84 9 99 58 384 108 328 323 325 409 112 
85 9 410 464 29 376 91 333 143 146 176 
86 9 119 263 3 124 353 256 28 85 410 
87 9 102 469 33 364 197 27 261 319 208 
88 4 209 31 81 324 
89 9 278 491 265 371 149 92 228 24 283 
90 9 390 94 378 257 243 441 433 158 178 
91 9 410 464 333 143 187 146 204 29 85 
92 9 475 329 377 249 223 478 283 300 278 
93 8 42 138 181 418 220 367 447 152 
94 9 90 390 378 441 312 243 257 158 281 
95 9 402 430 327 428 276 266 432 412 31 
96 9 49 301 305 82 180 36 268 310 317 
97 9 439 54 423 216 227 110 413 39 48 
98 9 174 477 445 189 135 316 13 63 77 
99 9 58 84 108 384 409 323 112 10 325 
100 9 170 455 219 465 442 407 64 65 159 
101 9 177 386 434 379 436 415 322 110 492 
102 9 87 469 27 33 364 197 319 261 208 
103 9 381 250 20 388 132 210 137 460 51 
104 9 247 360 207 109 242 331 270 248 131 
105 8 128 306 112 452 285 318 323 298 
106 8 461 287 394 435 299 114 196 473 
107 9 56 404 29 40 289 146 350 141 116 
108 9 58 323 112 384 99 10 285 318 84 
109 9 207 331 104 222 313 360 242 344 247 
110 9 39 48 436 216 196 423 97 114 379 
111 9 369 72 200 226 462 268 74 484 66 
112 9 323 285 318 10 108 224 260 105 58 
113 9 358 396 18 21 235 231 59 349 76 
114 9 196 287 473 48 394 106 393 39 281 
115 9 44 16 395 225 296 80 83 354 179 
116 9 40 146 333 267 464 29 91 107 375 
117 9 372 321 221 144 163 183 121 26 166 
118 7 434 177 101 386 269 336 53 
119 9 263 3 353 86 256 28 124 437 160 
120 8 201 136 189 445 487 66 226 155 
121 7 144 165 422 183 26 279 167 
122 8 297 206 474 155 189 361 75 98 
123 9 179 32 172 296 365 16 421 425 15 
124 9 86 119 353 3 263 256 51 204 398 
125 9 70 191 160 68 463 178 217 218 192 
126 7 67 62 239 255 481 424 52 
127 9 11 426 8 307 262 64 350 309 275 
128 5 306 105 452 323 112 
129 9 311 7 330 457 147 408 50 458 334 
130 8 451 55 347 361 476 150 135 316 
131 9 270 275 248 242 360 64 11 127 169 
132 9 229 388 460 73 381 103 320 459 352 
133 9 309 141 357 176 490 43 289 185 262 
134 7 449 230 471 450 47 480 429 
135 9 316 477 150 77 98 361 174 304 13 
136 9 120 201 445 487 6 337 171 370 319 
137 9 51 438 398 210 124 250 204 103 143 
138 8 181 93 42 220 367 418 175 145 
139 9 403 444 140 348 482 195 446 41 191 
140 9 41 403 238 446 246 482 139 302 159 
141 9 404 289 309 133 262 176 350 56 107 
142 9 411 211 213 30 157 76 50 71 330 
143 9 204 410 91 187 398 438 464 85 333 
144 8 183 121 26 163 422 321 165 279 
145 6 175 367 194 220 9 479 
146 9 333 40 116 464 29 91 107 267 56 
147 9 50 408 457 129 330 311 389 458 7 
148 9 163 26 430 402 221 183 95 144 276 
149 9 228 265 24 335 291 236 288 405 454 
150 9 77 316 304 135 477 347 271 13 272 
151 9 382 440 470 75 19 206 474 55 122 
152 9 388 352 418 480 447 47 132 381 20 
153 8 241 184 208 33 364 197 261 370 
154 9 387 25 290 60 158 243 453 164 314 
155 8 297 189 484 200 226 120 122 98 
156 9 254 454 236 405 24 291 81 149 265 
157 9 213 211 71 142 411 416 286 427 76 
158 9 290 154 387 25 243 60 314 453 390 
159 9 246 41 238 65 362 140 446 455 253 
160 9 68 70 28 192 125 178 199 295 3 
161 7 337 487 370 66 241 171 201 
162 9 244 472 34 292 23 493 275 345 307 
163 9 26 183 144 422 321 221 148 121 279 
164 9 453 60 466 250 154 214 387 210 294 
165 8 272 347 121 279 422 37 150 451 
166 9 221 372 117 434 417 321 415 492 101 
167 7 476 451 121 130 165 347 55 
168 6 414 237 198 342 5 299 
169 9 248 442 64 270 131 170 247 100 219 
170 9 100 219 442 455 64 465 169 8 65 
171 9 6 261 370 337 197 487 208 27 319 
172 9 32 425 15 215 2 421 123 356 22 
173 9 300 288 293 35 356 335 22 341 2 
174 9 98 445 477 63 13 271 319 77 189 
175 7 145 367 194 220 9 479 186 
176 9 289 376 133 141 404 56 107 309 29 
177 9 101 386 434 379 436 415 322 110 39 
178 9 192 257 199 70 433 68 160 463 295 
179 9 296 123 16 421 32 172 223 478 365 
180 9 69 317 310 212 252 349 301 182 280 
181 7 138 93 42 220 418 367 175 
182 8 334 419 458 317 7 59 408 129 
183 9 26 144 163 422 121 279 321 165 37 
184 5 153 241 33 208 364 
185 9 303 43 65 357 362 490 309 8 133 
186 9 9 479 486 194 4 175 145 202 493 
187 9 91 143 204 267 398 410 333 438 464 
188 9 366 296 478 61 179 377 44 223 329 
189 8 155 445 98 297 120 174 136 201 
190 7 326 468 57 456 441 348 378 
191 9 125 463 348 433 70 444 57 139 441 
192 9 199 295 178 68 12 70 160 28 257 
193 9 474 19 38 75 484 297 206 122 462 
194 8 175 145 9 367 479 186 220 486 
195 9 302 17 403 139 140 41 238 348 57 
196 9 114 48 39 287 106 394 473 393 461 
197 9 364 208 261 33 87 171 102 370 6 
198 6 237 168 342 414 245 5 
199 9 192 295 12 45 257 178 68 437 28 
200 8 226 72 484 155 120 201 297 111 
201 8 120 136 487 66 337 445 161 226 
202 9 373 23 4 493 486 344 222 479 313 
203 6 233 363 328 409 167 99 
204 9 143 398 410 187 91 438 124 85 464 
205 9 448 235 308 427 396 76 231 113 18 
206 9 474 75 19 440 122 151 382 193 297 
207 9 331 109 313 360 242 104 222 247 344 
208 9 197 364 261 33 241 171 370 87 153 
209 3 324 88 184 
210 9 250 466 51 214 137 164 453 385 103 
211 9 213 157 411 142 71 30 416 286 76 
212 9 349 69 180 21 252 59 317 310 358 
213 9 211 157 411 142 71 416 286 30 427 
214 9 466 385 259 210 453 250 437 45 164 
215 9 425 22 356 2 15 232 172 293 485 
216 9 423 439 97 54 110 436 39 48 227 
217 9 218 444 46 125 160 70 68 482 86 
218 9 217 444 46 125 160 70 482 68 139 
219 9 455 170 100 65 303 8 64 185 43 
220 5 367 175 145 194 9 
221 9 321 117 163 372 144 26 148 183 166 
222 9 344 313 373 202 331 207 109 23 4 
223 9 478 377 249 421 475 329 32 179 2 
224 9 260 343 318 5 240 285 413 227 10 
225 9 354 83 16 115 365 123 395 44 296 
226 8 200 72 484 120 155 201 66 111 
227 8 413 414 5 97 343 342 237 168 
228 9 149 335 288 265 173 35 300 291 24 
229 9 73 132 460 320 294 397 459 374 388 
230 7 134 449 447 480 47 450 471 
231 9 264 113 235 359 358 205 396 448 21 
232 9 485 22 215 15 425 356 431 341 2 
233 4 203 363 409 99 
234 8 78 239 406 400 14 126 420 424 
235 9 448 205 308 396 113 76 231 18 358 
236 9 405 24 454 291 156 254 149 265 491 
237 7 198 342 168 414 5 413 245 
238 9 41 140 302 159 246 403 446 195 253 
239 8 126 424 67 234 481 62 400 52 
240 9 298 467 343 5 351 245 342 237 260 
241 8 208 153 370 197 364 337 261 33 
242 9 360 275 270 331 131 207 247 104 313 
243 9 290 158 259 154 60 453 385 387 25 
244 9 34 162 275 307 11 127 350 472 262 
245 7 351 467 198 237 342 240 5 
246 9 446 159 362 41 140 482 238 65 357 
247 9 104 360 248 270 242 131 207 169 331 
248 9 270 169 247 131 360 242 64 104 442 
249 9 475 223 421 478 300 377 2 32 293 
250 9 210 466 214 164 51 453 103 137 60 
251 9 283 61 412 366 278 329 92 89 377 
252 9 310 69 280 380 212 180 301 349 317 
253 9 392 399 407 238 465 159 41 302 455 
254 9 156 454 236 291 24 405 149 265 81 
255 7 483 82 62 52 126 67 481 
256 9 353 3 28 263 119 437 12 295 45 
257 9 178 199 192 295 12 45 433 259 385 
258 9 391 79 456 17 339 195 57 302 399 
259 9 385 45 214 437 12 243 453 295 199 
260 9 224 343 318 5 240 413 285 227 342 
261 9 171 197 6 208 364 370 27 319 87 
262 9 350 426 141 307 309 127 404 11 8 
263 9 3 119 256 353 28 86 124 160 68 
264 9 359 231 38 358 113 21 349 212 252 
265 9 149 491 228 24 89 405 236 278 291 
266 6 432 430 184 95 153 402 
267 6 187 116 333 91 146 464 
268 9 301 462 280 305 310 380 252 111 96 
269 4 336 339 53 258 
270 9 131 248 360 242 247 275 169 104 64 
271 9 13 355 304 77 63 319 27 174 477 
272 9 37 279 304 77 150 271 165 355 13 
273 6 383 324 74 443 66 161 
274 7 284 416 427 286 71 205 448 
275 9 34 244 242 131 11 360 127 270 307 
276 9 428 402 327 95 412 430 251 371 278 
277 9 79 391 399 392 258 53 17 253 302 
278 9 89 491 371 265 92 283 412 149 228 
279 9 37 272 422 165 338 304 77 355 271 
280 9 380 252 310 69 301 462 268 180 212 
281 9 312 473 393 394 114 287 322 196 106 
282 9 332 366 251 61 283 188 412 329 377 
283 9 61 251 329 92 278 377 89 478 412 
284 9 286 416 71 427 157 213 211 274 142 
285 9 318 112 10 323 224 260 108 105 343 
286 9 416 284 71 157 213 211 427 142 411 
287 9 106 394 461 114 473 196 435 299 281 
288 9 335 173 35 300 341 293 228 22 356 
289 9 176 376 141 404 56 107 133 29 309 
290 9 158 154 387 25 243 60 453 314 390 
291 9 454 24 236 149 254 335 228 405 156 
292 8 472 345 493 162 375 23 486 479 
293 9 356 300 2 22 173 215 425 232 288 
294 9 397 374 460 73 164 229 60 25 387 
295 9 12 199 45 192 437 28 256 257 68 
296 9 179 123 16 115 421 32 172 365 478 
297 8 155 189 484 122 200 226 98 193 
298 8 240 452 467 351 245 343 5 260 
299 6 435 461 106 168 287 394 
300 9 173 293 356 2 288 22 475 215 249 
301 9 310 280 69 268 180 252 96 380 317 
302 9 195 17 238 41 403 140 79 399 392 
303 9 185 43 65 362 357 8 309 490 133 
304 9 77 271 13 150 355 272 316 477 63 
305 9 268 315 96 301 369 49 111 462 310 
306 4 128 105 346 429 
307 9 262 350 11 127 34 244 426 404 141 
308 9 448 235 76 396 205 427 18 113 142 
309 9 133 43 141 262 185 357 426 8 303 
310 9 69 252 280 180 301 380 212 317 349 
311 9 330 129 457 7 50 147 18 408 458 
312 9 281 393 473 394 322 114 287 94 106 
313 9 331 222 207 344 23 373 202 109 242 
314 7 25 158 387 299 435 154 290 
315 9 305 368 96 49 36 268 301 369 82 
316 9 135 477 150 77 304 98 13 174 271 
317 9 180 182 212 69 334 349 419 59 310 
318 9 285 10 112 224 260 323 343 240 105 
319 9 27 63 6 261 102 171 87 355 13 
320 9 73 459 229 132 352 489 460 346 397 
321 9 117 144 221 163 183 372 26 121 422 
322 9 393 312 281 473 114 39 196 48 394 
323 9 112 108 285 10 318 58 105 384 224 
324 6 273 383 443 74 161 66 
325 9 384 10 54 439 108 112 285 97 318 
326 7 468 190 57 441 463 191 348 
327 9 428 412 95 276 371 402 278 89 31 
328 9 84 99 417 384 58 108 325 409 323 
329 9 377 478 223 92 249 475 61 283 421 
330 9 457 311 129 50 147 7 408 18 30 
331 9 207 313 109 242 360 222 104 275 344 
332 9 282 251 366 61 412 276 283 428 188 
333 9 146 464 29 91 40 116 410 267 85 
334 9 182 7 458 419 59 129 408 311 147 
335 9 288 35 173 228 341 300 293 149 22 
336 4 269 339 53 258 
337 8 370 487 171 6 161 261 136 241 
338 9 469 102 87 33 37 364 279 197 355 
339 5 258 336 456 53 391 
340 7 470 382 151 231 19 359 75 
341 9 35 401 22 173 232 288 293 335 356 
342 8 237 5 198 414 168 413 343 467 
343 9 5 260 224 240 342 413 237 467 414 
344 9 222 373 202 313 4 23 331 207 109 
345 8 292 375 472 493 479 486 162 23 
346 5 489 452 320 298 73 
347 8 150 130 316 451 165 135 361 77 
348 9 57 191 139 195 403 456 444 125 302 
349 9 212 21 59 358 69 180 317 334 182 
350 9 404 262 307 56 141 107 309 289 426 
351 8 245 467 240 198 342 237 298 5 
352 9 459 47 450 480 320 132 152 388 229 
353 9 256 3 119 263 28 124 437 86 12 
354 9 225 365 16 83 123 115 296 179 15 
355 9 271 13 63 304 27 77 319 102 87 
356 9 2 293 22 215 425 300 232 173 15 
357 9 490 185 133 43 362 303 309 65 46 
358 9 21 113 59 349 18 212 264 396 7 
359 9 264 38 231 358 380 113 252 349 21 
360 9 242 270 247 104 207 331 131 275 248 
361 9 135 55 316 130 347 477 150 122 98 
362 9 65 246 185 303 357 490 446 159 43 
363 7 409 128 306 99 105 58 108 
364 9 197 33 208 261 87 102 241 469 171 
365 9 123 354 15 172 16 425 32 225 215 
366 9 61 188 283 251 329 377 478 282 223 
367 5 175 145 220 194 9 
368 9 36 49 315 52 96 82 62 481 67 
369 9 111 74 72 305 268 383 226 200 462 
370 8 337 171 487 261 6 208 197 241 
371 9 491 89 278 265 81 327 405 412 31 
372 9 117 321 221 166 144 163 183 121 26 
373 9 202 344 4 222 23 313 493 486 479 
374 9 294 397 460 73 25 387 164 154 229 
375 7 345 292 116 472 40 146 267 
376 9 176 289 85 29 107 133 141 464 56 
377 9 329 478 223 249 475 92 421 61 32 
378 9 441 94 90 390 433 463 468 257 178 
379 9 436 110 39 216 322 48 423 386 196 
380 9 280 252 310 462 69 301 212 268 180 
381 9 103 388 20 132 250 137 210 229 460 
382 9 151 440 470 75 19 206 474 55 340 
383 6 273 324 66 74 161 443 
384 9 58 108 325 84 99 323 10 112 285 
385 9 259 45 437 214 12 295 199 453 243 
386 9 177 101 379 434 436 322 415 110 39 
387 9 25 154 158 290 60 314 243 453 164 
388 9 381 132 103 152 229 20 352 459 460 
389 6 420 147 50 408 30 400 
390 9 90 94 243 378 158 290 257 441 259 
391 9 79 258 17 195 302 456 399 392 57 
392 9 399 253 238 17 302 79 41 407 391 
393 9 281 473 312 114 322 196 394 287 48 
394 9 287 106 473 461 114 281 196 435 299 
395 9 80 44 115 83 225 16 354 296 179 
396 9 76 18 235 113 308 311 330 457 448 
397 9 294 374 460 73 164 229 60 387 25 
398 9 438 204 143 187 137 410 91 124 51 
399 9 392 253 17 79 302 238 391 41 195 
400 6 420 389 78 126 234 239 
401 9 341 35 232 485 22 431 215 173 293 
402 9 95 430 276 428 327 266 432 148 412 
403 9 140 139 195 41 302 238 446 482 444 
404 9 56 107 141 350 289 176 262 29 309 
405 9 236 24 454 156 265 149 254 291 491 
406 8 14 78 234 400 239 411 420 389 
407 9 465 253 100 455 392 159 399 170 219 
408 8 458 147 7 129 419 50 457 311 
409 9 363 99 58 108 323 84 128 105 112 
410 9 91 143 85 204 464 333 187 29 146 
411 9 211 142 213 157 30 78 50 71 420 
412 9 428 327 251 278 276 371 283 89 491 
413 8 227 414 5 342 237 343 168 198 
414 6 168 237 342 198 413 5 
415 9 492 436 423 216 379 54 439 110 97 
416 9 286 71 284 157 427 213 211 142 411 
417 9 492 325 384 415 84 328 54 423 58 
418 5 20 152 181 388 381 
419 7 458 182 408 334 7 147 129 
420 6 389 400 147 50 30 408 
421 9 32 172 2 249 425 223 123 356 215 
422 9 183 279 26 144 165 121 37 272 163 
423 9 216 439 54 97 110 436 39 227 48 
424 9 481 67 62 52 239 126 255 36 82 
425 9 215 172 15 2 32 356 22 232 293 
426 9 8 127 262 11 309 43 307 303 141 
427 9 71 448 308 205 416 157 235 76 286 
428 9 276 327 412 95 402 371 251 278 430 
429 5 471 449 134 450 47 
430 8 402 95 266 432 148 276 327 428 
431 9 485 232 15 401 22 215 425 341 365 
432 6 266 430 184 95 209 31 
433 9 463 441 178 257 125 191 70 192 378 
434 9 101 177 386 415 379 118 436 492 166 
435 6 299 461 106 287 394 168 
436 9 379 110 216 423 39 48 97 439 196 
437 9 45 12 295 256 385 199 353 28 259 
438 9 398 204 137 143 187 51 124 410 91 
439 9 54 97 423 216 227 110 413 325 436 
440 9 151 382 206 75 474 19 470 55 122 
441 9 433 463 378 178 257 468 90 191 326 
442 9 170 169 100 64 219 455 248 465 131 
443 6 74 324 273 383 369 66 
444 9 139 218 482 217 403 446 46 125 140 
445 9 174 136 98 63 189 6 319 27 120 
446 9 482 246 140 362 41 403 159 490 139 
447 9 480 152 47 450 230 93 352 134 42 
448 9 205 308 235 396 427 76 113 18 231 
449 8 134 471 450 429 47 480 230 352 
450 9 47 480 352 459 449 471 134 320 429 
451 7 130 347 476 55 165 361 150 
452 8 298 346 240 489 351 467 245 105 
453 9 60 164 466 214 154 259 243 385 387 
454 9 291 24 236 254 156 405 149 228 335 
455 9 100 219 170 465 65 159 407 303 362 
456 9 57 258 348 195 391 17 79 190 326 
457 9 330 311 129 50 147 7 408 18 30 
458 8 408 419 7 334 147 129 182 311 
459 9 352 320 450 229 47 132 73 388 480 
460 9 294 397 229 73 374 132 164 320 103 
461 8 106 435 287 299 394 114 473 196 
462 9 380 280 268 72 252 301 310 111 484 
463 9 433 441 178 191 125 70 68 192 160 
464 9 333 29 91 146 410 85 40 116 143 
465 9 407 100 455 253 170 159 219 392 442 
466 9 250 164 214 453 210 60 259 385 51 
467 8 351 245 240 342 5 198 237 298 
468 7 326 190 441 378 433 463 57 
469 9 87 102 33 364 338 197 208 27 261 
470 9 382 151 440 340 75 19 206 474 55 
471 6 429 449 450 47 134 459 
472 8 292 345 493 162 23 375 486 244 
473 9 281 394 393 114 287 312 106 196 461 
474 9 75 19 206 193 122 440 151 382 297 
475 9 249 223 92 300 377 421 478 329 2 
476 7 451 130 55 167 347 361 440 
477 9 316 135 98 174 77 150 13 304 271 
478 9 223 377 329 249 421 475 179 32 92 
479 8 486 186 9 194 493 4 345 145 
480 9 47 450 352 447 449 152 134 459 471 
481 9 67 424 62 52 126 255 36 239 82 
482 9 446 444 140 246 139 46 403 362 490 
483 8 82 255 52 62 67 126 481 36 
484 8 200 155 297 72 226 193 189 120 
485 9 232 431 15 22 215 401 425 341 356 
486 8 479 493 186 4 23 202 9 194 
487 8 337 370 171 136 6 161 201 261 
488 9 14 406 213 211 157 411 286 78 416 
489 5 346 452 320 73 298 
490 9 357 133 185 362 43 303 309 46 65 
491 9 89 265 371 278 149 405 24 236 228 
492 9 415 423 216 54 417 436 439 325 97 
493 9 23 472 292 486 202 479 345 162 4 
DEPOT_SECTION
   1
   -1
EOF
