NAME :  X-n536-kX-w107-c11.cctp
COMMENT : 	Adapted by Maziero, Usberti and Cavellucci from the Uchoa, Pecin, Pessoa, Poggi, Subramanian, and Vidal (2013)
TYPE :  CCTP
DIMENSION :    507
EDGE_WEIGHT_TYPE : 	EUC_2D	
CAPACITY : 	371
VERTICES_WITHIN_COVERAGE :  11
VERTICES_WITH_DEMAND : 	107
NODE_COORD_SECTION
1 500 500
2 957 135
3 149 141
4 1 96
5 228 268
6 781 529
7 867 797
8 109 53
9 9 127
10 258 317
11 89 54
12 167 155
13 739 534
14 962 896
15 975 122
16 960 68
17 205 52
18 841 806
19 739 677
20 90 192
21 842 772
22 972 143
23 27 85
24 953 240
25 185 211
26 652 428
27 764 523
28 159 142
29 101 113
30 879 837
31 885 326
32 953 118
33 777 491
34 65 66
35 976 171
36 961 748
37 710 493
38 778 708
39 277 223
40 88 112
41 172 57
42 2 209
43 121 64
44 938 29
45 166 160
46 142 97
47 84 284
48 269 224
49 940 727
50 876 822
51 131 169
52 951 768
53 278 21
54 292 280
55 672 616
56 94 96
57 212 89
58 270 368
59 852 777
60 170 200
61 848 123
62 951 777
63 756 532
64 101 29
65 136 52
66 831 553
67 953 784
68 170 135
69 861 728
70 172 133
71 826 899
72 832 615
73 142 249
74 900 565
75 735 672
76 837 833
77 723 538
78 931 862
79 214 45
80 938 2
81 918 296
82 931 760
83 994 40
84 302 389
85 115 120
86 138 134
87 764 502
88 962 408
89 888 216
90 209 168
91 100 131
92 900 163
93 15 209
94 219 170
95 782 310
96 922 706
97 279 265
98 750 566
99 276 393
100 133 16
101 372 183
102 761 503
103 116 205
104 33 8
105 203 336
106 240 222
107 95 100
108 261 357
109 633 551
110 12 26
111 288 231
112 861 613
113 245 331
114 815 790
115 257 215
116 949 42
117 83 118
118 529 414
119 462 64
120 146 141
121 799 566
122 618 497
123 742 619
124 954 95
125 133 147
126 179 120
127 938 798
128 92 54
129 188 352
130 866 805
131 660 583
132 74 30
133 119 236
134 120 81
135 69 324
136 719 569
137 788 550
138 120 172
139 14 196
140 179 85
141 171 66
142 107 83
143 861 867
144 108 141
145 838 505
146 617 454
147 28 140
148 91 118
149 880 814
150 670 343
151 940 211
152 708 548
153 695 683
154 71 239
155 804 481
156 181 205
157 237 246
158 783 600
159 987 269
160 851 904
161 193 200
162 156 48
163 169 133
164 824 526
165 52 78
166 636 413
167 158 202
168 661 518
169 503 293
170 575 564
171 227 248
172 90 2
173 122 18
174 786 523
175 960 117
176 958 161
177 752 556
178 24 141
179 116 95
180 371 175
181 184 142
182 937 88
183 875 736
184 22 198
185 882 774
186 639 445
187 810 457
188 127 62
189 5 118
190 95 143
191 876 63
192 773 583
193 238 111
194 192 112
195 174 145
196 778 665
197 22 131
198 196 67
199 261 221
200 782 505
201 220 252
202 173 150
203 816 601
204 806 559
205 14 85
206 256 96
207 278 754
208 110 144
209 779 840
210 726 649
211 24 33
212 789 502
213 891 441
214 139 183
215 866 897
216 853 747
217 863 901
218 155 178
219 969 132
220 299 256
221 158 110
222 159 108
223 125 34
224 22 156
225 573 369
226 6 58
227 917 123
228 240 291
229 986 55
230 818 595
231 253 263
232 943 195
233 131 242
234 30 327
235 778 781
236 981 137
237 121 775
238 954 848
239 797 822
240 954 250
241 225 255
242 174 53
243 956 816
244 214 280
245 805 500
246 256 117
247 50 35
248 185 185
249 65 68
250 207 260
251 156 61
252 49 5
253 71 6
254 927 138
255 140 191
256 814 161
257 850 719
258 176 26
259 991 261
260 929 775
261 153 149
262 185 155
263 230 56
264 170 174
265 239 290
266 781 515
267 99 71
268 148 140
269 791 748
270 924 218
271 803 391
272 82 136
273 876 669
274 310 69
275 66 21
276 736 530
277 701 510
278 875 534
279 687 967
280 63 50
281 759 255
282 230 7
283 874 209
284 695 484
285 849 700
286 251 194
287 739 85
288 851 157
289 794 978
290 242 319
291 821 949
292 244 217
293 961 173
294 110 95
295 189 198
296 978 223
297 47 97
298 959 147
299 156 229
300 53 374
301 169 153
302 936 80
303 772 613
304 205 289
305 226 227
306 951 155
307 881 702
308 191 58
309 126 58
310 722 532
311 921 656
312 168 349
313 85 69
314 810 844
315 113 73
316 863 716
317 862 810
318 250 187
319 25 56
320 203 221
321 969 661
322 719 562
323 884 752
324 241 314
325 764 525
326 132 265
327 144 344
328 573 430
329 276 185
330 247 342
331 888 516
332 295 317
333 228 115
334 815 268
335 351 420
336 67 154
337 893 135
338 863 815
339 159 324
340 28 41
341 711 120
342 94 122
343 873 783
344 964 182
345 303 71
346 801 527
347 743 469
348 263 62
349 691 763
350 981 160
351 226 261
352 231 277
353 0 66
354 48 108
355 162 295
356 680 554
357 199 93
358 848 757
359 92 81
360 203 265
361 98 266
362 67 156
363 148 150
364 988 69
365 741 524
366 961 140
367 132 74
368 828 773
369 785 734
370 69 154
371 48 26
372 700 593
373 142 62
374 198 427
375 781 499
376 980 94
377 828 87
378 26 148
379 981 717
380 884 608
381 797 521
382 875 253
383 502 408
384 295 92
385 5 77
386 164 234
387 63 110
388 117 104
389 900 127
390 219 151
391 319 211
392 837 700
393 109 209
394 696 686
395 868 544
396 293 351
397 167 171
398 357 171
399 183 209
400 99 228
401 897 821
402 209 175
403 219 49
404 188 30
405 261 197
406 242 211
407 958 11
408 824 818
409 156 230
410 109 154
411 194 32
412 920 831
413 995 157
414 760 310
415 180 73
416 98 90
417 946 255
418 953 881
419 162 8
420 883 804
421 232 412
422 109 131
423 883 880
424 813 219
425 242 262
426 232 252
427 352 260
428 813 936
429 362 335
430 64 199
431 890 788
432 901 823
433 942 120
434 662 470
435 300 261
436 967 790
437 965 126
438 102 58
439 794 886
440 788 252
441 116 327
442 763 349
443 1000 129
444 814 388
445 198 136
446 425 178
447 227 226
448 311 229
449 161 159
450 106 161
451 287 271
452 695 660
453 207 138
454 112 6
455 915 537
456 169 94
457 769 555
458 158 72
459 35 268
460 790 842
461 80 321
462 150 503
463 89 287
464 645 573
465 190 296
466 165 193
467 978 234
468 138 28
469 223 78
470 865 815
471 883 795
472 113 268
473 143 232
474 235 221
475 840 666
476 197 130
477 101 121
478 786 589
479 153 12
480 152 191
481 209 267
482 232 124
483 759 490
484 674 703
485 109 317
486 46 93
487 250 203
488 741 662
489 924 148
490 622 606
491 730 561
492 910 118
493 21 113
494 72 281
495 961 782
496 158 80
497 926 766
498 800 624
499 989 133
500 21 106
501 802 534
502 928 976
503 162 281
504 134 76
505 901 235
506 348 278
507 31 94
DEMAND_SECTION
2 22
3 94
4 52
5 51
6 54
7 96
8 96
9 82
10 77
11 82
12 55
13 78
14 77
15 40
16 47
17 89
18 77
19 94
20 78
21 81
22 37
23 66
24 8
25 79
26 24
27 70
28 80
29 100
30 53
31 30
32 10
33 34
34 63
35 29
36 80
37 41
38 80
39 62
40 100
41 66
42 79
43 71
44 29
45 94
46 99
47 59
48 57
49 93
50 52
51 54
52 65
53 64
54 52
55 88
56 56
57 76
58 82
59 65
60 77
61 41
62 94
63 100
64 94
65 97
66 56
67 92
68 79
69 59
70 78
71 99
72 91
73 59
74 64
75 61
76 80
77 99
78 66
79 95
80 28
81 5
82 69
83 9
84 86
85 73
86 58
87 98
88 15
89 19
90 71
91 88
92 26
93 79
94 64
95 32
96 75
97 54
98 97
99 82
100 92
101 51
102 68
103 84
104 56
105 65
106 56
107 63
108 53
COVERAGE_SECTION
2 11 366 219 298 437 22 32 175 306 433 15 236 
3 11 268 120 261 363 28 86 125 68 163 449 12 
4 11 205 385 189 500 493 23 353 507 9 226 197 
5 11 351 352 241 425 426 201 244 481 171 250 157 
6 11 174 266 325 27 381 346 137 501 200 63 212 
7 11 130 317 343 471 420 338 470 149 59 431 50 
8 11 438 43 128 309 11 188 315 267 64 223 65 
9 10 189 197 493 178 147 500 378 4 224 507 
10 11 290 324 113 330 228 265 332 108 352 396 54 
11 11 128 438 313 8 267 280 34 359 64 132 249 
12 11 301 45 449 202 195 28 261 397 262 264 68 
13 11 276 365 77 63 310 177 27 325 491 98 152 
14 10 418 78 238 412 243 423 502 432 215 217 
15 11 437 219 175 236 499 22 2 32 366 443 376 
16 11 302 116 124 364 229 182 376 83 44 175 32 
17 11 79 403 308 198 411 263 404 242 469 41 415 
18 11 317 408 338 130 470 76 7 59 114 21 368 
19 11 75 488 210 196 153 394 452 38 123 484 303 
20 10 393 430 103 450 138 400 410 362 370 336 
21 11 59 368 358 216 114 343 18 7 185 130 317 
22 11 219 236 366 298 2 437 350 499 15 176 306 
23 11 507 205 486 500 297 385 165 4 319 493 354 
24 11 240 417 467 296 151 270 259 159 232 505 344 
25 11 399 156 161 295 60 320 248 466 167 386 299 
26 11 186 166 434 146 284 122 328 37 150 168 277 
27 11 325 63 6 266 102 87 174 365 200 13 276 
28 11 261 3 268 68 120 163 363 12 195 301 70 
29 11 477 148 342 40 107 85 56 91 388 117 294 
30 11 50 149 401 432 470 338 317 420 130 143 412 
31 11 81 382 334 505 417 444 240 95 271 24 89 
32 11 175 433 437 2 219 15 124 366 298 22 254 
33 11 375 200 212 87 483 102 266 155 245 174 27 
34 11 249 280 165 313 11 128 359 486 247 267 297 
35 11 350 293 344 176 413 22 298 306 236 366 219 
36 11 52 49 62 82 495 67 379 497 260 436 127 
37 11 284 277 310 347 365 276 77 483 13 102 434 
38 11 369 269 196 19 75 488 392 285 235 257 475 
39 11 48 111 199 115 405 292 487 448 106 406 329 
40 11 148 117 342 29 107 477 56 91 416 272 387 
41 11 242 141 251 162 415 308 458 198 496 140 373 
42 10 93 139 184 224 430 378 459 178 147 154 
43 11 188 309 315 367 8 134 504 65 438 373 267 
44 11 116 80 407 16 302 229 83 182 364 124 191 
45 11 12 449 301 397 202 264 195 261 28 262 218 
46 11 222 221 504 496 367 179 388 134 456 458 294 
47 11 463 494 361 472 461 485 135 154 326 459 441 
48 11 39 199 115 111 292 405 487 106 406 474 286 
49 11 96 36 82 497 52 379 260 62 67 495 323 
50 11 149 470 30 338 317 420 130 401 432 7 471 
51 11 138 214 125 255 363 218 450 410 261 480 120 
52 11 62 67 495 36 82 260 497 436 127 49 243 
53 10 348 282 345 274 263 403 79 384 206 17 
54 11 451 97 435 220 332 231 111 10 228 425 265 
55 11 131 372 452 464 490 210 356 136 123 153 322 
56 11 107 416 359 294 40 29 142 148 179 388 117 
57 11 357 469 198 194 333 140 193 415 308 17 263 
58 11 108 99 396 330 84 113 10 290 332 421 324 
59 11 21 358 343 368 7 185 216 18 130 317 471 
60 11 466 156 167 399 25 295 480 248 161 264 218 
61 11 288 377 337 256 389 492 92 191 227 254 489 
62 10 67 52 495 436 260 127 82 497 36 243 
63 11 325 27 13 365 276 177 6 457 102 266 87 
64 11 173 8 223 454 128 132 11 172 438 100 275 
65 11 309 373 188 43 162 223 251 367 468 504 8 
66 11 204 164 121 501 395 346 137 230 381 278 145 
67 10 62 495 436 52 127 260 243 497 82 36 
68 11 163 70 195 28 202 181 126 301 12 3 261 
69 11 316 257 183 216 285 358 307 323 392 21 59 
70 11 68 163 195 126 181 28 202 301 12 3 261 
71 11 160 439 217 428 215 143 291 314 423 76 460 
72 11 203 230 112 498 158 380 475 478 121 303 66 
73 11 233 473 326 299 409 133 386 472 503 361 400 
74 9 455 395 278 380 331 112 66 72 164 
75 11 19 488 210 153 394 452 196 123 38 484 303 
76 11 408 18 314 338 470 317 130 50 239 30 143 
77 11 310 276 13 152 365 322 491 136 63 177 277 
78 9 238 418 412 14 432 423 243 401 30 
79 11 403 17 263 411 308 198 404 469 242 282 258 
80 11 407 44 116 83 16 229 302 364 182 191 124 
81 11 31 417 240 382 505 24 159 270 259 89 467 
82 10 497 260 52 62 36 67 49 495 127 436 
83 11 229 364 16 116 407 376 44 80 124 302 182 
84 11 99 58 396 108 335 330 332 421 113 429 10 
85 11 422 477 29 388 91 342 144 148 179 208 294 
86 11 120 268 3 125 363 261 28 85 422 208 144 
87 11 102 483 33 375 200 27 266 325 212 174 63 
88 6 213 31 81 331 455 159 
89 11 283 505 270 382 151 92 232 24 288 417 240 
90 11 402 94 390 262 248 453 445 161 181 295 264 
91 11 422 477 342 144 190 148 208 29 85 272 117 
92 11 489 337 389 254 227 492 288 306 283 89 232 
93 9 42 139 184 430 224 378 459 154 178 
94 11 90 402 390 453 318 248 262 161 286 445 295 
95 11 414 442 334 440 281 271 444 424 31 382 150 
96 11 49 307 311 82 183 36 273 316 323 379 497 
97 11 451 54 435 220 231 111 425 39 48 157 228 
98 11 177 491 457 192 136 322 13 63 77 276 137 
99 11 58 84 108 396 421 330 113 10 332 335 290 
100 11 173 468 223 479 454 419 64 65 162 309 8 
101 11 180 398 446 391 448 427 329 111 506 39 220 
102 11 87 483 27 33 375 200 325 266 212 63 365 
103 11 393 255 20 400 133 214 138 473 51 480 233 
104 11 252 371 211 110 247 340 275 253 132 319 280 
105 10 129 312 113 465 290 324 330 339 304 244 
106 11 474 292 406 447 305 115 199 487 157 48 171 
107 11 56 416 29 40 294 148 359 142 117 179 342 
108 11 58 330 113 396 99 10 290 324 84 332 105 
109 10 464 131 168 356 122 490 170 152 55 277 
110 11 211 340 104 226 319 371 247 353 252 385 275 
111 11 39 48 448 220 199 435 97 115 391 451 405 
112 11 380 72 203 230 475 273 74 498 66 395 311 
113 11 330 290 324 10 108 228 265 105 58 332 396 
114 11 368 408 18 21 239 235 59 358 76 269 317 
115 11 199 292 487 48 406 106 405 39 286 474 318 
116 11 44 16 407 229 302 80 83 364 182 124 376 
117 11 40 148 342 272 477 29 91 107 387 56 190 
118 10 383 328 225 146 166 186 122 26 169 434 
119 9 446 180 101 398 274 345 384 53 348 
120 11 268 3 363 86 261 28 125 449 163 12 68 
121 11 204 137 478 192 457 501 66 230 158 203 346 
122 10 146 168 434 109 186 26 284 170 328 464 
123 11 303 210 488 158 192 372 75 478 98 136 19 
124 11 182 32 175 302 376 16 433 437 15 2 219 
125 11 86 120 363 3 268 261 51 208 410 28 144 
126 11 70 194 163 68 476 181 221 222 195 445 456 
127 8 67 62 243 260 495 436 52 497 
128 11 11 438 8 313 267 64 359 315 280 34 132 
129 9 312 105 339 327 465 330 113 290 355 
130 11 317 7 338 470 149 420 50 471 343 18 431 
131 11 464 55 356 372 109 490 152 136 322 168 491 
132 11 275 280 253 247 371 64 11 128 172 252 34 
133 11 233 400 473 73 393 103 326 472 361 409 299 
134 11 315 142 367 179 504 43 294 188 267 388 309 
135 10 461 234 485 463 47 494 441 300 361 459 
136 11 322 491 152 77 98 372 177 310 13 356 276 
137 11 121 204 457 501 6 346 174 381 325 27 177 
138 11 51 450 410 214 125 255 208 103 144 20 218 
139 9 184 93 42 224 378 430 178 147 197 
140 11 415 456 141 357 496 198 458 41 194 222 308 
141 11 41 415 242 458 251 496 140 308 162 198 456 
142 11 416 294 315 134 267 179 359 56 107 388 43 
143 11 423 215 217 30 160 76 50 71 338 470 149 
144 11 208 422 91 190 410 450 477 85 342 125 272 
145 8 164 245 155 346 381 501 278 66 
146 10 186 122 26 166 434 328 168 284 225 118 
147 8 178 378 197 224 9 493 189 500 
148 11 342 40 117 477 29 91 107 272 56 422 85 
149 11 50 420 470 130 338 317 401 471 7 30 432 
150 11 166 26 442 414 225 186 95 146 281 434 328 
151 11 232 270 24 344 296 240 293 417 467 505 89 
152 11 77 322 310 136 491 356 276 13 277 365 177 
153 11 394 452 484 75 19 210 488 55 123 349 196 
154 11 400 361 430 494 459 47 133 393 20 463 472 
155 9 245 187 212 33 375 200 266 381 145 
156 11 399 25 295 60 161 248 466 167 320 480 264 
157 10 426 171 241 425 201 351 305 447 231 5 
158 11 478 303 192 498 203 230 121 123 98 204 457 
159 11 259 467 240 417 24 296 81 151 270 232 344 
160 11 217 215 71 143 423 428 291 439 76 30 314 
161 11 295 156 399 25 248 60 320 466 402 167 264 
162 11 251 41 242 65 373 141 458 468 258 188 309 
163 11 68 70 28 195 126 181 202 301 3 12 268 
164 10 346 501 145 381 66 245 174 204 212 6 
165 11 249 486 34 297 23 507 280 354 313 387 319 
166 11 26 186 146 434 328 225 150 122 284 118 168 
167 11 466 60 480 255 156 218 399 214 299 25 409 
168 10 277 356 109 122 284 434 37 152 464 310 
169 11 225 383 118 446 429 328 427 506 101 150 180 
170 10 109 490 464 122 131 168 356 55 146 372 
171 9 426 241 201 157 351 5 305 425 447 
172 11 253 454 64 275 132 173 252 100 223 371 11 
173 11 100 223 454 468 64 479 172 8 65 309 419 
174 11 6 266 381 346 200 501 212 27 325 375 137 
175 11 32 437 15 219 2 433 124 366 22 236 298 
176 11 306 293 298 35 366 344 22 350 2 219 236 
177 11 98 457 491 63 13 276 325 77 192 322 365 
178 8 147 378 197 224 9 493 189 500 
179 11 294 388 134 142 416 56 107 315 29 85 46 
180 11 101 398 446 391 448 427 329 111 39 506 220 
181 11 195 262 202 70 445 68 163 476 301 12 126 
182 11 302 124 16 433 32 175 227 492 376 437 116 
183 11 69 323 316 216 257 358 307 185 285 59 343 
184 9 139 93 42 224 430 378 178 147 362 
185 10 343 431 471 323 7 59 420 130 358 183 
186 10 26 146 166 434 122 284 328 168 37 277 
187 7 155 245 33 212 375 145 200 
188 11 309 43 65 367 373 504 315 8 134 438 223 
189 10 9 493 500 197 4 178 147 205 507 378 
190 11 91 144 208 272 410 422 342 450 477 148 117 
191 11 377 302 492 61 182 389 44 227 337 116 16 
192 11 478 158 457 98 303 121 177 137 204 203 230 
193 10 333 482 246 206 57 469 453 357 390 476 
194 11 126 476 357 445 70 456 57 140 453 163 181 
195 11 202 301 181 68 12 70 163 28 262 45 449 
196 11 488 19 38 75 498 303 210 123 475 158 369 
197 9 178 147 9 378 493 189 224 500 354 
198 11 308 17 415 140 141 41 242 357 57 79 403 
199 11 115 48 39 292 106 406 487 405 474 111 286 
200 11 375 212 266 33 87 174 102 381 6 245 27 
201 9 241 171 351 426 250 5 157 481 360 
202 11 195 301 12 45 262 181 68 449 28 70 163 
203 11 230 72 498 478 158 121 204 303 112 192 66 
204 11 121 137 501 66 346 478 457 164 230 6 381 
205 11 385 23 4 507 500 353 226 493 319 486 189 
206 9 246 193 333 348 482 469 384 57 263 
207 9 237 462 374 335 421 170 99 84 490 
208 11 144 410 422 190 91 450 125 85 477 342 272 
209 11 460 239 314 439 408 76 235 114 18 71 368 
210 11 488 75 19 452 123 153 394 196 303 372 55 
211 11 340 110 319 371 247 104 226 252 353 280 275 
212 10 200 375 266 33 245 174 381 87 155 6 
213 6 331 88 145 187 444 278 
214 11 255 480 51 218 138 167 466 397 103 264 449 
215 11 217 160 423 143 71 30 428 291 76 439 78 
216 11 358 69 183 21 257 59 323 316 368 185 343 
217 11 215 160 423 143 71 428 291 30 439 76 78 
218 11 480 397 264 214 466 255 449 45 167 12 51 
219 11 437 22 366 2 15 236 175 298 499 32 306 
220 11 435 451 97 54 111 448 39 48 231 391 199 
221 11 222 456 46 126 163 70 68 496 86 3 28 
222 11 221 456 46 126 163 70 496 68 140 86 194 
223 11 468 173 100 65 309 8 64 188 43 454 373 
224 7 378 178 147 197 9 139 184 
225 11 328 118 166 383 146 26 150 186 169 434 122 
226 11 353 319 385 205 340 211 110 23 4 507 165 
227 11 492 389 254 433 489 337 32 182 2 92 175 
228 11 265 352 324 5 244 290 425 231 10 351 304 
229 11 364 83 16 116 376 124 407 44 302 182 175 
230 11 203 72 478 498 121 158 204 66 112 192 303 
231 11 425 157 426 5 97 352 351 241 171 265 228 
232 11 151 344 293 270 176 35 306 296 24 298 489 
233 11 73 133 473 326 299 409 472 386 400 103 393 
234 10 135 461 300 459 494 47 463 485 441 361 
235 11 269 114 239 369 368 209 408 460 21 18 314 
236 11 499 22 219 15 437 366 443 350 2 298 413 
237 8 207 462 374 421 300 99 335 84 
238 9 78 243 418 412 14 127 432 436 401 
239 11 460 209 314 408 114 76 235 18 368 439 317 
240 11 417 24 467 296 159 259 151 270 505 232 81 
241 9 201 351 171 426 5 157 425 250 481 
242 11 41 141 308 162 251 415 458 198 258 404 411 
243 9 127 436 67 238 495 62 412 52 260 
244 11 304 481 352 5 360 250 351 241 265 228 201 
245 10 212 155 381 200 375 346 266 33 174 164 
246 9 193 206 482 333 384 390 469 57 453 
247 11 371 280 275 340 132 211 252 104 319 34 249 
248 11 295 161 264 156 60 466 397 399 25 402 90 
249 11 34 165 280 313 11 128 359 486 267 297 247 
250 8 360 481 201 241 351 244 5 171 
251 11 458 162 373 41 141 496 242 65 367 415 504 
252 11 104 371 253 275 247 132 211 172 340 110 280 
253 11 275 172 252 132 371 247 64 104 454 280 11 
254 11 489 227 433 492 306 389 2 32 298 337 366 
255 11 214 480 218 167 51 466 103 138 60 264 397 
256 11 288 61 424 377 283 337 92 89 389 440 492 
257 11 316 69 285 392 216 183 307 358 323 21 475 
258 11 404 411 419 242 479 162 41 308 468 17 141 
259 11 159 467 240 296 24 417 151 270 81 232 344 
260 8 497 82 62 52 127 67 495 431 
261 11 363 3 28 268 120 449 12 301 45 125 202 
262 11 181 202 195 301 12 45 445 264 397 449 68 
263 11 403 79 469 17 348 198 57 308 411 206 357 
264 11 397 45 218 449 12 248 466 301 202 262 480 
265 11 228 352 324 5 244 425 290 231 351 10 304 
266 11 174 200 6 212 375 381 27 325 87 102 346 
267 11 359 438 142 313 315 128 416 11 8 43 134 
268 11 3 120 261 363 28 86 125 163 68 449 12 
269 11 369 235 38 368 114 21 358 216 257 392 59 
270 11 151 505 232 24 89 417 240 283 296 344 467 
271 8 444 442 187 95 155 414 347 213 
272 9 190 117 342 91 148 370 336 477 40 
273 11 307 475 285 311 316 392 257 112 96 69 380 
274 9 345 384 348 53 206 246 263 193 469 
275 11 132 253 371 247 252 280 172 104 64 11 128 
276 11 13 365 310 77 63 325 27 177 491 152 322 
277 11 37 284 310 77 152 276 168 365 13 356 322 
278 8 395 331 74 455 145 66 164 204 
279 9 289 428 439 291 71 209 460 314 160 
280 11 34 249 247 132 11 371 128 275 313 165 340 
281 11 440 414 334 95 424 442 256 382 283 150 288 
282 11 79 403 411 404 263 53 17 258 308 348 419 
283 11 89 505 382 270 92 288 424 151 232 337 256 
284 11 37 277 434 168 347 310 77 365 276 483 152 
285 11 392 257 316 69 307 475 273 183 216 358 323 
286 11 318 487 405 406 115 292 329 199 106 474 48 
287 11 341 377 256 61 288 191 424 337 389 281 440 
288 11 61 256 337 92 283 389 89 492 424 227 377 
289 11 291 428 71 439 160 217 215 279 143 423 502 
290 11 324 113 10 330 228 265 108 105 352 244 304 
291 11 428 289 71 160 217 215 439 143 423 314 502 
292 11 106 406 474 115 487 199 447 305 286 48 405 
293 11 344 176 35 306 350 298 232 22 366 2 413 
294 11 179 388 142 416 56 107 134 29 315 359 85 
295 11 161 156 399 25 248 60 466 320 402 167 264 
296 11 467 24 240 151 259 344 232 417 159 35 293 
297 10 486 354 507 165 387 23 500 493 249 205 
298 11 366 306 2 22 176 219 437 236 293 350 35 
299 11 409 386 473 73 167 233 60 25 399 156 466 
300 8 135 234 461 441 485 463 47 494 
301 11 12 202 45 195 449 28 261 262 68 397 181 
302 11 182 124 16 116 433 32 175 376 492 227 44 
303 11 158 478 192 498 123 203 230 98 196 121 210 
304 10 244 465 481 360 250 352 5 265 228 351 
305 9 447 474 106 171 292 157 406 320 201 
306 11 176 298 366 2 293 22 489 219 254 35 344 
307 11 316 285 69 273 183 257 96 392 323 216 475 
308 11 198 17 242 41 415 141 79 411 404 403 140 
309 11 188 43 65 373 367 8 315 504 134 223 438 
310 11 77 276 13 152 365 277 322 491 63 136 177 
311 11 273 321 96 307 380 49 112 475 316 285 379 
312 7 129 327 339 105 355 441 465 
313 11 267 359 11 128 34 249 438 416 142 56 315 
314 11 460 239 76 408 209 439 18 114 143 71 338 
315 11 134 43 142 267 188 367 438 8 309 504 179 
316 11 69 257 285 183 307 392 216 323 358 273 475 
317 11 338 130 470 7 50 149 18 420 471 343 30 
318 11 286 405 487 406 329 115 292 94 106 199 474 
319 11 340 226 211 353 23 385 205 110 247 165 280 
320 8 25 161 399 305 447 156 295 474 
321 11 311 379 96 49 36 273 307 380 82 52 497 
322 11 136 491 152 77 310 98 13 177 276 372 356 
323 11 183 185 216 69 343 358 431 59 316 471 497 
324 11 290 10 113 228 265 330 352 244 105 304 108 
325 11 27 63 6 266 102 174 87 365 13 200 276 
326 11 73 472 233 133 361 503 473 355 409 299 386 
327 7 312 339 441 485 129 355 105 
328 10 118 146 225 166 186 383 26 122 434 168 
329 11 405 318 286 487 115 39 199 48 406 292 111 
330 11 113 108 290 10 324 58 105 396 228 265 332 
331 8 278 395 455 74 145 164 66 213 
332 11 396 10 54 451 108 113 290 97 324 330 435 
333 11 482 193 246 57 453 206 476 194 357 390 445 
334 11 440 424 95 281 382 414 283 89 31 505 442 
335 11 84 99 429 396 58 108 332 421 330 113 10 
336 6 362 370 272 190 117 91 
337 11 389 492 227 92 254 489 61 288 433 306 32 
338 11 470 317 130 50 149 7 420 18 30 471 76 
339 8 327 312 355 129 465 441 503 105 
340 11 211 319 110 247 371 226 104 280 353 252 275 
341 11 287 256 377 61 424 281 288 440 191 334 337 
342 11 148 477 29 91 40 117 422 272 85 190 107 
343 11 185 7 471 431 59 130 420 317 149 21 323 
344 11 293 35 176 232 350 306 298 151 22 413 366 
345 9 274 384 348 206 53 246 263 193 469 
346 10 381 501 174 6 164 266 137 245 212 200 
347 11 483 102 87 33 37 375 284 200 365 212 27 
348 9 263 206 345 469 53 384 403 274 79 
349 9 484 394 153 235 19 369 75 269 38 
350 11 35 413 22 176 236 293 298 344 366 499 219 
351 10 241 5 201 426 171 425 352 481 157 250 
352 11 5 265 228 244 351 425 241 481 426 231 201 
353 11 226 385 205 319 4 23 340 211 110 507 500 
354 9 297 387 486 507 493 500 165 23 197 
355 8 503 465 339 326 304 73 360 327 
356 11 152 131 322 464 168 136 372 77 109 310 277 
357 11 57 194 140 198 415 469 456 126 308 333 476 
358 11 216 21 59 368 69 183 323 343 185 257 7 
359 11 416 267 313 56 142 107 315 294 438 11 128 
360 8 250 481 244 201 351 241 304 5 
361 11 472 47 463 494 326 133 154 400 233 73 485 
362 7 336 370 272 190 450 91 117 
363 11 261 3 120 268 28 125 449 86 12 45 301 
364 11 229 376 16 83 124 116 302 182 15 175 32 
365 11 276 13 63 310 27 77 325 102 87 177 483 
366 11 2 298 22 219 437 306 236 176 15 32 175 
367 11 504 188 134 43 373 309 315 65 46 179 458 
368 11 21 114 59 358 18 216 269 408 7 343 130 
369 11 269 38 235 368 392 114 257 358 21 196 216 
370 7 336 362 272 190 450 91 117 
371 11 247 275 252 104 211 340 132 280 253 110 319 
372 11 136 55 322 131 356 491 152 123 98 464 77 
373 11 65 251 188 309 367 504 458 162 43 496 134 
374 10 421 129 312 99 462 105 58 108 330 327 
375 11 200 33 212 266 87 102 245 483 174 381 27 
376 11 124 364 15 175 16 437 32 229 219 443 499 
377 11 61 191 288 256 337 389 492 287 227 92 302 
378 7 178 147 224 197 9 493 189 
379 11 36 49 321 52 96 82 62 495 67 436 497 
380 11 112 74 72 311 273 395 230 203 475 278 66 
381 10 346 174 501 266 6 212 200 245 164 375 
382 11 505 89 283 270 81 334 417 424 31 151 24 
383 11 118 328 225 169 146 166 186 122 26 335 429 
384 9 345 274 206 348 246 193 333 482 53 
385 11 205 353 4 226 23 319 507 500 493 189 340 
386 10 299 409 473 73 25 399 167 156 233 60 
387 9 354 297 117 486 40 148 272 342 56 
388 11 179 294 85 29 107 134 142 477 56 416 46 
389 11 337 492 227 254 489 92 433 61 32 182 288 
390 11 453 94 90 402 445 476 482 262 181 333 193 
391 11 448 111 39 220 329 48 435 398 199 427 101 
392 11 285 257 316 475 69 307 216 273 183 358 38 
393 11 103 400 20 133 255 138 214 233 473 51 430 
394 11 153 452 484 75 19 210 488 55 349 123 38 
395 8 278 331 66 74 164 455 145 204 
396 11 58 108 332 84 99 330 10 113 290 324 54 
397 11 264 45 449 218 12 301 202 466 248 262 480 
398 10 180 101 391 446 448 329 427 111 39 405 
399 11 25 156 161 295 60 320 248 466 167 386 299 
400 11 393 133 103 154 233 20 361 472 473 430 73 
401 8 432 149 50 420 30 412 471 470 
402 11 90 94 248 390 161 295 262 453 264 156 181 
403 11 79 263 17 198 308 469 411 404 57 282 242 
404 11 411 258 242 17 308 79 41 419 403 162 198 
405 11 286 487 318 115 329 199 406 292 48 39 106 
406 11 292 106 487 474 115 286 199 447 305 405 318 
407 11 80 44 116 83 229 16 364 302 182 124 376 
408 11 76 18 239 114 314 317 338 470 460 130 368 
409 11 299 386 473 73 167 233 60 399 25 156 133 
410 11 450 208 144 190 138 422 91 125 51 272 477 
411 11 404 258 17 79 308 242 403 41 198 419 141 
412 8 432 401 78 127 238 243 30 149 
413 11 350 35 236 499 22 443 219 176 298 293 366 
414 11 95 442 281 440 334 271 444 150 424 31 382 
415 11 141 140 198 41 308 242 458 496 456 251 357 
416 11 56 107 142 359 294 179 267 29 315 40 134 
417 11 240 24 467 159 270 151 259 296 505 81 232 
418 10 14 78 238 412 243 423 432 401 127 30 
419 11 479 258 100 468 404 162 411 173 223 242 41 
420 10 471 149 7 130 431 50 470 317 401 338 
421 11 374 99 58 108 330 84 129 105 113 396 312 
422 11 91 144 85 208 477 342 190 29 148 410 272 
423 11 215 143 217 160 30 78 50 71 432 401 412 
424 11 440 334 256 283 281 382 288 89 505 95 61 
425 11 231 426 5 351 157 241 352 171 201 265 228 
426 9 171 157 241 351 201 425 5 231 352 
427 11 506 448 435 220 391 54 451 111 97 429 101 
428 11 291 71 289 160 439 217 215 143 423 314 460 
429 11 506 332 396 427 84 335 54 435 58 451 220 
430 10 20 154 184 362 336 370 400 393 93 139 
431 9 471 185 420 343 7 149 130 401 317 
432 8 401 412 149 50 30 420 471 431 
433 11 32 175 2 254 437 227 124 366 219 182 298 
434 11 186 284 26 146 168 122 37 277 166 347 109 
435 11 220 451 54 97 111 448 39 231 48 506 427 
436 10 495 67 62 52 243 127 260 36 82 497 
437 11 219 175 15 2 32 366 22 236 298 433 499 
438 11 8 128 267 11 315 43 313 309 142 188 359 
439 11 71 460 314 209 428 160 239 76 291 143 217 
440 11 281 334 424 95 414 382 256 283 442 89 288 
441 9 485 327 461 339 135 463 47 312 355 
442 10 414 95 271 444 150 281 334 440 187 347 
443 11 499 236 15 413 22 219 437 350 376 366 175 
444 8 271 442 187 95 213 31 155 414 
445 11 476 453 181 262 126 194 70 195 390 68 163 
446 11 101 180 398 427 391 119 448 506 169 111 220 
447 9 305 474 106 292 406 157 171 320 426 
448 11 391 111 220 435 39 48 97 451 199 427 54 
449 11 45 12 301 261 397 202 363 28 264 195 218 
450 11 410 208 138 144 190 51 125 422 91 20 272 
451 11 54 97 435 220 231 111 425 332 448 39 48 
452 11 153 394 210 75 488 19 484 55 123 372 196 
453 11 445 476 390 181 262 482 90 194 333 126 94 
454 11 173 172 100 64 223 468 253 479 132 8 275 
455 9 74 331 278 395 380 145 66 164 112 
456 11 140 222 496 221 415 458 46 126 141 194 357 
457 11 177 137 98 63 192 6 325 27 121 174 13 
458 11 496 251 141 373 41 415 162 504 140 242 456 
459 11 494 154 47 463 234 93 361 135 42 461 184 
460 11 209 314 239 408 439 76 114 18 235 71 143 
461 9 135 485 463 441 47 494 234 361 300 
462 7 374 421 312 129 327 300 99 
463 11 47 494 361 472 461 485 135 326 441 154 459 
464 10 131 109 356 490 55 168 372 152 170 136 
465 9 304 355 244 503 360 481 250 105 339 
466 11 60 167 480 218 156 264 248 397 399 255 295 
467 11 296 24 240 259 159 417 151 232 344 270 35 
468 11 100 223 173 479 65 162 419 309 373 454 188 
469 11 57 263 357 198 403 17 79 193 333 206 308 
470 11 338 317 130 50 149 7 420 18 30 471 76 
471 10 420 431 7 343 149 130 185 317 470 50 
472 11 361 326 463 233 47 133 73 400 494 473 485 
473 11 299 409 233 73 386 133 167 326 103 255 393 
474 10 106 447 292 305 406 115 487 157 199 171 
475 11 392 285 273 72 257 307 316 112 498 196 69 
476 11 445 453 181 194 126 70 68 195 163 262 390 
477 11 342 29 91 148 422 85 40 117 144 107 190 
478 11 158 192 121 303 203 230 204 457 498 137 98 
479 11 419 100 468 258 173 162 223 404 454 65 242 
480 11 255 167 218 466 214 60 264 397 51 156 449 
481 10 360 250 244 351 5 201 241 304 352 171 
482 11 333 193 246 453 390 445 476 206 57 194 357 
483 11 87 102 33 375 347 200 212 27 266 325 365 
484 10 394 153 452 349 75 19 210 488 55 38 
485 9 441 461 463 47 135 327 472 339 361 
486 10 297 354 507 165 23 387 500 249 493 34 
487 11 286 406 405 115 292 318 106 199 474 48 329 
488 11 75 19 210 196 123 452 153 394 303 38 498 
489 11 254 227 92 306 389 433 492 337 2 298 176 
490 10 464 131 55 109 170 356 372 452 168 136 
491 11 322 136 98 177 77 152 13 310 276 63 365 
492 11 227 389 337 254 433 489 182 32 92 302 2 
493 10 500 189 9 197 507 4 354 147 178 23 
494 11 47 463 361 459 461 154 135 472 485 400 234 
495 10 67 436 62 52 127 260 36 243 82 497 
496 11 458 456 141 251 140 46 415 373 504 41 367 
497 9 82 260 52 62 67 127 495 36 49 
498 11 203 158 303 72 230 478 196 192 121 123 475 
499 11 236 443 15 22 219 413 437 350 366 2 175 
500 10 493 507 189 4 23 205 9 197 354 297 
501 10 346 381 174 137 6 164 204 266 121 245 
502 11 14 418 217 215 160 423 291 78 428 71 143 
503 8 355 465 326 73 339 304 360 386 
504 11 367 134 188 373 43 309 315 46 65 458 496 
505 11 89 270 382 283 151 417 24 240 232 81 92 
506 11 427 435 220 54 429 448 451 332 97 391 111 
507 10 23 486 297 500 205 493 354 165 4 385 
DEPOT_SECTION
   1
   -1
EOF
