NAME :  X-n513-kX-w204-c11.cctp
COMMENT : 	Adapted by Maziero, Usberti and Cavellucci from the Uchoa, Pecin, Pessoa, Poggi, Subramanian, and Vidal (2013)
TYPE :  CCTP
DIMENSION :    449
EDGE_WEIGHT_TYPE : 	EUC_2D	
CAPACITY : 	142
VERTICES_WITHIN_COVERAGE :  11
VERTICES_WITH_DEMAND : 	204
NODE_COORD_SECTION
1 500 500
2 425 323
3 806 514
4 853 637
5 326 818
6 601 664
7 680 704
8 358 401
9 688 267
10 146 846
11 171 615
12 962 75
13 710 565
14 662 574
15 665 599
16 112 811
17 439 69
18 573 69
19 997 647
20 338 524
21 626 29
22 633 570
23 957 890
24 746 397
25 224 83
26 425 827
27 787 99
28 518 378
29 890 763
30 860 608
31 683 188
32 417 680
33 483 987
34 676 197
35 294 710
36 284 281
37 568 565
38 942 896
39 223 358
40 538 428
41 910 702
42 550 516
43 524 467
44 675 128
45 977 488
46 725 890
47 205 512
48 768 660
49 443 407
50 518 363
51 730 609
52 973 64
53 683 832
54 308 298
55 510 14
56 17 647
57 275 527
58 303 571
59 415 624
60 713 483
61 502 147
62 38 76
63 265 477
64 446 909
65 849 738
66 878 222
67 334 250
68 683 28
69 502 235
70 513 433
71 850 764
72 465 213
73 854 966
74 465 648
75 491 477
76 916 597
77 999 146
78 581 824
79 892 989
80 734 581
81 232 386
82 538 431
83 139 541
84 697 331
85 557 181
86 339 957
87 271 514
88 162 281
89 175 424
90 819 403
91 783 931
92 562 627
93 995 892
94 135 789
95 117 954
96 911 834
97 125 757
98 279 646
99 175 386
100 296 128
101 379 78
102 567 526
103 809 171
104 389 7
105 772 308
106 143 492
107 322 894
108 935 730
109 24 791
110 482 626
111 974 278
112 258 823
113 58 256
114 884 523
115 475 692
116 763 576
117 498 330
118 978 797
119 491 640
120 428 548
121 174 25
122 222 572
123 139 270
124 314 61
125 618 247
126 402 994
127 491 870
128 58 704
129 563 291
130 131 720
131 69 366
132 376 831
133 448 343
134 352 424
135 351 829
136 560 60
137 914 981
138 835 298
139 267 968
140 983 778
141 305 670
142 677 546
143 701 632
144 593 635
145 170 268
146 805 891
147 989 313
148 419 48
149 758 526
150 472 66
151 419 642
152 66 699
153 522 581
154 763 327
155 736 892
156 220 35
157 620 463
158 87 942
159 635 473
160 141 772
161 411 593
162 684 692
163 264 440
164 171 385
165 959 282
166 118 379
167 727 988
168 228 622
169 529 231
170 789 316
171 577 949
172 308 992
173 91 33
174 415 835
175 323 299
176 987 269
177 818 672
178 550 782
179 929 654
180 917 999
181 584 19
182 73 17
183 305 771
184 327 985
185 468 340
186 692 921
187 822 44
188 529 801
189 252 789
190 441 883
191 799 15
192 409 285
193 921 912
194 185 815
195 11 860
196 934 42
197 162 143
198 116 639
199 185 898
200 644 943
201 869 312
202 254 796
203 501 86
204 163 620
205 633 133
206 948 742
207 92 529
208 691 976
209 252 718
210 371 447
211 545 965
212 504 676
213 227 60
214 30 899
215 398 274
216 460 653
217 262 554
218 258 600
219 646 981
220 491 605
221 764 475
222 715 67
223 234 746
224 111 495
225 342 496
226 888 336
227 560 874
228 911 52
229 309 177
230 596 454
231 977 808
232 56 272
233 181 471
234 484 988
235 289 633
236 796 913
237 178 219
238 524 516
239 255 573
240 954 1
241 722 654
242 518 137
243 433 330
244 939 901
245 595 961
246 951 404
247 715 956
248 156 471
249 713 616
250 460 949
251 406 772
252 156 745
253 189 916
254 498 652
255 924 598
256 160 733
257 609 662
258 44 591
259 189 622
260 758 634
261 484 682
262 488 618
263 739 645
264 502 601
265 106 709
266 631 577
267 266 653
268 782 596
269 328 752
270 216 764
271 228 334
272 432 519
273 17 636
274 284 656
275 515 661
276 131 872
277 58 388
278 610 626
279 297 531
280 728 700
281 118 496
282 753 510
283 591 648
284 263 861
285 116 727
286 164 684
287 121 722
288 311 625
289 110 712
290 179 790
291 700 602
292 92 664
293 687 608
294 576 520
295 619 668
296 2 770
297 689 614
298 273 795
299 670 622
300 37 884
301 439 752
302 310 576
303 242 839
304 565 629
305 961 754
306 548 608
307 387 643
308 735 499
309 506 675
310 127 530
311 306 597
312 267 712
313 719 490
314 218 615
315 297 575
316 154 759
317 186 516
318 610 659
319 421 630
320 572 520
321 57 672
322 88 728
323 573 664
324 112 761
325 589 737
326 732 501
327 118 871
328 168 777
329 764 912
330 330 606
331 383 717
332 242 665
333 330 661
334 270 682
335 131 744
336 235 557
337 154 673
338 410 622
339 34 593
340 789 712
341 601 803
342 557 731
343 46 784
344 109 480
345 333 755
346 411 768
347 175 561
348 606 451
349 188 796
350 453 855
351 600 675
352 313 597
353 802 569
354 455 570
355 676 642
356 617 795
357 238 748
358 519 690
359 579 361
360 614 547
361 270 627
362 695 617
363 136 446
364 179 769
365 118 449
366 650 520
367 154 412
368 185 776
369 365 805
370 308 730
371 640 776
372 169 720
373 643 616
374 582 522
375 678 545
376 565 565
377 411 449
378 774 557
379 467 625
380 240 552
381 513 635
382 476 556
383 92 562
384 699 606
385 723 565
386 676 382
387 104 337
388 181 846
389 332 761
390 123 806
391 622 737
392 886 668
393 130 804
394 429 696
395 337 809
396 145 717
397 161 642
398 76 787
399 302 650
400 458 725
401 233 529
402 574 742
403 659 593
404 777 565
405 170 895
406 149 566
407 279 673
408 269 700
409 427 710
410 428 661
411 94 483
412 674 700
413 18 398
414 665 706
415 522 638
416 228 762
417 231 527
418 146 811
419 161 286
420 662 668
421 748 588
422 171 610
423 321 708
424 614 614
425 502 561
426 266 647
427 130 680
428 687 567
429 523 688
430 102 614
431 730 598
432 303 683
433 484 712
434 101 747
435 31 623
436 80 401
437 642 718
438 780 648
439 149 448
440 37 580
441 212 489
442 119 675
443 777 609
444 527 562
445 649 760
446 94 663
447 85 721
448 437 708
449 46 689
DEMAND_SECTION
2 8
3 2
4 10
5 7
6 10
7 7
8 7
9 2
10 9
11 9
12 1
13 3
14 9
15 4
16 10
17 3
18 4
19 2
20 8
21 2
22 9
23 2
24 8
25 8
26 5
27 8
28 4
29 5
30 9
31 8
32 5
33 2
34 10
35 1
36 3
37 9
38 3
39 8
40 4
41 2
42 6
43 8
44 9
45 4
46 1
47 6
48 2
49 1
50 10
51 3
52 4
53 2
54 7
55 3
56 6
57 1
58 5
59 4
60 1
61 7
62 4
63 9
64 7
65 5
66 4
67 6
68 10
69 1
70 6
71 1
72 8
73 3
74 5
75 5
76 6
77 1
78 9
79 1
80 2
81 5
82 10
83 7
84 6
85 5
86 10
87 4
88 6
89 10
90 3
91 10
92 4
93 10
94 3
95 8
96 9
97 3
98 2
99 8
100 7
101 7
102 8
103 2
104 9
105 4
106 9
107 1
108 6
109 8
110 1
111 8
112 2
113 5
114 6
115 4
116 10
117 4
118 4
119 2
120 9
121 2
122 2
123 5
124 9
125 1
126 5
127 2
128 9
129 7
130 8
131 10
132 8
133 3
134 5
135 8
136 9
137 3
138 9
139 9
140 7
141 9
142 5
143 3
144 1
145 9
146 1
147 6
148 2
149 5
150 8
151 3
152 5
153 7
154 5
155 2
156 1
157 2
158 7
159 7
160 9
161 4
162 5
163 3
164 9
165 2
166 6
167 5
168 7
169 9
170 10
171 9
172 2
173 7
174 8
175 2
176 9
177 7
178 8
179 5
180 6
181 10
182 10
183 3
184 5
185 4
186 4
187 3
188 6
189 8
190 8
191 9
192 9
193 4
194 5
195 9
196 5
197 7
198 8
199 10
200 3
201 2
202 3
203 3
204 8
205 6
COVERAGE_SECTION
2 11 243 133 192 185 215 117 49 50 8 175 28 
3 11 149 282 378 353 221 404 308 116 326 114 268 
4 11 30 392 177 438 76 179 255 443 268 353 41 
5 11 395 135 369 183 132 389 298 345 269 112 202 
6 9 257 318 351 295 283 323 144 278 304 
7 9 412 162 414 420 437 280 355 445 241 
8 11 134 210 377 49 225 163 2 243 133 175 54 
9 11 84 34 125 31 105 154 170 386 129 44 24 
10 11 276 388 418 327 393 390 16 194 405 94 199 
11 11 422 204 259 397 314 347 406 168 198 337 122 
12 11 52 196 228 240 77 187 66 191 27 103 176 
13 11 385 428 80 142 291 375 431 384 421 51 14 
14 11 403 15 428 22 266 142 375 293 373 291 297 
15 9 403 293 299 14 297 373 291 362 384 
16 11 390 393 94 418 398 10 160 324 97 327 276 
17 11 148 150 101 203 104 55 61 242 136 124 18 
18 11 136 181 21 203 55 242 205 150 61 85 68 
19 11 179 255 76 41 108 206 305 392 140 30 4 
20 10 225 279 58 302 57 315 87 352 311 217 
21 11 181 68 18 136 222 205 44 55 203 242 150 
22 11 266 14 360 403 15 373 424 142 375 366 428 
23 11 38 244 93 193 96 231 118 137 140 180 79 
24 11 154 386 90 221 84 60 170 105 313 308 326 
25 11 213 156 121 100 197 124 229 173 237 101 182 
26 11 174 350 132 190 251 346 369 135 301 127 64 
27 11 187 103 222 191 44 68 228 31 34 66 196 
28 11 50 117 40 70 82 185 359 133 49 43 129 
29 11 71 65 108 206 41 305 96 118 140 392 231 
30 11 4 76 255 392 353 177 268 179 443 114 438 
31 11 34 44 205 9 125 222 85 103 27 84 105 
32 8 394 410 409 448 151 307 319 331 
33 11 234 250 211 126 64 171 190 245 127 350 227 
34 11 31 44 9 125 205 85 84 103 222 105 129 
35 10 370 312 408 423 432 334 407 141 209 269 
36 11 54 175 67 271 39 229 215 145 81 88 237 
37 11 376 102 444 320 374 294 306 153 360 42 92 
38 11 244 23 193 93 96 137 231 118 79 180 73 
39 11 271 81 99 164 89 367 163 419 36 88 54 
40 11 82 70 43 28 230 50 75 348 359 42 157 
41 11 108 392 179 206 29 65 305 4 71 177 19 
42 11 102 320 238 294 374 376 444 37 43 425 75 
43 11 75 70 82 40 238 42 320 102 230 294 374 
44 11 205 31 34 222 68 21 27 18 85 125 136 
45 11 246 114 255 76 19 30 3 179 147 226 90 
46 11 155 186 329 247 91 53 236 146 208 200 167 
47 11 317 441 417 401 233 380 336 347 122 248 106 
48 11 438 260 263 241 177 443 340 280 51 268 249 
49 11 377 133 185 70 243 28 210 8 75 2 50 
50 11 28 117 185 359 40 70 82 133 129 49 243 
51 11 431 249 80 421 291 384 362 143 263 260 297 
52 11 12 196 228 240 77 187 191 66 27 103 176 
53 11 371 46 356 155 445 341 186 78 391 329 200 
54 11 175 36 67 271 215 192 39 8 81 2 229 
55 11 150 136 203 181 18 17 148 21 104 242 61 
56 11 273 435 321 449 339 258 128 440 152 292 446 
57 11 87 279 217 401 380 417 239 336 63 58 315 
58 10 315 302 311 352 279 217 330 239 57 218 
59 9 338 319 151 161 307 410 379 216 74 
60 11 313 326 308 282 221 149 375 142 366 159 13 
61 11 242 203 85 72 150 69 169 17 18 136 148 
62 11 173 182 197 121 113 25 156 213 232 237 123 
63 11 87 163 57 441 417 401 279 47 217 225 380 
64 11 190 250 350 127 174 26 33 234 126 132 211 
65 11 71 29 340 41 177 392 108 206 4 48 305 
66 11 103 138 201 165 111 226 176 170 105 77 147 
67 11 175 54 36 215 229 192 2 243 100 271 72 
68 11 222 21 181 44 205 18 191 27 136 187 31 
69 11 169 72 85 129 61 117 242 192 185 215 2 
70 11 40 82 43 75 28 50 49 238 230 42 348 
71 11 65 29 340 41 108 96 177 206 392 305 4 
72 11 69 169 61 192 215 242 85 2 243 117 129 
73 11 79 137 180 91 236 193 146 329 244 38 23 
74 11 216 379 119 110 254 262 261 410 115 151 212 
75 11 43 70 238 82 40 42 272 382 49 377 425 
76 11 255 30 179 4 392 114 19 41 353 177 45 
77 11 12 52 196 176 228 111 165 66 240 147 103 
78 11 341 356 178 227 188 371 402 325 445 342 391 
79 11 137 180 73 193 244 38 23 236 91 146 93 
80 11 421 431 385 51 13 116 291 249 384 404 378 
81 11 39 271 99 164 163 89 367 63 233 439 441 
82 11 40 70 43 28 230 75 50 348 359 42 238 
83 10 310 406 347 106 207 281 383 317 224 344 
84 11 386 9 154 105 24 170 125 359 34 129 90 
85 11 169 242 61 69 125 205 72 129 203 18 34 
86 11 184 172 107 126 139 64 250 284 190 135 132 
87 11 57 279 63 217 401 417 380 336 239 441 58 
88 11 419 145 123 237 387 271 39 164 99 232 113 
89 11 367 439 99 164 363 233 248 365 81 166 106 
90 11 24 221 170 154 226 201 105 138 3 282 308 
91 11 236 329 146 155 46 247 73 167 186 208 79 
92 11 304 306 144 283 323 415 278 381 6 424 275 
93 11 23 38 244 193 231 118 96 140 137 180 79 
94 11 393 160 390 418 16 97 328 316 324 290 335 
95 11 158 405 253 276 327 199 214 300 10 388 195 
96 11 38 231 23 244 29 118 193 140 71 305 206 
97 11 324 335 160 434 316 285 252 94 287 130 256 
98 11 274 426 267 235 361 399 407 141 334 288 332 
99 11 164 367 89 39 81 166 439 363 271 233 365 
100 11 229 124 25 101 213 156 67 197 148 237 36 
101 11 148 17 124 104 150 100 229 203 61 55 242 
102 11 320 294 374 42 37 376 238 360 444 153 43 
103 11 27 66 31 187 138 34 222 44 105 170 201 
104 11 148 101 17 124 150 55 203 100 213 156 136 
105 11 170 154 138 84 9 24 201 90 226 386 66 
106 11 248 281 224 344 310 233 439 363 83 317 365 
107 11 86 284 135 5 132 395 184 139 112 303 172 
108 11 206 305 41 29 140 179 392 118 65 231 71 
109 11 343 296 398 195 434 16 322 128 324 447 300 
110 11 262 379 119 220 74 254 264 381 216 415 275 
111 11 165 176 147 226 201 66 246 77 138 170 103 
112 11 303 202 298 189 284 5 416 183 270 194 349 
113 11 232 123 387 88 419 131 145 237 277 166 436 
114 11 3 76 255 30 353 45 378 404 4 268 149 
115 11 261 433 212 309 400 448 216 358 74 254 394 
116 11 404 421 378 268 80 443 353 431 385 51 149 
117 11 185 50 28 133 243 2 129 359 49 69 192 
118 11 231 140 305 206 96 108 29 23 93 38 244 
119 11 254 110 262 381 74 379 415 275 216 220 212 
120 11 272 354 161 382 425 338 59 319 220 379 264 
121 11 156 213 25 173 182 197 62 124 100 237 229 
122 11 336 380 239 314 217 401 218 417 347 168 259 
123 11 88 419 145 237 387 113 232 271 166 131 164 
124 11 101 100 213 104 25 156 148 229 17 121 150 
125 11 129 9 34 31 85 169 84 205 69 359 44 
126 11 86 250 184 33 234 172 64 190 107 139 211 
127 11 350 190 64 227 26 188 174 250 78 178 211 
128 11 152 449 321 447 322 265 292 289 446 434 285 
129 11 169 125 359 117 69 50 28 185 85 72 133 
130 11 287 396 285 289 335 265 256 252 97 372 427 
131 7 277 436 387 166 413 232 365 
132 10 135 369 174 395 26 5 251 346 350 107 
133 11 185 243 2 117 49 192 50 28 215 8 70 
134 11 8 210 377 225 163 49 20 63 279 87 243 
135 11 395 132 5 369 174 107 389 26 183 345 251 
136 11 18 181 203 55 21 150 242 205 61 17 85 
137 11 180 79 73 193 244 38 23 93 236 91 146 
138 11 201 170 105 226 154 66 90 165 103 24 111 
139 11 172 184 86 107 253 284 199 405 303 126 112 
140 11 118 231 305 206 108 96 29 41 23 93 38 
141 9 432 399 274 407 333 98 334 235 35 
142 11 375 428 14 366 13 22 385 403 15 266 291 
143 10 362 249 297 384 355 293 241 291 299 51 
144 11 283 278 304 318 6 424 257 92 323 351 295 
145 11 88 419 123 237 271 387 39 113 232 36 164 
146 11 236 91 329 155 46 73 247 186 193 96 167 
147 11 111 165 176 246 226 201 66 138 77 45 90 
148 11 17 101 104 150 203 55 124 61 242 136 100 
149 11 282 308 378 326 404 3 116 221 385 313 80 
150 11 17 203 148 55 242 61 136 101 18 104 181 
151 9 319 59 410 338 307 32 216 74 161 
152 11 128 449 321 447 322 265 292 289 446 285 442 
153 11 444 264 425 306 220 376 37 262 382 381 415 
154 11 105 170 84 24 138 90 9 386 201 226 221 
155 11 46 329 186 91 236 247 146 53 208 167 200 
156 11 213 121 25 124 100 197 173 182 101 229 104 
157 11 159 348 230 366 374 294 320 102 360 42 82 
158 11 95 214 300 327 276 405 253 199 195 10 16 
159 11 157 348 230 366 374 294 360 60 320 142 375 
160 11 94 316 97 328 335 252 324 393 364 390 418 
161 8 338 59 319 120 151 354 307 379 
162 9 7 412 414 420 280 437 355 241 143 
163 11 63 81 441 87 57 134 233 89 39 47 417 
164 11 99 367 89 166 39 81 439 363 271 387 365 
165 11 111 176 147 226 201 66 246 138 77 170 90 
166 10 387 436 367 131 164 99 277 363 365 89 
167 11 247 208 186 91 219 329 200 155 46 236 146 
168 11 314 218 259 361 332 426 267 122 98 239 11 
169 11 69 85 72 129 61 125 242 117 185 50 192 
170 11 105 154 138 201 24 90 84 226 9 66 386 
171 11 245 211 200 219 227 33 234 127 208 250 186 
172 11 184 86 139 126 107 284 253 199 250 64 303 
173 11 182 62 121 156 197 213 25 237 113 124 100 
174 11 26 132 350 190 369 135 251 346 64 395 127 
175 11 54 36 67 215 192 271 2 8 243 39 229 
176 11 111 165 147 66 226 77 201 246 138 12 103 
177 11 438 4 340 48 392 260 65 443 30 263 268 
178 11 188 402 342 78 341 325 356 391 371 227 433 
179 11 392 41 255 76 19 108 4 30 206 305 177 
180 11 137 79 73 193 244 38 23 93 236 91 146 
181 11 21 136 18 55 68 203 150 205 242 222 44 
182 11 173 62 121 156 197 213 25 237 113 124 100 
183 11 389 269 345 298 370 395 5 189 202 35 423 
184 11 172 86 139 126 107 250 284 64 190 253 33 
185 11 133 117 243 2 50 28 49 192 215 70 129 
186 11 247 46 155 200 208 329 167 219 53 91 236 
187 11 191 27 228 222 196 103 240 68 12 52 44 
188 11 178 78 341 402 342 127 227 325 356 350 433 
189 9 202 298 112 416 357 270 223 303 183 
190 11 64 350 127 174 26 250 132 135 369 33 234 
191 11 187 27 222 68 228 196 103 240 44 12 21 
192 11 215 2 243 133 185 67 175 72 117 54 69 
193 11 244 38 23 137 93 96 79 73 180 146 231 
194 11 349 290 388 368 418 328 364 10 94 393 270 
195 11 300 214 109 343 296 398 327 16 158 276 390 
196 11 228 12 52 240 187 77 191 27 103 66 222 
197 11 237 25 213 121 156 145 123 173 100 88 62 
198 11 430 446 292 442 427 397 204 337 11 422 286 
199 11 405 253 388 276 10 327 303 194 284 95 418 
200 11 219 245 186 208 171 247 167 46 211 155 227 
201 11 226 138 170 66 165 105 90 154 111 147 246 
202 10 189 298 112 416 303 270 357 223 183 284 
203 11 150 242 61 17 136 55 18 148 181 85 101 
204 11 11 422 397 259 198 337 314 406 347 430 286 
205 11 44 31 34 18 85 136 21 222 125 242 68 
206 11 108 305 140 41 29 118 231 179 392 65 96 
207 7 383 310 224 281 411 83 344 
208 11 247 167 219 186 200 46 155 245 329 91 171 
209 6 312 408 223 357 334 35 
210 11 134 377 8 225 49 20 272 163 63 279 120 
211 11 171 245 234 33 250 227 200 219 127 64 190 
212 11 309 275 261 358 429 254 115 119 433 381 415 
213 11 25 156 121 124 100 197 173 229 101 182 237 
214 11 300 195 158 327 95 276 109 343 16 398 10 
215 11 192 2 243 67 175 133 72 54 185 69 36 
216 11 74 379 410 119 110 254 261 115 151 262 319 
217 11 239 380 336 57 401 87 315 417 279 58 122 
218 11 239 361 168 314 235 122 217 315 311 426 336 
219 11 200 208 245 247 171 186 167 211 46 155 227 
220 11 264 262 110 379 119 381 153 415 425 254 74 
221 11 282 308 326 313 149 60 3 24 378 90 404 
222 11 68 44 27 21 191 205 187 31 34 103 181 
223 6 357 416 270 209 189 312 
224 8 281 344 411 106 310 207 365 248 
225 11 20 210 279 87 134 57 63 377 58 302 315 
226 11 201 138 165 246 90 170 111 147 66 105 176 
227 11 78 127 171 188 341 211 178 245 356 200 350 
228 11 196 12 52 240 187 191 77 27 103 66 222 
229 11 100 67 36 124 54 101 175 25 215 237 213 
230 11 348 157 159 82 40 294 374 320 43 42 102 
231 11 118 140 305 96 206 23 93 108 38 29 244 
232 11 113 387 123 131 88 419 145 277 166 436 413 
233 11 248 441 439 106 317 89 47 363 367 365 281 
234 11 33 250 211 126 64 171 190 245 127 227 350 
235 11 98 361 399 288 274 426 267 141 311 407 352 
236 11 91 146 329 155 46 73 247 167 186 79 208 
237 11 145 88 123 419 197 36 271 113 232 229 387 
238 11 42 102 444 320 43 425 75 294 374 382 376 
239 11 217 336 380 218 122 315 58 401 57 417 302 
240 11 196 52 228 12 187 77 191 27 103 66 222 
241 11 263 143 249 260 48 51 280 362 355 297 384 
242 11 61 203 85 150 18 136 72 169 69 17 205 
243 11 2 133 185 192 117 215 49 50 28 8 175 
244 11 38 23 193 93 96 137 79 180 231 73 118 
245 11 171 211 200 219 227 208 186 234 33 247 167 
246 11 45 226 147 165 201 111 90 114 176 138 3 
247 11 208 167 186 329 46 155 91 200 219 236 146 
248 11 439 106 233 363 365 281 344 89 224 317 367 
249 11 384 51 362 291 143 297 431 293 241 263 80 
250 11 64 33 234 190 126 127 211 350 171 86 174 
251 7 346 301 369 26 331 174 409 
252 8 256 316 335 372 396 160 97 364 
253 11 199 405 388 276 95 10 327 284 303 139 194 
254 11 119 275 381 309 212 415 110 74 261 262 216 
255 11 76 179 30 392 4 114 19 41 45 353 177 
256 6 252 372 396 316 335 130 
257 8 318 6 295 351 283 144 278 323 
258 7 339 440 435 273 383 56 430 
259 10 11 422 204 314 397 168 122 337 347 286 
260 11 263 438 48 443 51 241 268 431 421 249 143 
261 11 115 212 309 433 254 358 275 216 74 429 119 
262 11 110 220 119 264 379 381 254 74 415 216 153 
263 11 241 260 48 51 249 143 438 431 362 443 280 
264 11 220 262 153 110 381 425 119 379 415 444 306 
265 11 289 287 285 447 322 130 442 427 434 396 152 
266 9 22 14 403 360 15 373 424 278 142 
267 11 426 98 274 407 361 332 334 235 399 141 408 
268 11 443 116 404 353 421 378 260 80 431 438 51 
269 7 345 389 183 370 423 35 395 
270 7 416 223 357 368 364 349 189 
271 11 39 81 99 164 36 419 88 54 145 175 89 
272 11 120 354 382 75 377 161 425 238 225 20 210 
273 10 56 435 339 258 321 440 449 128 152 292 
274 11 98 267 407 399 426 235 141 334 361 432 288 
275 11 309 212 254 415 381 429 358 119 261 110 115 
276 11 327 10 405 388 199 418 16 390 393 253 194 
277 5 131 436 413 166 387 
278 7 424 144 283 318 373 257 6 
279 11 57 87 58 20 217 315 302 225 239 380 63 
280 11 162 241 7 412 263 48 340 414 260 143 420 
281 9 224 344 106 411 310 207 248 365 83 
282 11 149 308 326 221 313 60 378 3 404 385 116 
283 11 144 6 318 257 323 351 278 304 295 92 424 
284 11 303 112 202 298 107 189 5 388 199 395 194 
285 11 287 289 130 265 335 434 322 97 396 447 324 
286 7 337 427 372 396 397 442 130 
287 11 285 130 289 265 335 396 434 322 97 447 324 
288 9 235 330 399 311 352 98 274 333 361 
289 11 265 287 285 130 322 447 396 434 335 427 442 
290 10 349 368 328 364 194 418 316 160 94 270 
291 11 384 293 297 362 249 143 431 51 15 299 428 
292 11 446 442 198 321 427 152 265 289 430 128 449 
293 10 297 362 384 291 299 15 249 143 403 355 
294 11 320 374 102 42 37 376 360 238 444 230 157 
295 8 257 318 6 351 283 144 278 420 
296 11 109 343 398 128 195 449 152 322 447 434 324 
297 9 293 362 384 291 299 143 249 15 355 
298 11 202 189 112 183 303 416 5 357 223 270 395 
299 5 297 355 293 15 362 
300 11 214 195 158 327 109 276 343 16 398 95 10 
301 9 346 400 251 409 448 394 433 331 115 
302 9 58 315 311 352 330 279 288 217 239 
303 11 112 284 202 189 298 388 194 349 416 270 290 
304 11 92 306 144 283 323 415 278 6 424 381 318 
305 11 206 140 108 118 231 29 41 96 179 71 19 
306 11 92 304 153 415 381 376 37 264 444 144 220 
307 4 338 151 59 319 
308 11 326 313 282 60 149 221 385 378 13 3 375 
309 11 212 275 358 429 261 254 115 119 415 381 433 
310 9 83 207 281 224 106 406 383 344 347 
311 9 352 302 315 58 330 288 235 361 218 
312 9 408 209 35 334 407 370 357 432 223 
313 11 60 326 308 282 221 149 375 142 366 385 13 
314 11 168 259 122 218 11 422 361 204 332 239 426 
315 11 58 302 311 352 217 239 279 330 218 288 57 
316 9 252 160 328 256 335 364 97 368 94 
317 11 47 441 233 347 417 106 401 83 248 310 406 
318 8 257 6 295 351 283 144 278 323 
319 10 59 151 338 410 307 161 216 379 74 32 
320 11 294 102 374 42 37 376 238 360 444 230 43 
321 11 449 152 128 292 446 56 273 435 447 265 442 
322 11 447 434 265 289 285 287 152 128 324 130 335 
323 11 283 6 351 144 257 304 318 92 295 278 429 
324 11 97 434 335 160 285 94 287 322 316 398 130 
325 11 402 342 391 437 178 351 356 371 445 341 6 
326 11 308 313 282 60 149 221 385 13 375 378 142 
327 11 276 10 405 16 390 418 388 393 199 158 300 
328 10 364 290 368 316 160 349 252 94 418 194 
329 11 91 236 155 46 146 247 186 167 208 73 53 
330 5 352 311 288 302 58 
331 2 409 32 
332 10 267 426 334 407 98 274 408 168 361 312 
333 3 141 399 432 
334 11 407 408 267 274 312 332 432 426 35 98 141 
335 11 97 285 130 287 252 324 316 160 396 434 256 
336 11 380 122 239 217 401 417 218 57 47 87 314 
337 8 286 427 397 442 396 372 198 130 
338 8 59 319 151 161 307 410 379 32 
339 7 258 440 435 273 56 383 430 
340 11 177 48 280 65 438 71 260 263 241 4 443 
341 11 356 78 371 178 445 325 402 391 188 227 342 
342 11 402 325 178 429 358 391 323 351 188 433 212 
343 11 109 398 296 434 322 324 16 447 390 128 97 
344 8 224 411 281 365 106 363 248 439 
345 7 269 389 183 370 423 395 369 
346 7 251 301 331 369 409 26 400 
347 11 406 83 317 122 422 11 47 310 204 336 259 
348 11 230 157 159 82 40 294 374 320 366 43 102 
349 10 290 194 368 328 364 270 418 316 388 416 
350 11 190 26 127 174 64 132 188 250 251 346 369 
351 9 6 257 318 295 283 323 144 278 304 
352 7 311 330 302 315 58 288 235 
353 11 404 378 268 116 443 3 421 149 80 30 282 
354 11 382 120 425 161 220 264 272 379 262 110 59 
355 3 299 143 420 
356 11 341 371 78 445 391 325 178 402 53 437 188 
357 6 223 416 270 209 189 312 
358 11 429 309 212 275 261 433 254 115 415 381 342 
359 11 50 28 129 40 82 117 348 230 70 386 157 
360 11 22 266 374 366 294 37 320 102 376 14 142 
361 11 235 426 98 267 218 274 399 288 168 311 332 
362 10 297 293 384 143 291 249 299 355 15 51 
363 11 439 365 248 367 344 89 106 233 281 224 411 
364 9 368 328 290 316 349 252 270 160 256 
365 8 363 439 344 411 248 224 281 106 
366 11 142 375 360 159 22 14 266 428 157 374 60 
367 10 89 164 99 439 363 166 365 248 233 436 
368 9 364 290 328 349 270 316 194 252 160 
369 9 132 135 395 5 251 389 174 345 346 
370 9 35 423 269 345 389 183 312 432 408 
371 11 445 356 391 341 437 325 53 402 414 78 7 
372 5 256 396 252 286 130 
373 3 15 299 403 
374 11 294 320 102 42 360 37 376 238 366 444 230 
375 11 142 428 14 13 366 385 22 403 15 266 291 
376 11 37 444 102 153 294 306 320 374 42 360 92 
377 11 210 49 134 8 272 225 75 120 70 20 133 
378 11 404 116 353 149 268 421 80 282 385 443 3 
379 11 110 262 74 119 216 220 254 264 319 381 151 
380 11 336 217 401 239 122 417 57 87 218 47 279 
381 11 415 119 254 275 262 110 264 220 309 212 306 
382 11 354 425 120 220 444 153 264 272 238 262 110 
383 7 207 310 83 430 258 406 440 
384 10 291 293 362 297 249 143 51 431 299 15 
385 11 13 80 421 431 428 116 291 51 384 375 142 
386 11 84 24 157 348 359 159 154 60 230 9 313 
387 11 166 131 436 277 123 419 88 232 164 99 367 
388 11 194 10 418 349 405 199 276 290 303 393 327 
389 8 345 269 183 370 395 423 369 5 
390 11 393 16 94 418 160 10 324 97 398 328 316 
391 11 437 325 445 371 402 414 356 412 342 351 7 
392 11 41 4 179 30 177 76 65 108 255 29 206 
393 11 390 94 418 16 160 10 97 324 328 290 316 
394 9 409 448 32 410 400 115 331 216 151 
395 9 5 135 369 132 389 183 345 269 298 
396 9 130 256 372 287 252 335 285 289 286 
397 10 204 11 337 259 422 286 198 427 442 314 
398 11 343 16 324 434 390 109 97 393 94 322 160 
399 10 274 141 235 98 288 333 407 432 267 426 
400 11 448 433 301 409 115 394 261 32 346 212 309 
401 11 417 380 336 47 217 87 57 122 441 239 317 
402 11 325 342 178 391 341 356 351 437 188 371 429 
403 8 15 14 373 299 266 293 22 297 
404 11 378 116 353 268 421 149 443 80 385 431 3 
405 11 199 253 276 388 10 327 95 194 418 303 158 
406 11 347 83 310 422 11 204 383 317 430 207 259 
407 11 334 274 267 141 432 98 408 426 399 332 35 
408 10 312 334 209 35 407 432 332 274 141 267 
409 8 448 394 32 400 301 331 410 115 
410 11 151 32 319 216 394 59 74 338 307 448 409 
411 6 344 224 281 365 207 106 
412 8 7 414 162 420 437 280 355 295 
413 3 277 131 436 
414 9 412 7 162 437 420 391 445 295 280 
415 11 381 275 254 119 262 306 309 92 110 212 264 
416 6 270 223 357 189 202 368 
417 11 401 380 47 336 217 87 441 57 122 317 239 
418 11 393 390 94 16 10 160 194 290 328 349 388 
419 11 88 145 123 237 387 271 39 164 99 166 232 
420 5 355 162 412 414 7 
421 11 80 116 431 51 385 268 443 404 378 13 249 
422 11 11 204 259 397 314 347 406 168 198 122 337 
423 8 370 35 432 141 269 333 345 408 
424 5 278 373 144 266 283 
425 11 444 382 153 264 220 354 238 262 376 37 42 
426 11 267 98 274 361 235 407 332 334 399 141 168 
427 11 442 337 286 265 289 130 396 446 292 198 287 
428 11 13 142 375 14 385 291 403 15 293 384 297 
429 11 358 309 212 275 261 254 433 115 415 381 323 
430 11 198 446 292 383 204 258 442 397 406 11 422 
431 11 51 80 421 249 291 384 385 13 116 362 293 
432 10 141 407 35 423 274 334 399 333 408 98 
433 11 115 400 261 212 358 309 429 448 394 409 275 
434 11 324 322 285 97 335 447 287 289 265 130 160 
435 10 273 56 339 258 440 321 449 430 292 446 
436 7 277 131 166 365 413 387 363 
437 11 414 391 412 7 445 162 420 295 325 371 351 
438 11 48 260 443 263 177 268 241 51 340 421 431 
439 11 363 248 365 89 367 233 106 344 281 224 411 
440 6 258 339 435 383 273 56 
441 11 47 233 317 417 401 63 248 87 106 380 163 
442 11 427 446 292 337 198 265 289 286 130 287 396 
443 11 268 260 116 421 438 404 51 353 431 80 48 
444 11 153 425 376 37 238 264 42 306 382 102 220 
445 11 371 391 437 356 414 7 325 341 412 162 402 
446 11 292 442 198 321 427 152 265 430 289 128 449 
447 11 322 265 289 152 434 128 285 287 130 324 449 
448 10 409 394 400 32 115 301 433 410 261 331 
449 11 128 321 152 447 56 292 446 322 273 265 289 
DEPOT_SECTION
   1
   -1
EOF
