NAME :  X-n586-kX-w117-c11.cctp
COMMENT : 	Adapted by Maziero, Usberti and Cavellucci from the Uchoa, Pecin, Pessoa, Poggi, Subramanian, and Vidal (2013)
TYPE :  CCTP
DIMENSION :    462
EDGE_WEIGHT_TYPE : 	EUC_2D	
CAPACITY : 	28
VERTICES_WITHIN_COVERAGE :  11
VERTICES_WITH_DEMAND : 	117
NODE_COORD_SECTION
1 18 761
2 835 397
3 299 16
4 31 168
5 142 257
6 242 984
7 612 357
8 663 812
9 105 188
10 487 636
11 993 703
12 672 148
13 506 259
14 953 706
15 888 203
16 107 534
17 772 692
18 475 182
19 828 775
20 719 220
21 655 722
22 844 197
23 918 600
24 460 844
25 739 102
26 301 523
27 341 627
28 989 936
29 935 602
30 44 72
31 861 67
32 163 416
33 981 503
34 722 397
35 317 903
36 547 95
37 944 106
38 935 192
39 128 376
40 908 176
41 720 226
42 738 793
43 791 498
44 712 751
45 530 693
46 141 673
47 380 544
48 634 301
49 427 853
50 606 949
51 47 557
52 48 202
53 791 67
54 546 876
55 526 842
56 535 216
57 828 214
58 829 352
59 623 473
60 374 1000
61 74 187
62 275 415
63 726 789
64 51 597
65 894 395
66 159 743
67 301 893
68 755 946
69 978 261
70 709 153
71 391 153
72 876 370
73 846 725
74 604 107
75 117 709
76 507 89
77 348 744
78 476 204
79 181 957
80 948 710
81 158 788
82 414 685
83 358 66
84 196 732
85 283 343
86 456 931
87 5 468
88 459 43
89 555 414
90 94 964
91 558 360
92 641 424
93 132 16
94 777 947
95 25 205
96 852 45
97 5 686
98 400 682
99 501 234
100 905 968
101 492 971
102 817 114
103 651 941
104 817 643
105 735 937
106 333 829
107 223 584
108 306 412
109 209 663
110 206 549
111 542 691
112 296 10
113 215 747
114 148 641
115 9 553
116 411 59
117 382 800
118 824 612
119 608 727
120 481 574
121 169 950
122 350 608
123 396 536
124 36 459
125 359 339
126 798 917
127 10 569
128 813 10
129 569 627
130 692 467
131 247 413
132 738 487
133 508 327
134 158 986
135 983 244
136 637 109
137 177 207
138 357 374
139 361 972
140 365 701
141 582 957
142 712 996
143 932 452
144 60 66
145 252 267
146 944 435
147 338 688
148 900 168
149 583 871
150 852 59
151 921 72
152 845 534
153 387 253
154 812 354
155 5 404
156 590 575
157 930 128
158 184 742
159 832 466
160 285 346
161 548 976
162 32 531
163 966 58
164 31 40
165 162 539
166 621 425
167 802 495
168 385 493
169 769 329
170 921 15
171 64 106
172 854 678
173 943 122
174 103 285
175 304 739
176 398 212
177 335 459
178 43 108
179 400 255
180 822 749
181 60 32
182 783 760
183 218 360
184 321 463
185 403 172
186 32 134
187 218 490
188 44 456
189 430 570
190 509 572
191 424 936
192 639 505
193 984 435
194 479 341
195 207 937
196 709 700
197 235 795
198 557 130
199 270 964
200 482 320
201 836 272
202 509 379
203 961 329
204 819 754
205 648 809
206 640 892
207 838 79
208 552 232
209 831 306
210 503 726
211 486 958
212 571 837
213 162 504
214 458 845
215 378 389
216 458 127
217 929 786
218 364 368
219 579 971
220 662 173
221 320 524
222 894 787
223 428 736
224 554 560
225 94 22
226 82 61
227 581 840
228 693 830
229 355 662
230 24 276
231 946 348
232 844 433
233 877 594
234 556 739
235 503 462
236 264 505
237 782 143
238 919 703
239 958 559
240 90 181
241 794 485
242 267 35
243 322 883
244 376 52
245 487 982
246 541 423
247 36 607
248 101 687
249 657 754
250 372 421
251 695 294
252 174 686
253 128 560
254 926 32
255 540 223
256 490 930
257 334 635
258 125 661
259 473 467
260 129 401
261 247 415
262 725 544
263 284 155
264 200 281
265 822 540
266 306 433
267 216 59
268 887 520
269 714 539
270 780 97
271 464 94
272 951 329
273 785 333
274 677 811
275 232 689
276 595 733
277 690 901
278 457 905
279 868 966
280 735 816
281 37 189
282 332 670
283 16 13
284 17 419
285 986 893
286 2 931
287 603 900
288 495 820
289 452 820
290 846 825
291 625 965
292 474 942
293 350 832
294 267 929
295 456 850
296 475 917
297 254 899
298 132 768
299 437 848
300 140 810
301 449 950
302 186 798
303 908 949
304 322 852
305 270 978
306 954 920
307 389 874
308 273 852
309 900 963
310 478 868
311 464 902
312 563 823
313 162 793
314 444 918
315 541 906
316 34 189
317 130 980
318 237 386
319 520 908
320 517 985
321 815 899
322 539 823
323 55 50
324 498 853
325 121 190
326 72 175
327 744 860
328 479 941
329 44 63
330 43 203
331 115 299
332 139 818
333 185 933
334 5 191
335 81 163
336 15 221
337 366 999
338 898 981
339 214 965
340 677 912
341 471 869
342 188 671
343 312 929
344 976 943
345 51 48
346 421 911
347 40 708
348 72 266
349 183 409
350 424 921
351 877 967
352 27 179
353 171 936
354 932 1000
355 455 869
356 463 837
357 435 847
358 353 670
359 187 752
360 464 978
361 128 303
362 59 408
363 319 870
364 887 957
365 473 816
366 138 202
367 406 825
368 388 728
369 78 745
370 287 734
371 181 611
372 261 116
373 444 964
374 367 966
375 188 819
376 7 136
377 127 532
378 408 873
379 808 928
380 430 951
381 94 257
382 7 126
383 432 821
384 181 936
385 128 179
386 464 900
387 493 815
388 322 943
389 343 786
390 153 220
391 321 964
392 912 951
393 105 265
394 32 133
395 428 946
396 21 156
397 47 175
398 459 932
399 165 773
400 146 938
401 34 140
402 900 958
403 215 989
404 444 821
405 963 961
406 102 310
407 126 686
408 819 967
409 282 720
410 113 780
411 148 924
412 421 731
413 513 812
414 96 713
415 437 876
416 789 981
417 996 910
418 90 87
419 578 807
420 138 750
421 899 754
422 203 473
423 480 960
424 258 899
425 127 344
426 471 906
427 461 949
428 437 847
429 465 817
430 951 979
431 102 191
432 84 185
433 377 879
434 660 782
435 171 812
436 35 216
437 484 921
438 74 67
439 440 953
440 110 175
441 617 832
442 138 815
443 617 787
444 501 842
445 390 969
446 92 163
447 59 73
448 913 979
449 387 735
450 121 746
451 419 942
452 128 998
453 517 952
454 586 955
455 474 852
456 234 798
457 131 189
458 481 981
459 160 987
460 98 917
461 422 862
462 81 228
DEMAND_SECTION
2 9
3 7
4 6
5 5
6 7
7 10
8 9
9 8
10 9
11 8
12 6
13 6
14 5
15 10
16 9
17 7
18 9
19 7
20 9
21 6
22 5
23 7
24 10
25 7
26 6
27 9
28 9
29 10
30 7
31 7
32 9
33 10
34 5
35 6
36 8
37 10
38 8
39 5
40 8
41 10
42 8
43 10
44 7
45 5
46 8
47 9
48 7
49 10
50 5
51 6
52 10
53 9
54 9
55 10
56 6
57 8
58 10
59 9
60 10
61 9
62 7
63 5
64 8
65 10
66 6
67 9
68 5
69 7
70 8
71 8
72 10
73 10
74 5
75 8
76 8
77 8
78 6
79 10
80 6
81 9
82 7
83 9
84 10
85 6
86 9
87 6
88 10
89 5
90 9
91 8
92 5
93 5
94 5
95 10
96 5
97 8
98 6
99 6
100 10
101 6
102 5
103 10
104 7
105 9
106 5
107 8
108 8
109 6
110 5
111 6
112 5
113 6
114 6
115 7
116 8
117 6
118 6
COVERAGE_SECTION
2 11 232 58 72 154 65 159 273 209 169 241 167 
3 8 112 242 83 244 267 372 116 263 
4 11 352 396 397 316 281 401 186 334 394 95 330 
5 11 393 390 174 361 381 331 366 137 264 406 462 
6 11 403 305 199 339 195 294 79 333 384 121 391 
7 11 91 48 166 92 89 246 251 202 133 34 59 
8 11 274 205 434 228 441 443 249 63 280 42 44 
9 11 431 440 325 240 432 385 457 446 61 326 335 
10 11 120 190 45 111 129 189 82 210 98 224 223 
11 11 14 80 238 217 421 29 23 222 172 239 73 
12 11 220 70 136 74 25 20 41 237 198 270 36 
13 11 99 255 56 208 78 200 133 18 194 179 91 
14 10 80 238 11 421 217 222 172 29 73 23 
15 11 40 148 22 38 57 157 201 173 135 69 37 
16 11 377 253 165 213 51 162 64 110 115 188 247 
17 11 196 104 182 180 204 73 172 44 118 19 42 
18 11 78 99 216 56 185 255 13 176 71 271 208 
19 8 204 180 182 73 290 222 421 42 
20 11 41 70 220 251 12 237 57 48 25 169 22 
21 11 249 119 196 434 276 44 443 205 8 274 63 
22 11 57 15 148 40 201 237 102 38 157 209 207 
23 11 29 233 239 268 118 152 172 238 104 14 265 
24 11 214 295 356 455 299 428 289 355 357 341 429 
25 11 270 70 237 53 102 12 136 207 220 128 20 
26 11 221 236 184 177 47 168 187 266 123 110 122 
27 11 257 122 229 282 358 147 140 98 47 82 221 
28 6 344 417 405 306 285 430 
29 11 23 239 233 268 238 14 33 80 118 172 152 
30 11 329 447 144 323 345 438 164 178 171 226 181 
31 11 150 96 207 151 102 53 254 128 170 270 37 
32 11 349 260 39 422 183 318 425 131 261 213 187 
33 11 239 193 143 146 268 29 23 233 65 152 159 
34 11 130 169 92 273 132 154 166 251 2 241 58 
35 11 67 243 343 363 388 304 294 424 391 297 433 
36 11 198 76 74 271 136 216 88 18 56 255 78 
37 11 173 157 151 163 148 254 40 38 31 170 150 
38 11 40 148 15 157 173 135 69 37 22 57 151 
39 11 260 425 32 349 406 361 362 331 183 174 318 
40 11 148 38 15 157 173 22 37 57 135 151 69 
41 11 20 251 70 220 12 237 57 48 169 25 201 
42 11 63 280 44 182 228 274 327 8 434 204 249 
43 11 167 241 159 265 132 152 262 232 269 268 130 
44 11 63 42 196 249 434 21 274 280 182 8 228 
45 9 111 210 234 10 276 129 119 223 412 
46 11 258 407 114 252 248 75 342 414 109 66 371 
47 11 123 168 189 221 122 26 27 177 184 257 120 
48 11 7 251 91 208 41 20 255 92 166 133 34 
49 11 357 461 299 428 415 378 295 214 355 383 24 
50 11 454 141 291 219 103 287 161 206 315 340 149 
51 11 162 115 127 64 247 16 253 377 87 124 188 
52 11 330 281 316 436 95 397 61 352 326 4 336 
53 11 270 207 102 128 150 25 96 31 237 70 151 
54 9 315 149 55 319 212 227 322 324 312 
55 10 322 444 324 413 288 54 312 387 212 455 
56 11 255 208 99 13 78 18 198 133 200 216 36 
57 11 22 201 15 148 237 40 209 102 20 38 41 
58 11 154 2 209 273 72 169 65 201 232 159 34 
59 11 192 166 92 130 89 246 156 224 269 132 7 
60 11 337 139 374 445 391 451 380 395 388 373 191 
61 9 432 326 240 335 431 52 397 446 9 
62 11 131 261 108 266 318 184 160 85 177 183 236 
63 11 42 280 44 228 274 182 434 8 327 249 205 
64 11 247 51 127 115 162 16 253 258 97 377 248 
65 11 72 2 232 146 143 231 58 272 154 159 203 
66 11 420 158 359 399 298 450 84 81 313 75 113 
67 10 35 243 363 343 424 304 297 294 308 388 
68 10 94 105 416 126 379 142 408 321 277 340 
69 11 135 203 272 38 231 15 40 148 157 201 173 
70 11 12 220 25 20 41 237 136 270 74 102 53 
71 11 185 176 216 18 83 271 116 78 153 179 244 
72 11 65 2 58 154 232 231 209 272 146 203 273 
73 11 180 204 172 19 421 182 238 222 17 104 290 
74 11 136 198 36 12 220 76 70 56 255 25 208 
75 11 414 407 248 450 46 420 258 369 66 252 298 
76 11 36 271 216 198 88 18 74 116 78 56 71 
77 11 449 389 368 175 140 147 370 117 409 358 412 
78 11 18 99 56 13 255 176 216 185 208 179 71 
79 10 121 384 353 333 195 339 134 459 400 403 
80 10 14 238 11 421 217 222 172 73 29 23 
81 10 313 399 435 300 302 298 442 332 375 420 
82 11 98 412 368 140 223 449 229 358 147 282 10 
83 11 244 116 3 112 71 242 88 372 271 185 263 
84 11 158 359 113 66 252 399 275 420 342 302 81 
85 11 160 318 183 62 108 125 131 138 261 145 218 
86 11 398 314 427 301 292 296 328 278 439 426 311 
87 11 124 188 284 155 162 362 115 51 127 16 64 
88 11 116 271 76 244 216 36 83 71 198 18 185 
89 11 246 91 202 166 235 7 92 59 259 133 194 
90 9 317 460 452 400 411 134 459 121 353 
91 11 202 7 89 133 246 194 200 166 48 92 13 
92 11 166 59 130 7 192 34 89 246 91 132 48 
93 8 225 226 181 438 418 323 345 144 
94 7 68 379 416 126 105 408 321 
95 11 436 316 330 336 281 52 334 352 4 397 396 
96 11 150 31 207 128 53 151 170 254 102 270 37 
97 8 347 247 369 414 248 64 75 127 
98 11 82 140 368 229 358 412 449 223 147 282 27 
99 11 13 56 78 255 208 18 200 133 179 176 194 
100 8 309 402 448 338 392 303 364 351 
101 11 245 211 458 423 320 360 453 328 292 427 256 
102 11 207 270 237 53 31 150 96 25 22 148 57 
103 11 291 340 50 206 277 287 454 141 219 142 105 
104 11 118 172 17 233 73 265 180 23 204 152 238 
105 11 68 94 277 142 340 126 416 379 327 103 321 
106 11 293 304 363 389 243 117 308 433 67 307 367 
107 11 110 371 165 109 236 114 187 342 253 26 213 
108 11 266 62 184 177 131 261 138 250 160 85 218 
109 11 342 275 252 371 114 46 84 107 158 113 258 
110 11 107 165 187 213 371 236 422 253 377 26 16 
111 9 45 234 210 276 129 119 10 21 419 
112 8 3 242 83 244 267 372 116 263 
113 11 84 359 158 197 456 66 399 302 275 81 313 
114 11 258 46 371 342 407 252 109 248 75 253 414 
115 11 127 162 51 247 64 87 124 16 188 253 377 
116 11 244 88 83 271 216 71 76 185 3 112 18 
117 11 367 389 293 383 106 404 449 77 49 357 368 
118 11 104 233 172 265 152 17 23 29 268 73 43 
119 10 276 21 234 249 443 111 434 45 419 205 
120 11 190 189 10 224 123 129 47 259 156 235 168 
121 9 79 353 384 333 400 411 134 459 195 
122 11 27 257 229 358 282 47 147 123 98 189 221 
123 11 47 168 189 221 122 120 26 177 259 184 27 
124 11 188 87 284 362 155 162 115 51 16 260 127 
125 10 218 138 215 160 85 250 108 153 179 266 
126 5 379 321 94 68 408 
127 11 115 51 162 247 64 87 16 124 97 188 253 
128 11 96 53 150 207 31 270 102 170 254 25 151 
129 11 156 111 224 45 190 10 120 119 276 234 210 
130 11 132 192 92 59 269 34 166 262 43 241 167 
131 11 261 62 318 108 183 266 349 422 160 85 187 
132 11 130 43 241 269 262 167 34 159 265 192 59 
133 10 200 194 202 91 13 99 89 246 208 7 
134 11 459 317 452 79 121 400 353 384 403 333 339 
135 11 69 38 203 272 40 15 231 148 157 173 37 
136 11 74 12 220 198 70 36 25 76 20 41 270 
137 6 390 366 457 385 325 5 
138 10 218 215 125 250 108 160 266 85 177 62 
139 11 374 337 445 60 391 388 343 451 380 395 191 
140 11 147 358 368 98 229 449 282 77 82 412 175 
141 11 454 219 50 161 291 287 315 453 103 320 319 
142 11 105 68 416 94 103 340 291 277 408 50 126 
143 11 146 193 65 33 268 232 72 159 231 239 2 
144 11 447 438 329 30 323 345 226 181 418 164 171 
145 9 264 85 160 137 183 5 390 263 318 
146 11 143 193 65 33 231 72 232 268 272 203 2 
147 11 282 358 140 229 257 77 27 175 98 368 409 
148 11 40 15 38 157 22 173 37 57 151 102 31 
149 11 227 287 212 54 312 441 315 206 55 419 322 
150 11 31 96 207 53 128 102 151 254 270 170 37 
151 11 254 37 163 173 157 170 31 150 96 207 148 
152 11 265 268 167 43 233 159 241 118 23 232 29 
153 10 179 176 185 125 71 78 18 99 200 218 
154 11 58 273 2 169 209 72 201 232 65 34 159 
155 11 284 362 124 87 188 260 39 230 162 406 425 
156 11 224 129 190 192 59 120 10 111 269 45 262 
157 11 173 37 148 40 151 38 163 15 31 254 150 
158 11 359 84 66 113 399 420 81 302 313 252 298 
159 11 232 167 241 43 2 152 265 268 65 132 143 
160 11 85 318 183 108 62 125 131 138 261 218 145 
161 11 219 320 141 453 454 101 245 50 211 458 315 
162 11 51 115 127 64 87 124 16 188 247 377 253 
163 11 151 254 37 170 173 157 31 150 96 148 207 
164 11 345 323 329 181 283 30 144 447 438 226 225 
165 11 213 377 253 110 16 187 371 107 422 114 236 
166 11 92 59 89 7 246 130 192 91 34 202 235 
167 11 43 241 159 265 152 132 232 268 262 269 2 
168 11 123 47 177 184 221 250 26 189 259 266 215 
169 11 273 154 58 209 251 34 201 2 41 72 20 
170 11 254 151 163 96 31 150 37 207 128 173 157 
171 5 178 418 447 30 144 
172 11 73 104 238 118 180 17 204 233 421 80 19 
173 11 157 37 151 148 40 163 38 254 15 31 170 
174 11 331 393 406 381 361 348 5 462 425 230 390 
175 11 370 409 77 147 389 140 282 449 358 368 275 
176 10 185 153 179 71 78 18 216 99 13 263 
177 11 184 266 250 108 168 221 26 62 215 236 138 
178 7 171 394 186 401 30 447 382 
179 10 153 176 185 78 125 71 99 18 200 13 
180 10 204 19 73 182 17 421 172 290 222 42 
181 11 345 323 164 144 225 329 226 438 447 30 283 
182 11 204 180 19 42 63 17 44 73 280 290 196 
183 11 318 131 349 261 85 160 32 62 264 39 425 
184 11 177 266 108 221 26 62 250 168 236 261 131 
185 11 71 176 216 18 78 153 179 271 116 83 99 
186 8 394 401 376 396 382 178 4 171 
187 11 422 236 213 110 165 261 131 349 26 32 62 
188 11 124 87 284 362 155 162 16 51 260 115 377 
189 11 123 120 47 190 10 122 168 27 259 82 98 
190 11 120 224 10 189 129 156 235 259 123 45 111 
191 11 451 395 350 380 439 346 314 301 86 373 398 
192 11 59 130 92 166 269 156 262 132 224 89 246 
193 11 146 143 33 231 65 203 272 72 239 268 232 
194 10 200 133 202 91 13 246 89 99 215 179 
195 6 333 384 339 79 353 121 
196 11 44 21 17 249 63 182 434 42 119 274 276 
197 7 456 302 113 375 359 435 308 
198 11 36 74 76 136 56 255 18 216 271 208 78 
199 11 305 6 294 391 343 339 388 403 424 297 195 
200 10 194 133 202 13 91 99 179 208 255 78 
201 11 209 57 22 58 273 154 15 169 72 40 148 
202 10 194 133 91 246 89 200 235 259 7 13 
203 11 272 231 69 135 65 72 146 193 143 209 58 
204 10 180 19 182 73 290 17 421 222 172 42 
205 11 8 274 434 443 441 228 249 419 227 63 212 
206 11 287 340 103 277 149 441 50 291 227 228 8 
207 11 150 31 96 102 53 270 128 151 237 254 25 
208 11 255 56 99 13 78 18 198 133 48 200 220 
209 11 201 58 154 273 169 72 2 57 65 22 15 
210 9 45 111 234 223 412 413 387 10 276 
211 11 423 101 328 292 245 458 427 256 360 453 398 
212 11 227 312 419 322 149 55 54 441 413 443 444 
213 11 165 377 422 187 16 110 253 32 349 107 236 
214 11 24 295 356 455 299 428 357 355 289 341 404 
215 10 218 138 250 125 108 177 266 184 160 168 
216 11 271 18 76 185 71 78 116 88 36 198 176 
217 6 222 421 80 14 238 290 
218 10 138 215 125 250 108 160 85 266 177 62 
219 11 141 454 161 50 291 320 453 287 315 103 319 
220 11 12 70 136 20 41 74 25 198 237 208 251 
221 11 26 236 184 47 177 168 123 122 266 27 187 
222 7 421 217 290 19 73 180 204 
223 10 412 368 449 82 98 140 210 117 77 383 
224 11 156 190 129 120 10 192 235 59 259 189 111 
225 11 181 93 226 323 438 345 144 447 329 418 164 
226 10 438 144 447 418 323 345 181 329 30 225 
227 11 212 312 149 419 441 322 54 55 287 443 205 
228 11 274 8 280 205 63 42 434 327 277 441 44 
229 11 358 282 147 257 27 140 98 122 82 368 449 
230 11 348 336 436 95 381 330 462 52 174 393 406 
231 11 272 203 65 72 146 69 193 143 135 58 2 
232 11 159 2 65 72 241 167 58 43 154 143 268 
233 11 23 118 29 152 268 104 265 172 239 238 167 
234 9 276 111 45 119 210 419 443 312 413 
235 11 259 246 89 202 190 224 120 91 59 168 194 
236 11 26 187 221 422 184 110 266 177 107 62 261 
237 11 102 270 25 70 53 22 57 207 20 41 150 
238 11 80 14 421 172 11 73 217 222 29 23 180 
239 11 29 23 33 268 233 143 152 146 193 265 118 
240 9 432 431 9 61 446 326 335 440 325 
241 11 43 167 159 132 265 152 232 262 2 269 268 
242 7 3 112 267 372 83 244 263 
243 11 363 35 67 304 343 106 433 293 308 388 424 
244 11 83 116 88 3 112 271 71 242 216 185 372 
245 11 458 101 360 423 211 320 292 328 427 453 373 
246 11 89 202 235 91 166 259 59 7 92 133 194 
247 11 64 127 51 115 162 97 347 16 248 253 258 
248 11 407 414 75 258 46 369 450 347 114 252 420 
249 11 434 21 443 44 119 205 8 274 276 196 63 
250 10 215 138 177 218 184 108 266 168 125 62 
251 11 48 41 20 169 273 7 34 220 154 209 92 
252 11 342 46 109 407 84 114 258 158 275 66 75 
253 11 377 16 165 213 371 110 51 114 64 107 162 
254 11 170 151 163 31 96 37 150 173 157 207 128 
255 11 56 208 99 13 78 18 198 133 200 48 216 
256 9 437 328 292 296 211 398 426 423 86 
257 11 27 122 229 282 358 147 140 98 82 409 47 
258 11 46 407 114 248 75 252 414 342 371 109 450 
259 11 235 246 168 202 89 123 120 190 250 189 47 
260 11 39 32 349 425 362 406 183 361 188 331 422 
261 11 131 62 318 108 183 266 349 422 160 85 187 
262 11 269 132 43 130 167 241 192 265 118 152 59 
263 5 372 71 83 145 267 
264 10 145 5 361 137 390 183 331 393 425 174 
265 11 152 167 43 241 268 118 159 233 262 132 104 
266 11 108 184 62 177 131 261 250 138 236 318 215 
267 5 242 372 3 93 112 
268 11 152 265 233 159 239 143 23 167 29 33 232 
269 11 262 132 130 192 43 241 167 265 59 156 152 
270 11 53 25 102 237 207 150 31 96 70 128 12 
271 11 216 76 88 116 36 18 71 244 185 198 83 
272 11 203 231 69 72 65 135 146 193 209 58 143 
273 11 169 154 58 209 201 2 34 72 251 232 41 
274 11 8 228 205 434 63 280 249 42 441 443 44 
275 11 109 342 84 252 409 113 370 158 359 175 66 
276 10 119 234 443 21 249 111 45 419 434 210 
277 11 340 206 103 105 327 228 68 287 274 291 8 
278 7 311 386 426 314 296 86 398 
279 6 351 364 309 402 338 100 
280 11 42 63 228 327 274 44 8 182 434 205 277 
281 11 316 352 330 52 397 95 4 436 334 61 396 
282 11 147 358 229 257 27 140 122 98 409 175 77 
283 11 164 181 345 323 329 30 144 447 225 438 226 
284 11 155 362 124 188 87 162 260 39 425 115 406 
285 5 417 306 28 344 405 
286 2 460 90 
287 11 149 206 50 454 141 54 315 103 227 291 441 
288 10 387 413 365 444 429 324 356 55 455 24 
289 11 404 429 356 383 365 24 214 295 428 299 357 
290 3 19 222 204 
291 11 50 103 454 141 219 287 340 206 161 277 142 
292 11 328 427 398 423 211 256 86 437 296 301 101 
293 11 106 304 117 389 363 433 367 307 243 378 35 
294 9 424 297 199 343 305 67 35 388 6 
295 11 214 24 356 455 299 355 428 357 341 310 49 
296 10 437 426 311 256 386 278 398 86 328 292 
297 5 424 294 67 308 195 
298 9 420 410 450 81 399 66 313 300 442 
299 11 428 357 49 295 214 461 24 383 355 356 404 
300 5 442 332 81 313 435 
301 11 439 427 373 380 86 395 398 292 191 328 451 
302 8 375 435 313 81 399 359 300 456 
303 4 392 402 309 100 
304 10 363 106 243 293 67 308 35 433 389 307 
305 11 199 6 294 391 403 339 388 343 195 424 297 
306 4 344 28 285 405 
307 9 433 378 461 49 415 346 367 357 299 
308 7 304 363 424 67 297 243 106 
309 8 402 100 364 303 392 338 448 351 
310 7 341 455 355 324 295 24 214 
311 7 386 278 426 296 314 437 86 
312 10 212 419 322 227 55 413 149 441 54 443 
313 9 81 399 435 302 300 442 332 375 298 
314 10 86 278 350 398 346 311 191 386 426 296 
315 6 319 54 453 149 256 437 
316 11 281 352 330 95 52 397 4 436 334 396 336 
317 10 452 134 459 90 400 121 79 411 353 384 
318 11 131 261 183 62 349 160 85 108 32 266 422 
319 6 315 256 437 54 453 296 
320 11 101 245 161 453 458 211 423 360 328 256 292 
321 3 126 379 94 
322 11 55 312 413 212 419 444 288 227 387 324 54 
323 11 345 144 329 181 447 30 438 164 226 225 418 
324 9 444 455 310 55 341 288 356 387 24 
325 10 457 385 9 431 440 366 240 432 446 390 
326 8 61 335 432 240 446 397 431 9 
327 11 280 228 42 277 63 105 126 321 274 340 68 
328 11 292 256 211 423 427 437 398 296 86 301 101 
329 11 30 144 323 345 447 164 438 181 226 178 171 
330 11 52 281 436 316 95 397 352 336 61 4 326 
331 11 361 406 174 393 381 425 5 348 39 462 264 
332 5 442 300 435 313 81 
333 7 384 353 195 121 79 411 400 
334 11 95 352 316 281 336 4 396 436 330 52 397 
335 5 446 326 240 432 61 
336 11 95 436 334 330 316 52 281 352 4 230 397 
337 11 60 139 374 445 391 388 451 380 395 373 191 
338 10 100 448 309 402 351 364 392 279 303 354 
339 11 403 195 6 79 333 384 121 353 199 305 459 
340 11 277 103 206 105 291 287 50 228 68 327 142 
341 7 310 355 455 295 24 214 324 
342 11 252 109 46 275 114 371 84 258 407 158 66 
343 11 388 35 391 67 294 243 199 363 424 139 297 
344 6 28 405 306 417 430 285 
345 11 323 329 181 144 164 30 447 438 226 283 225 
346 9 350 314 191 451 278 395 415 86 378 
347 8 97 369 414 248 75 407 450 258 
348 11 381 393 174 462 230 406 331 436 361 52 330 
349 11 32 260 318 183 39 131 261 422 425 187 62 
350 9 346 191 314 451 395 380 86 439 278 
351 6 279 364 309 338 402 100 
352 11 4 316 281 397 396 334 95 330 52 436 401 
353 7 384 121 333 79 400 411 195 
354 8 430 448 338 100 309 405 392 402 
355 9 341 295 415 310 214 24 455 299 428 
356 11 24 214 295 455 289 429 365 404 299 428 357 
357 11 299 428 49 461 295 214 24 383 404 415 355 
358 11 229 282 147 140 257 27 98 122 82 368 449 
359 11 158 84 113 66 399 81 302 313 420 298 435 
360 11 458 245 373 423 101 427 211 301 439 292 328 
361 11 331 406 174 425 393 5 381 348 39 264 390 
362 11 284 188 155 124 260 39 87 425 32 406 331 
363 10 243 304 67 35 106 293 308 343 433 424 
364 8 402 309 351 100 279 303 338 392 
365 11 429 387 289 288 356 404 24 214 455 295 444 
366 9 457 325 390 385 9 431 137 440 240 
367 11 383 49 117 357 404 428 299 461 289 378 307 
368 11 449 412 140 223 77 98 82 147 358 117 389 
369 7 414 450 410 75 347 298 420 
370 11 409 175 77 147 275 113 389 282 197 456 140 
371 11 114 107 109 342 110 46 165 253 252 258 275 
372 4 263 267 242 3 
373 11 439 301 380 427 360 395 451 191 86 398 423 
374 11 139 445 337 60 391 388 451 191 395 380 343 
375 4 435 302 313 81 
376 9 382 396 186 394 401 4 178 352 334 
377 11 16 253 165 213 110 51 162 371 422 64 187 
378 9 461 307 49 415 433 357 299 428 346 
379 6 126 321 94 408 68 416 
380 11 395 439 451 191 301 373 350 427 86 398 314 
381 11 393 348 174 462 331 5 406 361 431 9 366 
382 9 376 186 394 401 396 178 4 352 171 
383 11 404 289 357 367 428 299 49 429 214 356 24 
384 7 333 353 121 79 195 400 411 
385 7 457 325 440 9 366 431 240 
386 7 311 278 426 296 314 437 86 
387 10 288 365 413 429 444 356 324 289 455 55 
388 11 343 391 35 139 374 67 199 294 243 305 337 
389 11 117 77 106 293 175 449 304 368 367 370 363 
390 9 366 137 457 5 325 385 9 431 440 
391 11 388 343 139 374 199 305 337 35 60 294 445 
392 4 303 402 309 100 
393 11 381 174 348 331 5 361 462 406 390 366 431 
394 8 186 401 376 396 382 178 4 171 
395 11 380 451 191 439 301 373 350 86 314 427 398 
396 11 4 401 352 376 186 394 397 382 316 281 334 
397 11 4 281 316 352 326 52 330 61 396 335 95 
398 11 86 427 292 301 314 296 328 278 437 439 426 
399 11 81 313 359 66 298 302 420 158 435 300 442 
400 7 411 353 121 384 333 79 317 
401 8 186 394 396 376 4 382 178 397 
402 6 309 100 303 364 392 338 
403 11 339 6 79 195 459 305 134 121 199 384 333 
404 11 289 383 429 356 428 24 214 299 357 365 295 
405 5 344 430 28 306 354 
406 11 331 174 361 425 393 348 381 5 39 230 462 
407 11 46 75 248 258 414 252 114 450 342 420 66 
408 5 416 379 94 279 126 
409 11 370 175 275 147 77 282 113 140 84 358 197 
410 6 298 450 420 300 442 81 
411 6 400 353 121 384 333 79 
412 10 223 368 449 82 98 140 77 117 210 358 
413 10 288 387 322 444 55 365 324 429 312 356 
414 9 75 248 369 407 450 347 420 46 258 
415 8 355 461 49 299 357 378 428 295 
416 7 408 94 68 379 126 105 142 
417 5 285 28 344 306 405 
418 6 438 226 171 447 144 30 
419 10 312 212 227 322 443 441 55 149 413 205 
420 10 450 298 66 399 410 81 75 158 313 359 
421 10 222 217 238 73 80 14 19 180 204 172 
422 11 187 213 349 236 32 261 131 110 165 62 318 
423 11 211 101 292 328 458 427 245 360 256 301 398 
424 6 297 294 67 308 35 343 
425 11 39 361 406 331 260 174 32 393 349 5 183 
426 6 311 386 296 278 437 86 
427 11 301 292 398 86 328 439 423 373 211 360 380 
428 11 299 357 49 295 214 461 24 383 404 355 356 
429 11 365 289 356 404 24 387 214 288 383 295 455 
430 5 405 354 448 344 100 
431 11 9 240 440 325 432 61 385 457 446 326 335 
432 9 240 61 326 431 9 335 446 440 325 
433 9 307 378 461 293 346 243 49 363 415 
434 11 249 8 205 274 443 228 21 44 63 441 119 
435 7 375 302 313 81 300 332 442 
436 11 95 330 52 336 281 316 352 334 397 4 462 
437 9 296 256 426 328 292 398 311 386 86 
438 10 226 144 447 323 418 30 329 345 181 171 
439 11 301 380 373 395 427 191 451 86 398 314 360 
440 8 9 385 431 325 240 446 457 432 
441 11 227 205 443 212 419 8 149 312 206 274 434 
442 5 332 300 313 435 81 
443 11 205 434 419 441 8 249 276 119 227 274 312 
444 10 324 288 55 387 455 413 310 356 365 341 
445 11 374 139 60 337 451 380 395 191 439 373 350 
446 6 335 240 440 326 432 9 
447 11 144 30 438 329 323 226 345 171 418 178 181 
448 9 100 338 309 402 354 392 303 364 351 
449 11 368 412 77 140 223 98 82 117 389 147 358 
450 9 420 298 410 75 66 414 369 399 81 
451 11 191 395 380 350 439 301 346 373 314 86 445 
452 10 317 134 459 90 121 400 79 353 411 384 
453 11 101 211 320 256 423 161 328 245 292 319 437 
454 11 141 219 50 291 161 287 103 315 453 320 319 
455 10 24 310 214 341 295 356 324 355 444 365 
456 7 197 302 375 113 435 359 308 
457 8 325 385 366 440 9 431 390 240 
458 11 245 101 360 423 211 320 427 292 328 373 301 
459 11 134 317 452 79 121 400 353 384 403 339 333 
460 3 90 411 400 
461 10 49 378 357 299 415 428 355 307 295 214 
462 11 381 348 52 61 431 432 393 330 9 240 436 
DEPOT_SECTION
   1
   -1
EOF
