NAME :  X-n586-kX-w117-c7.cctp
COMMENT : 	Adapted by Maziero, Usberti and Cavellucci from the Uchoa, Pecin, Pessoa, Poggi, Subramanian, and Vidal (2013)
TYPE :  CCTP
DIMENSION :    411
EDGE_WEIGHT_TYPE : 	EUC_2D	
CAPACITY : 	28
VERTICES_WITHIN_COVERAGE :  7
VERTICES_WITH_DEMAND : 	117
NODE_COORD_SECTION
1 18 761
2 835 397
3 299 16
4 31 168
5 142 257
6 242 984
7 612 357
8 663 812
9 105 188
10 487 636
11 993 703
12 672 148
13 506 259
14 953 706
15 888 203
16 107 534
17 772 692
18 475 182
19 828 775
20 719 220
21 655 722
22 844 197
23 918 600
24 460 844
25 739 102
26 301 523
27 341 627
28 989 936
29 935 602
30 44 72
31 861 67
32 163 416
33 981 503
34 722 397
35 317 903
36 547 95
37 944 106
38 935 192
39 128 376
40 908 176
41 720 226
42 738 793
43 791 498
44 712 751
45 530 693
46 141 673
47 380 544
48 634 301
49 427 853
50 606 949
51 47 557
52 48 202
53 791 67
54 546 876
55 526 842
56 535 216
57 828 214
58 829 352
59 623 473
60 374 1000
61 74 187
62 275 415
63 726 789
64 51 597
65 894 395
66 159 743
67 301 893
68 755 946
69 978 261
70 709 153
71 391 153
72 876 370
73 846 725
74 604 107
75 117 709
76 507 89
77 348 744
78 476 204
79 181 957
80 948 710
81 158 788
82 414 685
83 358 66
84 196 732
85 283 343
86 456 931
87 5 468
88 459 43
89 555 414
90 94 964
91 558 360
92 641 424
93 132 16
94 777 947
95 25 205
96 852 45
97 5 686
98 400 682
99 501 234
100 905 968
101 492 971
102 817 114
103 651 941
104 817 643
105 735 937
106 333 829
107 223 584
108 306 412
109 209 663
110 206 549
111 542 691
112 296 10
113 215 747
114 148 641
115 9 553
116 411 59
117 382 800
118 824 612
119 608 727
120 481 574
121 169 950
122 350 608
123 396 536
124 36 459
125 359 339
126 798 917
127 10 569
128 813 10
129 569 627
130 692 467
131 247 413
132 738 487
133 508 327
134 158 986
135 983 244
136 637 109
137 357 374
138 361 972
139 365 701
140 582 957
141 712 996
142 932 452
143 60 66
144 252 267
145 944 435
146 338 688
147 900 168
148 583 871
149 852 59
150 921 72
151 845 534
152 387 253
153 812 354
154 5 404
155 590 575
156 930 128
157 184 742
158 832 466
159 285 346
160 548 976
161 32 531
162 966 58
163 31 40
164 162 539
165 621 425
166 802 495
167 385 493
168 769 329
169 921 15
170 854 678
171 943 122
172 103 285
173 304 739
174 398 212
175 335 459
176 43 108
177 400 255
178 822 749
179 783 760
180 218 360
181 321 463
182 403 172
183 218 490
184 44 456
185 430 570
186 509 572
187 639 505
188 984 435
189 479 341
190 207 937
191 709 700
192 235 795
193 557 130
194 270 964
195 482 320
196 836 272
197 509 379
198 961 329
199 819 754
200 648 809
201 640 892
202 838 79
203 552 232
204 831 306
205 503 726
206 486 958
207 571 837
208 162 504
209 458 845
210 378 389
211 458 127
212 929 786
213 364 368
214 579 971
215 662 173
216 320 524
217 894 787
218 428 736
219 554 560
220 94 22
221 581 840
222 693 830
223 355 662
224 24 276
225 946 348
226 844 433
227 877 594
228 556 739
229 503 462
230 264 505
231 782 143
232 919 703
233 958 559
234 90 181
235 794 485
236 267 35
237 322 883
238 376 52
239 487 982
240 541 423
241 36 607
242 101 687
243 657 754
244 372 421
245 695 294
246 174 686
247 128 560
248 926 32
249 540 223
250 334 635
251 125 661
252 473 467
253 129 401
254 247 415
255 725 544
256 284 155
257 200 281
258 822 540
259 306 433
260 887 520
261 714 539
262 780 97
263 464 94
264 951 329
265 785 333
266 677 811
267 232 689
268 595 733
269 690 901
270 735 816
271 37 189
272 332 670
273 16 13
274 17 419
275 986 893
276 2 931
277 603 900
278 452 820
279 846 825
280 625 965
281 474 942
282 350 832
283 267 929
284 456 850
285 254 899
286 132 768
287 437 848
288 140 810
289 449 950
290 186 798
291 322 852
292 270 978
293 954 920
294 389 874
295 273 852
296 900 963
297 563 823
298 162 793
299 444 918
300 541 906
301 34 189
302 130 980
303 237 386
304 517 985
305 539 823
306 55 50
307 498 853
308 121 190
309 72 175
310 744 860
311 44 63
312 43 203
313 115 299
314 185 933
315 5 191
316 15 221
317 366 999
318 898 981
319 214 965
320 677 912
321 188 671
322 312 929
323 976 943
324 51 48
325 40 708
326 183 409
327 877 967
328 27 179
329 171 936
330 932 1000
331 463 837
332 435 847
333 353 670
334 187 752
335 464 978
336 128 303
337 59 408
338 319 870
339 887 957
340 473 816
341 138 202
342 406 825
343 388 728
344 287 734
345 181 611
346 367 966
347 7 136
348 127 532
349 408 873
350 808 928
351 94 257
352 432 821
353 181 936
354 128 179
355 322 943
356 343 786
357 153 220
358 105 265
359 21 156
360 47 175
361 459 932
362 165 773
363 34 140
364 900 958
365 215 989
366 444 821
367 963 961
368 126 686
369 819 967
370 282 720
371 421 731
372 513 812
373 96 713
374 437 876
375 789 981
376 996 910
377 138 750
378 899 754
379 203 473
380 480 960
381 258 899
382 127 344
383 461 949
384 437 847
385 465 817
386 102 191
387 84 185
388 660 782
389 171 812
390 35 216
391 74 67
392 110 175
393 617 832
394 617 787
395 501 842
396 390 969
397 59 73
398 913 979
399 387 735
400 121 746
401 128 998
402 517 952
403 586 955
404 474 852
405 234 798
406 131 189
407 481 981
408 160 987
409 98 917
410 422 862
411 81 228
DEMAND_SECTION
2 9
3 7
4 6
5 5
6 7
7 10
8 9
9 8
10 9
11 8
12 6
13 6
14 5
15 10
16 9
17 7
18 9
19 7
20 9
21 6
22 5
23 7
24 10
25 7
26 6
27 9
28 9
29 10
30 7
31 7
32 9
33 10
34 5
35 6
36 8
37 10
38 8
39 5
40 8
41 10
42 8
43 10
44 7
45 5
46 8
47 9
48 7
49 10
50 5
51 6
52 10
53 9
54 9
55 10
56 6
57 8
58 10
59 9
60 10
61 9
62 7
63 5
64 8
65 10
66 6
67 9
68 5
69 7
70 8
71 8
72 10
73 10
74 5
75 8
76 8
77 8
78 6
79 10
80 6
81 9
82 7
83 9
84 10
85 6
86 9
87 6
88 10
89 5
90 9
91 8
92 5
93 5
94 5
95 10
96 5
97 8
98 6
99 6
100 10
101 6
102 5
103 10
104 7
105 9
106 5
107 8
108 8
109 6
110 5
111 6
112 5
113 6
114 6
115 7
116 8
117 6
118 6
COVERAGE_SECTION
2 7 226 58 72 153 65 158 265 
3 4 112 236 83 238 
4 6 328 359 360 301 271 363 
5 7 358 357 172 336 351 313 341 
6 7 365 292 194 319 190 283 79 
7 7 91 48 165 92 89 240 245 
8 7 266 200 388 222 393 394 243 
9 7 386 392 308 234 387 354 406 
10 7 120 186 45 111 129 185 82 
11 7 14 80 232 212 378 29 23 
12 7 215 70 136 74 25 20 41 
13 7 99 249 56 203 78 195 133 
14 7 80 232 11 378 212 217 170 
15 7 40 147 22 38 57 156 196 
16 7 348 247 164 208 51 161 64 
17 7 191 104 179 178 199 73 170 
18 7 78 99 211 56 182 249 13 
19 6 199 178 179 73 279 217 
20 7 41 70 215 245 12 231 57 
21 7 243 119 191 388 268 44 394 
22 7 57 15 147 40 196 231 102 
23 7 29 227 233 260 118 151 170 
24 7 209 284 331 404 287 384 278 
25 7 262 70 231 53 102 12 136 
26 7 216 230 181 175 47 167 183 
27 7 250 122 223 272 333 146 139 
28 5 323 376 367 293 275 
29 7 23 233 227 260 232 14 33 
30 7 311 397 143 306 324 391 163 
31 7 149 96 202 150 102 53 248 
32 7 326 253 39 379 180 303 382 
33 7 233 188 142 145 260 29 23 
34 7 130 168 92 265 132 153 165 
35 7 67 237 322 338 355 291 283 
36 7 193 76 74 263 136 211 88 
37 7 171 156 150 162 147 248 40 
38 7 40 147 15 156 171 135 69 
39 6 253 382 32 326 336 337 
40 7 147 38 15 156 171 22 37 
41 7 20 245 70 215 12 231 57 
42 7 63 270 44 179 222 266 310 
43 7 166 235 158 258 132 151 255 
44 7 63 42 191 243 388 21 266 
45 6 111 205 228 10 268 129 
46 7 251 368 114 246 242 75 321 
47 7 123 167 185 216 122 26 27 
48 7 7 245 91 203 41 20 249 
49 7 332 410 287 384 374 349 284 
50 7 403 140 280 214 103 277 160 
51 7 161 115 127 64 241 16 247 
52 7 312 271 301 390 95 360 61 
53 7 262 202 102 128 149 25 96 
54 5 300 148 55 207 221 
55 6 305 395 307 372 54 297 
56 7 249 203 99 13 78 18 193 
57 7 22 196 15 147 231 40 204 
58 7 153 2 204 265 72 168 65 
59 7 187 165 92 130 89 240 155 
60 4 317 138 346 396 
61 6 387 309 234 386 52 360 
62 7 131 254 108 259 303 181 159 
63 7 42 270 44 222 266 179 388 
64 7 241 51 127 115 161 16 247 
65 7 72 2 226 145 142 225 58 
66 7 377 157 334 362 286 400 84 
67 7 35 237 338 322 381 291 285 
68 7 94 105 375 126 350 141 369 
69 7 135 198 264 38 225 15 40 
70 7 12 215 25 20 41 231 136 
71 7 182 174 211 18 83 263 116 
72 7 65 2 58 153 226 225 204 
73 7 178 199 170 19 378 179 232 
74 7 136 193 36 12 215 76 70 
75 7 373 368 242 400 46 377 251 
76 7 36 263 211 193 88 18 74 
77 7 399 356 343 173 139 146 344 
78 7 18 99 56 13 249 174 211 
79 7 121 353 329 314 190 319 134 
80 7 14 232 11 378 212 217 170 
81 6 298 362 389 288 290 286 
82 7 98 371 343 139 218 399 223 
83 7 238 116 3 112 71 236 88 
84 7 157 334 113 66 246 362 267 
85 7 159 303 180 62 108 125 131 
86 5 361 299 383 289 281 
87 7 124 184 274 154 161 337 115 
88 7 116 263 76 238 211 36 83 
89 7 240 91 197 165 229 7 92 
90 4 302 409 401 134 
91 7 197 7 89 133 240 189 195 
92 7 165 59 130 7 187 34 89 
93 2 220 391 
94 6 68 350 375 126 105 369 
95 7 390 301 312 316 271 52 315 
96 7 149 31 202 128 53 150 169 
97 5 325 241 373 242 64 
98 7 82 139 343 223 333 371 399 
99 7 13 56 78 249 203 18 195 
100 5 296 364 398 318 339 
101 7 239 206 407 380 304 335 402 
102 7 202 262 231 53 31 149 96 
103 7 280 320 50 201 269 277 403 
104 7 118 170 17 227 73 258 178 
105 7 68 94 269 141 320 126 375 
106 7 282 291 338 356 237 117 295 
107 7 110 345 164 109 230 114 183 
108 7 259 62 181 175 131 254 137 
109 7 321 267 246 345 114 46 84 
110 7 107 164 183 208 345 230 379 
111 6 45 228 205 268 129 119 
112 4 3 236 83 238 
113 7 84 334 157 192 405 66 362 
114 7 251 46 345 321 368 246 109 
115 7 127 161 51 241 64 87 124 
116 7 238 88 83 263 211 71 76 
117 7 342 356 282 352 106 366 399 
118 7 104 227 170 258 151 17 23 
119 6 268 21 228 243 394 111 
120 7 186 185 10 219 123 129 47 
121 5 79 329 353 314 134 
122 7 27 250 223 333 272 47 146 
123 7 47 167 185 216 122 120 26 
124 7 184 87 274 337 154 161 115 
125 6 213 137 210 159 85 244 
126 4 350 94 68 369 
127 7 115 51 161 241 64 87 16 
128 7 96 53 149 202 31 262 102 
129 7 155 111 219 45 186 10 120 
130 7 132 187 92 59 261 34 165 
131 7 254 62 303 108 180 259 326 
132 7 130 43 235 261 255 166 34 
133 6 195 189 197 91 13 99 
134 6 408 302 401 79 121 329 
135 7 69 38 198 264 40 15 225 
136 7 74 12 215 193 70 36 25 
137 6 213 210 125 244 108 159 
138 6 346 317 396 60 355 322 
139 7 146 333 343 98 223 399 272 
140 7 403 214 50 160 280 277 300 
141 7 105 68 375 94 103 320 280 
142 7 145 188 65 33 260 226 72 
143 6 397 391 311 30 306 324 
144 4 257 85 159 180 
145 7 142 188 65 33 225 72 226 
146 7 272 333 139 223 250 77 27 
147 7 40 15 38 156 22 171 37 
148 7 221 277 207 54 297 393 300 
149 7 31 96 202 53 128 102 150 
150 7 248 37 162 171 156 169 31 
151 7 258 260 166 43 227 158 235 
152 6 177 174 182 125 71 78 
153 7 58 265 2 168 204 72 196 
154 7 274 337 124 87 184 253 39 
155 7 219 129 186 187 59 120 10 
156 7 171 37 147 40 150 38 162 
157 7 334 84 66 113 362 377 81 
158 7 226 166 235 43 2 151 258 
159 7 85 303 180 108 62 125 131 
160 7 214 304 140 402 403 101 239 
161 7 51 115 127 64 87 124 16 
162 7 150 248 37 169 171 156 31 
163 6 324 306 311 273 30 143 
164 7 208 348 247 110 16 183 345 
165 7 92 59 89 7 240 130 187 
166 7 43 235 158 258 151 132 226 
167 7 123 47 175 181 216 244 26 
168 7 265 153 58 204 245 34 196 
169 7 248 150 162 96 31 149 37 
170 7 73 104 232 118 178 17 199 
171 7 156 37 150 147 40 162 38 
172 5 313 358 351 336 5 
173 7 344 370 77 146 356 139 272 
174 7 182 152 177 71 78 18 211 
175 7 181 259 244 108 167 216 26 
176 2 363 30 
177 6 152 174 182 78 125 71 
178 7 199 19 73 179 17 378 170 
179 7 199 178 19 42 63 17 44 
180 7 303 131 326 254 85 159 32 
181 7 175 259 108 216 26 62 244 
182 7 71 174 211 18 78 152 177 
183 7 379 230 208 110 164 254 131 
184 7 124 87 274 337 154 161 16 
185 7 123 120 47 186 10 122 167 
186 7 120 219 10 185 129 155 229 
187 7 59 130 92 165 261 155 255 
188 7 145 142 33 225 65 198 264 
189 6 195 133 197 91 13 240 
190 6 314 353 319 79 329 121 
191 7 44 21 17 243 63 179 388 
192 3 405 290 113 
193 7 36 74 76 136 56 249 18 
194 6 292 6 283 322 319 355 
195 6 189 133 197 13 91 99 
196 7 204 57 22 58 265 153 15 
197 7 189 133 91 240 89 195 229 
198 7 264 225 69 135 65 72 145 
199 7 178 19 179 73 279 17 378 
200 7 8 266 388 394 393 222 243 
201 7 277 320 103 269 148 393 50 
202 7 149 31 96 102 53 262 128 
203 7 249 56 99 13 78 18 193 
204 7 196 58 153 265 168 72 2 
205 5 45 111 228 218 371 
206 6 380 101 281 239 407 383 
207 6 221 297 305 148 55 54 
208 7 164 348 379 183 16 110 247 
209 7 24 284 331 404 287 384 332 
210 6 213 137 244 125 108 175 
211 7 263 18 76 182 71 78 116 
212 4 217 378 80 14 
213 6 137 210 125 244 108 159 
214 7 140 403 160 50 280 304 402 
215 7 12 70 136 20 41 74 25 
216 7 26 230 181 47 175 167 123 
217 4 378 212 279 19 
218 7 371 343 399 82 98 139 205 
219 7 155 186 129 120 10 187 229 
220 5 93 306 391 324 143 
221 6 207 297 148 393 305 54 
222 7 266 8 270 200 63 42 388 
223 7 333 272 146 250 27 139 98 
224 6 316 390 95 351 312 411 
225 7 264 198 65 72 145 69 188 
226 7 158 2 65 72 235 166 58 
227 7 23 118 29 151 260 104 258 
228 5 268 111 45 119 205 
229 7 252 240 89 197 186 219 120 
230 7 26 183 216 379 181 110 259 
231 7 102 262 25 70 53 22 57 
232 7 80 14 378 170 11 73 212 
233 7 29 23 33 260 227 142 151 
234 5 387 386 9 61 309 
235 7 43 166 158 132 258 151 226 
236 4 3 112 83 238 
237 6 338 35 67 291 322 106 
238 7 83 116 88 3 112 263 71 
239 7 407 101 335 380 206 304 281 
240 7 89 197 229 91 165 252 59 
241 7 64 127 51 115 161 97 325 
242 6 368 373 75 251 46 400 
243 7 388 21 394 44 119 200 8 
244 7 210 137 175 213 181 108 259 
245 7 48 41 20 168 265 7 34 
246 7 321 46 109 368 84 114 251 
247 7 348 16 164 208 345 110 51 
248 7 169 150 162 31 96 37 149 
249 7 56 203 99 13 78 18 193 
250 7 27 122 223 272 333 146 139 
251 7 46 368 114 242 75 246 373 
252 7 229 240 167 197 89 123 120 
253 6 39 32 326 382 337 180 
254 7 131 62 303 108 180 259 326 
255 7 261 132 43 130 166 235 187 
256 1 71 
257 6 144 5 336 357 180 313 
258 7 151 166 43 235 260 118 158 
259 7 108 181 62 175 131 254 244 
260 7 151 258 227 158 233 142 23 
261 7 255 132 130 187 43 235 166 
262 7 53 25 102 231 202 149 31 
263 7 211 76 88 116 36 18 71 
264 7 198 225 69 72 65 135 145 
265 7 168 153 58 204 196 2 34 
266 7 8 222 200 388 63 270 243 
267 7 109 321 84 246 370 113 344 
268 6 119 228 394 21 243 111 
269 7 320 201 103 105 310 222 68 
270 7 42 63 222 310 266 44 8 
271 7 301 328 312 52 360 95 4 
272 7 146 333 223 250 27 139 122 
273 6 163 324 306 311 30 143 
274 7 154 337 124 184 87 161 253 
275 4 376 293 28 323 
276 2 409 90 
277 7 148 201 50 403 140 54 300 
278 7 366 385 331 352 340 24 209 
279 2 19 217 
280 7 50 103 403 140 214 277 320 
281 5 383 361 380 206 86 
282 6 106 291 117 356 338 342 
283 6 381 285 194 322 292 67 
284 6 209 24 331 404 287 384 
285 4 381 283 67 295 
286 5 377 400 81 362 66 
287 7 384 332 49 284 209 410 24 
288 1 81 
289 3 383 86 361 
290 4 389 298 81 362 
291 7 338 106 237 282 67 295 35 
292 6 194 6 283 365 319 355 
293 2 323 28 
294 4 349 410 49 374 
295 5 291 338 381 67 285 
296 5 364 100 339 318 398 
297 6 207 305 221 55 372 148 
298 5 81 362 389 290 288 
299 2 86 361 
300 3 54 402 148 
301 7 271 328 312 95 52 360 4 
302 6 401 134 408 90 121 79 
303 7 131 254 180 62 326 159 85 
304 7 101 239 160 402 407 206 380 
305 5 55 297 372 207 395 
306 6 324 143 311 397 30 391 
307 3 395 404 55 
308 7 406 354 9 386 392 341 234 
309 4 61 387 234 360 
310 7 270 222 42 269 63 105 126 
311 7 30 143 306 324 397 163 391 
312 7 52 271 390 301 95 360 328 
313 6 336 172 358 351 382 5 
314 5 353 329 190 121 79 
315 7 95 328 301 271 316 4 359 
316 7 95 390 315 312 301 52 271 
317 5 60 138 346 396 355 
318 6 100 398 296 364 327 339 
319 7 365 190 6 79 314 353 121 
320 7 269 103 201 105 280 277 50 
321 7 246 109 46 267 114 345 84 
322 6 355 35 67 283 237 194 
323 4 28 367 293 376 
324 6 306 311 143 163 30 397 
325 3 97 373 242 
326 7 32 253 303 180 39 131 254 
327 5 339 296 318 364 100 
328 7 4 301 271 360 359 315 95 
329 4 353 121 314 79 
330 4 398 318 100 296 
331 7 24 209 284 404 278 385 340 
332 7 287 384 49 410 284 209 24 
333 7 223 272 146 139 250 27 98 
334 7 157 84 113 66 362 81 290 
335 6 407 239 380 101 383 206 
336 6 313 172 382 358 5 351 
337 7 274 184 154 124 253 39 87 
338 7 237 291 67 35 106 282 295 
339 4 364 296 327 100 
340 5 385 278 331 366 24 
341 6 406 308 357 354 9 386 
342 7 352 49 117 332 366 384 287 
343 7 399 371 139 218 77 98 82 
344 7 370 173 77 146 267 113 356 
345 7 114 107 109 321 110 46 164 
346 5 138 396 317 60 355 
347 3 359 363 4 
348 7 16 247 164 208 110 51 161 
349 4 410 294 49 374 
350 3 126 94 369 
351 5 358 172 411 313 5 
352 7 366 278 332 342 384 287 49 
353 5 314 329 121 79 190 
354 6 406 308 392 9 341 386 
355 6 322 35 138 346 67 194 
356 7 117 77 106 282 173 399 291 
357 4 341 406 5 308 
358 6 351 172 313 5 336 411 
359 5 4 363 328 347 360 
360 7 4 271 301 328 309 52 312 
361 5 86 383 281 289 299 
362 7 81 298 334 66 286 290 377 
363 3 359 347 4 
364 3 296 100 339 
365 7 319 6 79 190 408 292 134 
366 7 278 352 385 331 384 24 209 
367 2 323 28 
368 7 46 75 242 251 373 246 114 
369 3 375 350 94 
370 7 344 173 267 146 77 272 113 
371 7 218 343 399 82 98 139 77 
372 4 305 395 55 340 
373 6 75 242 368 400 325 377 
374 3 410 49 287 
375 4 369 94 68 350 
376 5 275 28 323 293 367 
377 5 400 286 66 362 81 
378 6 217 212 232 73 80 14 
379 7 183 208 326 230 32 254 131 
380 6 206 101 281 407 383 239 
381 4 285 283 67 295 
382 6 39 336 313 253 172 32 
383 5 289 281 361 86 380 
384 7 287 332 49 284 209 410 24 
385 6 340 278 331 366 24 209 
386 7 9 234 392 308 387 61 354 
387 5 234 61 309 386 9 
388 7 243 8 200 266 394 222 21 
389 4 290 298 81 288 
390 7 95 312 52 316 271 301 328 
391 5 143 397 306 30 311 
392 6 9 354 386 308 234 406 
393 6 221 200 394 207 8 148 
394 6 200 388 393 8 243 268 
395 4 307 55 404 372 
396 4 346 138 60 317 
397 6 143 30 391 311 306 324 
398 5 100 318 296 364 330 
399 7 343 371 77 139 218 98 82 
400 5 377 286 75 66 373 
401 6 302 134 408 90 121 79 
402 5 101 206 304 380 160 
403 7 140 214 50 280 160 277 103 
404 5 24 209 284 331 307 
405 3 192 290 113 
406 6 308 354 341 392 9 386 
407 7 239 101 335 380 206 304 383 
408 6 134 302 401 79 121 329 
409 1 90 
410 6 49 349 332 287 374 384 
411 6 351 52 61 386 387 358 
DEPOT_SECTION
   1
   -1
EOF
