NAME :  X-n536-kX-w53-c9.cctp
COMMENT : 	Adapted by Maziero, Usberti and Cavellucci from the Uchoa, Pecin, Pessoa, Poggi, Subramanian, and Vidal (2013)
TYPE :  CCTP
DIMENSION :    366
EDGE_WEIGHT_TYPE : 	EUC_2D	
CAPACITY : 	371
VERTICES_WITHIN_COVERAGE :  9
VERTICES_WITH_DEMAND : 	53
NODE_COORD_SECTION
1 500 500
2 957 135
3 149 141
4 1 96
5 228 268
6 781 529
7 867 797
8 109 53
9 9 127
10 258 317
11 89 54
12 167 155
13 739 534
14 962 896
15 975 122
16 960 68
17 205 52
18 841 806
19 739 677
20 90 192
21 842 772
22 972 143
23 27 85
24 953 240
25 185 211
26 652 428
27 764 523
28 159 142
29 101 113
30 879 837
31 885 326
32 953 118
33 777 491
34 65 66
35 976 171
36 961 748
37 710 493
38 778 708
39 277 223
40 88 112
41 172 57
42 2 209
43 121 64
44 938 29
45 166 160
46 142 97
47 84 284
48 269 224
49 940 727
50 876 822
51 131 169
52 951 768
53 278 21
54 292 280
55 94 96
56 270 368
57 852 777
58 170 200
59 951 777
60 756 532
61 101 29
62 136 52
63 953 784
64 170 135
65 172 133
66 735 672
67 837 833
68 723 538
69 931 862
70 214 45
71 938 2
72 918 296
73 931 760
74 994 40
75 115 120
76 138 134
77 764 502
78 962 408
79 888 216
80 100 131
81 15 209
82 782 310
83 922 706
84 279 265
85 750 566
86 276 393
87 761 503
88 116 205
89 95 100
90 261 357
91 288 231
92 245 331
93 815 790
94 257 215
95 949 42
96 83 118
97 529 414
98 462 64
99 146 141
100 618 497
101 954 95
102 133 147
103 938 798
104 92 54
105 866 805
106 74 30
107 120 81
108 69 324
109 719 569
110 788 550
111 120 172
112 14 196
113 179 85
114 171 66
115 861 867
116 617 454
117 28 140
118 91 118
119 880 814
120 670 343
121 940 211
122 708 548
123 695 683
124 71 239
125 804 481
126 181 205
127 987 269
128 193 200
129 156 48
130 169 133
131 52 78
132 636 413
133 661 518
134 227 248
135 122 18
136 786 523
137 960 117
138 958 161
139 752 556
140 24 141
141 116 95
142 371 175
143 937 88
144 22 198
145 882 774
146 639 445
147 810 457
148 127 62
149 5 118
150 876 63
151 174 145
152 778 665
153 22 131
154 196 67
155 261 221
156 782 505
157 220 252
158 173 150
159 14 85
160 779 840
161 726 649
162 789 502
163 139 183
164 866 897
165 853 747
166 863 901
167 155 178
168 969 132
169 299 256
170 158 110
171 159 108
172 125 34
173 22 156
174 573 369
175 6 58
176 917 123
177 240 291
178 986 55
179 253 263
180 943 195
181 30 327
182 778 781
183 981 137
184 954 848
185 797 822
186 954 250
187 225 255
188 174 53
189 956 816
190 214 280
191 805 500
192 185 185
193 65 68
194 207 260
195 156 61
196 927 138
197 140 191
198 176 26
199 991 261
200 929 775
201 153 149
202 185 155
203 230 56
204 170 174
205 239 290
206 781 515
207 99 71
208 148 140
209 791 748
210 924 218
211 310 69
212 736 530
213 701 510
214 63 50
215 230 7
216 695 484
217 242 319
218 961 173
219 110 95
220 189 198
221 978 223
222 47 97
223 959 147
224 156 229
225 169 153
226 936 80
227 205 289
228 951 155
229 191 58
230 126 58
231 722 532
232 921 656
233 85 69
234 810 844
235 113 73
236 862 810
237 25 56
238 203 221
239 969 661
240 719 562
241 241 314
242 764 525
243 573 430
244 276 185
245 247 342
246 295 317
247 815 268
248 863 815
249 94 122
250 873 783
251 964 182
252 303 71
253 801 527
254 743 469
255 263 62
256 691 763
257 981 160
258 226 261
259 231 277
260 0 66
261 48 108
262 848 757
263 203 265
264 98 266
265 148 150
266 988 69
267 741 524
268 961 140
269 132 74
270 828 773
271 785 734
272 142 62
273 781 499
274 980 94
275 26 148
276 981 717
277 797 521
278 875 253
279 502 408
280 5 77
281 164 234
282 63 110
283 117 104
284 900 127
285 319 211
286 109 209
287 696 686
288 293 351
289 167 171
290 357 171
291 183 209
292 99 228
293 897 821
294 219 49
295 188 30
296 261 197
297 958 11
298 824 818
299 156 230
300 109 154
301 194 32
302 995 157
303 180 73
304 98 90
305 946 255
306 953 881
307 883 804
308 109 131
309 883 880
310 242 262
311 232 252
312 352 260
313 362 335
314 64 199
315 890 788
316 901 823
317 942 120
318 662 470
319 300 261
320 967 790
321 965 126
322 102 58
323 116 327
324 1000 129
325 814 388
326 311 229
327 161 159
328 106 161
329 287 271
330 695 660
331 169 94
332 769 555
333 158 72
334 35 268
335 790 842
336 80 321
337 89 287
338 978 234
339 223 78
340 865 815
341 883 795
342 113 268
343 101 121
344 152 191
345 209 267
346 759 490
347 674 703
348 109 317
349 46 93
350 741 662
351 924 148
352 730 561
353 910 118
354 21 113
355 72 281
356 961 782
357 158 80
358 926 766
359 989 133
360 21 106
361 802 534
362 928 976
363 134 76
364 901 235
365 348 278
366 31 94
DEMAND_SECTION
2 22
3 94
4 52
5 51
6 54
7 96
8 96
9 82
10 77
11 82
12 55
13 78
14 77
15 40
16 47
17 89
18 77
19 94
20 78
21 81
22 37
23 66
24 8
25 79
26 24
27 70
28 80
29 100
30 53
31 30
32 10
33 34
34 63
35 29
36 80
37 41
38 80
39 62
40 100
41 66
42 79
43 71
44 29
45 94
46 99
47 59
48 57
49 93
50 52
51 54
52 65
53 64
54 52
COVERAGE_SECTION
2 9 268 168 223 321 22 32 137 228 317 
3 9 208 99 201 265 28 76 102 64 130 
4 9 159 280 149 360 354 23 260 366 9 
5 9 258 259 187 310 311 157 190 345 134 
6 9 136 206 242 27 277 253 110 361 156 
7 9 105 236 250 341 307 248 340 119 57 
8 9 322 43 104 230 11 148 235 207 61 
9 9 149 153 354 140 117 360 275 4 173 
10 9 217 241 92 245 177 205 246 90 259 
11 8 104 322 233 8 207 214 34 61 
12 9 225 45 327 158 151 28 201 289 202 
13 9 212 267 68 60 231 139 27 242 352 
14 7 306 69 184 189 309 362 316 
15 9 321 168 137 183 359 22 2 32 268 
16 9 226 95 101 266 178 143 274 74 44 
17 9 70 294 229 154 301 203 295 188 339 
18 9 236 298 248 105 340 67 7 57 93 
19 8 66 350 161 152 123 287 330 38 
20 7 286 314 88 328 111 292 300 
21 9 57 270 262 165 93 250 18 7 145 
22 9 168 183 268 223 2 321 257 359 15 
23 9 366 159 349 360 222 280 131 4 237 
24 9 186 305 338 221 121 210 199 127 180 
25 7 291 126 128 220 58 238 192 
26 9 146 132 318 116 216 100 243 37 120 
27 9 242 60 6 206 87 77 136 267 156 
28 9 201 3 208 64 99 130 265 12 151 
29 9 343 118 249 40 89 75 55 80 283 
30 9 50 119 293 316 340 248 236 307 105 
31 8 72 278 247 364 305 325 186 82 
32 9 137 317 321 2 168 15 101 268 223 
33 9 273 156 162 77 346 87 206 125 191 
34 7 193 214 131 233 11 104 349 
35 9 257 218 251 138 302 22 223 228 183 
36 9 52 49 59 73 356 63 276 358 200 
37 9 216 213 231 254 267 212 68 346 13 
38 7 271 209 152 19 66 350 182 
39 6 48 91 155 94 296 326 
40 9 118 96 249 29 89 343 55 80 304 
41 9 188 114 195 129 303 229 333 154 357 
42 8 81 112 144 173 314 275 334 140 
43 9 148 230 235 269 8 107 363 62 322 
44 9 95 71 297 16 226 178 74 143 266 
45 9 12 327 225 289 158 204 151 201 28 
46 9 171 170 363 357 269 141 283 107 331 
47 8 337 355 264 342 336 348 108 124 
48 5 39 155 94 91 296 
49 9 83 36 73 358 52 276 200 59 63 
50 9 119 340 30 248 236 307 105 293 316 
51 9 111 163 102 197 265 167 328 300 201 
52 9 59 63 356 36 73 200 358 320 103 
53 7 255 215 252 211 203 294 70 
54 9 329 84 319 169 246 179 91 10 177 
55 7 89 304 219 40 29 118 141 
56 8 90 86 288 245 92 10 217 246 
57 9 21 262 250 270 7 145 165 18 105 
58 7 126 291 25 220 344 192 128 
59 9 63 52 356 320 200 103 73 358 36 
60 9 242 27 13 267 212 139 6 332 87 
61 7 135 8 172 104 106 11 322 
62 8 230 272 148 43 129 172 195 269 
63 9 59 356 320 52 103 200 189 358 73 
64 7 130 65 151 28 158 225 12 
65 7 64 130 151 28 158 225 12 
66 8 19 350 161 123 287 330 152 38 
67 9 298 18 234 248 340 236 105 50 185 
68 9 231 212 13 122 267 240 352 109 60 
69 7 184 306 14 316 309 189 293 
70 9 294 17 203 301 229 154 295 339 188 
71 9 297 44 95 74 16 178 226 266 143 
72 9 31 305 186 278 364 24 127 210 199 
73 9 358 200 52 59 36 63 49 356 103 
74 9 178 266 16 95 297 274 44 71 101 
75 8 308 343 29 283 80 249 118 141 
76 9 99 208 3 102 265 201 28 75 308 
77 9 87 346 33 273 156 27 206 242 162 
78 2 31 72 
79 6 364 210 278 121 180 24 
80 6 308 343 249 118 29 75 
81 8 42 112 144 314 173 275 334 124 
82 3 247 325 31 
83 4 49 232 73 36 
84 9 329 54 319 169 179 91 310 39 48 
85 8 139 352 332 109 240 13 60 68 
86 7 56 90 288 245 92 10 246 
87 9 77 346 27 33 273 156 242 206 162 
88 7 286 197 20 292 163 111 51 
89 7 55 304 29 40 219 118 96 
90 8 56 245 92 288 86 10 217 241 
91 9 39 48 326 169 155 319 84 94 285 
92 8 245 217 241 10 90 177 205 56 
93 9 270 298 18 21 185 182 57 262 67 
94 4 155 48 296 39 
95 9 44 16 297 178 226 71 74 266 143 
96 8 40 118 249 343 29 80 89 282 
97 8 279 243 174 116 132 146 100 26 
98 5 142 290 211 252 53 
99 9 208 3 265 76 201 28 102 327 130 
100 6 116 133 318 146 26 216 
101 9 143 32 137 226 274 16 317 321 15 
102 8 76 99 265 3 208 201 51 300 
103 7 63 59 189 200 356 320 52 
104 8 11 322 8 233 207 61 235 214 
105 9 236 7 248 340 119 307 50 341 250 
106 4 214 61 11 104 
107 8 235 269 141 363 43 219 148 207 
108 7 336 181 348 337 47 355 323 
109 8 240 352 122 68 85 139 231 13 
110 7 332 361 6 253 136 277 242 
111 7 51 328 300 163 102 197 88 
112 8 144 81 42 173 275 314 140 117 
113 7 303 331 114 357 154 333 41 
114 9 41 303 188 333 195 357 113 229 129 
115 7 309 164 166 30 67 50 248 
116 8 146 100 26 132 318 243 133 216 
117 6 140 275 153 173 9 354 
118 8 249 40 96 343 29 80 89 55 
119 9 50 307 340 105 248 236 293 341 7 
120 6 132 26 174 146 82 116 
121 9 180 210 24 251 221 186 218 305 338 
122 8 68 240 231 109 352 212 13 213 
123 7 287 330 347 66 19 161 350 
124 8 292 264 314 355 334 47 286 20 
125 8 191 147 162 33 273 156 206 277 
126 7 291 25 220 58 128 192 238 
127 9 199 338 186 305 24 221 72 121 210 
128 7 220 126 291 25 192 58 238 
129 8 195 41 188 62 272 114 333 198 
130 7 64 65 28 151 158 225 3 
131 9 193 349 34 222 23 366 214 261 233 
132 9 26 146 116 318 243 174 120 100 216 
133 6 213 100 216 318 37 122 
134 5 311 187 157 258 5 
135 4 172 61 8 62 
136 9 6 206 277 253 156 361 162 27 242 
137 9 32 321 15 168 2 317 101 268 22 
138 9 228 218 223 35 268 251 22 257 2 
139 8 85 332 352 60 13 212 242 68 
140 7 117 275 153 173 9 354 149 
141 8 219 283 107 304 55 89 235 29 
142 7 290 285 326 312 244 91 39 
143 9 226 101 16 317 32 137 176 353 274 
144 7 112 81 42 173 314 275 140 
145 7 250 315 341 7 57 307 105 
146 9 26 116 132 318 100 216 243 133 37 
147 5 125 191 33 162 273 
148 9 230 43 62 269 272 363 235 8 107 
149 9 9 354 360 153 4 140 117 159 366 
150 6 226 353 143 284 44 176 
151 8 158 225 64 12 65 130 28 202 
152 5 350 19 38 66 161 
153 8 140 117 9 275 354 149 173 360 
154 7 229 17 303 113 114 41 188 
155 4 94 48 39 296 
156 9 273 162 206 33 77 136 87 277 6 
157 6 187 134 258 311 194 5 
158 8 151 225 12 45 202 64 327 28 
159 9 280 23 4 366 360 260 175 354 237 
160 8 335 185 234 298 67 182 93 18 
161 7 350 66 19 330 123 287 152 
162 9 156 273 206 33 191 136 277 77 125 
163 7 197 344 51 167 111 289 88 
164 5 166 309 115 30 67 
165 4 262 21 57 270 
166 4 164 309 115 30 
167 7 344 289 204 163 197 327 45 
168 9 321 22 268 2 15 183 137 223 359 
169 9 319 329 84 54 91 326 39 48 179 
170 8 171 331 46 130 65 64 357 76 
171 8 170 331 46 130 65 357 64 113 
172 7 135 62 230 8 61 148 43 
173 5 275 140 117 153 9 
174 8 243 97 132 279 116 26 120 146 
175 6 260 237 280 159 23 4 
176 8 353 284 196 317 351 32 143 2 
177 9 205 259 241 5 190 217 310 179 10 
178 9 266 74 16 95 274 101 297 44 226 
179 8 310 311 5 84 259 258 187 134 
180 9 121 251 218 210 138 35 228 221 24 
181 7 108 336 334 355 47 337 348 
182 9 209 93 185 271 270 160 298 335 21 
183 9 359 22 168 15 321 268 324 257 2 
184 7 69 189 306 14 103 316 320 
185 9 335 160 234 298 93 67 182 18 270 
186 9 305 24 338 221 127 199 121 210 364 
187 7 157 258 134 311 5 310 194 
188 9 41 114 229 129 195 303 333 154 198 
189 7 103 320 63 184 356 59 52 
190 9 227 345 259 5 263 194 258 187 205 
191 8 162 125 277 156 273 253 206 33 
192 8 220 128 204 126 58 289 291 25 
193 8 34 131 214 233 11 104 349 207 
194 7 263 345 157 187 258 190 5 
195 9 333 129 272 41 114 357 188 62 269 
196 9 351 176 317 353 228 284 2 32 223 
197 7 163 344 167 51 88 111 58 
198 6 295 301 188 129 41 229 
199 9 127 338 186 221 24 305 121 210 72 
200 7 358 73 59 52 103 63 356 
201 9 265 3 28 208 99 327 12 225 45 
202 7 158 151 225 12 45 204 289 
203 8 294 70 339 17 255 154 229 301 
204 8 289 45 167 327 12 192 225 158 
205 9 177 259 241 5 190 310 217 179 258 
206 9 136 156 6 162 273 277 27 242 77 
207 7 322 233 235 104 304 11 8 
208 9 3 99 201 265 28 76 102 130 64 
209 8 271 182 38 270 93 21 262 165 
210 8 121 364 180 24 79 305 186 221 
211 4 252 255 53 203 
212 9 13 267 231 68 60 242 27 139 352 
213 9 37 216 231 68 122 212 133 267 13 
214 6 34 193 106 11 104 233 
215 9 70 294 301 295 203 53 17 198 229 
216 9 37 213 318 133 254 231 68 267 212 
217 8 241 92 10 245 177 205 90 259 
218 9 251 138 35 228 257 223 180 22 268 
219 8 141 283 304 55 89 107 29 235 
220 7 128 126 291 25 192 58 238 
221 9 338 24 186 121 199 251 180 305 127 
222 8 349 261 366 131 282 23 360 354 
223 9 268 228 2 22 138 168 321 183 218 
224 5 299 281 58 25 291 
225 9 12 158 45 151 327 28 201 202 64 
226 9 143 101 16 95 317 32 137 274 353 
227 7 190 345 263 194 259 5 205 
228 9 138 223 268 2 218 22 351 168 196 
229 9 154 17 188 41 303 114 70 301 295 
230 9 148 43 62 272 269 8 235 363 107 
231 9 68 212 13 122 267 213 240 352 60 
232 3 239 83 49 
233 7 207 11 104 34 193 322 304 
234 8 335 185 67 298 160 18 93 115 
235 8 107 43 207 148 269 322 8 230 
236 9 248 105 340 7 50 119 18 307 341 
237 5 175 260 23 280 159 
238 5 25 128 291 126 220 
239 6 232 276 83 49 36 73 
240 9 109 352 122 68 231 85 13 139 212 
241 8 217 10 92 177 205 245 259 190 
242 9 27 60 6 206 87 136 77 267 13 
243 9 97 116 174 132 146 279 26 100 318 
244 5 296 94 39 155 48 
245 8 92 90 217 10 241 56 288 177 
246 9 288 10 54 329 90 92 217 84 241 
247 4 82 278 79 31 
248 9 340 236 105 50 119 7 307 18 30 
249 8 118 343 29 80 40 96 308 75 
250 9 145 7 341 315 57 105 307 236 119 
251 9 218 35 138 180 257 228 223 121 22 
252 4 211 255 53 203 
253 7 277 361 136 6 206 110 191 
254 9 346 87 77 33 37 273 216 156 267 
255 5 203 252 339 53 294 
256 7 347 287 123 182 19 271 66 
257 9 35 302 22 138 183 218 223 251 268 
258 8 187 5 157 311 134 310 259 345 
259 9 5 205 177 190 258 310 187 345 311 
260 6 175 280 159 237 4 23 
261 8 222 282 349 366 354 360 131 23 
262 6 165 21 57 270 250 145 
263 8 194 345 190 157 258 187 227 5 
264 6 342 47 337 355 124 292 
265 9 201 3 99 208 28 102 327 76 12 
266 9 178 274 16 74 101 95 226 143 15 
267 9 212 13 60 231 27 68 242 87 77 
268 9 2 223 22 168 321 228 183 138 15 
269 9 363 148 107 43 272 230 235 62 46 
270 9 21 93 57 262 18 165 209 298 7 
271 7 209 38 182 270 93 262 21 
272 9 62 195 148 230 269 363 333 129 43 
273 9 156 33 162 206 77 87 191 346 136 
274 9 101 266 15 137 16 321 32 178 168 
275 5 140 117 173 153 9 
276 9 36 49 239 52 83 73 59 356 63 
277 8 253 136 361 206 6 162 156 191 
278 7 364 79 210 72 247 305 31 
279 8 97 243 174 116 132 146 100 26 
280 9 159 260 4 175 23 237 366 360 354 
281 5 224 299 25 291 126 
282 6 261 222 96 349 40 118 
283 8 141 219 75 29 89 107 343 55 
284 6 353 176 196 351 317 32 
285 9 326 91 39 169 244 48 319 290 155 
286 6 88 292 20 197 111 163 
287 8 123 330 347 66 19 161 350 256 
288 8 56 90 246 86 245 10 92 217 
289 8 204 45 327 167 12 225 158 192 
290 7 142 285 326 244 312 91 39 
291 7 25 126 128 220 58 238 192 
292 6 286 88 124 20 264 342 
293 5 316 119 50 307 30 
294 8 70 203 17 154 229 339 301 295 
295 8 301 198 188 17 229 70 41 294 
296 4 94 244 155 48 
297 9 71 44 95 74 178 16 266 226 143 
298 9 67 18 185 93 234 236 248 340 335 
299 5 224 281 58 291 25 
300 6 328 111 308 80 102 51 
301 9 295 198 17 70 229 188 294 41 154 
302 9 257 35 183 359 22 324 168 138 223 
303 9 114 113 154 41 229 188 333 357 331 
304 7 55 89 219 141 207 29 235 
305 9 186 24 338 127 210 121 199 221 364 
306 7 14 69 184 189 309 316 293 
307 8 341 119 7 105 315 50 340 236 
308 6 80 75 343 249 29 118 
309 7 164 115 166 30 69 50 316 
310 8 179 311 5 258 187 259 134 157 
311 6 134 187 258 157 310 5 
312 9 365 326 319 169 285 54 329 91 84 
313 7 365 246 288 312 54 319 56 
314 5 20 124 144 292 286 
315 7 341 145 307 250 7 119 105 
316 5 293 119 50 30 307 
317 9 32 137 2 196 321 176 101 268 168 
318 9 146 216 26 116 133 100 37 213 132 
319 9 169 329 54 84 91 326 39 179 48 
320 9 356 63 59 52 189 103 200 36 73 
321 9 168 137 15 2 32 268 22 183 223 
322 8 8 104 207 11 235 43 233 230 
323 5 348 336 108 337 47 
324 9 359 183 15 302 22 168 321 257 274 
325 3 147 82 31 
326 9 285 91 169 319 39 48 84 329 155 
327 9 45 12 225 201 289 158 265 28 204 
328 6 300 111 51 102 308 80 
329 9 54 84 319 169 179 91 310 246 326 
330 7 123 287 161 66 350 19 347 
331 8 113 171 357 170 303 333 46 114 
332 7 139 110 85 60 6 242 27 
333 9 357 195 114 272 41 303 129 363 113 
334 9 355 124 47 337 181 81 264 108 42 
335 8 160 234 185 298 67 93 18 182 
336 8 108 348 337 323 47 355 181 264 
337 8 47 355 264 342 336 348 108 323 
338 9 221 24 186 199 127 305 121 180 251 
339 5 203 154 294 17 70 
340 9 248 236 105 50 119 7 307 18 30 
341 8 307 315 7 250 119 105 145 236 
342 5 264 337 47 292 355 
343 8 249 29 80 118 308 75 40 96 
344 7 197 167 163 58 204 289 51 
345 8 263 194 190 258 5 157 187 227 
346 9 77 87 33 273 254 156 162 27 206 
347 8 287 123 330 256 66 19 161 350 
348 6 323 336 337 47 108 342 
349 8 222 261 366 131 23 282 360 193 
350 7 66 19 161 152 330 123 287 
351 7 196 176 228 284 317 353 2 
352 9 240 109 85 139 68 122 13 231 212 
353 7 176 284 196 317 351 143 32 
354 8 360 149 9 153 366 4 261 117 
355 9 47 337 264 334 336 124 108 342 348 
356 9 63 320 59 52 103 200 36 189 73 
357 9 333 331 114 195 113 46 303 272 363 
358 8 73 200 52 59 63 103 356 36 
359 9 183 324 15 22 168 302 321 257 268 
360 8 354 366 149 4 23 159 9 153 
361 6 253 277 136 110 6 206 
362 6 14 306 166 164 309 69 
363 9 269 107 148 272 43 230 235 46 62 
364 8 79 210 278 121 305 24 186 180 
365 9 312 319 169 54 313 326 329 246 84 
366 9 23 349 222 360 159 354 261 131 4 
DEPOT_SECTION
   1
   -1
EOF
