NAME :  X-n599-kX-w59-c7.cctp
COMMENT : 	Adapted by Maziero, Usberti and Cavellucci from the Uchoa, Pecin, Pessoa, Poggi, Subramanian, and Vidal (2013)
TYPE :  CCTP
DIMENSION :    336
EDGE_WEIGHT_TYPE : 	EUC_2D	
CAPACITY : 	487
VERTICES_WITHIN_COVERAGE :  7
VERTICES_WITH_DEMAND : 	59
NODE_COORD_SECTION
1 284 167
2 6 711
3 874 746
4 483 894
5 733 189
6 336 29
7 488 684
8 825 903
9 98 412
10 206 306
11 497 641
12 499 745
13 481 40
14 500 390
15 851 268
16 51 278
17 805 796
18 554 771
19 576 984
20 734 251
21 325 414
22 658 81
23 279 467
24 1000 804
25 124 148
26 554 594
27 645 168
28 4 965
29 614 267
30 939 719
31 935 800
32 109 154
33 31 554
34 960 512
35 489 840
36 377 684
37 945 808
38 720 165
39 226 34
40 73 255
41 748 344
42 774 514
43 143 893
44 168 461
45 164 493
46 631 533
47 815 191
48 833 284
49 746 100
50 252 839
51 894 472
52 944 597
53 371 28
54 552 186
55 610 541
56 578 665
57 749 655
58 898 974
59 274 972
60 520 642
61 610 738
62 773 602
63 752 74
64 729 90
65 464 658
66 388 732
67 185 51
68 712 144
69 910 738
70 956 879
71 642 564
72 907 240
73 88 186
74 763 180
75 970 490
76 775 574
77 5 980
78 10 249
79 557 816
80 915 680
81 553 946
82 627 26
83 771 398
84 869 585
85 985 939
86 194 262
87 992 698
88 834 844
89 1 651
90 271 893
91 163 503
92 579 761
93 923 502
94 103 284
95 63 181
96 784 300
97 212 774
98 532 999
99 160 179
100 51 330
101 519 563
102 15 591
103 2 546
104 20 964
105 975 611
106 969 497
107 367 77
108 925 640
109 160 288
110 980 560
111 20 663
112 475 920
113 480 756
114 447 697
115 249 926
116 146 433
117 789 664
118 583 717
119 151 525
120 512 553
121 339 985
122 108 241
123 763 566
124 572 203
125 621 295
126 154 175
127 879 455
128 801 726
129 504 198
130 934 920
131 21 730
132 0 689
133 234 477
134 125 170
135 169 455
136 825 911
137 300 380
138 492 28
139 466 702
140 280 878
141 529 935
142 580 243
143 892 721
144 844 830
145 139 349
146 345 668
147 202 781
148 703 608
149 293 435
150 28 660
151 481 59
152 632 672
153 220 763
154 13 308
155 216 306
156 32 554
157 158 386
158 829 812
159 867 873
160 220 977
161 852 979
162 776 539
163 456 434
164 113 924
165 623 116
166 635 270
167 232 431
168 520 384
169 73 559
170 492 942
171 869 445
172 908 695
173 727 140
174 619 314
175 440 921
176 84 462
177 659 265
178 294 353
179 392 406
180 973 635
181 0 537
182 973 718
183 762 474
184 217 27
185 185 282
186 972 759
187 774 283
188 110 925
189 427 836
190 695 663
191 216 367
192 914 966
193 675 144
194 380 424
195 196 287
196 828 842
197 316 34
198 725 674
199 120 90
200 694 30
201 517 759
202 491 337
203 872 740
204 660 518
205 45 383
206 601 696
207 977 848
208 337 5
209 537 349
210 15 890
211 17 668
212 367 72
213 951 526
214 607 633
215 686 319
216 915 493
217 128 875
218 544 996
219 700 96
220 240 431
221 177 160
222 292 500
223 240 47
224 750 460
225 314 486
226 701 50
227 541 185
228 7 640
229 911 283
230 550 784
231 725 81
232 557 176
233 86 270
234 62 569
235 592 581
236 108 151
237 465 782
238 315 454
239 257 878
240 859 581
241 956 788
242 932 515
243 614 647
244 39 570
245 293 866
246 861 930
247 996 771
248 798 641
249 47 705
250 406 668
251 911 786
252 230 500
253 101 865
254 478 14
255 179 48
256 685 104
257 224 45
258 31 407
259 385 391
260 8 935
261 760 662
262 152 288
263 48 522
264 624 942
265 557 687
266 570 674
267 523 682
268 521 738
269 825 540
270 906 960
271 286 33
272 43 940
273 410 713
274 269 427
275 634 97
276 431 871
277 19 292
278 346 394
279 551 663
280 759 368
281 281 999
282 416 642
283 966 681
284 852 486
285 57 476
286 828 352
287 446 705
288 559 625
289 539 149
290 76 178
291 869 714
292 172 542
293 883 701
294 465 898
295 625 552
296 876 277
297 896 763
298 634 37
299 5 753
300 998 497
301 237 482
302 787 445
303 50 301
304 888 609
305 555 110
306 166 518
307 840 933
308 916 873
309 634 685
310 759 542
311 680 133
312 489 197
313 216 62
314 694 287
315 849 833
316 811 272
317 141 463
318 461 656
319 337 375
320 346 660
321 32 304
322 453 799
323 454 629
324 505 920
325 461 582
326 931 438
327 194 274
328 729 124
329 223 860
330 402 101
331 965 683
332 113 182
333 573 796
334 251 775
335 558 287
336 661 518
DEMAND_SECTION
2 63
3 89
4 97
5 78
6 92
7 55
8 97
9 88
10 95
11 64
12 80
13 68
14 71
15 95
16 75
17 89
18 54
19 75
20 61
21 66
22 86
23 56
24 99
25 65
26 56
27 99
28 79
29 73
30 53
31 63
32 76
33 67
34 77
35 82
36 67
37 68
38 64
39 69
40 68
41 83
42 77
43 67
44 74
45 80
46 55
47 86
48 68
49 62
50 78
51 67
52 90
53 63
54 90
55 56
56 69
57 97
58 87
59 87
60 70
COVERAGE_SECTION
2 7 132 131 249 299 211 111 150 
3 7 203 297 143 291 69 293 251 
4 7 294 112 324 170 175 35 276 
5 7 38 74 173 68 20 328 193 
6 6 197 208 53 271 212 107 
7 7 139 65 267 318 114 11 287 
8 6 136 307 246 159 88 196 
9 6 116 176 205 157 258 317 
10 7 155 195 185 327 86 109 262 
11 7 60 65 318 7 323 267 279 
12 7 113 201 268 237 139 18 7 
13 7 138 151 254 330 305 53 212 
14 4 168 202 209 163 
15 6 48 296 316 229 72 96 
16 7 303 40 321 277 233 154 78 
17 6 158 196 144 88 315 128 
18 6 230 92 333 201 79 268 
19 5 218 81 98 264 141 
20 6 187 314 5 96 177 74 
21 7 278 149 238 319 137 194 274 
22 6 275 256 219 165 298 226 
23 7 149 222 238 225 274 301 133 
24 7 247 241 207 186 37 31 70 
25 7 32 236 134 332 126 99 73 
26 7 288 235 101 60 120 214 279 
27 6 193 311 165 68 275 38 
28 5 77 104 260 272 210 
29 6 166 125 142 177 174 335 
30 7 182 69 172 331 80 143 283 
31 7 37 241 251 297 186 207 24 
32 7 236 25 134 332 73 290 126 
33 7 156 244 103 234 181 263 102 
34 7 106 213 75 242 93 300 216 
35 7 4 322 189 237 294 276 79 
36 6 250 146 320 273 66 282 
37 7 31 241 251 207 24 186 247 
38 7 68 173 5 328 74 193 311 
39 7 184 257 223 313 67 255 271 
40 7 233 16 122 94 303 78 321 
41 7 280 96 83 187 215 314 286 
42 7 162 310 183 123 269 224 76 
43 4 217 164 188 253 
44 7 135 317 45 116 91 306 119 
45 7 91 306 44 119 135 317 292 
46 6 295 55 71 204 336 235 
47 3 74 316 5 
48 7 15 316 296 96 187 286 229 
49 7 64 63 231 328 173 219 68 
50 6 329 239 140 245 90 334 
51 7 127 216 171 93 284 326 242 
52 7 105 108 180 110 304 213 84 
53 7 6 208 212 107 197 330 271 
54 7 227 232 124 289 129 142 312 
55 6 295 46 71 235 204 336 
56 7 266 279 265 206 243 214 288 
57 6 261 198 117 248 190 62 
58 6 270 192 161 246 130 307 
59 5 281 115 160 121 90 
60 7 11 279 267 288 7 65 265 
61 6 118 92 206 309 18 333 
62 5 76 123 248 57 261 
63 7 49 64 231 328 219 226 173 
64 7 231 49 63 219 328 256 226 
65 7 318 323 7 11 114 139 287 
66 5 273 36 287 250 114 
67 5 255 313 257 184 39 
68 6 173 38 328 311 193 256 
69 7 143 297 30 3 203 172 293 
70 7 207 308 130 85 37 31 24 
71 6 295 46 55 204 336 235 
72 3 229 296 15 
73 7 290 95 332 32 134 236 25 
74 7 5 38 47 173 68 328 20 
75 7 106 34 300 213 242 93 216 
76 6 123 62 162 310 42 269 
77 5 28 104 260 272 210 
78 7 277 16 154 321 40 303 233 
79 4 333 230 18 92 
80 7 172 293 108 30 143 331 283 
81 4 141 19 218 324 
82 6 298 22 200 275 226 165 
83 4 280 302 41 224 
84 5 240 304 269 52 108 
85 7 130 70 192 270 207 58 308 
86 7 327 185 195 109 10 155 262 
87 4 182 283 331 30 
88 7 196 144 315 158 159 17 8 
89 7 228 111 211 150 132 2 102 
90 6 140 239 245 115 50 329 
91 7 45 306 119 292 44 317 135 
92 6 18 333 230 61 118 79 
93 7 216 242 213 34 51 106 75 
94 7 233 40 122 262 16 303 109 
95 5 290 73 332 32 236 
96 7 187 316 48 41 286 20 280 
97 4 147 153 334 50 
98 6 218 19 81 141 170 324 
99 5 126 221 134 332 25 
100 5 303 321 154 277 16 
101 4 120 26 325 288 
102 7 244 33 156 103 228 234 181 
103 7 181 33 156 244 102 263 234 
104 5 28 77 260 272 210 
105 4 180 52 110 108 
106 7 75 34 300 213 242 93 216 
107 6 212 330 53 6 197 208 
108 6 80 52 180 304 105 172 
109 7 262 185 195 327 86 10 94 
110 7 213 105 34 52 106 242 300 
111 7 211 150 89 228 132 2 249 
112 6 294 4 170 324 175 141 
113 7 12 237 201 268 322 139 287 
114 6 287 139 273 7 65 318 
115 6 90 239 59 140 160 329 
116 7 317 135 44 157 9 45 176 
117 3 248 261 57 
118 7 206 61 265 92 266 56 309 
119 4 306 91 292 45 
120 3 101 26 325 
121 3 281 59 115 
122 7 233 40 94 73 332 262 16 
123 5 76 310 162 62 42 
124 7 54 232 227 142 289 129 29 
125 4 174 29 166 177 
126 6 99 221 134 25 332 32 
127 4 171 51 284 216 
128 4 117 291 17 203 
129 6 312 227 54 232 289 124 
130 7 70 270 192 308 85 58 246 
131 6 2 299 249 132 211 111 
132 7 2 211 111 89 150 131 228 
133 7 301 252 23 167 220 274 222 
134 7 332 25 32 236 126 99 73 
135 7 44 317 116 45 91 306 167 
136 4 8 307 246 159 
137 6 178 319 21 278 149 274 
138 7 13 254 151 305 330 53 289 
139 6 114 287 7 65 318 12 
140 6 90 245 239 50 115 329 
141 5 81 324 170 112 4 
142 6 124 29 335 166 54 125 
143 7 293 291 69 203 3 172 297 
144 7 315 88 196 158 159 17 8 
145 7 157 262 109 94 9 191 10 
146 3 320 36 250 
147 4 97 153 334 50 
148 3 190 57 62 
149 7 274 238 23 21 220 137 225 
150 7 111 211 89 228 132 249 2 
151 7 13 138 254 330 305 289 53 
152 6 309 243 206 214 56 266 
153 4 97 147 334 50 
154 5 277 321 303 100 16 
155 5 10 195 185 327 86 
156 7 33 244 103 234 181 263 102 
157 6 145 116 191 9 135 44 
158 7 144 17 315 196 88 159 3 
159 7 88 315 144 308 196 8 136 
160 3 59 115 281 
161 6 58 307 246 270 192 136 
162 7 310 42 123 76 269 62 183 
163 1 14 
164 4 188 43 217 253 
165 6 275 22 27 193 311 256 
166 5 29 177 125 174 142 
167 6 220 274 133 301 23 149 
168 3 14 209 202 
169 6 234 244 156 33 263 102 
170 5 324 112 141 4 294 
171 3 127 51 284 
172 7 80 293 143 30 69 291 108 
173 6 68 328 38 49 311 5 
174 3 125 29 166 
175 5 294 112 4 276 170 
176 5 285 9 317 116 263 
177 5 166 314 29 125 215 
178 4 137 319 278 21 
179 5 259 194 278 319 21 
180 4 105 283 52 108 
181 6 103 33 156 263 244 102 
182 5 87 30 331 283 186 
183 4 224 302 42 162 
184 7 39 257 223 313 67 255 271 
185 7 195 327 86 109 10 262 155 
186 7 247 241 182 30 24 31 37 
187 7 96 316 20 48 41 15 314 
188 4 164 43 217 253 
189 4 276 322 35 237 
190 5 198 57 148 152 261 
191 6 155 157 10 167 220 145 
192 7 270 58 130 161 246 85 307 
193 6 311 68 27 256 38 173 
194 5 179 259 278 21 319 
195 7 185 327 10 86 155 109 262 
196 7 88 144 315 158 159 17 8 
197 7 6 271 208 53 212 107 223 
198 5 57 190 261 117 148 
199 1 25 
200 6 226 231 298 22 219 82 
201 7 268 12 113 18 230 237 92 
202 2 209 14 
203 7 3 291 143 297 69 293 172 
204 5 336 46 71 295 55 
205 3 258 100 9 
206 7 118 309 266 56 152 61 265 
207 7 70 24 37 31 241 308 247 
208 7 6 197 53 271 212 107 223 
209 3 168 202 14 
210 4 260 272 104 28 
211 7 111 150 89 132 228 2 249 
212 6 107 53 330 6 197 208 
213 7 34 242 106 93 75 110 216 
214 6 243 56 152 288 235 266 
215 4 314 177 41 174 
216 7 93 242 51 34 213 127 106 
217 4 43 253 164 188 
218 6 98 19 81 141 170 324 
219 6 256 231 64 328 311 22 
220 6 167 274 133 301 23 149 
221 4 99 126 134 25 
222 6 225 23 238 301 133 252 
223 6 257 39 313 184 271 67 
224 4 183 302 42 83 
225 6 222 238 23 149 21 274 
226 6 200 231 219 64 22 63 
227 7 54 232 124 289 129 312 142 
228 7 89 111 150 211 132 102 2 
229 3 296 72 15 
230 6 18 333 79 92 201 268 
231 7 64 49 63 219 226 328 256 
232 7 54 227 124 289 129 305 142 
233 7 40 94 16 122 303 321 262 
234 6 169 244 33 156 263 102 
235 6 26 55 295 71 214 288 
236 7 32 25 134 332 73 290 126 
237 6 322 113 12 201 35 189 
238 7 149 225 23 21 222 274 278 
239 6 90 140 245 329 50 115 
240 5 84 304 269 76 52 
241 7 37 31 186 247 251 24 207 
242 7 93 213 34 216 106 75 51 
243 6 214 152 56 309 206 266 
244 7 156 33 234 102 169 103 263 
245 4 140 90 239 50 
246 7 307 136 8 161 270 58 159 
247 7 186 24 241 182 37 31 87 
248 4 117 261 62 57 
249 6 131 2 211 150 111 132 
250 6 282 36 273 114 287 318 
251 7 297 31 37 241 69 3 203 
252 5 301 133 23 222 45 
253 3 217 43 164 
254 7 138 13 151 53 330 305 212 
255 5 67 313 184 257 39 
256 6 219 311 22 193 64 231 
257 7 39 223 184 313 67 255 271 
258 2 205 9 
259 5 179 194 278 319 21 
260 5 28 104 272 77 210 
261 5 57 117 198 248 62 
262 7 109 185 195 327 86 94 10 
263 7 33 156 169 285 234 244 181 
264 1 19 
265 7 266 279 56 267 118 206 60 
266 7 56 265 279 206 118 267 288 
267 7 265 279 7 60 266 11 268 
268 7 201 12 113 18 230 267 92 
269 6 162 240 42 76 284 84 
270 7 192 58 130 246 161 307 85 
271 6 197 223 6 208 39 257 
272 5 104 260 28 77 210 
273 5 66 287 114 36 250 
274 7 149 220 167 23 238 137 21 
275 6 165 22 256 311 298 193 
276 5 189 294 175 4 35 
277 6 154 321 303 16 78 100 
278 6 319 21 259 194 137 179 
279 7 266 265 56 267 60 288 11 
280 5 41 83 286 96 302 
281 5 59 121 160 115 90 
282 6 250 323 318 65 36 114 
283 4 331 87 182 30 
284 3 127 51 171 
285 4 176 263 258 9 
286 2 48 96 
287 6 114 139 273 7 65 318 
288 7 26 279 60 56 214 266 235 
289 7 232 227 54 305 129 124 312 
290 6 95 73 332 32 236 134 
291 6 293 143 203 3 172 69 
292 4 306 119 91 45 
293 7 291 143 172 80 203 3 69 
294 6 4 112 175 276 324 170 
295 6 55 46 71 235 204 336 
296 5 15 229 48 72 316 
297 7 251 3 69 203 143 31 291 
298 6 82 22 200 275 226 165 
299 5 131 2 132 249 211 
300 7 75 106 34 213 110 242 93 
301 6 133 252 23 167 220 222 
302 4 183 224 83 42 
303 6 321 16 100 277 154 233 
304 5 84 240 108 52 80 
305 7 289 232 165 54 227 275 151 
306 4 91 119 45 292 
307 6 246 136 8 161 159 58 
308 7 70 159 130 207 37 31 315 
309 6 152 206 243 61 56 214 
310 5 162 123 42 76 62 
311 6 193 256 68 219 173 27 
312 5 129 227 54 289 232 
313 6 257 223 39 67 184 255 
314 5 215 177 20 166 125 
315 7 144 88 196 158 159 17 8 
316 7 48 96 187 15 296 20 47 
317 7 44 135 116 45 91 176 306 
318 7 65 323 7 11 114 139 282 
319 6 278 137 21 178 259 179 
320 3 146 36 250 
321 5 277 303 154 16 100 
322 6 237 189 113 35 12 201 
323 6 318 65 282 11 325 250 
324 6 170 141 112 4 294 81 
325 4 323 120 101 11 
326 5 51 127 216 171 93 
327 7 86 185 195 10 109 155 262 
328 7 173 68 49 64 219 38 231 
329 6 50 239 90 140 245 115 
330 4 107 212 53 151 
331 4 283 87 182 30 
332 7 134 73 32 236 25 290 126 
333 4 79 230 18 92 
334 4 153 97 147 50 
335 3 142 29 125 
336 5 204 46 71 295 55 
DEPOT_SECTION
   1
   -1
EOF
