NAME :  X-n502-kX-w200-c9.cctp
COMMENT : 	Adapted by Maziero, Usberti and Cavellucci from the Uchoa, Pecin, Pessoa, Poggi, Subramanian, and Vidal (2013)
TYPE :  CCTP
DIMENSION :    498
EDGE_WEIGHT_TYPE : 	EUC_2D	
CAPACITY : 	13
VERTICES_WITHIN_COVERAGE :  9
VERTICES_WITH_DEMAND : 	200
NODE_COORD_SECTION
1 0 0
2 159 917
3 635 200
4 278 907
5 667 141
6 119 954
7 29 448
8 590 87
9 375 990
10 511 374
11 298 957
12 107 911
13 323 766
14 161 892
15 151 912
16 438 1000
17 284 933
18 724 191
19 286 940
20 144 785
21 672 157
22 759 176
23 553 179
24 625 167
25 133 924
26 695 73
27 149 946
28 599 162
29 305 712
30 229 709
31 332 874
32 756 143
33 696 248
34 94 777
35 381 975
36 224 928
37 414 951
38 910 190
39 749 162
40 668 273
41 146 786
42 17 793
43 255 883
44 326 837
45 549 226
46 137 868
47 74 977
48 618 248
49 328 898
50 62 802
51 177 914
52 646 208
53 666 142
54 591 205
55 163 873
56 721 164
57 623 153
58 333 956
59 237 874
60 729 102
61 330 896
62 192 949
63 446 930
64 148 897
65 92 876
66 389 942
67 131 847
68 237 990
69 594 149
70 780 190
71 719 271
72 168 982
73 278 911
74 256 896
75 279 903
76 613 47
77 597 187
78 440 296
79 320 872
80 261 925
81 301 931
82 599 218
83 227 860
84 591 189
85 319 992
86 617 172
87 118 839
88 117 909
89 578 300
90 503 966
91 232 907
92 34 955
93 191 816
94 273 42
95 171 877
96 132 920
97 113 906
98 581 125
99 138 910
100 149 870
101 622 303
102 278 845
103 587 60
104 234 818
105 310 832
106 568 227
107 711 167
108 728 251
109 185 937
110 110 840
111 254 945
112 140 937
113 238 919
114 9 875
115 97 799
116 804 100
117 243 927
118 310 938
119 171 826
120 677 213
121 708 166
122 151 931
123 262 920
124 121 769
125 149 660
126 199 749
127 78 738
128 323 963
129 63 799
130 233 931
131 693 170
132 673 156
133 213 980
134 620 191
135 125 946
136 748 117
137 250 926
138 661 327
139 147 831
140 181 923
141 548 235
142 682 157
143 263 898
144 469 339
145 144 915
146 569 234
147 577 450
148 598 231
149 693 229
150 227 952
151 211 643
152 12 942
153 288 969
154 734 312
155 641 37
156 241 761
157 618 206
158 156 915
159 712 391
160 74 787
161 705 109
162 240 902
163 603 338
164 572 363
165 620 204
166 272 925
167 652 231
168 585 299
169 107 789
170 617 223
171 242 907
172 601 240
173 453 388
174 301 889
175 246 818
176 356 916
177 681 238
178 607 119
179 351 970
180 159 896
181 582 156
182 472 257
183 143 878
184 113 926
185 236 888
186 738 73
187 677 194
188 716 196
189 532 304
190 334 772
191 514 326
192 220 712
193 631 121
194 531 262
195 707 228
196 617 160
197 624 151
198 609 191
199 599 228
200 210 727
201 481 78
202 239 749
203 650 373
204 550 138
205 393 807
206 195 806
207 81 873
208 375 829
209 506 104
210 104 898
211 674 225
212 271 910
213 222 806
214 655 37
215 324 847
216 622 54
217 399 213
218 101 875
219 668 402
220 30 895
221 241 842
222 627 176
223 869 235
224 812 223
225 561 286
226 171 973
227 582 242
228 651 183
229 175 840
230 365 946
231 215 770
232 125 924
233 296 984
234 682 174
235 165 846
236 397 821
237 185 807
238 236 972
239 278 948
240 338 880
241 759 215
242 498 51
243 177 962
244 253 878
245 190 865
246 612 266
247 204 902
248 169 877
249 101 877
250 586 247
251 242 885
252 235 775
253 585 201
254 592 164
255 461 897
256 652 246
257 267 899
258 204 860
259 298 852
260 156 936
261 135 977
262 268 927
263 303 918
264 110 877
265 625 248
266 265 857
267 592 325
268 715 115
269 565 376
270 306 759
271 208 961
272 120 892
273 115 963
274 33 726
275 750 227
276 432 927
277 97 802
278 552 303
279 257 846
280 191 873
281 595 189
282 190 815
283 175 949
284 359 932
285 458 246
286 175 872
287 486 173
288 320 818
289 207 945
290 32 894
291 183 837
292 76 937
293 154 972
294 215 886
295 647 225
296 90 963
297 635 199
298 310 860
299 757 281
300 528 222
301 187 947
302 568 144
303 179 893
304 429 939
305 323 841
306 527 77
307 116 883
308 792 274
309 611 282
310 170 927
311 776 408
312 136 925
313 161 968
314 575 237
315 283 911
316 684 269
317 303 957
318 98 843
319 608 145
320 136 934
321 412 885
322 435 879
323 421 265
324 189 916
325 296 925
326 394 969
327 161 856
328 222 947
329 189 816
330 470 256
331 239 875
332 171 888
333 433 776
334 205 941
335 55 872
336 354 803
337 612 189
338 135 857
339 664 215
340 145 863
341 740 71
342 102 946
343 592 250
344 519 99
345 214 884
346 402 983
347 593 174
348 118 922
349 738 121
350 41 948
351 350 705
352 544 124
353 196 681
354 160 889
355 159 858
356 654 195
357 782 275
358 328 864
359 605 668
360 241 885
361 740 404
362 266 914
363 717 180
364 458 81
365 684 230
366 301 860
367 180 920
368 301 865
369 294 964
370 383 912
371 559 143
372 747 383
373 433 966
374 563 258
375 827 145
376 294 784
377 147 707
378 173 944
379 298 915
380 175 923
381 333 919
382 280 869
383 596 219
384 614 286
385 104 861
386 279 771
387 188 938
388 100 840
389 117 866
390 722 126
391 215 853
392 276 893
393 444 296
394 547 286
395 213 803
396 86 990
397 173 947
398 672 173
399 130 983
400 360 987
401 718 192
402 66 817
403 657 97
404 33 914
405 649 414
406 680 208
407 623 266
408 678 101
409 270 864
410 620 232
411 335 935
412 451 57
413 295 987
414 101 738
415 359 881
416 158 934
417 182 919
418 717 177
419 653 54
420 683 139
421 381 928
422 277 962
423 645 238
424 608 267
425 625 217
426 565 76
427 523 188
428 519 855
429 165 947
430 305 922
431 406 294
432 125 702
433 227 858
434 774 36
435 611 204
436 107 703
437 209 979
438 557 175
439 80 903
440 172 890
441 203 984
442 665 200
443 230 892
444 138 914
445 270 872
446 702 198
447 737 258
448 150 975
449 666 196
450 174 804
451 266 959
452 142 936
453 142 976
454 79 750
455 208 836
456 439 240
457 438 339
458 841 230
459 289 910
460 191 888
461 309 861
462 242 958
463 408 932
464 243 954
465 616 200
466 729 281
467 642 230
468 707 106
469 395 678
470 134 820
471 514 197
472 547 236
473 660 98
474 0 923
475 190 870
476 302 673
477 50 967
478 79 930
479 628 254
480 3 965
481 159 988
482 613 252
483 229 833
484 343 877
485 255 772
486 626 246
487 332 921
488 214 861
489 117 872
490 119 964
491 370 865
492 632 243
493 304 893
494 52 899
495 434 232
496 288 773
497 301 905
498 284 799
DEMAND_SECTION
2 1
3 1
4 1
5 1
6 1
7 1
8 1
9 1
10 1
11 1
12 1
13 1
14 1
15 1
16 1
17 1
18 1
19 1
20 1
21 1
22 1
23 1
24 1
25 1
26 1
27 1
28 1
29 1
30 1
31 1
32 1
33 1
34 1
35 1
36 1
37 1
38 1
39 1
40 1
41 1
42 1
43 1
44 1
45 1
46 1
47 1
48 1
49 1
50 1
51 1
52 1
53 1
54 1
55 1
56 1
57 1
58 1
59 1
60 1
61 1
62 1
63 1
64 1
65 1
66 1
67 1
68 1
69 1
70 1
71 1
72 1
73 1
74 1
75 1
76 1
77 1
78 1
79 1
80 1
81 1
82 1
83 1
84 1
85 1
86 1
87 1
88 1
89 1
90 1
91 1
92 1
93 1
94 1
95 1
96 1
97 1
98 1
99 1
100 1
101 1
102 1
103 1
104 1
105 1
106 1
107 1
108 1
109 1
110 1
111 1
112 1
113 1
114 1
115 1
116 1
117 1
118 1
119 1
120 1
121 1
122 1
123 1
124 1
125 1
126 1
127 1
128 1
129 1
130 1
131 1
132 1
133 1
134 1
135 1
136 1
137 1
138 1
139 1
140 1
141 1
142 1
143 1
144 1
145 1
146 1
147 1
148 1
149 1
150 1
151 1
152 1
153 1
154 1
155 1
156 1
157 1
158 1
159 1
160 1
161 1
162 1
163 1
164 1
165 1
166 1
167 1
168 1
169 1
170 1
171 1
172 1
173 1
174 1
175 1
176 1
177 1
178 1
179 1
180 1
181 1
182 1
183 1
184 1
185 1
186 1
187 1
188 1
189 1
190 1
191 1
192 1
193 1
194 1
195 1
196 1
197 1
198 1
199 1
200 1
201 1
COVERAGE_SECTION
2 9 158 15 145 310 122 380 416 51 260 
3 9 297 52 165 134 157 465 356 425 228 
4 9 73 75 315 212 459 257 362 392 143 
5 9 53 132 420 21 142 398 234 131 193 
6 9 135 273 490 342 320 112 261 184 452 
7 9 125 151 436 432 274 377 353 127 414 
8 9 103 426 178 98 76 216 193 352 302 
9 9 400 35 326 346 179 230 66 58 37 
10 9 191 269 144 173 164 189 457 278 267 
11 9 317 369 153 19 118 239 422 81 128 
12 9 97 88 210 184 348 232 272 96 439 
13 9 190 270 376 496 386 336 498 288 29 
14 9 354 180 332 440 64 248 95 303 55 
15 9 158 145 2 99 444 64 180 122 312 
16 9 373 346 326 37 35 304 9 63 90 
17 9 19 166 325 239 81 262 315 73 379 
18 9 401 188 363 418 446 56 107 121 131 
19 9 17 239 81 325 11 166 262 118 317 
20 9 41 124 450 470 169 139 237 115 119 
21 9 132 142 53 398 5 234 420 131 228 
22 9 39 70 32 18 241 56 363 418 401 
23 9 438 427 371 181 302 84 253 347 204 
24 9 86 222 196 57 197 134 28 337 319 
25 9 312 96 232 320 444 145 99 112 348 
26 9 408 468 161 186 473 60 341 403 419 
27 9 260 452 112 122 416 429 320 135 378 
28 9 254 347 69 181 196 319 86 77 24 
29 9 476 351 270 13 496 386 190 376 30 
30 9 192 200 202 353 126 156 231 252 151 
31 9 240 358 484 79 61 49 298 461 215 
32 9 39 136 349 22 390 56 60 268 107 
33 9 177 149 365 195 316 108 211 71 40 
34 9 169 115 160 277 124 454 129 414 50 
35 9 326 9 346 400 179 230 66 37 421 
36 9 130 113 117 328 91 334 150 289 137 
37 9 304 463 373 66 326 276 346 63 421 
38 9 223 458 375 224 70 116 308 22 241 
39 9 22 32 56 418 363 18 107 121 70 
40 9 316 256 177 33 423 479 167 365 407 
41 9 20 124 450 470 169 237 139 119 115 
42 9 50 129 402 160 274 454 34 115 277 
43 9 244 74 251 360 143 331 445 59 185 
44 9 305 215 105 288 358 298 461 259 366 
45 9 141 472 106 300 146 314 374 227 194 
46 9 340 338 100 183 389 489 67 355 55 
47 9 396 296 477 292 342 273 350 92 478 
48 9 482 265 486 479 492 410 172 246 407 
49 9 61 240 381 487 31 493 484 79 174 
50 9 129 402 160 115 277 34 42 169 388 
51 9 367 417 380 140 324 310 2 158 303 
52 9 3 297 356 295 339 442 467 425 449 
53 9 5 21 132 420 142 398 234 131 193 
54 9 253 82 383 84 281 77 435 198 199 
55 9 248 95 286 100 354 355 327 332 14 
56 9 107 121 418 363 18 39 401 131 188 
57 9 197 196 24 319 86 222 28 69 193 
58 9 128 411 179 118 317 230 11 284 487 
59 9 331 251 360 185 244 83 433 443 43 
60 9 268 349 468 136 161 390 186 341 26 
61 9 49 240 31 381 484 487 79 493 174 
62 9 301 387 109 334 289 283 397 243 271 
63 9 276 304 255 37 373 463 322 321 66 
64 9 180 14 354 15 99 145 158 183 444 
65 9 218 249 207 264 385 210 307 489 389 
66 9 421 463 230 37 326 370 284 35 304 
67 9 338 87 340 46 110 139 389 470 100 
68 9 238 133 437 462 441 464 150 271 451 
69 9 28 181 254 319 196 347 302 98 57 
70 9 22 241 39 224 275 32 18 401 56 
71 9 466 108 447 33 316 299 154 195 149 
72 8 226 481 313 293 448 243 453 261 
73 9 4 315 212 75 459 362 166 257 123 
74 9 143 257 43 162 171 244 251 360 392 
75 9 4 73 315 392 212 459 257 143 362 
76 9 216 103 155 419 214 8 426 403 473 
77 9 281 84 198 347 337 253 54 435 134 
78 9 393 431 323 457 182 330 144 285 456 
79 9 358 31 298 461 240 368 366 484 174 
80 9 123 262 137 166 362 117 212 111 73 
81 9 325 430 118 263 379 17 19 459 11 
82 9 383 199 148 54 435 170 157 172 253 
83 9 433 488 391 59 331 221 258 345 483 
84 9 281 77 253 347 54 198 337 254 435 
85 9 233 413 128 317 369 58 153 179 11 
86 9 24 222 196 337 134 57 28 198 197 
87 9 110 67 388 318 338 470 385 389 139 
88 9 97 12 348 184 210 232 272 96 99 
89 9 168 225 278 267 394 309 384 101 163 
90 9 63 373 16 304 255 276 37 463 346 
91 9 162 171 113 443 185 36 117 130 251 
92 9 350 477 152 480 404 47 292 474 478 
93 9 282 329 206 237 450 119 291 395 455 
94 8 412 364 201 217 242 209 495 287 
95 9 248 286 55 332 440 354 14 303 280 
96 9 25 312 232 444 99 145 348 320 88 
97 9 88 12 210 272 348 184 232 307 96 
98 9 302 69 178 371 181 204 319 352 8 
99 9 444 145 96 15 25 312 64 158 232 
100 9 340 183 46 55 355 327 338 248 354 
101 9 384 309 168 267 407 246 424 163 89 
102 9 266 259 279 409 382 366 445 368 105 
103 9 8 426 76 216 155 178 306 98 419 
104 9 175 483 213 221 395 455 279 391 206 
105 9 305 44 288 215 259 298 366 461 368 
106 9 146 314 45 227 141 472 250 383 148 
107 9 121 56 418 363 131 401 18 188 234 
108 9 447 71 466 195 33 275 149 299 241 
109 9 387 301 62 378 140 283 397 380 310 
110 9 87 388 318 67 385 389 338 470 489 
111 9 464 451 462 137 80 117 262 239 130 
112 9 452 320 27 122 312 25 260 135 416 
113 9 117 91 130 171 137 36 162 80 123 
114 9 220 290 335 404 474 494 152 207 439 
115 9 277 169 34 160 129 50 402 124 388 
116 9 375 136 32 349 341 186 434 60 39 
117 9 137 113 130 80 36 123 171 111 91 
118 9 81 430 325 317 263 11 19 411 17 
119 9 229 291 235 329 93 282 450 237 139 
120 9 406 211 339 365 442 187 449 149 177 
121 9 107 56 418 131 363 234 142 401 18 
122 9 260 416 452 112 27 320 2 312 145 
123 9 80 362 262 166 137 212 73 117 4 
124 9 169 20 34 41 414 115 277 454 160 
125 9 377 432 353 436 151 192 200 414 30 
126 9 200 231 202 192 156 252 30 395 206 
127 9 454 414 34 436 274 160 124 169 432 
128 9 58 317 11 118 85 179 369 411 233 
129 9 50 160 402 115 277 34 169 42 454 
130 9 36 117 113 137 328 150 91 111 464 
131 9 234 121 142 107 398 132 21 418 363 
132 9 21 142 5 53 398 234 420 131 228 
133 9 437 441 271 238 68 150 328 289 462 
134 9 337 465 198 165 157 435 3 222 297 
135 9 6 320 112 490 273 452 232 25 184 
136 9 349 60 32 390 268 468 161 39 186 
137 9 117 80 123 113 130 262 111 362 171 
138 9 101 203 40 163 316 384 309 267 407 
139 9 470 67 235 119 229 327 338 87 355 
140 9 367 417 380 51 324 310 109 387 378 
141 9 472 45 146 106 300 314 374 194 227 
142 9 132 21 131 234 420 398 5 53 121 
143 9 257 74 212 392 362 4 43 75 73 
144 9 457 191 393 78 173 10 189 431 182 
145 9 444 15 99 158 96 312 25 2 122 
146 9 106 314 227 141 250 45 472 374 343 
147 9 269 405 164 10 219 203 163 267 173 
148 9 199 172 383 82 227 250 343 170 410 
149 9 365 195 177 33 211 120 406 339 446 
150 9 328 462 464 271 289 130 238 36 334 
151 9 353 125 30 192 200 377 476 432 126 
152 9 474 480 92 350 404 477 220 290 494 
153 9 369 422 11 233 317 413 239 451 19 
154 9 466 299 71 447 108 357 316 308 372 
155 9 214 419 216 76 103 403 473 26 8 
156 9 202 252 485 231 386 126 200 213 496 
157 9 165 465 435 425 134 170 198 3 297 
158 9 2 15 145 122 310 444 99 180 416 
159 9 361 372 219 203 311 405 138 154 466 
160 9 129 50 34 115 277 402 169 454 127 
161 9 468 268 390 60 408 349 26 420 136 
162 9 171 91 443 185 74 113 251 360 143 
163 9 267 101 164 168 89 384 269 309 138 
164 9 269 163 267 10 89 278 168 191 189 
165 9 157 465 435 134 425 3 297 198 337 
166 9 262 80 123 362 17 73 212 315 4 
167 9 295 423 467 256 339 211 492 52 177 
168 9 89 225 267 309 384 278 101 424 394 
169 9 115 277 34 124 160 20 41 470 129 
170 9 410 425 157 82 165 199 435 148 383 
171 9 162 91 113 74 443 117 185 137 251 
172 9 148 199 343 250 482 48 227 410 82 
173 9 457 144 10 191 393 78 431 269 189 
174 9 493 497 368 459 79 392 75 379 49 
175 9 104 483 221 213 279 395 102 455 498 
176 9 284 381 487 370 411 421 230 49 61 
177 9 365 149 211 33 120 195 339 167 256 
178 9 193 319 98 69 8 197 57 196 28 
179 9 400 58 230 128 35 9 411 85 284 
180 9 14 354 64 332 440 15 158 303 2 
181 9 254 69 28 302 347 371 319 98 438 
182 9 330 285 456 495 393 78 323 194 300 
183 9 100 46 340 64 354 55 338 14 180 
184 9 348 232 12 88 25 96 97 135 312 
185 9 360 251 443 331 59 162 91 43 171 
186 9 341 60 26 136 468 268 349 161 434 
187 9 449 442 406 120 234 398 356 339 446 
188 9 401 18 446 363 418 107 121 56 195 
189 9 278 394 191 225 194 89 168 374 267 
190 9 13 270 336 376 496 288 386 498 44 
191 9 189 278 144 10 394 225 194 89 164 
192 9 30 200 353 202 126 156 231 252 485 
193 9 178 197 57 319 403 473 5 53 196 
194 9 394 472 141 374 225 45 300 189 278 
195 9 149 33 365 177 446 108 188 211 120 
196 9 57 24 197 86 319 28 222 69 254 
197 9 57 196 24 319 86 222 28 69 193 
198 9 337 134 465 77 435 281 157 165 84 
199 9 148 383 82 172 170 410 227 250 343 
200 9 192 126 30 202 231 156 353 252 485 
201 9 364 242 209 412 344 306 352 426 204 
202 9 156 252 485 231 200 126 30 192 386 
203 9 219 405 138 163 159 101 267 164 269 
204 9 371 352 302 98 181 438 23 69 254 
205 9 236 208 336 333 491 190 44 288 305 
206 9 237 282 93 329 395 450 213 119 291 
207 9 65 218 249 335 385 264 439 210 318 
208 9 236 205 336 491 44 305 215 415 288 
209 9 344 306 201 352 364 242 204 426 371 
210 9 97 12 88 272 307 249 264 218 65 
211 9 365 120 339 177 406 149 167 295 442 
212 9 362 73 4 75 257 315 123 143 166 
213 9 395 104 175 206 483 93 282 455 252 
214 9 155 419 216 76 26 403 473 408 103 
215 9 305 44 358 298 105 461 79 259 366 
216 9 76 155 419 103 214 8 403 473 426 
217 8 495 456 323 285 431 330 182 78 
218 9 249 65 264 385 489 307 389 207 210 
219 9 405 203 159 361 138 372 163 147 164 
220 9 290 404 494 114 335 474 152 439 350 
221 9 483 279 433 83 104 175 266 391 59 
222 9 24 86 134 196 337 57 198 297 3 
223 9 458 224 38 308 357 375 70 241 275 
224 9 458 70 241 308 223 357 275 22 375 
225 9 394 278 89 168 374 189 194 250 343 
226 9 72 313 243 293 481 448 283 397 429 
227 9 250 314 343 146 148 172 106 199 374 
228 9 356 449 442 3 297 398 52 222 187 
229 8 291 235 119 327 355 329 93 139 
230 9 284 66 421 179 176 411 35 58 326 
231 9 252 126 156 202 395 213 485 206 200 
232 9 348 25 96 312 184 320 444 88 99 
233 9 413 153 369 85 11 317 422 128 451 
234 9 398 131 142 21 132 187 121 449 107 
235 9 327 229 355 291 119 139 340 55 286 
236 9 205 208 336 491 333 321 322 415 44 
237 9 282 206 329 93 450 119 395 291 229 
238 9 462 68 464 150 133 437 328 271 111 
239 9 19 422 17 451 11 153 262 369 111 
240 9 484 31 61 358 79 49 415 298 461 
241 9 275 70 22 18 188 401 108 447 39 
242 9 201 306 412 364 344 209 426 352 103 
243 9 226 283 397 313 301 378 429 62 72 
244 9 43 251 331 360 59 74 445 185 143 
245 7 475 280 258 286 95 460 248 
246 9 424 407 482 309 48 384 479 265 486 
247 8 294 460 324 345 303 91 417 443 
248 9 95 55 286 332 440 354 14 303 100 
249 9 218 65 264 307 385 489 389 207 210 
250 9 227 343 314 172 148 146 199 374 106 
251 9 360 185 331 59 43 244 443 162 74 
252 9 156 485 231 202 213 395 104 126 175 
253 9 54 84 281 77 383 82 198 435 347 
254 9 28 347 181 69 77 84 196 281 319 
255 9 322 63 276 321 304 463 37 428 373 
256 9 423 167 467 492 295 479 486 265 177 
257 9 143 74 392 212 75 4 362 73 43 
258 7 488 391 245 475 280 83 433 
259 9 366 368 298 461 102 105 382 215 305 
260 9 416 122 27 429 452 112 310 2 378 
261 8 453 399 448 293 490 273 481 6 
262 9 166 80 123 362 17 212 137 73 4 
263 9 430 379 325 81 497 459 118 315 17 
264 9 307 218 249 489 389 385 65 272 210 
265 9 486 48 479 492 482 410 407 246 423 
266 9 409 279 445 102 382 244 43 221 331 
267 9 163 168 89 101 164 384 278 309 225 
268 9 161 468 390 60 349 136 408 420 26 
269 9 164 10 163 267 191 278 147 89 189 
270 9 13 496 376 386 190 498 29 485 288 
271 9 289 437 62 133 328 334 150 441 301 
272 9 307 97 88 210 264 489 12 249 99 
273 8 490 6 135 342 261 296 399 453 
274 9 127 454 42 414 160 436 129 34 50 
275 9 241 108 447 195 18 188 401 70 22 
276 9 304 63 463 37 373 255 66 321 322 
277 9 115 169 34 160 129 402 50 388 110 
278 9 394 225 189 89 168 191 194 267 374 
279 9 266 221 102 409 445 175 483 244 433 
280 7 475 245 460 286 258 95 248 
281 9 77 84 198 347 54 253 337 435 465 
282 9 93 329 237 206 450 119 291 395 455 
283 9 397 378 429 301 243 109 62 387 260 
284 9 230 176 421 411 381 487 370 66 58 
285 9 330 182 456 495 323 393 78 217 431 
286 9 95 248 55 475 280 332 245 440 303 
287 8 471 427 300 23 438 209 204 352 
288 9 105 44 305 215 336 259 498 298 376 
289 9 334 328 62 271 301 387 150 109 36 
290 9 220 404 494 114 335 474 439 152 207 
291 8 229 119 235 93 329 282 455 245 
292 9 478 342 296 439 350 184 12 47 477 
293 8 448 313 453 72 226 481 261 243 
294 8 345 443 247 185 460 59 488 331 
295 9 467 167 423 52 339 256 425 492 211 
296 9 47 342 273 396 490 6 292 478 135 
297 9 3 52 165 134 157 356 465 425 228 
298 9 461 366 368 259 79 358 215 305 31 
299 9 357 466 447 308 71 154 108 275 241 
300 9 45 141 472 471 427 106 194 146 314 
301 9 62 387 109 283 378 397 243 334 289 
302 9 371 181 204 98 69 254 352 438 28 
303 9 440 332 460 14 95 248 354 180 51 
304 9 276 37 63 463 373 66 326 421 346 
305 9 44 215 105 288 298 358 461 259 366 
306 9 344 209 426 242 201 352 103 8 204 
307 9 264 272 489 249 218 389 210 97 65 
308 9 357 299 224 447 275 466 458 108 241 
309 9 384 424 246 407 101 482 168 479 48 
310 9 380 140 367 416 417 2 51 260 378 
311 9 361 372 159 154 219 405 299 203 357 
312 9 25 96 320 232 444 112 145 452 99 
313 9 293 226 448 72 243 481 429 453 283 
314 9 146 227 106 250 343 148 374 172 199 
315 9 73 4 459 75 212 379 362 166 325 
316 9 40 33 177 71 256 365 149 211 195 
317 9 11 369 153 118 128 19 81 422 239 
318 9 388 110 385 87 389 218 67 65 207 
319 9 69 57 196 197 28 254 178 24 86 
320 9 112 452 312 25 96 122 232 135 27 
321 9 322 370 276 463 491 255 415 421 63 
322 9 321 255 276 63 463 304 370 491 236 
323 9 456 431 495 78 393 285 330 182 217 
324 9 417 367 140 51 380 109 247 310 387 
325 9 81 430 263 379 17 459 19 118 315 
326 9 35 346 37 66 9 230 400 373 463 
327 9 355 235 55 340 100 229 286 248 95 
328 9 150 289 334 36 130 271 464 462 117 
329 9 282 93 237 206 450 119 291 395 229 
330 9 182 285 456 495 393 78 323 194 300 
331 9 59 251 360 185 244 43 83 443 433 
332 9 440 303 14 95 248 354 180 286 55 
333 9 205 236 208 336 190 322 469 351 491 
334 9 289 62 387 328 301 109 271 36 150 
335 9 207 494 290 220 65 439 114 218 249 
336 9 208 190 288 205 44 236 13 305 105 
337 9 198 134 465 77 435 165 281 86 157 
338 9 46 67 340 100 389 183 489 355 87 
339 9 120 211 442 406 52 449 167 295 356 
340 9 100 46 338 183 355 327 55 67 235 
341 9 186 60 26 136 468 434 349 268 161 
342 9 6 273 296 135 184 490 292 478 348 
343 9 250 172 227 148 314 482 199 424 48 
344 9 209 306 352 201 204 426 242 371 364 
345 8 294 443 247 185 460 488 59 280 
346 9 326 35 9 37 373 16 400 66 463 
347 9 254 28 77 84 281 181 198 86 337 
348 9 184 232 88 96 25 12 97 312 320 
349 9 136 390 60 268 32 468 161 39 56 
350 9 92 477 152 404 292 478 480 47 474 
351 9 29 469 476 13 190 270 496 376 386 
352 9 204 371 302 344 98 209 181 306 426 
353 9 192 151 30 200 125 377 126 432 202 
354 9 14 180 332 440 64 248 55 95 303 
355 9 327 235 340 55 100 248 286 95 46 
356 9 228 442 449 52 297 3 339 187 398 
357 9 308 299 447 466 275 108 224 154 71 
358 9 31 79 215 298 240 461 484 305 44 
359 9 333 428 469 147 205 236 351 405 255 
360 9 251 185 331 59 443 43 244 162 74 
361 9 372 159 311 219 154 405 203 138 466 
362 9 212 123 73 80 166 262 4 257 143 
363 9 418 401 18 107 56 188 121 446 131 
364 8 201 412 242 209 344 306 287 352 
365 9 149 177 211 120 33 406 195 339 167 
366 9 368 461 259 298 79 382 215 102 358 
367 9 417 140 380 51 324 310 109 387 2 
368 9 366 461 298 259 79 382 174 358 493 
369 9 11 153 317 422 233 239 413 19 451 
370 9 421 176 66 284 463 230 415 321 491 
371 9 302 204 352 181 98 438 23 69 254 
372 9 361 159 311 154 219 203 299 138 405 
373 9 37 304 16 346 63 276 326 463 66 
374 9 314 146 227 250 141 472 225 343 106 
375 9 116 70 32 22 224 39 136 458 349 
376 9 496 498 386 270 13 485 190 288 105 
377 9 432 436 125 353 414 200 124 126 192 
378 9 397 283 429 109 301 387 310 243 416 
379 9 263 325 430 459 497 81 315 73 4 
380 9 140 310 367 417 51 324 2 109 387 
381 9 487 411 49 61 176 430 284 118 263 
382 9 445 409 266 368 366 102 392 259 244 
383 9 82 199 148 54 170 253 435 172 157 
384 9 309 101 246 424 407 168 482 479 48 
385 9 218 389 249 264 489 65 318 388 110 
386 9 496 376 485 498 270 156 13 252 202 
387 9 109 301 62 378 140 283 334 397 289 
388 9 318 110 87 385 389 67 218 489 65 
389 9 489 264 385 307 218 249 46 338 67 
390 9 268 349 161 60 468 136 32 56 420 
391 8 488 258 433 83 455 483 221 245 
392 9 75 257 4 143 73 212 315 74 459 
393 9 78 431 323 457 182 330 144 285 456 
394 9 225 278 189 194 374 89 168 472 141 
395 9 213 206 93 104 282 329 237 231 455 
396 8 47 296 273 490 477 399 342 6 
397 9 283 378 429 301 109 243 387 62 260 
398 9 234 21 132 142 131 187 228 449 356 
399 8 261 453 448 490 273 293 481 6 
400 9 9 179 35 326 58 85 230 346 128 
401 9 188 18 363 418 446 107 56 121 131 
402 9 50 129 160 277 115 318 388 34 110 
403 9 473 408 193 419 5 26 53 161 420 
404 9 220 290 494 474 152 350 92 114 335 
405 9 219 203 159 147 138 163 164 269 361 
406 9 120 187 339 442 211 449 365 446 149 
407 9 246 479 424 482 265 48 309 486 384 
408 9 473 403 161 468 26 420 268 5 53 
409 9 445 266 382 102 244 279 43 259 392 
410 9 170 486 48 425 492 265 172 199 482 
411 9 487 381 58 284 118 176 128 230 430 
412 8 364 201 242 209 306 344 352 426 
413 9 233 153 369 85 11 317 422 128 451 
414 9 127 454 436 124 34 432 169 377 160 
415 9 484 491 240 31 61 49 176 358 370 
416 9 260 122 310 27 429 452 2 112 378 
417 9 367 140 51 324 380 310 109 387 2 
418 9 363 107 56 121 401 18 188 131 446 
419 9 214 155 216 76 403 473 26 408 103 
420 9 5 53 142 132 21 131 234 398 121 
421 9 66 370 284 230 463 176 37 326 35 
422 9 451 153 239 369 11 19 317 111 233 
423 9 467 167 256 295 492 486 265 479 410 
424 9 246 309 407 482 384 48 343 479 265 
425 9 170 157 165 410 435 465 3 297 467 
426 9 8 103 306 344 98 352 76 178 216 
427 9 471 23 300 438 287 45 141 472 204 
428 9 255 322 63 321 90 276 333 304 236 
429 9 397 378 283 260 416 27 243 122 310 
430 9 263 325 81 379 118 497 459 17 315 
431 9 323 78 393 457 456 495 285 330 182 
432 9 436 377 414 125 127 454 124 353 34 
433 9 83 391 488 59 221 331 258 483 345 
434 9 341 186 116 60 136 26 349 468 268 
435 9 465 157 165 198 337 134 82 425 54 
436 9 432 414 377 127 454 125 124 34 274 
437 9 133 441 271 238 68 150 62 289 328 
438 9 23 181 371 302 347 427 84 254 204 
439 9 210 478 12 494 65 207 97 249 292 
440 9 332 303 14 354 95 248 180 286 55 
441 9 437 133 271 226 243 68 72 238 62 
442 9 449 356 187 339 406 120 52 228 211 
443 9 185 360 162 251 91 294 345 59 171 
444 9 99 145 96 25 312 15 232 158 64 
445 9 409 382 266 244 43 392 143 257 74 
446 9 188 401 18 363 406 187 418 120 131 
447 9 108 71 466 299 275 33 195 241 357 
448 8 293 453 313 261 481 72 226 399 
449 9 442 187 356 406 339 120 228 52 398 
450 9 237 282 329 93 206 119 41 291 20 
451 9 422 239 111 153 462 464 19 369 11 
452 9 112 320 122 27 312 260 25 416 96 
453 8 261 448 293 399 313 481 490 72 
454 9 127 414 34 160 124 169 115 129 274 
455 8 391 483 258 291 93 488 282 329 
456 9 495 285 323 330 182 217 78 393 431 
457 9 144 78 393 173 431 323 191 10 182 
458 9 223 224 308 70 357 38 241 375 275 
459 9 315 379 4 73 75 497 263 325 212 
460 8 303 280 475 247 440 332 95 245 
461 9 298 366 368 259 79 358 215 305 31 
462 9 464 238 150 111 328 451 130 117 68 
463 9 37 66 304 276 421 370 63 326 373 
464 9 462 111 150 238 328 451 130 117 137 
465 9 157 165 435 134 198 337 3 297 425 
466 9 71 447 299 108 154 33 316 357 195 
467 9 295 423 167 492 256 425 52 410 486 
468 9 161 268 60 390 408 349 26 420 136 
469 9 351 476 29 333 190 13 270 205 336 
470 9 139 87 67 110 20 41 119 338 388 
471 9 427 300 287 23 45 438 141 472 106 
472 9 141 45 146 106 300 374 314 194 227 
473 9 403 408 193 26 5 53 419 161 420 
474 9 152 404 220 480 290 92 350 114 494 
475 7 280 245 286 258 460 95 248 
476 9 29 351 30 270 192 469 13 151 202 
477 9 92 350 47 292 296 396 152 478 480 
478 9 292 439 342 12 184 296 348 210 494 
479 9 265 486 48 492 407 482 246 410 423 
480 9 152 92 350 474 477 404 47 220 290 
481 8 72 448 293 226 313 453 261 399 
482 9 48 265 246 486 479 424 172 407 343 
483 9 221 104 455 175 391 433 83 213 279 
484 9 240 31 415 358 61 79 49 491 215 
485 9 156 252 386 202 496 231 498 376 175 
486 9 265 492 48 479 482 410 407 423 467 
487 9 381 411 49 61 176 430 118 263 284 
488 7 391 258 83 433 345 245 294 
489 9 389 264 307 218 249 385 46 272 338 
490 8 273 6 135 261 399 342 453 296 
491 9 415 484 240 208 31 358 321 215 370 
492 9 486 265 479 423 48 410 467 256 482 
493 9 174 497 379 459 49 263 61 79 75 
494 9 290 220 404 335 439 207 478 292 65 
495 8 456 285 323 217 330 182 78 393 
496 9 386 376 270 498 485 13 190 156 252 
497 9 379 493 263 459 174 430 315 325 75 
498 9 376 496 386 485 288 105 175 102 270 
DEPOT_SECTION
   1
   -1
EOF
