NAME :  X-n502-kX-w50-c11.cctp
COMMENT : 	Adapted by Maziero, Usberti and Cavellucci from the Uchoa, Pecin, Pessoa, Poggi, Subramanian, and Vidal (2013)
TYPE :  CCTP
DIMENSION :    364
EDGE_WEIGHT_TYPE : 	EUC_2D	
CAPACITY : 	13
VERTICES_WITHIN_COVERAGE :  11
VERTICES_WITH_DEMAND : 	50
NODE_COORD_SECTION
1 0 0
2 159 917
3 635 200
4 278 907
5 667 141
6 119 954
7 29 448
8 590 87
9 375 990
10 511 374
11 298 957
12 107 911
13 323 766
14 161 892
15 151 912
16 438 1000
17 284 933
18 724 191
19 286 940
20 144 785
21 672 157
22 759 176
23 553 179
24 625 167
25 133 924
26 695 73
27 149 946
28 599 162
29 305 712
30 229 709
31 332 874
32 756 143
33 696 248
34 94 777
35 381 975
36 224 928
37 414 951
38 910 190
39 749 162
40 668 273
41 146 786
42 17 793
43 255 883
44 326 837
45 549 226
46 137 868
47 74 977
48 618 248
49 328 898
50 62 802
51 177 914
52 646 208
53 666 142
54 163 873
55 721 164
56 623 153
57 333 956
58 237 874
59 729 102
60 330 896
61 446 930
62 148 897
63 389 942
64 131 847
65 594 149
66 780 190
67 719 271
68 278 911
69 256 896
70 279 903
71 613 47
72 320 872
73 261 925
74 301 931
75 591 189
76 319 992
77 617 172
78 118 839
79 117 909
80 503 966
81 232 907
82 34 955
83 171 877
84 132 920
85 113 906
86 581 125
87 138 910
88 149 870
89 587 60
90 310 832
91 568 227
92 711 167
93 728 251
94 140 937
95 238 919
96 97 799
97 804 100
98 243 927
99 310 938
100 708 166
101 151 931
102 262 920
103 121 769
104 149 660
105 199 749
106 78 738
107 323 963
108 63 799
109 233 931
110 693 170
111 673 156
112 620 191
113 125 946
114 748 117
115 250 926
116 661 327
117 181 923
118 548 235
119 682 157
120 263 898
121 469 339
122 144 915
123 569 234
124 577 450
125 598 231
126 693 229
127 227 952
128 211 643
129 288 969
130 734 312
131 641 37
132 241 761
133 618 206
134 156 915
135 74 787
136 705 109
137 240 902
138 572 363
139 620 204
140 272 925
141 107 789
142 601 240
143 453 388
144 301 889
145 356 916
146 681 238
147 607 119
148 351 970
149 159 896
150 582 156
151 143 878
152 113 926
153 236 888
154 738 73
155 716 196
156 334 772
157 514 326
158 220 712
159 631 121
160 531 262
161 707 228
162 617 160
163 624 151
164 210 727
165 239 749
166 550 138
167 393 807
168 375 829
169 104 898
170 271 910
171 655 37
172 324 847
173 622 54
174 627 176
175 869 235
176 812 223
177 651 183
178 365 946
179 125 924
180 296 984
181 682 174
182 136 982
183 397 821
184 278 948
185 338 880
186 759 215
187 498 51
188 253 878
189 612 266
190 204 902
191 169 877
192 242 885
193 592 164
194 461 897
195 652 246
196 267 899
197 156 936
198 135 977
199 268 927
200 303 918
201 110 877
202 625 248
203 265 857
204 715 115
205 565 376
206 306 759
207 120 892
208 115 963
209 33 726
210 750 227
211 432 927
212 97 802
213 359 932
214 486 173
215 320 818
216 207 945
217 76 937
218 154 972
219 647 225
220 90 963
221 635 199
222 310 860
223 757 281
224 528 222
225 568 144
226 179 893
227 429 939
228 323 841
229 527 77
230 116 883
231 611 282
232 170 927
233 136 925
234 161 968
235 575 237
236 283 911
237 684 269
238 303 957
239 608 145
240 136 934
241 435 879
242 189 916
243 296 925
244 394 969
245 161 856
246 222 947
247 239 875
248 171 888
249 433 776
250 205 941
251 354 803
252 135 857
253 145 863
254 740 71
255 102 946
256 592 250
257 402 983
258 593 174
259 118 922
260 738 121
261 41 948
262 350 705
263 544 124
264 196 681
265 160 889
266 159 858
267 654 195
268 328 864
269 241 885
270 266 914
271 717 180
272 684 230
273 180 920
274 294 964
275 383 912
276 559 143
277 433 966
278 827 145
279 294 784
280 147 707
281 298 915
282 175 923
283 333 919
284 280 869
285 614 286
286 279 771
287 117 866
288 722 126
289 276 893
290 86 990
291 672 173
292 130 983
293 360 987
294 718 192
295 66 817
296 657 97
297 623 266
298 678 101
299 270 864
300 620 232
301 295 987
302 101 738
303 359 881
304 158 934
305 182 919
306 717 177
307 653 54
308 683 139
309 381 928
310 277 962
311 645 238
312 608 267
313 625 217
314 565 76
315 523 188
316 165 947
317 305 922
318 125 702
319 774 36
320 107 703
321 557 175
322 80 903
323 172 890
324 665 200
325 138 914
326 270 872
327 702 198
328 737 258
329 150 975
330 174 804
331 266 959
332 142 936
333 79 750
334 438 339
335 841 230
336 289 910
337 309 861
338 408 932
339 243 954
340 616 200
341 729 281
342 707 106
343 395 678
344 134 820
345 514 197
346 547 236
347 660 98
348 302 673
349 50 967
350 79 930
351 628 254
352 3 965
353 613 252
354 343 877
355 626 246
356 332 921
357 117 872
358 119 964
359 370 865
360 632 243
361 304 893
362 288 773
363 301 905
364 284 799
DEMAND_SECTION
2 1
3 1
4 1
5 1
6 1
7 1
8 1
9 1
10 1
11 1
12 1
13 1
14 1
15 1
16 1
17 1
18 1
19 1
20 1
21 1
22 1
23 1
24 1
25 1
26 1
27 1
28 1
29 1
30 1
31 1
32 1
33 1
34 1
35 1
36 1
37 1
38 1
39 1
40 1
41 1
42 1
43 1
44 1
45 1
46 1
47 1
48 1
49 1
50 1
51 1
COVERAGE_SECTION
2 11 134 15 122 232 101 282 304 51 197 149 273 
3 10 221 52 139 112 133 340 267 313 177 174 
4 11 68 70 236 170 336 196 270 289 120 140 102 
5 11 53 111 308 21 119 291 181 110 159 298 163 
6 11 113 208 358 255 240 94 198 152 332 220 27 
7 11 104 128 320 318 209 280 264 106 302 333 158 
8 11 89 314 147 86 71 173 159 263 225 239 65 
9 11 293 35 244 257 148 178 63 57 37 76 107 
10 6 157 205 121 143 138 334 
11 11 238 274 129 19 99 184 310 74 107 180 17 
12 11 85 79 169 152 259 179 207 84 322 25 230 
13 11 156 206 279 362 286 251 364 215 29 90 262 
14 11 265 149 248 323 62 191 83 226 54 15 151 
15 11 134 122 2 87 325 62 149 101 233 84 14 
16 11 277 257 244 37 35 227 9 61 80 211 338 
17 11 19 140 243 184 74 199 236 68 281 73 200 
18 11 294 155 271 306 327 55 92 100 110 22 39 
19 11 17 184 74 243 11 140 199 99 238 310 274 
20 8 41 103 330 344 141 96 212 34 
21 10 111 119 53 291 5 181 308 110 177 100 
22 11 39 66 32 18 186 55 271 306 294 155 92 
23 9 321 315 276 150 225 75 258 166 193 
24 9 77 174 162 56 163 112 28 239 177 
25 11 233 84 179 240 325 122 87 94 259 332 101 
26 11 298 342 136 154 347 59 254 296 307 204 171 
27 9 197 332 94 101 304 316 240 113 233 
28 10 193 258 65 150 162 239 77 24 56 163 
29 10 348 262 206 13 362 286 156 279 30 165 
30 8 158 164 165 264 105 132 128 29 
31 10 185 268 354 72 60 49 222 337 172 303 
32 11 39 114 260 22 288 55 59 204 92 306 66 
33 9 146 126 272 161 237 93 67 40 328 
34 11 141 96 135 212 103 333 108 302 50 106 295 
35 11 244 9 257 293 148 178 63 37 309 213 338 
36 10 109 95 98 246 81 250 127 216 115 137 
37 11 227 338 277 63 244 211 257 61 309 35 178 
38 9 175 335 278 176 66 97 22 186 32 
39 11 22 32 55 306 271 18 92 100 66 260 294 
40 9 237 195 146 33 311 351 272 297 360 
41 7 20 103 330 344 141 96 212 
42 10 50 108 295 135 209 333 34 96 212 106 
43 11 188 69 192 269 120 247 326 58 153 196 289 
44 9 228 172 90 215 268 222 337 72 31 
45 7 118 346 91 224 123 235 160 
46 11 253 252 88 151 287 357 64 266 54 230 245 
47 11 290 220 349 217 255 208 261 82 350 358 6 
48 10 353 202 355 351 360 300 142 189 297 312 
49 11 60 185 283 356 31 361 354 72 144 363 200 
50 9 108 295 135 96 212 34 42 141 333 
51 10 273 305 282 117 242 232 2 134 226 149 
52 7 3 221 267 219 324 313 177 
53 11 5 21 111 308 119 291 181 110 159 163 298 
54 10 191 83 88 265 266 245 248 14 323 151 
55 11 92 100 306 271 18 39 294 110 155 288 327 
56 11 163 162 24 239 77 174 28 65 159 193 258 
57 10 107 148 99 238 178 11 213 356 283 76 
58 6 247 192 269 153 188 43 
59 11 204 260 342 114 136 288 154 254 26 32 298 
60 11 49 185 31 283 354 356 72 361 144 363 268 
61 10 211 227 194 37 277 338 241 63 244 309 
62 11 149 14 265 15 87 122 134 151 325 2 248 
63 11 309 338 178 37 244 275 213 35 227 145 257 
64 9 252 78 253 46 287 344 88 357 266 
65 11 28 150 193 239 162 258 225 86 56 163 77 
66 11 22 186 39 176 210 32 18 294 55 155 271 
67 11 341 93 328 33 237 223 130 161 126 146 40 
68 11 4 236 170 70 336 270 140 196 102 289 199 
69 10 120 196 43 137 188 192 269 289 170 270 
70 11 4 68 236 289 170 336 196 120 270 281 363 
71 11 173 89 131 307 171 8 314 296 347 147 159 
72 9 268 31 222 337 185 354 144 172 60 
73 10 102 199 115 140 270 98 170 68 17 95 
74 11 243 317 99 200 281 17 19 336 11 238 363 
75 4 258 193 340 28 
76 11 180 301 107 238 274 57 129 148 11 293 310 
77 8 24 174 162 112 56 28 163 258 
78 6 64 252 344 287 357 46 
79 11 85 12 259 152 169 179 207 84 87 25 325 
80 11 61 277 16 227 194 211 37 338 257 244 241 
81 9 137 95 153 36 98 109 192 269 69 
82 7 261 349 352 47 217 350 220 
83 8 191 54 248 323 265 14 226 149 
84 11 25 233 179 325 87 122 259 240 79 94 332 
85 11 79 12 169 207 259 152 179 230 84 87 325 
86 11 225 65 147 276 150 166 239 263 8 28 193 
87 11 325 122 84 15 25 233 62 134 179 79 2 
88 11 253 151 46 54 266 245 252 191 265 83 14 
89 11 8 314 71 173 131 147 229 86 307 171 159 
90 7 228 44 215 172 222 337 268 
91 6 123 235 45 118 346 125 
92 11 100 55 306 271 110 294 18 155 181 119 327 
93 11 328 67 341 161 33 210 126 223 186 237 146 
94 11 332 240 27 101 233 25 197 113 304 84 179 
95 9 98 81 109 115 36 137 73 102 270 
96 9 212 141 34 135 108 50 295 103 344 
97 11 278 114 32 260 254 154 319 59 39 288 22 
98 9 115 95 109 73 36 102 81 137 199 
99 10 74 317 243 238 200 11 19 17 281 107 
100 11 92 55 306 110 271 181 119 294 18 155 327 
101 11 197 304 332 94 27 240 2 233 122 134 15 
102 11 73 270 199 140 115 170 68 98 4 120 196 
103 11 141 20 34 41 302 96 212 333 135 106 344 
104 11 280 318 264 320 128 158 164 302 30 105 106 
105 6 164 165 158 132 30 330 
106 11 333 302 34 320 209 135 103 141 318 108 96 
107 10 57 238 11 99 76 148 274 180 129 301 
108 9 50 135 295 96 212 34 141 42 333 
109 8 36 98 95 115 246 127 81 339 
110 10 181 100 119 92 291 111 21 306 271 55 
111 10 21 119 5 53 291 181 308 110 177 100 
112 7 340 139 133 3 174 221 77 
113 11 6 240 94 358 208 332 179 25 152 255 27 
114 11 260 59 32 288 204 342 136 39 154 254 55 
115 9 98 73 102 95 109 199 270 140 36 
116 6 40 237 285 231 297 130 
117 7 273 305 282 51 242 232 2 
118 8 346 45 123 91 224 235 160 256 
119 10 111 21 110 181 308 291 5 53 100 92 
120 11 196 69 170 289 270 4 43 70 68 102 188 
121 4 334 157 143 10 
122 11 325 15 87 134 84 233 25 2 101 62 179 
123 7 91 235 118 45 346 256 125 
124 5 205 138 10 143 157 
125 5 142 256 300 235 48 
126 6 272 161 146 33 327 155 
127 7 246 339 216 109 36 250 98 
128 11 264 104 30 158 164 280 348 318 105 165 29 
129 11 274 310 11 180 238 301 184 331 19 17 107 
130 8 341 223 67 328 93 237 33 116 
131 11 171 307 173 71 89 296 347 26 8 298 159 
132 6 165 286 105 164 362 30 
133 6 139 340 313 112 3 221 
134 11 2 15 122 101 232 325 87 149 304 62 51 
135 11 108 50 34 96 212 295 141 333 106 103 302 
136 11 342 204 288 59 298 260 26 308 114 347 154 
137 9 81 153 69 95 192 269 120 43 98 
138 3 205 10 157 
139 6 133 340 112 313 3 221 
140 11 199 73 102 270 17 68 170 236 4 19 115 
141 11 96 212 34 103 135 20 41 344 108 50 333 
142 5 125 256 353 48 300 
143 6 334 121 10 157 205 138 
144 10 361 363 336 72 289 70 281 49 236 4 
145 10 213 283 356 275 309 178 49 60 303 185 
146 6 272 126 33 161 195 237 
147 11 159 239 86 65 8 163 56 162 28 150 225 
148 10 293 57 178 107 35 9 76 213 244 63 
149 11 14 265 62 248 323 15 134 226 2 191 83 
150 10 193 65 28 225 258 276 239 86 321 75 
151 11 88 46 253 62 265 54 252 14 149 191 266 
152 11 259 179 12 79 25 84 85 113 233 255 240 
153 8 269 192 247 58 137 81 43 188 
154 11 254 59 26 114 342 204 260 136 319 288 298 
155 10 294 18 327 271 306 92 100 55 161 110 
156 11 13 206 251 279 362 215 286 364 44 90 29 
157 5 121 10 160 138 205 
158 8 30 164 264 165 105 132 128 280 
159 11 147 163 56 239 296 347 5 53 162 24 65 
160 6 346 118 45 224 123 91 
161 8 126 33 272 146 327 93 155 294 
162 10 56 24 163 77 239 28 174 65 193 258 
163 11 56 162 24 239 77 174 28 65 159 193 147 
164 7 158 105 30 165 132 264 280 
165 7 132 164 105 30 158 286 362 
166 10 276 263 225 86 150 321 23 65 193 28 
167 10 183 168 251 249 359 156 44 215 228 172 
168 11 183 167 251 359 44 228 172 303 215 354 268 
169 8 85 12 79 207 230 201 322 259 
170 11 270 68 4 70 196 236 102 120 140 199 73 
171 11 131 307 173 71 26 296 347 298 89 8 342 
172 9 228 44 268 222 90 337 72 31 215 
173 11 71 131 307 89 171 8 296 347 314 147 159 
174 9 24 77 112 162 56 221 3 163 177 
175 9 335 176 38 278 66 186 210 223 22 
176 9 335 66 186 175 210 22 278 223 328 
177 9 267 324 3 221 291 52 174 24 112 
178 10 213 63 309 148 145 35 57 244 275 293 
179 11 259 25 84 233 152 240 325 79 87 94 122 
180 11 301 129 274 76 11 238 310 107 331 184 19 
181 9 291 110 119 21 111 100 92 324 327 
182 8 198 292 329 218 358 208 234 6 
183 10 167 168 251 359 249 241 303 44 172 215 
184 10 19 310 17 331 11 129 199 274 140 238 
185 11 354 31 60 268 72 49 303 222 337 359 172 
186 11 210 66 22 18 155 294 93 328 39 161 176 
187 6 229 314 263 89 8 166 
188 11 43 192 247 269 58 69 326 153 120 299 203 
189 11 312 297 353 231 48 285 351 202 355 256 142 
190 6 242 226 81 305 51 273 
191 10 83 54 248 323 265 14 226 88 149 266 
192 9 269 153 247 58 43 188 137 69 81 
193 9 28 258 150 65 75 162 239 77 225 
194 9 241 61 211 227 338 37 277 275 80 
195 8 311 360 219 351 355 202 146 40 
196 11 120 69 289 170 70 4 270 68 43 236 102 
197 9 304 101 27 316 332 94 232 2 240 
198 8 182 292 329 218 358 208 6 234 
199 11 140 73 102 270 17 170 115 68 4 19 236 
200 11 317 281 243 74 363 336 99 236 17 361 68 
201 7 230 357 287 207 169 46 85 
202 11 355 48 351 360 353 300 297 189 311 142 312 
203 7 299 326 284 188 43 247 58 
204 11 136 342 288 59 260 114 298 308 26 154 55 
205 4 138 10 157 124 
206 10 13 362 279 286 156 364 29 215 132 251 
207 9 230 85 79 169 201 357 12 87 287 
208 10 358 6 113 255 198 220 292 182 94 240 
209 11 106 333 42 302 135 320 108 34 50 318 96 
210 11 186 93 328 161 18 155 294 66 22 67 223 
211 10 227 61 338 37 277 194 63 241 275 309 
212 8 96 141 34 135 108 295 50 103 
213 10 178 145 309 283 356 275 63 57 148 49 
214 8 345 315 224 23 321 166 263 276 
215 9 90 44 228 172 251 364 222 279 337 
216 5 250 246 127 36 109 
217 10 350 255 220 322 261 152 12 47 349 259 
218 6 329 234 198 182 27 292 
219 7 311 52 195 313 360 3 300 
220 11 47 255 208 290 358 6 217 350 113 349 152 
221 10 3 52 139 112 133 267 340 313 177 174 
222 8 337 72 268 172 228 31 44 90 
223 9 341 328 67 130 93 210 186 33 161 
224 10 45 118 346 345 315 91 160 123 235 23 
225 11 276 150 166 86 65 193 263 321 28 23 258 
226 8 323 248 14 83 191 265 149 51 
227 11 211 37 61 338 277 63 244 309 257 194 275 
228 8 44 172 90 215 222 268 337 72 
229 7 314 187 263 89 8 166 86 
230 7 201 207 357 287 169 85 46 
231 9 285 312 189 297 353 351 48 202 256 
232 9 282 117 273 304 305 2 51 197 134 
233 11 25 84 240 179 325 94 122 332 87 101 259 
234 4 218 329 316 27 
235 7 123 91 256 125 142 118 45 
236 11 68 4 336 70 170 281 270 140 243 289 363 
237 10 40 33 146 67 195 272 126 161 341 93 
238 11 11 274 129 99 107 19 74 310 184 180 57 
239 11 65 56 162 163 28 193 147 24 77 150 159 
240 11 94 332 233 25 84 101 179 113 27 197 325 
241 10 194 211 61 338 227 275 359 183 309 37 
242 8 305 273 117 51 282 190 232 226 
243 11 74 317 200 281 17 336 19 99 236 363 68 
244 11 35 257 37 63 9 178 293 277 338 148 309 
245 8 266 54 253 88 191 83 252 46 
246 7 127 216 250 36 109 339 98 
247 7 58 192 269 153 188 43 69 
248 9 323 226 14 83 191 265 149 54 62 
249 10 167 183 168 251 156 241 343 262 359 13 
250 6 216 246 36 127 109 117 
251 11 168 156 215 167 44 183 13 228 90 172 279 
252 10 46 64 253 88 287 151 357 266 78 245 
253 10 88 46 252 151 266 245 54 64 191 287 
254 11 154 59 26 114 342 319 260 204 136 288 298 
255 11 6 208 220 113 152 358 217 350 259 179 12 
256 8 142 125 235 353 312 48 189 123 
257 11 244 35 9 37 277 16 293 63 338 178 227 
258 7 193 28 75 150 77 65 162 
259 11 152 179 79 84 25 12 85 233 240 325 87 
260 11 114 288 59 204 32 342 136 39 55 154 254 
261 7 82 349 217 350 352 47 220 
262 11 29 343 348 13 156 206 362 279 286 251 249 
263 9 166 276 225 86 150 229 314 321 23 
264 10 158 128 30 164 104 280 105 318 165 132 
265 11 14 149 248 323 62 191 54 83 226 151 88 
266 8 245 253 54 88 191 83 46 252 
267 6 177 324 52 221 3 291 
268 9 31 72 172 222 185 337 354 228 44 
269 9 192 153 247 58 43 188 137 69 81 
270 11 170 102 68 73 140 199 4 196 120 70 236 
271 11 306 294 18 92 55 155 100 327 110 181 39 
272 6 126 146 33 161 195 324 
273 8 305 117 282 51 242 232 2 134 
274 11 11 129 238 310 180 184 301 19 331 107 99 
275 10 309 145 63 213 338 178 303 359 37 283 
276 11 225 166 263 150 86 321 23 65 193 28 258 
277 11 37 227 16 257 61 211 244 338 63 35 9 
278 11 97 66 32 22 176 39 114 335 260 38 186 
279 9 362 364 286 206 13 156 215 90 132 
280 11 318 320 104 264 302 164 103 105 158 106 20 
281 11 200 243 317 336 363 74 236 68 4 70 17 
282 9 117 232 273 305 51 242 2 304 134 
283 10 356 49 60 145 317 213 99 200 74 281 
284 7 326 299 203 289 188 43 144 
285 8 231 189 312 297 353 351 48 202 
286 8 362 279 364 206 132 13 165 156 
287 7 357 201 230 46 252 64 207 
288 11 204 260 136 59 342 114 32 55 308 92 100 
289 11 70 196 4 120 68 170 236 69 336 326 43 
290 11 47 220 208 358 349 292 255 6 182 198 217 
291 9 181 21 111 119 110 177 267 324 5 
292 9 182 198 329 358 208 218 6 234 113 
293 11 9 148 35 244 57 76 178 257 107 63 213 
294 11 155 18 271 306 327 92 55 100 110 161 181 
295 8 50 108 135 212 96 34 141 42 
296 11 347 298 159 307 5 26 53 136 308 342 147 
297 11 189 351 312 353 202 48 231 355 285 360 142 
298 11 347 296 136 342 26 308 204 5 53 59 159 
299 6 326 203 284 188 43 289 
300 8 355 48 313 360 202 142 353 125 
301 11 180 129 274 76 11 238 310 107 331 184 19 
302 11 106 333 320 103 34 318 141 280 135 96 20 
303 11 354 359 185 31 60 49 145 268 275 72 283 
304 10 197 101 232 27 316 332 2 94 134 282 
305 9 273 117 51 242 282 232 2 134 226 
306 11 271 92 55 100 294 18 155 110 327 39 181 
307 11 171 131 173 71 296 347 26 298 89 8 159 
308 11 5 53 119 111 21 110 181 291 100 136 298 
309 10 63 275 213 178 338 145 37 244 35 227 
310 10 331 129 184 274 11 19 238 180 17 301 
311 9 195 219 360 355 202 351 300 48 313 
312 11 189 231 297 353 285 48 256 351 202 142 355 
313 8 133 139 300 340 3 221 52 219 
314 9 8 89 229 86 263 71 147 173 166 
315 11 345 23 224 321 214 45 118 346 166 276 91 
316 6 197 304 27 101 232 234 
317 11 200 243 74 281 99 363 336 17 236 19 356 
318 11 320 280 302 104 106 333 103 264 34 20 41 
319 11 254 154 97 59 114 26 260 342 204 136 288 
320 11 318 302 280 106 333 104 103 34 209 141 20 
321 9 23 150 276 225 258 315 75 193 166 
322 6 169 350 12 85 217 79 
323 9 248 226 14 265 83 191 149 54 51 
324 5 267 52 177 291 3 
325 11 87 122 84 25 233 15 179 134 62 240 2 
326 9 299 284 203 188 43 289 120 196 69 
327 8 155 294 18 271 306 110 161 181 
328 10 93 67 341 223 210 33 161 186 126 130 
329 6 218 234 198 182 292 27 
330 2 41 20 
331 9 310 184 129 339 19 274 11 17 199 
332 11 94 240 101 27 233 197 25 304 84 113 122 
333 11 106 302 34 135 103 141 96 108 209 50 212 
334 4 121 143 157 10 
335 9 175 176 66 38 186 278 210 22 223 
336 11 236 281 4 68 70 363 200 243 170 317 289 
337 8 222 72 268 172 228 31 44 90 
338 10 37 63 227 211 309 275 61 244 277 178 
339 8 127 246 331 109 98 115 36 73 
340 6 133 139 112 3 221 313 
341 10 67 328 223 93 130 33 237 161 210 40 
342 11 136 204 59 288 298 260 26 308 114 154 254 
343 11 262 348 29 249 156 13 206 167 251 183 362 
344 6 78 64 20 41 252 141 
345 11 315 224 214 23 45 321 118 346 91 123 160 
346 8 118 45 123 91 224 235 160 256 
347 11 296 298 159 26 5 53 307 136 308 342 147 
348 11 29 262 30 206 158 343 13 128 165 286 362 
349 9 82 261 47 217 220 290 350 352 255 
350 10 217 322 255 12 152 220 259 169 85 261 
351 11 202 355 48 360 297 353 189 300 311 312 195 
352 5 82 261 349 47 217 
353 11 48 202 189 355 351 312 142 297 256 300 360 
354 11 185 31 303 268 60 72 49 359 172 222 337 
355 9 202 360 48 351 353 300 297 311 189 
356 10 283 49 60 145 317 99 200 213 74 57 
357 7 287 201 230 46 207 252 151 
358 10 208 6 113 198 292 182 255 220 329 94 
359 10 303 354 185 168 31 268 172 275 72 60 
360 9 355 202 351 311 48 300 195 353 219 
361 10 144 363 281 336 49 200 60 72 70 236 
362 9 286 279 206 364 13 156 132 165 215 
363 11 281 361 200 336 144 317 236 243 70 4 68 
364 7 279 362 286 215 90 206 13 
DEPOT_SECTION
   1
   -1
EOF
