NAME :  X-n513-kX-w102-c9.cctp
COMMENT : 	Adapted by Maziero, Usberti and Cavellucci from the Uchoa, Pecin, Pessoa, Poggi, Subramanian, and Vidal (2013)
TYPE :  CCTP
DIMENSION :    379
EDGE_WEIGHT_TYPE : 	EUC_2D	
CAPACITY : 	142
VERTICES_WITHIN_COVERAGE :  9
VERTICES_WITH_DEMAND : 	102
NODE_COORD_SECTION
1 500 500
2 425 323
3 806 514
4 853 637
5 326 818
6 601 664
7 680 704
8 358 401
9 688 267
10 146 846
11 171 615
12 962 75
13 710 565
14 662 574
15 665 599
16 112 811
17 439 69
18 573 69
19 997 647
20 338 524
21 626 29
22 633 570
23 957 890
24 746 397
25 224 83
26 425 827
27 787 99
28 518 378
29 890 763
30 860 608
31 683 188
32 417 680
33 483 987
34 676 197
35 294 710
36 284 281
37 568 565
38 942 896
39 223 358
40 538 428
41 910 702
42 550 516
43 524 467
44 675 128
45 977 488
46 725 890
47 205 512
48 768 660
49 443 407
50 518 363
51 730 609
52 973 64
53 683 832
54 308 298
55 510 14
56 17 647
57 275 527
58 303 571
59 415 624
60 713 483
61 502 147
62 38 76
63 265 477
64 446 909
65 849 738
66 878 222
67 334 250
68 683 28
69 502 235
70 513 433
71 850 764
72 465 213
73 854 966
74 465 648
75 491 477
76 916 597
77 999 146
78 581 824
79 892 989
80 734 581
81 232 386
82 538 431
83 139 541
84 697 331
85 557 181
86 339 957
87 271 514
88 162 281
89 175 424
90 819 403
91 783 931
92 562 627
93 995 892
94 135 789
95 117 954
96 911 834
97 125 757
98 279 646
99 175 386
100 296 128
101 379 78
102 567 526
103 809 171
104 389 7
105 772 308
106 143 492
107 322 894
108 935 730
109 24 791
110 482 626
111 974 278
112 258 823
113 58 256
114 884 523
115 475 692
116 763 576
117 498 330
118 978 797
119 491 640
120 428 548
121 174 25
122 139 270
123 314 61
124 618 247
125 402 994
126 491 870
127 563 291
128 131 720
129 376 831
130 448 343
131 352 424
132 351 829
133 560 60
134 914 981
135 835 298
136 267 968
137 983 778
138 305 670
139 677 546
140 593 635
141 170 268
142 805 891
143 989 313
144 419 48
145 758 526
146 472 66
147 419 642
148 522 581
149 763 327
150 736 892
151 220 35
152 620 463
153 87 942
154 635 473
155 141 772
156 411 593
157 684 692
158 264 440
159 171 385
160 959 282
161 118 379
162 727 988
163 228 622
164 529 231
165 789 316
166 577 949
167 308 992
168 91 33
169 415 835
170 323 299
171 987 269
172 818 672
173 550 782
174 929 654
175 917 999
176 584 19
177 73 17
178 305 771
179 327 985
180 468 340
181 692 921
182 822 44
183 529 801
184 441 883
185 799 15
186 409 285
187 921 912
188 185 815
189 11 860
190 934 42
191 162 143
192 116 639
193 185 898
194 644 943
195 869 312
196 501 86
197 163 620
198 633 133
199 948 742
200 691 976
201 371 447
202 545 965
203 227 60
204 30 899
205 398 274
206 460 653
207 262 554
208 646 981
209 764 475
210 715 67
211 342 496
212 888 336
213 560 874
214 911 52
215 309 177
216 596 454
217 977 808
218 56 272
219 181 471
220 484 988
221 289 633
222 796 913
223 178 219
224 524 516
225 255 573
226 954 1
227 722 654
228 518 137
229 433 330
230 939 901
231 595 961
232 951 404
233 715 956
234 156 471
235 713 616
236 460 949
237 406 772
238 156 745
239 189 916
240 498 652
241 924 598
242 609 662
243 44 591
244 189 622
245 758 634
246 484 682
247 488 618
248 739 645
249 631 577
250 266 653
251 782 596
252 328 752
253 228 334
254 432 519
255 17 636
256 284 656
257 131 872
258 610 626
259 297 531
260 728 700
261 753 510
262 591 648
263 263 861
264 116 727
265 121 722
266 311 625
267 700 602
268 687 608
269 576 520
270 619 668
271 689 614
272 273 795
273 670 622
274 37 884
275 310 576
276 565 629
277 961 754
278 548 608
279 387 643
280 735 499
281 127 530
282 306 597
283 267 712
284 719 490
285 218 615
286 297 575
287 154 759
288 186 516
289 610 659
290 421 630
291 572 520
292 57 672
293 573 664
294 112 761
295 732 501
296 118 871
297 168 777
298 764 912
299 242 665
300 270 682
301 131 744
302 235 557
303 410 622
304 34 593
305 789 712
306 601 803
307 46 784
308 175 561
309 606 451
310 453 855
311 600 675
312 313 597
313 802 569
314 617 795
315 579 361
316 614 547
317 270 627
318 136 446
319 650 520
320 154 412
321 365 805
322 308 730
323 640 776
324 643 616
325 582 522
326 678 545
327 565 565
328 411 449
329 774 557
330 467 625
331 240 552
332 92 562
333 699 606
334 723 565
335 676 382
336 104 337
337 181 846
338 123 806
339 886 668
340 130 804
341 429 696
342 337 809
343 161 642
344 76 787
345 302 650
346 458 725
347 233 529
348 659 593
349 777 565
350 170 895
351 149 566
352 279 673
353 269 700
354 427 710
355 428 661
356 674 700
357 665 706
358 522 638
359 231 527
360 146 811
361 161 286
362 748 588
363 171 610
364 321 708
365 266 647
366 687 567
367 730 598
368 303 683
369 101 747
370 31 623
371 642 718
372 780 648
373 149 448
374 212 489
375 777 609
376 527 562
377 649 760
378 437 708
379 46 689
DEMAND_SECTION
2 8
3 2
4 10
5 7
6 10
7 7
8 7
9 2
10 9
11 9
12 1
13 3
14 9
15 4
16 10
17 3
18 4
19 2
20 8
21 2
22 9
23 2
24 8
25 8
26 5
27 8
28 4
29 5
30 9
31 8
32 5
33 2
34 10
35 1
36 3
37 9
38 3
39 8
40 4
41 2
42 6
43 8
44 9
45 4
46 1
47 6
48 2
49 1
50 10
51 3
52 4
53 2
54 7
55 3
56 6
57 1
58 5
59 4
60 1
61 7
62 4
63 9
64 7
65 5
66 4
67 6
68 10
69 1
70 6
71 1
72 8
73 3
74 5
75 5
76 6
77 1
78 9
79 1
80 2
81 5
82 10
83 7
84 6
85 5
86 10
87 4
88 6
89 10
90 3
91 10
92 4
93 10
94 3
95 8
96 9
97 3
98 2
99 8
100 7
101 7
102 8
103 2
COVERAGE_SECTION
2 9 229 130 186 180 205 117 49 50 8 
3 9 145 261 329 313 209 349 280 116 295 
4 9 30 339 172 372 76 174 241 375 251 
5 7 342 132 321 178 129 272 252 
6 9 242 289 311 270 262 293 140 258 276 
7 5 356 157 357 371 260 
8 9 131 201 328 49 211 158 2 229 130 
9 9 84 34 124 31 105 149 165 335 127 
10 9 257 337 360 296 340 338 16 188 350 
11 9 363 197 244 343 285 308 351 163 192 
12 9 52 190 214 226 77 182 66 185 27 
13 9 334 366 80 139 267 326 367 333 362 
14 9 348 15 366 22 249 139 326 268 324 
15 7 348 268 273 14 271 324 267 
16 9 338 340 94 360 344 10 155 294 97 
17 9 144 146 101 196 104 55 61 228 133 
18 9 133 176 21 196 55 228 198 146 61 
19 9 174 241 76 41 108 199 277 339 137 
20 8 211 259 58 275 57 286 87 312 
21 9 176 68 18 133 210 198 44 55 196 
22 8 249 14 316 348 15 324 139 326 
23 9 38 230 93 187 96 217 118 134 137 
24 9 149 335 90 209 84 60 165 105 284 
25 9 203 151 121 100 191 123 215 168 223 
26 7 169 310 129 184 237 321 132 
27 9 182 103 210 185 44 68 214 31 34 
28 9 50 117 40 70 82 180 315 130 49 
29 9 71 65 108 199 41 277 96 118 137 
30 9 4 76 241 339 313 172 251 174 375 
31 9 34 44 198 9 124 210 85 103 27 
32 6 341 355 354 378 147 279 
33 9 220 236 202 125 64 166 184 231 126 
34 9 31 44 9 124 198 85 84 103 210 
35 8 322 283 353 364 368 300 352 138 
36 9 54 170 67 253 39 215 205 141 81 
37 9 327 102 376 291 325 269 278 148 316 
38 9 230 23 187 93 96 134 217 118 79 
39 9 253 81 99 159 89 320 158 361 36 
40 9 82 70 43 28 216 50 75 309 315 
41 9 108 339 174 199 29 65 277 4 71 
42 9 102 291 224 269 325 327 376 37 43 
43 9 75 70 82 40 224 42 291 102 216 
44 9 198 31 34 210 68 21 27 18 85 
45 9 232 114 241 76 19 30 3 174 143 
46 9 150 181 298 233 91 53 222 142 200 
47 8 288 374 359 347 219 331 302 308 
48 9 372 245 248 227 172 375 305 260 51 
49 9 328 130 180 70 229 28 201 8 75 
50 9 28 117 180 315 40 70 82 130 127 
51 7 367 235 80 362 267 333 248 
52 9 12 190 214 226 77 182 185 66 27 
53 8 323 46 314 150 377 306 181 78 
54 9 170 36 67 253 205 186 39 8 81 
55 9 146 133 196 176 18 17 144 21 104 
56 6 255 370 292 379 304 243 
57 9 87 259 207 347 331 359 225 302 63 
58 8 286 275 282 312 259 207 225 57 
59 7 303 290 147 156 279 355 330 
60 9 284 295 280 261 209 145 326 139 319 
61 9 228 196 85 72 146 69 164 17 18 
62 9 168 177 191 121 113 25 151 203 218 
63 9 87 158 57 374 359 347 259 47 207 
64 9 184 236 310 126 169 26 33 220 125 
65 9 71 29 305 41 172 339 108 199 4 
66 9 103 135 195 160 111 212 171 165 105 
67 9 170 54 36 205 215 186 2 229 100 
68 9 210 21 176 44 198 18 185 27 133 
69 9 164 72 85 127 61 117 228 186 180 
70 9 40 82 43 75 28 50 49 224 216 
71 9 65 29 305 41 108 96 172 199 339 
72 9 69 164 61 186 205 228 85 2 229 
73 9 79 134 175 91 222 187 142 298 230 
74 9 206 330 119 110 240 247 246 355 115 
75 8 43 70 224 82 40 42 254 49 
76 9 241 30 174 4 339 114 19 41 313 
77 9 12 52 190 171 214 111 160 66 226 
78 7 306 314 173 213 183 323 377 
79 9 134 175 73 187 230 38 23 222 91 
80 9 362 367 334 51 13 116 267 235 333 
81 9 39 253 99 159 158 89 320 63 219 
82 9 40 70 43 28 216 75 50 309 315 
83 6 281 351 308 106 332 288 
84 9 335 9 149 105 24 165 124 315 34 
85 9 164 228 61 69 124 198 72 127 196 
86 9 179 167 107 125 136 64 236 263 184 
87 9 57 259 63 207 347 359 331 302 225 
88 9 361 141 122 223 336 253 39 159 99 
89 8 320 373 99 159 318 219 234 81 
90 9 24 209 165 149 212 195 105 135 3 
91 9 222 298 142 150 46 233 73 162 181 
92 8 276 278 140 262 293 358 258 6 
93 9 23 38 230 187 217 118 96 137 134 
94 9 340 155 338 360 16 97 297 287 294 
95 9 153 350 239 257 296 193 204 274 10 
96 9 38 217 23 230 29 118 187 137 71 
97 9 294 301 155 369 287 264 238 94 265 
98 9 256 365 250 221 317 345 352 138 300 
99 9 159 320 89 39 81 161 373 318 253 
100 9 215 123 25 101 203 151 67 191 144 
101 9 144 17 123 104 146 100 215 196 61 
102 9 291 269 325 42 37 327 224 316 376 
103 9 27 66 31 182 135 34 210 44 105 
104 9 144 101 17 123 146 55 196 100 203 
105 9 165 149 135 84 9 24 195 90 212 
106 6 234 281 219 373 318 83 
107 9 86 263 132 5 129 342 179 136 112 
108 9 199 277 41 29 137 174 339 118 65 
109 6 307 344 189 369 16 294 
110 6 247 330 119 74 240 206 
111 9 160 171 143 212 195 66 232 77 135 
112 4 272 263 5 178 
113 7 218 122 336 88 361 141 223 
114 9 3 76 241 30 313 45 329 349 4 
115 5 246 346 378 206 74 
116 9 349 362 329 251 80 375 313 367 334 
117 9 180 50 28 130 229 2 127 315 49 
118 9 217 137 277 199 96 108 29 23 93 
119 7 240 110 247 74 330 358 206 
120 5 254 156 303 59 290 
121 9 151 203 25 168 177 191 62 123 100 
122 9 88 361 141 223 336 113 218 253 161 
123 9 101 100 203 104 25 151 144 215 17 
124 9 127 9 34 31 85 164 84 198 69 
125 9 86 236 179 33 220 167 64 184 107 
126 9 310 184 64 213 26 183 169 236 78 
127 9 164 124 315 117 69 50 28 180 85 
128 5 265 264 301 238 97 
129 7 132 321 169 342 26 5 237 
130 9 180 229 2 117 49 186 50 28 205 
131 9 8 201 328 211 158 49 20 63 259 
132 8 342 129 5 321 169 107 26 178 
133 9 18 176 196 55 21 146 228 198 61 
134 9 175 79 73 187 230 38 23 93 222 
135 9 195 165 105 212 149 66 90 160 103 
136 8 167 179 86 107 239 263 193 350 
137 9 118 217 277 199 108 96 29 41 23 
138 7 368 345 256 352 98 300 221 
139 9 326 366 14 319 13 22 334 348 15 
140 8 262 258 276 289 6 242 92 293 
141 9 88 361 122 223 253 336 39 113 218 
142 9 222 91 298 150 46 73 233 181 187 
143 9 111 160 171 232 212 195 66 135 77 
144 9 17 101 104 146 196 55 123 61 228 
145 9 261 280 329 295 349 3 116 209 334 
146 9 17 196 144 55 228 61 133 101 18 
147 8 290 59 355 303 279 32 206 74 
148 5 376 278 327 37 247 
149 9 105 165 84 24 135 90 9 335 195 
150 9 46 298 181 91 222 233 142 53 200 
151 9 203 121 25 123 100 191 168 177 101 
152 9 154 309 216 319 325 269 291 102 316 
153 9 95 204 274 296 257 350 239 193 189 
154 9 152 309 216 319 325 269 316 60 291 
155 8 94 287 97 297 301 238 294 340 
156 6 303 59 290 120 147 279 
157 5 7 356 357 260 371 
158 9 63 81 374 87 57 131 219 89 39 
159 9 99 320 89 161 39 81 373 318 253 
160 9 111 171 143 212 195 66 232 135 77 
161 5 336 320 159 99 318 
162 9 233 200 181 91 208 298 194 150 46 
163 7 285 244 317 299 365 250 98 
164 9 69 85 72 127 61 124 228 117 180 
165 9 105 149 135 195 24 90 84 212 9 
166 9 231 202 194 208 213 33 220 126 200 
167 9 179 86 136 125 107 263 239 193 236 
168 9 177 62 121 151 191 203 25 223 113 
169 8 26 129 310 184 321 132 237 64 
170 9 54 36 67 205 186 253 2 8 229 
171 9 111 160 143 66 212 77 195 232 135 
172 9 372 4 305 48 339 245 65 375 30 
173 5 183 78 306 314 323 
174 9 339 41 241 76 19 108 4 30 199 
175 9 134 79 73 187 230 38 23 93 222 
176 9 21 133 18 55 68 196 146 198 228 
177 9 168 62 121 151 191 203 25 223 113 
178 5 252 272 322 342 5 
179 9 167 86 136 125 107 236 263 64 184 
180 9 130 117 229 2 50 28 49 186 205 
181 9 233 46 150 194 200 298 162 208 53 
182 9 185 27 214 210 190 103 226 68 12 
183 6 173 78 306 126 213 314 
184 9 64 310 126 169 26 236 129 132 321 
185 9 182 27 210 68 214 190 103 226 44 
186 9 205 2 229 130 180 67 170 72 117 
187 9 230 38 23 134 93 96 79 73 175 
188 5 337 360 297 10 94 
189 8 274 204 109 307 344 296 16 153 
190 9 214 12 52 226 182 77 185 27 103 
191 9 223 25 203 121 151 141 122 168 100 
192 3 343 197 11 
193 8 350 239 337 257 10 296 188 263 
194 9 208 231 181 200 166 233 162 46 202 
195 9 212 135 165 66 160 105 90 149 111 
196 9 146 228 61 17 133 55 18 144 176 
197 8 11 363 343 244 192 285 351 308 
198 9 44 31 34 18 85 133 21 210 124 
199 9 108 277 137 41 29 118 217 174 339 
200 9 233 162 208 181 194 46 150 231 298 
201 9 131 328 8 211 49 20 254 158 63 
202 9 166 231 220 33 236 213 194 208 126 
203 9 25 151 121 123 100 191 168 215 101 
204 9 274 189 153 296 95 257 109 307 16 
205 9 186 2 229 67 170 130 72 54 180 
206 9 74 330 355 119 110 240 246 115 147 
207 9 225 331 302 57 347 87 286 359 259 
208 9 194 200 231 233 166 181 162 202 46 
209 9 261 280 295 284 145 60 3 24 329 
210 9 68 44 27 21 185 198 182 31 34 
211 9 20 201 259 87 131 57 63 328 58 
212 9 195 135 160 232 90 165 111 143 66 
213 9 78 126 166 183 306 202 173 231 314 
214 9 190 12 52 226 182 185 77 27 103 
215 9 100 67 36 123 54 101 170 25 205 
216 9 309 152 154 82 40 269 325 291 43 
217 9 118 137 277 96 199 23 93 108 38 
218 7 113 336 122 88 361 141 161 
219 9 234 374 373 106 288 89 47 318 320 
220 9 33 236 202 125 64 166 184 231 126 
221 9 98 317 345 266 256 365 250 138 282 
222 9 91 142 298 150 46 73 233 162 181 
223 9 141 88 122 361 191 36 253 113 218 
224 8 42 102 376 291 43 75 269 325 
225 7 207 302 331 286 58 347 57 
226 9 190 52 214 12 182 77 185 27 103 
227 6 248 235 245 48 51 260 
228 9 61 196 85 146 18 133 72 164 69 
229 9 2 130 180 186 117 205 49 50 28 
230 9 38 23 187 93 96 134 79 175 217 
231 9 166 202 194 208 213 200 181 220 33 
232 9 45 212 143 160 195 111 90 114 171 
233 9 200 162 181 298 46 150 91 194 208 
234 5 373 106 219 318 89 
235 7 333 51 267 271 367 268 227 
236 9 64 33 220 184 125 126 202 310 166 
237 2 321 26 
238 4 287 301 155 97 
239 8 193 350 337 257 95 10 296 263 
240 5 119 358 110 74 246 
241 9 76 174 30 339 4 114 19 41 45 
242 8 289 6 270 311 262 140 258 293 
243 5 304 370 255 332 56 
244 7 11 363 197 285 343 163 308 
245 9 248 372 48 375 51 227 251 367 362 
246 4 115 240 206 74 
247 6 110 119 330 240 74 358 
248 7 227 245 48 51 235 372 367 
249 7 22 14 348 316 15 324 258 
250 9 365 98 256 352 317 299 300 221 345 
251 9 375 116 349 313 362 329 245 80 367 
252 4 178 322 364 35 
253 9 39 81 99 159 36 361 88 54 141 
254 6 120 75 328 156 224 211 
255 6 56 370 304 243 292 379 
256 9 98 250 352 345 365 221 138 300 317 
257 9 296 10 350 337 193 360 16 338 340 
258 6 140 262 289 324 242 6 
259 9 57 87 58 20 207 286 275 211 225 
260 9 157 227 7 356 248 48 305 357 245 
261 9 145 280 295 209 284 60 329 3 349 
262 9 140 6 289 242 293 311 258 276 270 
263 6 112 272 107 5 337 193 
264 5 265 128 301 369 97 
265 5 264 128 301 369 97 
266 6 221 345 282 312 98 256 
267 7 333 268 271 235 367 51 15 
268 6 271 333 267 273 15 235 
269 9 291 325 102 42 37 327 316 224 376 
270 6 242 289 6 311 262 140 
271 6 268 333 267 273 235 15 
272 3 112 178 5 
273 3 271 268 15 
274 9 204 189 153 296 109 257 307 16 344 
275 6 58 286 282 312 259 266 
276 8 92 278 140 262 293 358 258 6 
277 9 199 137 108 118 217 29 41 96 174 
278 7 92 276 148 358 327 37 376 
279 3 303 147 59 
280 9 295 284 261 60 145 209 334 329 13 
281 4 83 106 351 332 
282 6 312 275 286 58 266 221 
283 5 353 35 300 352 322 
284 9 60 295 280 261 209 145 326 139 319 
285 7 163 244 11 363 317 197 299 
286 7 58 275 282 312 207 225 259 
287 5 238 155 297 301 97 
288 9 47 374 219 308 359 106 347 83 234 
289 8 242 6 270 311 262 140 258 293 
290 9 59 147 303 355 279 156 206 330 74 
291 9 269 102 325 42 37 327 224 316 376 
292 4 379 56 255 370 
293 9 262 6 311 140 242 276 289 92 270 
294 8 97 369 301 155 264 94 265 287 
295 9 280 284 261 60 145 209 334 13 326 
296 9 257 10 350 16 338 360 337 340 193 
297 4 287 155 238 94 
298 9 91 222 150 46 142 233 181 162 200 
299 8 250 365 300 352 98 256 353 163 
300 9 352 353 250 256 283 299 368 365 35 
301 8 97 264 128 265 238 294 287 155 
302 7 331 225 207 347 359 57 47 
303 6 59 290 147 156 279 355 
304 5 243 370 255 56 332 
305 9 172 48 260 65 372 71 245 248 227 
306 6 314 78 323 173 377 183 
307 6 109 344 369 294 16 338 
308 8 351 83 288 363 11 47 281 197 
309 9 216 152 154 82 40 269 325 291 319 
310 9 184 26 126 169 64 129 183 236 237 
311 8 6 242 289 270 262 293 140 258 
312 6 282 275 286 58 266 221 
313 9 349 329 251 116 375 3 362 145 80 
314 6 306 323 78 377 173 53 
315 9 50 28 127 40 82 117 309 216 70 
316 9 22 249 325 319 269 37 291 102 327 
317 8 221 365 98 250 256 345 266 163 
318 6 373 234 320 89 106 219 
319 9 139 326 316 154 22 14 249 366 152 
320 8 89 159 99 373 318 161 234 219 
321 6 129 132 342 5 237 169 
322 6 35 364 252 178 283 368 
323 6 377 314 306 371 53 357 
324 2 15 273 
325 9 269 291 102 42 316 37 327 224 319 
326 9 139 366 14 13 319 334 22 348 15 
327 9 37 376 102 148 269 278 291 325 42 
328 9 201 49 131 8 254 211 75 120 70 
329 9 349 116 313 145 251 362 80 261 334 
330 7 110 247 74 119 206 240 290 
331 7 302 207 347 225 359 57 87 
332 3 281 83 243 
333 7 267 268 271 235 51 367 273 
334 9 13 80 362 367 366 116 267 51 333 
335 9 84 24 152 309 315 154 149 60 216 
336 6 161 122 361 88 218 159 
337 6 188 10 360 350 193 257 
338 9 340 16 94 360 155 10 294 97 344 
339 9 41 4 174 30 172 76 65 108 241 
340 9 338 94 360 16 155 10 97 294 297 
341 7 354 378 32 355 346 115 206 
342 7 5 132 321 129 178 252 272 
343 5 197 11 244 363 192 
344 9 307 16 294 369 338 109 97 340 94 
345 7 256 138 221 98 266 352 368 
346 6 378 354 115 341 246 32 
347 8 359 331 302 47 207 87 57 374 
348 7 15 14 324 273 249 268 22 
349 9 329 116 313 251 362 145 375 80 334 
350 9 193 239 257 337 10 296 95 188 360 
351 8 308 83 281 363 11 197 332 288 
352 9 300 256 250 138 368 98 353 365 345 
353 7 283 300 35 352 368 299 256 
354 6 378 341 32 346 355 115 
355 9 147 32 290 206 341 59 74 303 279 
356 5 7 357 157 371 260 
357 6 356 7 157 371 377 270 
358 6 240 119 247 278 92 110 
359 8 347 331 47 302 207 87 374 57 
360 8 340 338 94 16 10 155 188 297 
361 9 88 141 122 223 336 253 39 159 99 
362 9 80 116 367 51 334 251 375 349 329 
363 9 11 197 244 343 285 308 351 163 192 
364 5 322 35 368 138 252 
365 9 250 98 256 317 221 352 299 300 345 
366 9 13 139 326 14 334 267 348 15 268 
367 9 51 80 362 235 267 333 334 13 116 
368 8 138 352 35 364 256 300 345 353 
369 5 294 264 97 301 265 
370 6 255 56 304 243 292 379 
371 6 357 356 7 377 157 270 
372 9 48 245 375 248 172 251 227 51 305 
373 6 318 234 89 320 219 106 
374 9 47 219 288 359 347 63 234 87 106 
375 9 251 245 116 362 372 349 51 313 367 
376 6 148 327 37 224 42 278 
377 7 323 371 314 357 7 306 356 
378 7 354 341 346 32 115 355 246 
379 3 292 56 255 
DEPOT_SECTION
   1
   -1
EOF
