NAME :  X-n513-kX-w51-c9.cctp
COMMENT : 	Adapted by Maziero, Usberti and Cavellucci from the Uchoa, Pecin, Pessoa, Poggi, Subramanian, and Vidal (2013)
TYPE :  CCTP
DIMENSION :    276
EDGE_WEIGHT_TYPE : 	EUC_2D	
CAPACITY : 	142
VERTICES_WITHIN_COVERAGE :  9
VERTICES_WITH_DEMAND : 	51
NODE_COORD_SECTION
1 500 500
2 425 323
3 806 514
4 853 637
5 326 818
6 601 664
7 680 704
8 358 401
9 688 267
10 146 846
11 171 615
12 962 75
13 710 565
14 662 574
15 665 599
16 112 811
17 439 69
18 573 69
19 997 647
20 338 524
21 626 29
22 633 570
23 957 890
24 746 397
25 224 83
26 425 827
27 787 99
28 518 378
29 890 763
30 860 608
31 683 188
32 417 680
33 483 987
34 676 197
35 294 710
36 284 281
37 568 565
38 942 896
39 223 358
40 538 428
41 910 702
42 550 516
43 524 467
44 675 128
45 977 488
46 725 890
47 205 512
48 768 660
49 443 407
50 518 363
51 730 609
52 973 64
53 683 832
54 308 298
55 510 14
56 502 147
57 38 76
58 265 477
59 446 909
60 849 738
61 334 250
62 683 28
63 513 433
64 850 764
65 465 213
66 491 477
67 916 597
68 999 146
69 892 989
70 734 581
71 232 386
72 538 431
73 697 331
74 162 281
75 819 403
76 783 931
77 562 627
78 995 892
79 135 789
80 117 954
81 911 834
82 175 386
83 296 128
84 379 78
85 567 526
86 809 171
87 389 7
88 772 308
89 322 894
90 935 730
91 24 791
92 258 823
93 884 523
94 498 330
95 978 797
96 174 25
97 314 61
98 618 247
99 402 994
100 491 870
101 563 291
102 376 831
103 448 343
104 352 424
105 351 829
106 560 60
107 914 981
108 983 778
109 677 546
110 593 635
111 170 268
112 805 891
113 419 48
114 758 526
115 472 66
116 419 642
117 522 581
118 763 327
119 736 892
120 220 35
121 684 692
122 264 440
123 171 385
124 727 988
125 789 316
126 577 949
127 91 33
128 415 835
129 323 299
130 818 672
131 929 654
132 917 999
133 584 19
134 73 17
135 305 771
136 468 340
137 692 921
138 822 44
139 441 883
140 799 15
141 409 285
142 921 912
143 185 815
144 11 860
145 934 42
146 162 143
147 116 639
148 185 898
149 644 943
150 501 86
151 163 620
152 633 133
153 948 742
154 691 976
155 371 447
156 545 965
157 227 60
158 30 899
159 398 274
160 646 981
161 764 475
162 715 67
163 342 496
164 911 52
165 309 177
166 596 454
167 977 808
168 181 471
169 484 988
170 796 913
171 178 219
172 524 516
173 954 1
174 722 654
175 518 137
176 433 330
177 939 901
178 595 961
179 951 404
180 715 956
181 713 616
182 460 949
183 406 772
184 189 916
185 924 598
186 609 662
187 189 622
188 758 634
189 739 645
190 631 577
191 328 752
192 228 334
193 131 872
194 610 626
195 297 531
196 728 700
197 753 510
198 591 648
199 263 861
200 700 602
201 687 608
202 576 520
203 619 668
204 689 614
205 273 795
206 670 622
207 37 884
208 565 629
209 961 754
210 548 608
211 735 499
212 267 712
213 218 615
214 186 516
215 610 659
216 572 520
217 573 664
218 732 501
219 118 871
220 764 912
221 270 682
222 235 557
223 789 712
224 46 784
225 175 561
226 606 451
227 453 855
228 600 675
229 802 569
230 579 361
231 614 547
232 650 520
233 365 805
234 308 730
235 643 616
236 582 522
237 678 545
238 565 565
239 411 449
240 699 606
241 723 565
242 676 382
243 181 846
244 123 806
245 886 668
246 130 804
247 429 696
248 337 809
249 161 642
250 76 787
251 458 725
252 233 529
253 659 593
254 170 895
255 149 566
256 269 700
257 427 710
258 428 661
259 674 700
260 665 706
261 231 527
262 146 811
263 161 286
264 748 588
265 171 610
266 321 708
267 687 567
268 730 598
269 303 683
270 642 718
271 780 648
272 212 489
273 777 609
274 527 562
275 649 760
276 437 708
DEMAND_SECTION
2 8
3 2
4 10
5 7
6 10
7 7
8 7
9 2
10 9
11 9
12 1
13 3
14 9
15 4
16 10
17 3
18 4
19 2
20 8
21 2
22 9
23 2
24 8
25 8
26 5
27 8
28 4
29 5
30 9
31 8
32 5
33 2
34 10
35 1
36 3
37 9
38 3
39 8
40 4
41 2
42 6
43 8
44 9
45 4
46 1
47 6
48 2
49 1
50 10
51 3
52 4
COVERAGE_SECTION
2 9 176 103 141 136 159 94 49 50 8 
3 6 114 197 229 161 211 218 
4 8 30 245 130 271 67 131 185 273 
5 7 248 105 233 135 102 205 191 
6 9 186 215 228 203 198 217 110 194 208 
7 5 259 121 260 270 196 
8 9 104 155 239 49 163 122 2 176 103 
9 9 73 34 98 31 88 118 125 242 101 
10 9 193 243 262 219 246 244 16 143 254 
11 8 265 151 187 249 213 225 255 147 
12 8 52 145 164 173 68 138 140 27 
13 9 241 267 70 109 200 237 268 240 264 
14 9 253 15 267 22 190 109 237 201 235 
15 7 253 201 206 14 204 235 200 
16 6 244 246 79 262 250 10 
17 9 113 115 84 150 87 55 56 175 106 
18 9 106 133 21 150 55 175 152 115 56 
19 9 131 185 67 41 90 153 209 245 108 
20 2 163 195 
21 9 133 62 18 106 162 152 44 55 150 
22 8 190 14 231 253 15 235 109 237 
23 9 38 177 78 142 81 167 95 107 108 
24 7 118 242 75 161 73 125 88 
25 9 157 120 96 83 146 97 165 127 171 
26 7 128 227 102 139 183 233 105 
27 9 138 86 162 140 44 62 164 31 34 
28 9 50 94 40 63 72 136 230 103 49 
29 9 64 60 90 153 41 209 81 95 108 
30 8 4 67 185 245 229 130 131 273 
31 8 34 44 152 9 98 162 86 27 
32 5 247 258 257 276 116 
33 9 169 182 156 99 59 126 139 178 100 
34 8 31 44 9 98 152 73 86 162 
35 6 234 212 256 266 269 221 
36 9 54 129 61 192 39 165 159 111 71 
37 9 238 85 274 216 236 202 210 117 231 
38 9 177 23 142 78 81 107 167 95 69 
39 7 192 71 82 123 122 263 36 
40 9 72 63 43 28 166 50 66 226 230 
41 9 90 245 131 153 29 60 209 4 64 
42 9 85 216 172 202 236 238 274 37 43 
43 9 66 63 72 40 172 42 216 85 166 
44 8 152 31 34 162 62 21 27 18 
45 8 179 93 185 67 19 30 3 131 
46 9 119 137 220 180 76 53 170 112 154 
47 7 214 272 261 252 168 222 225 
48 9 271 188 189 174 130 273 223 196 51 
49 9 239 103 136 63 176 28 155 8 66 
50 9 28 94 136 230 40 63 72 103 101 
51 7 268 181 70 264 200 240 189 
52 8 12 145 164 173 68 138 140 27 
53 4 46 119 275 137 
54 9 129 36 61 192 159 141 39 8 71 
55 9 115 106 150 133 18 17 113 21 87 
56 6 175 150 65 115 17 18 
57 7 127 134 146 96 25 120 157 
58 6 122 272 261 252 195 47 
59 9 139 182 227 100 128 26 33 169 99 
60 9 64 29 223 41 130 245 90 153 4 
61 9 129 54 36 159 165 141 2 176 83 
62 9 162 21 133 44 152 18 140 27 106 
63 9 40 72 43 66 28 50 49 172 166 
64 9 60 29 223 41 90 81 130 153 245 
65 6 56 141 159 175 2 176 
66 7 43 63 172 72 40 42 49 
67 9 185 30 131 4 245 93 19 41 229 
68 5 12 52 145 164 173 
69 8 107 132 142 177 38 23 170 76 
70 8 264 268 241 51 13 200 181 240 
71 7 39 192 82 123 122 58 168 
72 9 40 63 43 28 166 66 50 226 230 
73 9 242 9 118 88 24 125 98 230 34 
74 7 263 111 171 192 39 123 82 
75 6 24 161 125 118 88 3 
76 8 170 220 112 119 46 180 124 137 
77 7 208 210 110 198 217 194 6 
78 9 23 38 177 142 167 95 81 108 107 
79 4 246 244 262 16 
80 8 254 184 193 219 148 158 207 10 
81 9 38 167 23 177 29 95 142 108 64 
82 4 123 39 71 192 
83 9 165 97 25 84 157 120 61 146 113 
84 9 113 17 97 87 115 83 165 150 56 
85 9 216 202 236 42 37 238 172 231 274 
86 7 27 31 138 34 162 44 88 
87 9 113 84 17 97 115 55 150 83 157 
88 6 125 118 73 9 24 75 
89 6 199 105 5 102 248 92 
90 9 153 209 41 29 108 131 245 95 60 
91 4 224 250 144 16 
92 4 205 199 5 135 
93 7 3 67 185 30 229 45 4 
94 9 136 50 28 103 176 2 101 230 49 
95 9 167 108 209 153 81 90 29 23 78 
96 9 120 157 25 127 134 146 57 97 83 
97 9 84 83 157 87 25 120 113 165 17 
98 6 101 9 34 31 73 152 
99 6 182 33 169 59 139 89 
100 6 227 139 59 26 128 182 
101 6 98 230 94 50 28 136 
102 7 105 233 128 248 26 5 183 
103 9 136 176 2 94 49 141 50 28 159 
104 9 8 155 239 163 122 49 20 58 195 
105 8 248 102 5 233 128 89 26 135 
106 9 18 133 150 55 21 115 175 152 56 
107 8 132 69 142 177 38 23 78 170 
108 9 95 167 209 153 90 81 29 41 23 
109 9 237 267 14 232 13 22 241 253 15 
110 8 198 194 208 215 6 186 77 217 
111 5 74 263 171 192 39 
112 8 170 76 220 119 46 180 137 142 
113 9 17 84 87 115 150 55 97 56 175 
114 6 197 211 218 3 161 241 
115 9 17 150 113 55 175 56 106 84 18 
116 2 258 32 
117 4 274 210 238 37 
118 7 88 125 73 24 75 9 242 
119 9 46 220 137 76 170 180 112 53 154 
120 9 157 96 25 97 83 146 127 134 84 
121 5 7 259 260 196 270 
122 6 58 71 272 104 168 39 
123 4 82 39 71 192 
124 9 180 154 137 76 160 220 149 119 46 
125 6 88 118 24 75 73 9 
126 8 178 156 149 160 33 169 100 154 
127 8 134 57 96 120 146 157 25 171 
128 8 26 102 227 139 233 105 183 59 
129 9 54 36 61 159 141 192 2 8 176 
130 9 271 4 223 48 245 188 60 273 30 
131 9 245 41 185 67 19 90 4 30 153 
132 8 107 69 142 177 38 23 78 170 
133 9 21 106 18 55 62 150 115 152 175 
134 8 127 57 96 120 146 157 25 171 
135 5 191 205 234 248 5 
136 9 103 94 176 2 50 28 49 141 159 
137 9 180 46 119 149 154 220 124 160 53 
138 9 140 27 164 162 145 86 173 62 12 
139 9 59 227 100 128 26 182 102 105 233 
140 9 138 27 162 62 164 145 86 173 44 
141 9 159 2 176 103 136 61 129 65 94 
142 8 177 38 23 107 78 81 69 132 
143 4 243 262 10 79 
144 7 207 158 91 224 250 219 16 
145 9 164 12 52 173 138 68 140 27 86 
146 8 171 25 157 96 120 111 127 83 
147 3 249 151 11 
148 8 254 184 243 193 10 219 143 199 
149 9 160 178 137 154 126 180 124 46 156 
150 9 115 175 56 17 106 55 18 113 133 
151 8 11 265 249 187 147 213 255 225 
152 8 44 31 34 18 106 21 162 98 
153 9 90 209 108 41 29 95 167 131 245 
154 9 180 124 160 137 149 46 119 178 220 
155 8 104 239 8 163 49 20 122 58 
156 8 126 178 169 33 182 149 160 100 
157 9 25 120 96 97 83 146 127 165 84 
158 8 207 144 219 80 193 91 224 16 
159 9 141 2 176 61 129 103 65 54 136 
160 9 149 154 178 180 126 137 124 156 46 
161 6 197 211 218 114 3 24 
162 9 62 44 27 21 140 152 138 31 34 
163 6 20 155 195 104 58 239 
164 9 145 12 52 173 138 140 68 27 86 
165 9 83 61 36 97 54 84 129 25 159 
166 7 226 72 40 202 236 216 43 
167 9 95 108 209 81 153 23 78 90 38 
168 3 272 214 47 
169 9 33 182 156 99 59 126 139 178 100 
170 8 76 112 220 119 46 180 124 137 
171 6 111 74 263 146 36 192 
172 8 42 85 274 216 43 66 202 236 
173 9 145 52 164 12 138 68 140 27 86 
174 6 189 181 188 48 51 196 
175 6 56 150 115 18 106 65 
176 9 2 103 136 141 94 159 49 50 28 
177 9 38 23 142 78 81 107 69 132 167 
178 8 126 156 149 160 154 137 169 33 
179 3 45 75 93 
180 9 154 124 137 220 46 119 76 149 160 
181 7 240 51 200 204 268 201 174 
182 9 59 33 169 139 99 100 156 227 126 
183 2 233 26 
184 8 148 254 243 193 80 10 219 199 
185 9 67 131 30 245 4 93 19 41 45 
186 8 215 6 203 228 198 110 194 217 
187 6 11 265 151 213 249 225 
188 8 189 271 48 273 51 174 268 264 
189 7 174 188 48 51 181 271 268 
190 7 22 14 253 231 15 235 194 
191 4 135 234 266 35 
192 9 39 71 82 123 36 263 74 54 111 
193 9 219 10 254 243 148 262 16 244 246 
194 6 110 198 215 235 186 6 
195 2 20 163 
196 9 121 174 7 259 189 48 223 260 188 
197 5 114 211 218 161 3 
198 9 110 6 215 186 217 228 194 208 203 
199 6 92 205 89 5 243 148 
200 7 240 201 204 181 268 51 15 
201 6 204 240 200 206 15 181 
202 9 216 236 85 42 37 238 231 172 274 
203 6 186 215 6 228 198 110 
204 6 201 240 200 206 181 15 
205 3 92 135 5 
206 3 204 201 15 
207 8 158 144 219 91 193 224 16 250 
208 7 77 210 110 198 217 194 6 
209 9 153 108 90 95 167 29 41 81 131 
210 6 77 208 117 238 37 274 
211 6 218 197 114 161 241 13 
212 4 256 35 221 234 
213 4 187 11 265 151 
214 6 47 272 168 225 261 252 
215 8 186 6 203 228 198 110 194 217 
216 9 202 85 236 42 37 238 172 231 274 
217 9 198 6 228 110 186 208 215 77 203 
218 7 211 197 114 161 241 13 237 
219 9 193 10 254 16 244 262 243 246 148 
220 9 76 170 119 46 112 180 137 124 154 
221 4 256 212 269 35 
222 3 252 261 47 
223 9 130 48 196 60 271 64 188 189 174 
224 4 91 250 16 244 
225 6 255 214 265 11 47 151 
226 7 166 72 40 202 236 216 232 
227 8 139 26 100 128 59 102 182 183 
228 8 6 186 215 203 198 217 110 194 
229 5 273 3 264 114 70 
230 9 50 28 101 40 72 94 226 166 63 
231 9 22 190 236 232 202 37 216 85 238 
232 7 109 237 231 22 14 190 267 
233 6 102 105 248 5 183 128 
234 6 35 266 191 135 212 269 
235 2 15 206 
236 9 202 216 85 42 231 37 238 172 232 
237 9 109 267 14 13 232 241 22 253 15 
238 9 37 274 85 117 202 210 216 236 42 
239 7 155 49 104 8 163 66 63 
240 7 200 201 204 181 51 268 206 
241 8 13 70 264 268 267 200 51 240 
242 6 73 24 226 230 118 166 
243 6 143 10 262 254 148 193 
244 6 246 16 79 262 10 250 
245 9 41 4 131 30 130 67 60 90 185 
246 5 244 79 262 16 10 
247 5 257 276 32 258 251 
248 7 5 105 233 102 135 191 205 
249 5 151 11 187 265 147 
250 6 224 16 244 91 246 79 
251 4 276 257 247 32 
252 4 261 222 47 272 
253 7 15 14 235 206 190 201 22 
254 9 148 184 193 243 10 219 80 143 262 
255 5 225 265 11 151 214 
256 4 212 221 35 269 
257 5 276 247 32 251 258 
258 3 116 32 247 
259 5 7 260 121 270 196 
260 6 259 7 121 270 275 203 
261 4 252 47 222 272 
262 6 246 244 79 16 10 143 
263 7 74 111 171 192 39 123 82 
264 5 70 268 51 241 273 
265 8 11 151 187 249 213 225 255 147 
266 4 234 35 269 191 
267 9 13 109 237 14 241 200 253 15 201 
268 8 51 70 264 181 200 240 241 13 
269 4 35 266 221 256 
270 6 260 259 7 275 121 203 
271 8 48 188 273 189 130 174 51 223 
272 6 47 168 214 261 252 58 
273 6 188 264 271 51 229 268 
274 6 117 238 37 172 42 210 
275 4 270 260 7 259 
276 5 257 247 251 32 258 
DEPOT_SECTION
   1
   -1
EOF
