NAME :  X-n548-kX-w54-c7.cctp
COMMENT : 	Adapted by Maziero, Usberti and Cavellucci from the Uchoa, Pecin, Pessoa, Poggi, Subramanian, and Vidal (2013)
TYPE :  CCTP
DIMENSION :    274
EDGE_WEIGHT_TYPE : 	EUC_2D	
CAPACITY : 	11
VERTICES_WITHIN_COVERAGE :  7
VERTICES_WITH_DEMAND : 	54
NODE_COORD_SECTION
1 0 0
2 221 542
3 320 456
4 576 827
5 679 994
6 371 461
7 961 844
8 986 379
9 175 540
10 126 517
11 329 626
12 477 890
13 191 356
14 584 917
15 308 653
16 0 7
17 273 302
18 672 381
19 235 415
20 583 149
21 672 124
22 644 646
23 400 544
24 832 999
25 842 964
26 582 965
27 544 311
28 429 2
29 939 849
30 898 605
31 363 130
32 639 874
33 323 201
34 829 350
35 7 53
36 801 92
37 57 330
38 943 0
39 579 275
40 833 402
41 408 940
42 635 871
43 631 630
44 733 313
45 344 619
46 628 291
47 674 92
48 74 602
49 38 354
50 473 107
51 668 279
52 510 811
53 366 16
54 49 182
55 528 946
56 668 978
57 939 73
58 270 446
59 586 348
60 128 590
61 279 459
62 364 167
63 656 687
64 547 792
65 590 47
66 348 609
67 777 112
68 877 457
69 584 875
70 439 447
71 560 994
72 447 951
73 287 534
74 29 248
75 313 643
76 294 475
77 79 657
78 345 144
79 549 135
80 887 565
81 658 126
82 18 638
83 327 299
84 245 439
85 34 637
86 350 673
87 380 917
88 271 505
89 930 78
90 860 22
91 448 112
92 222 587
93 670 76
94 521 123
95 50 360
96 351 981
97 159 405
98 825 285
99 187 320
100 342 200
101 290 713
102 304 144
103 46 173
104 298 667
105 257 579
106 775 393
107 996 407
108 379 14
109 195 581
110 75 328
111 295 405
112 239 471
113 460 479
114 626 229
115 737 136
116 877 977
117 69 200
118 414 959
119 270 287
120 867 569
121 354 11
122 937 660
123 434 965
124 86 648
125 656 239
126 604 359
127 507 27
128 287 592
129 554 230
130 635 416
131 752 0
132 981 411
133 778 389
134 359 222
135 201 444
136 111 324
137 867 389
138 309 269
139 669 317
140 889 891
141 221 579
142 719 697
143 413 1000
144 977 29
145 356 605
146 145 568
147 596 316
148 94 529
149 226 328
150 549 281
151 944 64
152 541 807
153 107 602
154 870 999
155 247 282
156 865 629
157 632 928
158 899 632
159 385 166
160 851 399
161 372 910
162 11 248
163 845 326
164 508 769
165 511 900
166 158 330
167 159 327
168 832 900
169 809 931
170 460 869
171 585 804
172 487 102
173 187 528
174 462 482
175 890 450
176 857 64
177 96 223
178 610 842
179 910 604
180 48 352
181 622 891
182 873 960
183 990 747
184 693 76
185 668 167
186 301 696
187 112 160
188 588 281
189 215 559
190 528 309
191 668 953
192 594 865
193 407 905
194 570 151
195 651 612
196 684 574
197 598 632
198 976 284
199 177 414
200 459 506
201 507 320
202 497 889
203 888 561
204 308 530
205 985 385
206 502 117
207 851 594
208 728 54
209 64 249
210 492 57
211 852 45
212 292 125
213 242 217
214 700 96
215 663 175
216 670 279
217 611 829
218 471 843
219 4 325
220 454 981
221 982 397
222 780 360
223 510 276
224 564 632
225 903 827
226 605 806
227 75 130
228 107 314
229 717 125
230 991 306
231 62 373
232 641 426
233 42 62
234 184 460
235 618 878
236 284 582
237 453 998
238 660 92
239 723 31
240 746 114
241 670 702
242 447 881
243 844 110
244 315 373
245 992 409
246 334 75
247 346 190
248 361 170
249 44 202
250 326 351
251 525 950
252 910 793
253 542 768
254 358 588
255 19 296
256 147 444
257 954 410
258 77 383
259 822 126
260 870 566
261 609 314
262 328 85
263 505 944
264 358 609
265 311 26
266 909 915
267 407 84
268 523 987
269 690 982
270 499 9
271 646 414
272 944 22
273 691 660
274 756 289
DEMAND_SECTION
2 1
3 1
4 1
5 1
6 1
7 1
8 1
9 1
10 1
11 1
12 1
13 1
14 1
15 1
16 1
17 1
18 1
19 1
20 1
21 1
22 1
23 1
24 1
25 1
26 1
27 1
28 1
29 1
30 1
31 1
32 1
33 1
34 1
35 1
36 1
37 1
38 1
39 1
40 1
41 1
42 1
43 1
44 1
45 1
46 1
47 1
48 1
49 1
50 1
51 1
52 1
53 1
54 1
55 1
COVERAGE_SECTION
2 7 189 141 173 92 9 109 105 
3 7 76 61 6 58 111 88 204 
4 7 171 217 226 178 152 192 64 
5 4 269 56 191 157 
6 5 3 70 76 23 113 
7 6 29 225 252 140 266 183 
8 7 205 221 107 245 132 257 230 
9 6 173 146 189 2 109 10 
10 6 148 9 146 173 60 256 
11 7 45 75 66 15 145 264 254 
12 7 202 170 242 165 218 263 72 
13 6 99 166 167 149 97 199 
14 7 69 181 26 157 235 192 55 
15 7 75 104 11 186 86 45 66 
16 3 35 233 227 
17 6 119 155 138 83 149 250 
18 5 271 130 232 139 126 
19 7 84 135 58 112 199 111 61 
20 4 194 79 94 81 
21 7 81 47 238 214 185 229 93 
22 7 43 195 63 197 273 241 224 
23 7 254 200 145 264 66 6 113 
24 6 25 154 116 182 169 168 
25 6 182 24 116 154 169 168 
26 6 71 14 55 251 157 268 
27 7 190 150 201 223 39 147 188 
28 7 108 53 270 121 127 210 267 
29 5 7 225 252 140 266 
30 7 179 158 80 156 203 120 207 
31 6 78 62 248 159 262 102 
32 7 42 235 181 178 192 217 157 
33 7 100 247 134 248 62 102 78 
34 7 163 222 40 137 160 133 98 
35 4 233 16 227 103 
36 6 67 259 243 240 176 211 
37 6 110 180 49 95 231 255 
38 7 272 144 151 57 89 90 211 
39 7 188 150 147 261 27 129 46 
40 6 160 137 34 133 106 222 
41 7 118 193 87 123 72 161 143 
42 7 32 235 181 178 192 217 69 
43 6 22 195 197 63 224 273 
44 6 274 139 222 216 51 133 
45 7 66 11 264 145 254 75 15 
46 7 261 147 188 51 216 139 39 
47 7 238 93 184 214 21 81 229 
48 5 153 124 85 60 77 
49 7 180 95 37 231 110 219 258 
50 6 172 91 206 94 210 267 
51 7 216 139 46 125 114 261 44 
52 7 152 64 164 218 253 4 171 
53 7 108 121 265 28 246 262 267 
54 7 103 249 117 227 177 187 74 
55 7 251 263 268 165 26 71 14 
56 4 5 269 191 157 
57 6 89 151 272 144 38 176 
58 7 61 84 76 112 19 111 3 
59 6 126 147 261 27 188 190 
60 3 153 146 48 
61 7 58 76 84 3 112 88 111 
62 6 248 159 247 78 31 100 
63 6 241 22 273 43 142 195 
64 6 152 253 171 52 4 164 
65 5 238 93 127 47 79 
66 7 145 264 45 254 11 75 15 
67 6 36 240 115 259 229 243 
68 4 175 160 137 40 
69 7 192 235 181 14 178 4 42 
70 4 113 174 200 6 
71 7 26 268 251 55 263 14 157 
72 7 123 220 118 41 237 263 143 
73 7 204 88 236 105 128 76 2 
74 7 162 209 249 255 117 54 177 
75 7 15 11 104 45 86 66 186 
76 7 61 3 58 88 112 204 73 
77 3 124 85 48 
78 7 31 62 248 102 159 247 100 
79 4 194 94 20 206 
80 6 203 260 120 30 179 207 
81 7 21 238 47 185 215 93 214 
82 3 85 77 48 
83 4 138 250 17 119 
84 7 19 58 112 61 135 111 76 
85 4 82 77 48 124 
86 6 15 75 11 104 45 186 
87 4 161 193 41 118 
88 7 73 76 204 61 112 58 2 
89 6 57 151 272 144 176 38 
90 7 211 176 272 38 243 89 36 
91 6 50 172 267 206 210 94 
92 5 141 109 189 105 2 
93 7 47 238 184 214 21 81 208 
94 5 206 79 172 50 194 
95 6 180 49 231 37 258 110 
96 3 143 118 41 
97 5 199 256 135 13 234 
98 3 163 34 274 
99 4 167 166 13 149 
100 7 247 33 134 248 62 159 78 
101 3 186 104 15 
102 6 212 78 33 31 247 248 
103 7 54 249 117 227 187 177 74 
104 7 15 75 186 101 11 86 45 
105 6 236 128 92 141 189 2 
106 3 133 222 40 
107 6 245 132 221 205 8 257 
108 7 53 121 28 265 267 246 262 
109 5 141 92 189 9 2 
110 5 37 228 136 180 95 
111 6 244 58 61 3 84 19 
112 7 84 58 61 88 135 76 19 
113 4 174 200 70 23 
114 6 125 46 188 51 215 39 
115 5 229 240 67 214 21 
116 4 182 154 25 24 
117 7 249 54 103 177 209 187 74 
118 7 41 123 72 143 220 87 193 
119 5 17 155 138 83 149 
120 6 260 80 203 207 30 179 
121 7 53 108 265 246 28 262 267 
122 3 158 179 30 
123 7 72 118 220 41 237 143 193 
124 4 77 48 153 85 
125 5 114 51 216 46 215 
126 6 59 147 261 130 271 18 
127 5 270 210 172 28 65 
128 6 236 105 11 75 73 45 
129 4 39 150 188 223 
130 4 271 232 18 126 
131 7 239 208 184 36 214 90 211 
132 6 245 221 107 205 257 8 
133 3 106 222 40 
134 4 100 247 33 248 
135 7 234 199 84 19 112 256 97 
136 5 228 110 166 167 37 
137 7 160 40 34 175 163 68 133 
138 4 83 119 17 155 
139 7 51 216 46 261 18 44 147 
140 5 266 168 29 225 182 
141 5 92 189 109 105 2 
142 4 273 241 63 22 
143 7 237 118 123 220 41 72 96 
144 6 272 38 151 57 89 90 
145 7 264 66 254 45 11 75 15 
146 3 60 9 153 
147 7 261 59 188 46 39 126 27 
148 3 10 146 60 
149 4 99 13 155 17 
150 6 27 39 190 188 223 129 
151 6 57 89 272 144 38 176 
152 7 64 52 253 4 171 164 226 
153 4 60 48 124 146 
154 4 116 24 182 25 
155 4 119 17 149 138 
156 4 158 207 30 179 
157 5 181 191 14 235 32 
158 5 30 179 156 122 207 
159 5 62 248 31 78 247 
160 7 40 137 34 68 175 163 133 
161 3 87 193 41 
162 7 74 255 209 249 117 54 219 
163 6 34 98 137 160 222 40 
164 4 253 52 64 152 
165 7 202 12 263 55 251 170 242 
166 5 167 99 13 136 228 
167 4 166 99 13 136 
168 4 169 140 25 182 
169 4 168 25 182 24 
170 4 242 12 218 202 
171 5 226 4 217 64 152 
172 5 50 206 91 94 210 
173 7 9 2 189 109 146 141 10 
174 4 113 200 70 23 
175 5 68 160 137 40 257 
176 6 211 90 243 36 259 89 
177 5 117 209 249 54 187 
178 6 217 192 226 4 235 42 
179 7 30 158 80 203 156 120 260 
180 6 95 49 37 231 110 258 
181 7 235 32 42 157 192 69 14 
182 5 116 25 154 24 266 
183 5 252 7 122 29 225 
184 7 214 93 47 238 208 21 239 
185 4 215 81 21 229 
186 5 101 104 15 75 86 
187 5 227 117 177 54 103 
188 7 39 147 150 261 46 27 129 
189 6 2 141 92 109 173 9 
190 6 27 201 150 223 39 188 
191 4 56 269 5 157 
192 7 69 235 178 181 217 42 4 
193 5 87 41 161 242 118 
194 4 20 79 94 206 
195 6 43 22 196 197 273 63 
196 4 195 43 22 273 
197 4 43 224 22 195 
198 3 230 8 205 
199 6 97 135 256 234 19 13 
200 5 174 113 70 23 6 
201 4 190 27 223 150 
202 7 165 12 170 242 218 263 55 
203 6 80 260 120 30 179 207 
204 7 73 88 76 236 128 105 3 
205 6 8 221 107 245 132 257 
206 5 94 172 50 79 91 
207 5 120 260 156 80 30 
208 7 239 184 214 131 93 240 47 
209 7 74 177 117 249 162 255 54 
210 5 127 172 270 50 206 
211 6 176 90 243 36 89 259 
212 5 102 262 78 246 31 
213 3 155 119 33 
214 7 184 47 229 93 21 238 240 
215 5 185 81 21 125 114 
216 7 51 139 125 46 114 261 44 
217 5 178 226 4 171 192 
218 5 170 242 12 52 202 
219 7 255 49 180 37 95 110 231 
220 7 237 123 72 143 118 41 263 
221 6 205 132 245 107 8 257 
222 6 133 106 34 44 40 163 
223 4 190 150 201 27 
224 2 197 43 
225 4 252 29 7 140 
226 4 171 217 4 178 
227 5 187 103 54 117 233 
228 5 136 110 37 166 167 
229 7 115 240 214 21 47 184 81 
230 5 198 8 205 221 107 
231 6 95 258 180 49 37 110 
232 3 130 271 18 
233 3 35 16 227 
234 7 135 256 199 112 97 84 19 
235 7 181 42 32 192 69 178 217 
236 6 128 105 73 204 92 11 
237 7 220 123 143 72 118 268 41 
238 7 47 93 21 81 184 214 229 
239 7 208 131 184 214 93 47 240 
240 7 115 67 229 214 36 208 184 
241 4 63 273 142 22 
242 5 170 12 218 193 202 
243 3 259 36 176 
244 5 250 111 83 17 3 
245 6 107 132 221 205 8 257 
246 6 262 265 31 212 53 121 
247 7 100 33 248 62 134 78 159 
248 6 62 159 247 78 100 31 
249 7 54 117 103 74 209 177 162 
250 4 244 83 111 17 
251 7 55 263 268 165 71 26 202 
252 3 225 29 7 
253 4 64 164 152 52 
254 7 145 264 66 45 11 23 75 
255 7 219 74 162 37 49 180 110 
256 5 234 97 199 135 10 
257 6 132 221 245 205 107 8 
258 4 231 95 180 49 
259 2 243 36 
260 6 120 80 203 207 30 179 
261 7 147 46 188 59 126 39 139 
262 6 246 212 31 78 265 102 
263 7 251 55 165 268 202 72 12 
264 7 145 66 45 254 11 75 86 
265 5 121 246 53 262 108 
266 4 140 182 116 29 
267 7 91 31 50 246 108 53 262 
268 7 251 71 55 263 26 220 237 
269 4 5 56 191 157 
270 5 127 210 28 172 65 
271 3 130 232 18 
272 7 38 144 151 57 89 90 211 
273 7 63 142 241 22 195 43 196 
274 3 44 98 222 
DEPOT_SECTION
   1
   -1
EOF
