NAME :  X-n586-kX-w58-c11.cctp
COMMENT : 	Adapted by Maziero, Usberti and Cavellucci from the Uchoa, Pecin, Pessoa, Poggi, Subramanian, and Vidal (2013)
TYPE :  CCTP
DIMENSION :    339
EDGE_WEIGHT_TYPE : 	EUC_2D	
CAPACITY : 	28
VERTICES_WITHIN_COVERAGE :  11
VERTICES_WITH_DEMAND : 	58
NODE_COORD_SECTION
1 18 761
2 835 397
3 299 16
4 31 168
5 142 257
6 242 984
7 612 357
8 663 812
9 105 188
10 487 636
11 993 703
12 672 148
13 506 259
14 953 706
15 888 203
16 107 534
17 772 692
18 475 182
19 828 775
20 719 220
21 655 722
22 844 197
23 918 600
24 460 844
25 739 102
26 301 523
27 341 627
28 989 936
29 935 602
30 44 72
31 861 67
32 163 416
33 981 503
34 722 397
35 317 903
36 547 95
37 944 106
38 935 192
39 128 376
40 908 176
41 720 226
42 738 793
43 791 498
44 712 751
45 530 693
46 141 673
47 380 544
48 634 301
49 427 853
50 606 949
51 47 557
52 48 202
53 791 67
54 546 876
55 526 842
56 535 216
57 828 214
58 829 352
59 623 473
60 74 187
61 726 789
62 51 597
63 894 395
64 301 893
65 978 261
66 709 153
67 391 153
68 876 370
69 846 725
70 604 107
71 117 709
72 507 89
73 476 204
74 948 710
75 414 685
76 358 66
77 5 468
78 459 43
79 555 414
80 558 360
81 641 424
82 25 205
83 852 45
84 400 682
85 501 234
86 817 114
87 651 941
88 817 643
89 223 584
90 209 663
91 206 549
92 542 691
93 296 10
94 148 641
95 9 553
96 411 59
97 382 800
98 824 612
99 608 727
100 481 574
101 350 608
102 396 536
103 36 459
104 10 569
105 813 10
106 569 627
107 692 467
108 738 487
109 508 327
110 983 244
111 637 109
112 177 207
113 582 957
114 712 996
115 932 452
116 60 66
117 252 267
118 944 435
119 338 688
120 900 168
121 583 871
122 852 59
123 921 72
124 845 534
125 387 253
126 812 354
127 5 404
128 590 575
129 930 128
130 832 466
131 548 976
132 32 531
133 966 58
134 31 40
135 162 539
136 621 425
137 802 495
138 385 493
139 769 329
140 921 15
141 64 106
142 854 678
143 943 122
144 103 285
145 398 212
146 335 459
147 43 108
148 400 255
149 822 749
150 60 32
151 783 760
152 218 360
153 321 463
154 403 172
155 32 134
156 218 490
157 44 456
158 430 570
159 509 572
160 639 505
161 984 435
162 479 341
163 709 700
164 557 130
165 270 964
166 482 320
167 836 272
168 509 379
169 961 329
170 819 754
171 648 809
172 640 892
173 838 79
174 552 232
175 831 306
176 503 726
177 571 837
178 162 504
179 458 845
180 458 127
181 929 786
182 579 971
183 662 173
184 320 524
185 894 787
186 554 560
187 82 61
188 581 840
189 693 830
190 355 662
191 24 276
192 946 348
193 844 433
194 877 594
195 556 739
196 503 462
197 264 505
198 782 143
199 919 703
200 958 559
201 90 181
202 794 485
203 267 35
204 322 883
205 376 52
206 541 423
207 36 607
208 101 687
209 657 754
210 695 294
211 174 686
212 128 560
213 926 32
214 540 223
215 334 635
216 125 661
217 473 467
218 129 401
219 725 544
220 200 281
221 822 540
222 216 59
223 887 520
224 714 539
225 780 97
226 464 94
227 951 329
228 785 333
229 677 811
230 595 733
231 690 901
232 735 816
233 37 189
234 332 670
235 16 13
236 17 419
237 986 893
238 603 900
239 495 820
240 452 820
241 846 825
242 625 965
243 350 832
244 267 929
245 456 850
246 437 848
247 322 852
248 270 978
249 954 920
250 389 874
251 478 868
252 563 823
253 541 906
254 34 189
255 237 386
256 520 908
257 539 823
258 55 50
259 498 853
260 121 190
261 72 175
262 744 860
263 44 63
264 43 203
265 115 299
266 5 191
267 15 221
268 214 965
269 677 912
270 471 869
271 188 671
272 312 929
273 976 943
274 51 48
275 72 266
276 183 409
277 27 179
278 455 869
279 463 837
280 435 847
281 353 670
282 128 303
283 59 408
284 319 870
285 473 816
286 138 202
287 406 825
288 181 611
289 261 116
290 7 136
291 127 532
292 408 873
293 94 257
294 7 126
295 432 821
296 128 179
297 493 815
298 322 943
299 153 220
300 321 964
301 105 265
302 32 133
303 21 156
304 47 175
305 34 140
306 215 989
307 444 821
308 963 961
309 102 310
310 126 686
311 513 812
312 96 713
313 437 876
314 996 910
315 90 87
316 578 807
317 899 754
318 203 473
319 258 899
320 127 344
321 437 847
322 465 817
323 102 191
324 84 185
325 377 879
326 660 782
327 35 216
328 74 67
329 110 175
330 617 832
331 617 787
332 501 842
333 92 163
334 59 73
335 586 955
336 474 852
337 131 189
338 422 862
339 81 228
DEMAND_SECTION
2 9
3 7
4 6
5 5
6 7
7 10
8 9
9 8
10 9
11 8
12 6
13 6
14 5
15 10
16 9
17 7
18 9
19 7
20 9
21 6
22 5
23 7
24 10
25 7
26 6
27 9
28 9
29 10
30 7
31 7
32 9
33 10
34 5
35 6
36 8
37 10
38 8
39 5
40 8
41 10
42 8
43 10
44 7
45 5
46 8
47 9
48 7
49 10
50 5
51 6
52 10
53 9
54 9
55 10
56 6
57 8
58 10
59 9
COVERAGE_SECTION
2 11 193 58 68 126 63 130 228 175 139 202 137 
3 7 93 203 76 205 222 289 96 
4 11 277 303 304 254 233 305 155 266 302 82 264 
5 11 301 299 144 282 293 265 286 112 220 309 339 
6 6 306 248 165 268 244 300 
7 11 80 48 136 81 79 206 210 168 109 34 59 
8 11 229 171 326 189 330 331 209 61 232 42 44 
9 10 323 329 260 201 324 296 337 333 60 261 
10 10 100 159 45 92 106 158 75 176 84 186 
11 11 14 74 199 181 317 29 23 185 142 200 69 
12 11 183 66 111 70 25 20 41 198 164 225 36 
13 11 85 214 56 174 73 166 109 18 162 148 80 
14 10 74 199 11 317 181 185 142 29 69 23 
15 11 40 120 22 38 57 129 167 143 110 65 37 
16 11 291 212 135 178 51 132 62 91 95 157 207 
17 11 163 88 151 149 170 69 142 44 98 19 42 
18 11 73 85 180 56 154 214 13 145 67 226 174 
19 8 170 149 151 69 241 185 317 42 
20 11 41 66 183 210 12 198 57 48 25 139 22 
21 11 209 99 163 326 230 44 331 171 8 229 61 
22 11 57 15 120 40 167 198 86 38 129 175 173 
23 11 29 194 200 223 98 124 142 199 88 14 221 
24 11 179 245 279 336 246 321 240 278 280 270 322 
25 11 225 66 198 53 86 12 111 173 183 105 20 
26 10 184 197 153 146 47 138 156 102 91 101 
27 10 215 101 190 234 281 119 84 47 75 184 
28 5 273 314 308 249 237 
29 11 23 200 194 223 199 14 33 74 98 142 124 
30 11 263 334 116 258 274 328 134 147 141 187 150 
31 11 122 83 173 123 86 53 213 105 140 225 37 
32 9 276 218 39 318 152 255 320 178 156 
33 11 200 161 115 118 223 29 23 194 63 124 130 
34 11 107 139 81 228 108 126 136 210 2 202 58 
35 10 64 204 272 284 298 247 244 319 300 325 
36 11 164 72 70 226 111 180 78 18 56 214 73 
37 11 143 129 123 133 120 213 40 38 31 140 122 
38 11 40 120 15 129 143 110 65 37 22 57 123 
39 11 218 320 32 276 309 282 283 265 152 144 255 
40 11 120 38 15 129 143 22 37 57 110 123 65 
41 11 20 210 66 183 12 198 57 48 139 25 167 
42 11 61 232 44 151 189 229 262 8 326 170 209 
43 11 137 202 130 221 108 124 219 193 224 223 107 
44 11 61 42 163 209 326 21 229 232 151 8 189 
45 7 92 176 195 10 230 106 99 
46 10 216 310 94 211 208 71 271 312 90 288 
47 11 102 138 158 184 101 26 27 146 153 215 100 
48 11 7 210 80 174 41 20 214 81 136 109 34 
49 11 280 338 246 321 313 292 245 179 278 295 24 
50 11 335 113 242 182 87 238 131 172 253 269 121 
51 11 132 95 104 62 207 16 212 291 77 103 157 
52 11 264 233 254 327 82 304 60 277 261 4 267 
53 11 225 173 86 105 122 25 83 31 198 66 123 
54 9 253 121 55 256 177 188 257 259 252 
55 10 257 332 259 311 239 54 252 297 177 336 
56 11 214 174 85 13 73 18 164 109 166 180 36 
57 11 22 167 15 120 198 40 175 86 20 38 41 
58 11 126 2 175 228 68 139 63 167 193 130 34 
59 11 160 136 81 107 79 206 128 186 224 108 7 
60 8 324 261 201 323 52 304 333 9 
61 11 42 232 44 189 229 151 326 8 262 209 171 
62 10 207 51 104 95 132 16 212 216 291 208 
63 11 68 2 193 118 115 192 58 227 126 130 169 
64 8 35 204 284 272 319 247 244 298 
65 11 110 169 227 38 192 15 40 120 129 167 143 
66 11 12 183 25 20 41 198 111 225 70 86 53 
67 11 154 145 180 18 76 226 96 73 125 148 205 
68 11 63 2 58 126 193 192 175 227 118 169 228 
69 11 149 170 142 19 317 151 199 185 17 88 241 
70 11 111 164 36 12 183 72 66 56 214 25 174 
71 6 312 310 208 46 216 211 
72 11 36 226 180 164 78 18 70 96 73 56 67 
73 11 18 85 56 13 214 145 180 154 174 148 67 
74 10 14 199 11 317 181 185 142 69 29 23 
75 6 84 190 281 119 234 10 
76 10 205 96 3 93 67 203 78 289 226 154 
77 11 103 157 236 127 132 283 95 51 104 16 62 
78 11 96 226 72 205 180 36 76 67 164 18 154 
79 11 206 80 168 136 196 7 81 59 217 109 162 
80 11 168 7 79 109 206 162 166 136 48 81 13 
81 11 136 59 107 7 160 34 79 206 80 108 48 
82 11 327 254 264 267 233 52 266 277 4 304 303 
83 11 122 31 173 105 53 123 140 213 86 225 37 
84 6 75 190 281 119 234 27 
85 11 13 56 73 214 174 18 166 109 148 145 162 
86 11 173 225 198 53 31 122 83 25 22 120 57 
87 10 242 269 50 172 231 238 335 113 182 114 
88 11 98 142 17 194 69 221 149 23 170 124 199 
89 11 91 288 135 90 197 94 156 271 212 26 178 
90 7 271 211 288 94 46 89 216 
91 11 89 135 156 178 288 197 318 212 291 26 16 
92 9 45 195 176 230 106 99 10 21 316 
93 7 3 203 76 205 222 289 96 
94 11 216 46 288 271 310 211 90 208 71 212 312 
95 11 104 132 51 207 62 77 103 16 157 212 291 
96 11 205 78 76 226 180 67 72 154 3 93 18 
97 6 287 243 295 307 49 280 
98 11 88 194 142 221 124 17 23 29 223 69 43 
99 10 230 21 195 209 331 92 326 45 316 171 
100 11 159 158 10 186 102 106 47 217 128 196 138 
101 11 27 215 190 281 234 47 119 102 84 158 184 
102 11 47 138 158 184 101 100 26 146 217 153 27 
103 11 157 77 236 283 127 132 95 51 16 218 104 
104 10 95 51 132 207 62 77 16 103 157 212 
105 11 83 53 122 173 31 225 86 140 213 25 123 
106 11 128 92 186 45 159 10 100 99 230 195 176 
107 11 108 160 81 59 224 34 136 219 43 202 137 
108 11 107 43 202 224 219 137 34 130 221 160 59 
109 10 166 162 168 80 13 85 79 206 174 7 
110 11 65 38 169 227 40 15 192 120 129 143 37 
111 11 70 12 183 164 66 36 25 72 20 41 225 
112 6 299 286 337 296 260 5 
113 9 335 182 50 131 242 238 253 87 256 
114 5 87 269 242 231 50 
115 11 118 161 63 33 223 193 68 130 192 200 2 
116 11 334 328 263 30 258 274 187 150 315 134 141 
117 6 220 112 152 5 299 255 
118 11 115 161 63 33 192 68 193 223 227 169 2 
119 6 234 281 190 215 27 84 
120 11 40 15 38 129 22 143 37 57 123 86 31 
121 11 188 238 177 54 252 330 253 172 55 316 257 
122 11 31 83 173 53 105 86 123 213 225 140 37 
123 11 213 37 133 143 129 140 31 122 83 173 120 
124 11 221 223 137 43 194 130 202 98 23 193 29 
125 8 148 145 154 67 73 18 85 166 
126 11 58 228 2 139 175 68 167 193 63 34 130 
127 11 236 283 103 77 157 218 39 191 132 309 320 
128 11 186 106 159 160 59 100 10 92 224 45 219 
129 11 143 37 120 40 123 38 133 15 31 213 122 
130 11 193 137 202 43 2 124 221 223 63 108 115 
131 5 182 113 335 50 253 
132 11 51 95 104 62 77 103 16 157 207 291 212 
133 11 123 213 37 140 143 129 31 122 83 120 173 
134 10 274 258 263 150 235 30 116 334 328 187 
135 11 178 291 212 91 16 156 288 89 318 94 197 
136 11 81 59 79 7 206 107 160 80 34 168 196 
137 11 43 202 130 221 124 108 193 223 219 224 2 
138 8 102 47 146 153 184 26 158 217 
139 11 228 126 58 175 210 34 167 2 41 68 20 
140 11 213 123 133 83 31 122 37 173 105 143 129 
141 5 147 315 334 30 116 
142 11 69 88 199 98 149 17 170 194 317 74 19 
143 11 129 37 123 120 40 133 38 213 15 31 140 
144 11 265 301 309 293 282 275 5 339 320 191 299 
145 9 154 125 148 67 73 18 180 85 13 
146 5 153 138 184 26 197 
147 7 141 302 155 305 30 334 294 
148 9 125 145 154 73 67 85 18 166 13 
149 10 170 19 69 151 17 317 142 241 185 42 
150 10 274 258 134 116 263 187 328 334 30 235 
151 11 170 149 19 42 61 17 44 69 232 241 163 
152 6 255 276 32 220 39 320 
153 5 146 184 26 138 197 
154 11 67 145 180 18 73 125 148 226 96 76 85 
155 8 302 305 290 303 294 147 4 141 
156 8 318 197 178 91 135 276 26 32 
157 11 103 77 236 283 127 132 16 51 218 95 291 
158 11 102 100 47 159 10 101 138 27 217 75 84 
159 11 100 186 10 158 106 128 196 217 102 45 92 
160 11 59 107 81 136 224 128 219 108 186 79 206 
161 11 118 115 33 192 63 169 227 68 200 223 193 
162 9 166 109 168 80 13 206 79 85 148 
163 11 44 21 17 209 61 151 326 42 99 229 230 
164 11 36 70 72 111 56 214 18 180 226 174 73 
165 9 248 6 244 300 272 268 298 306 319 
166 10 162 109 168 13 80 85 148 174 214 73 
167 11 175 57 22 58 228 126 15 139 68 40 120 
168 10 162 109 80 206 79 166 196 217 7 13 
169 11 227 192 65 110 63 68 118 161 115 175 58 
170 10 149 19 151 69 241 17 317 185 142 42 
171 11 8 229 326 331 330 189 209 316 188 61 177 
172 11 238 269 87 231 121 330 50 242 188 189 8 
173 11 122 31 83 86 53 225 105 123 198 213 25 
174 11 214 56 85 13 73 18 164 109 48 166 183 
175 11 167 58 126 228 139 68 2 57 63 22 15 
176 7 45 92 195 311 297 10 230 
177 11 188 252 316 257 121 55 54 330 311 331 332 
178 11 135 291 318 156 16 91 212 32 276 89 197 
179 11 24 245 279 336 246 321 280 278 240 270 307 
180 11 226 18 72 154 67 73 96 78 36 164 145 
181 6 185 317 74 14 199 241 
182 9 113 335 131 50 242 238 253 87 256 
183 11 12 66 111 20 41 70 25 164 198 174 210 
184 10 26 197 153 47 146 138 102 101 27 156 
185 7 317 181 241 19 69 149 170 
186 11 128 159 106 100 10 160 196 59 217 158 92 
187 9 328 116 334 315 258 274 150 263 30 
188 11 177 252 121 316 330 257 54 55 238 331 171 
189 11 229 8 232 171 61 42 326 262 231 330 44 
190 8 281 234 119 215 27 84 101 75 
191 11 275 267 327 82 293 264 339 52 144 301 309 
192 11 227 169 63 68 118 65 161 115 110 58 2 
193 11 130 2 63 68 202 137 58 43 126 115 223 
194 11 23 98 29 124 223 88 221 142 200 199 137 
195 9 230 92 45 99 176 316 331 252 311 
196 11 217 206 79 168 159 186 100 80 59 138 162 
197 8 26 156 184 318 153 91 146 89 
198 11 86 225 25 66 53 22 57 173 20 41 122 
199 11 74 14 317 142 11 69 181 185 29 23 149 
200 11 29 23 33 223 194 115 124 118 161 221 98 
201 8 324 323 9 60 333 261 329 260 
202 11 43 137 130 108 221 124 193 219 2 224 223 
203 6 3 93 222 289 76 205 
204 9 284 35 64 247 272 325 243 298 319 
205 11 76 96 78 3 93 226 67 203 180 154 289 
206 11 79 168 196 80 136 217 59 7 81 109 162 
207 9 62 104 51 95 132 16 208 212 216 
208 7 310 312 71 216 46 94 211 
209 11 326 21 331 44 99 171 8 229 230 163 61 
210 11 48 41 20 139 228 7 34 183 126 175 81 
211 7 271 46 90 310 94 216 71 
212 11 291 16 135 178 288 91 51 94 62 89 132 
213 11 140 123 133 31 83 37 122 143 129 173 105 
214 11 56 174 85 13 73 18 164 109 166 48 180 
215 9 27 101 190 234 281 119 84 75 47 
216 10 46 310 94 208 71 211 312 271 288 90 
217 10 196 206 138 168 79 102 100 159 158 47 
218 11 39 32 276 320 283 309 152 282 157 265 318 
219 11 224 108 43 107 137 202 160 221 98 124 59 
220 10 117 5 282 112 299 152 265 301 320 144 
221 11 124 137 43 202 223 98 130 194 219 108 88 
222 4 203 289 3 93 
223 11 124 221 194 130 200 115 23 137 29 33 193 
224 11 219 108 107 160 43 202 137 221 59 128 124 
225 11 53 25 86 198 173 122 31 83 66 105 12 
226 11 180 72 78 96 36 18 67 205 154 164 76 
227 11 169 192 65 68 63 110 118 161 175 58 115 
228 11 139 126 58 175 167 2 34 68 210 193 41 
229 11 8 189 171 326 61 232 209 42 330 331 44 
230 10 99 195 331 21 209 92 45 316 326 176 
231 9 269 172 87 262 189 238 229 242 8 
232 11 42 61 189 262 229 44 8 151 326 171 231 
233 11 254 277 264 52 304 82 4 327 266 60 303 
234 7 119 281 190 215 27 101 84 
235 10 134 150 274 258 263 30 116 334 328 187 
236 11 127 283 103 157 77 132 218 39 320 95 309 
237 5 314 249 28 273 308 
238 11 121 172 50 335 113 54 253 87 188 242 330 
239 10 297 311 285 332 322 259 279 55 336 24 
240 11 307 322 279 295 285 24 179 245 321 246 280 
241 3 19 185 170 
242 11 50 87 335 113 182 238 269 172 131 231 114 
243 9 247 97 284 325 287 250 204 292 35 
244 8 319 165 272 248 64 35 298 6 
245 11 179 24 279 336 246 278 321 280 270 251 49 
246 11 321 280 49 245 179 338 24 295 278 279 307 
247 7 284 204 243 64 35 325 250 
248 9 165 6 244 300 306 268 298 272 319 
249 4 273 28 237 308 
250 8 325 292 338 49 313 287 280 246 
251 7 270 336 278 259 245 24 179 
252 10 177 316 257 188 55 311 121 330 54 331 
253 3 256 54 121 
254 11 233 277 264 82 52 304 4 327 266 303 267 
255 4 152 276 32 318 
256 2 253 54 
257 11 55 252 311 177 316 332 239 188 297 259 54 
258 10 274 116 263 150 334 30 328 134 187 315 
259 9 332 336 251 55 270 239 279 297 24 
260 10 337 296 9 323 329 286 201 324 333 299 
261 7 60 324 201 333 304 323 9 
262 7 232 189 42 231 61 229 269 
263 11 30 116 258 274 334 134 328 150 187 147 141 
264 11 52 233 327 254 82 304 277 267 60 4 261 
265 11 282 309 144 301 293 320 5 275 39 339 220 
266 11 82 277 254 233 267 4 303 327 264 52 304 
267 11 82 327 266 264 254 52 233 277 4 191 304 
268 4 306 6 165 248 
269 9 231 87 172 242 238 50 189 262 114 
270 7 251 278 336 245 24 179 259 
271 7 211 90 46 94 288 216 310 
272 9 298 35 300 64 244 204 165 284 319 
273 5 28 308 249 314 237 
274 10 258 263 150 116 134 30 334 328 187 235 
275 11 293 301 144 339 191 309 265 327 282 52 264 
276 8 32 218 255 152 39 318 320 156 
277 11 4 254 233 304 303 266 82 264 52 327 305 
278 9 270 245 313 251 179 24 336 246 321 
279 11 24 179 245 336 240 322 285 307 246 321 280 
280 11 246 321 49 338 245 179 24 295 307 313 278 
281 8 190 234 119 215 27 84 101 75 
282 11 265 309 144 320 301 5 293 275 39 220 299 
283 11 236 157 127 103 218 39 77 320 32 309 265 
284 8 204 247 64 35 243 272 325 319 
285 11 322 297 240 239 279 307 24 179 336 245 332 
286 9 337 260 299 296 9 323 112 329 201 
287 11 295 49 97 280 307 321 246 338 240 292 250 
288 10 94 89 90 271 91 46 135 212 211 216 
289 3 222 203 3 
290 9 294 303 155 302 305 4 147 277 266 
291 11 16 212 135 178 91 51 132 288 318 62 156 
292 8 338 250 49 313 325 280 246 321 
293 11 301 275 144 339 265 5 309 282 323 9 286 
294 9 290 155 302 305 303 147 4 277 141 
295 11 307 240 280 287 321 246 49 322 179 279 24 
296 7 337 260 329 9 286 323 201 
297 10 239 285 311 322 332 279 259 240 336 55 
298 8 272 300 35 64 165 244 204 248 
299 9 286 112 337 5 260 296 9 323 329 
300 6 298 272 165 248 35 244 
301 11 293 144 275 265 5 282 339 309 299 286 323 
302 8 155 305 290 303 294 147 4 141 
303 11 4 305 277 290 155 302 304 294 254 233 266 
304 10 4 233 254 277 261 52 264 60 303 82 
305 8 155 302 303 290 4 294 147 304 
306 4 268 6 248 165 
307 11 240 295 322 279 321 24 179 246 280 285 245 
308 3 273 28 249 
309 11 265 144 282 320 301 275 293 5 39 191 339 
310 8 46 71 208 216 312 211 94 271 
311 10 239 297 257 332 55 285 259 322 252 279 
312 5 71 208 310 46 216 
313 8 278 338 49 246 280 292 321 245 
314 5 237 28 273 249 308 
315 6 328 187 141 334 116 30 
316 10 252 177 188 257 331 330 55 121 311 171 
317 10 185 181 199 69 74 14 19 149 170 142 
318 8 156 178 276 197 32 91 135 255 
319 4 244 64 35 272 
320 11 39 282 309 265 218 144 32 301 276 5 152 
321 11 246 280 49 245 179 338 24 295 307 278 279 
322 11 285 240 279 307 24 297 179 239 295 245 336 
323 10 9 201 329 260 324 60 296 337 333 261 
324 8 201 60 261 323 9 333 329 260 
325 8 250 292 338 243 204 49 284 313 
326 11 209 8 171 229 331 189 21 44 61 330 99 
327 11 82 264 52 267 233 254 277 266 304 4 339 
328 10 187 116 334 258 315 30 263 274 150 141 
329 8 9 296 323 260 201 333 337 324 
330 11 188 171 331 177 316 8 121 252 172 229 326 
331 11 171 326 316 330 8 209 230 99 188 229 252 
332 10 259 239 55 297 336 311 251 279 285 270 
333 5 201 329 261 324 9 
334 11 116 30 328 263 258 187 274 141 315 147 150 
335 9 113 182 50 242 131 238 87 253 256 
336 10 24 251 179 270 245 279 259 278 332 285 
337 8 260 296 286 329 9 323 299 201 
338 10 49 292 280 246 313 321 278 250 245 179 
339 11 293 275 52 60 323 324 301 264 9 201 327 
DEPOT_SECTION
   1
   -1
EOF
