NAME :  X-n573-kX-w228-c7.cctp
COMMENT : 	Adapted by Maziero, Usberti and Cavellucci from the Uchoa, Pecin, Pessoa, Poggi, Subramanian, and Vidal (2013)
TYPE :  CCTP
DIMENSION :    568
EDGE_WEIGHT_TYPE : 	EUC_2D	
CAPACITY : 	210
VERTICES_WITHIN_COVERAGE :  7
VERTICES_WITH_DEMAND : 	228
NODE_COORD_SECTION
1 0 0
2 753 355
3 663 83
4 725 286
5 734 504
6 704 145
7 728 311
8 675 58
9 617 242
10 864 334
11 772 258
12 516 109
13 717 123
14 768 161
15 598 365
16 896 569
17 781 281
18 898 397
19 714 126
20 780 311
21 809 60
22 728 244
23 724 219
24 712 177
25 694 432
26 491 157
27 854 648
28 612 179
29 623 337
30 788 320
31 772 378
32 736 308
33 692 303
34 737 334
35 576 27
36 731 360
37 763 301
38 633 578
39 935 244
40 513 73
41 511 133
42 671 349
43 729 254
44 771 261
45 851 278
46 827 365
47 682 113
48 553 425
49 544 282
50 706 165
51 527 26
52 580 220
53 908 303
54 841 306
55 656 34
56 864 196
57 618 270
58 699 347
59 787 289
60 678 11
61 643 387
62 757 114
63 858 395
64 706 157
65 713 243
66 663 319
67 615 448
68 898 477
69 767 131
70 718 334
71 871 216
72 694 435
73 617 345
74 645 75
75 513 50
76 767 259
77 773 313
78 589 104
79 760 287
80 595 425
81 763 240
82 569 225
83 702 417
84 593 51
85 656 83
86 532 93
87 834 351
88 832 274
89 751 126
90 796 290
91 872 212
92 835 257
93 702 185
94 673 187
95 596 422
96 740 147
97 890 180
98 556 120
99 638 386
100 748 319
101 620 112
102 794 226
103 641 383
104 594 302
105 725 400
106 731 321
107 703 296
108 614 503
109 715 179
110 781 317
111 841 365
112 783 270
113 778 420
114 770 372
115 907 192
116 913 434
117 647 749
118 683 171
119 649 324
120 359 195
121 867 471
122 585 218
123 757 323
124 914 399
125 681 323
126 603 251
127 554 275
128 762 315
129 813 342
130 801 379
131 724 14
132 775 342
133 727 221
134 715 314
135 731 363
136 788 250
137 649 29
138 655 407
139 567 325
140 624 88
141 763 422
142 669 54
143 785 537
144 765 384
145 654 348
146 677 313
147 848 491
148 814 112
149 699 70
150 658 353
151 550 42
152 853 372
153 540 24
154 626 65
155 661 37
156 769 395
157 715 396
158 714 325
159 729 241
160 692 271
161 638 306
162 715 360
163 697 213
164 704 114
165 699 231
166 911 240
167 789 296
168 598 279
169 656 384
170 636 117
171 637 296
172 864 347
173 844 382
174 595 121
175 590 28
176 734 288
177 641 174
178 789 60
179 729 563
180 839 459
181 685 249
182 626 159
183 610 15
184 671 265
185 1000 201
186 875 408
187 419 38
188 671 63
189 693 73
190 803 184
191 690 55
192 680 192
193 511 191
194 899 256
195 610 110
196 827 287
197 672 526
198 751 216
199 755 311
200 770 321
201 750 262
202 665 436
203 595 339
204 743 228
205 748 421
206 736 240
207 747 298
208 511 179
209 753 707
210 413 402
211 628 437
212 661 207
213 737 328
214 711 285
215 655 325
216 800 288
217 804 352
218 678 59
219 623 79
220 825 278
221 736 469
222 728 268
223 675 177
224 641 245
225 686 180
226 617 646
227 903 84
228 646 72
229 778 409
230 865 386
231 928 420
232 668 91
233 702 123
234 705 306
235 574 355
236 700 483
237 617 442
238 629 426
239 767 394
240 750 212
241 828 227
242 544 253
243 605 107
244 746 356
245 737 130
246 638 79
247 600 47
248 734 377
249 652 13
250 482 164
251 737 249
252 740 161
253 554 181
254 623 270
255 748 363
256 655 305
257 878 250
258 638 311
259 743 397
260 663 78
261 649 322
262 718 309
263 711 345
264 750 222
265 734 195
266 691 372
267 676 264
268 793 263
269 638 111
270 717 372
271 670 184
272 635 112
273 677 120
274 708 173
275 483 71
276 851 348
277 776 165
278 807 346
279 659 341
280 732 272
281 815 259
282 739 375
283 907 319
284 777 316
285 756 77
286 668 72
287 766 304
288 599 97
289 648 208
290 696 412
291 878 216
292 507 50
293 848 417
294 673 295
295 734 420
296 676 104
297 756 332
298 667 238
299 616 134
300 692 255
301 705 186
302 675 191
303 657 99
304 760 418
305 827 350
306 662 529
307 821 447
308 759 191
309 753 72
310 859 378
311 646 242
312 896 475
313 566 258
314 645 338
315 546 60
316 748 263
317 805 435
318 785 387
319 510 198
320 937 390
321 641 386
322 759 274
323 714 352
324 674 332
325 662 189
326 712 354
327 685 112
328 628 73
329 728 372
330 703 99
331 692 48
332 746 335
333 791 248
334 579 98
335 732 249
336 503 63
337 595 63
338 877 228
339 812 137
340 788 235
341 647 192
342 738 410
343 600 100
344 742 417
345 616 343
346 830 330
347 681 162
348 809 41
349 845 394
350 714 51
351 602 236
352 590 57
353 766 375
354 657 113
355 630 128
356 643 248
357 623 315
358 805 534
359 639 178
360 603 114
361 779 398
362 680 289
363 994 383
364 463 284
365 715 367
366 625 297
367 773 278
368 701 345
369 729 331
370 658 317
371 807 287
372 638 7
373 669 12
374 616 128
375 587 403
376 962 294
377 717 278
378 557 161
379 565 465
380 631 245
381 816 144
382 706 90
383 771 428
384 839 190
385 786 419
386 754 358
387 687 82
388 690 187
389 692 441
390 839 365
391 763 191
392 724 301
393 791 198
394 697 159
395 661 220
396 776 276
397 736 431
398 892 182
399 602 33
400 487 297
401 721 103
402 744 240
403 648 381
404 571 6
405 646 130
406 758 317
407 779 433
408 737 308
409 736 197
410 585 87
411 668 304
412 863 289
413 861 472
414 628 358
415 857 330
416 755 375
417 601 537
418 759 310
419 704 272
420 642 346
421 710 240
422 877 382
423 877 287
424 573 197
425 339 383
426 651 320
427 754 254
428 694 52
429 814 293
430 703 274
431 496 169
432 766 182
433 480 92
434 847 178
435 928 298
436 871 664
437 656 36
438 753 175
439 742 128
440 760 363
441 677 376
442 761 383
443 855 434
444 773 366
445 710 177
446 762 378
447 876 191
448 801 250
449 481 159
450 839 209
451 544 312
452 749 288
453 704 91
454 647 158
455 722 176
456 608 213
457 720 277
458 757 350
459 697 229
460 890 258
461 779 273
462 949 223
463 738 400
464 674 438
465 626 293
466 716 467
467 593 371
468 872 314
469 616 310
470 670 454
471 762 339
472 676 366
473 766 318
474 753 389
475 766 236
476 671 75
477 901 344
478 737 290
479 602 77
480 784 319
481 783 268
482 792 335
483 813 294
484 768 302
485 770 281
486 798 190
487 696 305
488 714 336
489 684 65
490 686 329
491 751 357
492 667 260
493 734 295
494 538 203
495 838 499
496 104 364
497 689 47
498 621 231
499 656 128
500 595 31
501 793 258
502 844 287
503 630 165
504 537 118
505 607 413
506 783 359
507 673 280
508 756 224
509 676 466
510 609 102
511 738 221
512 556 84
513 789 84
514 624 239
515 721 70
516 711 338
517 649 180
518 229 166
519 782 342
520 759 222
521 872 494
522 589 39
523 533 226
524 704 206
525 644 66
526 830 288
527 585 126
528 660 72
529 554 11
530 755 300
531 587 243
532 708 115
533 610 16
534 774 505
535 640 436
536 683 210
537 936 268
538 795 414
539 693 592
540 817 108
541 710 305
542 739 217
543 725 45
544 638 118
545 711 456
546 783 128
547 761 313
548 866 479
549 817 400
550 554 297
551 778 342
552 654 271
553 756 239
554 748 41
555 648 151
556 701 286
557 735 275
558 792 334
559 674 111
560 754 300
561 740 149
562 798 531
563 661 275
564 530 155
565 532 181
566 587 360
567 869 444
568 794 227
DEMAND_SECTION
2 78
3 96
4 64
5 87
6 70
7 57
8 63
9 86
10 89
11 64
12 53
13 86
14 69
15 94
16 62
17 96
18 89
19 92
20 72
21 59
22 93
23 55
24 96
25 81
26 65
27 52
28 99
29 99
30 57
31 100
32 73
33 61
34 64
35 85
36 69
37 55
38 95
39 95
40 64
41 73
42 99
43 88
44 89
45 10
46 9
47 5
48 1
49 3
50 9
51 5
52 4
53 10
54 3
55 5
56 7
57 9
58 6
59 5
60 8
61 2
62 4
63 3
64 3
65 6
66 3
67 3
68 8
69 5
70 9
71 10
72 4
73 2
74 10
75 1
76 3
77 2
78 5
79 4
80 5
81 7
82 3
83 1
84 7
85 9
86 4
87 4
88 6
89 2
90 8
91 8
92 5
93 5
94 9
95 10
96 8
97 1
98 6
99 10
100 6
101 10
102 6
103 7
104 6
105 2
106 9
107 6
108 8
109 6
110 3
111 10
112 6
113 4
114 2
115 9
116 6
117 1
118 3
119 9
120 8
121 8
122 1
123 4
124 4
125 2
126 7
127 5
128 2
129 10
130 7
131 9
132 1
133 9
134 2
135 2
136 4
137 6
138 2
139 4
140 6
141 6
142 7
143 5
144 9
145 6
146 10
147 1
148 3
149 9
150 3
151 4
152 6
153 1
154 8
155 5
156 7
157 5
158 2
159 1
160 8
161 6
162 7
163 4
164 6
165 5
166 1
167 8
168 9
169 8
170 9
171 8
172 9
173 3
174 9
175 2
176 4
177 6
178 8
179 9
180 1
181 5
182 6
183 2
184 4
185 2
186 2
187 3
188 6
189 7
190 6
191 9
192 9
193 1
194 10
195 7
196 2
197 1
198 5
199 7
200 4
201 9
202 4
203 1
204 10
205 1
206 1
207 2
208 5
209 6
210 10
211 7
212 2
213 1
214 6
215 3
216 2
217 4
218 4
219 1
220 4
221 10
222 2
223 2
224 6
225 7
226 7
227 10
228 4
229 9
COVERAGE_SECTION
2 7 386 491 458 244 255 440 471 
3 7 260 85 232 476 528 286 303 
4 7 176 457 377 478 493 214 392 
5 7 221 236 534 466 545 179 143 
6 7 64 394 50 19 233 13 274 
7 7 32 408 106 262 392 134 493 
8 7 218 188 142 489 191 286 476 
9 7 514 498 380 351 126 224 356 
10 7 415 172 276 468 87 346 54 
11 7 44 76 481 112 461 136 396 
12 7 86 504 41 40 433 98 512 
13 7 19 532 233 164 401 245 439 
14 7 277 432 438 252 69 391 561 
15 7 467 566 203 235 73 345 414 
16 7 521 27 495 68 147 312 548 
17 7 396 461 367 59 112 485 481 
18 7 124 186 422 230 231 63 116 
19 7 13 233 532 164 6 245 401 
20 7 110 284 77 480 30 200 484 
21 7 348 178 513 540 148 285 309 
22 7 159 335 206 43 251 65 402 
23 7 133 511 542 204 159 206 524 
24 7 445 109 274 455 301 50 93 
25 7 72 389 83 290 464 202 545 
26 7 449 250 431 208 41 193 564 
27 7 436 16 209 358 562 143 495 
28 7 503 182 359 177 456 341 517 
29 7 345 73 420 314 357 414 203 
30 7 480 110 20 284 558 482 77 
31 7 114 353 144 446 442 444 318 
32 7 408 7 493 106 392 207 100 
33 7 487 107 234 146 362 541 556 
34 7 213 332 369 106 70 100 297 
35 7 175 522 500 404 399 529 84 
36 7 135 329 162 244 248 255 282 
37 7 287 484 530 560 418 547 199 
38 7 417 306 539 197 226 108 179 
39 7 166 537 462 194 460 435 257 
40 7 336 75 292 86 275 315 12 
41 7 12 564 504 26 431 449 250 
42 7 150 279 145 324 472 490 58 
43 7 335 251 22 159 222 206 280 
44 7 11 76 461 481 112 396 367 
45 7 502 412 88 526 92 196 220 
46 7 390 111 305 87 173 217 129 
47 7 327 559 273 296 164 233 330 
48 7 375 80 379 95 505 67 237 
49 7 127 550 242 451 313 139 104 
50 7 64 274 394 24 445 109 455 
51 7 153 75 151 292 529 315 336 
52 7 122 82 424 531 351 456 126 
53 7 283 435 423 468 477 537 412 
54 7 502 526 196 346 412 415 45 
55 7 437 155 137 249 142 373 8 
56 7 447 91 71 291 434 384 450 
57 7 254 168 126 465 9 366 380 
58 7 368 263 326 516 323 488 162 
59 7 167 90 17 216 396 367 461 
60 7 373 249 155 55 437 137 497 
61 7 321 103 99 403 169 138 414 
62 7 89 69 439 245 546 96 285 
63 7 230 349 310 173 186 422 152 
64 7 50 394 6 274 445 24 109 
65 7 421 22 159 165 43 335 459 
66 7 370 215 426 261 119 146 256 
67 7 237 211 238 535 80 95 505 
68 7 312 521 121 548 413 567 116 
69 7 546 89 62 439 14 245 96 
70 7 488 516 158 369 263 106 323 
71 7 91 291 338 56 447 450 257 
72 7 25 389 83 464 290 545 202 
73 7 345 29 414 203 420 15 314 
74 7 228 246 525 85 528 328 260 
75 7 292 336 40 51 315 153 275 
76 7 44 11 427 201 322 461 481 
77 7 284 20 110 200 473 128 287 
78 7 288 334 343 243 360 410 174 
79 7 452 485 322 37 530 560 367 
80 7 95 505 375 237 67 238 211 
81 7 475 553 427 508 520 76 402 
82 7 52 122 531 424 313 351 523 
83 7 290 25 72 157 389 105 295 
84 7 352 247 337 522 399 500 175 
85 7 3 260 528 74 232 228 286 
86 7 12 504 512 40 98 315 336 
87 7 305 390 46 111 276 346 129 
88 7 220 196 526 92 502 45 281 
89 7 439 62 245 69 96 561 546 
90 7 216 59 167 371 17 483 429 
91 7 71 291 338 56 447 450 398 
92 7 88 281 220 45 196 241 502 
93 7 301 445 388 24 274 109 225 
94 7 271 302 192 223 325 225 388 
95 7 80 505 375 237 67 238 211 
96 7 561 252 245 439 89 14 69 
97 7 398 447 115 56 91 291 71 
98 7 504 527 334 86 512 78 174 
99 7 321 103 61 403 169 138 414 
100 7 123 406 199 213 418 547 128 
101 7 195 272 510 243 374 170 360 
102 7 568 340 333 136 448 393 475 
103 7 321 61 99 403 169 138 414 
104 7 168 469 366 357 465 139 203 
105 6 157 463 342 259 295 344 
106 7 213 7 369 32 34 408 100 
107 7 234 556 487 541 33 214 262 
108 7 417 67 306 237 197 379 211 
109 7 24 445 455 274 301 93 50 
110 7 284 480 20 30 77 200 473 
111 7 390 46 152 87 173 276 305 
112 7 481 461 396 17 268 367 44 
113 7 385 229 383 407 141 304 538 
114 7 353 31 444 446 144 440 442 
115 7 398 97 447 291 91 56 71 
116 7 231 124 18 312 567 68 186 
117 7 226 209 539 38 179 417 306 
118 7 225 347 223 388 271 394 94 
119 7 261 426 215 370 66 314 258 
120 7 250 449 518 26 364 431 319 
121 7 413 548 521 567 147 312 180 
122 7 52 82 424 456 351 531 126 
123 7 406 128 297 100 473 547 199 
124 7 18 231 320 116 186 422 230 
125 7 490 146 324 66 33 411 487 
126 7 351 9 531 57 514 498 168 
127 7 49 313 550 242 451 168 531 
128 7 547 406 473 418 199 123 200 
129 7 278 217 305 346 482 558 87 
130 7 318 549 217 506 31 361 46 
131 7 543 554 350 60 331 428 497 
132 7 551 519 471 482 506 558 458 
133 7 23 511 542 204 159 206 22 
134 7 262 541 158 7 234 392 106 
135 7 36 329 248 282 162 365 244 
136 7 333 501 448 268 340 11 481 
137 7 55 437 155 249 372 373 142 
138 7 61 169 321 99 403 103 202 
139 7 451 203 235 550 104 566 49 
140 7 219 328 246 510 154 101 74 
141 7 304 383 113 205 407 229 344 
142 7 8 188 218 286 155 489 528 
143 7 562 358 534 5 179 495 147 
144 7 442 446 31 353 239 156 114 
145 7 150 279 420 314 42 215 119 
146 7 125 411 66 33 294 490 324 
147 7 495 548 413 521 121 180 312 
148 7 540 339 381 546 513 69 21 
149 7 189 489 191 387 428 382 453 
150 7 145 279 42 420 314 472 324 
151 7 315 153 51 35 529 75 522 
152 7 310 173 111 390 230 349 63 
153 7 51 529 151 35 315 404 75 
154 7 328 219 246 525 74 228 140 
155 7 437 55 137 142 8 249 373 
156 7 239 361 144 442 31 229 474 
157 7 105 463 270 83 290 248 329 
158 7 70 134 488 516 262 369 106 
159 7 22 206 335 251 43 402 65 
160 7 430 419 300 267 556 507 184 
161 7 258 171 366 256 357 465 261 
162 7 326 365 323 270 36 135 263 
163 7 524 536 459 165 192 388 23 
164 7 532 233 330 13 19 327 401 
165 7 459 421 65 163 181 300 524 
166 7 194 39 460 257 338 537 291 
167 7 59 90 216 17 20 371 110 
168 7 57 104 254 126 465 366 469 
169 7 403 61 103 321 99 441 138 
170 7 544 272 269 355 405 101 354 
171 7 161 465 366 258 256 357 469 
172 7 10 276 415 152 111 87 310 
173 7 349 152 310 111 390 63 230 
174 7 360 527 243 78 195 343 374 
175 7 500 522 399 35 247 84 533 
176 7 478 493 4 557 452 207 280 
177 7 359 517 503 454 341 182 555 
178 6 21 513 348 285 309 554 
179 7 539 5 143 197 534 306 562 
180 7 307 413 121 443 147 548 567 
181 7 300 267 184 298 492 160 165 
182 7 503 177 454 359 555 28 299 
183 7 533 399 500 175 372 522 247 
184 7 267 492 563 507 552 181 160 
185 7 462 39 115 537 166 376 398 
186 7 63 230 18 422 293 349 443 
187 7 275 433 336 292 75 40 51 
188 7 8 218 142 286 476 489 528 
189 7 149 387 489 191 218 382 428 
190 7 486 393 277 384 432 391 14 
191 7 428 331 497 489 218 8 149 
192 7 302 94 388 225 271 223 325 
193 7 319 208 565 431 494 26 250 
194 7 460 166 257 338 39 423 537 
195 7 243 360 510 101 343 288 174 
196 7 526 220 88 429 483 502 371 
197 6 306 236 509 108 38 5 
198 7 240 264 508 520 542 204 511 
199 7 418 547 406 128 100 530 560 
200 7 473 77 284 128 110 547 123 
201 7 316 427 322 76 251 557 44 
202 7 464 470 535 389 25 72 138 
203 7 345 566 73 15 235 29 139 
204 7 264 511 402 542 198 206 508 
205 7 344 304 295 141 342 397 463 
206 7 159 402 22 251 335 204 43 
207 7 560 530 452 478 493 408 32 
208 7 193 431 319 565 26 564 250 
209 7 117 27 436 539 179 226 143 
210 7 425 364 400 48 451 379 235 
211 7 238 237 535 67 505 80 95 
212 7 289 395 325 302 341 536 94 
213 7 34 106 369 332 100 7 297 
214 7 377 556 457 4 107 430 419 
215 7 119 426 261 370 66 279 314 
216 7 90 371 59 167 483 429 17 
217 7 278 129 482 506 558 305 519 
218 7 8 188 489 142 191 286 497 
219 7 328 140 154 246 479 74 228 
220 7 88 196 526 429 371 483 281 
221 7 466 545 5 397 236 205 295 
222 7 280 557 457 43 377 4 335 
223 7 271 94 118 225 302 192 347 
224 7 356 311 380 514 9 498 298 
225 7 388 118 223 192 94 271 302 
226 7 38 539 117 417 306 197 179 
227 7 540 148 21 97 398 348 339 
228 7 74 525 246 528 85 260 328 
229 7 113 361 385 156 538 239 141 
230 7 310 63 422 152 173 349 186 
231 7 116 124 320 18 186 68 312 
232 7 3 85 260 303 296 476 286 
233 7 164 532 19 13 327 6 47 
234 7 541 487 107 33 134 262 392 
235 7 566 467 15 203 139 73 345 
236 6 466 509 545 221 5 470 
237 7 67 211 238 535 80 95 505 
238 7 211 535 237 67 505 138 95 
239 7 156 144 361 442 474 31 446 
240 7 198 264 542 508 520 511 204 
241 7 450 92 102 568 281 448 384 
242 7 313 127 49 523 82 531 550 
243 7 195 510 360 343 288 78 101 
244 7 491 2 255 386 458 36 440 
245 7 439 89 96 561 13 19 62 
246 7 74 228 328 525 219 140 85 
247 7 84 352 399 522 337 500 175 
248 6 282 329 135 36 270 255 
249 7 372 137 373 55 437 60 155 
250 7 449 26 431 208 193 41 319 
251 7 335 43 206 22 159 402 201 
252 7 561 96 438 455 14 109 245 
253 7 378 565 424 494 564 208 193 
254 7 57 465 380 168 366 126 9 
255 7 244 491 386 2 440 416 282 
256 7 370 411 66 426 161 258 261 
257 7 460 194 338 166 291 71 423 
258 7 161 171 261 357 426 119 256 
259 6 463 474 342 105 344 248 
260 7 3 528 286 85 476 232 188 
261 7 119 426 215 370 66 258 314 
262 7 134 541 7 392 234 158 32 
263 7 516 323 326 488 368 58 70 
264 7 198 508 204 520 240 511 542 
265 7 409 455 240 542 109 308 23 
266 7 441 472 365 58 270 162 326 
267 7 184 492 507 160 181 300 563 
268 7 501 481 112 136 333 448 461 
269 7 272 170 544 101 354 355 405 
270 7 365 329 162 135 36 248 326 
271 7 94 223 302 325 192 225 118 
272 7 269 170 544 101 355 405 354 
273 7 47 559 327 296 354 499 233 
274 7 445 24 50 109 93 301 455 
275 7 433 336 40 292 75 12 86 
276 7 172 87 10 415 111 390 152 
277 7 14 432 438 391 308 190 486 
278 7 129 217 482 558 305 519 87 
279 7 145 150 42 314 215 324 420 
280 7 557 222 457 4 176 377 43 
281 7 448 92 220 268 501 88 333 
282 6 248 329 135 255 416 36 
283 7 53 477 435 468 423 10 172 
284 7 110 77 20 480 200 473 30 
285 5 309 513 515 62 178 
286 7 476 260 528 188 3 8 85 
287 7 484 37 418 547 77 128 530 
288 7 343 510 78 243 195 360 410 
289 7 212 341 395 325 517 359 302 
290 7 83 25 72 157 389 105 464 
291 7 71 91 338 56 447 257 398 
292 7 75 336 40 51 275 315 153 
293 7 443 349 63 186 567 173 230 
294 7 362 411 507 146 33 256 563 
295 7 344 342 397 205 463 105 259 
296 7 559 47 327 232 273 303 354 
297 7 123 471 332 100 406 473 128 
298 7 395 181 311 492 356 184 224 
299 7 374 355 101 360 174 195 170 
300 7 181 160 267 419 430 184 421 
301 7 93 445 24 109 274 388 225 
302 7 94 192 271 325 223 225 388 
303 7 232 354 85 3 296 559 260 
304 7 141 205 383 113 344 229 342 
305 7 87 46 129 390 278 346 111 
306 6 197 108 38 236 417 509 
307 7 317 180 443 293 538 407 385 
308 7 391 432 438 240 409 265 198 
309 5 285 554 515 178 513 
310 7 152 230 173 63 422 349 111 
311 7 224 356 380 298 514 395 498 
312 7 68 121 548 521 413 567 116 
313 7 127 242 531 49 82 126 168 
314 7 420 145 279 119 215 261 426 
315 7 151 512 75 40 86 153 51 
316 7 201 427 322 251 280 557 76 
317 7 307 538 385 407 113 383 229 
318 7 361 31 130 156 239 144 114 
319 7 193 208 494 565 431 523 250 
320 7 124 231 18 116 363 477 422 
321 7 61 99 103 403 169 138 414 
322 7 79 485 201 367 316 76 396 
323 7 326 162 263 516 365 368 58 
324 7 125 490 42 66 279 146 215 
325 7 271 94 302 341 517 192 212 
326 7 323 162 263 365 368 58 516 
327 7 47 273 559 296 164 233 330 
328 7 154 219 246 140 74 525 228 
329 7 248 135 270 282 36 365 162 
330 7 453 382 164 532 401 327 387 
331 7 497 428 191 218 489 8 350 
332 7 34 297 213 100 123 471 369 
333 7 136 448 501 340 268 11 568 
334 7 78 410 288 343 512 174 243 
335 7 251 22 43 159 206 402 222 
336 7 40 292 75 275 433 86 315 
337 7 352 84 479 247 522 410 154 
338 7 291 71 91 257 460 56 166 
339 7 381 148 540 546 69 277 190 
340 7 568 102 333 136 448 475 501 
341 7 517 325 289 359 177 212 271 
342 6 344 463 295 259 205 105 
343 7 288 243 510 78 195 360 410 
344 7 205 342 295 397 463 304 259 
345 7 73 29 414 203 420 15 314 
346 7 305 87 129 54 415 276 278 
347 7 118 223 394 225 50 64 271 
348 6 21 178 513 554 285 309 
349 7 173 63 310 230 152 293 111 
350 7 543 428 515 331 149 191 497 
351 7 126 9 531 498 514 456 122 
352 7 84 337 247 522 479 500 399 
353 7 114 446 31 144 442 416 444 
354 7 303 499 559 269 405 544 170 
355 7 170 544 374 299 405 272 101 
356 7 224 311 380 514 552 298 9 
357 7 469 258 161 366 29 465 171 
358 7 562 143 534 495 147 5 521 
359 7 177 517 341 503 454 182 325 
360 7 243 195 174 510 343 78 101 
361 7 156 229 239 318 144 31 113 
362 7 294 507 33 411 556 160 487 
363 7 320 231 124 376 116 18 477 
364 7 400 49 451 242 127 523 550 
365 7 270 162 326 329 323 135 36 
366 7 465 171 161 469 357 258 254 
367 7 396 485 461 17 112 481 322 
368 7 58 263 516 326 323 488 70 
369 7 34 213 106 70 158 488 332 
370 7 66 426 215 261 119 256 411 
371 7 216 429 483 90 59 167 196 
372 7 249 137 183 533 373 55 437 
373 7 60 249 55 137 155 437 372 
374 7 299 355 101 195 360 174 170 
375 7 95 505 80 467 15 48 566 
376 7 435 537 53 39 283 462 166 
377 7 457 214 4 419 222 430 280 
378 7 253 564 565 424 98 527 494 
379 7 48 80 67 95 237 108 375 
380 7 514 224 356 9 311 498 254 
381 7 339 148 540 546 190 277 434 
382 7 453 330 401 149 189 387 164 
383 7 407 141 113 304 385 229 205 
384 7 434 450 56 190 447 241 91 
385 7 113 538 229 407 383 361 141 
386 7 2 491 244 255 440 458 416 
387 7 189 149 476 489 453 232 286 
388 7 225 192 93 301 302 94 118 
389 7 72 25 464 545 83 470 202 
390 7 111 46 87 152 173 305 276 
391 7 308 432 438 240 198 409 265 
392 7 262 7 493 32 4 408 541 
393 7 486 190 102 391 568 432 308 
394 7 64 50 6 347 118 274 445 
395 7 212 289 298 536 311 325 341 
396 7 367 461 17 485 112 481 44 
397 7 295 344 205 342 304 141 463 
398 7 97 115 447 56 91 291 71 
399 7 500 175 247 522 533 84 183 
400 7 364 49 451 550 127 242 139 
401 7 330 532 13 164 382 453 19 
402 7 206 251 204 553 159 335 22 
403 7 103 61 169 321 99 138 441 
404 7 529 35 175 500 153 522 183 
405 7 499 544 170 355 354 269 272 
406 7 128 547 123 199 418 473 100 
407 7 383 113 385 141 229 304 538 
408 7 32 7 493 106 207 392 100 
409 7 265 542 240 198 308 511 23 
410 7 334 78 288 343 479 337 243 
411 7 294 146 256 66 370 362 125 
412 7 423 45 502 468 54 526 88 
413 7 121 548 147 521 180 567 312 
414 7 73 420 345 29 314 103 145 
415 7 10 172 276 468 346 54 87 
416 7 446 442 353 144 440 255 474 
417 7 108 38 306 197 379 67 237 
418 7 199 547 128 406 287 37 473 
419 7 430 160 377 556 214 457 300 
420 7 314 145 150 279 414 29 119 
421 7 65 165 459 22 159 300 43 
422 7 230 310 63 18 152 186 173 
423 7 412 468 45 460 502 53 257 
424 7 52 122 253 82 494 456 378 
425 7 210 364 400 120 451 48 49 
426 7 261 119 215 370 66 256 258 
427 7 201 316 76 553 81 402 11 
428 7 331 191 497 489 218 149 8 
429 7 483 371 196 216 526 90 220 
430 7 419 160 556 214 377 457 107 
431 7 26 250 208 449 193 319 564 
432 7 391 308 438 277 14 393 252 
433 7 275 336 40 12 292 41 86 
434 7 384 56 447 450 91 97 190 
435 7 53 283 537 376 194 423 477 
436 7 27 16 209 358 562 143 495 
437 7 55 155 137 142 249 373 8 
438 7 432 308 252 391 14 277 265 
439 7 245 89 96 62 561 13 69 
440 7 386 2 491 255 114 353 416 
441 7 472 266 169 42 403 150 58 
442 7 144 446 353 416 474 31 239 
443 7 567 293 180 186 307 413 63 
444 7 114 353 31 506 440 446 144 
445 7 24 274 109 301 93 455 50 
446 7 353 442 144 416 31 114 474 
447 7 56 97 398 91 71 291 115 
448 7 333 501 136 268 281 340 568 
449 7 250 26 431 208 41 193 319 
450 7 384 241 56 434 71 91 291 
451 7 550 139 49 127 104 235 203 
452 7 207 79 478 530 560 176 322 
453 7 382 330 387 189 401 149 164 
454 6 555 177 503 182 359 517 
455 7 109 24 445 274 50 301 93 
456 7 498 122 351 52 9 514 28 
457 7 377 4 214 222 280 557 419 
458 7 2 386 491 471 244 440 255 
459 7 165 163 421 65 181 524 536 
460 7 194 257 166 423 338 412 45 
461 7 396 112 481 17 367 485 44 
462 7 39 166 537 115 185 194 460 
463 6 259 342 105 344 474 295 
464 6 202 470 389 72 25 509 
465 7 366 171 161 469 258 357 254 
466 6 545 221 236 389 72 509 
467 7 15 566 235 203 375 73 345 
468 7 10 415 412 423 54 172 283 
469 7 357 366 465 161 258 104 171 
470 6 509 464 202 389 72 25 
471 7 297 458 132 332 551 123 2 
472 7 441 266 42 150 169 145 58 
473 7 128 200 547 406 77 123 284 
474 6 442 144 259 416 446 239 
475 7 81 553 508 520 264 340 402 
476 7 286 260 3 528 188 232 489 
477 7 283 172 10 53 468 422 415 
478 7 176 493 452 4 207 557 392 
479 7 337 288 410 219 343 352 140 
480 7 30 110 284 20 77 200 558 
481 7 112 461 268 396 17 44 367 
482 7 558 519 30 551 132 480 278 
483 7 429 371 216 196 90 526 220 
484 7 287 37 77 418 530 547 128 
485 7 367 396 17 79 461 322 112 
486 7 190 393 277 432 391 102 568 
487 7 33 234 107 541 556 134 146 
488 7 70 516 263 158 323 368 369 
489 7 218 8 189 191 188 149 428 
490 7 125 324 146 58 368 42 66 
491 7 2 386 244 255 458 440 416 
492 7 184 267 563 552 181 507 298 
493 7 478 176 392 4 32 207 408 
494 7 565 523 253 319 193 208 424 
495 7 147 521 548 413 121 180 358 
496 7 518 425 120 210 364 400 250 
497 7 331 428 191 218 8 489 142 
498 7 514 9 380 351 456 224 126 
499 6 405 354 544 273 170 555 
500 7 175 399 522 247 35 84 533 
501 7 268 136 333 448 481 112 11 
502 7 45 526 196 88 54 412 220 
503 7 182 177 359 454 28 555 517 
504 7 98 12 86 41 564 512 334 
505 7 95 80 375 238 237 211 67 
506 7 444 519 114 551 132 31 217 
507 7 362 563 184 294 267 160 492 
508 7 520 264 198 240 204 553 475 
509 6 470 464 236 389 202 72 
510 7 243 195 343 288 360 101 78 
511 7 542 204 133 264 23 198 240 
512 7 86 315 334 410 98 78 504 
513 7 178 21 285 540 148 309 62 
514 7 9 380 498 224 356 311 351 
515 5 350 149 382 543 453 
516 7 488 263 70 368 158 323 58 
517 7 177 359 341 325 271 454 503 
518 7 120 187 496 425 449 250 26 
519 7 551 132 482 558 506 471 30 
520 7 508 264 198 240 475 204 553 
521 7 548 121 147 413 68 312 495 
522 7 500 175 84 247 399 35 352 
523 7 494 242 82 319 193 565 313 
524 7 163 301 93 536 23 388 459 
525 7 228 74 246 328 528 154 85 
526 7 196 220 88 502 429 483 54 
527 7 174 78 360 243 334 98 195 
528 7 260 286 3 476 85 188 228 
529 7 404 153 35 51 151 175 522 
530 7 560 37 207 199 418 287 452 
531 7 351 126 52 82 122 313 9 
532 7 164 233 13 19 330 401 327 
533 7 183 399 500 175 372 522 247 
534 7 143 562 5 358 221 495 466 
535 7 211 238 237 202 67 138 464 
536 7 163 192 302 524 212 388 395 
537 7 39 435 376 166 194 53 460 
538 7 385 113 229 317 361 407 549 
539 7 179 38 197 306 226 5 143 
540 7 148 339 381 513 546 21 69 
541 7 234 262 134 107 487 392 33 
542 7 511 198 204 240 264 133 23 
543 5 350 554 515 131 428 
544 7 170 269 272 355 405 101 354 
545 6 466 389 72 221 25 236 
546 7 69 62 339 89 148 14 381 
547 7 128 418 406 199 473 287 123 
548 7 121 413 521 147 312 68 180 
549 7 130 538 349 173 293 318 46 
550 7 49 451 127 139 104 313 242 
551 7 132 519 471 482 558 506 200 
552 7 563 492 184 507 267 356 224 
553 7 81 475 402 427 508 204 520 
554 5 543 309 350 131 285 
555 6 454 405 182 503 177 499 
556 7 107 214 430 419 160 377 33 
557 7 280 222 176 4 457 478 316 
558 7 482 519 30 551 480 132 278 
559 7 296 47 273 327 354 232 303 
560 7 530 207 37 199 418 287 452 
561 7 96 252 245 439 89 438 14 
562 7 358 143 534 495 147 5 179 
563 7 552 507 184 492 267 294 362 
564 7 565 378 41 208 253 431 504 
565 7 208 253 193 494 564 319 378 
566 7 15 467 235 203 73 345 139 
567 7 443 121 413 180 293 548 186 
568 7 102 340 333 136 448 393 475 
DEPOT_SECTION
   1
   -1
EOF
