NAME :  X-n513-kX-w204-c9.cctp
COMMENT : 	Adapted by Maziero, Usberti and Cavellucci from the Uchoa, Pecin, Pessoa, Poggi, Subramanian, and Vidal (2013)
TYPE :  CCTP
DIMENSION :    432
EDGE_WEIGHT_TYPE : 	EUC_2D	
CAPACITY : 	142
VERTICES_WITHIN_COVERAGE :  9
VERTICES_WITH_DEMAND : 	204
NODE_COORD_SECTION
1 500 500
2 425 323
3 806 514
4 853 637
5 326 818
6 601 664
7 680 704
8 358 401
9 688 267
10 146 846
11 171 615
12 962 75
13 710 565
14 662 574
15 665 599
16 112 811
17 439 69
18 573 69
19 997 647
20 338 524
21 626 29
22 633 570
23 957 890
24 746 397
25 224 83
26 425 827
27 787 99
28 518 378
29 890 763
30 860 608
31 683 188
32 417 680
33 483 987
34 676 197
35 294 710
36 284 281
37 568 565
38 942 896
39 223 358
40 538 428
41 910 702
42 550 516
43 524 467
44 675 128
45 977 488
46 725 890
47 205 512
48 768 660
49 443 407
50 518 363
51 730 609
52 973 64
53 683 832
54 308 298
55 510 14
56 17 647
57 275 527
58 303 571
59 415 624
60 713 483
61 502 147
62 38 76
63 265 477
64 446 909
65 849 738
66 878 222
67 334 250
68 683 28
69 502 235
70 513 433
71 850 764
72 465 213
73 854 966
74 465 648
75 491 477
76 916 597
77 999 146
78 581 824
79 892 989
80 734 581
81 232 386
82 538 431
83 139 541
84 697 331
85 557 181
86 339 957
87 271 514
88 162 281
89 175 424
90 819 403
91 783 931
92 562 627
93 995 892
94 135 789
95 117 954
96 911 834
97 125 757
98 279 646
99 175 386
100 296 128
101 379 78
102 567 526
103 809 171
104 389 7
105 772 308
106 143 492
107 322 894
108 935 730
109 24 791
110 482 626
111 974 278
112 258 823
113 58 256
114 884 523
115 475 692
116 763 576
117 498 330
118 978 797
119 491 640
120 428 548
121 174 25
122 222 572
123 139 270
124 314 61
125 618 247
126 402 994
127 491 870
128 58 704
129 563 291
130 131 720
131 69 366
132 376 831
133 448 343
134 352 424
135 351 829
136 560 60
137 914 981
138 835 298
139 267 968
140 983 778
141 305 670
142 677 546
143 701 632
144 593 635
145 170 268
146 805 891
147 989 313
148 419 48
149 758 526
150 472 66
151 419 642
152 66 699
153 522 581
154 763 327
155 736 892
156 220 35
157 620 463
158 87 942
159 635 473
160 141 772
161 411 593
162 684 692
163 264 440
164 171 385
165 959 282
166 118 379
167 727 988
168 228 622
169 529 231
170 789 316
171 577 949
172 308 992
173 91 33
174 415 835
175 323 299
176 987 269
177 818 672
178 550 782
179 929 654
180 917 999
181 584 19
182 73 17
183 305 771
184 327 985
185 468 340
186 692 921
187 822 44
188 529 801
189 252 789
190 441 883
191 799 15
192 409 285
193 921 912
194 185 815
195 11 860
196 934 42
197 162 143
198 116 639
199 185 898
200 644 943
201 869 312
202 254 796
203 501 86
204 163 620
205 633 133
206 948 742
207 691 976
208 371 447
209 545 965
210 504 676
211 227 60
212 30 899
213 398 274
214 460 653
215 262 554
216 258 600
217 646 981
218 491 605
219 764 475
220 715 67
221 111 495
222 342 496
223 888 336
224 560 874
225 911 52
226 309 177
227 596 454
228 977 808
229 56 272
230 181 471
231 484 988
232 289 633
233 796 913
234 178 219
235 524 516
236 255 573
237 954 1
238 722 654
239 518 137
240 433 330
241 939 901
242 595 961
243 951 404
244 715 956
245 156 471
246 713 616
247 460 949
248 406 772
249 156 745
250 189 916
251 498 652
252 924 598
253 609 662
254 44 591
255 189 622
256 758 634
257 484 682
258 488 618
259 739 645
260 502 601
261 106 709
262 631 577
263 266 653
264 782 596
265 328 752
266 228 334
267 432 519
268 17 636
269 284 656
270 515 661
271 131 872
272 58 388
273 610 626
274 297 531
275 728 700
276 118 496
277 753 510
278 591 648
279 263 861
280 116 727
281 121 722
282 311 625
283 110 712
284 179 790
285 700 602
286 92 664
287 687 608
288 576 520
289 619 668
290 2 770
291 689 614
292 273 795
293 670 622
294 37 884
295 310 576
296 242 839
297 565 629
298 961 754
299 548 608
300 387 643
301 735 499
302 506 675
303 127 530
304 306 597
305 267 712
306 719 490
307 218 615
308 297 575
309 154 759
310 186 516
311 610 659
312 421 630
313 572 520
314 57 672
315 88 728
316 573 664
317 112 761
318 589 737
319 732 501
320 118 871
321 168 777
322 764 912
323 242 665
324 330 661
325 270 682
326 131 744
327 235 557
328 154 673
329 410 622
330 34 593
331 789 712
332 601 803
333 557 731
334 46 784
335 109 480
336 333 755
337 175 561
338 606 451
339 188 796
340 453 855
341 600 675
342 313 597
343 802 569
344 455 570
345 676 642
346 617 795
347 519 690
348 579 361
349 614 547
350 270 627
351 695 617
352 136 446
353 650 520
354 154 412
355 185 776
356 365 805
357 308 730
358 640 776
359 643 616
360 582 522
361 678 545
362 565 565
363 411 449
364 774 557
365 467 625
366 240 552
367 513 635
368 476 556
369 92 562
370 699 606
371 723 565
372 676 382
373 104 337
374 181 846
375 332 761
376 123 806
377 886 668
378 130 804
379 429 696
380 337 809
381 145 717
382 161 642
383 76 787
384 302 650
385 458 725
386 233 529
387 574 742
388 659 593
389 777 565
390 170 895
391 149 566
392 279 673
393 269 700
394 427 710
395 428 661
396 674 700
397 18 398
398 665 706
399 522 638
400 228 762
401 231 527
402 146 811
403 161 286
404 662 668
405 748 588
406 171 610
407 321 708
408 614 614
409 502 561
410 266 647
411 130 680
412 687 567
413 523 688
414 102 614
415 730 598
416 303 683
417 484 712
418 101 747
419 31 623
420 80 401
421 642 718
422 780 648
423 149 448
424 212 489
425 119 675
426 777 609
427 527 562
428 649 760
429 94 663
430 85 721
431 437 708
432 46 689
DEMAND_SECTION
2 8
3 2
4 10
5 7
6 10
7 7
8 7
9 2
10 9
11 9
12 1
13 3
14 9
15 4
16 10
17 3
18 4
19 2
20 8
21 2
22 9
23 2
24 8
25 8
26 5
27 8
28 4
29 5
30 9
31 8
32 5
33 2
34 10
35 1
36 3
37 9
38 3
39 8
40 4
41 2
42 6
43 8
44 9
45 4
46 1
47 6
48 2
49 1
50 10
51 3
52 4
53 2
54 7
55 3
56 6
57 1
58 5
59 4
60 1
61 7
62 4
63 9
64 7
65 5
66 4
67 6
68 10
69 1
70 6
71 1
72 8
73 3
74 5
75 5
76 6
77 1
78 9
79 1
80 2
81 5
82 10
83 7
84 6
85 5
86 10
87 4
88 6
89 10
90 3
91 10
92 4
93 10
94 3
95 8
96 9
97 3
98 2
99 8
100 7
101 7
102 8
103 2
104 9
105 4
106 9
107 1
108 6
109 8
110 1
111 8
112 2
113 5
114 6
115 4
116 10
117 4
118 4
119 2
120 9
121 2
122 2
123 5
124 9
125 1
126 5
127 2
128 9
129 7
130 8
131 10
132 8
133 3
134 5
135 8
136 9
137 3
138 9
139 9
140 7
141 9
142 5
143 3
144 1
145 9
146 1
147 6
148 2
149 5
150 8
151 3
152 5
153 7
154 5
155 2
156 1
157 2
158 7
159 7
160 9
161 4
162 5
163 3
164 9
165 2
166 6
167 5
168 7
169 9
170 10
171 9
172 2
173 7
174 8
175 2
176 9
177 7
178 8
179 5
180 6
181 10
182 10
183 3
184 5
185 4
186 4
187 3
188 6
189 8
190 8
191 9
192 9
193 4
194 5
195 9
196 5
197 7
198 8
199 10
200 3
201 2
202 3
203 3
204 8
205 6
COVERAGE_SECTION
2 9 240 133 192 185 213 117 49 50 8 
3 9 149 277 364 343 219 389 301 116 319 
4 9 30 377 177 422 76 179 252 426 264 
5 9 380 135 356 183 132 375 292 336 265 
6 9 253 311 341 289 278 316 144 273 297 
7 7 396 162 398 404 421 275 345 
8 9 134 208 363 49 222 163 2 240 133 
9 9 84 34 125 31 105 154 170 372 129 
10 9 271 374 402 320 378 376 16 194 390 
11 9 406 204 255 382 307 337 391 168 198 
12 9 52 196 225 237 77 187 66 191 27 
13 9 371 412 80 142 285 361 415 370 405 
14 9 388 15 412 22 262 142 361 287 359 
15 7 388 287 293 14 291 359 285 
16 9 376 378 94 402 383 10 160 317 97 
17 9 148 150 101 203 104 55 61 239 136 
18 9 136 181 21 203 55 239 205 150 61 
19 9 179 252 76 41 108 206 298 377 140 
20 8 222 274 58 295 57 308 87 342 
21 9 181 68 18 136 220 205 44 55 203 
22 9 262 14 349 388 15 359 408 142 361 
23 9 38 241 93 193 96 228 118 137 140 
24 9 154 372 90 219 84 60 170 105 306 
25 9 211 156 121 100 197 124 226 173 234 
26 7 174 340 132 190 248 356 135 
27 9 187 103 220 191 44 68 225 31 34 
28 9 50 117 40 70 82 185 348 133 49 
29 9 71 65 108 206 41 298 96 118 140 
30 9 4 76 252 377 343 177 264 179 426 
31 9 34 44 205 9 125 220 85 103 27 
32 6 379 395 394 431 151 300 
33 9 231 247 209 126 64 171 190 242 127 
34 9 31 44 9 125 205 85 84 103 220 
35 8 357 305 393 407 416 325 392 141 
36 9 54 175 67 266 39 226 213 145 81 
37 9 362 102 427 313 360 288 299 153 349 
38 9 241 23 193 93 96 137 228 118 79 
39 9 266 81 99 164 89 354 163 403 36 
40 9 82 70 43 28 227 50 75 338 348 
41 9 108 377 179 206 29 65 298 4 71 
42 9 102 313 235 288 360 362 427 37 43 
43 9 75 70 82 40 235 42 313 102 227 
44 9 205 31 34 220 68 21 27 18 85 
45 9 243 114 252 76 19 30 3 179 147 
46 9 155 186 322 244 91 53 233 146 207 
47 9 310 424 401 386 230 366 327 337 122 
48 9 422 256 259 238 177 426 331 275 51 
49 9 363 133 185 70 240 28 208 8 75 
50 9 28 117 185 348 40 70 82 133 129 
51 9 415 246 80 405 285 370 351 143 259 
52 9 12 196 225 237 77 187 191 66 27 
53 8 358 46 346 155 428 332 186 78 
54 9 175 36 67 266 213 192 39 8 81 
55 9 150 136 203 181 18 17 148 21 104 
56 8 268 419 314 432 330 254 128 152 
57 9 87 274 215 386 366 401 236 327 63 
58 8 308 295 304 342 274 215 236 57 
59 7 329 312 151 161 300 395 365 
60 9 306 319 301 277 219 149 361 142 353 
61 9 239 203 85 72 150 69 169 17 18 
62 9 173 182 197 121 113 25 156 211 229 
63 9 87 163 57 424 401 386 274 47 215 
64 9 190 247 340 127 174 26 33 231 126 
65 9 71 29 331 41 177 377 108 206 4 
66 9 103 138 201 165 111 223 176 170 105 
67 9 175 54 36 213 226 192 2 240 100 
68 9 220 21 181 44 205 18 191 27 136 
69 9 169 72 85 129 61 117 239 192 185 
70 9 40 82 43 75 28 50 49 235 227 
71 9 65 29 331 41 108 96 177 206 377 
72 9 69 169 61 192 213 239 85 2 240 
73 9 79 137 180 91 233 193 146 322 241 
74 9 214 365 119 110 251 258 257 395 115 
75 9 43 70 235 82 40 42 267 368 49 
76 9 252 30 179 4 377 114 19 41 343 
77 9 12 52 196 176 225 111 165 66 237 
78 9 332 346 178 224 188 358 387 318 428 
79 9 137 180 73 193 241 38 23 233 91 
80 9 405 415 371 51 13 116 285 246 370 
81 9 39 266 99 164 163 89 354 63 230 
82 9 40 70 43 28 227 75 50 338 348 
83 8 303 391 337 106 276 369 310 221 
84 9 372 9 154 105 24 170 125 348 34 
85 9 169 239 61 69 125 205 72 129 203 
86 9 184 172 107 126 139 64 247 279 190 
87 9 57 274 63 215 386 401 366 327 236 
88 9 403 145 123 234 373 266 39 164 99 
89 8 354 423 99 164 352 230 245 81 
90 9 24 219 170 154 223 201 105 138 3 
91 9 233 322 146 155 46 244 73 167 186 
92 9 297 299 144 278 316 399 273 367 6 
93 9 23 38 241 193 228 118 96 140 137 
94 9 378 160 376 402 16 97 321 309 317 
95 9 158 390 250 271 320 199 212 294 10 
96 9 38 228 23 241 29 118 193 140 71 
97 9 317 326 160 418 309 280 249 94 281 
98 9 269 410 263 232 350 384 392 141 325 
99 9 164 354 89 39 81 166 423 352 266 
100 9 226 124 25 101 211 156 67 197 148 
101 9 148 17 124 104 150 100 226 203 61 
102 9 313 288 360 42 37 362 235 349 427 
103 9 27 66 31 187 138 34 220 44 105 
104 9 148 101 17 124 150 55 203 100 211 
105 9 170 154 138 84 9 24 201 90 223 
106 9 245 276 221 335 303 230 423 352 83 
107 9 86 279 135 5 132 380 184 139 112 
108 9 206 298 41 29 140 179 377 118 65 
109 9 334 290 383 195 418 16 315 128 317 
110 9 258 365 119 218 74 251 260 367 214 
111 9 165 176 147 223 201 66 243 77 138 
112 8 296 202 292 189 279 5 400 183 
113 9 229 123 373 88 403 131 145 234 272 
114 9 3 76 252 30 343 45 364 389 4 
115 9 257 417 210 302 385 431 214 347 74 
116 9 389 405 364 264 80 426 343 415 371 
117 9 185 50 28 133 240 2 129 348 49 
118 9 228 140 298 206 96 108 29 23 93 
119 9 251 110 258 367 74 365 399 270 214 
120 9 267 344 161 368 409 329 59 312 218 
121 9 156 211 25 173 182 197 62 124 100 
122 9 327 366 236 307 215 386 216 401 337 
123 9 88 403 145 234 373 113 229 266 166 
124 9 101 100 211 104 25 156 148 226 17 
125 9 129 9 34 31 85 169 84 205 69 
126 9 86 247 184 33 231 172 64 190 107 
127 9 340 190 64 224 26 188 174 247 78 
128 9 152 432 314 430 315 261 286 283 429 
129 9 169 125 348 117 69 50 28 185 85 
130 8 281 381 280 283 326 261 249 97 
131 5 272 420 373 166 397 
132 7 135 356 174 380 26 5 248 
133 9 185 240 2 117 49 192 50 28 213 
134 9 8 208 363 222 163 49 20 63 274 
135 9 380 132 5 356 174 107 375 26 183 
136 9 18 181 203 55 21 150 239 205 61 
137 9 180 79 73 193 241 38 23 93 233 
138 9 201 170 105 223 154 66 90 165 103 
139 9 172 184 86 107 250 279 199 390 296 
140 9 118 228 298 206 108 96 29 41 23 
141 8 416 384 269 392 324 98 325 232 
142 9 361 412 14 353 13 22 371 388 15 
143 9 351 246 291 370 345 287 238 285 293 
144 9 278 273 297 311 6 408 253 92 316 
145 9 88 403 123 234 266 373 39 113 229 
146 9 233 91 322 155 46 73 244 186 193 
147 9 111 165 176 243 223 201 66 138 77 
148 9 17 101 104 150 203 55 124 61 239 
149 9 277 301 364 319 389 3 116 219 371 
150 9 17 203 148 55 239 61 136 101 18 
151 8 312 59 395 329 300 32 214 74 
152 9 128 432 314 430 315 261 286 283 429 
153 9 427 260 409 299 218 362 37 258 368 
154 9 105 170 84 24 138 90 9 372 201 
155 9 46 322 186 91 233 244 146 53 207 
156 9 211 121 25 124 100 197 173 182 101 
157 9 159 338 227 353 360 288 313 102 349 
158 9 95 212 294 320 271 390 250 199 195 
159 9 157 338 227 353 360 288 349 60 313 
160 8 94 309 97 321 326 249 317 378 
161 7 329 59 312 120 151 344 300 
162 7 7 396 398 404 275 421 345 
163 9 63 81 424 87 57 134 230 89 39 
164 9 99 354 89 166 39 81 423 352 266 
165 9 111 176 147 223 201 66 243 138 77 
166 8 373 420 354 131 164 99 272 352 
167 9 244 207 186 91 217 322 200 155 46 
168 9 307 216 255 350 323 410 263 122 98 
169 9 69 85 72 129 61 125 239 117 185 
170 9 105 154 138 201 24 90 84 223 9 
171 9 242 209 200 217 224 33 231 127 207 
172 9 184 86 139 126 107 279 250 199 247 
173 9 182 62 121 156 197 211 25 234 113 
174 8 26 132 340 190 356 135 248 64 
175 9 54 36 67 213 192 266 2 8 240 
176 9 111 165 147 66 223 77 201 243 138 
177 9 422 4 331 48 377 256 65 426 30 
178 8 188 387 333 78 332 318 346 358 
179 9 377 41 252 76 19 108 4 30 206 
180 9 137 79 73 193 241 38 23 93 233 
181 9 21 136 18 55 68 203 150 205 239 
182 9 173 62 121 156 197 211 25 234 113 
183 9 375 265 336 292 357 380 5 189 202 
184 9 172 86 139 126 107 247 279 64 190 
185 9 133 117 240 2 50 28 49 192 213 
186 9 244 46 155 200 207 322 167 217 53 
187 9 191 27 225 220 196 103 237 68 12 
188 9 178 78 332 387 333 127 224 318 346 
189 5 202 292 112 400 296 
190 9 64 340 127 174 26 247 132 135 356 
191 9 187 27 220 68 225 196 103 237 44 
192 9 213 2 240 133 185 67 175 72 117 
193 9 241 38 23 137 93 96 79 73 180 
194 8 339 284 374 355 402 321 10 94 
195 9 294 212 109 334 290 383 320 16 158 
196 9 225 12 52 237 187 77 191 27 103 
197 9 234 25 211 121 156 145 123 173 100 
198 9 414 429 286 425 411 382 204 328 11 
199 9 390 250 374 271 10 320 296 194 279 
200 9 217 242 186 207 171 244 167 46 209 
201 9 223 138 170 66 165 105 90 154 111 
202 6 189 292 112 400 296 183 
203 9 150 239 61 17 136 55 18 148 181 
204 9 11 406 382 255 198 328 307 391 337 
205 9 44 31 34 18 85 136 21 220 125 
206 9 108 298 140 41 29 118 228 179 377 
207 9 244 167 217 186 200 46 155 242 322 
208 9 134 363 8 222 49 20 267 163 63 
209 9 171 242 231 33 247 224 200 217 127 
210 9 302 270 257 347 413 251 115 119 417 
211 9 25 156 121 124 100 197 173 226 101 
212 9 294 195 158 320 95 271 109 334 16 
213 9 192 2 240 67 175 133 72 54 185 
214 9 74 365 395 119 110 251 257 115 151 
215 9 236 366 327 57 386 87 308 401 274 
216 9 236 350 168 307 232 122 215 308 304 
217 9 200 207 242 244 171 186 167 209 46 
218 9 260 258 110 365 119 367 153 399 409 
219 9 277 301 319 306 149 60 3 24 364 
220 9 68 44 27 21 191 205 187 31 34 
221 4 276 335 106 303 
222 9 20 208 274 87 134 57 63 363 58 
223 9 201 138 165 243 90 170 111 147 66 
224 9 78 127 171 188 332 209 178 242 346 
225 9 196 12 52 237 187 191 77 27 103 
226 9 100 67 36 124 54 101 175 25 213 
227 9 338 157 159 82 40 288 360 313 43 
228 9 118 140 298 96 206 23 93 108 38 
229 9 113 373 123 131 88 403 145 272 166 
230 9 245 424 423 106 310 89 47 352 354 
231 9 33 247 209 126 64 171 190 242 127 
232 9 98 350 384 282 269 410 263 141 304 
233 9 91 146 322 155 46 73 244 167 186 
234 9 145 88 123 403 197 36 266 113 229 
235 9 42 102 427 313 43 409 75 288 360 
236 9 215 327 366 216 122 308 58 386 57 
237 9 196 52 225 12 187 77 191 27 103 
238 9 259 143 246 256 48 51 275 351 345 
239 9 61 203 85 150 18 136 72 169 69 
240 9 2 133 185 192 117 213 49 50 28 
241 9 38 23 193 93 96 137 79 180 228 
242 9 171 209 200 217 224 207 186 231 33 
243 9 45 223 147 165 201 111 90 114 176 
244 9 207 167 186 322 46 155 91 200 217 
245 8 423 106 230 352 276 335 89 221 
246 9 370 51 351 285 143 291 415 287 238 
247 9 64 33 231 190 126 127 209 340 171 
248 2 356 26 
249 5 309 326 381 160 97 
250 9 199 390 374 271 95 10 320 279 296 
251 9 119 270 367 302 210 399 110 74 257 
252 9 76 179 30 377 4 114 19 41 45 
253 8 311 6 289 341 278 144 273 316 
254 6 330 419 268 369 56 414 
255 9 11 406 204 307 382 168 122 328 337 
256 9 259 422 48 426 51 238 264 415 405 
257 9 115 210 302 417 251 347 270 214 74 
258 9 110 218 119 260 365 367 251 74 399 
259 9 238 256 48 51 246 143 422 415 351 
260 9 218 258 153 110 367 409 119 365 399 
261 9 283 281 280 430 315 130 425 411 418 
262 8 22 14 388 349 15 359 408 273 
263 9 410 98 269 392 350 323 325 232 384 
264 9 426 116 389 343 405 364 256 80 415 
265 6 336 375 183 357 407 35 
266 9 39 81 99 164 36 403 88 54 145 
267 9 120 344 368 75 363 161 409 235 222 
268 7 56 419 330 254 314 432 128 
269 9 98 263 392 384 410 232 141 325 350 
270 9 302 210 251 399 367 413 347 119 257 
271 9 320 10 390 374 199 402 16 376 378 
272 5 131 420 397 166 373 
273 7 408 144 278 311 359 253 6 
274 9 57 87 58 20 215 308 295 222 236 
275 9 162 238 7 396 259 48 331 398 256 
276 5 221 335 106 303 245 
277 9 149 301 319 219 306 60 364 3 389 
278 9 144 6 311 253 316 341 273 297 289 
279 9 296 112 202 292 107 189 5 374 199 
280 9 281 283 130 261 326 418 315 97 381 
281 9 280 130 283 261 326 381 418 315 97 
282 6 232 384 304 342 98 269 
283 9 261 281 280 130 315 430 381 418 326 
284 7 339 355 321 194 402 309 160 
285 9 370 287 291 351 246 143 415 51 15 
286 9 429 425 198 314 411 152 261 283 414 
287 8 291 351 370 285 293 15 246 143 
288 9 313 360 102 42 37 362 349 235 427 
289 6 253 311 6 341 278 144 
290 9 109 334 383 128 195 432 152 315 430 
291 8 287 351 370 285 293 143 246 15 
292 7 202 189 112 183 296 400 5 
293 4 291 345 287 15 
294 9 212 195 158 320 109 271 334 16 383 
295 6 58 308 304 342 274 282 
296 9 112 279 202 189 292 374 194 339 400 
297 9 92 299 144 278 316 399 273 6 408 
298 9 206 140 108 118 228 29 41 96 179 
299 9 92 297 153 399 367 362 37 260 427 
300 3 329 151 59 
301 9 319 306 277 60 149 219 371 364 13 
302 9 210 270 347 413 257 251 115 119 399 
303 6 83 276 221 106 391 369 
304 6 342 295 308 58 282 232 
305 5 393 35 325 392 357 
306 9 60 319 301 277 219 149 361 142 353 
307 9 168 255 122 216 11 406 350 204 323 
308 8 58 295 304 342 215 236 274 216 
309 6 249 160 321 326 97 355 
310 9 47 424 230 337 401 106 386 83 245 
311 8 253 6 289 341 278 144 273 316 
312 9 59 151 329 395 300 161 214 365 74 
313 9 288 102 360 42 37 362 235 349 427 
314 9 432 152 128 286 429 56 268 419 430 
315 9 430 418 261 283 280 281 152 128 317 
316 9 278 6 341 144 253 297 311 92 289 
317 9 97 418 326 160 280 94 281 315 309 
318 8 387 333 421 178 341 346 358 428 
319 9 301 306 277 60 149 219 371 13 361 
320 9 271 10 390 16 376 402 374 378 199 
321 7 284 355 309 160 339 249 94 
322 9 91 233 155 46 146 244 186 167 207 
323 8 263 410 325 392 98 269 393 168 
324 2 141 384 
325 9 392 393 263 269 305 323 416 410 35 
326 9 97 280 130 281 249 317 309 160 381 
327 9 366 122 236 215 386 401 216 57 47 
328 5 411 382 425 381 198 
329 6 59 312 151 161 300 395 
330 6 254 419 268 56 369 414 
331 9 177 48 275 65 422 71 256 259 238 
332 8 346 78 358 178 428 318 387 188 
333 8 387 318 178 413 347 316 341 188 
334 9 109 383 290 418 315 317 16 430 376 
335 4 221 276 106 352 
336 6 265 375 183 357 407 380 
337 9 391 83 310 122 406 11 47 303 204 
338 9 227 157 159 82 40 288 360 313 353 
339 6 284 194 355 321 402 309 
340 9 190 26 127 174 64 132 188 247 248 
341 8 6 253 311 289 278 316 144 273 
342 6 304 295 308 58 282 232 
343 9 389 364 264 116 426 3 405 149 80 
344 9 368 120 409 161 218 260 267 365 258 
345 2 293 143 
346 8 332 358 78 428 318 178 387 53 
347 9 413 302 210 270 257 417 251 115 399 
348 9 50 28 129 40 82 117 338 227 70 
349 9 22 262 360 353 288 37 313 102 362 
350 9 232 410 98 263 216 269 384 282 168 
351 8 291 287 370 143 285 246 293 345 
352 8 423 245 354 335 89 106 230 276 
353 9 142 361 349 159 22 14 262 412 157 
354 8 89 164 99 423 352 166 245 230 
355 6 284 321 339 309 194 249 
356 8 132 135 380 5 248 375 174 336 
357 8 35 407 265 336 375 183 305 416 
358 8 428 346 332 421 318 53 387 398 
359 2 15 293 
360 9 288 313 102 42 349 37 362 235 353 
361 9 142 412 14 13 353 371 22 388 15 
362 9 37 427 102 153 288 299 313 360 42 
363 9 208 49 134 8 267 222 75 120 70 
364 9 389 116 343 149 264 405 80 277 371 
365 9 110 258 74 119 214 218 251 260 312 
366 9 327 215 386 236 122 401 57 87 216 
367 9 399 119 251 270 258 110 260 218 302 
368 9 344 409 120 218 427 153 260 267 235 
369 4 303 83 414 254 
370 9 285 287 351 291 246 143 51 415 293 
371 9 13 80 405 415 412 116 285 51 370 
372 9 84 24 157 338 348 159 154 60 227 
373 9 166 131 420 272 123 403 88 229 164 
374 9 194 10 402 339 390 199 271 284 296 
375 6 336 265 183 357 380 407 
376 9 378 16 94 402 160 10 317 97 383 
377 9 41 4 179 30 177 76 65 108 252 
378 9 376 94 402 16 160 10 97 317 321 
379 7 394 431 32 395 385 115 214 
380 9 5 135 356 132 375 183 336 265 292 
381 6 130 281 249 326 280 283 
382 7 204 11 328 255 406 198 411 
383 9 334 16 317 418 376 109 97 378 94 
384 8 269 141 232 98 282 324 392 416 
385 7 431 417 394 115 379 257 32 
386 9 401 366 327 47 215 87 57 122 424 
387 8 318 333 178 332 346 341 421 188 
388 7 15 14 359 293 262 287 22 
389 9 364 116 343 264 405 149 426 80 371 
390 9 199 250 271 374 10 320 95 194 402 
391 9 337 83 303 406 11 204 369 310 414 
392 9 325 269 263 141 416 98 393 410 384 
393 7 305 325 35 392 416 323 269 
394 6 431 379 32 385 395 115 
395 9 151 32 312 214 379 59 74 329 300 
396 7 7 398 162 404 421 275 345 
397 3 272 131 420 
398 7 396 7 162 421 404 428 289 
399 9 367 270 251 119 258 299 302 92 110 
400 2 189 202 
401 9 386 366 47 327 215 87 424 57 122 
402 9 378 376 94 16 10 160 194 284 321 
403 9 88 145 123 234 373 266 39 164 99 
404 3 345 162 396 
405 9 80 116 415 51 371 264 426 389 364 
406 9 11 204 255 382 307 337 391 168 198 
407 6 357 35 416 141 265 324 
408 5 273 359 144 262 278 
409 9 427 368 153 260 218 344 235 258 362 
410 9 263 98 269 350 232 392 323 325 384 
411 8 425 328 261 283 130 381 429 286 
412 9 13 142 361 14 371 285 388 15 287 
413 9 347 302 210 270 257 251 417 115 399 
414 9 198 429 286 369 204 254 425 382 391 
415 9 51 80 405 246 285 370 371 13 116 
416 9 141 392 35 407 269 325 384 324 393 
417 9 115 385 257 210 347 302 413 431 379 
418 9 317 315 280 97 326 430 281 283 261 
419 7 268 56 330 254 314 432 414 
420 4 272 131 166 397 
421 8 398 396 7 428 162 404 289 318 
422 9 48 256 426 259 177 264 238 51 331 
423 8 352 245 89 354 230 106 335 276 
424 9 47 230 310 401 386 63 245 87 106 
425 8 411 429 286 328 198 261 283 130 
426 9 264 256 116 405 422 389 51 343 415 
427 9 153 409 362 37 235 260 42 299 368 
428 8 358 421 346 398 7 318 332 396 
429 9 286 425 198 314 411 152 261 414 283 
430 9 315 261 283 152 418 128 280 281 130 
431 8 394 379 385 32 115 417 395 257 
432 9 128 314 152 430 56 286 429 315 268 
DEPOT_SECTION
   1
   -1
EOF
