NAME :  X-n524-kX-w209-c9.cctp
COMMENT : 	Adapted by Maziero, Usberti and Cavellucci from the Uchoa, Pecin, Pessoa, Poggi, Subramanian, and Vidal (2013)
TYPE :  CCTP
DIMENSION :    516
EDGE_WEIGHT_TYPE : 	EUC_2D	
CAPACITY : 	125
VERTICES_WITHIN_COVERAGE :  9
VERTICES_WITH_DEMAND : 	209
NODE_COORD_SECTION
1 691 729
2 978 828
3 427 367
4 777 543
5 190 596
6 773 750
7 234 727
8 851 358
9 140 69
10 891 285
11 467 13
12 537 162
13 636 355
14 213 284
15 75 877
16 384 814
17 606 173
18 76 236
19 86 733
20 642 61
21 303 261
22 771 775
23 107 264
24 763 43
25 811 873
26 38 170
27 822 920
28 907 792
29 539 273
30 576 836
31 491 411
32 430 725
33 727 248
34 532 825
35 457 218
36 398 153
37 942 597
38 8 330
39 637 85
40 75 781
41 578 635
42 560 188
43 27 523
44 432 198
45 359 691
46 695 372
47 203 307
48 641 389
49 836 612
50 375 499
51 818 980
52 577 226
53 889 259
54 516 324
55 102 346
56 318 976
57 223 11
58 484 245
59 365 982
60 648 790
61 878 261
62 600 800
63 493 722
64 549 214
65 714 918
66 638 166
67 452 172
68 711 687
69 924 905
70 326 662
71 786 203
72 24 32
73 529 661
74 843 248
75 115 449
76 82 971
77 876 644
78 322 24
79 642 810
80 685 607
81 141 824
82 351 732
83 641 954
84 330 941
85 830 188
86 469 250
87 970 812
88 723 360
89 274 238
90 668 103
91 562 82
92 269 147
93 135 493
94 895 953
95 930 729
96 579 972
97 901 987
98 546 102
99 664 479
100 967 393
101 388 767
102 977 995
103 933 329
104 947 364
105 242 400
106 991 716
107 983 38
108 738 728
109 436 466
110 346 490
111 639 634
112 765 715
113 772 60
114 254 183
115 804 906
116 150 451
117 378 297
118 881 802
119 959 912
120 225 450
121 213 802
122 842 994
123 662 474
124 20 116
125 562 217
126 709 544
127 50 682
128 771 244
129 538 704
130 506 883
131 341 389
132 414 522
133 583 435
134 210 579
135 326 715
136 92 24
137 969 100
138 252 841
139 879 544
140 648 720
141 291 405
142 14 19
143 446 28
144 130 966
145 978 572
146 333 105
147 558 84
148 288 10
149 783 837
150 1000 230
151 319 895
152 76 494
153 289 952
154 254 165
155 915 405
156 151 945
157 407 685
158 294 824
159 106 831
160 373 284
161 875 321
162 768 758
163 735 150
164 304 323
165 760 158
166 277 663
167 217 608
168 712 264
169 958 12
170 879 873
171 52 214
172 63 197
173 690 714
174 579 862
175 313 245
176 32 608
177 9 608
178 840 747
179 152 742
180 994 868
181 294 57
182 76 784
183 302 11
184 527 742
185 753 939
186 156 870
187 571 127
188 913 884
189 922 146
190 900 41
191 346 427
192 637 341
193 162 87
194 581 979
195 93 14
196 888 48
197 168 188
198 427 499
199 856 260
200 54 332
201 459 387
202 118 61
203 754 299
204 233 411
205 883 640
206 288 268
207 489 533
208 720 892
209 115 418
210 22 358
211 839 126
212 516 272
213 162 208
214 361 714
215 157 512
216 855 12
217 798 356
218 882 889
219 554 183
220 354 851
221 21 719
222 812 664
223 650 254
224 196 793
225 668 231
226 412 946
227 57 773
228 911 335
229 490 922
230 371 480
231 723 473
232 223 658
233 234 50
234 408 609
235 118 434
236 393 488
237 225 141
238 444 66
239 547 252
240 132 189
241 865 488
242 106 475
243 636 540
244 104 269
245 135 647
246 222 849
247 844 424
248 428 875
249 94 941
250 325 93
251 957 47
252 172 293
253 381 958
254 148 504
255 588 69
256 863 453
257 709 51
258 129 266
259 679 164
260 977 422
261 372 843
262 912 957
263 1000 521
264 442 912
265 743 716
266 838 43
267 649 346
268 144 771
269 771 321
270 454 383
271 553 361
272 419 490
273 482 77
274 13 726
275 967 302
276 556 701
277 484 665
278 969 209
279 972 422
280 297 676
281 461 532
282 476 864
283 978 988
284 340 827
285 675 391
286 895 110
287 225 785
288 832 207
289 465 723
290 289 259
291 281 611
292 875 10
293 752 271
294 926 12
295 539 782
296 25 72
297 530 546
298 772 963
299 724 627
300 791 367
301 375 323
302 0 91
303 385 995
304 132 510
305 941 144
306 488 274
307 403 745
308 965 258
309 456 817
310 313 773
311 486 256
312 657 8
313 231 914
314 256 745
315 668 922
316 528 298
317 153 272
318 303 733
319 814 649
320 352 306
321 187 498
322 141 175
323 115 362
324 857 350
325 878 459
326 663 898
327 592 503
328 222 391
329 846 792
330 461 617
331 290 396
332 333 441
333 292 402
334 522 501
335 489 939
336 781 370
337 197 119
338 582 192
339 299 353
340 506 792
341 638 178
342 755 124
343 654 335
344 917 986
345 277 98
346 986 960
347 66 850
348 623 623
349 602 913
350 674 0
351 125 625
352 937 264
353 430 671
354 171 691
355 1 656
356 374 862
357 407 938
358 284 116
359 939 702
360 155 256
361 504 293
362 770 501
363 764 790
364 702 683
365 525 835
366 839 711
367 379 711
368 140 264
369 597 673
370 657 752
371 265 523
372 798 514
373 679 437
374 843 272
375 981 47
376 708 837
377 55 768
378 965 58
379 664 373
380 103 28
381 841 826
382 47 539
383 530 354
384 924 776
385 477 784
386 69 282
387 371 110
388 309 154
389 234 333
390 460 499
391 61 527
392 104 132
393 711 178
394 47 755
395 357 66
396 332 541
397 332 390
398 860 711
399 817 206
400 853 658
401 440 187
402 603 576
403 438 190
404 857 282
405 169 702
406 461 299
407 878 549
408 252 181
409 714 846
410 196 92
411 995 201
412 780 638
413 724 171
414 650 937
415 353 961
416 505 953
417 801 374
418 239 74
419 718 26
420 325 941
421 0 789
422 461 518
423 559 493
424 461 432
425 330 888
426 391 542
427 548 841
428 965 772
429 252 790
430 181 188
431 61 446
432 215 324
433 181 749
434 562 764
435 678 70
436 422 965
437 985 664
438 344 341
439 678 370
440 118 587
441 483 572
442 913 258
443 548 391
444 669 600
445 951 149
446 735 621
447 474 67
448 615 218
449 854 798
450 850 728
451 928 10
452 154 235
453 390 924
454 768 589
455 4 303
456 204 802
457 43 400
458 525 257
459 673 778
460 850 158
461 593 392
462 123 233
463 935 921
464 130 687
465 394 334
466 765 405
467 625 734
468 540 408
469 881 423
470 358 553
471 903 236
472 524 486
473 64 121
474 11 847
475 758 962
476 981 723
477 36 659
478 539 348
479 506 458
480 762 62
481 465 529
482 956 508
483 294 792
484 173 89
485 96 995
486 982 670
487 593 42
488 473 529
489 256 579
490 538 566
491 706 808
492 373 748
493 252 819
494 260 698
495 538 250
496 348 539
497 952 444
498 716 841
499 84 185
500 320 795
501 168 346
502 857 379
503 84 839
504 901 930
505 637 820
506 297 973
507 61 140
508 804 298
509 795 51
510 979 294
511 492 157
512 324 520
513 285 618
514 672 535
515 306 601
516 832 980
DEMAND_SECTION
2 95
3 66
4 66
5 50
6 55
7 91
8 100
9 73
10 96
11 85
12 82
13 72
14 77
15 62
16 86
17 100
18 63
19 94
20 97
21 78
22 94
23 83
24 90
25 71
26 59
27 88
28 50
29 65
30 75
31 50
32 56
33 90
34 56
35 71
36 95
37 93
38 97
39 79
40 94
41 69
42 90
43 63
44 93
45 82
46 53
47 92
48 70
49 88
50 57
51 93
52 69
53 66
54 98
55 75
56 69
57 87
58 69
59 55
60 64
61 92
62 96
63 80
64 85
65 66
66 99
67 54
68 77
69 67
70 77
71 66
72 74
73 93
74 81
75 60
76 73
77 64
78 84
79 60
80 57
81 95
82 63
83 51
84 77
85 67
86 70
87 98
88 66
89 60
90 56
91 72
92 77
93 71
94 51
95 79
96 97
97 93
98 84
99 79
100 75
101 86
102 58
103 65
104 54
105 57
106 81
107 88
108 85
109 82
110 82
111 81
112 59
113 81
114 94
115 82
116 81
117 94
118 75
119 63
120 95
121 54
122 85
123 52
124 53
125 67
126 56
127 61
128 53
129 80
130 76
131 56
132 52
133 61
134 53
135 87
136 95
137 73
138 52
139 60
140 91
141 98
142 58
143 65
144 88
145 60
146 62
147 97
148 96
149 59
150 76
151 83
152 64
153 83
154 65
155 57
156 55
157 93
158 71
159 89
160 69
161 93
162 86
163 99
164 70
165 56
166 75
167 95
168 60
169 54
170 57
171 89
172 53
173 73
174 78
175 76
176 55
177 96
178 80
179 58
180 83
181 75
182 84
183 69
184 90
185 57
186 61
187 100
188 95
189 59
190 60
191 74
192 55
193 92
194 76
195 70
196 92
197 85
198 85
199 51
200 61
201 63
202 59
203 86
204 86
205 71
206 50
207 6
208 6
209 10
210 2
COVERAGE_SECTION
2 9 87 180 428 384 28 119 188 69 118 
3 9 270 201 465 301 424 406 31 117 438 
4 8 372 362 454 126 231 446 49 412 
5 9 134 167 489 232 351 440 245 215 291 
6 9 162 22 112 108 363 265 178 366 450 
7 9 314 494 433 287 429 318 232 405 354 
8 9 324 502 161 417 217 300 228 247 336 
9 9 202 193 484 380 410 136 195 392 337 
10 9 53 61 404 442 161 199 374 471 352 
11 9 143 447 238 273 147 91 98 395 487 
12 9 219 42 511 187 64 338 125 98 17 
13 9 192 267 343 379 48 439 285 461 46 
14 9 47 432 252 389 317 360 89 368 206 
15 9 347 503 159 249 474 186 81 182 76 
16 9 261 284 101 220 356 492 500 307 309 
17 9 338 341 66 448 42 219 187 52 125 
18 9 171 172 23 244 386 462 499 258 368 
19 9 394 377 40 227 182 127 464 221 179 
20 9 39 435 90 487 255 312 257 350 91 
21 9 290 206 175 89 164 320 160 117 438 
22 9 162 363 6 108 112 149 265 491 178 
23 9 244 258 368 462 18 386 317 360 452 
24 9 113 480 509 419 257 266 342 435 216 
25 9 115 149 27 381 170 218 449 185 329 
26 9 172 507 171 499 473 124 18 392 302 
27 9 115 25 51 516 298 218 185 170 122 
28 9 384 118 449 329 428 87 95 381 2 
29 9 458 239 212 495 316 361 306 54 311 
30 9 174 427 62 34 365 505 295 79 434 
31 9 424 201 270 468 479 443 383 3 109 
32 9 307 289 157 367 353 101 492 63 214 
33 9 168 293 128 203 225 393 71 223 413 
34 9 365 427 340 295 30 174 130 282 434 
35 9 44 86 403 401 58 67 311 306 511 
36 9 387 401 403 44 67 146 35 388 250 
37 9 145 205 407 437 77 139 486 482 263 
38 9 455 210 200 386 457 55 323 244 18 
39 9 20 90 435 255 487 91 187 147 257 
40 9 182 227 377 394 19 159 503 268 347 
41 9 369 348 73 111 402 276 129 490 444 
42 9 219 338 64 125 12 52 17 187 448 
43 9 382 391 152 431 176 177 242 304 440 
44 9 403 401 35 67 36 86 58 511 311 
45 9 214 367 135 82 70 157 492 280 307 
46 9 439 285 88 379 267 343 48 13 192 
47 9 432 14 252 389 501 317 360 368 258 
48 9 379 13 285 439 267 192 461 343 46 
49 9 319 400 77 205 222 412 454 407 139 
50 9 230 236 110 132 272 426 496 198 512 
51 9 516 122 298 27 475 115 185 94 97 
52 9 125 64 338 448 239 42 495 219 17 
53 9 61 442 10 471 199 404 74 352 374 
54 9 316 361 383 478 212 271 29 306 406 
55 9 323 200 501 386 209 244 457 210 23 
56 9 506 420 84 153 415 59 253 303 151 
57 9 233 148 418 183 181 410 484 193 78 
58 9 311 86 306 35 212 458 361 495 406 
59 9 303 415 253 56 84 420 226 436 357 
60 9 79 459 505 370 62 467 491 140 376 
61 9 53 199 10 404 442 471 74 374 352 
62 9 505 30 79 60 434 295 174 427 467 
63 9 289 184 129 277 32 385 276 73 340 
64 9 125 42 52 219 239 495 338 458 12 
65 9 208 185 315 326 475 414 409 298 498 
66 9 341 17 259 448 338 90 225 393 187 
67 9 401 403 44 511 35 36 58 86 12 
68 9 364 173 265 108 112 299 446 140 80 
69 9 463 188 504 119 218 262 170 94 180 
70 9 280 45 166 135 513 214 515 291 367 
71 9 399 128 85 288 165 413 74 33 163 
72 9 142 296 302 136 195 380 124 202 473 
73 9 129 277 276 41 369 63 184 330 289 
74 9 199 374 61 404 288 53 399 10 85 
75 9 235 242 209 116 93 431 152 304 254 
76 9 485 249 144 156 15 347 186 503 159 
77 9 205 400 49 319 222 398 366 37 359 
78 9 183 148 181 395 250 146 345 233 418 
79 9 505 60 62 459 370 491 30 376 467 
80 9 444 299 446 111 348 126 514 364 243 
81 9 159 186 268 503 224 456 121 182 40 
82 9 214 492 135 367 45 318 101 307 310 
83 9 414 315 349 326 96 194 65 208 174 
84 9 420 415 56 153 506 151 425 59 253 
85 9 288 399 460 71 74 211 165 199 128 
86 9 58 311 306 35 406 212 361 458 44 
87 9 2 428 384 180 28 118 476 95 188 
88 9 46 439 285 336 379 269 466 203 300 
89 9 290 206 21 175 114 408 14 154 164 
90 9 435 39 20 259 257 66 341 163 393 
91 9 147 98 255 187 487 39 273 20 12 
92 9 154 358 408 114 388 237 345 146 337 
93 9 254 304 215 242 116 75 321 152 235 
94 9 262 504 97 344 463 69 218 122 516 
95 9 359 384 476 428 106 28 398 486 450 
96 9 194 349 83 416 414 335 229 315 174 
97 9 344 262 94 504 122 516 463 102 283 
98 9 147 91 187 255 12 273 487 511 447 
99 7 123 373 514 231 243 327 126 
100 9 279 260 104 155 497 103 228 275 469 
101 9 492 307 16 82 367 32 214 500 310 
102 9 283 346 344 262 97 119 463 94 504 
103 9 228 104 275 510 161 10 352 100 442 
104 9 100 103 228 155 279 260 275 510 497 
105 9 204 328 331 141 333 120 389 339 432 
106 9 476 486 437 359 95 428 384 87 2 
107 9 375 378 251 169 451 294 137 190 196 
108 9 265 112 6 162 68 173 22 364 363 
109 9 272 198 390 424 236 422 132 230 50 
110 9 230 50 512 236 496 332 396 191 470 
111 9 348 444 80 369 41 402 364 299 140 
112 9 265 108 6 162 22 68 222 364 366 
113 9 480 24 509 257 419 342 266 211 435 
114 9 408 154 92 237 89 388 358 430 290 
115 9 27 25 185 298 149 475 51 516 218 
116 9 75 235 93 209 242 254 321 215 304 
117 9 160 301 320 465 438 164 21 175 406 
118 9 449 28 329 381 384 178 170 450 218 
119 9 463 69 188 346 180 504 262 94 283 
120 9 204 105 328 321 116 141 333 371 331 
121 9 456 224 287 429 493 246 138 433 314 
122 9 516 51 97 94 344 27 298 262 504 
123 8 99 373 231 514 243 327 126 285 
124 9 302 296 473 507 26 72 392 172 499 
125 9 64 52 42 338 219 239 495 448 458 
126 9 514 80 4 444 231 243 454 362 99 
127 9 477 221 355 274 19 394 176 464 177 
128 9 293 33 71 203 399 168 508 288 74 
129 9 276 184 73 63 434 277 369 289 295 
130 9 282 229 365 335 427 34 264 416 174 
131 9 397 191 438 331 333 141 332 339 301 
132 9 198 426 272 236 50 422 281 390 481 
133 9 461 468 443 423 327 48 472 271 479 
134 9 5 167 489 291 371 232 321 215 513 
135 9 318 82 214 45 280 70 367 492 310 
136 9 195 380 202 9 72 142 296 193 473 
137 9 378 305 445 251 375 107 189 286 169 
138 9 493 246 158 429 121 287 456 483 224 
139 9 407 241 49 37 325 482 372 256 205 
140 9 467 370 173 459 364 369 60 68 111 
141 9 333 331 397 105 131 339 332 204 191 
142 9 72 296 302 136 195 380 124 202 473 
143 9 11 238 447 273 395 387 78 98 147 
144 9 156 249 485 76 186 15 313 347 503 
145 9 37 263 482 437 486 139 407 205 77 
146 9 250 387 395 358 388 345 181 92 36 
147 9 91 98 255 187 487 273 39 12 447 
148 9 183 78 181 57 233 418 345 395 250 
149 9 25 363 381 22 498 409 115 376 329 
150 9 411 278 308 510 352 275 442 445 471 
151 9 425 420 84 220 153 356 284 261 415 
152 9 242 391 431 382 43 304 93 75 235 
153 9 506 56 420 84 151 415 313 425 59 
154 9 408 114 92 237 388 358 345 337 89 
155 9 469 104 100 497 279 260 502 325 228 
156 9 144 249 76 485 186 313 15 246 81 
157 9 353 367 32 45 214 307 289 492 82 
158 9 483 500 493 138 284 310 429 220 425 
159 9 503 81 347 15 182 40 186 268 227 
160 9 117 320 301 465 438 175 21 164 206 
161 9 324 10 228 404 8 103 374 61 502 
162 9 6 22 363 108 112 265 178 149 491 
163 9 413 165 342 393 259 71 90 480 113 
164 9 339 438 320 206 21 290 301 389 397 
165 9 163 342 413 71 393 399 85 259 211 
166 9 280 494 513 70 291 232 515 135 318 
167 9 5 134 489 232 291 513 166 515 245 
168 9 33 293 203 225 128 223 269 393 343 
169 9 451 294 251 107 375 378 190 196 292 
170 9 218 188 69 381 504 25 118 27 463 
171 9 172 18 499 26 386 462 23 507 244 
172 9 171 499 26 18 507 240 462 473 392 
173 9 364 68 140 108 370 265 459 467 112 
174 9 30 427 349 34 365 62 505 130 79 
175 9 21 290 206 89 160 320 164 117 114 
176 9 177 477 355 382 127 43 391 440 351 
177 9 176 355 477 382 127 43 391 440 221 
178 9 450 366 398 329 449 6 118 162 22 
179 9 268 433 405 354 464 19 224 456 7 
180 9 2 119 87 69 463 188 346 428 504 
181 9 78 345 148 183 250 418 233 358 146 
182 9 40 227 377 394 19 159 503 347 268 
183 9 148 78 181 233 395 57 250 418 345 
184 9 63 129 434 295 276 340 289 385 73 
185 9 475 298 65 208 115 27 51 315 25 
186 9 81 159 246 156 503 15 456 224 313 
187 9 98 147 91 12 17 219 255 42 338 
188 9 69 218 170 463 504 119 94 262 180 
189 9 305 445 286 137 460 278 211 411 471 
190 9 196 294 292 451 216 251 266 169 378 
191 9 332 131 397 141 230 333 110 331 236 
192 9 267 13 343 379 48 439 285 46 461 
193 9 484 9 410 337 202 392 418 233 237 
194 9 96 83 349 416 414 335 315 229 326 
195 9 136 380 202 72 9 142 296 193 484 
196 9 190 292 216 266 294 451 286 251 378 
197 9 430 213 322 240 452 462 360 237 337 
198 9 272 132 390 109 236 422 281 481 50 
199 9 74 374 61 404 53 10 471 442 288 
200 9 210 38 55 386 455 323 457 244 23 
201 9 270 3 31 424 383 109 465 468 54 
202 9 9 380 136 193 195 484 392 473 410 
203 9 269 293 508 168 33 128 88 217 336 
204 9 105 328 120 141 331 333 389 339 432 
205 9 77 400 49 319 37 222 398 359 366 
206 9 290 21 89 175 164 320 14 389 160 
207 9 488 481 281 422 441 297 390 334 472 
208 9 65 409 498 376 185 326 315 475 414 
209 9 235 75 116 323 242 431 55 457 93 
210 9 38 200 457 455 55 386 323 431 209 
211 9 460 286 85 288 266 399 342 165 189 
212 9 458 29 361 306 316 495 311 239 58 
213 9 197 430 452 240 322 462 360 368 317 
214 9 367 82 45 135 492 307 157 101 318 
215 9 254 304 93 321 116 242 75 152 134 
216 9 292 266 196 190 294 509 451 113 24 
217 9 300 417 336 269 8 508 324 466 502 
218 9 170 188 69 504 463 94 27 25 262 
219 9 42 12 338 64 125 52 17 187 511 
220 9 261 356 284 425 16 151 158 500 248 
221 9 274 394 127 377 477 227 19 355 421 
222 9 319 400 412 366 49 77 398 112 450 
223 9 225 448 168 33 341 52 343 192 66 
224 9 456 121 287 433 268 429 246 493 81 
225 9 223 168 448 33 341 259 393 66 413 
226 8 357 436 453 253 264 303 59 415 
227 9 377 40 394 182 19 421 274 221 503 
228 9 103 161 104 10 324 8 275 155 502 
229 8 335 416 130 264 282 248 436 226 
230 9 50 236 110 272 332 191 198 132 512 
231 7 362 373 99 123 126 466 514 
232 9 167 166 494 354 5 7 405 513 291 
233 9 418 57 410 181 345 148 484 183 337 
234 8 330 353 426 470 157 441 132 496 
235 9 75 209 116 242 431 93 323 152 254 
236 9 50 230 272 198 132 110 109 426 390 
237 9 337 154 92 408 114 410 358 430 345 
238 9 447 143 273 11 387 395 36 511 67 
239 9 495 29 458 212 64 125 52 316 361 
240 9 322 197 213 462 499 430 452 392 172 
241 8 325 256 139 407 247 469 372 482 
242 9 75 93 152 235 304 116 254 431 209 
243 6 514 402 327 99 444 123 
244 9 23 258 368 386 462 18 317 360 452 
245 9 351 464 354 440 405 5 232 167 127 
246 9 138 493 121 456 224 287 313 429 186 
247 7 256 469 502 325 8 417 241 
248 9 264 282 356 453 261 309 357 226 16 
249 9 76 144 485 156 15 186 347 503 159 
250 9 146 395 358 181 345 387 388 78 92 
251 9 378 375 107 169 294 451 137 190 196 
252 9 317 47 360 14 368 258 432 501 452 
253 9 415 59 226 357 453 303 436 84 420 
254 9 215 93 304 321 242 116 75 152 235 
255 9 487 91 147 39 98 20 187 90 435 
256 7 325 241 247 469 155 502 372 
257 9 419 435 480 24 350 113 90 312 20 
258 9 368 23 244 317 360 462 452 252 18 
259 9 393 66 341 413 163 90 225 17 165 
260 9 279 100 497 155 104 482 469 263 103 
261 9 356 220 16 284 425 248 500 151 101 
262 9 94 344 504 97 463 69 119 188 283 
263 9 482 145 497 37 260 279 139 407 100 
264 9 248 357 226 229 453 335 436 282 130 
265 9 108 112 68 6 162 173 364 22 363 
266 9 216 509 196 292 190 113 24 480 211 
267 9 343 192 13 379 439 48 285 46 461 
268 9 179 433 81 224 456 19 182 40 159 
269 9 203 508 217 300 336 293 417 88 128 
270 9 201 3 31 424 465 383 406 109 54 
271 9 478 383 443 468 461 54 316 31 133 
272 9 198 236 109 132 390 50 230 422 281 
273 9 447 238 143 11 98 147 91 511 67 
274 9 221 394 127 377 227 421 355 477 19 
275 9 510 103 308 352 104 228 442 10 150 
276 9 129 73 184 369 434 63 41 467 277 
277 9 73 330 353 63 289 129 157 276 32 
278 9 411 150 308 445 352 305 471 442 189 
279 9 260 100 497 155 104 482 469 103 325 
280 9 166 70 494 135 318 513 45 291 214 
281 9 481 488 422 207 390 441 198 132 272 
282 9 130 248 309 365 264 229 34 335 427 
283 9 102 346 344 262 97 119 463 94 504 
284 9 220 261 500 16 158 356 483 310 425 
285 9 379 439 46 48 373 267 13 88 343 
286 9 189 305 211 196 460 445 190 137 378 
287 9 121 429 456 224 493 314 433 7 138 
288 9 399 85 74 71 460 199 374 61 128 
289 9 63 32 277 385 353 184 307 157 129 
290 9 206 21 89 175 164 320 14 114 408 
291 8 513 515 489 166 167 280 70 232 
292 9 216 190 196 266 294 451 169 251 509 
293 9 203 128 33 168 269 508 71 374 399 
294 9 451 169 190 251 292 196 378 107 375 
295 9 434 340 184 34 365 427 385 62 30 
296 9 302 72 124 142 473 507 136 195 380 
297 7 490 207 334 441 488 423 472 
298 9 475 185 51 516 115 27 65 122 208 
299 9 446 80 412 454 364 68 444 126 111 
300 8 336 417 217 466 269 8 502 88 
301 9 465 117 320 438 160 3 164 131 397 
302 9 296 124 72 473 142 507 26 392 136 
303 8 59 253 415 436 226 357 56 453 
304 9 93 254 215 242 321 152 116 75 391 
305 9 445 189 137 286 278 411 378 460 251 
306 9 311 361 212 58 86 406 458 316 29 
307 9 101 492 32 367 214 82 157 289 45 
308 9 352 510 275 150 278 442 411 471 53 
309 9 385 282 340 248 365 16 34 130 101 
310 9 500 483 318 158 82 135 284 429 314 
311 9 58 86 306 212 458 361 35 406 495 
312 9 350 20 419 435 257 487 39 255 90 
313 9 246 153 138 156 186 506 151 493 420 
314 9 7 429 494 318 287 483 310 121 493 
315 9 414 326 83 65 208 349 185 409 376 
316 9 361 29 54 212 458 306 495 239 478 
317 9 368 360 258 252 452 23 244 462 14 
318 9 135 310 82 314 494 280 483 214 500 
319 9 222 412 400 49 77 366 205 454 398 
320 9 117 301 160 438 465 164 21 339 175 
321 9 215 254 93 304 116 120 371 134 242 
322 9 240 197 213 430 392 499 452 462 337 
323 9 55 501 209 200 235 457 75 252 386 
324 9 8 502 161 228 217 417 300 404 10 
325 8 256 241 469 247 155 497 502 139 
326 9 315 414 65 208 83 349 409 376 498 
327 6 423 243 133 334 472 402 
328 9 105 204 120 389 432 331 141 501 333 
329 9 449 381 118 178 28 450 22 149 384 
330 9 441 277 234 353 73 281 157 481 207 
331 9 333 141 397 339 105 131 204 332 191 
332 9 191 110 397 131 230 141 333 331 50 
333 9 141 331 397 339 105 131 332 191 204 
334 9 472 423 207 297 479 488 390 422 481 
335 8 229 416 264 130 436 282 226 357 
336 8 300 417 217 466 269 88 8 203 
337 9 410 237 484 193 418 430 154 197 9 
338 9 42 219 17 125 52 64 448 12 341 
339 9 164 331 438 333 397 141 131 389 320 
340 9 385 295 34 365 184 309 434 427 63 
341 9 66 17 259 448 338 225 393 223 52 
342 9 163 165 413 480 113 393 24 509 211 
343 9 267 192 13 379 439 46 48 285 88 
344 9 97 262 94 504 102 283 463 346 122 
345 9 358 181 418 250 92 146 233 388 237 
346 9 283 102 119 463 262 344 69 97 504 
347 9 503 15 159 474 182 40 227 81 377 
348 8 111 41 402 444 369 80 243 364 
349 9 414 174 83 96 326 315 194 30 427 
350 9 312 419 257 20 435 487 39 24 90 
351 9 245 440 464 5 354 405 127 167 176 
352 9 442 308 471 53 275 10 510 61 278 
353 9 157 32 277 330 289 367 234 45 307 
354 9 405 464 179 245 433 232 7 351 268 
355 9 477 177 127 176 221 274 394 19 377 
356 9 261 220 16 284 425 248 151 453 357 
357 8 226 453 436 253 264 415 59 303 
358 9 345 92 388 250 146 154 181 418 237 
359 9 95 476 106 486 437 428 384 398 205 
360 9 317 368 452 258 462 252 23 213 244 
361 9 212 306 316 54 29 311 458 406 58 
362 6 372 4 231 126 454 241 
363 9 22 162 6 149 491 108 498 376 112 
364 9 68 173 265 108 299 140 446 112 80 
365 9 34 427 340 30 130 295 282 174 385 
366 9 450 398 178 222 400 319 112 6 77 
367 9 214 45 82 492 157 307 32 135 101 
368 9 258 317 360 452 23 462 244 252 213 
369 9 41 276 348 111 129 467 73 140 402 
370 9 459 140 467 60 173 79 505 491 62 
371 9 489 512 396 134 321 120 496 110 515 
372 7 362 4 241 454 231 139 407 
373 8 123 99 285 231 48 379 46 439 
374 9 404 199 74 61 508 53 10 161 288 
375 9 107 378 251 169 137 294 451 190 196 
376 9 498 409 491 208 459 79 363 505 149 
377 9 227 394 40 182 19 274 421 221 503 
378 9 251 375 107 137 169 294 451 190 196 
379 9 439 285 48 46 267 13 343 192 88 
380 9 136 195 202 9 72 193 142 296 484 
381 9 449 329 118 25 149 170 28 218 178 
382 9 391 43 152 176 177 440 242 304 431 
383 9 478 271 54 443 468 316 361 31 461 
384 9 28 428 95 118 87 449 2 359 476 
385 9 340 309 289 295 63 184 34 365 32 
386 9 244 23 18 200 258 455 171 55 368 
387 9 146 395 250 36 388 238 358 181 345 
388 9 92 358 146 154 114 250 408 345 387 
389 9 432 47 14 328 105 501 339 164 252 
390 9 422 481 198 281 488 109 272 207 132 
391 9 382 43 152 242 304 93 431 440 176 
392 9 473 507 322 499 240 202 9 193 26 
393 9 413 259 163 165 225 342 33 341 66 
394 9 377 227 40 182 221 19 274 421 127 
395 9 250 146 387 78 181 183 345 238 358 
396 8 496 512 470 110 426 50 515 371 
397 9 131 191 331 333 141 339 438 332 164 
398 9 450 366 178 400 222 77 95 205 319 
399 9 288 85 71 74 460 128 199 374 165 
400 9 77 205 319 222 49 398 366 450 412 
401 9 403 44 67 35 36 511 86 58 311 
402 6 243 348 41 490 111 444 
403 9 401 44 67 35 36 511 86 58 311 
404 9 374 199 61 10 74 53 161 508 442 
405 9 354 464 179 433 245 7 232 268 19 
406 9 306 361 86 311 58 54 212 316 3 
407 9 139 241 49 37 372 482 325 205 77 
408 9 114 154 92 237 89 388 430 358 337 
409 9 498 376 491 208 149 65 326 363 459 
410 9 484 337 193 418 233 237 9 345 202 
411 9 278 150 308 445 305 352 189 510 471 
412 9 319 222 446 454 299 49 400 112 68 
413 9 393 163 165 259 342 71 33 225 66 
414 9 83 315 326 349 65 96 194 208 174 
415 9 59 253 84 420 56 303 453 506 357 
416 8 335 229 130 264 96 194 436 226 
417 8 300 217 336 466 8 502 269 324 
418 9 233 345 410 181 337 358 57 237 484 
419 9 257 24 350 480 435 113 312 509 20 
420 9 84 415 56 153 506 151 425 59 253 
421 9 394 227 377 474 274 221 40 182 347 
422 9 481 281 488 390 207 198 132 272 109 
423 6 327 472 334 297 133 479 
424 9 31 109 201 270 479 390 272 3 198 
425 9 151 220 356 84 420 261 284 453 158 
426 8 132 470 496 50 236 198 272 396 
427 9 34 365 30 174 130 295 340 62 282 
428 9 87 384 476 95 2 28 106 359 118 
429 9 287 493 121 483 314 456 138 158 224 
430 9 197 213 322 240 452 237 337 408 114 
431 9 457 152 75 242 235 209 391 43 93 
432 9 47 389 14 501 252 328 105 317 164 
433 9 179 268 224 405 7 287 456 354 121 
434 9 295 184 62 276 340 129 34 467 30 
435 9 90 257 20 39 419 312 350 480 24 
436 8 226 357 253 303 453 264 59 415 
437 9 486 106 476 359 37 95 145 205 428 
438 9 301 320 164 339 131 397 465 117 160 
439 9 379 46 285 267 48 343 13 88 192 
440 9 351 245 5 304 391 215 382 254 176 
441 9 207 488 281 481 330 297 490 422 390 
442 9 53 471 352 10 61 308 199 404 275 
443 9 468 271 383 478 461 133 31 54 479 
444 9 80 111 348 299 514 243 126 446 402 
445 9 305 189 137 278 286 411 378 150 471 
446 9 299 454 412 80 444 68 364 126 319 
447 9 273 238 143 11 98 147 91 511 67 
448 9 52 338 17 341 223 125 225 66 42 
449 9 329 118 381 28 178 450 384 170 149 
450 9 366 398 178 329 400 449 222 6 95 
451 9 294 169 190 251 292 196 378 107 375 
452 9 360 213 462 368 317 258 197 240 430 
453 9 357 226 253 415 436 264 84 248 59 
454 9 446 4 412 299 49 126 319 372 80 
455 9 38 200 210 386 18 171 457 244 55 
456 9 121 224 287 429 246 493 433 138 81 
457 9 210 431 200 209 38 55 323 235 75 
458 9 495 212 29 239 311 306 316 361 58 
459 9 60 370 79 491 505 140 467 173 376 
460 9 211 85 288 399 286 189 71 74 165 
461 9 133 443 48 271 468 13 192 478 267 
462 9 452 258 23 368 360 244 240 213 18 
463 9 69 119 504 188 262 94 218 346 344 
464 9 245 354 405 179 351 19 127 433 268 
465 9 301 117 3 320 438 160 131 406 270 
466 6 336 300 417 217 88 46 
467 9 140 370 60 459 369 173 434 62 276 
468 9 443 31 271 133 383 461 478 479 472 
469 8 256 325 247 155 502 241 8 497 
470 8 496 396 426 512 50 110 132 515 
471 9 442 53 61 352 10 199 74 404 308 
472 8 334 479 423 207 297 390 488 327 
473 9 507 392 124 26 296 499 302 172 202 
474 9 347 421 15 503 227 377 182 40 159 
475 9 298 185 65 51 115 516 27 208 122 
476 9 106 359 95 428 486 437 384 87 28 
477 9 127 355 176 177 221 274 19 351 394 
478 9 383 271 54 443 316 468 361 461 29 
479 9 472 334 31 424 468 390 423 109 422 
480 9 113 24 509 257 419 342 266 435 163 
481 9 281 488 422 207 390 441 198 132 272 
482 9 263 497 145 139 279 407 260 37 325 
483 9 500 310 158 429 493 284 314 318 138 
484 9 193 410 337 9 202 418 233 237 392 
485 9 76 144 249 156 15 186 347 503 313 
486 9 437 106 476 359 95 37 145 205 428 
487 9 255 91 20 147 39 312 98 187 435 
488 9 481 281 207 422 390 441 198 334 132 
489 9 291 134 167 513 515 371 5 396 232 
490 6 297 441 207 402 334 488 
491 9 376 498 409 459 60 363 79 505 22 
492 9 101 82 307 214 367 135 45 32 310 
493 9 138 429 158 246 121 287 483 456 224 
494 9 7 166 280 314 232 318 135 70 513 
495 9 239 458 29 212 64 125 52 316 311 
496 8 396 470 512 426 50 110 230 132 
497 9 279 260 100 155 482 469 325 104 256 
498 9 409 376 491 208 149 363 459 65 326 
499 9 172 171 26 240 507 18 392 322 462 
500 9 310 483 284 158 318 220 16 429 82 
501 9 47 432 252 323 55 389 328 317 14 
502 9 8 324 247 469 417 161 217 155 300 
503 9 347 159 15 182 40 81 227 474 377 
504 9 94 262 69 463 218 188 97 344 119 
505 9 79 60 62 459 30 491 370 174 376 
506 9 56 153 420 84 415 59 151 253 313 
507 9 473 26 392 124 499 172 171 296 302 
508 9 269 374 203 404 217 293 74 128 199 
509 9 113 24 480 266 216 419 342 257 211 
510 9 275 308 352 103 150 442 104 228 278 
511 9 67 12 401 403 219 35 44 42 98 
512 8 396 496 110 470 50 371 230 426 
513 8 291 515 166 489 280 70 167 232 
514 8 243 126 99 123 444 80 231 402 
515 8 291 513 489 70 396 166 470 496 
516 9 51 122 27 298 94 97 475 115 262 
DEPOT_SECTION
   1
   -1
EOF
