NAME :  X-n599-kX-w239-c7.cctp
COMMENT : 	Adapted by Maziero, Usberti and Cavellucci from the Uchoa, Pecin, Pessoa, Poggi, Subramanian, and Vidal (2013)
TYPE :  CCTP
DIMENSION :    588
EDGE_WEIGHT_TYPE : 	EUC_2D	
CAPACITY : 	487
VERTICES_WITHIN_COVERAGE :  7
VERTICES_WITH_DEMAND : 	239
NODE_COORD_SECTION
1 284 167
2 6 711
3 874 746
4 483 894
5 733 189
6 336 29
7 488 684
8 825 903
9 98 412
10 206 306
11 497 641
12 499 745
13 481 40
14 500 390
15 851 268
16 51 278
17 805 796
18 554 771
19 576 984
20 734 251
21 325 414
22 658 81
23 279 467
24 1000 804
25 124 148
26 554 594
27 645 168
28 4 965
29 614 267
30 939 719
31 935 800
32 109 154
33 31 554
34 960 512
35 489 840
36 377 684
37 945 808
38 720 165
39 226 34
40 73 255
41 748 344
42 774 514
43 143 893
44 168 461
45 164 493
46 631 533
47 815 191
48 833 284
49 746 100
50 252 839
51 894 472
52 944 597
53 371 28
54 552 186
55 610 541
56 578 665
57 749 655
58 898 974
59 274 972
60 520 642
61 914 373
62 610 738
63 773 602
64 752 74
65 729 90
66 464 658
67 70 36
68 964 397
69 388 732
70 185 51
71 712 144
72 45 437
73 910 738
74 956 879
75 318 560
76 592 913
77 642 564
78 907 240
79 88 186
80 399 931
81 763 180
82 626 876
83 302 689
84 970 490
85 775 574
86 653 667
87 813 999
88 5 980
89 10 249
90 980 136
91 557 816
92 915 680
93 131 722
94 553 946
95 45 101
96 306 260
97 627 26
98 771 398
99 869 585
100 493 282
101 312 212
102 985 939
103 194 262
104 992 698
105 834 844
106 1 651
107 271 893
108 20 349
109 163 503
110 579 761
111 923 502
112 2 469
113 103 284
114 928 132
115 51 883
116 63 181
117 784 300
118 212 774
119 138 90
120 532 999
121 160 179
122 51 330
123 743 949
124 439 328
125 519 563
126 15 591
127 2 546
128 20 964
129 975 611
130 128 984
131 131 737
132 214 591
133 969 497
134 367 77
135 925 640
136 160 288
137 771 912
138 162 80
139 252 140
140 704 21
141 980 560
142 896 344
143 566 389
144 892 149
145 20 663
146 405 859
147 391 304
148 475 920
149 649 458
150 480 756
151 835 65
152 407 973
153 447 697
154 363 808
155 82 623
156 344 837
157 325 148
158 249 926
159 894 188
160 146 433
161 22 95
162 789 664
163 110 741
164 378 573
165 606 838
166 583 717
167 151 525
168 803 457
169 971 191
170 687 417
171 512 553
172 893 179
173 339 985
174 108 241
175 268 98
176 317 221
177 763 566
178 310 305
179 572 203
180 454 957
181 621 295
182 706 865
183 154 175
184 881 149
185 122 50
186 163 817
187 825 86
188 879 455
189 801 726
190 504 198
191 970 276
192 934 920
193 21 730
194 0 689
195 55 848
196 234 477
197 475 485
198 881 106
199 125 170
200 169 455
201 683 933
202 825 911
203 300 380
204 836 71
205 492 28
206 466 702
207 280 878
208 529 935
209 580 243
210 892 721
211 844 830
212 249 541
213 950 63
214 139 349
215 345 668
216 202 781
217 435 492
218 703 608
219 220 590
220 293 435
221 195 547
222 28 660
223 481 59
224 632 672
225 220 763
226 13 308
227 216 306
228 32 554
229 826 687
230 512 498
231 96 824
232 510 533
233 158 386
234 829 812
235 867 873
236 784 951
237 690 940
238 220 977
239 852 979
240 776 539
241 723 945
242 399 357
243 456 434
244 113 924
245 885 12
246 30 459
247 659 795
248 623 116
249 635 270
250 232 431
251 520 384
252 838 24
253 758 862
254 73 559
255 676 791
256 492 942
257 869 445
258 79 773
259 843 368
260 23 54
261 908 695
262 727 140
263 314 736
264 73 940
265 646 802
266 946 370
267 461 280
268 987 63
269 181 970
270 619 314
271 233 651
272 310 285
273 440 921
274 84 462
275 659 265
276 294 353
277 676 392
278 631 446
279 344 805
280 392 406
281 973 635
282 0 537
283 973 718
284 762 474
285 741 920
286 889 147
287 806 717
288 762 978
289 217 27
290 446 332
291 185 282
292 456 227
293 972 759
294 774 283
295 29 157
296 110 925
297 427 836
298 334 853
299 695 663
300 216 367
301 914 966
302 675 144
303 380 424
304 983 421
305 196 287
306 703 575
307 42 81
308 188 558
309 651 950
310 761 901
311 699 838
312 257 174
313 828 842
314 316 34
315 391 970
316 725 674
317 120 90
318 694 30
319 517 759
320 365 235
321 494 299
322 266 128
323 905 177
324 491 337
325 872 740
326 660 518
327 523 459
328 735 841
329 157 997
330 45 383
331 354 180
332 425 710
333 601 696
334 985 82
335 838 611
336 608 357
337 829 443
338 954 46
339 831 477
340 977 848
341 61 126
342 254 595
343 337 5
344 750 956
345 962 264
346 832 389
347 870 159
348 537 349
349 15 890
350 85 734
351 17 668
352 650 591
353 42 53
354 367 72
355 951 526
356 607 633
357 686 319
358 483 489
359 915 493
360 625 316
361 920 267
362 189 208
363 735 596
364 128 875
365 544 996
366 700 96
367 314 626
368 240 431
369 689 615
370 177 160
371 132 639
372 292 500
373 313 752
374 240 47
375 750 460
376 314 486
377 701 50
378 459 543
379 303 175
380 541 185
381 966 670
382 858 77
383 7 640
384 911 283
385 550 784
386 657 974
387 565 856
388 725 81
389 557 176
390 122 60
391 347 872
392 86 270
393 671 300
394 855 53
395 306 688
396 62 569
397 592 581
398 380 868
399 191 553
400 108 151
401 806 685
402 956 106
403 702 965
404 465 782
405 315 454
406 257 878
407 859 581
408 857 385
409 671 387
410 956 788
411 615 350
412 932 515
413 713 464
414 614 647
415 39 570
416 293 866
417 861 930
418 997 658
419 25 56
420 996 771
421 609 794
422 575 912
423 798 641
424 47 705
425 33 332
426 20 892
427 406 668
428 911 786
429 287 587
430 709 973
431 230 500
432 999 267
433 101 865
434 218 917
435 478 14
436 179 48
437 284 237
438 832 379
439 685 104
440 275 165
441 224 45
442 31 407
443 215 179
444 558 298
445 385 391
446 8 935
447 760 662
448 255 263
449 811 645
450 152 288
451 840 493
452 48 522
453 624 942
454 557 687
455 302 629
456 570 674
457 523 682
458 521 738
459 825 540
460 906 960
461 286 33
462 43 940
463 410 713
464 96 760
465 269 427
466 329 180
467 893 150
468 634 97
469 907 61
470 285 241
471 431 871
472 964 134
473 211 400
474 19 292
475 15 407
476 986 675
477 272 671
478 346 394
479 963 309
480 551 663
481 759 368
482 281 999
483 416 642
484 966 681
485 416 755
486 852 486
487 487 456
488 571 354
489 57 476
490 569 437
491 828 352
492 625 458
493 446 705
494 197 107
495 652 878
496 559 625
497 539 149
498 194 624
499 76 178
500 433 175
501 869 714
502 345 130
503 172 542
504 883 701
505 167 695
506 265 285
507 465 898
508 625 552
509 876 277
510 896 763
511 429 312
512 953 351
513 634 37
514 5 753
515 998 497
516 237 482
517 787 445
518 695 461
519 50 301
520 429 596
521 881 355
522 888 609
523 927 216
524 555 110
525 166 518
526 840 933
527 916 873
528 221 705
529 97 71
530 634 685
531 759 542
532 111 830
533 832 46
534 680 133
535 152 639
536 489 197
537 728 864
538 216 62
539 694 287
540 849 833
541 811 272
542 141 463
543 645 843
544 461 656
545 858 75
546 337 375
547 534 927
548 81 805
549 509 460
550 346 660
551 239 626
552 32 304
553 453 799
554 325 239
555 454 629
556 589 438
557 137 993
558 505 920
559 461 582
560 931 438
561 194 274
562 425 490
563 682 129
564 152 673
565 280 141
566 949 48
567 116 990
568 579 876
569 729 124
570 513 311
571 958 86
572 936 365
573 83 93
574 10 103
575 223 860
576 402 101
577 965 683
578 35 143
579 262 766
580 113 182
581 573 796
582 384 538
583 251 775
584 186 96
585 558 287
586 695 874
587 567 488
588 661 518
DEMAND_SECTION
2 63
3 89
4 97
5 78
6 92
7 55
8 97
9 88
10 95
11 64
12 80
13 68
14 71
15 95
16 75
17 89
18 54
19 75
20 61
21 66
22 86
23 56
24 99
25 65
26 56
27 99
28 79
29 73
30 53
31 63
32 76
33 67
34 77
35 82
36 67
37 68
38 64
39 69
40 68
41 83
42 77
43 67
44 74
45 80
46 55
47 86
48 68
49 62
50 78
51 67
52 90
53 63
54 90
55 56
56 69
57 97
58 87
59 87
60 70
61 75
62 73
63 81
64 97
65 88
66 68
67 53
68 64
69 95
70 87
71 92
72 79
73 77
74 75
75 86
76 85
77 55
78 60
79 78
80 71
81 68
82 69
83 73
84 89
85 64
86 95
87 61
88 85
89 55
90 96
91 51
92 98
93 82
94 89
95 71
96 60
97 94
98 64
99 74
100 75
101 91
102 63
103 67
104 91
105 77
106 65
107 89
108 50
109 77
110 88
111 66
112 98
113 64
114 51
115 64
116 96
117 51
118 54
119 68
120 59
121 100
122 61
123 62
124 99
125 77
126 52
127 81
128 80
129 94
130 91
131 65
132 89
133 90
134 94
135 91
136 68
137 93
138 74
139 100
140 60
141 79
142 89
143 96
144 63
145 57
146 53
147 60
148 51
149 58
150 69
151 71
152 56
153 88
154 58
155 89
156 64
157 94
158 66
159 53
160 69
161 95
162 75
163 96
164 95
165 74
166 81
167 59
168 76
169 80
170 79
171 86
172 53
173 93
174 65
175 61
176 81
177 56
178 51
179 81
180 93
181 66
182 91
183 66
184 91
185 77
186 64
187 52
188 83
189 63
190 80
191 87
192 93
193 55
194 94
195 88
196 82
197 77
198 75
199 67
200 78
201 98
202 54
203 68
204 69
205 52
206 68
207 59
208 64
209 69
210 72
211 98
212 61
213 59
214 71
215 99
216 76
217 75
218 54
219 73
220 93
221 70
222 98
223 74
224 65
225 84
226 72
227 59
228 91
229 81
230 79
231 59
232 88
233 53
234 80
235 68
236 97
237 90
238 100
239 86
240 79
COVERAGE_SECTION
2 7 194 193 424 514 351 145 222 
3 7 325 510 210 501 73 504 428 
4 7 507 148 558 256 273 35 471 
5 7 38 81 262 71 20 569 302 
6 7 314 343 53 461 354 134 175 
7 7 206 66 457 544 153 11 493 
8 7 202 526 417 235 137 105 313 
9 7 160 274 72 330 233 442 542 
10 7 227 305 291 561 103 136 450 
11 7 60 66 544 7 555 457 480 
12 7 150 319 458 404 206 18 7 
13 7 205 223 435 576 524 53 354 
14 7 251 324 348 243 143 487 549 
15 7 48 509 541 384 78 361 117 
16 7 519 40 552 474 392 226 89 
17 7 234 313 211 105 540 189 287 
18 7 385 110 581 319 91 458 421 
19 7 365 94 120 453 208 547 422 
20 7 294 539 5 117 275 81 393 
21 7 478 220 405 546 203 303 465 
22 7 468 439 366 248 513 377 563 
23 7 220 372 405 376 465 516 196 
24 7 420 410 340 293 37 31 74 
25 7 32 400 199 580 183 121 79 
26 7 496 397 125 60 171 356 480 
27 7 302 534 563 248 71 468 38 
28 7 88 128 446 462 264 426 349 
29 7 249 181 209 275 270 360 585 
30 7 283 73 261 577 92 210 484 
31 7 37 410 428 510 293 340 24 
32 7 400 25 199 580 79 499 183 
33 7 228 415 127 396 282 452 126 
34 7 133 355 84 412 111 515 359 
35 7 4 553 297 404 507 471 91 
36 7 427 215 550 463 69 332 483 
37 7 31 410 428 340 24 293 420 
38 7 71 262 5 569 81 302 534 
39 7 289 441 374 538 70 436 461 
40 7 392 16 174 113 519 89 552 
41 7 481 117 98 294 357 539 491 
42 7 240 531 284 177 459 375 85 
43 7 364 244 296 433 532 186 434 
44 7 200 542 45 160 109 525 167 
45 7 109 525 44 167 200 542 503 
46 7 508 55 77 326 588 352 397 
47 7 81 347 184 159 172 541 5 
48 7 15 541 509 117 294 491 384 
49 7 65 64 388 569 262 366 71 
50 7 575 406 207 416 107 583 579 
51 7 188 359 257 111 486 560 412 
52 7 129 135 281 141 522 355 99 
53 7 6 343 354 134 314 576 461 
54 7 380 389 179 497 190 209 536 
55 7 508 46 77 397 326 588 352 
56 7 456 480 454 333 414 356 496 
57 7 447 316 162 423 299 63 363 
58 7 460 301 239 417 192 526 87 
59 7 482 158 238 173 434 107 269 
60 7 11 480 457 496 7 66 454 
61 7 572 266 142 521 512 68 408 
62 7 166 110 333 421 530 18 581 
63 7 85 177 363 423 449 57 447 
64 7 49 65 388 569 366 377 262 
65 7 388 49 64 366 569 439 377 
66 7 544 555 7 11 153 206 493 
67 7 353 529 419 260 307 185 390 
68 7 304 266 572 512 560 61 142 
69 7 463 485 332 36 493 427 153 
70 7 436 538 138 441 289 39 584 
71 7 262 38 569 534 563 302 439 
72 7 246 442 489 475 274 112 330 
73 7 210 510 30 3 325 261 504 
74 7 340 527 192 102 37 31 24 
75 7 429 164 372 367 582 455 212 
76 7 422 568 453 82 94 547 387 
77 7 508 352 46 55 326 588 397 
78 7 361 523 384 509 159 345 15 
79 7 499 116 580 32 199 400 25 
80 7 315 273 152 180 398 471 146 
81 7 5 38 47 262 71 569 20 
82 7 495 543 165 568 76 422 387 
83 7 395 477 215 263 550 455 367 
84 7 133 34 515 355 412 111 359 
85 7 177 63 240 531 363 42 459 
86 7 224 530 299 414 356 333 369 
87 7 239 288 236 526 344 417 123 
88 7 28 128 446 462 264 426 349 
89 7 474 16 226 552 40 519 392 
90 7 472 402 114 334 571 169 268 
91 7 581 385 387 18 165 421 110 
92 7 261 504 135 30 210 577 484 
93 7 131 163 505 350 464 564 258 
94 7 208 547 422 19 76 365 558 
95 7 307 161 341 574 573 578 353 
96 7 272 470 554 437 176 178 101 
97 7 513 22 318 468 140 377 248 
98 7 481 517 41 346 438 375 168 
99 7 407 522 335 459 52 135 449 
100 7 321 267 570 324 585 292 444 
101 7 176 554 466 379 437 470 96 
102 7 192 74 301 460 340 58 527 
103 7 561 291 305 136 10 227 450 
104 7 476 283 484 577 381 418 30 
105 7 313 211 540 234 235 17 8 
106 7 383 145 351 222 194 2 126 
107 7 207 406 416 158 50 434 575 
108 7 425 122 226 330 552 474 519 
109 7 45 525 167 503 44 542 200 
110 7 18 581 385 62 166 421 91 
111 7 359 412 355 34 51 133 84 
112 7 246 72 489 475 282 442 452 
113 7 392 40 174 450 16 519 136 
114 7 472 402 467 144 286 184 323 
115 7 426 195 349 433 462 264 446 
116 7 499 79 295 578 580 32 400 
117 7 294 541 48 41 491 20 481 
118 7 216 225 583 579 186 528 50 
119 7 317 138 390 185 529 584 573 
120 7 365 19 94 208 256 547 558 
121 7 183 370 199 362 580 25 443 
122 7 425 519 552 108 226 474 16 
123 7 344 241 285 288 236 430 403 
124 7 290 511 242 267 324 147 321 
125 7 171 232 26 559 378 230 496 
126 7 415 33 228 127 383 396 282 
127 7 282 33 228 415 126 452 396 
128 7 28 88 446 462 264 426 349 
129 7 281 52 141 418 135 381 476 
130 7 557 567 329 269 244 296 264 
131 7 93 163 464 350 505 258 564 
132 7 219 498 342 308 551 399 221 
133 7 84 34 515 355 412 111 359 
134 7 354 576 53 6 502 314 343 
135 7 92 52 281 522 381 129 261 
136 7 450 291 305 561 103 10 113 
137 7 310 285 236 123 344 253 202 
138 7 119 584 436 70 317 494 390 
139 6 322 565 312 440 175 443 
140 7 318 377 388 64 513 65 366 
141 7 355 129 34 52 133 412 515 
142 7 521 61 572 266 408 512 259 
143 7 488 251 490 348 336 556 411 
144 7 467 286 184 347 172 323 159 
145 7 351 222 106 383 194 2 424 
146 7 398 471 297 391 156 154 273 
147 7 511 124 242 290 267 320 178 
148 7 507 4 256 558 273 180 208 
149 7 278 492 518 170 326 588 556 
150 7 12 404 319 458 553 206 493 
151 7 204 533 187 394 545 382 252 
152 7 315 80 180 273 173 148 256 
153 7 493 206 332 463 7 66 544 
154 7 279 156 298 398 146 391 297 
155 7 371 396 222 254 415 535 126 
156 7 298 279 154 391 398 416 146 
157 7 502 466 379 331 565 440 322 
158 7 434 107 406 59 207 238 575 
159 7 172 323 347 467 144 184 286 
160 7 542 200 44 233 9 45 274 
161 7 574 95 307 419 260 353 341 
162 7 423 401 447 449 57 229 287 
163 7 131 464 350 93 258 548 424 
164 7 582 520 75 483 367 559 378 
165 7 543 82 421 387 568 581 91 
166 7 333 62 454 110 456 56 530 
167 7 525 109 503 45 221 399 308 
168 7 517 337 339 284 451 375 486 
169 7 523 90 472 323 114 345 159 
170 6 277 409 518 413 149 278 
171 7 125 232 378 230 26 559 358 
172 7 159 323 467 144 347 184 286 
173 7 315 482 59 152 80 158 391 
174 7 392 40 113 79 580 450 16 
175 7 322 139 565 374 538 440 461 
176 7 101 554 437 470 96 466 379 
177 7 85 531 240 63 363 42 306 
178 7 272 96 506 276 554 448 470 
179 7 54 389 380 209 497 190 29 
180 7 273 256 148 152 507 80 558 
181 6 270 360 29 249 275 393 
182 7 586 537 311 328 253 495 285 
183 7 121 370 199 25 580 362 32 
184 7 286 144 467 347 172 323 159 
185 7 390 529 317 119 138 67 436 
186 7 216 532 118 231 364 575 433 
187 7 204 151 382 545 533 394 198 
188 7 257 51 486 337 359 339 451 
189 7 287 401 229 162 501 17 325 
190 7 536 380 54 292 389 497 179 
191 7 345 432 479 361 384 78 523 
192 7 74 460 301 527 102 58 417 
193 7 2 514 424 194 351 350 145 
194 7 2 351 145 106 222 193 383 
195 7 115 231 433 548 426 349 532 
196 7 516 431 23 250 368 465 372 
197 7 358 487 230 217 549 562 243 
198 7 382 545 286 184 144 467 469 
199 7 580 25 32 400 183 121 79 
200 7 44 542 160 45 109 525 250 
201 7 237 309 403 241 430 386 285 
202 7 8 526 417 137 235 236 310 
203 7 276 546 21 478 220 465 178 
204 7 151 187 545 382 533 394 252 
205 7 13 435 223 524 576 53 497 
206 7 153 493 7 332 66 544 12 
207 7 107 416 406 50 158 298 575 
208 7 547 94 558 256 422 148 4 
209 7 179 29 585 444 249 54 181 
210 7 504 501 73 325 3 261 510 
211 7 540 105 313 234 235 17 8 
212 7 431 221 342 219 372 399 429 
213 7 566 338 571 268 334 402 469 
214 7 233 450 136 113 9 300 10 
215 7 550 36 395 83 367 455 427 
216 7 118 225 583 186 579 50 528 
217 7 562 197 358 378 243 487 582 
218 7 369 306 363 299 352 57 63 
219 7 132 342 551 498 308 399 221 
220 7 465 405 23 21 368 203 376 
221 7 399 308 503 525 132 167 219 
222 7 145 351 106 383 194 424 2 
223 7 13 205 435 576 524 497 53 
224 7 530 86 414 333 356 56 456 
225 7 118 216 583 579 528 186 50 
226 7 474 552 425 519 108 122 16 
227 7 10 305 291 561 103 506 448 
228 7 33 415 127 396 282 452 126 
229 7 401 287 162 449 189 501 423 
230 7 358 232 549 197 327 487 171 
231 7 532 548 433 195 258 364 464 
232 7 171 125 230 358 378 197 559 
233 7 214 160 473 300 9 200 44 
234 7 211 17 540 313 105 235 3 
235 7 105 540 211 527 313 8 202 
236 7 344 288 123 137 285 310 87 
237 7 201 403 241 430 309 386 123 
238 7 269 59 158 434 482 329 557 
239 7 87 58 526 417 460 301 202 
240 7 531 42 177 85 459 63 284 
241 7 123 344 403 285 430 237 201 
242 7 445 124 280 290 147 511 478 
243 6 487 197 549 358 14 217 
244 7 296 43 264 364 433 130 567 
245 7 252 394 469 533 545 382 151 
246 7 72 112 489 442 274 475 452 
247 7 265 255 421 543 311 165 62 
248 7 468 22 27 302 534 563 439 
249 7 29 275 181 270 360 393 209 
250 7 368 465 473 196 516 23 220 
251 6 14 348 143 324 488 490 
252 7 533 394 151 204 245 545 382 
253 7 537 328 310 137 182 285 311 
254 7 396 415 228 33 452 155 126 
255 7 247 265 311 543 421 328 182 
256 7 558 148 208 180 547 4 507 
257 7 188 51 337 486 339 451 408 
258 7 464 548 350 163 231 131 532 
259 7 438 408 491 346 521 142 61 
260 7 419 353 307 161 67 574 95 
261 7 92 504 210 30 73 501 135 
262 7 71 569 38 49 563 534 5 
263 7 373 83 395 579 69 583 215 
264 7 462 296 244 128 115 446 567 
265 7 247 255 421 543 165 311 62 
266 7 572 512 61 68 142 304 479 
267 7 100 321 511 124 292 290 570 
268 7 334 213 338 571 566 402 90 
269 7 329 238 557 130 434 567 158 
270 6 360 181 411 336 29 249 
271 7 551 477 498 528 342 219 132 
272 7 178 96 506 554 470 437 448 
273 7 507 148 180 80 4 471 256 
274 7 489 72 9 246 542 160 452 
275 7 249 393 539 29 181 357 360 
276 7 203 546 178 478 21 272 506 
277 6 409 170 278 149 518 357 
278 6 492 149 556 170 490 518 
279 7 154 156 298 373 391 398 263 
280 6 445 303 478 242 546 21 
281 7 129 418 381 476 484 52 135 
282 7 127 33 228 452 415 126 112 
283 7 104 30 577 484 293 476 381 
284 7 375 517 42 168 413 240 518 
285 7 310 123 137 241 344 236 237 
286 7 144 467 184 347 172 323 159 
287 7 189 401 229 162 501 325 447 
288 7 344 123 236 241 430 87 403 
289 7 39 441 374 538 70 436 461 
290 7 124 511 324 242 267 321 147 
291 7 305 561 103 136 10 450 227 
292 4 536 267 190 500 
293 7 420 410 283 30 24 31 37 
294 7 117 541 20 48 41 15 539 
295 7 578 116 341 499 574 95 161 
296 7 244 264 43 364 433 130 567 
297 7 146 471 553 398 35 404 154 
298 7 156 391 416 398 279 154 207 
299 7 316 86 369 57 218 224 447 
300 7 473 227 233 10 250 368 214 
301 7 460 58 192 239 417 102 526 
302 7 534 563 71 27 439 38 262 
303 6 280 445 478 21 546 242 
304 7 68 560 266 84 572 512 133 
305 7 291 561 10 103 227 136 450 
306 7 218 363 369 352 177 77 531 
307 7 95 161 353 419 260 574 573 
308 7 399 221 503 132 219 525 167 
309 7 386 453 201 237 403 430 76 
310 7 137 285 253 537 123 236 344 
311 7 182 328 586 537 255 543 247 
312 4 440 139 565 443 
313 7 105 211 540 234 235 17 8 
314 7 6 461 343 53 354 134 374 
315 7 152 80 173 180 273 148 398 
316 7 57 299 447 162 369 218 86 
317 7 119 390 529 573 185 138 25 
318 7 140 377 388 513 22 366 97 
319 7 458 12 150 18 385 404 110 
320 4 554 176 331 101 
321 7 100 570 267 324 290 124 444 
322 7 139 565 175 440 312 379 157 
323 7 172 159 467 144 286 184 347 
324 7 570 321 290 348 124 14 100 
325 7 3 501 210 510 73 504 261 
326 7 588 46 77 508 55 149 518 
327 5 549 487 230 358 490 
328 7 537 253 311 182 586 310 255 
329 7 557 130 269 567 238 244 296 
330 7 442 475 108 425 122 72 9 
331 7 466 157 379 502 101 176 320 
332 7 463 493 153 206 69 427 485 
333 7 166 530 456 56 224 62 454 
334 7 268 571 402 213 338 566 90 
335 7 407 99 449 423 522 63 162 
336 5 411 488 270 360 143 
337 7 168 339 257 517 486 188 451 
338 7 566 213 268 571 334 469 402 
339 7 451 486 168 337 257 188 517 
340 7 74 24 37 31 410 527 420 
341 7 95 578 573 295 307 161 400 
342 7 219 429 551 132 212 455 271 
343 7 6 314 53 461 354 134 374 
344 7 123 288 241 236 285 430 137 
345 7 191 432 361 479 384 523 78 
346 7 438 259 408 491 337 521 98 
347 7 184 286 144 467 172 159 323 
348 6 488 251 570 324 143 14 
349 7 426 115 446 462 195 128 28 
350 7 163 464 258 131 93 424 193 
351 7 145 222 106 194 383 2 424 
352 7 77 369 508 306 218 397 356 
353 7 419 260 307 67 161 95 573 
354 7 134 53 576 6 502 314 343 
355 7 34 412 133 111 84 141 359 
356 7 414 56 224 496 397 456 86 
357 6 393 539 275 360 41 270 
358 7 197 230 487 549 217 327 232 
359 7 111 412 51 34 355 188 133 
360 5 270 181 411 336 249 
361 7 384 78 345 509 191 523 479 
362 5 443 121 183 370 103 
363 7 218 63 306 177 85 369 531 
364 7 43 433 532 244 296 231 186 
365 7 120 19 94 208 547 256 558 
366 7 439 388 65 563 569 534 22 
367 7 455 429 550 215 477 395 83 
368 7 250 465 473 196 516 23 220 
369 7 218 306 352 299 363 86 77 
370 7 121 183 443 362 199 25 494 
371 7 535 564 155 498 505 93 132 
372 7 376 23 405 516 212 196 431 
373 7 263 579 279 83 395 583 154 
374 7 441 39 538 289 461 70 175 
375 7 284 413 517 168 518 42 98 
376 7 372 405 23 220 21 75 465 
377 7 318 140 388 366 65 22 64 
378 7 559 232 171 217 358 197 520 
379 7 466 440 157 101 565 312 176 
380 7 54 389 179 497 190 536 209 
381 7 484 577 476 418 281 104 283 
382 7 545 204 394 151 187 198 533 
383 7 106 145 222 351 194 126 2 
384 7 361 509 78 345 479 191 15 
385 7 18 581 91 110 319 458 421 
386 7 309 403 453 237 201 430 241 
387 7 568 91 165 422 581 76 82 
388 7 65 49 64 366 377 569 439 
389 7 54 380 179 497 190 524 209 
390 7 185 529 317 119 138 573 67 
391 7 298 398 156 416 146 154 207 
392 7 40 113 16 174 519 552 450 
393 6 357 539 275 249 360 181 
394 7 545 151 382 533 204 252 187 
395 7 83 477 215 263 550 455 367 
396 7 254 415 33 228 452 126 155 
397 7 26 55 508 77 356 496 352 
398 7 146 391 156 298 471 297 154 
399 7 308 221 503 525 132 219 167 
400 7 32 25 199 580 79 499 183 
401 7 229 162 287 449 189 423 447 
402 7 571 472 90 114 334 213 268 
403 7 430 237 241 201 123 386 344 
404 7 553 150 12 485 319 35 297 
405 7 220 376 23 21 372 465 478 
406 7 107 207 416 575 50 158 434 
407 7 99 335 522 459 449 85 52 
408 7 259 346 438 521 491 142 61 
409 6 277 170 411 336 357 278 
410 7 37 31 293 420 428 24 340 
411 5 336 360 270 488 181 
412 7 111 355 34 359 133 84 51 
413 7 518 375 284 170 149 588 326 
414 7 356 224 56 530 86 333 456 
415 7 228 33 396 126 254 127 452 
416 7 207 107 406 298 50 391 156 
417 7 526 202 8 239 460 58 235 
418 7 476 281 381 484 104 577 129 
419 7 260 353 307 161 67 95 574 
420 7 293 24 410 283 37 31 104 
421 7 581 265 165 110 247 62 91 
422 7 76 568 94 547 208 387 453 
423 7 449 162 447 401 63 335 57 
424 7 193 2 350 351 222 145 194 
425 7 122 108 552 226 519 474 330 
426 7 349 115 446 462 195 128 264 
427 7 483 36 463 332 153 493 544 
428 7 510 31 37 410 73 3 325 
429 7 342 75 455 367 212 551 219 
430 7 403 241 237 123 344 201 386 
431 7 516 196 212 23 221 372 45 
432 7 191 345 479 361 169 523 384 
433 7 364 532 231 195 43 115 244 
434 7 158 406 575 107 238 269 207 
435 7 205 13 223 53 576 524 354 
436 7 70 138 538 289 441 39 584 
437 6 470 96 176 101 448 554 
438 7 346 259 408 491 521 98 337 
439 7 366 563 534 22 302 65 388 
440 6 312 565 379 139 322 157 
441 7 39 374 289 538 70 436 461 
442 7 475 330 72 246 108 9 112 
443 4 362 312 370 139 
444 6 585 570 348 488 209 181 
445 6 280 303 242 478 546 21 
446 7 28 128 462 88 426 349 264 
447 7 57 162 316 423 401 449 63 
448 6 506 470 437 96 227 272 
449 7 423 162 401 335 229 447 63 
450 7 136 291 305 561 103 113 10 
451 7 486 339 459 337 168 188 257 
452 7 33 228 254 489 396 415 282 
453 7 309 76 386 422 201 19 82 
454 7 456 480 56 457 166 333 60 
455 7 367 429 477 550 215 342 395 
456 7 56 454 480 333 166 457 496 
457 7 454 480 7 60 456 11 458 
458 7 319 12 150 18 385 457 110 
459 7 240 451 407 42 85 486 99 
460 7 301 58 192 417 239 526 102 
461 7 314 374 6 343 39 441 175 
462 7 264 128 446 28 426 88 349 
463 7 332 69 493 153 485 36 427 
464 7 258 163 350 131 548 93 231 
465 7 220 368 250 23 405 203 21 
466 7 331 379 157 101 176 502 440 
467 7 144 286 184 347 172 323 159 
468 7 248 22 439 534 563 513 302 
469 7 213 566 338 545 198 382 394 
470 6 437 96 448 176 101 554 
471 7 146 297 507 273 398 4 35 
472 7 90 402 114 571 334 169 213 
473 7 300 250 368 233 465 200 160 
474 7 226 552 519 16 425 89 122 
475 7 442 330 72 246 108 112 425 
476 7 418 381 484 577 104 281 283 
477 7 83 395 271 455 551 528 367 
478 6 546 21 445 303 203 280 
479 7 191 512 345 432 384 361 572 
480 7 456 454 56 457 60 496 11 
481 7 41 98 491 117 438 346 517 
482 7 59 173 238 158 434 269 107 
483 7 427 555 544 520 66 36 153 
484 7 577 381 476 104 283 418 30 
485 7 69 463 332 404 553 493 150 
486 7 451 339 188 51 257 337 168 
487 6 549 197 358 327 243 230 
488 6 348 143 336 411 444 251 
489 7 274 246 72 452 112 442 9 
490 5 556 143 327 587 492 
491 7 259 438 346 408 521 48 117 
492 6 278 149 556 490 587 326 
493 7 153 206 332 463 7 66 544 
494 7 584 138 538 70 370 119 436 
495 7 82 543 586 182 165 311 201 
496 7 26 480 60 56 356 456 397 
497 7 389 380 54 524 190 179 536 
498 7 132 219 535 551 271 371 564 
499 7 116 79 580 32 400 199 295 
500 4 292 536 190 331 
501 7 504 210 325 3 261 73 229 
502 7 157 331 466 134 354 379 576 
503 7 399 308 221 525 167 109 45 
504 7 501 210 261 92 325 3 73 
505 7 564 93 131 528 535 371 163 
506 7 448 272 96 470 178 437 227 
507 7 4 148 273 471 558 256 180 
508 7 55 46 77 397 352 326 588 
509 7 15 384 48 361 78 541 142 
510 7 428 3 73 325 210 31 501 
511 7 124 290 147 267 242 321 324 
512 7 266 572 479 61 68 142 521 
513 7 97 22 318 468 377 140 248 
514 7 193 2 194 424 258 350 351 
515 7 84 133 34 355 141 412 111 
516 7 196 431 23 250 368 372 212 
517 7 168 284 375 337 98 339 42 
518 7 413 170 149 375 278 588 326 
519 7 552 16 122 474 425 226 392 
520 7 559 555 483 164 378 544 66 
521 7 142 61 408 259 491 438 572 
522 7 99 407 135 335 52 92 449 
523 7 78 159 323 172 169 361 345 
524 7 497 389 248 54 380 468 223 
525 7 109 167 45 503 221 399 308 
526 7 417 202 8 239 236 235 58 
527 7 74 235 192 340 37 31 540 
528 7 271 505 225 477 118 579 564 
529 7 573 390 317 185 67 119 307 
530 7 224 86 333 414 62 56 356 
531 7 240 177 42 85 363 63 306 
532 7 231 433 548 364 186 195 258 
533 7 151 252 394 204 545 382 187 
534 7 563 302 439 71 366 262 27 
535 7 371 564 498 505 155 132 271 
536 7 190 292 380 500 54 497 389 
537 7 182 328 253 586 311 310 285 
538 7 441 374 39 70 289 436 584 
539 7 393 357 275 20 249 181 360 
540 7 211 105 313 234 235 17 8 
541 7 48 117 294 15 509 20 47 
542 7 44 200 160 45 109 274 525 
543 7 495 82 165 265 247 311 586 
544 7 66 555 7 11 153 206 483 
545 7 382 204 394 151 187 198 533 
546 7 478 203 21 276 445 280 242 
547 7 208 94 558 422 256 148 76 
548 7 231 258 532 464 195 433 163 
549 6 327 487 230 358 197 243 
550 7 215 36 367 395 83 455 427 
551 7 271 342 219 132 498 477 429 
552 7 474 519 226 425 16 122 108 
553 7 404 297 150 35 485 12 319 
554 7 176 96 101 320 470 437 272 
555 7 544 66 483 520 11 559 427 
556 5 490 492 278 143 587 
557 7 130 329 567 269 244 296 264 
558 7 256 208 148 547 4 507 94 
559 7 520 378 555 171 125 11 232 
560 7 51 68 188 304 359 257 111 
561 7 103 291 305 10 136 227 450 
562 6 217 197 358 378 582 243 
563 7 534 302 439 71 366 262 569 
564 7 505 535 371 93 498 131 528 
565 7 322 440 139 312 379 175 157 
566 7 338 213 571 268 469 334 402 
567 7 130 557 329 296 244 264 269 
568 7 387 422 76 82 165 91 547 
569 7 262 71 49 65 366 38 388 
570 7 321 324 100 348 444 585 267 
571 7 402 213 334 268 566 338 472 
572 7 266 512 61 68 142 521 479 
573 7 529 317 95 341 307 390 119 
574 7 161 95 307 578 419 260 341 
575 7 50 406 434 107 207 416 158 
576 7 134 354 502 53 500 223 157 
577 7 484 381 476 104 283 418 30 
578 7 295 341 95 116 574 161 499 
579 7 583 225 118 373 263 216 528 
580 7 199 79 32 400 25 499 183 
581 7 91 385 18 110 421 165 387 
582 7 164 562 217 75 520 378 376 
583 7 579 225 118 216 50 373 263 
584 7 494 138 70 538 119 436 441 
585 6 444 209 570 29 181 100 
586 7 182 537 311 495 328 543 201 
587 5 490 327 556 230 549 
588 7 326 46 77 508 55 149 518 
DEPOT_SECTION
   1
   -1
EOF
