NAME :  X-n548-kX-w54-c11.cctp
COMMENT : 	Adapted by Maziero, Usberti and Cavellucci from the Uchoa, Pecin, Pessoa, Poggi, Subramanian, and Vidal (2013)
TYPE :  CCTP
DIMENSION :    344
EDGE_WEIGHT_TYPE : 	EUC_2D	
CAPACITY : 	11
VERTICES_WITHIN_COVERAGE :  11
VERTICES_WITH_DEMAND : 	54
NODE_COORD_SECTION
1 0 0
2 221 542
3 320 456
4 576 827
5 679 994
6 371 461
7 961 844
8 986 379
9 175 540
10 126 517
11 329 626
12 477 890
13 191 356
14 584 917
15 308 653
16 0 7
17 273 302
18 672 381
19 235 415
20 583 149
21 672 124
22 644 646
23 400 544
24 832 999
25 842 964
26 582 965
27 544 311
28 429 2
29 939 849
30 898 605
31 363 130
32 639 874
33 323 201
34 829 350
35 7 53
36 801 92
37 57 330
38 943 0
39 579 275
40 833 402
41 408 940
42 635 871
43 631 630
44 733 313
45 344 619
46 628 291
47 674 92
48 74 602
49 38 354
50 473 107
51 668 279
52 510 811
53 366 16
54 49 182
55 528 946
56 668 978
57 939 73
58 556 632
59 270 446
60 586 348
61 992 460
62 128 590
63 279 459
64 364 167
65 656 687
66 547 792
67 517 152
68 252 618
69 590 47
70 348 609
71 777 112
72 528 198
73 877 457
74 584 875
75 439 447
76 560 994
77 447 951
78 287 534
79 399 181
80 29 248
81 313 643
82 294 475
83 327 361
84 79 657
85 345 144
86 549 135
87 887 565
88 180 298
89 658 126
90 18 638
91 327 299
92 245 439
93 881 666
94 34 637
95 350 673
96 380 917
97 271 505
98 930 78
99 860 22
100 448 112
101 222 587
102 670 76
103 521 123
104 642 795
105 50 360
106 351 981
107 159 405
108 825 285
109 187 320
110 342 200
111 290 713
112 304 144
113 46 173
114 298 667
115 257 579
116 775 393
117 996 407
118 379 14
119 195 581
120 75 328
121 295 405
122 6 525
123 239 471
124 460 479
125 663 933
126 626 229
127 737 136
128 620 811
129 877 977
130 881 673
131 69 200
132 115 635
133 414 959
134 270 287
135 867 569
136 354 11
137 937 660
138 434 965
139 753 436
140 86 648
141 656 239
142 604 359
143 507 27
144 424 827
145 287 592
146 554 230
147 99 106
148 133 601
149 635 416
150 860 852
151 752 0
152 184 590
153 981 411
154 778 389
155 359 222
156 201 444
157 111 324
158 867 389
159 309 269
160 669 317
161 768 421
162 889 891
163 221 579
164 442 624
165 719 697
166 413 1000
167 977 29
168 356 605
169 107 39
170 362 727
171 557 652
172 145 568
173 596 316
174 681 194
175 420 824
176 94 529
177 226 328
178 687 807
179 549 281
180 944 64
181 554 49
182 541 807
183 107 602
184 870 999
185 247 282
186 865 629
187 632 928
188 899 632
189 385 166
190 851 399
191 370 248
192 372 910
193 11 248
194 845 326
195 508 769
196 511 900
197 158 330
198 159 327
199 832 900
200 809 931
201 460 869
202 585 804
203 487 102
204 194 288
205 187 528
206 462 482
207 890 450
208 857 64
209 96 223
210 610 842
211 910 604
212 48 352
213 289 98
214 622 891
215 873 960
216 990 747
217 693 76
218 668 167
219 301 696
220 61 500
221 390 699
222 39 477
223 476 728
224 112 160
225 588 281
226 215 559
227 528 309
228 668 953
229 594 865
230 407 905
231 423 639
232 570 151
233 651 612
234 684 574
235 598 632
236 645 944
237 976 284
238 177 414
239 459 506
240 507 320
241 961 987
242 497 889
243 888 561
244 308 530
245 237 184
246 937 529
247 985 385
248 920 945
249 502 117
250 851 594
251 467 732
252 728 54
253 64 249
254 492 57
255 852 45
256 292 125
257 340 273
258 242 217
259 700 96
260 942 989
261 37 511
262 663 175
263 670 279
264 611 829
265 471 843
266 4 325
267 454 981
268 94 359
269 982 397
270 965 538
271 780 360
272 666 449
273 510 276
274 564 632
275 903 827
276 605 806
277 38 525
278 944 955
279 75 130
280 107 314
281 717 125
282 991 306
283 62 373
284 641 426
285 42 62
286 184 460
287 618 878
288 986 690
289 430 839
290 284 582
291 453 998
292 134 596
293 437 412
294 660 92
295 723 31
296 954 998
297 905 972
298 222 302
299 746 114
300 670 702
301 447 881
302 844 110
303 315 373
304 115 329
305 992 409
306 692 929
307 334 75
308 502 262
309 346 190
310 361 170
311 44 202
312 326 351
313 525 950
314 910 793
315 752 234
316 542 768
317 358 588
318 19 296
319 147 444
320 954 410
321 529 392
322 77 383
323 822 126
324 735 425
325 870 566
326 548 87
327 609 314
328 328 85
329 852 128
330 505 944
331 358 609
332 311 26
333 855 140
334 909 915
335 407 84
336 523 987
337 690 982
338 499 9
339 646 414
340 713 221
341 944 22
342 691 660
343 44 506
344 756 289
DEMAND_SECTION
2 1
3 1
4 1
5 1
6 1
7 1
8 1
9 1
10 1
11 1
12 1
13 1
14 1
15 1
16 1
17 1
18 1
19 1
20 1
21 1
22 1
23 1
24 1
25 1
26 1
27 1
28 1
29 1
30 1
31 1
32 1
33 1
34 1
35 1
36 1
37 1
38 1
39 1
40 1
41 1
42 1
43 1
44 1
45 1
46 1
47 1
48 1
49 1
50 1
51 1
52 1
53 1
54 1
55 1
COVERAGE_SECTION
2 11 226 163 205 101 9 119 115 152 97 78 123 
3 11 82 63 6 59 121 97 244 92 123 303 78 
4 10 202 264 276 210 182 229 66 128 74 287 
5 10 337 56 228 236 125 306 187 26 214 76 
6 10 3 75 82 293 23 124 63 206 244 121 
7 9 29 275 314 162 334 150 216 248 278 
8 10 247 269 117 305 153 320 282 61 237 158 
9 10 205 172 226 2 119 152 10 163 101 62 
10 11 176 9 172 205 220 62 319 292 286 343 148 
11 11 45 81 70 15 168 331 317 95 114 145 290 
12 10 242 201 301 196 265 330 77 289 230 55 
13 10 109 197 198 177 88 107 238 298 204 19 
14 11 74 214 26 187 287 229 55 236 313 42 32 
15 11 81 114 11 219 95 45 70 111 145 68 331 
16 6 35 285 169 147 279 113 
17 10 134 185 159 298 91 177 312 257 83 204 
18 9 339 149 284 160 272 142 324 44 60 
19 11 92 156 59 123 238 121 63 286 13 107 82 
20 11 232 86 67 103 326 72 89 262 146 218 249 
21 11 89 47 294 259 218 281 102 217 262 127 174 
22 11 43 233 65 235 342 300 274 234 171 58 165 
23 11 317 239 168 331 70 6 124 206 164 244 45 
24 11 25 184 129 215 200 297 199 248 260 334 278 
25 10 215 24 129 184 200 297 199 248 334 162 
26 11 76 14 55 313 187 336 236 330 214 56 125 
27 11 227 179 240 273 39 173 225 60 308 327 142 
28 11 118 53 338 136 143 254 335 100 50 203 307 
29 9 7 275 314 162 334 150 248 278 216 
30 11 211 188 87 186 243 135 250 325 93 137 130 
31 11 85 64 310 189 328 112 79 307 309 335 256 
32 11 42 287 214 210 229 264 187 74 125 128 14 
33 11 110 309 155 310 64 112 85 191 159 189 257 
34 10 194 271 40 158 190 154 108 116 161 344 
35 7 285 16 169 279 147 113 54 
36 9 71 323 302 299 329 208 255 333 127 
37 11 120 212 49 105 283 268 318 280 266 157 322 
38 9 341 167 180 57 98 99 255 208 302 
39 11 225 179 173 327 27 146 46 227 126 273 60 
40 11 190 158 34 154 116 161 271 73 207 194 139 
41 10 133 230 96 138 77 192 166 267 106 301 
42 11 32 287 214 210 229 264 74 187 128 125 14 
43 10 22 233 235 65 274 342 58 171 234 300 
44 11 344 160 271 263 51 315 154 116 18 340 108 
45 11 70 11 331 168 317 81 15 95 145 114 290 
46 11 327 173 225 51 263 160 39 141 126 60 142 
47 11 294 102 217 259 21 89 281 252 218 299 127 
48 11 183 140 94 132 62 84 148 292 90 176 172 
49 11 212 105 37 283 120 266 322 268 318 157 280 
50 10 203 100 249 103 254 67 335 326 86 143 
51 10 263 160 46 141 126 327 44 340 225 173 
52 11 182 66 195 265 316 4 202 201 242 289 12 
53 9 118 136 332 28 307 328 335 213 31 
54 10 113 311 131 279 209 224 80 253 193 147 
55 11 313 330 336 196 26 76 14 242 12 77 267 
56 11 5 337 228 236 125 306 187 26 214 14 32 
57 8 98 180 341 167 38 208 255 99 
58 5 274 171 235 43 22 
59 11 63 92 82 123 19 121 3 97 156 303 286 
60 9 142 173 327 27 225 227 46 321 39 
61 8 153 305 117 320 269 247 8 270 
62 9 292 148 183 172 132 48 152 119 9 
63 11 59 82 92 3 123 97 121 19 78 244 156 
64 10 310 189 309 85 31 79 110 33 155 112 
65 7 300 22 342 43 165 233 235 
66 7 182 316 202 52 4 195 276 
67 10 103 86 249 72 232 203 50 20 326 100 
68 9 115 101 145 290 163 15 81 114 119 
69 11 181 326 294 102 143 47 86 254 338 20 103 
70 11 168 331 45 317 11 81 15 145 95 290 114 
71 8 36 299 127 323 281 302 252 329 
72 8 146 67 232 86 308 20 103 273 
73 7 207 190 158 40 320 246 243 
74 11 229 287 214 14 210 4 42 264 32 202 187 
75 5 293 124 206 239 6 
76 11 26 336 313 55 330 14 187 236 196 267 291 
77 11 138 267 133 41 291 330 166 230 12 301 96 
78 11 244 97 290 115 145 82 2 63 226 123 163 
79 9 189 64 310 309 155 110 31 85 191 
80 11 193 253 311 318 131 54 209 113 266 37 120 
81 11 15 11 114 45 95 70 219 331 145 168 68 
82 11 63 3 59 97 123 244 78 92 121 6 19 
83 5 312 303 121 91 17 
84 6 140 132 94 48 183 90 
85 11 31 64 310 112 189 309 110 256 33 328 79 
86 10 232 103 67 20 326 249 72 203 50 181 
87 9 243 325 135 30 211 250 246 186 188 
88 9 204 109 198 197 298 177 13 185 304 
89 11 21 294 47 218 262 102 259 281 217 174 20 
90 5 94 84 48 140 183 
91 8 257 159 312 17 134 83 191 303 
92 11 19 59 123 63 156 121 82 286 97 238 3 
93 6 130 188 186 137 30 211 
94 6 90 84 48 140 132 183 
95 10 15 81 221 11 114 45 219 170 70 331 
96 4 192 230 41 133 
97 11 78 82 244 63 123 59 2 3 92 115 226 
98 8 57 180 341 167 208 38 255 99 
99 11 255 208 341 38 302 98 36 57 180 329 151 
100 10 50 203 335 249 254 103 67 189 79 31 
101 8 163 119 226 115 152 68 2 290 
102 11 47 294 217 259 21 89 252 281 295 69 299 
103 11 249 67 86 203 326 50 232 20 254 100 72 
104 7 128 276 264 178 210 202 4 
105 10 212 49 283 37 322 120 268 266 157 318 
106 6 166 133 41 96 192 138 
107 9 238 319 156 13 286 197 19 198 268 
108 6 194 34 344 271 315 44 
109 10 88 198 197 204 13 298 177 185 304 157 
110 11 309 33 155 310 64 189 85 191 79 112 31 
111 4 219 114 15 95 
112 11 256 85 213 33 31 309 310 64 328 110 307 
113 10 54 311 131 279 224 209 80 253 193 147 
114 9 15 81 219 111 11 95 45 68 145 
115 11 290 145 101 163 68 226 2 78 119 244 152 
116 9 154 161 271 139 324 40 34 190 44 
117 9 305 153 269 247 8 320 61 282 207 
118 11 53 136 28 332 335 307 328 31 100 338 254 
119 9 152 163 101 226 9 2 172 205 115 
120 11 37 280 157 212 268 304 105 49 283 322 318 
121 10 303 59 83 63 3 92 19 312 82 123 
122 10 277 261 343 222 220 176 48 90 94 10 
123 11 92 59 63 97 156 82 19 286 2 205 78 
124 7 206 239 75 293 23 6 321 
125 11 228 236 306 187 56 337 214 5 32 42 287 
126 11 141 46 225 51 174 262 39 263 146 218 327 
127 8 281 299 71 259 21 217 218 47 
128 8 276 264 104 210 202 4 229 42 
129 11 215 184 297 25 24 248 260 334 278 296 200 
130 5 93 188 186 137 30 
131 9 311 54 113 209 253 224 80 279 193 
132 7 140 183 148 84 292 62 48 
133 11 41 138 77 166 267 96 230 291 192 106 301 
134 10 17 185 159 298 91 177 257 258 204 312 
135 8 325 87 243 250 30 211 186 188 
136 9 53 118 332 307 28 328 335 213 31 
137 7 188 93 130 288 211 30 186 
138 11 77 133 267 41 291 166 230 96 330 192 106 
139 6 161 324 116 154 271 40 
140 7 84 132 48 183 94 148 90 
141 9 126 51 263 174 46 340 262 218 160 
142 9 60 173 327 149 339 18 46 27 160 
143 11 338 254 181 326 203 28 69 50 249 103 100 
144 7 175 289 265 201 301 230 12 
145 11 290 115 68 11 81 78 45 70 15 101 244 
146 9 72 39 179 225 308 273 126 232 27 
147 6 279 224 169 285 113 54 
148 8 292 62 183 172 132 152 48 119 
149 5 339 284 272 18 142 
150 6 162 275 199 314 29 334 
151 11 295 252 217 36 259 99 255 102 299 71 47 
152 9 119 101 163 226 172 292 9 148 62 
153 9 305 269 117 247 320 8 61 207 282 
154 9 116 271 161 139 324 40 34 190 44 
155 10 110 191 309 33 310 257 64 79 189 159 
156 11 286 238 92 19 123 319 107 59 63 205 13 
157 10 304 280 120 268 197 198 37 322 212 283 
158 11 190 40 34 207 194 73 154 320 116 271 161 
159 10 257 91 134 17 185 191 33 155 110 312 
160 11 51 263 46 327 18 44 173 142 141 60 225 
161 6 139 116 324 154 271 40 
162 10 334 150 199 248 29 275 215 297 278 7 
163 9 101 226 119 115 2 152 68 9 205 
164 6 231 331 168 23 221 317 
165 4 342 300 65 22 
166 10 291 133 138 267 41 77 106 96 230 192 
167 8 341 38 180 57 98 99 208 255 
168 11 331 70 317 45 11 81 15 95 145 23 231 
169 4 147 285 279 35 
170 6 221 95 219 111 114 15 
171 5 58 274 235 43 22 
172 10 62 292 148 9 152 183 119 10 205 176 
173 10 327 60 225 46 39 142 27 179 227 160 
174 8 262 218 340 141 126 21 89 281 
175 7 144 289 265 201 301 230 12 
176 11 10 220 343 277 261 172 62 183 48 222 292 
177 10 298 109 13 185 204 17 88 134 198 197 
178 6 104 128 264 32 42 276 
179 11 27 39 227 225 273 146 308 240 173 327 60 
180 8 57 98 341 167 38 208 99 255 
181 11 69 326 143 254 338 103 203 86 249 50 232 
182 9 66 52 316 4 202 195 276 264 210 
183 9 62 148 292 48 132 140 172 84 176 
184 11 129 24 215 297 25 260 248 296 278 200 241 
185 9 134 298 17 177 204 159 258 88 109 
186 6 188 250 93 30 130 211 
187 11 236 125 214 228 14 287 32 42 306 26 56 
188 8 30 211 186 93 130 137 250 87 
189 9 64 79 310 31 85 309 110 155 33 
190 11 40 158 34 73 207 194 154 116 271 161 320 
191 8 155 257 110 309 159 33 91 79 
192 3 96 230 41 
193 11 80 318 253 311 131 54 266 113 209 37 120 
194 9 34 108 158 190 271 40 154 344 116 
195 6 316 52 66 182 223 251 
196 11 242 12 330 55 313 201 301 265 14 74 77 
197 10 198 109 88 13 304 157 280 204 177 268 
198 10 197 109 88 13 304 157 204 280 177 298 
199 7 200 150 162 25 215 334 129 
200 7 199 25 215 24 129 162 184 
201 10 301 12 265 242 289 144 175 196 230 52 
202 9 276 4 128 264 66 182 210 316 104 
203 11 50 249 100 103 254 67 326 86 143 335 181 
204 8 88 298 109 177 198 185 197 13 
205 10 9 2 226 119 172 163 10 152 286 101 
206 7 124 239 75 293 23 6 321 
207 7 73 190 158 40 320 246 153 
208 10 255 99 302 36 329 323 98 333 57 180 
209 8 131 253 311 54 224 113 80 193 
210 11 264 229 128 276 4 287 42 74 32 202 214 
211 11 30 188 87 243 186 135 325 250 137 93 130 
212 11 105 49 37 283 120 322 268 266 318 157 280 
213 7 256 328 112 307 85 332 31 
214 11 287 32 42 187 229 74 14 210 236 125 264 
215 11 129 25 297 184 248 24 334 200 162 278 199 
216 8 288 314 7 137 29 275 130 93 
217 11 259 102 47 294 252 21 295 281 89 299 127 
218 9 262 174 89 21 281 340 141 47 126 
219 7 111 114 15 81 95 170 11 
220 10 343 261 222 277 176 122 10 48 319 172 
221 8 170 95 231 251 219 164 223 45 
222 9 343 220 261 277 122 176 10 322 283 
223 5 251 195 316 52 221 
224 7 279 147 131 209 54 113 311 
225 11 39 173 179 327 46 27 146 126 227 60 273 
226 10 2 163 101 119 205 9 152 115 68 172 
227 9 27 240 179 273 308 39 225 173 60 
228 11 125 56 236 306 337 5 187 214 32 26 42 
229 11 74 287 210 214 264 42 4 32 14 128 276 
230 8 96 41 192 301 133 77 201 138 
231 7 164 221 331 168 45 70 95 
232 10 20 86 67 103 72 326 249 146 89 126 
233 8 43 22 234 235 342 65 274 300 
234 4 233 43 22 342 
235 8 43 274 58 171 22 233 65 342 
236 11 125 187 228 56 306 214 337 5 26 14 32 
237 5 282 8 247 269 117 
238 9 107 156 319 286 19 13 92 123 197 
239 6 206 124 75 23 293 6 
240 7 227 27 273 179 308 321 60 
241 11 296 260 278 297 248 129 334 184 215 162 25 
242 11 196 12 201 301 265 330 55 313 52 77 289 
243 9 87 325 135 30 211 250 246 186 188 
244 11 78 97 82 290 145 115 3 63 317 2 70 
245 4 258 112 256 33 
246 7 270 243 87 325 211 135 30 
247 10 8 269 117 305 153 320 61 282 237 207 
248 11 278 297 334 215 260 129 241 162 296 184 25 
249 11 103 203 50 67 86 100 326 254 232 72 181 
250 8 135 325 186 87 30 243 211 188 
251 6 223 195 316 221 52 66 
252 11 295 217 259 151 102 299 47 281 71 294 36 
253 11 80 209 131 311 193 318 54 113 280 120 37 
254 11 143 203 338 50 249 181 326 100 103 28 335 
255 11 208 99 302 36 329 98 323 57 180 333 341 
256 7 112 213 328 85 307 31 245 
257 8 91 159 191 155 134 17 110 33 
258 6 245 185 134 33 159 204 
259 11 217 47 281 102 21 294 299 252 89 127 295 
260 11 296 241 278 297 248 129 184 215 334 25 24 
261 10 343 277 220 122 222 176 10 48 183 62 
262 9 218 174 89 21 141 126 340 281 294 
263 10 51 160 141 46 126 327 44 340 225 173 
264 11 210 128 276 4 202 229 104 42 287 32 74 
265 10 201 289 301 12 52 144 242 175 196 182 
266 11 318 49 212 37 105 120 283 193 80 322 268 
267 11 291 138 77 166 133 41 330 336 313 55 230 
268 9 322 283 120 304 157 105 37 212 280 
269 9 247 153 305 117 8 320 61 282 207 
270 7 246 243 61 87 211 30 325 
271 11 154 116 34 161 44 40 194 344 324 139 190 
272 4 284 339 149 18 
273 7 308 227 179 240 27 146 39 
274 6 58 171 235 43 22 233 
275 7 314 29 150 7 162 334 199 
276 8 128 202 264 4 210 104 66 229 
277 10 261 343 122 220 222 176 48 10 183 62 
278 11 248 260 241 297 296 334 129 215 162 184 25 
279 10 147 224 113 54 131 285 311 209 169 35 
280 10 157 304 120 268 37 197 198 212 105 283 
281 11 127 299 259 21 47 217 89 71 218 294 102 
282 8 237 8 247 269 117 305 153 320 
283 9 105 322 212 49 268 37 120 157 304 
284 4 149 339 272 18 
285 7 35 16 169 147 279 113 54 
286 11 156 319 238 123 107 92 19 205 9 10 59 
287 11 214 42 32 229 74 210 264 14 187 4 128 
288 7 137 216 188 130 93 211 30 
289 7 144 175 265 201 301 12 230 
290 11 145 115 68 78 244 101 11 163 81 70 45 
291 11 267 138 166 77 133 336 41 330 313 55 106 
292 9 148 62 183 172 132 152 48 119 9 
293 4 75 124 206 6 
294 11 47 102 21 89 217 259 281 218 252 69 262 
295 11 252 151 217 259 102 47 299 294 281 71 36 
296 11 241 260 278 297 248 129 184 215 334 25 24 
297 11 129 248 215 260 278 184 296 334 241 25 24 
298 10 177 204 185 109 88 134 17 13 198 197 
299 10 127 71 281 259 36 252 217 21 47 323 
300 7 65 342 165 22 43 233 104 
301 9 201 12 265 289 230 242 144 175 196 
302 7 329 323 333 36 208 255 71 
303 8 83 312 121 91 17 3 59 19 
304 10 157 280 268 120 197 198 37 322 283 212 
305 9 117 153 269 247 8 320 61 282 207 
306 10 125 228 236 337 56 187 5 32 214 42 
307 10 328 213 332 31 256 53 136 85 335 112 
308 6 273 179 227 240 146 27 
309 11 110 33 310 64 155 85 189 79 31 112 191 
310 10 64 189 309 85 110 31 79 33 155 112 
311 10 54 131 113 80 253 209 193 279 224 318 
312 6 83 303 91 121 17 257 
313 11 55 330 336 196 76 26 242 14 12 267 77 
314 6 275 29 7 150 216 162 
315 4 340 344 44 174 
316 7 66 195 182 52 202 4 276 
317 11 168 331 70 45 11 23 81 145 290 244 15 
318 11 266 80 193 37 49 212 120 253 105 283 280 
319 9 286 107 238 156 10 19 205 322 123 
320 9 153 269 305 247 117 8 61 207 158 
321 6 60 240 27 142 227 293 
322 9 283 268 105 212 49 120 37 304 157 
323 7 302 329 333 36 71 208 299 
324 7 139 161 116 154 272 18 271 
325 7 135 87 243 250 30 211 186 
326 11 181 103 86 249 69 203 254 232 20 67 143 
327 11 173 46 225 60 142 39 160 27 179 51 263 
328 9 307 213 256 31 85 332 112 136 53 
329 5 333 302 323 36 208 
330 11 313 55 196 336 242 77 12 267 76 138 291 
331 11 168 70 45 317 11 81 95 15 231 145 23 
332 8 136 307 53 328 118 213 256 335 
333 4 329 302 323 36 
334 11 162 248 278 297 215 129 29 199 150 260 25 
335 11 100 31 50 307 118 53 328 203 28 189 85 
336 11 313 76 55 330 26 267 291 77 196 138 14 
337 10 5 56 228 306 125 236 187 26 214 32 
338 11 143 254 181 28 326 203 69 50 249 100 103 
339 5 149 284 272 18 142 
340 7 315 174 141 262 218 263 51 
341 9 38 167 180 57 98 99 255 208 302 
342 8 65 165 300 22 233 43 234 235 
343 10 261 220 277 222 122 176 10 48 183 62 
344 7 44 315 108 271 340 263 51 
DEPOT_SECTION
   1
   -1
EOF
