NAME :  X-n561-kX-w224-c11.cctp
COMMENT : 	Adapted by Maziero, Usberti and Cavellucci from the Uchoa, Pecin, Pessoa, Poggi, Subramanian, and Vidal (2013)
TYPE :  CCTP
DIMENSION :    544
EDGE_WEIGHT_TYPE : 	EUC_2D	
CAPACITY : 	74
VERTICES_WITHIN_COVERAGE :  11
VERTICES_WITH_DEMAND : 	224
NODE_COORD_SECTION
1 500 500
2 487 949
3 492 770
4 150 556
5 130 719
6 962 393
7 54 890
8 861 705
9 338 631
10 119 741
11 48 296
12 982 827
13 18 954
14 558 698
15 857 337
16 963 72
17 218 46
18 705 484
19 315 3
20 331 358
21 688 156
22 314 338
23 214 428
24 193 866
25 381 924
26 968 10
27 797 382
28 733 544
29 956 878
30 576 270
31 257 778
32 713 605
33 270 940
34 880 401
35 245 168
36 973 29
37 888 919
38 943 703
39 364 248
40 932 60
41 575 18
42 663 990
43 667 351
44 85 708
45 801 330
46 261 91
47 163 953
48 509 249
49 237 336
50 791 356
51 314 168
52 356 726
53 260 412
54 630 144
55 534 255
56 356 444
57 448 320
58 987 333
59 691 109
60 319 476
61 83 716
62 395 818
63 605 769
64 633 162
65 651 644
66 221 4
67 551 912
68 762 604
69 337 41
70 156 318
71 756 357
72 749 173
73 535 235
74 719 700
75 900 564
76 717 4
77 337 441
78 759 103
79 615 132
80 365 498
81 42 268
82 952 2
83 989 303
84 471 821
85 650 215
86 302 881
87 61 459
88 391 405
89 364 170
90 643 744
91 324 620
92 559 449
93 92 914
94 133 607
95 223 949
96 988 415
97 943 616
98 764 6
99 659 250
100 766 532
101 730 338
102 850 489
103 481 467
104 564 296
105 469 531
106 538 121
107 997 183
108 127 966
109 880 538
110 300 985
111 462 125
112 781 68
113 884 92
114 438 673
115 591 658
116 928 894
117 107 816
118 581 799
119 46 288
120 548 0
121 379 725
122 186 490
123 947 161
124 702 712
125 230 722
126 40 891
127 362 568
128 26 614
129 396 104
130 756 658
131 818 433
132 236 62
133 314 56
134 276 466
135 789 828
136 626 677
137 626 156
138 369 506
139 207 461
140 566 842
141 676 871
142 135 983
143 956 181
144 5 209
145 10 57
146 499 617
147 369 482
148 975 194
149 882 465
150 716 147
151 740 993
152 77 480
153 742 233
154 869 824
155 809 987
156 999 514
157 748 391
158 366 917
159 272 875
160 0 9
161 260 359
162 449 208
163 278 711
164 422 445
165 341 448
166 683 498
167 930 690
168 184 567
169 257 360
170 464 101
171 783 645
172 282 884
173 978 688
174 514 349
175 343 552
176 290 171
177 675 414
178 386 86
179 575 26
180 863 973
181 223 412
182 958 176
183 391 824
184 228 93
185 704 946
186 938 995
187 159 343
188 698 106
189 896 169
190 361 937
191 201 120
192 158 852
193 786 630
194 91 909
195 291 333
196 575 931
197 60 763
198 321 837
199 154 302
200 490 215
201 612 394
202 70 159
203 972 987
204 527 340
205 34 241
206 688 334
207 878 485
208 885 205
209 124 413
210 347 330
211 457 540
212 841 478
213 383 907
214 556 135
215 250 31
216 251 90
217 514 112
218 645 252
219 250 482
220 50 740
221 924 309
222 275 198
223 402 554
224 751 389
225 222 168
226 935 8
227 105 551
228 943 769
229 723 250
230 442 730
231 711 917
232 794 873
233 440 930
234 25 735
235 550 461
236 95 780
237 905 187
238 807 232
239 38 560
240 610 303
241 635 599
242 266 273
243 160 961
244 610 199
245 761 276
246 568 865
247 397 721
248 423 983
249 239 847
250 330 653
251 307 662
252 81 59
253 357 955
254 123 426
255 28 874
256 820 222
257 228 758
258 972 613
259 776 209
260 577 160
261 293 429
262 852 781
263 343 789
264 492 948
265 823 661
266 193 141
267 602 498
268 412 553
269 415 158
270 382 42
271 1 486
272 382 334
273 497 141
274 251 476
275 70 672
276 154 539
277 822 847
278 593 573
279 915 235
280 681 808
281 972 28
282 717 124
283 619 669
284 859 453
285 615 988
286 240 554
287 847 459
288 189 652
289 515 845
290 625 873
291 308 612
292 803 434
293 592 840
294 662 92
295 879 454
296 784 7
297 287 625
298 442 982
299 844 461
300 324 736
301 505 739
302 668 124
303 966 56
304 648 984
305 705 165
306 771 758
307 643 891
308 930 487
309 754 167
310 529 232
311 835 623
312 649 742
313 864 278
314 379 515
315 152 618
316 530 125
317 748 966
318 794 447
319 441 116
320 495 888
321 734 107
322 623 131
323 842 466
324 869 433
325 557 697
326 419 952
327 987 50
328 692 664
329 626 817
330 203 625
331 887 426
332 675 757
333 853 362
334 246 660
335 194 527
336 644 895
337 246 544
338 672 902
339 816 214
340 619 709
341 164 411
342 943 552
343 288 411
344 655 956
345 720 138
346 743 460
347 660 568
348 886 352
349 375 573
350 488 528
351 868 505
352 561 673
353 856 126
354 900 17
355 871 351
356 544 696
357 459 776
358 541 257
359 885 418
360 556 622
361 443 205
362 559 106
363 840 180
364 715 74
365 103 373
366 879 347
367 923 503
368 819 389
369 588 69
370 833 434
371 831 507
372 589 695
373 865 351
374 202 605
375 815 96
376 843 150
377 944 461
378 197 668
379 791 305
380 574 826
381 733 935
382 807 679
383 468 732
384 609 656
385 666 76
386 568 205
387 802 286
388 712 80
389 218 449
390 914 624
391 537 863
392 862 484
393 336 666
394 62 678
395 869 431
396 995 86
397 737 314
398 851 39
399 649 895
400 278 480
401 743 173
402 909 106
403 407 905
404 662 941
405 234 442
406 984 38
407 584 667
408 624 9
409 615 986
410 690 580
411 725 65
412 821 470
413 926 460
414 779 78
415 871 94
416 560 796
417 616 675
418 973 189
419 699 19
420 989 17
421 786 720
422 679 710
423 290 543
424 887 516
425 828 401
426 633 696
427 702 64
428 816 442
429 501 973
430 567 951
431 653 134
432 605 770
433 544 972
434 465 620
435 914 529
436 810 491
437 173 471
438 914 548
439 803 366
440 625 38
441 860 113
442 736 168
443 459 508
444 602 884
445 723 145
446 723 696
447 644 653
448 478 427
449 694 521
450 191 588
451 663 791
452 659 188
453 700 411
454 677 609
455 731 580
456 610 105
457 548 155
458 103 585
459 363 542
460 615 90
461 909 473
462 501 937
463 981 71
464 563 789
465 842 508
466 706 155
467 904 130
468 543 567
469 951 14
470 583 963
471 803 5
472 997 36
473 916 439
474 163 492
475 117 572
476 570 35
477 538 21
478 789 108
479 119 667
480 186 678
481 935 216
482 68 669
483 653 116
484 494 839
485 92 755
486 598 137
487 246 562
488 822 278
489 521 156
490 31 373
491 518 956
492 304 521
493 918 124
494 949 54
495 905 132
496 595 694
497 882 445
498 753 45
499 206 365
500 959 557
501 983 471
502 712 137
503 818 383
504 662 684
505 615 759
506 717 11
507 637 657
508 807 419
509 389 951
510 757 185
511 294 482
512 475 464
513 725 970
514 566 971
515 714 5
516 588 715
517 782 808
518 891 415
519 614 647
520 688 869
521 763 96
522 205 708
523 885 493
524 570 972
525 273 424
526 636 107
527 536 88
528 972 618
529 994 28
530 475 786
531 993 34
532 847 29
533 601 7
534 743 509
535 481 877
536 654 629
537 829 429
538 562 686
539 797 386
540 194 570
541 712 142
542 681 104
543 38 680
544 606 919
DEMAND_SECTION
2 9
3 7
4 5
5 5
6 8
7 1
8 2
9 6
10 8
11 2
12 6
13 7
14 8
15 8
16 5
17 3
18 4
19 2
20 8
21 6
22 3
23 3
24 4
25 4
26 8
27 8
28 10
29 1
30 1
31 9
32 9
33 10
34 10
35 5
36 5
37 6
38 4
39 9
40 3
41 8
42 4
43 5
44 9
45 4
46 9
47 1
48 7
49 8
50 4
51 5
52 9
53 3
54 8
55 6
56 6
57 8
58 6
59 8
60 6
61 10
62 3
63 9
64 8
65 6
66 6
67 4
68 3
69 7
70 4
71 6
72 10
73 7
74 2
75 7
76 5
77 4
78 3
79 8
80 1
81 1
82 5
83 8
84 2
85 9
86 6
87 10
88 8
89 1
90 6
91 2
92 4
93 7
94 3
95 9
96 9
97 6
98 8
99 3
100 5
101 6
102 8
103 4
104 3
105 9
106 4
107 7
108 1
109 8
110 9
111 2
112 8
113 6
114 1
115 9
116 2
117 5
118 7
119 7
120 2
121 10
122 4
123 8
124 9
125 2
126 9
127 2
128 5
129 7
130 3
131 9
132 8
133 6
134 4
135 8
136 4
137 8
138 6
139 3
140 3
141 5
142 5
143 5
144 10
145 8
146 6
147 7
148 7
149 2
150 1
151 10
152 1
153 9
154 3
155 3
156 10
157 6
158 1
159 10
160 6
161 3
162 3
163 10
164 8
165 6
166 2
167 9
168 5
169 1
170 1
171 2
172 8
173 7
174 2
175 9
176 9
177 5
178 3
179 8
180 2
181 8
182 6
183 3
184 5
185 4
186 7
187 5
188 1
189 10
190 8
191 7
192 5
193 10
194 4
195 4
196 2
197 7
198 1
199 1
200 8
201 2
202 3
203 1
204 2
205 3
206 9
207 9
208 5
209 9
210 7
211 2
212 4
213 6
214 1
215 7
216 6
217 10
218 10
219 2
220 10
221 3
222 8
223 5
224 2
225 3
COVERAGE_SECTION
2 11 264 462 429 491 233 298 433 320 326 248 535 
3 11 530 301 357 383 84 230 484 416 464 289 356 
4 11 276 168 475 227 540 450 335 94 458 315 474 
5 11 10 44 61 485 479 480 236 275 522 394 482 
6 11 96 58 473 377 518 413 359 501 34 331 348 
7 11 126 255 194 93 13 117 108 192 236 142 47 
8 11 265 382 167 421 262 38 311 390 171 228 306 
9 10 91 250 393 291 251 297 127 349 175 459 
10 11 5 485 61 236 44 197 220 479 117 275 394 
11 11 119 81 205 490 365 144 199 70 187 202 209 
12 11 29 228 116 154 38 37 262 173 167 203 277 
13 11 126 7 255 93 194 108 142 243 47 117 192 
14 11 325 538 356 352 372 516 496 407 115 340 417 
15 11 373 355 366 333 348 45 313 503 439 368 34 
16 11 303 463 494 40 327 396 406 36 281 531 472 
17 11 132 215 66 184 216 46 191 133 266 19 69 
18 11 166 449 346 534 28 453 177 100 347 318 410 
19 11 69 133 215 270 66 132 46 17 216 178 184 
20 11 22 210 195 272 343 161 169 88 261 77 525 
21 11 466 305 541 150 502 345 445 302 431 282 452 
22 11 195 20 210 161 169 272 49 343 242 53 261 
23 11 181 389 405 139 53 341 437 525 274 499 219 
24 11 192 249 159 95 172 47 117 243 33 31 86 
25 11 158 213 190 509 403 253 326 233 248 298 86 
26 11 469 82 281 36 420 406 529 226 531 472 327 
27 11 539 439 503 368 50 425 508 224 71 157 45 
28 11 100 455 534 449 410 32 18 68 166 347 346 
29 11 116 12 37 154 203 228 186 180 277 262 232 
30 11 104 358 55 240 73 310 386 48 218 244 99 
31 11 257 125 163 249 300 198 263 522 159 24 172 
32 11 455 410 454 68 328 28 536 347 130 65 193 
33 11 95 110 172 159 86 253 190 249 158 24 47 
34 11 359 518 331 395 324 497 333 348 355 373 425 
35 11 225 222 176 266 191 51 184 216 46 132 242 
36 11 281 406 26 420 529 531 327 472 469 303 82 
37 11 116 180 29 186 154 277 155 232 203 12 135 
38 11 167 173 228 8 390 97 528 258 262 265 12 
39 11 89 210 272 361 51 162 242 222 22 269 176 
40 11 494 16 303 463 469 36 281 402 226 354 327 
41 8 179 476 533 120 477 408 369 440 
42 6 304 344 285 409 404 185 
43 11 206 101 177 453 201 240 397 71 157 224 99 
44 11 61 394 275 482 5 10 220 485 479 543 197 
45 11 379 50 439 387 27 71 15 488 503 539 333 
46 11 216 184 132 215 17 133 191 35 266 176 225 
47 11 243 108 142 95 93 194 24 192 33 7 249 
48 11 55 310 73 358 200 30 104 162 386 361 204 
49 11 169 161 499 195 242 22 181 187 53 70 199 
50 11 439 27 45 539 71 503 368 379 224 157 425 
51 11 176 222 89 35 225 46 39 216 269 129 178 
52 11 121 300 247 393 263 250 163 251 230 9 114 
53 11 525 343 181 261 405 23 169 161 134 389 274 
54 10 137 322 64 79 431 486 483 526 302 456 
55 11 358 73 310 48 30 104 200 386 204 240 244 
56 11 165 77 147 60 88 80 138 261 164 511 314 
57 11 272 174 204 48 210 88 55 39 448 162 358 
58 11 83 6 221 96 348 366 355 279 373 518 34 
59 11 188 542 302 282 294 502 388 483 541 345 385 
60 11 511 165 77 400 134 492 56 147 80 261 138 
61 11 44 485 220 394 10 275 5 482 197 543 234 
62 11 183 263 84 198 357 530 403 213 121 247 52 
63 11 432 505 118 90 464 312 329 416 516 340 451 
64 11 137 54 322 431 79 452 486 244 483 302 21 
65 11 447 536 507 519 136 283 504 384 454 328 417 
66 11 215 17 132 184 216 19 46 133 191 69 266 
67 11 196 430 246 391 491 544 462 444 433 470 320 
68 11 193 455 171 32 130 28 100 311 410 265 454 
69 11 133 19 270 178 129 215 46 216 132 17 184 
70 11 199 187 499 365 49 341 209 169 11 161 254 
71 11 101 224 50 157 397 27 439 539 45 379 503 
72 11 401 309 442 510 445 150 259 305 345 466 541 
73 11 310 55 358 48 386 200 30 104 489 457 244 
74 11 446 124 422 328 130 504 421 332 306 312 171 
75 10 438 109 435 342 424 500 390 367 97 351 
76 9 515 506 419 98 498 411 427 296 364 
77 11 165 56 60 261 147 343 511 80 88 134 525 
78 11 521 321 478 414 112 282 411 345 388 364 445 
79 10 322 486 54 137 456 526 64 431 483 460 
80 11 138 147 314 459 60 56 165 175 77 492 223 
81 11 119 205 11 144 490 202 199 365 70 187 209 
82 11 469 26 226 281 36 420 406 529 494 531 354 
83 11 58 221 6 279 481 148 96 348 418 366 107 
84 11 484 530 357 289 3 535 320 62 391 183 301 
85 11 452 99 218 244 64 137 21 54 305 229 431 
86 11 172 159 198 33 249 158 190 213 25 253 263 
87 11 152 271 254 209 490 365 227 239 474 437 341 
88 11 164 56 77 165 272 20 147 210 448 80 60 
89 11 51 269 129 176 39 361 178 162 222 319 111 
90 11 312 505 332 340 63 432 426 422 451 516 504 
91 10 9 291 250 297 251 393 127 349 175 423 
92 11 235 267 201 103 448 512 350 174 204 443 468 
93 11 194 7 126 108 255 47 142 243 13 192 117 
94 11 315 458 475 4 450 479 227 168 374 276 540 
95 11 33 47 243 110 24 172 159 142 108 249 86 
96 10 6 501 377 473 413 58 308 518 461 156 
97 11 258 528 390 500 342 75 438 167 173 38 435 
98 11 296 471 498 76 506 515 112 419 411 414 364 
99 11 218 85 452 229 244 240 30 153 206 64 305 
100 11 534 28 455 436 371 68 449 346 18 465 412 
101 11 397 71 206 224 157 43 50 245 379 45 439 
102 11 392 212 465 323 351 371 207 299 287 412 523 
103 11 512 448 443 350 164 105 235 211 92 88 268 
104 11 30 358 240 55 204 73 48 174 310 386 218 
105 11 211 350 443 268 103 512 223 468 434 146 314 
106 11 316 214 217 362 527 457 489 273 260 486 369 
107 11 148 418 182 143 123 481 237 279 396 493 189 
108 11 142 243 47 93 194 95 7 13 126 192 24 
109 11 424 75 351 435 438 523 465 207 367 102 392 
110 11 33 253 190 95 158 509 25 172 86 159 213 
111 11 319 170 273 217 269 489 316 129 106 361 527 
112 11 414 521 498 78 478 375 411 296 321 98 364 
113 11 415 402 441 467 353 495 493 40 398 375 376 
114 11 230 434 247 383 121 146 301 52 393 357 9 
115 11 407 384 519 283 417 352 496 372 136 538 507 
116 11 29 37 12 154 186 180 203 277 228 232 262 
117 11 236 192 485 197 10 7 194 220 255 24 93 
118 11 416 464 380 63 432 293 140 329 505 246 391 
119 11 11 81 205 490 144 365 199 70 187 202 209 
120 9 477 41 179 476 533 408 369 440 527 
121 11 247 52 300 230 263 393 114 250 383 62 357 
122 11 437 474 139 335 389 276 219 274 23 405 4 
123 11 182 143 418 148 493 237 495 189 467 107 481 
124 11 74 422 446 328 504 332 312 90 426 130 306 
125 11 522 257 163 31 480 378 334 288 300 251 5 
126 11 7 255 194 93 13 117 108 192 236 197 142 
127 11 349 175 459 223 268 314 138 91 9 80 291 
128 11 239 543 482 275 394 458 475 227 94 479 44 
129 11 178 319 269 270 170 111 89 69 133 51 273 
130 11 171 193 446 68 382 74 328 265 32 421 124 
131 11 428 537 292 370 508 318 425 412 299 287 323 
132 11 17 184 216 215 46 66 191 133 266 19 69 
133 11 69 19 46 215 270 216 132 178 184 129 17 
134 11 400 511 274 219 261 525 60 405 53 343 389 
135 11 517 277 232 306 262 154 421 520 280 231 141 
136 11 417 283 426 507 384 447 519 340 496 504 115 
137 11 64 54 322 79 486 431 244 452 483 260 526 
138 11 80 314 147 459 175 60 223 127 56 165 268 
139 11 389 405 23 437 122 274 219 181 474 341 335 
140 11 380 246 293 391 118 416 289 464 444 329 290 
141 10 520 338 399 307 336 290 231 280 404 329 
142 11 108 243 47 93 194 95 13 7 24 126 192 
143 11 182 418 123 148 107 481 237 189 279 493 495 
144 11 205 81 202 119 11 145 490 252 199 70 365 
145 11 160 252 202 144 205 191 266 17 81 66 184 
146 11 434 360 468 114 352 211 350 105 356 538 325 
147 11 80 138 314 56 165 60 77 459 164 175 511 
148 11 418 143 107 182 123 481 237 279 189 493 208 
149 11 295 207 497 284 392 461 523 324 287 395 299 
150 11 541 445 345 502 466 305 282 21 442 401 72 
151 10 513 317 381 185 155 42 231 304 344 404 
152 11 87 254 227 271 209 474 239 437 276 475 4 
153 11 229 259 245 510 72 401 238 442 309 339 305 
154 11 262 277 135 517 232 116 228 37 29 12 306 
155 11 180 317 151 513 381 37 185 232 231 186 277 
156 10 501 500 342 308 377 367 435 413 438 461 
157 11 224 71 539 27 453 50 101 439 508 346 292 
158 11 25 213 190 253 509 403 326 86 233 248 172 
159 11 172 86 249 198 33 24 95 31 158 190 263 
160 11 145 252 202 144 17 66 191 205 266 132 184 
161 11 169 49 195 53 499 22 343 181 525 20 261 
162 11 361 200 269 48 273 111 310 489 73 319 89 
163 11 125 300 251 334 257 31 393 522 250 52 297 
164 11 88 512 448 103 147 56 443 80 138 165 314 
165 11 77 56 60 147 261 80 511 138 343 88 134 
166 11 449 18 534 28 346 347 267 410 177 453 100 
167 11 38 173 390 8 97 228 528 258 265 311 262 
168 11 540 450 4 276 335 374 286 315 330 487 94 
169 11 161 49 195 499 53 343 22 181 525 20 261 
170 11 111 319 217 273 129 316 527 269 106 178 489 
171 11 193 130 382 265 68 311 421 446 32 455 74 
172 11 159 86 33 249 198 95 158 24 190 110 253 
173 11 38 167 528 258 97 228 390 8 500 12 342 
174 11 204 57 104 448 55 358 30 48 240 201 92 
175 11 459 127 349 492 314 138 423 80 223 268 291 
176 11 51 222 35 225 89 46 216 184 266 191 242 
177 11 453 43 201 18 157 224 206 346 166 101 71 
178 11 129 270 319 69 133 269 170 111 89 19 51 
179 8 41 476 533 120 477 369 440 408 
180 11 155 37 186 116 203 317 232 151 29 277 381 
181 11 23 405 53 389 499 525 139 341 169 161 343 
182 11 143 123 418 148 107 481 237 189 493 495 467 
183 11 62 263 198 84 213 357 403 530 158 25 121 
184 11 216 132 46 191 17 266 215 225 35 66 133 
185 10 231 381 513 404 317 344 338 151 42 304 
186 11 203 180 37 116 29 155 12 154 277 232 317 
187 11 70 199 499 365 341 49 209 254 181 169 23 
188 11 59 542 282 388 502 302 321 364 294 345 541 
189 11 237 208 495 467 493 123 376 363 353 143 481 
190 11 253 158 25 509 213 403 326 248 110 233 86 
191 11 266 184 225 216 35 46 132 17 215 176 222 
192 11 24 117 249 194 93 236 47 243 7 159 95 
193 11 171 68 130 265 311 382 455 32 421 446 74 
194 11 93 7 126 108 255 47 13 142 243 192 117 
195 11 22 161 169 20 49 210 242 343 53 272 499 
196 8 430 67 470 544 514 524 433 444 
197 11 220 485 236 234 61 44 10 117 5 394 543 
198 11 86 263 172 159 183 62 249 31 158 213 300 
199 11 70 187 499 365 49 11 119 341 209 242 81 
200 11 48 162 310 361 73 55 358 489 273 386 457 
201 11 177 43 92 453 235 240 206 204 267 174 104 
202 11 144 205 252 81 145 266 119 191 11 225 160 
203 11 186 116 37 29 180 12 155 154 277 232 228 
204 11 174 104 57 358 30 55 240 48 448 201 73 
205 11 81 144 119 11 202 490 199 70 365 187 145 
206 11 43 101 397 71 453 177 157 224 240 99 229 
207 11 523 392 149 351 102 295 424 461 284 212 287 
208 11 237 189 279 363 481 256 376 339 143 123 313 
209 11 254 341 365 437 87 187 152 474 23 499 139 
210 11 20 22 272 195 39 88 161 169 242 343 57 
211 11 105 443 350 268 223 103 512 434 314 146 349 
212 11 323 102 299 287 392 412 465 284 371 436 207 
213 11 25 158 403 190 509 253 326 233 183 86 248 
214 11 457 106 316 362 260 489 486 217 527 79 273 
215 11 132 17 66 216 46 184 133 19 69 191 266 
216 11 46 184 132 17 191 215 133 266 35 225 176 
217 11 316 106 527 273 362 489 214 170 111 457 319 
218 11 99 85 240 244 452 30 229 386 64 104 206 
219 11 274 400 134 405 511 389 139 337 525 122 23 
220 11 197 234 61 485 44 236 543 394 10 275 482 
221 11 348 366 83 58 313 355 373 15 279 333 6 
222 11 176 35 51 225 242 89 266 39 46 191 216 
223 11 268 349 459 127 314 211 138 175 80 105 443 
224 11 157 71 539 27 50 101 453 439 508 503 368 
225 11 35 266 191 222 176 184 216 46 51 132 242 
226 11 469 82 26 354 281 36 494 40 420 303 406 
227 11 475 458 4 276 94 239 152 168 315 474 540 
228 11 38 12 167 173 154 262 8 29 116 277 390 
229 11 153 245 99 397 259 510 218 401 72 85 442 
230 11 383 247 357 114 121 3 301 530 52 84 62 
231 10 381 185 338 520 404 513 141 317 399 344 
232 11 277 135 517 381 154 231 317 37 520 262 155 
233 11 326 403 2 298 264 509 248 25 213 462 535 
234 11 220 197 543 61 44 394 485 275 482 236 10 
235 11 92 267 103 512 448 201 350 443 468 105 174 
236 11 485 117 197 10 220 61 5 44 234 192 394 
237 11 189 208 481 123 279 143 182 495 467 493 363 
238 11 256 339 259 488 387 363 245 153 510 313 379 
239 11 128 227 458 475 271 152 87 94 4 482 275 
240 11 30 104 218 99 43 358 206 55 201 204 85 
241 11 536 347 454 65 278 519 447 410 507 384 283 
242 11 195 49 222 22 161 169 210 39 176 20 35 
243 11 47 108 142 95 93 194 24 192 33 7 126 
244 11 386 85 64 137 452 260 54 486 218 79 322 
245 11 379 387 397 229 153 488 238 45 101 259 256 
246 11 140 391 293 380 444 67 289 290 196 544 118 
247 11 121 52 230 114 383 300 393 357 263 250 62 
248 11 298 326 509 233 2 25 253 190 264 429 403 
249 11 159 24 172 31 86 192 198 257 33 95 263 
250 11 393 9 251 91 291 297 52 163 300 334 121 
251 10 250 393 297 9 91 291 163 334 300 52 
252 11 145 160 202 191 17 266 66 184 132 144 215 
253 11 190 509 25 158 213 326 110 403 248 233 33 
254 11 209 341 365 437 87 152 474 122 187 23 139 
255 11 126 7 194 93 13 117 236 197 192 108 485 
256 11 339 238 259 363 488 387 208 313 510 376 153 
257 11 31 125 522 163 249 480 378 300 334 5 10 
258 11 528 97 500 390 342 173 75 438 167 38 435 
259 11 510 238 339 153 72 256 309 401 442 229 245 
260 11 457 486 214 386 79 137 244 322 54 106 64 
261 11 343 525 53 134 77 165 400 511 60 405 274 
262 11 154 277 517 8 135 306 421 228 232 382 38 
263 11 198 300 183 62 52 121 31 247 86 163 159 
264 11 2 462 429 491 233 433 298 320 67 535 326 
265 11 382 311 171 193 8 130 421 68 390 446 306 
266 11 191 225 35 184 216 46 132 17 222 176 51 
267 11 235 92 278 166 347 468 449 18 201 241 177 
268 11 223 349 211 314 459 127 105 138 443 175 80 
269 11 319 89 361 111 129 162 170 178 273 200 51 
270 11 178 69 129 133 19 319 170 111 269 89 46 
271 11 87 152 239 490 227 128 254 458 209 475 365 
272 11 210 20 57 22 88 39 195 56 77 164 165 
273 11 489 217 316 111 106 170 457 214 319 527 362 
274 11 219 134 400 405 389 511 139 525 23 261 53 
275 11 482 394 543 44 61 479 220 128 5 234 10 
276 11 4 168 335 474 227 475 540 122 450 458 94 
277 11 135 232 154 517 262 37 306 116 381 231 421 
278 11 241 468 360 347 267 519 536 115 384 454 65 
279 11 481 208 237 313 143 189 148 182 418 221 123 
280 11 451 332 329 520 141 312 90 505 63 432 290 
281 11 36 406 26 420 529 531 469 472 327 303 82 
282 11 345 502 541 445 150 321 188 59 466 542 21 
283 11 417 136 384 507 519 115 426 447 407 496 340 
284 11 287 299 295 323 324 395 497 149 212 392 370 
285 5 409 304 470 42 524 
286 10 487 337 540 423 335 168 450 374 492 219 
287 11 299 323 284 212 412 370 392 102 295 324 428 
288 11 378 480 330 374 315 334 522 450 94 479 125 
289 11 484 391 320 535 84 140 246 380 416 530 464 
290 11 307 444 336 399 293 544 141 338 329 246 520 
291 10 91 297 9 250 251 393 175 127 423 334 
292 11 131 428 318 508 537 370 412 425 368 539 299 
293 11 380 140 246 329 118 444 290 416 464 391 432 
294 8 385 542 483 526 302 59 188 431 
295 11 497 149 284 324 395 331 207 287 392 299 359 
296 11 471 98 498 112 76 506 532 515 414 398 411 
297 10 291 91 251 9 250 334 393 487 423 330 
298 11 248 326 233 2 264 429 509 462 491 25 403 
299 11 287 323 212 284 412 102 370 392 428 537 295 
300 11 52 163 121 263 393 247 251 31 250 125 257 
301 11 3 383 530 356 357 230 14 325 464 538 416 
302 10 483 431 542 59 294 188 526 21 54 322 
303 11 16 494 463 327 406 36 281 40 531 472 529 
304 5 42 344 285 409 404 
305 11 466 21 150 541 445 502 345 442 401 282 72 
306 11 421 517 135 74 446 124 262 382 332 130 277 
307 10 336 399 290 338 141 444 544 520 404 344 
308 10 367 461 413 377 435 523 473 207 424 149 
309 11 72 401 442 510 445 150 345 259 305 466 541 
310 11 73 55 48 358 200 386 30 104 489 457 162 
311 11 265 193 171 382 68 390 8 130 75 109 97 
312 11 90 332 505 422 340 426 451 63 432 504 124 
313 11 488 15 387 279 221 256 366 238 355 373 208 
314 11 138 80 459 147 223 268 175 127 349 60 56 
315 11 94 450 288 330 374 475 458 479 168 4 540 
316 11 106 217 214 489 362 457 273 527 260 111 486 
317 11 513 151 381 185 231 155 42 404 344 338 304 
318 11 292 428 131 508 412 537 370 436 299 323 346 
319 11 111 170 129 269 273 178 217 316 361 489 162 
320 11 535 289 391 462 484 264 67 2 233 84 491 
321 11 282 78 521 345 388 188 502 364 445 541 59 
322 10 79 54 137 486 526 456 431 64 483 460 
323 11 299 287 212 284 412 102 392 370 428 295 537 
324 11 395 497 331 284 359 295 518 34 287 149 370 
325 11 14 538 356 352 372 516 496 407 115 340 417 
326 11 233 509 248 298 25 403 213 190 253 158 2 
327 11 406 472 531 303 463 529 36 281 16 420 396 
328 11 504 74 446 65 422 124 447 536 507 454 32 
329 11 293 451 118 432 63 380 280 290 505 140 416 
330 10 374 288 450 378 315 334 480 540 168 94 
331 11 359 518 324 395 497 34 295 473 149 284 287 
332 11 312 90 451 422 280 124 505 63 432 74 340 
333 11 373 355 15 366 348 503 368 425 34 439 27 
334 10 378 297 330 288 163 251 480 522 125 374 
335 11 122 168 276 540 474 4 286 337 437 450 487 
336 10 307 399 290 338 141 444 544 404 520 344 
337 10 286 487 423 335 540 219 492 168 274 450 
338 10 399 336 141 307 520 404 231 185 290 344 
339 11 256 238 259 363 488 510 376 208 387 153 309 
340 11 426 496 516 136 372 417 283 90 312 504 505 
341 11 209 254 23 181 437 499 139 389 187 365 405 
342 10 500 438 435 75 367 97 109 308 424 156 
343 11 261 525 53 134 77 161 169 405 165 181 20 
344 7 404 304 42 185 409 285 338 
345 11 445 502 541 150 282 466 305 321 442 21 188 
346 11 18 534 318 292 453 157 166 224 436 428 100 
347 11 410 241 454 449 536 32 278 455 166 28 65 
348 11 366 355 373 15 333 34 221 518 359 331 503 
349 11 127 223 459 175 268 314 138 9 91 80 291 
350 11 105 211 443 103 512 468 268 146 223 235 434 
351 11 523 207 392 424 102 465 109 371 212 149 323 
352 11 538 325 407 14 356 115 372 496 516 360 384 
353 11 441 376 415 113 467 495 375 363 402 189 493 
354 11 226 469 40 82 398 532 494 26 281 36 113 
355 11 373 366 348 15 333 34 503 368 425 518 221 
356 11 325 14 538 352 372 516 407 496 301 115 360 
357 11 530 3 383 84 230 301 484 62 183 247 289 
358 11 55 73 310 48 30 104 386 200 240 204 244 
359 11 518 331 34 395 324 497 295 473 284 149 370 
360 11 115 352 407 146 468 278 384 519 538 325 356 
361 11 162 200 269 48 111 273 89 319 39 310 489 
362 11 106 214 527 316 217 369 457 486 456 260 460 
363 11 376 339 256 208 353 189 238 237 259 441 467 
364 11 388 411 427 188 321 59 542 498 385 282 78 
365 11 209 254 187 341 490 70 199 11 87 119 499 
366 11 348 355 373 15 333 34 221 518 313 359 503 
367 10 308 435 461 424 523 413 438 377 207 342 
368 11 503 425 539 27 439 508 537 50 333 131 370 
369 7 460 476 456 179 362 440 41 
370 11 537 131 428 287 299 292 508 284 323 425 324 
371 11 465 102 436 212 351 412 392 323 299 287 207 
372 11 496 516 407 538 14 325 340 417 352 115 283 
373 11 355 366 15 333 348 34 503 368 425 439 45 
374 10 330 450 540 168 288 315 487 378 286 94 
375 11 478 414 112 441 353 521 78 415 376 398 113 
376 11 353 363 441 189 375 415 467 495 478 208 339 
377 10 413 308 473 461 501 367 149 96 497 295 
378 11 480 288 522 330 334 125 374 315 479 450 5 
379 11 387 45 488 245 50 397 439 71 101 15 238 
380 11 140 293 118 416 246 464 391 329 289 432 444 
381 10 231 185 317 513 151 338 404 520 344 141 
382 11 265 171 421 193 130 8 311 446 68 306 74 
383 11 230 301 3 357 530 114 247 356 84 121 14 
384 11 519 283 115 417 136 407 507 447 496 65 372 
385 8 294 542 427 59 483 526 188 388 
386 11 244 73 260 310 457 358 55 30 489 214 48 
387 11 379 488 245 45 238 313 256 50 397 339 15 
388 11 364 427 411 188 321 59 542 282 385 294 78 
389 11 139 405 23 181 274 219 437 122 53 134 525 
390 11 97 528 258 75 167 438 342 311 500 38 173 
391 11 289 246 140 320 484 67 380 535 293 444 416 
392 11 102 207 212 351 523 323 149 287 299 284 465 
393 11 250 251 9 91 291 52 297 300 121 163 247 
394 11 275 482 543 44 61 479 220 234 128 5 485 
395 11 324 331 497 359 284 295 518 34 149 287 370 
396 11 463 16 327 303 406 472 531 494 529 36 281 
397 11 101 245 71 206 379 45 229 50 387 224 157 
398 11 532 354 415 471 113 375 296 441 112 414 40 
399 10 336 307 338 290 141 520 404 444 544 344 
400 11 134 511 274 219 60 492 261 525 405 423 389 
401 11 72 442 309 510 445 150 305 466 345 541 502 
402 11 493 467 495 113 415 441 40 353 16 189 494 
403 11 213 25 233 158 326 509 190 253 535 248 183 
404 8 344 338 185 304 399 42 336 307 
405 11 389 23 181 139 274 53 219 525 134 400 261 
406 11 531 327 472 36 529 281 420 303 26 463 494 
407 11 115 352 384 372 496 538 417 283 519 14 325 
408 5 533 440 41 179 476 
409 5 285 304 470 524 42 
410 11 347 454 32 455 28 241 449 536 65 68 166 
411 11 364 388 427 498 321 188 521 78 419 506 59 
412 11 323 212 436 299 287 428 102 318 131 370 371 
413 10 377 461 473 308 367 149 497 295 331 523 
414 11 112 521 78 478 375 498 321 411 364 388 296 
415 11 113 441 353 402 467 495 375 493 398 376 532 
416 11 464 118 380 140 63 432 293 505 289 246 329 
417 11 283 136 384 426 496 507 519 115 407 340 372 
418 11 148 143 182 107 123 481 237 279 189 493 208 
419 8 506 515 76 427 411 364 498 388 
420 11 529 531 36 281 472 26 406 327 469 82 303 
421 11 306 382 446 130 74 265 171 8 124 517 193 
422 11 124 504 74 312 446 332 328 426 90 340 136 
423 10 492 337 487 286 175 511 400 291 60 219 
424 11 351 109 523 435 207 367 392 438 102 465 461 
425 11 368 503 508 537 370 131 539 27 292 428 439 
426 11 340 136 417 283 504 496 507 372 447 384 422 
427 10 364 388 411 385 188 419 542 59 294 321 
428 11 131 292 537 370 318 508 412 299 287 323 425 
429 10 491 264 2 462 433 298 514 524 430 233 
430 8 470 514 524 196 433 67 491 544 
431 10 302 483 54 322 526 64 137 79 21 542 
432 11 63 505 118 90 464 329 312 416 516 451 340 
433 9 514 524 430 491 470 429 196 462 264 
434 11 146 114 211 268 105 223 360 468 350 349 352 
435 10 438 367 424 109 342 75 308 523 351 500 
436 11 412 371 212 465 102 323 299 318 287 428 392 
437 11 122 474 139 389 23 335 341 254 405 276 209 
438 10 435 75 342 109 424 367 500 523 308 351 
439 11 50 27 539 503 368 45 425 71 333 508 224 
440 4 408 533 369 179 
441 11 353 415 113 376 467 375 402 495 493 189 363 
442 11 401 72 309 445 510 150 305 466 345 541 502 
443 11 105 211 350 103 512 268 164 223 314 448 138 
444 11 290 544 246 307 336 293 399 196 140 67 380 
445 11 150 345 541 502 466 282 442 305 401 21 72 
446 11 74 124 328 422 130 504 421 306 332 171 382 
447 11 507 65 536 136 283 519 384 417 504 426 328 
448 11 512 103 164 235 443 92 174 88 204 350 105 
449 11 166 18 28 534 347 410 455 100 346 32 454 
450 11 540 374 168 330 315 4 286 94 276 335 487 
451 11 280 332 329 90 312 505 63 432 141 118 520 
452 11 85 64 21 137 244 305 54 431 466 99 302 
453 11 177 157 224 346 43 18 71 206 101 166 201 
454 11 536 410 32 241 65 347 447 328 455 507 519 
455 11 32 28 68 410 100 454 449 347 534 193 130 
456 8 460 526 79 322 486 369 54 483 
457 11 214 489 260 106 316 362 273 486 386 217 527 
458 11 475 227 94 4 315 276 239 128 168 479 450 
459 11 175 127 314 349 138 223 80 268 147 492 423 
460 7 456 526 369 79 322 483 294 
461 10 413 308 149 523 207 367 473 295 377 497 
462 11 264 2 491 429 320 433 67 233 535 430 514 
463 11 16 303 396 327 406 494 472 531 36 281 529 
464 11 416 118 380 432 63 140 293 505 329 3 289 
465 11 371 102 351 212 392 436 323 207 412 424 523 
466 11 305 150 541 21 502 445 345 282 442 401 72 
467 11 495 493 402 189 113 441 353 415 123 237 376 
468 11 278 360 146 350 105 211 267 434 241 115 443 
469 11 82 26 226 281 36 420 494 406 303 529 531 
470 5 524 514 430 196 409 
471 11 296 98 532 398 498 112 414 76 506 515 375 
472 11 531 529 406 327 420 36 281 303 463 26 16 
473 11 413 331 461 497 518 377 359 295 149 324 395 
474 11 122 437 335 276 139 4 389 254 168 341 23 
475 11 458 227 4 94 276 315 168 450 540 239 335 
476 8 179 41 477 369 120 533 440 408 
477 10 120 476 41 179 533 527 369 408 362 440 
478 11 375 521 78 414 112 321 376 309 353 441 498 
479 11 275 482 5 44 394 315 61 94 480 288 10 
480 11 378 288 522 330 125 334 479 5 315 374 94 
481 11 279 143 237 148 182 418 208 123 189 107 495 
482 11 275 394 543 44 61 479 128 220 234 5 10 
483 10 302 431 526 294 542 322 54 59 79 385 
484 11 289 84 535 320 391 530 3 140 357 246 416 
485 11 236 10 197 61 220 44 5 117 234 394 275 
486 11 79 322 260 54 137 456 214 64 526 362 460 
487 10 286 337 423 540 450 168 374 335 492 297 
488 11 387 379 313 238 45 256 245 339 15 259 50 
489 11 457 273 316 106 214 217 260 362 111 200 386 
490 11 365 11 119 87 209 81 254 152 271 187 205 
491 11 429 462 264 433 2 430 514 524 67 196 470 
492 11 423 511 60 400 175 134 337 459 80 138 219 
493 11 467 495 402 113 123 189 415 441 353 237 40 
494 11 303 40 16 36 281 463 327 406 469 26 226 
495 11 467 493 402 189 113 353 441 123 415 237 376 
496 11 372 516 340 417 407 538 136 283 115 14 325 
497 11 295 324 395 149 331 284 359 518 473 287 461 
498 11 411 112 98 414 364 296 506 521 388 427 76 
499 11 49 181 169 187 161 341 23 70 53 199 405 
500 10 342 438 435 258 75 156 97 528 367 308 
501 10 377 156 308 96 413 367 461 473 6 500 
502 11 541 345 150 282 445 466 305 21 188 59 321 
503 11 368 27 425 539 439 50 508 333 537 131 292 
504 11 422 426 328 447 136 507 65 283 417 124 340 
505 11 63 432 90 312 340 118 516 451 329 332 464 
506 10 76 515 419 98 498 411 427 364 296 388 
507 11 447 65 283 136 519 384 417 536 504 426 115 
508 11 292 131 537 428 425 370 318 368 539 27 503 
509 11 25 326 190 253 158 213 248 403 233 298 110 
510 11 72 309 401 442 259 153 445 150 305 466 345 
511 11 400 134 60 492 274 219 261 165 77 423 525 
512 11 103 448 443 164 350 105 235 211 92 88 147 
513 10 317 151 185 381 231 42 404 344 304 155 
514 7 524 470 430 433 196 491 409 
515 9 76 506 419 98 498 427 411 364 296 
516 11 372 496 340 14 325 538 356 407 417 426 352 
517 11 135 306 277 232 262 154 421 280 520 332 451 
518 11 359 331 34 395 324 497 473 295 284 149 413 
519 11 384 283 115 507 417 447 136 407 65 536 496 
520 11 141 338 399 307 336 231 280 290 404 185 381 
521 11 78 414 478 321 112 411 375 498 364 388 282 
522 11 125 480 378 257 288 334 163 5 330 31 10 
523 11 207 351 424 392 149 461 102 295 367 109 308 
524 7 514 470 430 433 196 409 285 
525 11 53 343 261 134 405 181 274 400 23 389 219 
526 9 483 456 322 460 294 431 79 302 54 
527 11 362 106 217 316 214 369 476 273 477 457 489 
528 11 258 97 390 500 173 342 167 38 75 438 435 
529 11 531 472 420 406 36 281 327 26 303 463 469 
530 11 357 3 84 383 301 484 230 289 62 416 464 
531 11 472 529 406 327 420 36 281 26 303 463 469 
532 11 398 471 354 296 415 113 375 112 414 441 98 
533 7 408 41 179 440 476 120 369 
534 11 100 28 18 346 449 166 436 455 318 412 371 
535 11 320 484 289 84 391 462 233 2 264 67 403 
536 11 65 447 454 507 241 519 328 384 283 136 504 
537 11 370 131 428 508 292 425 287 299 284 318 323 
538 11 325 14 352 356 372 407 496 516 115 417 384 
539 11 27 439 503 368 50 425 508 224 292 157 71 
540 10 168 450 374 335 4 286 276 487 330 337 
541 11 502 150 345 445 466 282 305 21 442 59 188 
542 9 59 188 294 302 483 385 388 282 431 
543 11 394 482 275 44 234 61 220 128 479 197 485 
544 7 196 444 336 307 399 290 430 
DEPOT_SECTION
   1
   -1
EOF
