NAME :  X-n586-kX-w117-c9.cctp
COMMENT : 	Adapted by Maziero, Usberti and Cavellucci from the Uchoa, Pecin, Pessoa, Poggi, Subramanian, and Vidal (2013)
TYPE :  CCTP
DIMENSION :    439
EDGE_WEIGHT_TYPE : 	EUC_2D	
CAPACITY : 	28
VERTICES_WITHIN_COVERAGE :  9
VERTICES_WITH_DEMAND : 	117
NODE_COORD_SECTION
1 18 761
2 835 397
3 299 16
4 31 168
5 142 257
6 242 984
7 612 357
8 663 812
9 105 188
10 487 636
11 993 703
12 672 148
13 506 259
14 953 706
15 888 203
16 107 534
17 772 692
18 475 182
19 828 775
20 719 220
21 655 722
22 844 197
23 918 600
24 460 844
25 739 102
26 301 523
27 341 627
28 989 936
29 935 602
30 44 72
31 861 67
32 163 416
33 981 503
34 722 397
35 317 903
36 547 95
37 944 106
38 935 192
39 128 376
40 908 176
41 720 226
42 738 793
43 791 498
44 712 751
45 530 693
46 141 673
47 380 544
48 634 301
49 427 853
50 606 949
51 47 557
52 48 202
53 791 67
54 546 876
55 526 842
56 535 216
57 828 214
58 829 352
59 623 473
60 374 1000
61 74 187
62 275 415
63 726 789
64 51 597
65 894 395
66 159 743
67 301 893
68 755 946
69 978 261
70 709 153
71 391 153
72 876 370
73 846 725
74 604 107
75 117 709
76 507 89
77 348 744
78 476 204
79 181 957
80 948 710
81 158 788
82 414 685
83 358 66
84 196 732
85 283 343
86 456 931
87 5 468
88 459 43
89 555 414
90 94 964
91 558 360
92 641 424
93 132 16
94 777 947
95 25 205
96 852 45
97 5 686
98 400 682
99 501 234
100 905 968
101 492 971
102 817 114
103 651 941
104 817 643
105 735 937
106 333 829
107 223 584
108 306 412
109 209 663
110 206 549
111 542 691
112 296 10
113 215 747
114 148 641
115 9 553
116 411 59
117 382 800
118 824 612
119 608 727
120 481 574
121 169 950
122 350 608
123 396 536
124 36 459
125 359 339
126 798 917
127 10 569
128 813 10
129 569 627
130 692 467
131 247 413
132 738 487
133 508 327
134 158 986
135 983 244
136 637 109
137 177 207
138 357 374
139 361 972
140 365 701
141 582 957
142 712 996
143 932 452
144 60 66
145 252 267
146 944 435
147 338 688
148 900 168
149 583 871
150 852 59
151 921 72
152 845 534
153 387 253
154 812 354
155 5 404
156 590 575
157 930 128
158 184 742
159 832 466
160 285 346
161 548 976
162 32 531
163 966 58
164 31 40
165 162 539
166 621 425
167 802 495
168 385 493
169 769 329
170 921 15
171 64 106
172 854 678
173 943 122
174 103 285
175 304 739
176 398 212
177 335 459
178 43 108
179 400 255
180 822 749
181 783 760
182 218 360
183 321 463
184 403 172
185 32 134
186 218 490
187 44 456
188 430 570
189 509 572
190 424 936
191 639 505
192 984 435
193 479 341
194 207 937
195 709 700
196 235 795
197 557 130
198 270 964
199 482 320
200 836 272
201 509 379
202 961 329
203 819 754
204 648 809
205 640 892
206 838 79
207 552 232
208 831 306
209 503 726
210 486 958
211 571 837
212 162 504
213 458 845
214 378 389
215 458 127
216 929 786
217 364 368
218 579 971
219 662 173
220 320 524
221 894 787
222 428 736
223 554 560
224 94 22
225 581 840
226 693 830
227 355 662
228 24 276
229 946 348
230 844 433
231 877 594
232 556 739
233 503 462
234 264 505
235 782 143
236 919 703
237 958 559
238 90 181
239 794 485
240 267 35
241 322 883
242 376 52
243 487 982
244 541 423
245 36 607
246 101 687
247 657 754
248 372 421
249 695 294
250 174 686
251 128 560
252 926 32
253 540 223
254 334 635
255 125 661
256 473 467
257 129 401
258 247 415
259 725 544
260 284 155
261 200 281
262 822 540
263 306 433
264 216 59
265 887 520
266 714 539
267 780 97
268 464 94
269 951 329
270 785 333
271 677 811
272 232 689
273 595 733
274 690 901
275 457 905
276 735 816
277 37 189
278 332 670
279 16 13
280 17 419
281 986 893
282 2 931
283 603 900
284 495 820
285 452 820
286 846 825
287 625 965
288 474 942
289 350 832
290 267 929
291 456 850
292 475 917
293 254 899
294 132 768
295 437 848
296 140 810
297 449 950
298 186 798
299 322 852
300 270 978
301 954 920
302 389 874
303 273 852
304 900 963
305 478 868
306 563 823
307 162 793
308 444 918
309 541 906
310 34 189
311 130 980
312 237 386
313 520 908
314 517 985
315 815 899
316 539 823
317 55 50
318 498 853
319 121 190
320 72 175
321 744 860
322 479 941
323 44 63
324 43 203
325 115 299
326 185 933
327 5 191
328 15 221
329 366 999
330 898 981
331 214 965
332 677 912
333 471 869
334 188 671
335 312 929
336 976 943
337 51 48
338 40 708
339 183 409
340 424 921
341 877 967
342 27 179
343 171 936
344 932 1000
345 455 869
346 463 837
347 435 847
348 353 670
349 187 752
350 464 978
351 128 303
352 59 408
353 319 870
354 887 957
355 473 816
356 138 202
357 406 825
358 388 728
359 78 745
360 287 734
361 181 611
362 444 964
363 367 966
364 7 136
365 127 532
366 408 873
367 808 928
368 430 951
369 94 257
370 7 126
371 432 821
372 181 936
373 128 179
374 322 943
375 343 786
376 153 220
377 321 964
378 912 951
379 105 265
380 32 133
381 428 946
382 21 156
383 47 175
384 459 932
385 165 773
386 146 938
387 34 140
388 900 958
389 215 989
390 444 821
391 963 961
392 102 310
393 126 686
394 819 967
395 282 720
396 421 731
397 513 812
398 96 713
399 437 876
400 789 981
401 996 910
402 578 807
403 138 750
404 899 754
405 203 473
406 480 960
407 258 899
408 127 344
409 461 949
410 437 847
411 465 817
412 102 191
413 84 185
414 377 879
415 660 782
416 171 812
417 35 216
418 74 67
419 440 953
420 110 175
421 617 832
422 617 787
423 501 842
424 390 969
425 59 73
426 913 979
427 387 735
428 121 746
429 128 998
430 517 952
431 586 955
432 474 852
433 234 798
434 131 189
435 481 981
436 160 987
437 98 917
438 422 862
439 81 228
DEMAND_SECTION
2 9
3 7
4 6
5 5
6 7
7 10
8 9
9 8
10 9
11 8
12 6
13 6
14 5
15 10
16 9
17 7
18 9
19 7
20 9
21 6
22 5
23 7
24 10
25 7
26 6
27 9
28 9
29 10
30 7
31 7
32 9
33 10
34 5
35 6
36 8
37 10
38 8
39 5
40 8
41 10
42 8
43 10
44 7
45 5
46 8
47 9
48 7
49 10
50 5
51 6
52 10
53 9
54 9
55 10
56 6
57 8
58 10
59 9
60 10
61 9
62 7
63 5
64 8
65 10
66 6
67 9
68 5
69 7
70 8
71 8
72 10
73 10
74 5
75 8
76 8
77 8
78 6
79 10
80 6
81 9
82 7
83 9
84 10
85 6
86 9
87 6
88 10
89 5
90 9
91 8
92 5
93 5
94 5
95 10
96 5
97 8
98 6
99 6
100 10
101 6
102 5
103 10
104 7
105 9
106 5
107 8
108 8
109 6
110 5
111 6
112 5
113 6
114 6
115 7
116 8
117 6
118 6
COVERAGE_SECTION
2 9 230 58 72 154 65 159 270 208 169 
3 7 112 240 83 242 264 116 260 
4 9 342 382 383 310 277 387 185 327 380 
5 9 379 376 174 351 369 325 356 137 261 
6 9 389 300 198 331 194 290 79 326 372 
7 9 91 48 166 92 89 244 249 201 133 
8 9 271 204 415 226 421 422 247 63 276 
9 8 412 420 319 238 413 373 434 61 
10 9 120 189 45 111 129 188 82 209 98 
11 9 14 80 236 216 404 29 23 221 172 
12 9 219 70 136 74 25 20 41 235 197 
13 9 99 253 56 207 78 199 133 18 193 
14 9 80 236 11 404 216 221 172 29 73 
15 9 40 148 22 38 57 157 200 173 135 
16 9 365 251 165 212 51 162 64 110 115 
17 9 195 104 181 180 203 73 172 44 118 
18 9 78 99 215 56 184 253 13 176 71 
19 7 203 180 181 73 286 221 404 
20 9 41 70 219 249 12 235 57 48 25 
21 9 247 119 195 415 273 44 422 204 8 
22 9 57 15 148 40 200 235 102 38 157 
23 9 29 231 237 265 118 152 172 236 104 
24 9 213 291 346 432 295 410 285 345 347 
25 9 267 70 235 53 102 12 136 206 219 
26 9 220 234 183 177 47 168 186 263 123 
27 9 254 122 227 278 348 147 140 98 47 
28 5 336 401 391 301 281 
29 9 23 237 231 265 236 14 33 80 118 
30 9 323 425 144 317 337 418 164 178 171 
31 9 150 96 206 151 102 53 252 128 170 
32 9 339 257 39 405 182 312 408 131 258 
33 9 237 192 143 146 265 29 23 231 65 
34 9 130 169 92 270 132 154 166 249 2 
35 9 67 241 335 353 374 299 290 407 377 
36 9 197 76 74 268 136 215 88 18 56 
37 9 173 157 151 163 148 252 40 38 31 
38 9 40 148 15 157 173 135 69 37 22 
39 9 257 408 32 339 392 351 352 325 182 
40 9 148 38 15 157 173 22 37 57 135 
41 9 20 249 70 219 12 235 57 48 169 
42 9 63 276 44 181 226 271 321 8 415 
43 9 167 239 159 262 132 152 259 230 266 
44 9 63 42 195 247 415 21 271 276 181 
45 7 111 209 232 10 273 129 119 
46 9 255 393 114 250 246 75 334 398 109 
47 9 123 168 188 220 122 26 27 177 183 
48 9 7 249 91 207 41 20 253 92 166 
49 9 347 438 295 410 399 366 291 213 345 
50 9 431 141 287 218 103 283 161 205 309 
51 9 162 115 127 64 245 16 251 365 87 
52 9 324 277 310 417 95 383 61 342 320 
53 9 267 206 102 128 150 25 96 31 235 
54 7 309 149 55 313 211 225 316 
55 8 316 423 318 397 284 54 306 211 
56 9 253 207 99 13 78 18 197 133 199 
57 9 22 200 15 148 235 40 208 102 20 
58 9 154 2 208 270 72 169 65 200 230 
59 9 191 166 92 130 89 244 156 223 266 
60 8 329 139 363 424 377 368 381 374 
61 7 413 320 238 412 52 383 9 
62 9 131 258 108 263 312 183 160 85 177 
63 9 42 276 44 226 271 181 415 8 321 
64 9 245 51 127 115 162 16 251 255 97 
65 9 72 2 230 146 143 229 58 269 154 
66 9 403 158 349 385 294 428 84 81 307 
67 9 35 241 353 335 407 299 293 290 303 
68 9 94 105 400 126 367 142 394 315 274 
69 9 135 202 269 38 229 15 40 148 157 
70 9 12 219 25 20 41 235 136 267 74 
71 9 184 176 215 18 83 268 116 78 153 
72 9 65 2 58 154 230 229 208 269 146 
73 9 180 203 172 19 404 181 236 221 17 
74 9 136 197 36 12 219 76 70 56 253 
75 9 398 393 246 428 46 403 255 359 66 
76 9 36 268 215 197 88 18 74 116 78 
77 9 427 375 358 175 140 147 360 117 395 
78 9 18 99 56 13 253 176 215 184 207 
79 9 121 372 343 326 194 331 134 436 386 
80 9 14 236 11 404 216 221 172 73 29 
81 6 307 385 416 296 298 294 
82 9 98 396 358 140 222 427 227 348 147 
83 8 242 116 3 112 71 240 88 268 
84 9 158 349 113 66 250 385 272 403 334 
85 9 160 312 182 62 108 125 131 138 258 
86 9 384 308 409 297 288 292 322 275 419 
87 9 124 187 280 155 162 352 115 51 127 
88 9 116 268 76 242 215 36 83 71 197 
89 9 244 91 201 166 233 7 92 59 256 
90 6 311 437 429 386 134 436 
91 9 201 7 89 133 244 193 199 166 48 
92 9 166 59 130 7 191 34 89 244 91 
93 4 224 418 317 337 
94 7 68 367 400 126 105 394 315 
95 9 417 310 324 328 277 52 327 342 4 
96 9 150 31 206 128 53 151 170 252 102 
97 6 338 245 359 398 246 64 
98 9 82 140 358 227 348 396 427 222 147 
99 9 13 56 78 253 207 18 199 133 179 
100 7 304 388 426 330 378 354 341 
101 9 243 210 435 406 314 350 430 322 288 
102 9 206 267 235 53 31 150 96 25 22 
103 9 287 332 50 205 274 283 431 141 218 
104 9 118 172 17 231 73 262 180 23 203 
105 9 68 94 274 142 332 126 400 367 321 
106 9 289 299 353 375 241 117 303 414 67 
107 9 110 361 165 109 234 114 186 334 251 
108 9 263 62 183 177 131 258 138 248 160 
109 9 334 272 250 361 114 46 84 107 158 
110 9 107 165 186 212 361 234 405 251 365 
111 7 45 232 209 273 129 119 10 
112 7 3 240 83 242 264 116 260 
113 9 84 349 158 196 433 66 385 298 272 
114 9 255 46 361 334 393 250 109 246 75 
115 9 127 162 51 245 64 87 124 16 187 
116 9 242 88 83 268 215 71 76 184 3 
117 9 357 375 289 371 106 390 427 77 49 
118 9 104 231 172 262 152 17 23 29 265 
119 8 273 21 232 247 422 111 415 45 
120 9 189 188 10 223 123 129 47 256 156 
121 8 79 343 372 326 386 134 436 194 
122 9 27 254 227 348 278 47 147 123 98 
123 9 47 168 188 220 122 120 26 177 256 
124 9 187 87 280 352 155 162 115 51 16 
125 8 217 138 214 160 85 248 108 153 
126 5 367 315 94 68 394 
127 9 115 51 162 245 64 87 16 124 97 
128 9 96 53 150 206 31 267 102 170 252 
129 9 156 111 223 45 189 10 120 119 273 
130 9 132 191 92 59 266 34 166 259 43 
131 9 258 62 312 108 182 263 339 405 160 
132 9 130 43 239 266 259 167 34 159 262 
133 8 199 193 201 91 13 99 89 244 
134 9 436 311 429 79 121 386 343 372 389 
135 9 69 38 202 269 40 15 229 148 157 
136 9 74 12 219 197 70 36 25 76 20 
137 6 376 356 434 373 319 5 
138 8 217 214 125 248 108 160 263 85 
139 8 363 329 424 60 377 374 335 368 
140 9 147 348 358 98 227 427 278 77 82 
141 9 431 218 50 161 287 283 309 430 103 
142 9 105 68 400 94 103 332 287 274 394 
143 9 146 192 65 33 265 230 72 159 229 
144 6 425 418 323 30 317 337 
145 7 261 85 160 137 182 5 376 
146 9 143 192 65 33 229 72 230 265 269 
147 9 278 348 140 227 254 77 27 175 98 
148 9 40 15 38 157 22 173 37 57 151 
149 9 225 283 211 54 306 421 309 205 55 
150 9 31 96 206 53 128 102 151 252 267 
151 9 252 37 163 173 157 170 31 150 96 
152 9 262 265 167 43 231 159 239 118 23 
153 8 179 176 184 125 71 78 18 99 
154 9 58 270 2 169 208 72 200 230 65 
155 9 280 352 124 87 187 257 39 228 162 
156 9 223 129 189 191 59 120 10 111 266 
157 9 173 37 148 40 151 38 163 15 31 
158 9 349 84 66 113 385 403 81 298 307 
159 9 230 167 239 43 2 152 262 265 65 
160 9 85 312 182 108 62 125 131 138 258 
161 9 218 314 141 430 431 101 243 50 210 
162 9 51 115 127 64 87 124 16 187 245 
163 9 151 252 37 170 173 157 31 150 96 
164 8 337 317 323 279 30 144 425 418 
165 9 212 365 251 110 16 186 361 107 405 
166 9 92 59 89 7 244 130 191 91 34 
167 9 43 239 159 262 152 132 230 265 259 
168 9 123 47 177 183 220 248 26 188 256 
169 9 270 154 58 208 249 34 200 2 41 
170 9 252 151 163 96 31 150 37 206 128 
171 3 178 425 30 
172 9 73 104 236 118 180 17 203 231 404 
173 9 157 37 151 148 40 163 38 252 15 
174 8 325 379 392 369 351 5 439 408 
175 9 360 395 77 147 375 140 278 427 348 
176 8 184 153 179 71 78 18 215 99 
177 9 183 263 248 108 168 220 26 62 214 
178 7 171 380 185 387 30 425 370 
179 8 153 176 184 78 125 71 99 18 
180 9 203 19 73 181 17 404 172 286 221 
181 9 203 180 19 42 63 17 44 73 276 
182 9 312 131 339 258 85 160 32 62 261 
183 9 177 263 108 220 26 62 248 168 234 
184 9 71 176 215 18 78 153 179 268 116 
185 7 380 387 364 382 370 178 4 
186 9 405 234 212 110 165 258 131 339 26 
187 9 124 87 280 352 155 162 16 51 257 
188 9 123 120 47 189 10 122 168 27 256 
189 9 120 223 10 188 129 156 233 256 123 
190 7 381 340 368 419 308 297 86 
191 9 59 130 92 166 266 156 259 132 223 
192 9 146 143 33 229 65 202 269 72 237 
193 8 199 133 201 91 13 244 89 99 
194 6 326 372 331 79 343 121 
195 9 44 21 17 247 63 181 415 42 119 
196 4 433 298 113 349 
197 9 36 74 76 136 56 253 18 215 268 
198 9 300 6 290 377 335 331 374 389 407 
199 8 193 133 201 13 91 99 179 207 
200 9 208 57 22 58 270 154 15 169 72 
201 9 193 133 91 244 89 199 233 256 7 
202 9 269 229 69 135 65 72 146 192 143 
203 9 180 19 181 73 286 17 404 221 172 
204 9 8 271 415 422 421 226 247 402 225 
205 9 283 332 103 274 149 421 50 287 225 
206 9 150 31 96 102 53 267 128 151 235 
207 9 253 56 99 13 78 18 197 133 48 
208 9 200 58 154 270 169 72 2 57 65 
209 6 45 111 232 222 396 397 
210 8 406 101 322 288 243 435 409 350 
211 9 225 306 402 316 149 55 54 421 397 
212 9 165 365 405 186 16 110 251 32 339 
213 9 24 291 346 432 295 410 347 345 285 
214 8 217 138 248 125 108 177 263 183 
215 9 268 18 76 184 71 78 116 88 36 
216 5 221 404 80 14 236 
217 8 138 214 125 248 108 160 85 263 
218 9 141 431 161 50 287 314 430 283 309 
219 9 12 70 136 20 41 74 25 197 235 
220 9 26 234 183 47 177 168 123 122 263 
221 5 404 216 286 19 73 
222 8 396 358 427 82 98 140 209 117 
223 9 156 189 129 120 10 191 233 59 256 
224 7 93 317 418 337 144 425 323 
225 9 211 306 149 402 421 316 54 55 283 
226 9 271 8 276 204 63 42 415 321 274 
227 9 348 278 147 254 27 140 98 122 82 
228 8 328 417 95 369 324 439 52 174 
229 9 269 202 65 72 146 69 192 143 135 
230 9 159 2 65 72 239 167 58 43 154 
231 9 23 118 29 152 265 104 262 172 237 
232 7 273 111 45 119 209 402 422 
233 9 256 244 89 201 189 223 120 91 59 
234 9 26 186 220 405 183 110 263 177 107 
235 9 102 267 25 70 53 22 57 206 20 
236 9 80 14 404 172 11 73 216 221 29 
237 9 29 23 33 265 231 143 152 146 192 
238 6 413 412 9 61 320 420 
239 9 43 167 159 132 262 152 230 259 2 
240 5 3 112 264 83 242 
241 9 353 35 67 299 335 106 414 289 303 
242 9 83 116 88 3 112 268 71 240 215 
243 9 435 101 350 406 210 314 288 322 409 
244 9 89 201 233 91 166 256 59 7 92 
245 9 64 127 51 115 162 97 338 16 246 
246 9 393 398 75 255 46 359 428 338 114 
247 9 415 21 422 44 119 204 8 271 273 
248 9 214 138 177 217 183 108 263 168 125 
249 9 48 41 20 169 270 7 34 219 154 
250 9 334 46 109 393 84 114 255 158 272 
251 9 365 16 165 212 361 110 51 114 64 
252 9 170 151 163 31 96 37 150 173 157 
253 9 56 207 99 13 78 18 197 133 199 
254 9 27 122 227 278 348 147 140 98 82 
255 9 46 393 114 246 75 250 398 334 361 
256 9 233 244 168 201 89 123 120 189 248 
257 9 39 32 339 408 352 392 182 351 187 
258 9 131 62 312 108 182 263 339 405 160 
259 9 266 132 43 130 167 239 191 262 118 
260 3 71 83 145 
261 8 145 5 351 137 376 182 325 379 
262 9 152 167 43 239 265 118 159 231 259 
263 9 108 183 62 177 131 258 248 138 234 
264 3 240 3 93 
265 9 152 262 231 159 237 143 23 167 29 
266 9 259 132 130 191 43 239 167 262 59 
267 9 53 25 102 235 206 150 31 96 70 
268 9 215 76 88 116 36 18 71 242 184 
269 9 202 229 69 72 65 135 146 192 208 
270 9 169 154 58 208 200 2 34 72 249 
271 9 8 226 204 415 63 276 247 42 421 
272 9 109 334 84 250 395 113 360 158 349 
273 8 119 232 422 21 247 111 45 402 
274 9 332 205 103 105 321 226 68 283 271 
275 4 308 292 86 384 
276 9 42 63 226 321 271 44 8 181 415 
277 9 310 342 324 52 383 95 4 417 327 
278 9 147 348 227 254 27 140 122 98 395 
279 8 164 337 317 323 30 144 425 224 
280 9 155 352 124 187 87 162 257 39 408 
281 4 401 301 28 336 
282 2 437 90 
283 9 149 205 50 431 141 54 309 103 225 
284 8 397 355 423 411 318 346 55 432 
285 9 390 411 346 371 355 24 213 291 410 
286 2 19 221 
287 9 50 103 431 141 218 283 332 205 161 
288 7 322 409 384 406 210 86 292 
289 9 106 299 117 375 353 414 357 302 241 
290 8 407 293 198 335 300 67 35 374 
291 9 213 24 346 432 295 345 410 347 333 
292 3 275 384 86 
293 4 407 290 67 303 
294 7 403 428 81 385 66 307 296 
295 9 410 347 49 291 213 438 24 371 345 
296 3 81 307 416 
297 9 419 409 362 368 86 381 384 288 190 
298 5 416 307 81 385 349 
299 8 353 106 241 289 67 303 35 414 
300 9 198 6 290 377 389 331 374 335 194 
301 3 336 28 281 
302 6 414 366 438 49 399 357 
303 6 299 353 407 67 293 241 
304 7 388 100 354 378 330 426 341 
305 6 333 432 345 318 291 24 
306 9 211 402 316 225 55 397 149 421 54 
307 5 81 385 416 298 296 
308 5 86 275 340 384 190 
309 4 313 54 430 149 
310 9 277 342 324 95 52 383 4 417 327 
311 8 429 134 436 90 386 121 79 343 
312 9 131 258 182 62 339 160 85 108 32 
313 2 309 54 
314 9 101 243 161 430 435 210 406 350 322 
315 3 126 367 94 
316 8 55 306 397 211 402 423 284 225 
317 7 337 144 323 425 30 418 164 
318 7 423 432 305 55 333 284 346 
319 8 434 373 9 412 420 356 238 413 
320 4 61 413 238 383 
321 9 276 226 42 274 63 105 126 315 271 
322 7 288 210 406 409 384 292 86 
323 7 30 144 317 337 425 164 418 
324 9 52 277 417 310 95 383 342 328 61 
325 8 351 392 174 379 369 408 5 39 
326 5 372 343 194 121 79 
327 9 95 342 310 277 328 4 382 417 324 
328 9 95 417 327 324 310 52 277 342 4 
329 8 60 139 363 424 377 374 368 381 
330 7 100 426 304 388 341 354 378 
331 9 389 194 6 79 326 372 121 343 198 
332 9 274 103 205 105 287 283 50 226 68 
333 5 305 345 432 291 24 
334 9 250 109 46 272 114 361 84 255 393 
335 9 374 35 377 67 290 241 198 353 407 
336 4 28 391 301 401 
337 7 317 323 144 164 30 425 418 
338 6 97 359 398 246 75 393 
339 9 32 257 312 182 39 131 258 405 408 
340 5 190 308 381 368 86 
341 5 354 304 330 388 100 
342 9 4 310 277 383 382 327 95 324 52 
343 6 372 121 326 79 386 194 
344 6 426 330 100 304 391 378 
345 7 333 291 399 305 213 24 432 
346 9 24 213 291 432 285 411 355 390 295 
347 9 295 410 49 438 291 213 24 371 390 
348 9 227 278 147 140 254 27 98 122 82 
349 9 158 84 113 66 385 81 298 307 403 
350 9 435 243 362 406 101 409 210 297 419 
351 8 325 392 174 408 379 5 369 39 
352 9 280 187 155 124 257 39 87 408 32 
353 9 241 299 67 35 106 289 303 335 414 
354 5 388 304 341 100 330 
355 8 411 285 284 346 390 24 213 432 
356 8 434 319 376 373 9 412 137 420 
357 9 371 49 117 347 390 410 295 438 285 
358 9 427 396 140 222 77 98 82 147 348 
359 4 398 428 75 338 
360 9 395 175 77 147 272 113 375 278 196 
361 9 114 107 109 334 110 46 165 251 250 
362 8 419 297 368 409 350 381 190 86 
363 8 139 424 329 60 377 374 190 381 
364 8 370 382 185 380 387 4 178 342 
365 9 16 251 165 212 110 51 162 361 405 
366 7 438 302 49 399 414 347 295 
367 4 126 315 94 394 
368 8 381 419 190 297 362 340 409 86 
369 8 379 174 439 325 5 392 351 412 
370 7 364 185 380 387 382 178 4 
371 9 390 285 347 357 410 295 49 411 213 
372 6 326 343 121 79 194 386 
373 6 434 319 420 9 356 412 
374 9 335 377 35 139 363 67 198 290 241 
375 9 117 77 106 289 175 427 299 358 357 
376 7 356 137 434 5 319 373 9 
377 9 374 335 139 363 198 300 329 35 60 
378 3 388 304 100 
379 8 369 174 325 5 351 439 392 376 
380 7 185 387 364 382 370 178 4 
381 8 368 190 419 297 362 340 86 308 
382 9 4 387 342 364 185 380 383 370 310 
383 9 4 277 310 342 320 52 324 61 382 
384 8 86 409 288 297 308 292 322 275 
385 9 81 307 349 66 294 298 403 158 416 
386 5 343 121 372 326 79 
387 7 185 380 382 364 4 370 178 
388 5 304 100 354 378 330 
389 9 331 6 79 194 436 300 134 121 198 
390 9 285 371 411 346 410 24 213 295 347 
391 3 336 28 301 
392 8 325 174 351 408 379 369 5 39 
393 9 46 75 246 255 398 250 114 428 334 
394 3 400 367 94 
395 9 360 175 272 147 77 278 113 140 84 
396 9 222 358 427 82 98 140 77 117 209 
397 7 284 316 423 55 355 318 411 
398 8 75 246 359 393 428 338 403 46 
399 6 345 438 49 295 347 366 
400 5 394 94 68 367 126 
401 5 281 28 336 301 391 
402 8 306 211 225 316 422 421 55 149 
403 7 428 294 66 385 81 75 158 
404 8 221 216 236 73 80 14 19 180 
405 9 186 212 339 234 32 258 131 110 165 
406 8 210 101 288 322 435 409 243 350 
407 5 293 290 67 303 35 
408 9 39 351 392 325 257 174 32 379 339 
409 9 297 288 384 86 322 419 406 362 210 
410 9 295 347 49 291 213 438 24 371 390 
411 8 355 285 346 390 24 213 284 371 
412 8 9 238 420 319 413 61 373 434 
413 6 238 61 320 412 9 420 
414 6 302 366 438 289 241 49 
415 9 247 8 204 271 422 226 21 44 63 
416 4 298 307 81 296 
417 9 95 324 52 328 277 310 342 327 383 
418 6 144 425 317 30 323 337 
419 8 297 368 362 381 409 190 86 384 
420 7 9 373 412 319 238 434 413 
421 9 225 204 422 211 402 8 149 306 205 
422 9 204 415 402 421 8 247 273 119 225 
423 7 318 284 55 432 397 305 346 
424 8 363 139 60 329 368 381 190 419 
425 7 144 30 418 323 317 337 171 
426 7 100 330 304 388 344 378 354 
427 9 358 396 77 140 222 98 82 117 375 
428 6 403 294 75 66 398 359 
429 8 311 134 436 90 121 386 79 343 
430 8 101 210 314 406 161 322 243 288 
431 9 141 218 50 287 161 283 103 309 430 
432 9 24 305 213 333 291 346 318 345 423 
433 4 196 298 113 416 
434 7 319 373 356 420 9 412 376 
435 9 243 101 350 406 210 314 409 288 322 
436 9 134 311 429 79 121 386 343 372 389 
437 2 90 386 
438 8 49 366 347 295 399 410 345 302 
439 8 369 52 61 412 413 379 324 9 
DEPOT_SECTION
   1
   -1
EOF
