NAME :  X-n502-kX-w50-c9.cctp
COMMENT : 	Adapted by Maziero, Usberti and Cavellucci from the Uchoa, Pecin, Pessoa, Poggi, Subramanian, and Vidal (2013)
TYPE :  CCTP
DIMENSION :    331
EDGE_WEIGHT_TYPE : 	EUC_2D	
CAPACITY : 	13
VERTICES_WITHIN_COVERAGE :  9
VERTICES_WITH_DEMAND : 	50
NODE_COORD_SECTION
1 0 0
2 159 917
3 635 200
4 278 907
5 667 141
6 119 954
7 29 448
8 590 87
9 375 990
10 511 374
11 298 957
12 107 911
13 323 766
14 161 892
15 151 912
16 438 1000
17 284 933
18 724 191
19 286 940
20 144 785
21 672 157
22 759 176
23 553 179
24 625 167
25 133 924
26 695 73
27 149 946
28 599 162
29 305 712
30 229 709
31 332 874
32 756 143
33 696 248
34 94 777
35 381 975
36 224 928
37 414 951
38 910 190
39 749 162
40 668 273
41 146 786
42 17 793
43 255 883
44 326 837
45 549 226
46 137 868
47 74 977
48 618 248
49 328 898
50 62 802
51 177 914
52 646 208
53 666 142
54 163 873
55 721 164
56 623 153
57 333 956
58 237 874
59 729 102
60 330 896
61 446 930
62 148 897
63 389 942
64 131 847
65 594 149
66 780 190
67 719 271
68 278 911
69 256 896
70 279 903
71 613 47
72 320 872
73 301 931
74 319 992
75 617 172
76 117 909
77 503 966
78 232 907
79 34 955
80 171 877
81 132 920
82 113 906
83 581 125
84 138 910
85 149 870
86 587 60
87 310 832
88 568 227
89 711 167
90 728 251
91 140 937
92 238 919
93 97 799
94 804 100
95 243 927
96 310 938
97 708 166
98 151 931
99 262 920
100 121 769
101 149 660
102 199 749
103 78 738
104 323 963
105 63 799
106 233 931
107 693 170
108 673 156
109 620 191
110 125 946
111 748 117
112 661 327
113 181 923
114 548 235
115 682 157
116 263 898
117 469 339
118 144 915
119 569 234
120 577 450
121 693 229
122 227 952
123 211 643
124 288 969
125 641 37
126 618 206
127 156 915
128 74 787
129 705 109
130 572 363
131 620 204
132 272 925
133 107 789
134 601 240
135 453 388
136 301 889
137 356 916
138 681 238
139 607 119
140 351 970
141 159 896
142 582 156
143 143 878
144 113 926
145 236 888
146 738 73
147 716 196
148 334 772
149 514 326
150 220 712
151 631 121
152 531 262
153 707 228
154 617 160
155 624 151
156 210 727
157 239 749
158 550 138
159 393 807
160 375 829
161 104 898
162 271 910
163 655 37
164 324 847
165 622 54
166 627 176
167 869 235
168 812 223
169 651 183
170 365 946
171 125 924
172 296 984
173 682 174
174 397 821
175 278 948
176 338 880
177 759 215
178 253 878
179 612 266
180 169 877
181 242 885
182 592 164
183 461 897
184 267 899
185 156 936
186 135 977
187 268 927
188 303 918
189 625 248
190 265 857
191 715 115
192 565 376
193 306 759
194 120 892
195 115 963
196 33 726
197 750 227
198 432 927
199 97 802
200 486 173
201 320 818
202 207 945
203 76 937
204 90 963
205 635 199
206 310 860
207 528 222
208 568 144
209 179 893
210 429 939
211 323 841
212 527 77
213 611 282
214 170 927
215 136 925
216 283 911
217 684 269
218 303 957
219 608 145
220 136 934
221 189 916
222 296 925
223 394 969
224 222 947
225 239 875
226 171 888
227 205 941
228 354 803
229 135 857
230 145 863
231 740 71
232 102 946
233 592 250
234 402 983
235 593 174
236 118 922
237 738 121
238 41 948
239 350 705
240 196 681
241 160 889
242 159 858
243 654 195
244 328 864
245 241 885
246 266 914
247 717 180
248 684 230
249 180 920
250 294 964
251 559 143
252 433 966
253 827 145
254 294 784
255 298 915
256 175 923
257 333 919
258 614 286
259 279 771
260 117 866
261 722 126
262 276 893
263 86 990
264 672 173
265 130 983
266 360 987
267 718 192
268 66 817
269 657 97
270 623 266
271 678 101
272 270 864
273 620 232
274 295 987
275 101 738
276 359 881
277 158 934
278 182 919
279 717 177
280 653 54
281 683 139
282 381 928
283 277 962
284 608 267
285 625 217
286 565 76
287 523 188
288 165 947
289 305 922
290 125 702
291 774 36
292 107 703
293 557 175
294 80 903
295 172 890
296 138 914
297 270 872
298 702 198
299 737 258
300 174 804
301 266 959
302 142 936
303 79 750
304 438 339
305 841 230
306 289 910
307 309 861
308 408 932
309 616 200
310 729 281
311 707 106
312 395 678
313 134 820
314 514 197
315 547 236
316 660 98
317 302 673
318 50 967
319 79 930
320 628 254
321 3 965
322 613 252
323 343 877
324 626 246
325 332 921
326 117 872
327 119 964
328 370 865
329 632 243
330 304 893
331 288 773
DEMAND_SECTION
2 1
3 1
4 1
5 1
6 1
7 1
8 1
9 1
10 1
11 1
12 1
13 1
14 1
15 1
16 1
17 1
18 1
19 1
20 1
21 1
22 1
23 1
24 1
25 1
26 1
27 1
28 1
29 1
30 1
31 1
32 1
33 1
34 1
35 1
36 1
37 1
38 1
39 1
40 1
41 1
42 1
43 1
44 1
45 1
46 1
47 1
48 1
49 1
50 1
51 1
COVERAGE_SECTION
2 9 127 15 118 214 98 256 277 51 185 
3 9 205 52 131 109 126 309 243 285 169 
4 9 68 70 216 162 306 184 246 262 116 
5 9 53 108 281 21 115 264 173 107 151 
6 9 110 195 327 232 220 91 186 144 302 
7 8 101 123 292 290 196 240 103 275 
8 8 86 286 139 83 71 165 151 208 
9 9 266 35 223 234 140 170 63 57 37 
10 6 149 192 117 135 130 304 
11 9 218 250 124 19 96 175 283 73 104 
12 9 82 76 161 144 236 171 194 81 294 
13 8 148 193 254 331 259 228 201 29 
14 9 241 141 226 295 62 180 80 209 54 
15 9 127 118 2 84 296 62 141 98 215 
16 9 252 234 223 37 35 210 9 61 77 
17 9 19 132 222 175 73 187 216 68 255 
18 9 267 147 247 279 298 55 89 97 107 
19 9 17 175 73 222 11 132 187 96 218 
20 6 41 100 300 313 133 93 
21 9 108 115 53 264 5 173 281 107 169 
22 9 39 66 32 18 177 55 247 279 267 
23 7 293 287 251 142 208 235 158 
24 8 75 166 154 56 155 109 28 219 
25 9 215 81 171 220 296 118 84 91 236 
26 9 271 311 129 146 316 59 231 269 280 
27 8 185 302 91 98 277 288 220 110 
28 8 182 235 65 142 154 219 75 24 
29 9 317 239 193 13 331 259 148 254 30 
30 6 150 156 157 240 102 123 
31 9 176 244 323 72 60 49 206 307 164 
32 9 39 111 237 22 261 55 59 191 89 
33 8 138 121 248 153 217 90 67 40 
34 9 133 93 128 199 100 303 105 275 50 
35 9 223 9 234 266 140 170 63 37 282 
36 8 106 92 95 224 78 227 122 202 
37 9 210 308 252 63 223 198 234 61 282 
38 8 167 305 253 168 66 94 22 177 
39 9 22 32 55 279 247 18 89 97 66 
40 6 217 138 33 320 248 270 
41 6 20 100 300 313 133 93 
42 9 50 105 268 128 196 303 34 93 199 
43 9 178 69 181 245 116 225 297 58 145 
44 7 211 164 87 201 244 206 307 
45 6 114 315 88 207 119 152 
46 9 230 229 85 143 260 326 64 242 54 
47 9 263 204 318 203 232 195 238 79 319 
48 9 322 189 324 320 329 273 134 179 270 
49 9 60 176 257 325 31 330 323 72 136 
50 8 105 268 128 93 199 34 42 133 
51 9 249 278 256 113 221 214 2 127 209 
52 4 3 205 243 285 
53 9 5 21 108 281 115 264 173 107 151 
54 7 180 80 85 241 242 226 14 
55 9 89 97 279 247 18 39 267 107 147 
56 9 155 154 24 219 75 166 28 65 151 
57 7 104 140 96 218 170 11 325 
58 6 225 181 245 145 178 43 
59 9 191 237 311 111 129 261 146 231 26 
60 9 49 176 31 257 323 325 72 330 136 
61 7 198 210 183 37 252 308 63 
62 9 141 14 241 15 84 118 127 143 296 
63 7 282 308 170 37 223 35 210 
64 6 229 230 46 260 313 85 
65 9 28 142 182 219 154 235 208 83 56 
66 9 22 177 39 168 197 32 18 267 55 
67 7 310 90 299 33 217 153 121 
68 9 4 216 162 70 306 246 132 184 99 
69 7 116 184 43 178 181 245 262 
70 9 4 68 216 262 162 306 184 116 246 
71 9 165 86 125 280 163 8 286 269 316 
72 7 244 31 206 307 176 323 136 
73 9 222 289 96 188 255 17 19 306 11 
74 9 172 274 104 218 250 57 124 140 11 
75 7 24 166 154 109 56 28 155 
76 9 82 12 236 144 161 171 194 81 84 
77 9 61 252 16 210 183 198 37 308 234 
78 6 92 145 36 95 106 181 
79 6 238 318 321 47 203 319 
80 7 180 54 226 295 241 14 209 
81 9 25 215 171 296 84 118 236 220 76 
82 8 76 12 161 194 236 144 171 81 
83 8 208 65 139 251 142 158 219 8 
84 9 296 118 81 15 25 215 62 127 171 
85 8 230 143 46 54 242 229 180 241 
86 9 8 286 71 165 125 139 212 83 280 
87 6 211 44 201 164 206 307 
88 4 119 45 114 315 
89 9 97 55 279 247 107 267 18 147 173 
90 8 299 67 310 153 33 197 121 177 
91 9 302 220 27 98 215 25 185 110 277 
92 5 95 78 106 36 99 
93 8 199 133 34 128 105 50 268 100 
94 9 253 111 32 237 231 146 291 59 39 
95 5 92 106 36 99 78 
96 8 73 289 222 218 188 11 19 17 
97 9 89 55 279 107 247 173 115 267 18 
98 9 185 277 302 91 27 220 2 215 118 
99 7 246 187 132 162 68 95 4 
100 9 133 20 34 41 275 93 199 303 128 
101 8 290 240 292 123 150 156 275 30 
102 4 156 157 150 30 
103 9 303 275 34 292 196 128 100 133 290 
104 8 57 218 11 96 74 140 250 172 
105 9 50 128 268 93 199 34 133 42 303 
106 6 36 95 92 224 122 78 
107 9 173 97 115 89 264 108 21 279 247 
108 9 21 115 5 53 264 173 281 107 169 
109 6 309 131 126 3 166 205 
110 9 6 220 91 327 195 302 171 25 144 
111 9 237 59 32 261 191 311 129 39 146 
112 5 40 217 258 213 270 
113 6 249 278 256 51 221 214 
114 6 315 45 119 88 207 152 
115 9 108 21 107 173 281 264 5 53 97 
116 9 184 69 162 262 246 4 43 70 68 
117 4 304 149 135 10 
118 9 296 15 84 127 81 215 25 2 98 
119 5 88 114 45 315 233 
120 4 192 130 10 135 
121 5 248 153 138 33 298 
122 5 224 202 106 36 227 
123 8 240 101 30 150 156 317 290 102 
124 9 250 283 11 172 218 274 175 301 19 
125 9 163 280 165 71 86 269 316 26 8 
126 6 131 309 285 109 3 205 
127 9 2 15 118 98 214 296 84 141 277 
128 9 105 50 34 93 199 268 133 303 103 
129 9 311 191 261 59 271 237 26 281 111 
130 3 192 10 149 
131 6 126 309 109 285 3 205 
132 8 187 99 246 17 68 162 216 4 
133 9 93 199 34 100 128 20 41 313 105 
134 4 233 322 48 273 
135 5 304 117 10 149 192 
136 7 330 306 72 262 70 255 49 
137 6 257 325 282 170 49 60 
138 4 248 121 33 153 
139 9 151 219 83 65 8 155 56 154 28 
140 7 266 57 170 104 35 9 74 
141 9 14 241 62 226 295 15 127 209 2 
142 9 182 65 28 208 235 251 219 83 293 
143 9 85 46 230 62 241 54 229 14 141 
144 9 236 171 12 76 25 81 82 110 215 
145 6 245 181 225 58 78 43 
146 9 231 59 26 111 311 191 237 129 291 
147 9 267 18 298 247 279 89 97 55 153 
148 8 13 193 228 254 331 201 259 44 
149 4 117 10 152 130 
150 5 30 156 240 157 102 
151 9 139 155 56 219 269 316 5 53 154 
152 4 315 114 45 207 
153 7 121 33 248 138 298 90 147 
154 9 56 24 155 75 219 28 166 65 182 
155 9 56 154 24 219 75 166 28 65 151 
156 5 150 102 30 157 240 
157 5 156 102 30 150 259 
158 8 251 208 83 142 293 23 65 182 
159 8 174 160 228 328 148 44 201 211 
160 9 174 159 228 328 44 211 164 276 201 
161 4 82 12 76 194 
162 9 246 68 4 70 184 216 99 116 132 
163 9 125 280 165 71 26 269 316 271 86 
164 7 211 44 244 206 87 307 72 
165 9 71 125 280 86 163 8 269 316 286 
166 7 24 75 109 154 56 205 3 
167 7 305 168 38 253 66 177 197 
168 7 305 66 177 167 197 22 253 
169 6 243 3 205 264 52 166 
170 7 63 282 140 137 35 57 223 
171 9 236 25 81 215 144 220 296 76 84 
172 9 274 124 250 74 11 218 283 104 301 
173 7 264 107 115 21 108 97 89 
174 6 159 160 228 328 276 44 
175 8 19 283 17 301 11 124 187 250 
176 9 323 31 60 244 72 49 276 206 307 
177 9 197 66 22 18 147 267 90 299 39 
178 9 43 181 225 245 58 69 297 145 116 
179 9 284 270 322 213 48 258 320 189 324 
180 8 80 54 226 295 241 14 209 85 
181 7 245 145 225 58 43 178 69 
182 6 28 235 142 65 154 219 
183 6 61 198 210 308 37 252 
184 9 116 69 262 162 70 4 246 68 43 
185 8 277 98 27 288 302 91 214 2 
186 4 265 327 195 6 
187 7 132 99 246 17 162 68 4 
188 8 289 255 222 73 306 96 216 17 
189 8 324 48 320 329 322 273 270 179 
190 5 272 297 178 43 225 
191 9 129 311 261 59 237 111 271 281 26 
192 4 130 10 149 120 
193 7 13 331 254 259 148 29 201 
194 6 82 76 161 326 12 84 
195 7 327 6 110 232 186 204 265 
196 9 103 303 42 275 128 292 105 34 50 
197 9 177 90 299 153 18 147 267 66 22 
198 7 210 61 308 37 252 183 63 
199 7 93 133 34 128 105 268 50 
200 6 314 287 207 23 293 158 
201 7 87 44 211 164 228 206 254 
202 4 227 224 122 36 
203 9 319 232 204 294 238 144 12 47 318 
204 9 47 232 195 263 327 6 203 319 110 
205 9 3 52 131 109 126 243 309 285 169 
206 6 307 72 244 164 211 31 
207 8 45 114 315 314 287 88 152 119 
208 8 251 142 158 83 65 182 293 28 
209 8 295 226 14 80 180 241 141 51 
210 9 198 37 61 308 252 63 223 282 234 
211 7 44 164 87 201 206 244 307 
212 4 286 86 8 158 
213 7 258 284 179 270 322 320 48 
214 8 256 113 249 277 278 2 51 185 
215 9 25 81 220 171 296 91 118 302 84 
216 9 68 4 306 70 162 255 246 132 222 
217 7 40 33 138 67 248 121 153 
218 9 11 250 124 96 104 19 73 283 175 
219 9 65 56 154 155 28 182 139 24 75 
220 9 91 302 215 25 81 98 171 110 27 
221 6 278 249 113 51 256 214 
222 9 73 289 188 255 17 306 19 96 216 
223 9 35 234 37 63 9 170 266 252 308 
224 6 122 202 227 36 106 95 
225 6 58 181 245 145 178 43 
226 8 295 209 14 80 180 241 141 54 
227 4 202 224 36 122 
228 9 160 148 201 159 44 174 13 211 87 
229 8 46 64 230 85 260 143 326 242 
230 7 85 46 229 143 242 54 64 
231 9 146 59 26 111 311 291 237 191 129 
232 9 6 195 204 110 144 327 203 319 236 
233 4 134 322 284 48 
234 9 223 35 9 37 252 16 266 63 308 
235 4 182 28 142 75 
236 9 144 171 76 81 25 12 82 215 220 
237 9 111 261 59 191 32 311 129 39 55 
238 6 79 318 203 319 321 47 
239 9 29 312 317 13 148 193 331 254 259 
240 8 150 123 30 156 101 102 290 157 
241 9 14 141 226 295 62 180 54 80 209 
242 6 230 54 85 180 80 46 
243 5 169 52 205 3 264 
244 9 31 72 164 206 176 307 323 211 44 
245 7 181 145 225 58 43 178 69 
246 8 162 99 68 132 187 4 184 116 
247 9 279 267 18 89 55 147 97 298 107 
248 4 121 138 33 153 
249 7 278 113 256 51 221 214 2 
250 9 11 124 218 283 172 175 274 19 301 
251 8 208 158 142 83 293 23 65 182 
252 9 37 210 16 234 61 198 223 308 63 
253 9 94 66 32 22 168 39 111 305 237 
254 7 331 259 193 13 148 201 87 
255 8 188 222 289 306 73 216 68 4 
256 7 113 214 249 278 51 221 2 
257 7 325 49 60 137 289 96 188 
258 7 213 179 284 270 322 320 48 
259 5 331 254 193 13 157 
260 4 326 46 229 64 
261 9 191 237 129 59 311 111 32 55 281 
262 9 70 184 4 116 68 162 216 69 306 
263 8 47 204 195 327 318 265 232 6 
264 7 173 21 108 115 107 169 243 
265 4 186 327 195 6 
266 9 9 140 35 223 57 74 170 234 104 
267 9 147 18 247 279 298 89 55 97 107 
268 6 50 105 128 199 93 34 
269 9 316 271 151 280 5 26 53 129 281 
270 9 179 320 284 322 189 48 213 324 258 
271 9 316 269 129 311 26 281 191 5 53 
272 5 297 190 178 43 262 
273 7 324 48 285 329 189 134 322 
274 9 172 124 250 74 11 218 283 104 301 
275 8 103 303 292 100 34 290 133 128 
276 8 323 328 176 31 60 49 137 244 
277 8 185 98 214 27 288 302 2 91 
278 7 249 113 51 221 256 214 2 
279 9 247 89 55 97 267 18 147 107 298 
280 9 163 125 165 71 269 316 26 271 86 
281 9 5 53 115 108 21 107 173 264 97 
282 7 63 170 308 137 37 223 35 
283 8 301 124 175 250 11 19 218 172 
284 9 179 213 270 322 258 48 233 320 189 
285 6 126 131 273 309 3 205 
286 7 8 86 212 83 71 139 165 
287 9 314 23 207 293 200 45 114 315 158 
288 5 185 277 27 98 214 
289 8 188 222 73 255 96 306 17 216 
290 8 292 275 101 103 303 100 240 34 
291 9 231 146 94 59 111 26 237 311 191 
292 8 290 275 103 303 101 100 34 196 
293 8 23 142 251 208 235 287 182 158 
294 5 161 319 12 82 203 
295 8 226 209 14 241 80 180 141 54 
296 9 84 118 81 25 215 15 171 127 62 
297 8 272 190 178 43 262 116 184 69 
298 6 147 267 18 247 279 107 
299 7 90 67 310 197 33 153 177 
300 2 41 20 
301 6 283 175 124 19 250 11 
302 9 91 220 98 27 215 185 25 277 81 
303 9 103 275 34 128 100 133 93 105 196 
304 4 117 135 149 10 
305 7 167 168 66 38 177 253 197 
306 8 216 255 4 68 70 188 222 162 
307 6 206 72 244 164 211 31 
308 8 37 63 210 198 282 61 223 252 
309 6 126 131 109 3 205 285 
310 6 67 299 90 33 217 153 
311 9 129 191 59 261 271 237 26 281 111 
312 8 239 317 29 148 13 193 159 228 
313 4 64 20 41 229 
314 9 287 207 200 23 45 293 114 315 88 
315 6 114 45 119 88 207 152 
316 9 269 271 151 26 5 53 280 129 281 
317 9 29 239 30 193 150 312 13 123 157 
318 8 79 238 47 203 204 263 319 321 
319 8 203 294 232 12 144 204 236 161 
320 8 189 324 48 329 270 322 179 273 
321 4 79 238 318 47 
322 9 48 189 179 324 320 284 134 270 233 
323 9 176 31 276 244 60 72 49 328 164 
324 7 189 329 48 320 322 273 270 
325 7 257 49 60 137 289 96 188 
326 4 260 46 194 229 
327 7 195 6 110 186 265 232 204 
328 7 276 323 176 160 31 244 164 
329 6 324 189 320 48 273 322 
330 8 136 255 306 49 188 60 72 70 
331 5 259 254 193 13 148 
DEPOT_SECTION
   1
   -1
EOF
