NAME :  X-n548-kX-w218-c7.cctp
COMMENT : 	Adapted by Maziero, Usberti and Cavellucci from the Uchoa, Pecin, Pessoa, Poggi, Subramanian, and Vidal (2013)
TYPE :  CCTP
DIMENSION :    544
EDGE_WEIGHT_TYPE : 	EUC_2D	
CAPACITY : 	11
VERTICES_WITHIN_COVERAGE :  7
VERTICES_WITH_DEMAND : 	218
NODE_COORD_SECTION
1 0 0
2 221 542
3 320 456
4 576 827
5 679 994
6 371 461
7 961 844
8 986 379
9 175 540
10 126 517
11 329 626
12 477 890
13 191 356
14 584 917
15 308 653
16 0 7
17 273 302
18 672 381
19 235 415
20 583 149
21 672 124
22 644 646
23 400 544
24 832 999
25 842 964
26 582 965
27 544 311
28 429 2
29 939 849
30 898 605
31 363 130
32 639 874
33 323 201
34 829 350
35 7 53
36 801 92
37 57 330
38 943 0
39 579 275
40 833 402
41 408 940
42 635 871
43 631 630
44 733 313
45 344 619
46 628 291
47 674 92
48 74 602
49 38 354
50 473 107
51 668 279
52 510 811
53 366 16
54 49 182
55 528 946
56 271 745
57 405 872
58 65 893
59 622 488
60 668 978
61 939 73
62 556 632
63 270 446
64 586 348
65 951 167
66 385 308
67 247 997
68 992 460
69 128 590
70 746 847
71 279 459
72 428 183
73 364 167
74 656 687
75 547 792
76 517 152
77 252 618
78 464 284
79 184 96
80 457 269
81 590 47
82 348 609
83 777 112
84 528 198
85 877 457
86 812 650
87 864 723
88 584 875
89 817 233
90 186 909
91 439 447
92 560 994
93 818 658
94 134 903
95 447 951
96 969 519
97 488 401
98 142 666
99 287 534
100 399 181
101 141 22
102 29 248
103 313 643
104 20 974
105 294 475
106 439 214
107 327 361
108 79 657
109 165 601
110 345 144
111 90 914
112 400 256
113 177 633
114 549 135
115 812 166
116 887 565
117 455 695
118 180 298
119 658 126
120 18 638
121 327 299
122 195 261
123 245 439
124 355 299
125 827 854
126 881 666
127 144 893
128 34 637
129 187 150
130 350 673
131 380 917
132 271 505
133 347 879
134 45 456
135 930 78
136 860 22
137 448 112
138 236 704
139 222 587
140 670 76
141 333 821
142 521 123
143 642 795
144 152 816
145 50 360
146 325 936
147 24 690
148 836 158
149 351 981
150 405 377
151 159 405
152 825 285
153 187 320
154 342 200
155 290 713
156 304 144
157 216 909
158 46 173
159 613 524
160 35 950
161 298 667
162 257 579
163 775 393
164 860 681
165 996 407
166 42 719
167 379 14
168 195 581
169 75 328
170 295 405
171 481 721
172 539 661
173 6 525
174 239 471
175 88 989
176 965 196
177 460 479
178 927 260
179 663 933
180 626 229
181 814 564
182 737 136
183 620 811
184 253 65
185 645 544
186 877 977
187 825 518
188 656 780
189 235 74
190 881 673
191 101 93
192 221 710
193 69 200
194 115 635
195 721 215
196 414 959
197 336 858
198 270 287
199 912 701
200 278 898
201 426 373
202 867 569
203 354 11
204 937 660
205 434 965
206 753 436
207 681 746
208 86 648
209 656 239
210 604 359
211 979 146
212 507 27
213 94 695
214 424 827
215 287 592
216 554 230
217 952 222
218 48 840
219 99 106
220 133 601
221 635 416
222 860 852
223 842 165
224 752 0
225 173 90
226 469 632
227 184 590
228 619 482
229 981 411
230 778 389
231 359 222
232 751 498
233 201 444
234 91 710
235 111 324
236 867 389
237 309 269
238 669 317
239 768 421
240 889 891
241 605 483
242 221 579
243 729 804
244 442 624
245 719 697
246 413 1000
247 977 29
248 356 605
249 107 39
250 362 727
251 570 421
252 162 737
253 557 652
254 139 48
255 145 568
256 596 316
257 681 194
258 268 893
259 420 824
260 94 529
261 422 341
262 226 328
263 687 807
264 299 951
265 549 281
266 944 64
267 316 904
268 554 49
269 160 221
270 302 952
271 258 765
272 406 684
273 182 881
274 641 481
275 541 807
276 107 602
277 870 999
278 247 282
279 771 712
280 109 942
281 305 827
282 865 629
283 632 928
284 571 734
285 899 632
286 189 934
287 385 166
288 851 399
289 890 198
290 370 248
291 372 910
292 11 248
293 845 326
294 508 769
295 511 900
296 320 984
297 158 330
298 159 327
299 798 648
300 746 195
301 555 541
302 832 900
303 809 931
304 460 869
305 585 804
306 487 102
307 194 288
308 340 877
309 127 981
310 39 692
311 187 528
312 462 482
313 890 450
314 857 64
315 96 223
316 610 842
317 910 604
318 260 757
319 809 211
320 767 499
321 48 352
322 23 950
323 289 98
324 622 891
325 499 618
326 873 960
327 82 752
328 65 845
329 281 842
330 990 747
331 809 808
332 693 76
333 744 478
334 506 411
335 668 167
336 301 696
337 61 500
338 9 695
339 939 496
340 390 699
341 741 894
342 39 477
343 476 728
344 663 477
345 112 160
346 588 281
347 215 559
348 528 309
349 839 820
350 601 769
351 668 953
352 594 865
353 407 905
354 478 244
355 423 639
356 174 707
357 635 465
358 570 151
359 651 612
360 785 786
361 166 64
362 684 574
363 598 632
364 645 944
365 976 284
366 576 737
367 87 725
368 177 414
369 865 221
370 459 506
371 23 683
372 507 320
373 961 987
374 497 889
375 888 561
376 963 175
377 223 208
378 308 530
379 237 184
380 576 387
381 937 529
382 463 219
383 210 641
384 582 748
385 215 107
386 985 385
387 22 783
388 920 945
389 502 117
390 851 594
391 467 732
392 728 54
393 64 249
394 492 57
395 415 372
396 852 45
397 503 209
398 292 125
399 316 855
400 340 273
401 242 217
402 700 96
403 942 989
404 37 511
405 663 175
406 670 279
407 611 829
408 471 843
409 268 61
410 412 350
411 4 325
412 454 981
413 94 359
414 688 524
415 982 397
416 725 208
417 793 620
418 337 779
419 106 856
420 350 826
421 965 538
422 780 360
423 144 904
424 225 646
425 510 276
426 564 632
427 573 501
428 903 827
429 605 806
430 38 525
431 445 738
432 138 788
433 216 988
434 944 955
435 220 716
436 788 589
437 75 130
438 858 686
439 107 314
440 717 125
441 991 306
442 62 373
443 641 426
444 747 436
445 350 855
446 42 62
447 184 460
448 153 199
449 618 878
450 986 690
451 430 839
452 161 233
453 840 747
454 284 582
455 899 505
456 453 998
457 134 596
458 30 955
459 437 412
460 660 92
461 203 828
462 524 418
463 723 31
464 869 759
465 824 606
466 764 469
467 760 852
468 119 378
469 352 365
470 954 998
471 381 873
472 905 972
473 222 302
474 0 783
475 746 114
476 670 702
477 447 881
478 14 996
479 844 110
480 315 373
481 115 329
482 808 697
483 992 409
484 692 929
485 897 142
486 397 338
487 334 75
488 104 954
489 537 581
490 502 262
491 346 190
492 812 171
493 361 170
494 44 202
495 326 351
496 525 950
497 773 202
498 650 781
499 906 167
500 910 793
501 752 234
502 147 12
503 542 768
504 82 850
505 358 588
506 68 802
507 19 296
508 114 406
509 228 854
510 147 444
511 954 410
512 529 392
513 77 383
514 822 126
515 284 784
516 804 876
517 200 797
518 735 425
519 784 608
520 870 566
521 968 481
522 548 87
523 609 314
524 328 85
525 852 128
526 505 944
527 358 609
528 311 26
529 855 140
530 909 915
531 407 84
532 523 987
533 690 982
534 841 250
535 499 9
536 646 414
537 516 682
538 713 221
539 328 800
540 944 22
541 691 660
542 763 609
543 44 506
544 756 289
DEMAND_SECTION
2 1
3 1
4 1
5 1
6 1
7 1
8 1
9 1
10 1
11 1
12 1
13 1
14 1
15 1
16 1
17 1
18 1
19 1
20 1
21 1
22 1
23 1
24 1
25 1
26 1
27 1
28 1
29 1
30 1
31 1
32 1
33 1
34 1
35 1
36 1
37 1
38 1
39 1
40 1
41 1
42 1
43 1
44 1
45 1
46 1
47 1
48 1
49 1
50 1
51 1
52 1
53 1
54 1
55 1
56 1
57 1
58 1
59 1
60 1
61 1
62 1
63 1
64 1
65 1
66 1
67 1
68 1
69 1
70 1
71 1
72 1
73 1
74 1
75 1
76 1
77 1
78 1
79 1
80 1
81 1
82 1
83 1
84 1
85 1
86 1
87 1
88 1
89 1
90 1
91 1
92 1
93 1
94 1
95 1
96 1
97 1
98 1
99 1
100 1
101 1
102 1
103 1
104 1
105 1
106 1
107 1
108 1
109 1
110 1
111 1
112 1
113 1
114 1
115 1
116 1
117 1
118 1
119 1
120 1
121 1
122 1
123 1
124 1
125 1
126 1
127 1
128 1
129 1
130 1
131 1
132 1
133 1
134 1
135 1
136 1
137 1
138 1
139 1
140 1
141 1
142 1
143 1
144 1
145 1
146 1
147 1
148 1
149 1
150 1
151 1
152 1
153 1
154 1
155 1
156 1
157 1
158 1
159 1
160 1
161 1
162 1
163 1
164 1
165 1
166 1
167 1
168 1
169 1
170 1
171 1
172 1
173 1
174 1
175 1
176 1
177 1
178 1
179 1
180 1
181 1
182 1
183 1
184 1
185 1
186 1
187 1
188 1
189 1
190 1
191 1
192 1
193 1
194 1
195 1
196 1
197 1
198 1
199 1
200 1
201 1
202 1
203 1
204 1
205 1
206 1
207 1
208 1
209 1
210 1
211 1
212 1
213 1
214 1
215 1
216 1
217 1
218 1
219 1
COVERAGE_SECTION
2 7 347 242 311 139 9 168 162 
3 7 105 71 6 63 170 132 378 
4 7 305 407 429 316 275 352 75 
5 7 533 60 351 364 179 484 283 
6 7 3 91 105 459 23 150 177 
7 7 29 428 500 240 530 222 330 
8 7 386 415 165 483 229 511 441 
9 7 311 255 347 2 168 227 10 
10 7 260 9 255 311 337 69 510 
11 7 45 103 82 15 248 527 505 
12 7 374 304 477 295 408 526 95 
13 7 153 297 298 262 118 151 368 
14 7 88 324 26 283 449 352 55 
15 7 103 161 11 336 130 45 82 
16 7 35 446 249 191 219 101 437 
17 7 198 278 237 473 121 262 495 
18 5 536 221 443 238 210 
19 7 123 233 63 174 368 170 71 
20 7 358 114 76 142 522 84 119 
21 7 119 47 460 402 335 440 140 
22 7 43 359 74 363 541 476 426 
23 7 505 370 248 527 82 6 177 
24 7 25 277 186 326 303 472 302 
25 7 326 24 186 277 303 472 302 
26 7 92 14 55 496 283 532 364 
27 7 348 265 372 425 39 256 346 
28 7 167 53 535 203 212 394 531 
29 7 7 428 500 240 530 222 388 
30 7 317 285 116 282 375 202 390 
31 7 110 73 493 287 524 156 100 
32 7 42 449 324 316 352 407 283 
33 7 154 491 231 493 73 156 110 
34 7 293 422 40 236 288 230 152 
35 7 446 16 249 191 437 219 158 
36 7 83 514 479 475 525 314 396 
37 7 169 321 49 145 442 413 507 
38 7 540 247 266 61 135 136 396 
39 7 346 265 256 523 27 216 46 
40 7 288 236 34 230 163 239 422 
41 7 196 353 131 205 95 291 246 
42 7 32 449 324 316 352 407 88 
43 7 22 359 363 74 426 541 62 
44 7 544 238 422 406 51 501 230 
45 7 82 11 527 248 505 103 15 
46 7 523 256 346 51 406 238 39 
47 7 460 140 332 402 21 119 440 
48 7 276 208 128 194 69 108 220 
49 7 321 145 37 442 169 411 513 
50 7 306 137 389 142 394 76 531 
51 7 406 238 46 209 180 523 44 
52 7 275 75 294 408 503 4 305 
53 7 167 203 528 28 487 524 531 
54 7 158 494 193 437 315 345 102 
55 7 496 526 532 295 26 92 14 
56 7 318 271 155 515 138 336 435 
57 7 471 353 451 477 214 259 291 
58 7 111 504 328 419 218 160 280 
59 6 228 241 274 357 159 344 
60 7 5 533 351 364 179 484 283 
61 7 135 266 540 247 38 485 314 
62 7 426 253 172 363 489 325 537 
63 7 71 123 105 174 19 170 3 
64 7 210 256 380 523 27 346 348 
65 7 376 176 211 499 217 485 289 
66 7 124 486 261 410 112 400 121 
67 7 433 264 270 296 286 157 146 
68 7 521 229 483 165 96 511 339 
69 7 457 220 276 255 109 194 48 
70 7 467 243 341 516 263 360 331 
71 7 63 105 123 3 174 132 170 
72 7 100 106 287 382 73 493 137 
73 7 493 287 491 110 31 100 154 
74 7 476 22 541 43 207 245 359 
75 7 275 503 305 52 4 294 384 
76 7 142 114 389 84 358 306 397 
77 7 162 424 139 215 383 454 242 
78 7 80 354 490 425 372 382 348 
79 7 225 385 361 129 189 254 184 
80 7 78 354 490 382 425 106 112 
81 7 268 522 460 140 212 47 114 
82 7 248 527 45 505 11 103 15 
83 7 36 475 182 514 440 115 479 
84 7 397 216 76 358 114 354 382 
85 7 313 455 288 236 40 339 187 
86 7 93 299 417 465 482 519 164 
87 7 453 464 438 164 190 199 126 
88 7 352 449 324 14 316 4 42 
89 7 319 534 369 152 497 492 501 
90 7 286 273 157 423 127 94 509 
91 7 459 177 312 370 97 6 201 
92 7 26 532 496 55 526 14 283 
93 7 86 299 482 417 164 438 465 
94 7 423 127 111 280 90 273 419 
95 7 205 412 196 41 456 526 246 
96 7 421 381 339 521 68 455 375 
97 7 334 462 512 459 91 201 395 
98 7 194 113 356 213 208 108 220 
99 7 378 132 454 162 215 105 2 
100 7 287 72 73 493 106 491 231 
101 7 502 254 249 361 225 191 79 
102 7 292 393 494 507 193 54 315 
103 7 15 11 161 45 130 82 336 
104 7 458 478 322 160 175 488 111 
105 7 71 3 63 132 174 378 99 
106 7 382 72 354 100 112 80 397 
107 7 495 480 469 170 121 124 486 
108 7 208 213 194 128 310 234 48 
109 7 227 457 220 113 168 69 255 
110 7 31 73 493 156 287 491 154 
111 7 58 280 488 94 423 127 419 
112 7 290 231 66 106 80 124 400 
113 7 109 383 227 98 424 220 168 
114 7 358 142 76 20 522 389 84 
115 7 492 148 223 514 319 529 497 
116 7 375 520 202 30 317 390 455 
117 7 171 343 391 431 272 537 355 
118 7 307 153 298 297 122 473 262 
119 7 21 460 47 335 405 140 402 
120 7 128 371 147 310 338 108 48 
121 7 124 400 237 495 17 198 66 
122 7 307 118 452 473 269 278 153 
123 7 19 63 174 71 233 170 105 
124 7 121 400 66 290 237 486 495 
125 7 516 222 349 302 331 467 240 
126 7 190 164 438 285 282 199 204 
127 7 423 94 273 90 419 111 280 
128 7 120 371 108 48 208 147 310 
129 7 385 79 379 448 225 377 269 
130 7 15 103 340 11 161 45 336 
131 7 291 353 41 471 133 57 196 
132 7 99 105 378 71 174 63 2 
133 7 308 197 445 471 399 267 291 
134 7 342 337 543 404 430 173 513 
135 7 61 266 540 247 485 314 38 
136 7 396 314 540 38 479 135 36 
137 7 50 306 531 389 394 72 142 
138 7 192 435 56 155 318 424 356 
139 7 242 168 347 162 227 77 2 
140 7 47 460 332 402 21 119 392 
141 7 420 539 281 197 399 445 418 
142 7 389 76 114 306 522 50 358 
143 7 498 188 183 429 407 263 350 
144 6 432 461 517 419 273 127 
145 7 321 49 442 37 513 169 413 
146 7 270 264 267 296 149 291 131 
147 7 371 310 338 166 120 128 108 
148 7 223 115 529 492 525 514 479 
149 7 296 146 270 264 246 196 41 
150 7 395 201 410 261 486 459 469 
151 7 368 510 508 468 233 13 447 
152 7 534 293 89 34 544 369 319 
153 7 118 298 297 307 13 473 262 
154 7 491 33 231 493 73 287 110 
155 7 336 56 161 318 138 271 15 
156 7 398 110 323 33 31 491 493 
157 7 90 286 273 258 509 200 423 
158 7 54 494 193 437 345 315 102 
159 7 59 185 228 241 427 274 301 
160 7 458 322 104 478 58 111 175 
161 7 15 103 336 155 11 130 45 
162 7 454 215 139 242 77 347 2 
163 7 230 239 422 206 444 518 40 
164 7 438 190 126 87 93 282 482 
165 7 483 229 415 386 8 511 68 
166 7 310 147 338 371 367 234 327 
167 7 53 203 28 528 531 487 524 
168 7 227 242 139 347 109 9 2 
169 7 37 439 235 321 413 481 145 
170 7 480 63 107 71 3 123 19 
171 7 343 391 117 431 537 294 503 
172 7 253 537 62 426 325 363 226 
173 7 430 404 543 342 337 134 260 
174 7 123 63 71 132 233 105 19 
175 7 488 309 280 160 458 104 478 
176 7 376 217 65 211 499 178 289 
177 7 312 370 91 459 334 97 23 
178 7 217 365 289 369 176 441 534 
179 7 351 364 484 283 60 533 324 
180 7 209 46 346 51 257 405 39 
181 7 436 465 187 390 202 519 520 
182 7 440 475 83 402 300 21 416 
183 7 429 407 143 316 305 498 350 
184 7 409 189 323 385 528 398 79 
185 7 159 414 362 59 274 228 359 
186 7 326 277 472 25 24 388 403 
187 7 181 320 202 520 455 375 232 
188 7 498 143 263 207 183 350 429 
189 7 184 409 385 79 323 225 361 
190 7 126 164 438 199 285 282 87 
191 7 219 437 249 254 446 345 361 
192 7 435 138 356 56 318 424 252 
193 7 494 54 158 315 393 345 102 
194 7 208 276 220 98 108 457 69 
195 7 416 538 300 501 257 497 209 
196 7 41 205 95 246 412 131 353 
197 7 445 308 399 133 420 141 281 
198 7 17 278 237 473 121 262 400 
199 7 190 126 204 87 164 438 285 
200 7 258 267 329 264 399 270 146 
201 7 395 150 410 261 459 486 97 
202 7 520 116 375 390 30 181 317 
203 7 53 167 528 487 28 524 531 
204 7 285 199 126 190 450 317 30 
205 7 95 196 412 41 456 246 353 
206 7 444 239 518 466 333 163 230 
207 7 188 476 498 263 245 143 74 
208 7 108 194 48 213 276 128 98 
209 7 180 51 406 257 46 538 405 
210 7 64 380 256 523 221 536 18 
211 7 376 65 176 499 217 485 61 
212 7 535 394 268 522 306 28 81 
213 7 234 367 108 208 310 98 166 
214 7 259 451 57 408 304 477 471 
215 7 454 162 77 11 103 99 45 
216 7 84 39 265 397 346 490 425 
217 7 176 178 376 65 289 365 499 
218 6 328 504 506 58 419 387 
219 7 191 437 345 249 254 446 225 
220 7 457 69 276 109 255 194 227 
221 5 536 443 357 18 210 
222 7 125 349 240 428 302 516 331 
223 7 148 529 115 492 525 514 479 
224 7 463 392 332 36 402 136 396 
225 7 79 361 385 254 129 189 191 
226 7 244 325 355 117 537 172 272 
227 7 168 109 139 242 113 347 255 
228 6 59 241 274 357 159 344 
229 7 483 415 165 386 511 8 68 
230 7 163 422 239 206 444 518 40 
231 7 154 290 491 33 493 112 400 
232 7 320 333 466 206 444 414 518 
233 7 447 368 123 19 174 510 151 
234 7 213 367 327 166 108 310 208 
235 7 481 439 169 413 297 298 37 
236 7 288 40 34 313 293 85 230 
237 7 400 121 198 17 124 278 290 
238 7 51 406 46 523 18 44 256 
239 7 206 444 163 518 230 466 333 
240 7 530 222 302 388 29 428 326 
241 7 228 59 357 274 427 159 344 
242 7 139 347 168 162 2 227 77 
243 7 263 70 467 360 207 188 331 
244 7 355 226 325 272 117 527 248 
245 7 541 476 279 207 74 482 22 
246 7 456 196 205 412 41 95 149 
247 7 540 38 266 61 135 136 211 
248 7 527 82 505 45 11 103 15 
249 7 254 101 502 191 361 219 446 
250 7 340 130 418 272 336 155 539 
251 7 380 462 512 221 334 210 241 
252 7 356 432 435 192 517 98 234 
253 7 62 172 426 363 537 325 489 
254 7 101 361 249 502 225 191 79 
255 7 69 457 220 109 9 227 276 
256 7 523 64 346 46 39 210 27 
257 7 405 335 538 195 416 209 180 
258 7 200 267 329 157 509 399 264 
259 7 214 451 57 408 304 471 477 
260 7 10 337 543 430 404 255 69 
261 7 410 486 201 395 150 66 78 
262 7 473 153 13 278 307 17 118 
263 7 188 243 498 143 207 183 70 
264 7 270 146 296 267 200 149 258 
265 7 27 39 348 346 425 216 490 
266 7 61 135 540 247 38 314 211 
267 7 146 308 200 133 258 399 197 
268 7 81 522 212 394 535 142 306 
269 7 452 448 122 315 377 307 129 
270 7 264 146 296 267 149 200 258 
271 6 318 56 515 155 435 138 
272 7 340 355 117 130 250 431 244 
273 7 90 127 157 423 94 286 509 
274 5 357 59 228 344 241 
275 7 75 52 503 4 305 294 429 
276 7 69 220 457 48 194 208 255 
277 7 186 24 326 472 25 403 388 
278 7 198 473 17 262 307 122 237 
279 7 482 245 299 93 86 360 453 
280 7 488 111 309 94 175 423 127 
281 7 329 141 399 539 197 420 515 
282 7 285 390 126 30 190 465 317 
283 7 364 179 324 351 14 449 32 
284 7 366 384 503 350 75 305 294 
285 7 30 317 282 126 190 204 390 
286 7 90 157 273 423 433 127 94 
287 7 73 100 493 31 72 110 491 
288 7 40 236 34 85 313 293 230 
289 7 369 499 485 223 217 148 65 
290 7 231 112 400 124 154 66 491 
291 7 131 353 471 133 308 41 57 
292 7 102 507 393 494 193 54 411 
293 7 34 152 236 288 422 534 40 
294 7 503 52 75 275 343 171 391 
295 7 374 12 526 55 496 304 477 
296 7 149 270 264 146 67 267 131 
297 7 298 153 118 13 481 235 439 
298 7 297 153 118 13 481 235 307 
299 7 86 93 417 519 465 482 542 
300 7 416 497 195 501 538 182 257 
301 7 427 489 159 241 59 228 185 
302 7 516 303 125 222 240 25 326 
303 7 302 25 516 326 24 341 125 
304 7 477 12 408 374 451 57 214 
305 7 429 4 183 407 350 75 275 
306 7 50 389 137 142 394 76 522 
307 7 118 122 473 153 262 298 278 
308 7 133 197 445 399 267 471 291 
309 7 488 175 280 111 94 286 423 
310 7 147 371 166 338 108 128 213 
311 7 9 2 347 168 255 242 10 
312 7 177 370 91 459 334 97 23 
313 7 85 455 288 236 339 40 511 
314 7 396 136 479 36 525 514 135 
315 7 193 393 494 54 448 269 345 
316 7 407 352 183 429 4 449 42 
317 7 30 285 116 375 282 202 520 
318 6 271 56 515 155 435 138 
319 7 89 497 492 115 534 223 369 
320 7 232 466 333 187 206 444 239 
321 7 145 49 37 442 169 513 413 
322 7 458 160 104 478 58 111 175 
323 7 398 524 409 156 184 487 189 
324 7 449 32 42 283 352 88 14 
325 7 226 489 244 62 172 426 537 
326 7 186 25 472 277 388 24 530 
327 6 367 234 166 506 213 432 
328 6 218 504 419 506 58 111 
329 7 281 399 258 509 141 200 197 
330 7 450 199 500 7 204 29 428 
331 7 349 360 125 467 222 453 516 
332 7 402 140 47 460 392 21 463 
333 7 232 466 320 444 206 518 239 
334 7 462 97 512 251 459 380 91 
335 7 405 257 119 21 440 416 538 
336 7 155 161 15 103 130 56 138 
337 7 543 404 342 430 260 134 173 
338 7 147 371 310 166 120 128 108 
339 7 381 521 96 455 421 68 313 
340 7 272 250 130 117 431 355 391 
341 7 467 70 484 516 303 179 243 
342 7 134 543 337 404 430 173 260 
343 7 171 391 431 117 294 537 503 
344 5 274 357 59 228 414 
345 7 437 219 448 193 315 54 158 
346 7 39 256 265 523 46 27 216 
347 7 2 242 139 168 311 9 227 
348 7 27 372 265 425 490 39 346 
349 7 331 125 222 360 428 516 464 
350 7 384 429 305 366 183 284 143 
351 7 179 60 364 484 533 5 283 
352 7 88 449 316 324 407 42 4 
353 7 131 57 41 291 471 477 196 
354 7 382 490 80 78 397 425 106 
355 7 244 226 272 117 340 527 248 
356 7 252 192 435 98 138 113 383 
357 5 274 228 59 344 241 
358 7 20 114 76 142 84 522 389 
359 7 43 22 362 363 541 185 74 
360 7 331 243 349 453 467 70 279 
361 7 225 254 79 101 502 249 385 
362 7 185 359 414 43 22 541 542 
363 7 43 426 62 253 22 359 172 
364 7 179 283 351 60 484 324 533 
365 7 441 178 217 176 8 386 376 
366 7 284 384 350 503 75 305 294 
367 6 234 327 213 166 310 108 
368 7 151 233 510 447 19 13 508 
369 7 289 534 89 319 223 499 148 
370 7 312 177 91 23 459 6 301 
371 7 147 310 338 166 120 128 108 
372 7 348 27 425 78 265 490 80 
373 7 470 403 434 472 388 186 530 
374 7 295 12 304 477 408 526 55 
375 7 116 520 202 30 317 390 455 
376 7 65 176 211 217 499 485 289 
377 7 401 379 122 269 452 129 448 
378 7 99 132 105 454 215 162 3 
379 7 377 401 129 156 385 398 269 
380 7 251 64 210 512 462 221 256 
381 7 421 339 96 455 521 375 116 
382 7 106 354 397 72 80 490 78 
383 7 424 113 77 139 227 109 168 
384 7 366 284 350 503 75 305 429 
385 7 79 189 225 129 184 361 409 
386 7 8 415 165 483 229 511 68 
387 6 474 506 218 166 327 328 
388 7 434 472 530 326 403 186 373 
389 7 142 306 50 76 114 137 522 
390 7 202 465 520 282 116 30 181 
391 7 343 171 431 117 294 537 272 
392 7 463 332 402 224 140 475 47 
393 7 102 315 193 494 292 507 54 
394 7 212 306 535 50 389 268 522 
395 7 150 201 410 261 486 459 469 
396 7 314 136 479 36 525 135 514 
397 7 84 382 354 490 216 76 106 
398 7 156 323 524 110 487 409 31 
399 7 197 281 308 445 329 141 133 
400 7 121 124 237 290 231 66 112 
401 7 377 379 122 278 198 269 33 
402 7 332 47 440 140 21 460 475 
403 7 470 373 434 472 388 186 277 
404 7 543 430 337 173 342 134 260 
405 7 335 257 119 21 209 180 538 
406 7 51 238 209 46 180 523 44 
407 7 316 183 429 4 305 352 143 
408 7 304 451 477 12 52 214 374 
409 7 184 189 323 528 524 487 398 
410 7 261 486 395 201 150 66 469 
411 7 507 49 321 37 145 169 442 
412 7 456 205 95 246 196 41 526 
413 7 513 468 442 169 481 235 145 
414 6 185 362 344 274 232 333 
415 7 386 229 483 165 8 511 68 
416 7 195 538 300 501 257 497 335 
417 7 519 299 436 542 465 86 93 
418 7 539 141 420 515 250 281 56 
419 7 504 328 127 58 94 111 218 
420 7 141 445 539 197 281 399 418 
421 7 96 381 339 521 455 375 68 
422 7 230 163 34 239 44 40 293 
423 7 94 127 90 273 280 286 111 
424 7 383 77 113 138 139 192 242 
425 7 490 348 265 372 354 78 27 
426 7 62 253 363 172 489 325 43 
427 7 241 301 159 228 59 274 357 
428 7 500 29 222 7 349 240 464 
429 7 183 305 407 4 316 350 143 
430 7 404 543 173 337 342 260 134 
431 7 391 343 171 117 272 340 294 
432 6 144 252 517 327 506 419 
433 7 67 286 157 90 309 264 270 
434 7 388 403 373 472 470 530 186 
435 7 192 138 356 318 56 252 271 
436 7 519 417 542 181 465 299 390 
437 7 219 191 345 158 54 193 446 
438 7 164 190 126 87 93 482 199 
439 7 235 481 169 413 37 297 298 
440 7 182 475 402 21 47 332 119 
441 7 365 8 178 386 415 217 165 
442 7 145 513 321 49 413 37 169 
443 5 221 536 357 18 274 
444 7 206 518 239 466 333 163 230 
445 7 197 133 308 420 399 471 141 
446 7 35 191 16 249 219 437 254 
447 7 233 510 368 174 151 123 19 
448 7 269 452 345 129 315 377 122 
449 7 324 42 32 352 88 316 407 
450 7 204 330 199 285 190 126 317 
451 7 214 259 57 408 304 477 471 
452 7 269 448 122 307 315 377 118 
453 7 464 87 482 438 360 331 164 
454 7 215 162 77 99 378 139 11 
455 7 339 381 85 313 375 116 520 
456 7 412 205 246 95 196 532 41 
457 7 220 69 276 255 109 194 227 
458 7 160 322 104 478 175 58 111 
459 7 91 201 395 150 97 410 334 
460 7 47 140 21 119 332 402 440 
461 6 517 509 144 273 432 329 
462 7 334 512 97 251 380 459 177 
463 7 392 224 332 402 140 47 475 
464 7 453 87 500 349 199 438 428 
465 7 390 417 436 519 181 86 282 
466 7 333 320 232 206 444 239 518 
467 7 70 341 516 243 331 125 360 
468 7 508 413 513 151 481 235 442 
469 7 107 495 480 486 150 410 395 
470 7 373 403 434 472 388 186 277 
471 7 57 133 445 291 308 353 131 
472 7 186 388 326 403 434 277 470 
473 7 262 307 278 153 118 122 198 
474 6 387 506 218 166 327 338 
475 7 182 83 440 402 36 392 332 
476 7 74 207 541 245 22 188 498 
477 7 304 12 57 408 451 353 374 
478 7 104 458 322 160 175 488 280 
479 7 525 514 529 36 314 148 223 
480 7 107 495 170 469 121 17 3 
481 7 235 439 413 169 297 298 468 
482 7 93 279 86 299 438 164 453 
483 7 165 229 415 386 8 511 68 
484 7 179 351 364 533 60 283 341 
485 7 499 529 525 289 65 223 479 
486 7 410 261 66 395 150 201 469 
487 7 524 323 528 31 398 53 203 
488 7 280 309 175 111 94 423 160 
489 7 301 325 62 426 253 172 363 
490 7 425 354 78 80 265 397 348 
491 7 154 33 493 73 231 110 287 
492 7 115 148 223 319 514 497 529 
493 7 73 287 491 110 154 31 100 
494 7 54 193 158 102 393 315 292 
495 7 107 480 469 121 124 170 17 
496 7 55 526 532 295 92 26 374 
497 7 300 319 501 416 492 115 89 
498 7 188 143 183 263 207 350 429 
499 7 485 289 65 376 529 223 176 
500 7 428 464 29 7 349 222 87 
501 7 195 416 497 300 538 544 319 
502 7 101 254 249 361 225 79 191 
503 7 75 294 275 284 384 366 52 
504 6 328 419 218 58 506 111 
505 7 248 527 82 45 11 23 103 
506 6 218 328 387 504 327 419 
507 7 411 102 292 37 49 321 169 
508 7 468 513 151 510 413 442 368 
509 6 461 273 329 157 258 517 
510 7 447 151 368 508 233 468 10 
511 7 229 415 483 386 165 8 68 
512 7 462 334 97 380 251 64 372 
513 7 442 413 145 321 468 508 49 
514 7 479 525 148 529 36 115 223 
515 7 271 318 56 539 281 418 329 
516 7 125 302 467 303 222 70 341 
517 6 461 144 432 509 271 252 
518 7 444 206 239 163 466 333 230 
519 7 417 436 542 465 299 86 181 
520 7 202 116 375 390 30 317 181 
521 7 68 339 96 381 421 229 511 
522 7 268 142 114 389 81 306 394 
523 7 256 46 346 64 210 39 238 
524 7 487 323 398 31 110 528 156 
525 7 529 479 514 148 223 485 115 
526 7 496 55 295 532 374 95 12 
527 7 248 82 45 505 11 103 130 
528 7 203 487 409 53 524 167 184 
529 7 525 148 223 479 514 485 115 
530 7 240 388 434 472 326 186 29 
531 7 137 31 50 487 167 53 524 
532 7 496 92 55 526 26 412 456 
533 7 5 60 351 484 179 364 283 
534 7 89 152 369 319 289 293 497 
535 7 212 394 268 28 522 306 81 
536 5 221 443 18 357 344 
537 7 172 253 171 343 117 62 325 
538 7 195 416 501 257 300 209 497 
539 7 141 418 420 281 515 399 197 
540 7 38 247 266 61 135 136 396 
541 7 74 245 476 22 359 43 362 
542 7 519 417 436 299 465 86 181 
543 7 404 337 430 342 173 134 260 
544 7 44 501 152 422 538 195 89 
DEPOT_SECTION
   1
   -1
EOF
