NAME :  X-n502-kX-w100-c7.cctp
COMMENT : 	Adapted by Maziero, Usberti and Cavellucci from the Uchoa, Pecin, Pessoa, Poggi, Subramanian, and Vidal (2013)
TYPE :  CCTP
DIMENSION :    424
EDGE_WEIGHT_TYPE : 	EUC_2D	
CAPACITY : 	13
VERTICES_WITHIN_COVERAGE :  7
VERTICES_WITH_DEMAND : 	100
NODE_COORD_SECTION
1 0 0
2 159 917
3 635 200
4 278 907
5 667 141
6 119 954
7 29 448
8 590 87
9 375 990
10 511 374
11 298 957
12 107 911
13 323 766
14 161 892
15 151 912
16 438 1000
17 284 933
18 724 191
19 286 940
20 144 785
21 672 157
22 759 176
23 553 179
24 625 167
25 133 924
26 695 73
27 149 946
28 599 162
29 305 712
30 229 709
31 332 874
32 756 143
33 696 248
34 94 777
35 381 975
36 224 928
37 414 951
38 910 190
39 749 162
40 668 273
41 146 786
42 17 793
43 255 883
44 326 837
45 549 226
46 137 868
47 74 977
48 618 248
49 328 898
50 62 802
51 177 914
52 646 208
53 666 142
54 591 205
55 163 873
56 721 164
57 623 153
58 333 956
59 237 874
60 729 102
61 330 896
62 192 949
63 446 930
64 148 897
65 92 876
66 389 942
67 131 847
68 237 990
69 594 149
70 780 190
71 719 271
72 168 982
73 278 911
74 256 896
75 279 903
76 613 47
77 597 187
78 440 296
79 320 872
80 261 925
81 301 931
82 599 218
83 227 860
84 591 189
85 319 992
86 617 172
87 118 839
88 117 909
89 578 300
90 503 966
91 232 907
92 34 955
93 191 816
94 273 42
95 171 877
96 132 920
97 113 906
98 581 125
99 138 910
100 149 870
101 622 303
102 587 60
103 310 832
104 568 227
105 711 167
106 728 251
107 185 937
108 110 840
109 254 945
110 140 937
111 238 919
112 97 799
113 804 100
114 243 927
115 310 938
116 171 826
117 708 166
118 151 931
119 262 920
120 121 769
121 199 749
122 78 738
123 323 963
124 63 799
125 233 931
126 693 170
127 673 156
128 213 980
129 620 191
130 125 946
131 748 117
132 250 926
133 661 327
134 147 831
135 181 923
136 548 235
137 682 157
138 263 898
139 469 339
140 144 915
141 569 234
142 577 450
143 598 231
144 693 229
145 211 643
146 12 942
147 288 969
148 734 312
149 641 37
150 156 915
151 74 787
152 705 109
153 240 902
154 603 338
155 572 363
156 620 204
157 272 925
158 585 299
159 107 789
160 617 223
161 242 907
162 601 240
163 453 388
164 301 889
165 681 238
166 607 119
167 351 970
168 159 896
169 582 156
170 472 257
171 143 878
172 113 926
173 236 888
174 738 73
175 716 196
176 532 304
177 334 772
178 514 326
179 220 712
180 631 121
181 531 262
182 707 228
183 617 160
184 624 151
185 609 191
186 599 228
187 210 727
188 239 749
189 650 373
190 550 138
191 393 807
192 195 806
193 81 873
194 375 829
195 104 898
196 271 910
197 222 806
198 655 37
199 324 847
200 622 54
201 101 875
202 241 842
203 627 176
204 869 235
205 812 223
206 561 286
207 171 973
208 651 183
209 365 946
210 125 924
211 296 984
212 682 174
213 185 807
214 236 972
215 278 948
216 338 880
217 759 215
218 253 878
219 190 865
220 612 266
221 204 902
222 169 877
223 101 877
224 242 885
225 585 201
226 592 164
227 461 897
228 267 899
229 156 936
230 268 927
231 303 918
232 110 877
233 625 248
234 265 857
235 592 325
236 715 115
237 565 376
238 306 759
239 208 961
240 120 892
241 115 963
242 33 726
243 750 227
244 432 927
245 97 802
246 552 303
247 595 189
248 190 815
249 175 949
250 458 246
251 175 872
252 486 173
253 320 818
254 207 945
255 183 837
256 76 937
257 154 972
258 215 886
259 647 225
260 90 963
261 635 199
262 310 860
263 757 281
264 528 222
265 187 947
266 568 144
267 179 893
268 429 939
269 323 841
270 611 282
271 170 927
272 136 925
273 161 968
274 283 911
275 684 269
276 303 957
277 98 843
278 608 145
279 136 934
280 435 879
281 421 265
282 189 916
283 296 925
284 394 969
285 161 856
286 222 947
287 189 816
288 470 256
289 239 875
290 171 888
291 205 941
292 55 872
293 354 803
294 612 189
295 135 857
296 664 215
297 145 863
298 740 71
299 102 946
300 402 983
301 593 174
302 118 922
303 738 121
304 41 948
305 350 705
306 544 124
307 196 681
308 160 889
309 159 858
310 654 195
311 328 864
312 241 885
313 266 914
314 717 180
315 684 230
316 301 860
317 180 920
318 301 865
319 294 964
320 383 912
321 559 143
322 433 966
323 827 145
324 294 784
325 298 915
326 175 923
327 333 919
328 596 219
329 614 286
330 104 861
331 279 771
332 188 938
333 100 840
334 117 866
335 722 126
336 215 853
337 276 893
338 444 296
339 547 286
340 213 803
341 86 990
342 672 173
343 360 987
344 718 192
345 66 817
346 657 97
347 33 914
348 623 266
349 678 101
350 270 864
351 620 232
352 335 935
353 295 987
354 101 738
355 359 881
356 158 934
357 182 919
358 717 177
359 653 54
360 683 139
361 381 928
362 277 962
363 608 267
364 625 217
365 565 76
366 523 188
367 519 855
368 165 947
369 305 922
370 406 294
371 227 858
372 774 36
373 611 204
374 209 979
375 557 175
376 80 903
377 172 890
378 203 984
379 665 200
380 230 892
381 138 914
382 270 872
383 702 198
384 737 258
385 150 975
386 174 804
387 266 959
388 142 936
389 79 750
390 208 836
391 439 240
392 438 339
393 841 230
394 289 910
395 309 861
396 408 932
397 616 200
398 729 281
399 642 230
400 707 106
401 395 678
402 134 820
403 514 197
404 547 236
405 660 98
406 0 923
407 302 673
408 50 967
409 79 930
410 628 254
411 3 965
412 159 988
413 613 252
414 229 833
415 343 877
416 626 246
417 332 921
418 214 861
419 117 872
420 119 964
421 370 865
422 632 243
423 304 893
424 288 773
DEMAND_SECTION
2 1
3 1
4 1
5 1
6 1
7 1
8 1
9 1
10 1
11 1
12 1
13 1
14 1
15 1
16 1
17 1
18 1
19 1
20 1
21 1
22 1
23 1
24 1
25 1
26 1
27 1
28 1
29 1
30 1
31 1
32 1
33 1
34 1
35 1
36 1
37 1
38 1
39 1
40 1
41 1
42 1
43 1
44 1
45 1
46 1
47 1
48 1
49 1
50 1
51 1
52 1
53 1
54 1
55 1
56 1
57 1
58 1
59 1
60 1
61 1
62 1
63 1
64 1
65 1
66 1
67 1
68 1
69 1
70 1
71 1
72 1
73 1
74 1
75 1
76 1
77 1
78 1
79 1
80 1
81 1
82 1
83 1
84 1
85 1
86 1
87 1
88 1
89 1
90 1
91 1
92 1
93 1
94 1
95 1
96 1
97 1
98 1
99 1
100 1
101 1
COVERAGE_SECTION
2 7 150 15 140 271 118 326 356 
3 6 261 52 156 129 397 310 
4 7 73 75 274 196 394 228 313 
5 7 53 127 360 21 137 342 212 
6 6 130 241 420 299 279 110 
7 3 145 242 307 
8 7 102 365 166 98 76 200 180 
9 7 343 35 284 300 167 209 66 
10 7 178 237 139 163 155 176 392 
11 7 276 319 147 19 115 215 362 
12 7 97 88 195 172 302 210 240 
13 6 177 238 324 424 331 293 
14 7 308 168 290 377 64 222 95 
15 7 150 140 2 99 381 64 168 
16 7 322 300 284 37 35 268 9 
17 7 19 157 283 215 81 230 274 
18 7 344 175 314 358 383 56 105 
19 7 17 215 81 283 11 157 230 
20 7 41 120 386 402 159 134 213 
21 7 127 137 53 342 5 212 360 
22 7 39 70 32 18 217 56 314 
23 7 375 366 321 169 266 84 225 
24 7 86 203 183 57 184 129 28 
25 7 272 96 210 279 381 140 99 
26 7 349 400 152 174 405 60 298 
27 7 229 388 110 118 356 368 279 
28 7 226 301 69 169 183 278 86 
29 7 407 305 238 13 424 331 177 
30 5 179 187 188 307 121 
31 7 216 311 415 79 61 49 262 
32 7 39 131 303 22 335 56 60 
33 6 165 144 315 182 275 106 
34 7 159 112 151 245 120 389 124 
35 7 284 9 300 343 167 209 66 
36 6 125 111 114 286 91 291 
37 7 268 396 322 66 284 244 300 
38 6 204 393 323 205 70 113 
39 7 22 32 56 358 314 18 105 
40 4 275 165 33 410 
41 7 20 120 386 402 159 213 134 
42 7 50 124 345 151 242 389 34 
43 7 218 74 224 312 138 289 382 
44 7 269 199 103 253 311 262 395 
45 5 136 404 104 264 141 
46 7 297 295 100 171 334 419 67 
47 7 341 260 408 256 299 241 304 
48 7 413 233 416 410 422 351 162 
49 7 61 216 327 417 31 423 415 
50 7 124 345 151 112 245 34 42 
51 7 317 357 326 135 282 271 2 
52 7 3 261 310 259 296 379 399 
53 7 5 21 127 360 137 342 212 
54 7 225 82 328 84 247 77 373 
55 7 222 95 251 100 308 309 285 
56 7 105 117 358 314 18 39 344 
57 7 184 183 24 278 86 203 28 
58 7 123 352 167 115 276 209 11 
59 7 289 224 312 173 218 83 371 
60 7 236 303 400 131 152 335 174 
61 7 49 216 31 327 415 417 79 
62 6 265 332 107 291 254 249 
63 7 244 268 227 37 322 396 280 
64 7 168 14 308 15 99 140 150 
65 6 201 223 193 232 330 195 
66 6 361 396 209 37 284 320 
67 7 295 87 297 46 108 134 334 
68 4 214 128 374 378 
69 7 28 169 226 278 183 301 266 
70 7 22 217 39 205 243 32 18 
71 7 398 106 384 33 275 263 148 
72 5 207 412 273 257 385 
73 7 4 274 196 75 394 313 157 
74 7 138 228 43 153 161 218 224 
75 7 4 73 274 337 196 394 228 
76 7 200 102 149 359 198 8 365 
77 7 247 84 185 301 294 225 54 
78 7 338 370 281 392 170 288 139 
79 7 311 31 262 395 216 318 316 
80 7 119 230 132 157 313 114 196 
81 7 283 369 115 231 325 17 19 
82 6 328 186 143 54 373 160 
83 6 371 418 336 59 289 202 
84 7 247 77 225 301 54 185 294 
85 7 211 353 123 276 319 58 147 
86 7 24 203 183 294 129 57 28 
87 7 108 67 333 277 295 402 330 
88 7 97 12 302 172 195 210 240 
89 7 158 206 246 235 339 270 329 
90 7 63 322 16 268 227 244 37 
91 7 153 161 111 380 173 36 114 
92 7 304 408 146 411 347 47 256 
93 7 248 287 192 213 386 116 255 
94 0 
95 7 222 251 55 290 377 308 14 
96 7 25 272 210 381 99 140 302 
97 7 88 12 195 240 302 172 210 
98 7 266 69 166 321 169 190 278 
99 7 381 140 96 15 25 272 64 
100 7 297 171 46 55 309 285 295 
101 7 329 270 158 235 348 220 363 
102 6 8 365 76 200 149 166 
103 6 269 44 253 199 262 316 
104 4 141 45 136 404 
105 7 117 56 358 314 126 344 18 
106 7 384 71 398 182 33 243 144 
107 5 332 265 62 135 249 
108 7 87 333 277 67 330 334 295 
109 5 387 132 80 114 230 
110 7 388 279 27 118 272 25 229 
111 7 114 91 125 161 132 36 153 
112 7 245 159 34 151 124 50 345 
113 7 323 131 32 303 298 174 372 
114 7 132 111 125 80 36 119 161 
115 7 81 369 283 276 231 11 19 
116 5 255 287 93 248 386 
117 7 105 56 358 126 314 212 137 
118 7 229 356 388 110 27 279 2 
119 7 80 313 230 157 132 196 73 
120 7 159 20 34 41 354 112 245 
121 4 187 188 179 30 
122 6 389 354 34 242 151 120 
123 7 58 276 11 115 85 167 319 
124 7 50 151 345 112 245 34 159 
125 6 36 114 111 132 286 91 
126 7 212 117 137 105 342 127 21 
127 7 21 137 5 53 342 212 360 
128 6 374 378 239 214 68 286 
129 6 294 397 185 156 373 3 
130 7 6 279 110 420 241 388 210 
131 7 303 60 32 335 236 400 152 
132 7 114 80 119 111 125 230 109 
133 7 101 189 40 154 275 329 270 
134 5 402 67 116 285 295 
135 7 317 357 326 51 282 271 107 
136 5 404 45 141 104 264 
137 7 127 21 126 212 360 342 5 
138 7 228 74 196 337 313 4 43 
139 7 392 178 338 78 163 10 176 
140 7 381 15 99 150 96 272 25 
141 4 104 136 45 404 
142 5 237 155 10 189 154 
143 4 186 162 328 82 
144 4 315 182 165 33 
145 5 307 30 179 187 407 
146 6 406 411 92 304 347 408 
147 7 319 362 11 211 276 353 215 
148 6 398 263 71 384 106 275 
149 7 198 359 200 76 102 346 405 
150 7 2 15 140 118 271 381 99 
151 7 124 50 34 112 245 345 159 
152 7 400 236 335 60 349 303 26 
153 7 161 91 380 173 74 111 224 
154 7 235 101 155 158 89 329 237 
155 7 237 154 235 10 89 246 158 
156 6 397 373 129 364 3 261 
157 7 230 80 119 313 17 73 196 
158 7 89 206 235 270 329 246 101 
159 7 112 245 34 120 151 20 41 
160 6 351 364 82 156 186 373 
161 7 153 91 111 74 380 114 173 
162 4 143 186 413 48 
163 7 392 139 10 178 338 78 370 
164 6 423 318 394 79 337 75 
165 5 315 144 33 182 296 
166 7 180 278 98 69 8 184 57 
167 7 343 58 209 123 35 9 352 
168 7 14 308 64 290 377 15 150 
169 7 226 69 28 266 301 321 278 
170 6 288 250 391 338 78 281 
171 7 100 46 297 64 308 55 295 
172 7 302 210 12 88 25 96 97 
173 7 312 224 380 289 59 153 91 
174 7 298 60 26 131 400 236 303 
175 7 344 18 383 314 358 105 117 
176 7 246 339 178 206 181 89 158 
177 7 13 238 293 324 424 253 331 
178 7 176 246 139 10 339 206 181 
179 5 30 187 307 188 121 
180 7 166 184 57 278 346 405 5 
181 6 339 404 136 206 45 264 
182 7 144 33 315 165 383 106 175 
183 7 57 24 184 86 278 28 203 
184 7 57 183 24 278 86 203 28 
185 6 294 129 397 77 373 247 
186 6 143 328 82 162 160 351 
187 5 179 121 30 188 307 
188 3 187 121 30 
189 4 133 154 101 235 
190 7 321 306 266 98 169 375 23 
191 5 194 293 421 177 44 
192 7 213 248 93 287 340 386 197 
193 7 65 201 223 292 330 232 376 
194 6 191 293 421 44 269 199 
195 6 97 12 88 240 223 232 
196 7 313 73 4 75 228 274 119 
197 5 340 192 414 93 248 
198 7 149 359 200 76 26 346 405 
199 7 269 44 311 262 103 395 79 
200 7 76 149 359 102 198 8 346 
201 6 223 65 232 330 419 334 
202 4 414 371 83 234 
203 7 24 86 129 183 294 57 185 
204 5 393 205 38 323 70 
205 5 393 70 217 204 243 
206 6 339 246 89 158 176 181 
207 6 72 273 257 412 385 249 
208 6 310 379 3 261 342 52 
209 5 66 361 167 352 35 
210 7 302 25 96 272 172 279 381 
211 7 353 147 319 85 11 276 362 
212 6 342 126 137 21 127 117 
213 7 248 192 287 93 386 116 340 
214 4 68 128 374 286 
215 7 19 362 17 387 11 147 230 
216 7 415 31 61 311 79 49 355 
217 7 243 70 22 18 175 344 106 
218 7 43 224 289 312 59 74 382 
219 2 251 95 
220 7 363 348 413 270 48 329 410 
221 4 258 282 267 91 
222 7 95 55 251 290 377 308 14 
223 6 201 65 232 330 419 334 
224 7 312 173 289 59 43 218 380 
225 7 54 84 247 77 328 82 185 
226 7 28 301 169 69 77 84 183 
227 6 280 63 244 268 396 37 
228 7 138 74 337 196 75 4 313 
229 7 356 118 27 368 388 110 271 
230 7 157 80 119 313 17 196 132 
231 6 369 325 283 81 394 115 
232 6 201 223 419 334 330 65 
233 7 416 48 410 422 413 351 348 
234 4 350 382 218 43 
235 7 154 158 89 101 155 329 246 
236 7 152 400 335 60 303 131 349 
237 7 155 10 154 235 178 246 142 
238 6 13 424 324 331 177 29 
239 6 254 374 62 128 286 291 
240 6 97 88 195 232 419 12 
241 5 420 6 130 299 260 
242 6 122 389 42 354 151 124 
243 7 217 106 384 182 18 175 344 
244 7 268 63 396 37 322 227 66 
245 7 112 159 34 151 124 345 50 
246 7 339 206 176 89 158 178 181 
247 7 77 84 185 301 54 225 294 
248 7 93 287 213 192 386 116 255 
249 4 368 265 107 62 
250 6 288 170 391 281 338 78 
251 5 95 222 55 290 219 
252 5 403 366 264 23 375 
253 5 103 44 269 199 293 
254 6 291 286 62 239 265 332 
255 4 116 93 287 248 
256 7 409 299 260 376 304 172 12 
257 5 385 273 72 207 412 
258 4 380 221 173 59 
259 4 399 52 296 364 
260 7 47 299 241 341 420 6 256 
261 6 3 52 156 129 310 397 
262 6 395 316 318 79 311 199 
263 5 398 384 71 148 106 
264 7 45 136 404 403 366 104 181 
265 4 62 332 107 249 
266 7 321 169 190 98 69 226 306 
267 6 377 290 14 95 222 308 
268 7 244 37 63 396 322 66 284 
269 7 44 199 103 253 262 311 395 
270 7 329 363 220 348 101 413 158 
271 7 326 135 317 356 357 2 51 
272 7 25 96 279 210 381 110 140 
273 6 257 207 385 72 412 368 
274 7 73 4 394 75 196 325 313 
275 6 40 33 165 71 315 144 
276 7 11 319 147 115 123 19 81 
277 7 333 108 330 87 334 201 67 
278 7 69 57 183 184 28 226 166 
279 7 110 388 272 25 96 118 210 
280 6 227 244 63 396 268 320 
281 6 391 370 78 338 250 288 
282 7 357 317 135 51 326 107 221 
283 7 81 369 231 325 17 394 19 
284 7 35 300 37 66 9 209 343 
285 5 309 55 297 100 251 
286 5 254 291 36 125 239 
287 7 248 93 213 192 386 116 255 
288 6 170 250 391 338 78 281 
289 7 59 224 312 173 218 43 83 
290 7 377 267 14 95 222 308 168 
291 7 254 62 332 286 265 107 239 
292 3 193 65 376 
293 6 194 177 253 191 44 13 
294 7 185 129 397 77 373 156 247 
295 7 46 67 297 100 334 171 419 
296 2 379 52 
297 7 100 46 295 171 309 285 55 
298 7 174 60 26 131 400 372 303 
299 7 6 241 260 130 172 420 256 
300 7 284 35 9 37 322 16 343 
301 7 226 28 77 84 247 169 185 
302 7 172 210 88 96 25 12 97 
303 7 131 335 60 236 32 400 152 
304 7 92 408 146 347 256 409 411 
305 7 29 401 407 13 177 238 424 
306 5 190 321 266 98 169 
307 5 179 145 30 187 121 
308 7 14 168 290 377 64 222 55 
309 6 285 297 55 100 222 251 
310 6 208 379 52 261 3 296 
311 7 31 79 199 262 216 395 415 
312 7 224 173 289 59 380 43 218 
313 7 196 119 73 80 157 230 4 
314 7 358 344 18 105 56 175 117 
315 4 144 165 33 182 
316 5 318 395 262 79 199 
317 7 357 135 326 51 282 271 107 
318 5 316 395 262 79 164 
319 7 11 147 276 362 211 215 353 
320 5 361 66 396 209 355 
321 7 266 190 306 169 98 375 23 
322 7 37 268 16 300 63 244 284 
323 7 113 70 32 22 205 39 131 
324 5 424 331 238 13 177 
325 6 231 283 369 394 81 274 
326 7 135 271 317 357 51 282 2 
327 5 417 352 49 61 369 
328 7 82 186 143 54 160 225 373 
329 7 270 101 220 363 348 158 413 
330 7 201 334 223 232 419 65 277 
331 4 424 324 238 13 
332 6 107 265 62 135 249 291 
333 7 277 108 87 330 334 67 201 
334 6 419 232 330 201 223 46 
335 7 236 303 152 60 400 131 32 
336 5 418 371 83 390 414 
337 7 75 228 4 138 73 196 274 
338 7 78 370 281 392 170 288 139 
339 6 206 246 176 181 89 158 
340 6 197 192 93 248 287 213 
341 6 47 260 241 420 408 299 
342 6 212 21 127 137 126 208 
343 7 9 167 35 284 58 85 209 
344 7 175 18 314 358 383 105 56 
345 7 50 124 151 245 112 277 333 
346 7 405 349 180 359 5 26 53 
347 4 406 146 304 92 
348 7 220 410 363 413 233 48 270 
349 7 405 346 152 400 26 360 236 
350 4 382 234 218 43 
351 7 160 416 48 364 422 233 162 
352 5 417 327 58 115 123 
353 7 211 147 319 85 11 276 362 
354 5 122 389 120 34 159 
355 6 415 421 216 31 61 49 
356 7 229 118 271 27 368 388 2 
357 7 317 135 51 282 326 271 107 
358 7 314 105 56 117 344 18 175 
359 7 198 149 200 76 346 405 26 
360 7 5 53 137 127 21 126 212 
361 5 66 320 209 396 37 
362 7 387 147 215 319 11 19 276 
363 6 220 270 348 413 329 48 
364 6 160 156 351 373 397 3 
365 5 8 102 98 306 76 
366 7 403 23 264 375 252 45 136 
367 5 227 280 63 90 244 
368 4 249 229 356 27 
369 6 231 283 81 325 115 394 
370 6 281 78 338 392 391 250 
371 6 83 336 418 59 202 289 
372 7 298 174 113 60 131 26 303 
373 6 397 156 185 294 129 82 
374 6 128 378 239 214 68 62 
375 7 23 169 321 266 301 366 84 
376 6 195 409 12 65 193 97 
377 7 290 267 14 308 95 222 168 
378 6 374 128 239 207 68 72 
379 3 310 296 52 
380 6 173 312 153 224 91 258 
381 7 99 140 96 25 272 15 210 
382 6 350 234 218 43 337 138 
383 5 175 344 18 314 358 
384 7 106 71 398 263 243 33 182 
385 4 257 273 412 72 
386 7 213 248 287 93 192 116 41 
387 5 362 215 109 147 19 
388 7 110 279 118 27 272 229 25 
389 7 122 354 34 151 120 159 112 
390 5 336 414 255 93 418 
391 5 250 281 288 170 78 
392 7 139 78 338 163 370 281 178 
393 5 204 205 70 38 217 
394 6 274 325 4 73 75 231 
395 6 262 316 318 79 311 199 
396 7 37 66 268 244 361 320 63 
397 6 156 373 129 185 294 3 
398 7 71 384 263 106 148 33 275 
399 4 259 422 364 52 
400 7 152 236 60 335 349 303 26 
401 6 305 407 29 177 13 238 
402 7 134 87 67 108 20 41 116 
403 7 366 264 252 23 45 375 136 
404 5 136 45 141 104 264 
405 7 346 349 180 26 5 53 359 
406 5 146 347 411 92 304 
407 7 29 305 30 238 179 401 13 
408 7 92 304 47 256 260 341 146 
409 7 256 376 299 12 172 260 302 
410 7 233 416 48 422 348 413 220 
411 7 146 92 304 406 408 347 47 
412 5 72 385 257 207 273 
413 7 48 233 220 416 410 363 162 
414 5 202 390 336 371 83 
415 7 216 31 355 311 61 79 49 
416 7 233 422 48 410 413 351 348 
417 6 327 352 49 61 369 115 
418 4 336 83 371 219 
419 6 334 232 201 223 330 46 
420 4 241 6 130 299 
421 6 355 415 216 194 31 311 
422 6 416 233 410 48 351 399 
423 6 164 325 394 49 231 61 
424 5 331 324 238 13 177 
DEPOT_SECTION
   1
   -1
EOF
