NAME :  X-n548-kX-w218-c9.cctp
COMMENT : 	Adapted by Maziero, Usberti and Cavellucci from the Uchoa, Pecin, Pessoa, Poggi, Subramanian, and Vidal (2013)
TYPE :  CCTP
DIMENSION :    548
EDGE_WEIGHT_TYPE : 	EUC_2D	
CAPACITY : 	11
VERTICES_WITHIN_COVERAGE :  9
VERTICES_WITH_DEMAND : 	218
NODE_COORD_SECTION
1 0 0
2 221 542
3 320 456
4 576 827
5 679 994
6 371 461
7 961 844
8 986 379
9 175 540
10 126 517
11 329 626
12 477 890
13 191 356
14 584 917
15 308 653
16 0 7
17 273 302
18 672 381
19 235 415
20 583 149
21 672 124
22 644 646
23 400 544
24 832 999
25 842 964
26 582 965
27 544 311
28 429 2
29 939 849
30 898 605
31 363 130
32 639 874
33 323 201
34 829 350
35 7 53
36 801 92
37 57 330
38 943 0
39 579 275
40 833 402
41 408 940
42 635 871
43 631 630
44 733 313
45 344 619
46 628 291
47 674 92
48 74 602
49 38 354
50 473 107
51 668 279
52 510 811
53 366 16
54 49 182
55 528 946
56 271 745
57 405 872
58 65 893
59 622 488
60 668 978
61 939 73
62 556 632
63 270 446
64 586 348
65 951 167
66 385 308
67 247 997
68 992 460
69 128 590
70 746 847
71 279 459
72 428 183
73 364 167
74 656 687
75 547 792
76 517 152
77 252 618
78 464 284
79 184 96
80 457 269
81 590 47
82 348 609
83 777 112
84 528 198
85 877 457
86 812 650
87 864 723
88 584 875
89 817 233
90 186 909
91 439 447
92 560 994
93 818 658
94 134 903
95 447 951
96 969 519
97 488 401
98 142 666
99 287 534
100 399 181
101 141 22
102 29 248
103 313 643
104 20 974
105 294 475
106 439 214
107 327 361
108 79 657
109 165 601
110 345 144
111 90 914
112 400 256
113 177 633
114 549 135
115 812 166
116 887 565
117 455 695
118 180 298
119 658 126
120 18 638
121 327 299
122 195 261
123 245 439
124 355 299
125 827 854
126 881 666
127 144 893
128 34 637
129 187 150
130 350 673
131 380 917
132 271 505
133 347 879
134 45 456
135 930 78
136 860 22
137 448 112
138 236 704
139 222 587
140 670 76
141 333 821
142 521 123
143 642 795
144 152 816
145 50 360
146 325 936
147 24 690
148 836 158
149 351 981
150 405 377
151 159 405
152 825 285
153 187 320
154 342 200
155 290 713
156 304 144
157 216 909
158 46 173
159 613 524
160 35 950
161 298 667
162 257 579
163 775 393
164 860 681
165 996 407
166 42 719
167 379 14
168 195 581
169 75 328
170 295 405
171 481 721
172 539 661
173 6 525
174 239 471
175 88 989
176 965 196
177 460 479
178 927 260
179 663 933
180 626 229
181 814 564
182 737 136
183 620 811
184 253 65
185 645 544
186 877 977
187 825 518
188 656 780
189 235 74
190 881 673
191 101 93
192 221 710
193 69 200
194 115 635
195 721 215
196 414 959
197 336 858
198 270 287
199 912 701
200 278 898
201 426 373
202 867 569
203 354 11
204 937 660
205 434 965
206 753 436
207 681 746
208 86 648
209 656 239
210 604 359
211 979 146
212 507 27
213 94 695
214 424 827
215 287 592
216 554 230
217 952 222
218 48 840
219 99 106
220 661 456
221 133 601
222 635 416
223 860 852
224 842 165
225 752 0
226 173 90
227 469 632
228 184 590
229 619 482
230 981 411
231 778 389
232 359 222
233 751 498
234 201 444
235 91 710
236 111 324
237 867 389
238 309 269
239 669 317
240 768 421
241 889 891
242 605 483
243 221 579
244 729 804
245 442 624
246 719 697
247 413 1000
248 977 29
249 356 605
250 107 39
251 362 727
252 570 421
253 162 737
254 557 652
255 139 48
256 145 568
257 596 316
258 681 194
259 268 893
260 420 824
261 94 529
262 422 341
263 226 328
264 687 807
265 299 951
266 549 281
267 944 64
268 316 904
269 554 49
270 160 221
271 302 952
272 258 765
273 406 684
274 182 881
275 641 481
276 541 807
277 107 602
278 870 999
279 247 282
280 771 712
281 109 942
282 305 827
283 865 629
284 632 928
285 571 734
286 899 632
287 189 934
288 385 166
289 851 399
290 890 198
291 370 248
292 372 910
293 11 248
294 845 326
295 508 769
296 511 900
297 320 984
298 158 330
299 159 327
300 798 648
301 746 195
302 555 541
303 832 900
304 809 931
305 460 869
306 585 804
307 487 102
308 194 288
309 340 877
310 127 981
311 39 692
312 187 528
313 462 482
314 890 450
315 857 64
316 96 223
317 610 842
318 910 604
319 260 757
320 809 211
321 767 499
322 48 352
323 23 950
324 289 98
325 622 891
326 499 618
327 873 960
328 82 752
329 65 845
330 281 842
331 990 747
332 809 808
333 693 76
334 744 478
335 506 411
336 668 167
337 301 696
338 61 500
339 9 695
340 939 496
341 390 699
342 741 894
343 39 477
344 476 728
345 663 477
346 112 160
347 588 281
348 215 559
349 528 309
350 839 820
351 601 769
352 668 953
353 594 865
354 407 905
355 478 244
356 423 639
357 174 707
358 635 465
359 570 151
360 651 612
361 785 786
362 166 64
363 684 574
364 598 632
365 645 944
366 976 284
367 576 737
368 87 725
369 177 414
370 865 221
371 459 506
372 23 683
373 507 320
374 961 987
375 497 889
376 888 561
377 963 175
378 223 208
379 308 530
380 237 184
381 576 387
382 937 529
383 463 219
384 210 641
385 582 748
386 215 107
387 985 385
388 22 783
389 920 945
390 502 117
391 851 594
392 467 732
393 728 54
394 64 249
395 492 57
396 415 372
397 852 45
398 503 209
399 292 125
400 316 855
401 340 273
402 242 217
403 85 788
404 700 96
405 942 989
406 37 511
407 663 175
408 670 279
409 611 829
410 471 843
411 268 61
412 412 350
413 4 325
414 454 981
415 94 359
416 688 524
417 982 397
418 725 208
419 793 620
420 337 779
421 106 856
422 350 826
423 965 538
424 780 360
425 144 904
426 225 646
427 666 449
428 510 276
429 564 632
430 573 501
431 903 827
432 605 806
433 38 525
434 445 738
435 138 788
436 216 988
437 944 955
438 220 716
439 788 589
440 75 130
441 858 686
442 107 314
443 717 125
444 991 306
445 62 373
446 641 426
447 747 436
448 350 855
449 42 62
450 184 460
451 153 199
452 618 878
453 986 690
454 430 839
455 161 233
456 840 747
457 284 582
458 899 505
459 453 998
460 134 596
461 30 955
462 437 412
463 660 92
464 203 828
465 524 418
466 723 31
467 869 759
468 824 606
469 764 469
470 760 852
471 119 378
472 352 365
473 954 998
474 381 873
475 905 972
476 222 302
477 0 783
478 746 114
479 670 702
480 447 881
481 14 996
482 844 110
483 315 373
484 115 329
485 808 697
486 992 409
487 692 929
488 897 142
489 397 338
490 334 75
491 104 954
492 537 581
493 502 262
494 346 190
495 812 171
496 361 170
497 44 202
498 326 351
499 525 950
500 773 202
501 650 781
502 906 167
503 910 793
504 752 234
505 147 12
506 542 768
507 82 850
508 358 588
509 68 802
510 19 296
511 114 406
512 228 854
513 147 444
514 954 410
515 529 392
516 77 383
517 822 126
518 284 784
519 804 876
520 200 797
521 735 425
522 784 608
523 870 566
524 968 481
525 228 806
526 548 87
527 609 314
528 328 85
529 852 128
530 505 944
531 358 609
532 311 26
533 855 140
534 909 915
535 407 84
536 523 987
537 690 982
538 841 250
539 499 9
540 646 414
541 516 682
542 713 221
543 328 800
544 944 22
545 691 660
546 763 609
547 44 506
548 756 289
DEMAND_SECTION
2 1
3 1
4 1
5 1
6 1
7 1
8 1
9 1
10 1
11 1
12 1
13 1
14 1
15 1
16 1
17 1
18 1
19 1
20 1
21 1
22 1
23 1
24 1
25 1
26 1
27 1
28 1
29 1
30 1
31 1
32 1
33 1
34 1
35 1
36 1
37 1
38 1
39 1
40 1
41 1
42 1
43 1
44 1
45 1
46 1
47 1
48 1
49 1
50 1
51 1
52 1
53 1
54 1
55 1
56 1
57 1
58 1
59 1
60 1
61 1
62 1
63 1
64 1
65 1
66 1
67 1
68 1
69 1
70 1
71 1
72 1
73 1
74 1
75 1
76 1
77 1
78 1
79 1
80 1
81 1
82 1
83 1
84 1
85 1
86 1
87 1
88 1
89 1
90 1
91 1
92 1
93 1
94 1
95 1
96 1
97 1
98 1
99 1
100 1
101 1
102 1
103 1
104 1
105 1
106 1
107 1
108 1
109 1
110 1
111 1
112 1
113 1
114 1
115 1
116 1
117 1
118 1
119 1
120 1
121 1
122 1
123 1
124 1
125 1
126 1
127 1
128 1
129 1
130 1
131 1
132 1
133 1
134 1
135 1
136 1
137 1
138 1
139 1
140 1
141 1
142 1
143 1
144 1
145 1
146 1
147 1
148 1
149 1
150 1
151 1
152 1
153 1
154 1
155 1
156 1
157 1
158 1
159 1
160 1
161 1
162 1
163 1
164 1
165 1
166 1
167 1
168 1
169 1
170 1
171 1
172 1
173 1
174 1
175 1
176 1
177 1
178 1
179 1
180 1
181 1
182 1
183 1
184 1
185 1
186 1
187 1
188 1
189 1
190 1
191 1
192 1
193 1
194 1
195 1
196 1
197 1
198 1
199 1
200 1
201 1
202 1
203 1
204 1
205 1
206 1
207 1
208 1
209 1
210 1
211 1
212 1
213 1
214 1
215 1
216 1
217 1
218 1
219 1
COVERAGE_SECTION
2 9 348 243 312 139 9 168 162 228 132 
3 9 105 71 6 63 170 132 379 123 174 
4 9 306 409 432 317 276 353 75 183 88 
5 9 537 60 352 365 179 487 284 26 325 
6 9 3 91 105 462 23 150 177 71 313 
7 9 29 431 503 241 534 223 331 389 437 
8 9 387 417 165 486 230 514 444 68 366 
9 9 312 256 348 2 168 228 10 243 109 
10 9 261 9 256 312 338 69 513 460 450 
11 9 45 103 82 15 249 531 508 130 161 
12 9 375 305 480 296 410 530 95 454 354 
13 9 153 298 299 263 118 151 369 476 308 
14 9 88 325 26 284 452 353 55 365 499 
15 9 103 161 11 337 130 45 82 155 215 
16 9 35 449 250 191 219 101 440 255 505 
17 9 198 279 238 476 121 263 498 401 107 
18 9 540 222 446 239 427 210 220 521 44 
19 9 123 234 63 174 369 170 71 450 13 
20 9 359 114 76 142 526 84 119 407 216 
21 9 119 47 463 404 336 443 140 333 407 
22 9 43 360 74 364 545 479 429 363 254 
23 9 508 371 249 531 82 6 177 313 245 
24 9 25 278 186 327 304 475 303 389 405 
25 9 327 24 186 278 304 475 303 389 534 
26 9 92 14 55 499 284 536 365 530 325 
27 9 349 266 373 428 39 257 347 64 493 
28 9 167 53 539 203 212 395 535 137 50 
29 9 7 431 503 241 534 223 389 350 437 
30 9 318 286 116 283 376 202 391 523 126 
31 9 110 73 496 288 528 156 100 490 494 
32 9 42 452 325 317 353 409 284 88 179 
33 9 154 494 232 496 73 156 110 291 238 
34 9 294 424 40 237 289 231 152 163 240 
35 9 449 16 250 191 440 219 158 255 54 
36 9 83 517 482 478 529 315 397 533 115 
37 9 169 322 49 145 445 415 510 442 413 
38 9 544 248 267 61 135 136 397 315 482 
39 9 347 266 257 527 27 216 46 349 180 
40 9 289 237 34 231 163 240 424 85 314 
41 9 196 354 131 205 95 292 247 414 57 
42 9 32 452 325 317 353 409 88 284 183 
43 9 22 360 364 74 429 545 62 254 363 
44 9 548 239 424 408 51 504 231 163 18 
45 9 82 11 531 249 508 103 15 130 215 
46 9 527 257 347 51 408 239 39 209 180 
47 9 463 140 333 404 21 119 443 393 336 
48 9 277 208 128 194 69 108 221 460 120 
49 9 322 145 37 445 169 413 516 415 510 
50 9 307 137 390 142 395 76 535 526 114 
51 9 408 239 46 209 180 527 44 542 347 
52 9 276 75 295 410 506 4 306 305 375 
53 9 167 203 532 28 490 528 535 411 324 
54 9 158 497 193 440 316 346 102 394 293 
55 9 499 530 536 296 26 92 14 375 12 
56 9 319 272 155 518 138 337 438 192 420 
57 9 474 354 454 480 214 260 292 131 305 
58 9 111 507 329 421 218 160 281 94 323 
59 9 229 242 275 358 159 345 220 430 427 
60 9 5 537 352 365 179 487 284 26 325 
61 9 135 267 544 248 38 488 315 211 397 
62 9 429 254 172 364 492 326 541 43 227 
63 9 71 123 105 174 19 170 3 132 234 
64 9 210 257 381 527 27 347 349 46 515 
65 9 377 176 211 502 217 488 290 135 61 
66 9 124 489 262 412 112 401 121 291 472 
67 9 436 265 271 297 287 157 146 200 149 
68 9 524 230 486 165 96 514 340 417 387 
69 9 460 221 277 256 109 194 48 228 113 
70 9 470 244 342 519 264 361 332 125 350 
71 9 63 105 123 3 174 132 170 19 99 
72 9 100 106 288 383 73 496 137 112 232 
73 9 496 288 494 110 31 100 154 33 232 
74 9 479 22 545 43 207 246 360 364 188 
75 9 276 506 306 52 4 295 385 351 432 
76 9 142 114 390 84 359 307 398 50 20 
77 9 162 426 139 215 384 457 243 15 103 
78 9 80 355 493 428 373 383 349 112 262 
79 9 226 386 362 129 189 255 184 191 101 
80 9 78 355 493 383 428 106 112 373 398 
81 9 269 526 463 140 212 47 114 395 539 
82 9 249 531 45 508 11 103 15 215 130 
83 9 36 478 182 517 443 115 482 495 148 
84 9 398 216 76 359 114 355 383 493 20 
85 9 314 458 289 237 40 340 187 514 382 
86 9 93 300 419 468 485 522 164 283 441 
87 9 456 467 441 164 190 199 126 485 93 
88 9 353 452 325 14 317 4 42 409 32 
89 9 320 538 370 152 500 495 504 115 224 
90 9 287 274 157 425 127 94 512 464 259 
91 9 462 177 313 371 97 6 201 335 150 
92 9 26 536 499 55 530 14 284 365 296 
93 9 86 300 485 419 164 441 468 283 522 
94 9 425 127 111 281 90 274 421 491 287 
95 9 205 414 196 41 459 530 247 354 12 
96 9 423 382 340 524 68 458 376 116 318 
97 9 335 465 515 462 91 201 396 177 373 
98 9 194 113 357 213 208 108 221 235 109 
99 9 379 132 457 162 215 105 2 71 348 
100 9 288 72 73 496 106 494 232 154 31 
101 9 505 255 250 362 226 191 79 219 189 
102 9 293 394 497 510 193 54 316 158 413 
103 9 15 11 161 45 130 82 337 531 215 
104 9 461 481 323 160 175 491 111 58 281 
105 9 71 3 63 132 174 379 99 123 170 
106 9 383 72 355 100 112 80 398 288 78 
107 9 498 483 472 170 121 124 489 66 17 
108 9 208 213 194 128 311 235 48 277 372 
109 9 228 460 221 113 168 69 256 277 139 
110 9 31 73 496 156 288 494 154 399 33 
111 9 58 281 491 94 425 127 421 507 160 
112 9 291 232 66 106 80 124 401 78 383 
113 9 109 384 228 98 426 221 168 460 194 
114 9 359 142 76 20 526 390 84 307 50 
115 9 495 148 224 517 320 533 500 529 83 
116 9 376 523 202 30 318 391 458 382 283 
117 9 171 344 392 434 273 541 356 227 341 
118 9 308 153 299 298 122 476 263 13 455 
119 9 21 463 47 336 407 140 404 443 333 
120 9 128 372 147 311 339 108 48 208 166 
121 9 124 401 238 498 17 198 66 107 291 
122 9 308 118 455 476 270 279 153 378 402 
123 9 19 63 174 71 234 170 105 450 132 
124 9 121 401 66 291 238 489 498 112 472 
125 9 519 223 350 303 332 470 241 304 361 
126 9 190 164 441 286 283 199 204 87 30 
127 9 425 94 274 90 421 111 281 287 491 
128 9 120 372 108 48 208 147 311 339 194 
129 9 386 79 380 451 226 378 270 346 402 
130 9 15 103 341 11 161 45 337 251 273 
131 9 292 354 41 474 133 57 196 309 146 
132 9 99 105 379 71 174 63 2 3 123 
133 9 309 197 448 474 400 268 292 131 422 
134 9 343 338 547 406 433 173 516 445 511 
135 9 61 267 544 248 488 315 38 211 397 
136 9 397 315 544 38 482 135 36 61 267 
137 9 50 307 535 390 395 72 142 76 288 
138 9 192 438 56 155 319 426 357 272 337 
139 9 243 168 348 162 228 77 2 384 109 
140 9 47 463 333 404 21 119 393 443 466 
141 9 422 543 282 197 400 448 420 309 330 
142 9 390 76 114 307 526 50 359 20 395 
143 9 501 188 183 432 409 264 351 317 306 
144 9 435 464 520 421 274 403 127 525 507 
145 9 322 49 445 37 516 169 415 413 236 
146 9 271 265 268 297 149 292 131 200 133 
147 9 372 311 339 166 120 128 108 213 235 
148 9 224 115 533 495 529 517 482 320 488 
149 9 297 146 271 265 247 196 41 131 292 
150 9 396 201 412 262 489 462 472 66 91 
151 9 369 513 511 471 234 13 450 298 19 
152 9 538 294 89 34 548 370 320 424 504 
153 9 118 299 298 308 13 476 263 122 279 
154 9 494 33 232 496 73 288 110 291 100 
155 9 337 56 161 319 138 272 15 192 438 
156 9 399 110 324 33 31 494 496 73 528 
157 9 90 287 274 259 512 200 425 127 436 
158 9 54 497 193 440 346 316 102 394 293 
159 9 59 185 229 242 430 275 302 358 345 
160 9 461 323 104 481 58 111 175 491 281 
161 9 15 103 337 155 11 130 45 77 138 
162 9 457 215 139 243 77 348 2 99 168 
163 9 231 240 424 206 447 521 40 34 289 
164 9 441 190 126 87 93 283 485 199 86 
165 9 486 230 417 387 8 514 68 524 444 
166 9 311 147 339 372 368 235 328 213 388 
167 9 53 203 28 532 535 490 528 31 137 
168 9 228 243 139 348 109 9 2 256 312 
169 9 37 442 236 322 415 484 145 49 445 
170 9 483 63 107 71 3 123 19 498 105 
171 9 344 392 117 434 541 295 506 172 273 
172 9 254 541 62 429 326 364 227 285 492 
173 9 433 406 547 343 338 134 261 48 120 
174 9 123 63 71 132 234 105 19 450 2 
175 9 491 310 281 160 461 104 481 111 323 
176 9 377 217 65 211 502 178 290 488 366 
177 9 313 371 91 462 335 97 23 465 6 
178 9 217 366 290 370 176 444 538 377 502 
179 9 352 365 487 284 60 537 325 5 32 
180 9 209 46 347 51 258 407 39 408 216 
181 9 439 468 187 391 202 522 523 419 546 
182 9 443 478 83 404 301 21 418 333 500 
183 9 432 409 143 317 306 501 351 4 188 
184 9 411 189 324 386 532 399 79 528 490 
185 9 159 416 363 59 275 229 360 345 242 
186 9 327 278 475 25 24 389 405 534 437 
187 9 181 321 202 523 458 376 233 116 469 
188 9 501 143 264 207 183 351 432 409 306 
189 9 184 411 386 79 324 226 362 399 129 
190 9 126 164 441 199 286 283 87 204 93 
191 9 219 440 250 255 449 346 362 226 101 
192 9 438 138 357 56 319 426 253 272 155 
193 9 497 54 158 316 394 346 102 440 293 
194 9 208 277 221 98 108 460 69 48 109 
195 9 418 542 301 504 258 500 209 407 336 
196 9 41 205 95 247 414 131 354 459 292 
197 9 448 309 400 133 422 141 282 474 268 
198 9 17 279 238 476 121 263 401 402 308 
199 9 190 126 204 87 164 441 286 467 453 
200 9 259 268 330 265 400 271 146 157 309 
201 9 396 150 412 262 462 489 97 472 91 
202 9 523 116 376 391 30 181 318 468 283 
203 9 53 167 532 490 28 528 535 411 324 
204 9 286 199 126 190 453 318 30 283 164 
205 9 95 196 414 41 459 247 354 131 530 
206 9 447 240 521 469 334 163 231 233 321 
207 9 188 479 501 264 246 143 74 244 351 
208 9 108 194 48 213 277 128 98 235 311 
209 9 180 51 408 258 46 542 407 195 336 
210 9 64 381 257 527 222 540 18 252 46 
211 9 377 65 176 502 217 488 61 135 267 
212 9 539 395 269 526 307 28 81 50 390 
213 9 235 368 108 208 311 98 166 328 194 
214 9 260 454 57 410 305 480 474 422 448 
215 9 457 162 77 11 103 99 45 82 15 
216 9 84 39 266 398 347 493 428 180 355 
217 9 176 178 377 65 290 366 502 211 370 
218 9 329 507 509 58 421 388 403 477 111 
219 9 191 440 346 250 255 449 226 362 158 
220 9 427 345 358 275 446 540 222 229 59 
221 9 460 69 277 109 256 194 228 113 48 
222 9 540 446 427 220 358 18 210 252 275 
223 9 125 350 241 431 303 519 332 503 29 
224 9 148 533 115 495 529 517 482 320 290 
225 9 466 393 333 36 404 136 397 140 478 
226 9 79 362 386 255 129 189 191 101 219 
227 9 245 326 356 117 541 172 273 492 62 
228 9 168 109 139 243 113 348 256 460 9 
229 9 59 242 275 358 159 345 220 430 427 
230 9 486 417 165 387 514 8 68 524 340 
231 9 163 424 240 206 447 521 40 34 289 
232 9 154 291 494 33 496 112 401 73 100 
233 9 321 334 469 206 447 416 521 187 240 
234 9 450 369 123 19 174 513 151 63 71 
235 9 213 368 328 166 108 311 208 98 147 
236 9 484 442 169 415 298 299 37 471 516 
237 9 289 40 34 314 294 85 231 514 163 
238 9 401 121 198 17 124 279 291 33 232 
239 9 51 408 46 527 18 44 257 210 209 
240 9 206 447 163 521 231 469 334 424 40 
241 9 534 223 303 389 29 431 327 125 475 
242 9 229 59 358 275 430 159 345 220 446 
243 9 139 348 168 162 2 228 77 9 109 
244 9 264 70 470 361 207 188 332 501 143 
245 9 356 227 326 273 117 531 249 23 341 
246 9 545 479 280 207 74 485 22 300 546 
247 9 459 196 205 414 41 95 149 131 297 
248 9 544 38 267 61 135 136 211 315 397 
249 9 531 82 508 45 11 103 15 130 215 
250 9 255 101 505 191 362 219 449 226 79 
251 9 341 130 420 273 337 155 543 434 161 
252 9 381 465 515 222 335 210 242 446 64 
253 9 357 435 438 192 520 98 235 368 144 
254 9 62 172 429 364 541 326 492 43 285 
255 9 101 362 250 505 226 191 79 219 386 
256 9 69 460 221 109 9 228 277 168 10 
257 9 527 64 347 46 39 210 27 266 349 
258 9 407 336 542 195 418 209 180 301 21 
259 9 200 268 330 157 512 400 265 271 146 
260 9 214 454 57 410 305 474 480 422 448 
261 9 10 338 547 433 406 256 69 277 48 
262 9 412 489 201 396 150 66 78 462 472 
263 9 476 153 13 279 308 17 118 198 299 
264 9 188 244 501 143 207 183 70 409 32 
265 9 271 146 297 268 200 149 259 67 292 
266 9 27 39 349 347 428 216 493 373 257 
267 9 61 135 544 248 38 315 211 488 136 
268 9 146 309 200 133 259 400 197 265 271 
269 9 81 526 212 395 539 142 307 114 390 
270 9 455 451 122 316 378 308 129 346 118 
271 9 265 146 297 268 149 200 259 67 292 
272 9 319 56 518 525 155 438 138 192 520 
273 9 341 356 117 130 251 434 245 392 227 
274 9 90 127 157 425 94 287 512 464 144 
275 9 358 59 229 345 220 242 427 159 446 
276 9 75 52 506 4 306 295 432 351 385 
277 9 69 221 460 48 194 208 256 109 108 
278 9 186 24 327 475 25 405 389 473 437 
279 9 198 476 17 263 308 122 238 402 118 
280 9 485 246 300 93 86 361 456 441 87 
281 9 491 111 310 94 175 425 127 58 160 
282 9 330 141 400 543 197 422 518 448 420 
283 9 286 391 126 30 190 468 318 164 93 
284 9 365 179 325 352 14 452 32 42 487 
285 9 367 385 506 351 75 306 295 541 276 
286 9 30 318 283 126 190 204 391 164 116 
287 9 90 157 274 425 436 127 94 310 281 
288 9 73 100 496 31 72 110 494 154 232 
289 9 40 237 34 85 314 294 231 163 424 
290 9 370 502 488 224 217 148 65 533 538 
291 9 232 112 401 124 154 66 494 238 33 
292 9 131 354 474 133 309 41 57 146 268 
293 9 102 510 394 497 193 54 413 158 316 
294 9 34 152 237 289 424 538 40 231 548 
295 9 506 52 75 276 344 171 392 434 285 
296 9 375 12 530 55 499 305 480 410 14 
297 9 149 271 265 146 67 268 131 292 247 
298 9 299 153 118 13 484 236 442 308 471 
299 9 298 153 118 13 484 236 308 442 471 
300 9 86 93 419 522 468 485 546 439 280 
301 9 418 500 195 504 542 182 258 320 495 
302 9 430 492 159 242 59 229 185 62 429 
303 9 519 304 125 223 241 25 327 534 350 
304 9 303 25 519 327 24 342 125 186 241 
305 9 480 12 410 375 454 57 214 260 296 
306 9 432 4 183 409 351 75 276 317 385 
307 9 50 390 137 142 395 76 526 114 212 
308 9 118 122 476 153 263 299 279 298 455 
309 9 133 197 448 400 268 474 292 422 141 
310 9 491 175 281 111 94 287 425 436 127 
311 9 147 372 166 339 108 128 213 235 120 
312 9 9 2 348 168 256 243 10 228 450 
313 9 177 371 91 462 335 97 23 465 6 
314 9 85 458 289 237 340 40 514 524 382 
315 9 397 136 482 36 529 517 135 533 61 
316 9 193 394 497 54 451 270 346 455 158 
317 9 409 353 183 432 4 452 42 88 32 
318 9 30 286 116 376 283 202 523 391 204 
319 9 272 56 518 155 438 138 525 192 520 
320 9 89 500 495 115 538 224 370 148 504 
321 9 233 469 334 187 206 447 240 181 521 
322 9 145 49 37 445 169 516 415 413 510 
323 9 461 160 104 481 58 111 175 491 281 
324 9 399 528 411 156 184 490 189 110 386 
325 9 452 32 42 284 353 88 14 317 365 
326 9 227 492 245 62 172 429 541 254 356 
327 9 186 25 475 278 389 24 534 304 241 
328 9 368 403 235 166 509 213 435 388 311 
329 9 218 507 421 509 58 403 111 388 94 
330 9 282 400 259 512 141 200 197 518 543 
331 9 453 199 503 7 204 29 431 467 87 
332 9 350 361 125 470 223 456 519 70 467 
333 9 404 140 47 463 393 21 466 443 119 
334 9 233 469 321 447 206 521 240 416 345 
335 9 465 97 515 252 462 381 91 177 313 
336 9 407 258 119 21 443 418 542 195 209 
337 9 155 161 15 103 130 56 138 251 319 
338 9 547 406 343 433 261 134 173 10 48 
339 9 147 372 311 166 120 128 108 235 368 
340 9 382 524 96 458 423 68 314 85 376 
341 9 273 251 130 117 434 356 392 337 245 
342 9 470 70 487 519 304 179 244 303 352 
343 9 134 547 338 406 433 173 261 10 516 
344 9 171 392 434 117 295 541 506 273 52 
345 9 220 275 427 358 59 229 416 446 242 
346 9 440 219 451 193 316 54 158 191 129 
347 9 39 257 266 527 46 27 216 180 349 
348 9 2 243 139 168 312 9 228 162 109 
349 9 27 373 266 428 493 39 347 257 78 
350 9 332 125 223 361 431 519 467 456 503 
351 9 385 432 306 367 183 285 143 501 188 
352 9 179 60 365 487 537 5 284 325 32 
353 9 88 452 317 325 409 42 4 32 14 
354 9 131 57 41 292 474 480 196 95 305 
355 9 383 493 80 78 398 428 106 84 216 
356 9 245 227 273 117 341 531 249 326 45 
357 9 253 192 438 98 138 113 384 426 213 
358 9 275 229 59 220 345 242 427 446 222 
359 9 20 114 76 142 84 526 390 216 398 
360 9 43 22 363 364 545 185 74 429 479 
361 9 332 244 350 456 470 70 280 125 467 
362 9 226 255 79 101 505 250 386 189 191 
363 9 185 360 416 43 22 545 546 159 345 
364 9 43 429 62 254 22 360 172 74 492 
365 9 179 284 352 60 487 325 537 5 26 
366 9 444 178 217 176 8 387 377 417 65 
367 9 285 385 351 506 75 306 295 432 276 
368 9 235 328 213 166 311 403 108 147 253 
369 9 151 234 513 450 19 13 511 471 123 
370 9 290 538 89 320 224 502 148 178 495 
371 9 313 177 91 23 462 6 302 335 492 
372 9 147 311 339 166 120 128 108 208 213 
373 9 349 27 428 78 266 493 80 515 355 
374 9 473 405 437 475 389 186 534 278 327 
375 9 296 12 305 480 410 530 55 499 52 
376 9 116 523 202 30 318 391 458 382 283 
377 9 65 176 211 217 502 488 290 178 135 
378 9 402 380 122 270 455 129 451 279 308 
379 9 99 132 105 457 215 162 3 71 508 
380 9 378 402 129 156 386 399 270 451 33 
381 9 252 64 210 515 465 222 257 335 540 
382 9 423 340 96 458 524 376 116 523 318 
383 9 106 355 398 72 80 493 78 84 112 
384 9 426 113 77 139 228 109 168 243 138 
385 9 367 285 351 506 75 306 432 276 183 
386 9 79 189 226 129 184 362 411 324 399 
387 9 8 417 165 486 230 514 68 444 524 
388 9 477 509 218 403 166 328 329 368 339 
389 9 437 475 534 327 405 186 374 241 473 
390 9 142 307 50 76 114 137 526 395 359 
391 9 202 468 523 283 116 30 181 376 318 
392 9 344 171 434 117 295 541 273 506 341 
393 9 466 333 404 225 140 478 47 443 83 
394 9 102 316 193 497 293 510 54 158 442 
395 9 212 307 539 50 390 269 526 137 142 
396 9 150 201 412 262 489 462 472 66 91 
397 9 315 136 482 36 529 135 517 61 267 
398 9 84 383 355 493 216 76 106 428 80 
399 9 156 324 528 110 490 411 31 184 189 
400 9 197 282 309 448 330 141 133 422 268 
401 9 121 124 238 291 232 66 112 198 17 
402 9 378 380 122 279 198 270 33 455 238 
403 9 509 328 435 329 507 368 388 218 421 
404 9 333 47 443 140 21 463 478 393 119 
405 9 473 374 437 475 389 186 278 327 534 
406 9 547 433 338 173 343 134 261 10 48 
407 9 336 258 119 21 209 180 542 195 418 
408 9 51 239 209 46 180 527 44 542 195 
409 9 317 183 432 4 306 353 143 42 452 
410 9 305 454 480 12 52 214 375 260 296 
411 9 184 189 324 532 528 490 399 386 156 
412 9 262 489 396 201 150 66 472 462 124 
413 9 510 49 322 37 145 169 445 293 102 
414 9 459 205 95 247 196 41 530 536 499 
415 9 516 471 445 169 484 236 145 37 322 
416 9 185 363 345 275 233 334 220 59 159 
417 9 387 230 486 165 8 514 68 524 444 
418 9 195 542 301 504 258 500 336 407 182 
419 9 522 300 439 546 468 86 93 181 391 
420 9 543 141 422 518 251 282 56 448 197 
421 9 507 329 127 58 94 111 218 144 425 
422 9 141 448 543 197 282 400 420 309 133 
423 9 96 382 340 524 458 376 68 116 318 
424 9 231 163 34 240 44 40 294 548 521 
425 9 94 127 90 274 281 287 111 421 491 
426 9 384 77 113 138 139 192 243 228 438 
427 9 220 345 446 358 540 275 222 229 59 
428 9 493 349 266 373 355 78 27 80 216 
429 9 62 254 364 172 492 326 43 541 22 
430 9 242 302 159 229 59 275 358 252 185 
431 9 503 29 223 7 350 241 467 125 534 
432 9 183 306 409 4 317 351 143 501 188 
433 9 406 547 173 338 343 261 134 48 10 
434 9 392 344 171 117 273 341 295 251 260 
435 9 144 403 253 520 328 509 421 464 368 
436 9 67 287 157 90 310 265 271 297 259 
437 9 389 405 374 475 473 534 186 327 241 
438 9 192 138 357 319 56 253 272 155 426 
439 9 522 419 546 181 468 300 391 86 93 
440 9 219 191 346 158 54 193 449 497 316 
441 9 164 190 126 87 93 485 199 283 86 
442 9 236 484 169 415 37 298 299 471 322 
443 9 182 478 404 21 47 333 119 83 336 
444 9 366 8 178 387 417 217 165 486 230 
445 9 145 516 322 49 415 37 169 471 511 
446 9 222 540 427 220 358 18 275 345 229 
447 9 206 521 240 469 334 163 231 233 321 
448 9 197 133 309 422 400 474 141 282 57 
449 9 35 191 16 250 219 440 255 101 158 
450 9 234 513 369 174 151 123 19 312 9 
451 9 270 455 346 129 316 378 122 193 380 
452 9 325 42 32 353 88 317 409 14 284 
453 9 204 331 199 286 190 126 318 30 87 
454 9 214 260 57 410 305 480 474 12 354 
455 9 270 451 122 308 316 378 118 402 129 
456 9 467 87 485 441 361 332 164 350 280 
457 9 215 162 77 99 379 139 11 243 103 
458 9 340 382 85 314 376 116 523 96 202 
459 9 414 205 247 95 196 536 41 530 499 
460 9 221 69 277 256 109 194 228 113 48 
461 9 160 323 104 481 175 58 111 491 281 
462 9 91 201 396 150 97 412 335 177 262 
463 9 47 140 21 119 333 404 443 336 393 
464 9 520 525 512 144 274 435 330 157 90 
465 9 335 515 97 252 381 462 177 313 91 
466 9 393 225 333 404 140 47 478 463 443 
467 9 456 87 503 350 199 441 431 332 164 
468 9 391 419 439 522 181 86 283 300 93 
469 9 334 321 233 206 447 240 521 163 187 
470 9 70 342 519 244 332 125 361 350 264 
471 9 511 415 516 151 484 236 445 298 299 
472 9 107 498 483 489 150 412 396 66 124 
473 9 374 405 437 475 389 186 278 327 534 
474 9 57 133 448 292 309 354 131 197 422 
475 9 186 389 327 405 437 278 473 534 374 
476 9 263 308 279 153 118 122 198 17 13 
477 9 388 509 218 166 403 328 339 329 147 
478 9 182 83 443 404 36 393 333 21 47 
479 9 74 207 545 246 22 188 501 43 360 
480 9 305 12 57 410 454 354 375 214 260 
481 9 104 461 323 160 175 491 281 111 310 
482 9 529 517 533 36 315 148 224 488 115 
483 9 107 498 170 472 121 17 3 124 63 
484 9 236 442 415 169 298 299 471 37 516 
485 9 93 280 86 300 441 164 456 87 190 
486 9 165 230 417 387 8 514 68 524 340 
487 9 179 352 365 537 60 284 342 5 32 
488 9 502 533 529 290 65 224 482 148 135 
489 9 412 262 66 396 150 201 472 124 498 
490 9 528 324 532 31 399 53 203 411 110 
491 9 281 310 175 111 94 425 160 58 127 
492 9 302 326 62 429 254 172 364 227 430 
493 9 428 355 78 80 266 398 349 373 383 
494 9 154 33 496 73 232 110 288 100 31 
495 9 115 148 224 320 517 500 533 529 89 
496 9 73 288 494 110 154 31 100 33 232 
497 9 54 193 158 102 394 316 293 440 346 
498 9 107 483 472 121 124 170 17 489 66 
499 9 55 530 536 296 92 26 375 14 12 
500 9 301 320 504 418 495 115 89 195 542 
501 9 188 143 183 264 207 351 432 409 306 
502 9 488 290 65 377 533 224 176 529 370 
503 9 431 467 29 7 350 223 87 456 199 
504 9 195 418 500 301 542 548 320 89 44 
505 9 101 255 250 362 226 79 191 219 189 
506 9 75 295 276 285 385 367 52 306 351 
507 9 329 421 218 58 509 403 111 94 127 
508 9 249 531 82 45 11 23 103 215 457 
509 9 403 218 329 388 507 328 421 435 477 
510 9 413 102 293 37 49 322 169 394 145 
511 9 471 516 151 513 415 445 369 484 145 
512 9 464 525 274 330 157 259 520 200 90 
513 9 450 151 369 511 234 471 10 19 312 
514 9 230 417 486 387 165 8 68 524 314 
515 9 465 335 97 381 252 64 373 27 210 
516 9 445 415 145 322 471 511 49 169 37 
517 9 482 529 148 533 36 115 224 495 83 
518 9 272 319 56 543 282 420 330 525 141 
519 9 125 303 470 304 223 70 342 350 332 
520 9 525 464 144 435 512 272 253 319 438 
521 9 447 206 240 163 469 334 231 427 233 
522 9 419 439 546 468 300 86 181 93 391 
523 9 202 116 376 391 30 318 181 468 283 
524 9 68 340 96 382 423 230 514 458 486 
525 9 520 464 512 272 319 518 330 56 144 
526 9 269 142 114 390 81 307 395 359 20 
527 9 257 46 347 64 210 39 239 27 266 
528 9 490 324 399 31 110 532 156 411 184 
529 9 533 482 517 148 224 488 115 495 36 
530 9 499 55 296 536 375 95 12 414 92 
531 9 249 82 45 508 11 103 130 15 356 
532 9 203 490 411 53 528 167 184 324 189 
533 9 529 148 224 482 517 488 115 495 502 
534 9 241 389 437 475 327 186 29 303 223 
535 9 137 31 50 490 167 53 528 307 28 
536 9 499 92 55 530 26 414 459 95 296 
537 9 5 60 352 487 179 365 284 342 26 
538 9 89 152 370 320 290 294 500 495 224 
539 9 212 395 269 28 526 307 81 50 390 
540 9 222 446 427 18 220 358 345 275 210 
541 9 172 254 171 344 117 62 326 227 429 
542 9 195 418 504 258 301 209 500 407 336 
543 9 141 420 422 282 518 400 197 448 330 
544 9 38 248 267 61 135 136 397 315 211 
545 9 74 246 479 22 360 43 363 207 546 
546 9 522 419 439 300 468 86 181 93 363 
547 9 406 338 433 343 173 134 261 10 48 
548 9 44 504 152 424 542 195 89 408 418 
DEPOT_SECTION
   1
   -1
EOF
