NAME :  X-n561-kX-w112-c11.cctp
COMMENT : 	Adapted by Maziero, Usberti and Cavellucci from the Uchoa, Pecin, Pessoa, Poggi, Subramanian, and Vidal (2013)
TYPE :  CCTP
DIMENSION :    489
EDGE_WEIGHT_TYPE : 	EUC_2D	
CAPACITY : 	74
VERTICES_WITHIN_COVERAGE :  11
VERTICES_WITH_DEMAND : 	112
NODE_COORD_SECTION
1 500 500
2 487 949
3 492 770
4 150 556
5 130 719
6 962 393
7 54 890
8 861 705
9 338 631
10 119 741
11 48 296
12 982 827
13 18 954
14 558 698
15 857 337
16 963 72
17 218 46
18 705 484
19 315 3
20 331 358
21 688 156
22 314 338
23 214 428
24 193 866
25 381 924
26 968 10
27 797 382
28 733 544
29 956 878
30 576 270
31 257 778
32 713 605
33 270 940
34 880 401
35 245 168
36 973 29
37 888 919
38 943 703
39 364 248
40 932 60
41 575 18
42 663 990
43 667 351
44 85 708
45 801 330
46 261 91
47 163 953
48 509 249
49 237 336
50 791 356
51 314 168
52 356 726
53 260 412
54 630 144
55 534 255
56 356 444
57 448 320
58 987 333
59 691 109
60 319 476
61 83 716
62 395 818
63 605 769
64 633 162
65 651 644
66 221 4
67 551 912
68 762 604
69 337 41
70 156 318
71 756 357
72 749 173
73 535 235
74 719 700
75 900 564
76 717 4
77 337 441
78 759 103
79 615 132
80 365 498
81 42 268
82 952 2
83 989 303
84 471 821
85 650 215
86 302 881
87 61 459
88 391 405
89 364 170
90 643 744
91 324 620
92 559 449
93 92 914
94 133 607
95 223 949
96 988 415
97 943 616
98 764 6
99 659 250
100 766 532
101 730 338
102 850 489
103 481 467
104 564 296
105 469 531
106 538 121
107 997 183
108 127 966
109 880 538
110 300 985
111 462 125
112 781 68
113 884 92
114 438 673
115 928 894
116 107 816
117 581 799
118 46 288
119 548 0
120 379 725
121 186 490
122 947 161
123 702 712
124 230 722
125 40 891
126 362 568
127 26 614
128 396 104
129 756 658
130 236 62
131 314 56
132 276 466
133 626 156
134 369 506
135 207 461
136 135 983
137 956 181
138 5 209
139 10 57
140 499 617
141 369 482
142 975 194
143 716 147
144 740 993
145 77 480
146 742 233
147 869 824
148 809 987
149 748 391
150 366 917
151 272 875
152 0 9
153 260 359
154 449 208
155 278 711
156 422 445
157 341 448
158 683 498
159 930 690
160 184 567
161 257 360
162 464 101
163 783 645
164 282 884
165 978 688
166 514 349
167 343 552
168 290 171
169 675 414
170 386 86
171 575 26
172 863 973
173 223 412
174 958 176
175 391 824
176 228 93
177 704 946
178 938 995
179 159 343
180 698 106
181 361 937
182 201 120
183 158 852
184 786 630
185 91 909
186 291 333
187 575 931
188 60 763
189 321 837
190 154 302
191 490 215
192 612 394
193 70 159
194 972 987
195 527 340
196 34 241
197 688 334
198 878 485
199 124 413
200 347 330
201 457 540
202 841 478
203 383 907
204 556 135
205 250 31
206 251 90
207 514 112
208 645 252
209 250 482
210 50 740
211 924 309
212 275 198
213 402 554
214 751 389
215 222 168
216 935 8
217 105 551
218 943 769
219 723 250
220 442 730
221 794 873
222 440 930
223 25 735
224 550 461
225 95 780
226 38 560
227 610 303
228 635 599
229 266 273
230 160 961
231 610 199
232 761 276
233 568 865
234 397 721
235 423 983
236 239 847
237 330 653
238 307 662
239 81 59
240 357 955
241 123 426
242 28 874
243 228 758
244 972 613
245 776 209
246 577 160
247 293 429
248 852 781
249 343 789
250 492 948
251 823 661
252 193 141
253 602 498
254 412 553
255 415 158
256 382 42
257 1 486
258 382 334
259 497 141
260 251 476
261 70 672
262 154 539
263 822 847
264 593 573
265 681 808
266 972 28
267 717 124
268 615 988
269 847 459
270 189 652
271 515 845
272 308 612
273 662 92
274 784 7
275 287 625
276 442 982
277 844 461
278 324 736
279 505 739
280 668 124
281 966 56
282 648 984
283 705 165
284 771 758
285 754 167
286 529 232
287 835 623
288 649 742
289 864 278
290 379 515
291 152 618
292 530 125
293 748 966
294 441 116
295 495 888
296 734 107
297 623 131
298 842 466
299 869 433
300 557 697
301 419 952
302 987 50
303 692 664
304 626 817
305 203 625
306 887 426
307 675 757
308 853 362
309 194 527
310 619 709
311 164 411
312 943 552
313 288 411
314 655 956
315 720 138
316 743 460
317 660 568
318 886 352
319 375 573
320 488 528
321 868 505
322 561 673
323 856 126
324 900 17
325 871 351
326 544 696
327 459 776
328 541 257
329 885 418
330 443 205
331 559 106
332 715 74
333 103 373
334 879 347
335 819 389
336 588 69
337 831 507
338 589 695
339 865 351
340 202 605
341 815 96
342 944 461
343 197 668
344 791 305
345 807 679
346 468 732
347 609 656
348 666 76
349 568 205
350 802 286
351 712 80
352 218 449
353 914 624
354 537 863
355 862 484
356 336 666
357 62 678
358 869 431
359 995 86
360 737 314
361 851 39
362 278 480
363 743 173
364 909 106
365 407 905
366 662 941
367 234 442
368 984 38
369 584 667
370 624 9
371 615 986
372 690 580
373 725 65
374 821 470
375 779 78
376 871 94
377 560 796
378 973 189
379 699 19
380 989 17
381 786 720
382 679 710
383 290 543
384 887 516
385 828 401
386 702 64
387 501 973
388 567 951
389 653 134
390 605 770
391 465 620
392 914 529
393 810 491
394 173 471
395 914 548
396 803 366
397 860 113
398 736 168
399 459 508
400 602 884
401 723 145
402 723 696
403 644 653
404 478 427
405 694 521
406 191 588
407 663 791
408 659 188
409 700 411
410 677 609
411 731 580
412 610 105
413 548 155
414 103 585
415 363 542
416 615 90
417 501 937
418 981 71
419 563 789
420 842 508
421 706 155
422 904 130
423 543 567
424 951 14
425 803 5
426 997 36
427 163 492
428 117 572
429 570 35
430 538 21
431 789 108
432 119 667
433 186 678
434 935 216
435 68 669
436 653 116
437 494 839
438 92 755
439 598 137
440 822 278
441 521 156
442 31 373
443 518 956
444 304 521
445 918 124
446 949 54
447 905 132
448 595 694
449 753 45
450 206 365
451 959 557
452 983 471
453 712 137
454 818 383
455 662 684
456 615 759
457 717 11
458 637 657
459 807 419
460 389 951
461 757 185
462 294 482
463 475 464
464 725 970
465 714 5
466 588 715
467 891 415
468 614 647
469 763 96
470 205 708
471 885 493
472 273 424
473 636 107
474 536 88
475 972 618
476 994 28
477 475 786
478 993 34
479 847 29
480 601 7
481 743 509
482 481 877
483 654 629
484 562 686
485 797 386
486 194 570
487 712 142
488 681 104
489 38 680
DEMAND_SECTION
2 9
3 7
4 5
5 5
6 8
7 1
8 2
9 6
10 8
11 2
12 6
13 7
14 8
15 8
16 5
17 3
18 4
19 2
20 8
21 6
22 3
23 3
24 4
25 4
26 8
27 8
28 10
29 1
30 1
31 9
32 9
33 10
34 10
35 5
36 5
37 6
38 4
39 9
40 3
41 8
42 4
43 5
44 9
45 4
46 9
47 1
48 7
49 8
50 4
51 5
52 9
53 3
54 8
55 6
56 6
57 8
58 6
59 8
60 6
61 10
62 3
63 9
64 8
65 6
66 6
67 4
68 3
69 7
70 4
71 6
72 10
73 7
74 2
75 7
76 5
77 4
78 3
79 8
80 1
81 1
82 5
83 8
84 2
85 9
86 6
87 10
88 8
89 1
90 6
91 2
92 4
93 7
94 3
95 9
96 9
97 6
98 8
99 3
100 5
101 6
102 8
103 4
104 3
105 9
106 4
107 7
108 1
109 8
110 9
111 2
112 8
113 6
COVERAGE_SECTION
2 10 250 417 387 443 222 276 295 301 235 482 
3 11 477 279 327 346 84 220 437 377 419 271 326 
4 11 262 160 428 217 486 406 309 94 414 291 427 
5 11 10 44 61 438 432 433 225 261 470 357 435 
6 9 96 58 342 467 329 452 34 306 318 
7 11 125 242 185 93 13 116 108 183 225 136 47 
8 11 251 345 159 381 248 38 287 353 163 218 284 
9 10 91 237 356 272 238 275 126 319 167 415 
10 11 5 438 61 225 44 188 210 432 116 261 357 
11 11 118 81 196 442 333 138 190 70 179 193 199 
12 11 29 218 115 147 38 37 248 165 159 194 263 
13 11 125 7 242 93 185 108 136 230 47 116 183 
14 9 300 484 326 322 338 466 448 369 310 
15 11 339 325 334 308 318 45 289 454 396 335 34 
16 11 281 418 446 40 302 359 368 36 266 478 426 
17 11 130 205 66 176 206 46 182 131 252 19 69 
18 10 158 405 316 481 28 409 169 100 317 372 
19 11 69 131 205 256 66 130 46 17 206 170 176 
20 11 22 200 186 258 313 153 161 88 247 77 472 
21 11 421 283 487 143 453 315 401 280 389 267 408 
22 11 186 20 200 153 161 258 49 313 229 53 247 
23 11 173 352 367 135 53 311 394 472 260 450 209 
24 11 183 236 151 95 164 47 116 230 33 31 86 
25 11 150 203 181 460 365 240 301 222 235 276 86 
26 11 424 82 266 36 380 368 476 216 478 426 302 
27 11 485 396 454 335 50 385 459 214 71 149 45 
28 11 100 411 481 405 372 32 18 68 158 317 316 
29 11 115 12 37 147 194 218 178 172 263 248 221 
30 11 104 328 55 227 73 286 349 48 208 231 99 
31 11 243 124 155 236 278 189 249 470 151 24 164 
32 11 411 372 410 68 303 28 483 317 129 65 184 
33 11 95 110 164 151 86 240 181 236 150 24 47 
34 10 329 467 306 358 299 308 318 325 339 385 
35 11 215 212 168 252 182 51 176 206 46 130 229 
36 11 266 368 26 380 476 478 302 426 424 281 82 
37 10 115 172 29 178 147 263 148 221 194 12 
38 11 159 165 218 8 353 97 475 244 248 251 12 
39 11 89 200 258 330 51 154 229 212 22 255 168 
40 11 446 16 281 418 424 36 266 364 216 324 302 
41 7 171 429 480 119 430 370 336 
42 6 282 314 268 371 366 177 
43 11 197 101 169 409 192 227 360 71 149 214 99 
44 11 61 357 261 435 5 10 210 438 432 489 188 
45 11 344 50 396 350 27 71 15 440 454 485 308 
46 11 206 176 130 205 17 131 182 35 252 168 215 
47 11 230 108 136 95 93 185 24 183 33 7 236 
48 11 55 286 73 328 191 30 104 154 349 330 195 
49 11 161 153 450 186 229 22 173 179 53 70 190 
50 11 396 27 45 485 71 454 335 344 214 149 385 
51 11 168 212 89 35 215 46 39 206 255 128 170 
52 11 120 278 234 356 249 237 155 238 220 9 114 
53 11 472 313 173 247 367 23 161 153 132 352 260 
54 10 133 297 64 79 389 439 436 473 280 412 
55 11 328 73 286 48 30 104 191 349 195 227 231 
56 11 157 77 141 60 88 80 134 247 156 462 290 
57 11 258 166 195 48 200 88 55 39 404 154 328 
58 10 83 6 211 96 318 334 325 339 467 34 
59 11 180 488 280 267 273 453 351 436 487 315 348 
60 11 462 157 77 362 132 444 56 141 80 247 134 
61 11 44 438 210 357 10 261 5 435 188 489 223 
62 11 175 249 84 189 327 477 365 203 120 234 52 
63 11 390 456 117 90 419 288 304 377 466 310 407 
64 11 133 54 297 389 79 408 439 231 436 280 21 
65 8 403 483 458 468 455 347 410 303 
66 11 205 17 130 176 206 19 46 131 182 69 252 
67 8 187 388 233 354 443 417 400 295 
68 11 184 411 163 32 129 28 100 287 372 251 410 
69 11 131 19 256 170 128 205 46 206 130 17 176 
70 11 190 179 450 333 49 311 199 161 11 153 241 
71 11 101 214 50 149 360 27 396 485 45 344 454 
72 11 363 285 398 461 401 143 245 283 315 421 487 
73 11 286 55 328 48 349 191 30 104 441 413 231 
74 11 402 123 382 303 129 455 381 307 284 288 163 
75 9 395 109 392 312 384 451 353 97 321 
76 9 465 457 379 98 449 373 386 274 332 
77 11 157 56 60 247 141 313 462 80 88 132 472 
78 11 469 296 431 375 112 267 373 315 351 332 401 
79 10 297 439 54 133 412 473 64 389 436 416 
80 11 134 141 290 415 60 56 157 167 77 444 213 
81 11 118 196 11 138 442 193 190 333 70 179 199 
82 11 424 26 216 266 36 380 368 476 446 478 324 
83 10 58 211 6 434 142 96 318 378 334 107 
84 11 437 477 327 271 3 482 295 62 354 175 279 
85 11 408 99 208 231 64 133 21 54 283 219 389 
86 11 164 151 189 33 236 150 181 203 25 240 249 
87 11 145 257 241 199 442 333 217 226 427 394 311 
88 11 156 56 77 157 258 20 141 200 404 80 60 
89 11 51 255 128 168 39 330 170 154 212 294 111 
90 10 288 456 307 310 63 390 382 407 466 455 
91 10 9 272 237 275 238 356 126 319 167 383 
92 11 224 253 192 103 404 463 320 166 195 399 423 
93 11 185 7 125 108 242 47 136 230 13 183 116 
94 11 291 414 428 4 406 432 217 160 340 262 486 
95 11 33 47 230 110 24 164 151 136 108 236 86 
96 5 6 452 342 58 467 
97 11 244 475 353 451 312 75 395 159 165 38 392 
98 11 274 425 449 76 457 465 112 379 373 375 332 
99 11 208 85 408 219 231 227 30 146 197 64 283 
100 11 481 28 411 393 337 68 405 316 18 420 374 
101 11 360 71 197 214 149 43 50 232 344 45 396 
102 11 355 202 420 298 321 337 198 277 269 374 471 
103 11 463 404 399 320 156 105 224 201 92 88 254 
104 11 30 328 227 55 195 73 48 166 286 349 208 
105 11 201 320 399 254 103 463 213 423 391 140 290 
106 11 292 204 207 331 474 413 441 259 246 439 336 
107 8 142 378 174 137 122 434 359 445 
108 11 136 230 47 93 185 95 7 13 125 183 24 
109 10 384 75 321 392 395 471 420 198 102 355 
110 11 33 240 181 95 150 460 25 164 86 151 203 
111 11 294 162 259 207 255 441 292 128 106 330 474 
112 11 375 469 449 78 431 341 373 274 296 98 332 
113 10 376 364 397 422 323 447 445 40 361 341 
114 11 220 391 234 346 120 140 279 52 356 327 9 
115 11 29 37 12 147 178 172 194 263 218 221 248 
116 11 225 183 438 188 10 7 185 210 242 24 93 
117 8 377 419 63 390 304 456 233 354 
118 11 11 81 196 442 138 333 190 70 179 193 199 
119 8 430 41 171 429 480 370 336 474 
120 11 234 52 278 220 249 356 114 237 346 62 327 
121 11 394 427 135 309 352 262 209 260 23 367 4 
122 9 174 137 378 142 445 447 422 107 434 
123 10 74 382 402 303 455 307 288 90 129 284 
124 10 470 243 155 31 433 343 270 278 238 5 
125 11 7 242 185 93 13 116 108 183 225 188 136 
126 11 319 167 415 213 254 290 134 91 9 80 272 
127 11 226 489 435 261 357 414 428 217 94 432 44 
128 11 170 294 255 256 162 111 89 69 131 51 259 
129 11 163 184 402 68 345 74 303 251 32 381 123 
130 11 17 176 206 205 46 66 182 131 252 19 69 
131 11 69 19 46 205 256 206 130 170 176 128 17 
132 11 362 462 260 209 247 472 60 367 53 313 352 
133 11 64 54 297 79 439 389 231 408 436 246 473 
134 11 80 290 141 415 167 60 213 126 56 157 254 
135 11 352 367 23 394 121 260 209 173 427 311 309 
136 11 108 230 47 93 185 95 13 7 24 125 183 
137 8 174 378 122 142 107 434 445 447 
138 11 196 81 193 118 11 139 442 239 190 70 333 
139 11 152 239 193 138 196 182 252 17 81 66 176 
140 10 391 423 114 322 201 320 105 326 484 300 
141 11 80 134 290 56 157 60 77 415 156 167 462 
142 7 378 137 107 174 122 434 445 
143 11 487 401 315 453 421 283 267 21 398 363 72 
144 8 464 293 177 148 42 282 314 366 
145 11 87 241 217 257 199 427 226 394 262 428 4 
146 9 219 245 232 461 72 363 398 285 283 
147 9 248 263 221 115 218 37 29 12 284 
148 9 172 293 144 464 37 177 221 178 263 
149 10 214 71 485 27 409 50 101 396 459 316 
150 11 25 203 181 240 460 365 301 86 222 235 164 
151 11 164 86 236 189 33 24 95 31 150 181 249 
152 11 139 239 193 138 17 66 182 196 252 130 176 
153 11 161 49 186 53 450 22 313 173 472 20 247 
154 11 330 191 255 48 259 111 286 441 73 294 89 
155 10 124 278 238 243 31 356 470 237 52 275 
156 11 88 463 404 103 141 56 399 80 134 157 290 
157 11 77 56 60 141 247 80 462 134 313 88 132 
158 11 405 18 481 28 316 317 253 372 169 409 100 
159 11 38 165 353 8 97 218 475 244 251 287 248 
160 9 486 406 4 262 309 340 291 305 94 
161 11 153 49 186 450 53 313 22 173 472 20 247 
162 11 111 294 207 259 128 292 474 255 106 170 441 
163 11 184 129 345 251 68 287 381 402 32 411 74 
164 11 151 86 33 236 189 95 150 24 181 110 240 
165 11 38 159 475 244 97 218 353 8 451 12 312 
166 11 195 57 104 404 55 328 30 48 227 192 92 
167 11 415 126 319 444 290 134 383 80 213 254 272 
168 11 51 212 35 215 89 46 206 176 252 182 229 
169 11 409 43 192 18 149 214 197 316 158 101 71 
170 11 128 256 294 69 131 255 162 111 89 19 51 
171 7 41 429 480 119 430 336 370 
172 10 148 37 178 115 194 293 221 144 29 263 
173 11 23 367 53 352 450 472 135 311 161 153 313 
174 9 137 122 378 142 107 434 445 447 422 
175 11 62 249 189 84 203 327 365 477 150 25 120 
176 11 206 130 46 182 17 252 205 215 35 66 131 
177 7 464 366 293 314 144 42 282 
178 11 194 172 37 115 29 148 12 147 263 221 293 
179 11 70 190 450 333 311 49 199 241 173 161 23 
180 11 59 488 267 351 453 280 296 332 273 315 487 
181 11 240 150 25 460 203 365 301 235 110 222 86 
182 11 252 176 215 206 35 46 130 17 205 168 212 
183 11 24 116 236 185 93 225 47 230 7 151 95 
184 11 163 68 129 251 287 345 411 32 381 402 74 
185 11 93 7 125 108 242 47 13 136 230 183 116 
186 11 22 153 161 20 49 200 229 313 53 258 450 
187 3 388 67 400 
188 11 210 438 225 223 61 44 10 116 5 357 489 
189 11 86 249 164 151 175 62 236 31 150 203 278 
190 11 70 179 450 333 49 11 118 311 199 229 81 
191 11 48 154 286 330 73 55 328 441 259 349 413 
192 11 169 43 92 409 224 227 197 195 253 166 104 
193 11 138 196 239 81 139 252 118 182 11 215 152 
194 11 178 115 37 29 172 12 148 147 263 221 218 
195 11 166 104 57 328 30 55 227 48 404 192 73 
196 11 81 138 118 11 193 442 190 70 333 179 139 
197 11 43 101 360 71 409 169 149 214 227 99 219 
198 7 471 355 321 102 384 202 269 
199 11 241 311 333 394 87 179 145 427 23 450 135 
200 11 20 22 258 186 39 88 153 161 229 313 57 
201 11 105 399 320 254 213 103 463 391 290 140 319 
202 10 298 102 277 269 355 374 420 337 393 198 
203 11 25 150 365 181 460 240 301 222 175 86 235 
204 11 413 106 292 331 246 441 439 207 474 79 259 
205 11 130 17 66 206 46 176 131 19 69 182 252 
206 11 46 176 130 17 182 205 131 252 35 215 168 
207 11 292 106 474 259 331 441 204 162 111 413 294 
208 11 99 85 227 231 408 30 219 349 64 104 197 
209 10 260 362 132 367 462 352 135 472 121 23 
210 11 188 223 61 438 44 225 489 357 10 261 435 
211 10 318 334 83 58 289 325 339 15 308 6 
212 11 168 35 51 215 229 89 252 39 46 182 206 
213 11 254 319 415 126 290 201 134 167 80 105 399 
214 11 149 71 485 27 50 101 409 396 459 454 335 
215 11 35 252 182 212 168 176 206 46 51 130 229 
216 11 424 82 26 324 266 36 446 40 380 281 368 
217 11 428 414 4 262 94 226 145 160 291 427 486 
218 11 38 12 159 165 147 248 8 29 115 263 353 
219 11 146 232 99 360 245 461 208 363 72 85 398 
220 11 346 234 327 114 120 3 279 477 52 84 62 
221 6 263 147 293 37 248 148 
222 11 301 365 2 276 250 460 235 25 203 417 482 
223 11 210 188 489 61 44 357 438 261 435 225 10 
224 11 92 253 103 463 404 192 320 399 423 105 166 
225 11 438 116 188 10 210 61 5 44 223 183 357 
226 11 127 217 414 428 257 145 87 94 4 435 261 
227 11 30 104 208 99 43 328 197 55 192 195 85 
228 10 483 317 410 65 264 468 403 372 458 347 
229 11 186 49 212 22 153 161 200 39 168 20 35 
230 11 47 108 136 95 93 185 24 183 33 7 125 
231 11 349 85 64 133 408 246 54 439 208 79 297 
232 9 344 350 360 219 146 440 45 101 245 
233 6 354 400 67 271 187 117 
234 11 120 52 220 114 346 278 356 327 249 237 62 
235 11 276 301 460 222 2 25 240 181 250 387 365 
236 11 151 24 164 31 86 183 189 243 33 95 249 
237 10 356 9 238 91 272 275 52 155 278 120 
238 9 237 356 275 9 91 272 155 278 52 
239 11 139 152 193 182 17 252 66 176 130 138 205 
240 11 181 460 25 150 203 301 110 365 235 222 33 
241 11 199 311 333 394 87 145 427 121 179 23 135 
242 11 125 7 185 93 13 116 225 188 183 108 438 
243 10 31 124 470 155 236 433 343 278 5 10 
244 11 475 97 451 353 312 165 75 395 159 38 392 
245 8 461 146 72 285 363 398 219 232 
246 11 413 439 204 349 79 133 231 297 54 106 64 
247 11 313 472 53 132 77 157 362 462 60 367 260 
248 9 147 263 8 284 381 218 221 345 38 
249 11 189 278 175 62 52 120 31 234 86 155 151 
250 10 2 417 387 443 222 276 295 67 482 301 
251 11 345 287 163 184 8 129 381 68 353 402 284 
252 11 182 215 35 176 206 46 130 17 212 168 51 
253 11 224 92 264 158 317 423 405 18 192 228 169 
254 11 213 319 201 290 415 126 105 134 399 167 80 
255 11 294 89 330 111 128 154 162 170 259 191 51 
256 11 170 69 128 131 19 294 162 111 255 89 46 
257 11 87 145 226 442 217 127 241 414 199 428 333 
258 11 200 20 57 22 88 39 186 56 77 156 157 
259 11 441 207 292 111 106 162 413 204 294 474 331 
260 11 209 132 362 367 352 462 135 472 23 247 53 
261 11 435 357 489 44 61 432 210 127 5 223 10 
262 11 4 160 309 427 217 428 486 121 406 414 94 
263 7 221 147 248 37 284 115 381 
264 9 228 423 317 253 468 483 347 410 65 
265 8 407 307 304 288 90 456 63 390 
266 11 36 368 26 380 476 478 424 426 302 281 82 
267 11 315 453 487 401 143 296 180 59 421 488 21 
268 3 371 282 42 
269 7 277 298 202 374 355 102 299 
270 10 343 433 305 340 291 470 406 94 432 124 
271 9 437 354 295 482 84 233 377 477 419 
272 9 91 275 9 237 238 356 167 126 383 
273 8 348 488 436 473 280 59 180 389 
274 11 425 98 449 112 76 457 479 465 375 361 373 
275 8 272 91 238 9 237 356 383 305 
276 11 235 301 222 2 250 387 460 417 443 25 365 
277 6 269 298 202 374 102 355 
278 11 52 155 120 249 356 234 238 31 237 124 243 
279 11 3 346 477 326 327 220 14 300 419 484 377 
280 10 436 389 488 59 273 180 473 21 54 297 
281 11 16 446 418 302 368 36 266 40 478 426 476 
282 5 42 314 268 371 366 
283 11 421 21 143 487 401 453 315 398 363 267 72 
284 9 381 74 402 123 248 345 307 129 263 
285 11 72 363 398 461 401 143 315 245 283 421 487 
286 11 73 55 48 328 191 349 30 104 441 413 154 
287 11 251 184 163 345 68 353 8 129 75 109 97 
288 10 90 307 456 382 310 407 63 390 455 123 
289 7 440 15 350 211 334 325 339 
290 11 134 80 415 141 213 254 167 126 319 60 56 
291 11 94 406 270 305 340 428 414 432 160 4 486 
292 11 106 207 204 441 331 413 259 474 246 111 439 
293 8 464 144 177 148 42 366 314 282 
294 11 111 162 128 255 259 170 207 292 330 441 154 
295 11 482 271 354 417 437 250 67 2 222 84 443 
296 11 267 78 469 315 351 180 453 332 401 487 59 
297 10 79 54 133 439 473 412 389 64 436 416 
298 6 277 269 202 374 102 355 
299 6 358 306 329 467 34 269 
300 9 14 484 326 322 338 466 448 369 310 
301 11 222 460 235 276 25 365 203 181 240 150 2 
302 11 368 426 478 281 418 476 36 266 16 380 359 
303 11 455 74 402 65 382 123 403 483 458 410 32 
304 7 407 117 390 63 265 456 377 
305 9 340 270 406 343 291 433 486 160 94 
306 6 329 467 299 358 34 269 
307 11 288 90 407 382 265 123 456 63 390 74 310 
308 11 339 325 15 334 318 454 335 385 34 396 27 
309 8 121 160 262 486 427 4 394 406 
310 7 448 466 338 90 288 455 456 
311 11 199 241 23 173 394 450 135 352 179 333 367 
312 7 451 395 392 75 97 109 384 
313 11 247 472 53 132 77 153 161 367 157 173 20 
314 6 366 282 42 177 371 268 
315 11 401 453 487 143 267 421 283 296 398 21 180 
316 8 18 481 409 149 158 214 393 100 
317 11 372 228 410 405 483 32 264 411 158 28 65 
318 11 334 325 339 15 308 34 211 467 329 306 454 
319 11 126 213 415 167 254 290 134 9 91 80 272 
320 11 105 201 399 103 463 423 254 140 213 224 391 
321 10 471 198 355 384 102 420 109 337 202 298 
322 9 484 300 369 14 326 338 448 466 347 
323 8 397 376 113 422 447 341 364 445 
324 11 216 424 40 82 361 479 446 26 266 36 113 
325 11 339 334 318 15 308 34 454 335 385 467 211 
326 9 300 14 484 322 338 466 369 448 279 
327 11 477 3 346 84 220 279 437 62 175 234 271 
328 11 55 73 286 48 30 104 349 191 227 195 231 
329 5 467 306 34 358 299 
330 11 154 191 255 48 111 259 89 294 39 286 441 
331 11 106 204 474 292 207 336 413 439 412 246 416 
332 11 351 373 386 180 296 59 488 449 348 267 78 
333 11 199 241 179 311 442 70 190 11 87 118 450 
334 11 318 325 339 15 308 34 211 467 289 329 454 
335 8 454 385 485 27 396 459 50 308 
336 6 416 429 412 171 331 41 
337 11 420 102 393 202 321 374 355 298 277 269 198 
338 8 448 466 369 484 14 300 310 322 
339 11 325 334 15 308 318 34 454 335 385 396 45 
340 8 305 406 486 160 270 291 343 94 
341 10 431 375 112 397 323 469 78 376 361 113 
342 2 452 96 
343 10 433 270 470 305 124 340 291 432 406 5 
344 10 350 45 440 232 50 360 396 71 101 15 
345 11 251 163 381 184 129 8 287 402 68 284 74 
346 11 220 279 3 327 477 114 234 326 84 120 14 
347 7 468 369 458 403 448 65 338 
348 8 273 488 386 59 436 473 180 351 
349 11 231 73 246 286 413 328 55 30 441 204 48 
350 8 344 440 232 45 289 50 360 15 
351 11 332 386 373 180 296 59 488 267 348 273 78 
352 11 135 367 23 173 260 209 394 121 53 132 472 
353 11 97 475 244 75 159 395 312 287 451 38 165 
354 8 271 233 295 437 67 482 400 377 
355 9 102 198 202 321 471 298 269 277 420 
356 11 237 238 9 91 272 52 275 278 120 155 234 
357 11 261 435 489 44 61 432 210 223 127 5 438 
358 6 299 306 329 467 34 269 
359 11 418 16 302 281 368 426 478 446 476 36 266 
360 11 101 232 71 197 344 45 219 50 350 214 149 
361 11 479 324 376 425 113 341 274 397 112 375 40 
362 11 132 462 260 209 60 444 247 472 367 383 352 
363 11 72 398 285 461 401 143 283 421 315 487 453 
364 10 445 422 447 113 376 397 40 323 16 446 
365 11 203 25 222 150 301 460 181 240 482 235 175 
366 4 314 177 282 42 
367 11 352 23 173 135 260 53 209 472 132 362 247 
368 11 478 302 426 36 476 266 380 281 26 418 446 
369 8 322 347 338 448 484 468 14 300 
370 4 480 41 171 429 
371 3 268 282 42 
372 11 317 410 32 411 28 228 405 483 65 68 158 
373 11 332 351 386 449 296 180 469 78 379 457 59 
374 7 298 202 393 277 269 102 337 
375 11 112 469 78 431 341 449 296 373 332 351 274 
376 10 113 397 323 364 422 447 341 445 361 479 
377 8 419 117 63 390 456 271 233 304 
378 7 142 137 174 107 122 434 445 
379 8 457 465 76 386 373 332 449 351 
380 11 476 478 36 266 426 26 368 302 424 82 281 
381 10 284 345 402 129 74 251 163 8 123 184 
382 9 123 455 74 288 402 307 303 90 310 
383 7 444 167 462 362 272 60 209 
384 9 321 109 471 392 198 355 395 102 420 
385 6 335 454 459 485 27 396 
386 10 332 351 373 348 180 379 488 59 273 296 
387 7 443 250 2 417 276 388 222 
388 3 187 67 443 
389 10 280 436 54 297 473 64 133 79 21 488 
390 11 63 456 117 90 419 304 288 377 466 407 310 
391 10 140 114 201 254 105 213 423 320 319 322 
392 8 395 384 109 312 75 471 321 451 
393 9 374 337 202 420 102 298 277 269 355 
394 11 121 427 135 352 23 309 311 241 367 262 199 
395 8 392 75 312 109 384 451 471 321 
396 11 50 27 485 454 335 45 385 71 308 459 214 
397 8 323 376 113 422 341 364 447 445 
398 11 363 72 285 401 461 143 283 421 315 487 453 
399 11 105 201 320 103 463 254 156 213 290 404 134 
400 3 233 187 67 
401 11 143 315 487 453 421 267 398 283 363 21 72 
402 11 74 123 303 382 129 455 381 284 307 163 345 
403 7 458 65 483 468 347 455 303 
404 11 463 103 156 224 399 92 166 88 195 320 105 
405 11 158 18 28 481 317 372 411 100 316 32 410 
406 9 486 340 160 305 291 4 94 262 309 
407 9 265 307 304 90 288 456 63 390 117 
408 11 85 64 21 133 231 283 54 389 421 99 280 
409 11 169 149 214 316 43 18 71 197 101 158 192 
410 11 483 372 32 228 65 317 403 303 411 458 468 
411 11 32 28 68 372 100 410 405 317 481 184 129 
412 8 416 473 79 297 439 336 54 436 
413 11 204 441 246 106 292 331 259 439 349 207 474 
414 11 428 217 94 4 291 262 226 127 160 432 406 
415 11 167 126 290 319 134 213 80 254 141 444 383 
416 7 412 473 336 79 297 436 273 
417 9 250 2 443 387 295 67 222 482 388 
418 11 16 281 359 302 368 446 426 478 36 266 476 
419 8 377 117 390 63 456 304 3 271 
420 11 337 102 321 202 355 393 298 198 374 384 471 
421 11 283 143 487 21 453 401 315 267 398 363 72 
422 8 447 445 364 113 397 323 376 122 
423 9 264 140 320 105 201 253 391 228 399 
424 11 82 26 216 266 36 380 446 368 281 476 478 
425 11 274 98 479 361 449 112 375 76 457 465 341 
426 11 478 476 368 302 380 36 266 281 418 26 16 
427 11 121 394 309 262 135 4 352 241 160 311 23 
428 11 414 217 4 94 262 291 160 406 486 226 309 
429 7 171 41 430 336 119 480 370 
430 9 119 429 41 171 480 474 336 370 331 
431 10 341 469 78 375 112 296 285 323 397 449 
432 11 261 435 5 44 357 291 61 94 433 270 10 
433 10 343 270 470 305 124 432 5 291 340 94 
434 7 137 142 174 378 122 107 447 
435 11 261 357 489 44 61 432 127 210 223 5 10 
436 10 280 389 473 273 488 297 54 59 79 348 
437 10 271 84 482 295 354 477 3 327 233 377 
438 11 225 10 188 61 210 44 5 116 223 357 261 
439 11 79 297 246 54 133 412 204 64 473 331 416 
440 8 350 344 289 45 232 15 245 50 
441 11 413 259 292 106 204 207 246 331 111 191 349 
442 11 333 11 118 87 199 81 241 145 257 179 196 
443 7 387 417 250 2 388 67 187 
444 10 383 462 60 362 167 132 415 80 134 209 
445 9 422 447 364 113 122 376 397 323 40 
446 11 281 40 16 36 266 418 302 368 424 26 216 
447 8 422 445 364 113 323 397 122 376 
448 7 338 466 310 369 484 14 300 
449 11 373 112 98 375 332 274 457 469 351 386 76 
450 11 49 173 161 179 153 311 23 70 53 190 367 
451 7 312 395 392 244 75 97 475 
452 4 342 96 6 451 
453 11 487 315 143 267 401 421 283 21 180 59 296 
454 8 335 27 385 485 396 50 459 308 
455 7 382 303 403 458 65 123 310 
456 11 63 390 90 288 310 117 466 407 304 307 419 
457 10 76 465 379 98 449 373 386 332 274 351 
458 6 403 65 468 347 483 455 
459 5 385 335 485 27 454 
460 11 25 301 181 240 150 203 235 365 222 276 110 
461 11 72 285 363 398 245 146 401 143 283 421 315 
462 11 362 132 60 444 260 209 247 157 77 383 472 
463 11 103 404 399 156 320 105 224 201 92 88 141 
464 8 293 144 177 42 366 314 282 148 
465 9 76 457 379 98 449 386 373 332 274 
466 9 338 448 310 14 300 484 326 369 322 
467 5 329 306 34 358 299 
468 7 347 458 403 369 65 483 448 
469 11 78 375 431 296 112 373 341 449 332 351 267 
470 10 124 433 343 243 270 155 5 305 31 10 
471 6 198 321 384 355 102 109 
472 11 53 313 247 132 367 173 260 362 23 352 209 
473 9 436 412 297 416 273 389 79 280 54 
474 11 331 106 207 292 204 336 429 259 430 413 441 
475 11 244 97 353 451 165 312 159 38 75 395 392 
476 11 478 426 380 368 36 266 302 26 281 418 424 
477 11 327 3 84 346 279 437 220 271 62 377 419 
478 11 426 476 368 302 380 36 266 26 281 418 424 
479 11 361 425 324 274 376 113 341 112 375 397 98 
480 6 370 41 171 429 119 336 
481 10 100 28 18 316 405 158 393 411 374 337 
482 11 295 437 271 84 354 417 222 2 250 67 365 
483 9 65 403 410 458 228 468 303 347 455 
484 9 300 14 322 326 338 369 448 466 347 
485 10 27 396 454 335 50 385 459 214 149 71 
486 7 160 406 340 309 4 262 305 
487 11 453 143 315 401 421 267 283 21 398 59 180 
488 9 59 180 273 280 436 348 351 267 389 
489 11 357 435 261 44 223 61 210 127 432 188 438 
DEPOT_SECTION
   1
   -1
EOF
