NAME :  X-n513-kX-w51-c7.cctp
COMMENT : 	Adapted by Maziero, Usberti and Cavellucci from the Uchoa, Pecin, Pessoa, Poggi, Subramanian, and Vidal (2013)
TYPE :  CCTP
DIMENSION :    247
EDGE_WEIGHT_TYPE : 	EUC_2D	
CAPACITY : 	142
VERTICES_WITHIN_COVERAGE :  7
VERTICES_WITH_DEMAND : 	51
NODE_COORD_SECTION
1 500 500
2 425 323
3 806 514
4 853 637
5 326 818
6 601 664
7 680 704
8 358 401
9 688 267
10 146 846
11 171 615
12 962 75
13 710 565
14 662 574
15 665 599
16 112 811
17 439 69
18 573 69
19 997 647
20 338 524
21 626 29
22 633 570
23 957 890
24 746 397
25 224 83
26 425 827
27 787 99
28 518 378
29 890 763
30 860 608
31 683 188
32 417 680
33 483 987
34 676 197
35 294 710
36 284 281
37 568 565
38 942 896
39 223 358
40 538 428
41 910 702
42 550 516
43 524 467
44 675 128
45 977 488
46 725 890
47 205 512
48 768 660
49 443 407
50 518 363
51 730 609
52 973 64
53 683 832
54 308 298
55 510 14
56 38 76
57 446 909
58 849 738
59 334 250
60 683 28
61 513 433
62 850 764
63 491 477
64 916 597
65 999 146
66 892 989
67 734 581
68 232 386
69 538 431
70 697 331
71 162 281
72 819 403
73 783 931
74 995 892
75 135 789
76 911 834
77 175 386
78 296 128
79 379 78
80 567 526
81 809 171
82 389 7
83 772 308
84 322 894
85 935 730
86 24 791
87 258 823
88 884 523
89 498 330
90 978 797
91 174 25
92 314 61
93 618 247
94 402 994
95 491 870
96 563 291
97 376 831
98 448 343
99 352 424
100 351 829
101 560 60
102 914 981
103 983 778
104 677 546
105 593 635
106 170 268
107 805 891
108 419 48
109 758 526
110 472 66
111 419 642
112 522 581
113 763 327
114 736 892
115 220 35
116 684 692
117 171 385
118 789 316
119 577 949
120 91 33
121 415 835
122 323 299
123 818 672
124 929 654
125 917 999
126 584 19
127 73 17
128 305 771
129 468 340
130 692 921
131 822 44
132 441 883
133 799 15
134 409 285
135 921 912
136 934 42
137 162 143
138 185 898
139 501 86
140 163 620
141 633 133
142 948 742
143 691 976
144 371 447
145 545 965
146 227 60
147 398 274
148 764 475
149 715 67
150 342 496
151 911 52
152 309 177
153 596 454
154 977 808
155 181 471
156 484 988
157 796 913
158 178 219
159 524 516
160 954 1
161 722 654
162 518 137
163 433 330
164 939 901
165 951 404
166 715 956
167 713 616
168 460 949
169 189 916
170 924 598
171 609 662
172 189 622
173 758 634
174 739 645
175 631 577
176 228 334
177 131 872
178 297 531
179 728 700
180 591 648
181 263 861
182 687 608
183 576 520
184 619 668
185 273 795
186 961 754
187 548 608
188 267 712
189 218 615
190 186 516
191 610 659
192 572 520
193 573 664
194 118 871
195 764 912
196 789 712
197 46 784
198 175 561
199 606 451
200 453 855
201 600 675
202 802 569
203 579 361
204 614 547
205 650 520
206 365 805
207 308 730
208 582 522
209 678 545
210 565 565
211 411 449
212 699 606
213 723 565
214 676 382
215 181 846
216 123 806
217 886 668
218 130 804
219 429 696
220 337 809
221 161 642
222 76 787
223 233 529
224 659 593
225 170 895
226 149 566
227 269 700
228 427 710
229 428 661
230 674 700
231 665 706
232 231 527
233 146 811
234 161 286
235 748 588
236 171 610
237 321 708
238 687 567
239 730 598
240 303 683
241 642 718
242 780 648
243 212 489
244 777 609
245 527 562
246 649 760
247 437 708
DEMAND_SECTION
2 8
3 2
4 10
5 7
6 10
7 7
8 7
9 2
10 9
11 9
12 1
13 3
14 9
15 4
16 10
17 3
18 4
19 2
20 8
21 2
22 9
23 2
24 8
25 8
26 5
27 8
28 4
29 5
30 9
31 8
32 5
33 2
34 10
35 1
36 3
37 9
38 3
39 8
40 4
41 2
42 6
43 8
44 9
45 4
46 1
47 6
48 2
49 1
50 10
51 3
52 4
COVERAGE_SECTION
2 7 163 98 134 129 147 89 49 
3 3 109 202 148 
4 7 30 217 123 242 64 124 170 
5 6 220 100 206 128 97 185 
6 7 171 191 201 184 180 193 105 
7 5 230 116 231 241 179 
8 6 99 144 211 49 150 2 
9 7 70 34 93 31 83 113 118 
10 7 177 215 233 194 218 216 16 
11 7 236 140 172 221 189 198 226 
12 6 52 136 151 160 65 131 
13 6 213 238 67 104 209 239 
14 7 224 15 238 22 175 104 209 
15 3 224 182 14 
16 6 216 218 75 233 222 10 
17 6 108 110 79 139 82 55 
18 7 101 126 21 139 55 162 141 
19 7 124 170 64 41 85 142 186 
20 2 150 178 
21 7 126 60 18 101 149 141 44 
22 5 175 14 204 224 15 
23 7 38 164 74 135 76 154 90 
24 6 113 214 72 148 70 118 
25 7 146 115 91 78 137 92 152 
26 5 121 200 97 132 206 
27 7 131 81 149 133 44 60 151 
28 7 50 89 40 61 69 129 203 
29 7 62 58 85 142 41 186 76 
30 6 4 64 170 217 202 123 
31 6 34 44 141 9 93 149 
32 5 219 229 228 247 111 
33 7 156 168 145 94 57 119 132 
34 6 31 44 9 93 141 70 
35 5 207 188 227 237 240 
36 7 54 122 59 176 39 152 147 
37 7 210 80 245 192 208 183 187 
38 7 164 23 135 74 76 102 154 
39 4 176 68 77 117 
40 7 69 61 43 28 153 50 63 
41 7 85 217 124 142 29 58 186 
42 7 80 192 159 183 208 210 245 
43 7 63 61 69 40 159 42 192 
44 7 141 31 34 149 60 21 27 
45 7 165 88 170 64 19 30 3 
46 7 114 130 195 166 73 53 157 
47 5 190 243 232 223 155 
48 7 242 173 174 161 123 244 196 
49 7 211 98 129 61 163 28 144 
50 7 28 89 129 203 40 61 69 
51 5 239 167 67 235 212 
52 7 12 136 151 160 65 131 133 
53 4 46 114 246 130 
54 7 122 36 59 176 147 134 39 
55 7 110 101 139 126 18 17 108 
56 6 120 127 137 91 25 115 
57 7 132 168 200 95 121 26 33 
58 7 62 29 196 41 123 217 85 
59 7 122 54 36 147 152 134 2 
60 7 149 21 126 44 141 18 133 
61 7 40 69 43 63 28 50 49 
62 7 58 29 196 41 85 76 123 
63 6 43 61 159 69 40 42 
64 7 170 30 124 4 217 88 19 
65 4 12 52 136 151 
66 6 102 125 135 164 38 23 
67 5 235 239 213 51 13 
68 4 39 176 77 117 
69 7 40 61 43 28 153 63 50 
70 7 214 9 113 83 24 118 93 
71 5 234 106 158 176 39 
72 5 24 148 118 113 83 
73 6 157 195 107 114 46 166 
74 7 23 38 164 135 154 90 76 
75 4 218 216 233 16 
76 7 38 154 23 164 29 90 135 
77 3 117 39 68 
78 7 152 92 25 79 146 115 59 
79 7 108 17 92 82 110 78 152 
80 7 192 183 208 42 37 210 159 
81 5 27 31 131 34 149 
82 7 108 79 17 92 110 55 139 
83 5 118 113 70 9 24 
84 5 181 100 5 97 220 
85 7 142 186 41 29 103 124 217 
86 3 197 222 16 
87 3 185 181 5 
88 6 3 64 170 30 202 45 
89 7 129 50 28 98 163 2 96 
90 7 154 103 186 142 76 85 29 
91 7 115 146 25 120 127 137 56 
92 7 79 78 146 82 25 115 108 
93 5 96 9 34 31 70 
94 4 168 33 156 57 
95 5 200 132 57 26 121 
96 5 93 203 89 50 28 
97 6 100 206 121 220 26 5 
98 7 129 163 2 89 49 134 50 
99 6 8 144 211 150 49 20 
100 6 220 97 5 206 121 84 
101 7 18 126 139 55 21 110 162 
102 6 125 66 135 164 38 23 
103 7 90 154 186 142 85 76 29 
104 7 209 238 14 205 13 22 213 
105 4 180 191 6 171 
106 5 71 234 158 176 39 
107 6 157 73 195 114 46 166 
108 7 17 79 82 110 139 55 92 
109 1 3 
110 6 17 139 108 55 162 101 
111 2 229 32 
112 4 245 187 210 37 
113 6 83 118 70 24 72 9 
114 7 46 195 130 73 157 166 107 
115 7 146 91 25 92 78 137 120 
116 5 7 230 231 179 241 
117 3 77 39 68 
118 5 83 113 24 72 70 
119 3 145 33 156 
120 7 127 56 91 115 137 146 25 
121 6 26 97 200 132 206 100 
122 7 54 36 59 147 134 176 2 
123 7 242 4 196 48 217 173 58 
124 7 217 41 170 64 19 85 4 
125 6 102 66 135 164 38 23 
126 7 21 101 18 55 60 139 110 
127 7 120 56 91 115 137 146 25 
128 4 185 207 220 5 
129 7 98 89 163 2 50 28 49 
130 5 166 46 114 143 195 
131 7 133 27 151 149 136 81 160 
132 7 57 200 95 121 26 168 97 
133 7 131 27 149 60 151 136 81 
134 7 147 2 163 98 129 59 122 
135 7 164 38 23 102 74 76 66 
136 7 151 12 52 160 131 65 133 
137 6 158 25 146 91 115 106 
138 6 225 169 215 177 10 194 
139 6 110 162 17 101 55 18 
140 5 11 236 221 172 189 
141 6 44 31 34 18 101 21 
142 7 85 186 103 41 29 90 154 
143 4 166 130 46 114 
144 6 99 211 8 150 49 20 
145 4 119 156 33 168 
146 7 25 115 91 92 78 137 120 
147 6 134 2 163 59 122 98 
148 2 109 3 
149 7 60 44 27 21 133 141 131 
150 4 20 144 178 99 
151 7 136 12 52 160 131 133 65 
152 7 78 59 36 92 54 79 122 
153 5 199 69 40 183 208 
154 7 90 103 186 76 142 23 74 
155 3 243 190 47 
156 7 33 168 145 94 57 119 132 
157 6 73 107 195 114 46 166 
158 6 106 71 234 137 36 176 
159 6 42 80 245 192 43 63 
160 7 136 52 151 12 131 65 133 
161 6 174 167 173 48 51 179 
162 4 139 110 18 101 
163 7 2 98 129 134 89 147 49 
164 7 38 23 135 74 76 102 66 
165 2 45 72 
166 6 143 130 195 46 114 73 
167 3 212 51 239 
168 7 57 33 156 132 94 95 145 
169 6 138 225 215 177 10 194 
170 7 64 124 30 217 4 88 19 
171 6 191 6 184 201 180 105 
172 5 11 236 140 189 221 
173 6 174 242 48 244 51 161 
174 6 161 173 48 51 167 242 
175 5 22 14 224 204 15 
176 7 39 68 77 117 36 234 71 
177 7 194 10 225 215 138 233 16 
178 1 20 
179 7 116 161 7 230 174 48 196 
180 6 105 6 191 171 193 201 
181 4 87 185 84 5 
182 3 212 15 167 
183 7 192 208 80 42 37 210 204 
184 5 171 191 6 201 180 
185 3 87 128 5 
186 7 142 103 85 90 154 29 41 
187 3 112 210 37 
188 2 227 35 
189 3 172 11 236 
190 6 47 243 155 198 232 223 
191 6 171 6 184 201 180 105 
192 7 183 80 208 42 37 210 159 
193 6 180 6 201 105 171 191 
194 7 177 10 225 16 216 233 215 
195 7 73 157 114 46 107 166 130 
196 7 123 48 179 58 242 62 173 
197 3 86 222 16 
198 5 226 190 236 11 47 
199 5 153 69 40 183 208 
200 6 132 26 95 121 57 97 
201 7 6 171 191 184 180 193 105 
202 3 244 3 235 
203 7 50 28 96 40 69 89 199 
204 7 22 175 208 205 183 37 192 
205 6 104 209 204 22 14 175 
206 4 97 100 220 5 
207 4 35 237 128 188 
208 7 183 192 80 42 204 37 210 
209 7 104 238 14 13 205 213 22 
210 7 37 245 80 112 183 187 192 
211 6 144 49 99 8 150 63 
212 3 182 167 51 
213 5 13 67 235 239 238 
214 5 70 24 199 203 113 
215 5 10 233 225 138 177 
216 5 218 16 75 233 10 
217 7 41 4 124 30 123 64 58 
218 5 216 75 233 16 10 
219 4 228 247 32 229 
220 5 5 100 206 97 128 
221 4 140 11 172 236 
222 4 197 16 216 86 
223 2 232 47 
224 5 15 14 175 182 22 
225 6 138 169 177 215 10 194 
226 4 198 236 11 140 
227 3 188 35 240 
228 3 247 219 32 
229 3 111 32 219 
230 5 7 231 116 241 179 
231 4 230 7 116 241 
232 3 223 47 243 
233 5 218 216 75 16 10 
234 5 71 106 158 176 39 
235 5 67 239 51 213 244 
236 7 11 140 172 221 189 198 226 
237 3 207 35 240 
238 6 13 104 209 14 213 224 
239 6 51 67 235 167 212 213 
240 2 35 237 
241 5 231 230 7 246 116 
242 6 48 173 244 174 123 161 
243 5 47 155 190 232 223 
244 4 173 235 242 51 
245 5 112 210 37 159 42 
246 3 241 231 7 
247 3 228 219 32 
DEPOT_SECTION
   1
   -1
EOF
