NAME :  X-n586-kX-w234-c9.cctp
COMMENT : 	Adapted by Maziero, Usberti and Cavellucci from the Uchoa, Pecin, Pessoa, Poggi, Subramanian, and Vidal (2013)
TYPE :  CCTP
DIMENSION :    496
EDGE_WEIGHT_TYPE : 	EUC_2D	
CAPACITY : 	28
VERTICES_WITHIN_COVERAGE :  9
VERTICES_WITH_DEMAND : 	234
NODE_COORD_SECTION
1 18 761
2 835 397
3 299 16
4 31 168
5 142 257
6 242 984
7 612 357
8 663 812
9 105 188
10 487 636
11 993 703
12 672 148
13 506 259
14 953 706
15 888 203
16 107 534
17 772 692
18 475 182
19 828 775
20 719 220
21 655 722
22 844 197
23 918 600
24 460 844
25 739 102
26 301 523
27 341 627
28 989 936
29 935 602
30 44 72
31 861 67
32 163 416
33 981 503
34 722 397
35 317 903
36 547 95
37 944 106
38 935 192
39 128 376
40 908 176
41 720 226
42 738 793
43 791 498
44 712 751
45 530 693
46 141 673
47 380 544
48 634 301
49 427 853
50 606 949
51 47 557
52 48 202
53 791 67
54 546 876
55 526 842
56 535 216
57 828 214
58 829 352
59 623 473
60 374 1000
61 74 187
62 275 415
63 726 789
64 51 597
65 894 395
66 159 743
67 301 893
68 755 946
69 978 261
70 709 153
71 391 153
72 876 370
73 846 725
74 604 107
75 117 709
76 507 89
77 348 744
78 476 204
79 181 957
80 948 710
81 158 788
82 414 685
83 358 66
84 196 732
85 283 343
86 456 931
87 5 468
88 459 43
89 555 414
90 94 964
91 558 360
92 641 424
93 132 16
94 777 947
95 25 205
96 852 45
97 5 686
98 400 682
99 501 234
100 905 968
101 492 971
102 817 114
103 651 941
104 817 643
105 735 937
106 333 829
107 223 584
108 306 412
109 209 663
110 206 549
111 542 691
112 296 10
113 215 747
114 148 641
115 9 553
116 411 59
117 382 800
118 824 612
119 608 727
120 481 574
121 169 950
122 350 608
123 396 536
124 36 459
125 359 339
126 798 917
127 10 569
128 813 10
129 569 627
130 692 467
131 166 178
132 247 413
133 738 487
134 508 327
135 158 986
136 983 244
137 637 109
138 177 207
139 357 374
140 361 972
141 365 701
142 582 957
143 712 996
144 932 452
145 847 981
146 60 66
147 252 267
148 944 435
149 338 688
150 900 168
151 583 871
152 852 59
153 921 72
154 845 534
155 387 253
156 812 354
157 5 404
158 590 575
159 930 128
160 184 742
161 832 466
162 285 346
163 548 976
164 32 531
165 966 58
166 31 40
167 162 539
168 621 425
169 802 495
170 385 493
171 769 329
172 921 15
173 64 106
174 854 678
175 943 122
176 103 285
177 304 739
178 398 212
179 335 459
180 43 108
181 400 255
182 935 851
183 179 147
184 822 749
185 60 32
186 829 992
187 783 760
188 218 360
189 321 463
190 403 172
191 32 134
192 218 490
193 44 456
194 430 570
195 896 875
196 509 572
197 424 936
198 639 505
199 914 852
200 984 435
201 479 341
202 207 937
203 709 700
204 235 795
205 557 130
206 270 964
207 482 320
208 60 761
209 836 272
210 413 327
211 509 379
212 961 329
213 819 754
214 176 910
215 648 809
216 640 892
217 838 79
218 552 232
219 831 306
220 503 726
221 555 765
222 486 958
223 571 837
224 162 504
225 458 845
226 378 389
227 458 127
228 929 786
229 364 368
230 579 971
231 662 173
232 320 524
233 919 901
234 894 787
235 428 736
236 554 560
237 94 22
238 82 61
239 581 840
240 54 127
241 693 830
242 355 662
243 24 276
244 946 348
245 844 433
246 877 594
247 238 103
248 556 739
249 503 462
250 264 505
251 782 143
252 919 703
253 958 559
254 90 181
255 794 485
256 267 35
257 322 883
258 376 52
259 487 982
260 541 423
261 36 607
262 101 687
263 657 754
264 372 421
265 695 294
266 174 686
267 128 560
268 926 32
269 540 223
270 490 930
271 334 635
272 125 661
273 473 467
274 129 401
275 247 415
276 725 544
277 284 155
278 200 281
279 822 540
280 306 433
281 216 59
282 887 520
283 714 539
284 780 97
285 464 94
286 951 329
287 785 333
288 886 820
289 677 811
290 232 689
291 595 733
292 690 901
293 457 905
294 868 966
295 492 778
296 735 816
297 37 189
298 332 670
299 178 109
300 16 13
301 17 419
302 986 893
303 2 931
304 603 900
305 495 820
306 452 820
307 846 825
308 625 965
309 409 900
310 474 942
311 350 832
312 267 929
313 456 850
314 86 109
315 184 186
316 475 917
317 83 123
318 254 899
319 132 768
320 437 848
321 140 810
322 449 950
323 186 798
324 322 852
325 270 978
326 954 920
327 389 874
328 273 852
329 900 963
330 881 878
331 181 113
332 478 868
333 563 823
334 149 130
335 162 793
336 444 918
337 541 906
338 34 189
339 130 980
340 237 386
341 520 908
342 517 985
343 815 899
344 539 823
345 55 50
346 498 853
347 121 190
348 253 850
349 72 175
350 155 903
351 744 860
352 479 941
353 44 63
354 43 203
355 115 299
356 185 933
357 5 191
358 840 863
359 15 221
360 366 999
361 898 981
362 214 965
363 677 912
364 471 869
365 188 671
366 312 929
367 976 943
368 51 48
369 421 911
370 40 708
371 72 266
372 183 409
373 100 88
374 424 921
375 877 967
376 27 179
377 171 936
378 932 1000
379 455 869
380 463 837
381 846 959
382 435 847
383 353 670
384 187 752
385 464 978
386 128 303
387 59 408
388 319 870
389 887 957
390 240 175
391 473 816
392 138 202
393 406 825
394 388 728
395 78 745
396 287 734
397 144 150
398 181 611
399 261 116
400 444 964
401 367 966
402 7 136
403 127 532
404 408 873
405 808 928
406 430 951
407 94 257
408 170 97
409 7 126
410 916 902
411 432 821
412 181 936
413 887 864
414 128 179
415 322 943
416 343 786
417 153 220
418 321 964
419 128 913
420 201 898
421 912 951
422 105 265
423 32 133
424 428 946
425 21 156
426 47 175
427 70 772
428 459 932
429 165 773
430 146 938
431 34 140
432 900 958
433 215 989
434 444 821
435 963 961
436 914 869
437 102 310
438 126 686
439 819 967
440 282 720
441 3 828
442 148 924
443 421 731
444 513 812
445 177 909
446 227 897
447 96 713
448 437 876
449 789 981
450 996 910
451 90 87
452 578 807
453 833 865
454 138 750
455 899 754
456 195 895
457 843 872
458 203 473
459 480 960
460 258 899
461 127 344
462 461 949
463 437 847
464 465 817
465 102 191
466 84 185
467 377 879
468 660 782
469 171 812
470 35 216
471 74 67
472 440 953
473 110 175
474 617 832
475 617 787
476 501 842
477 390 969
478 59 73
479 913 979
480 387 735
481 121 746
482 419 942
483 128 998
484 517 952
485 586 955
486 40 118
487 474 852
488 234 798
489 131 189
490 481 981
491 160 987
492 98 917
493 78 766
494 422 862
495 81 228
496 842 959
DEMAND_SECTION
2 9
3 7
4 6
5 5
6 7
7 10
8 9
9 8
10 9
11 8
12 6
13 6
14 5
15 10
16 9
17 7
18 9
19 7
20 9
21 6
22 5
23 7
24 10
25 7
26 6
27 9
28 9
29 10
30 7
31 7
32 9
33 10
34 5
35 6
36 8
37 10
38 8
39 5
40 8
41 10
42 8
43 10
44 7
45 5
46 8
47 9
48 7
49 10
50 5
51 6
52 10
53 9
54 9
55 10
56 6
57 8
58 10
59 9
60 10
61 9
62 7
63 5
64 8
65 10
66 6
67 9
68 5
69 7
70 8
71 8
72 10
73 10
74 5
75 8
76 8
77 8
78 6
79 10
80 6
81 9
82 7
83 9
84 10
85 6
86 9
87 6
88 10
89 5
90 9
91 8
92 5
93 5
94 5
95 10
96 5
97 8
98 6
99 6
100 10
101 6
102 5
103 10
104 7
105 9
106 5
107 8
108 8
109 6
110 5
111 6
112 5
113 6
114 6
115 7
116 8
117 6
118 6
119 10
120 7
121 10
122 8
123 7
124 6
125 7
126 10
127 9
128 8
129 8
130 10
131 10
132 6
133 10
134 7
135 6
136 9
137 8
138 9
139 6
140 9
141 10
142 10
143 7
144 8
145 6
146 9
147 7
148 8
149 7
150 9
151 9
152 8
153 6
154 7
155 8
156 9
157 7
158 5
159 7
160 6
161 6
162 5
163 6
164 6
165 10
166 5
167 5
168 7
169 7
170 9
171 10
172 6
173 10
174 9
175 6
176 6
177 9
178 9
179 6
180 8
181 5
182 9
183 8
184 10
185 5
186 6
187 6
188 8
189 7
190 6
191 9
192 6
193 7
194 8
195 6
196 10
197 9
198 6
199 7
200 5
201 6
202 6
203 10
204 5
205 9
206 6
207 8
208 9
209 10
210 6
211 10
212 5
213 10
214 7
215 6
216 6
217 6
218 9
219 10
220 10
221 6
222 9
223 6
224 8
225 6
226 9
227 7
228 9
229 5
230 7
231 10
232 9
233 10
234 9
235 7
COVERAGE_SECTION
2 9 245 58 72 156 65 161 287 219 171 
3 9 112 256 83 258 281 247 399 116 277 
4 9 376 425 426 338 297 431 191 357 423 
5 9 422 417 176 386 407 355 392 138 278 
6 9 433 325 206 362 202 312 79 356 412 
7 9 91 48 168 92 89 260 265 211 134 
8 9 289 215 468 241 474 475 263 63 296 
9 8 465 473 347 254 466 414 489 61 
10 9 120 196 45 111 129 194 82 220 98 
11 9 14 80 252 228 455 29 23 234 174 
12 9 231 70 137 74 25 20 41 251 205 
13 9 99 269 56 218 78 207 134 18 201 
14 9 80 252 11 455 228 234 174 29 73 
15 9 40 150 22 38 57 159 209 175 136 
16 9 403 267 167 224 51 164 64 110 115 
17 9 203 104 187 184 213 73 174 44 118 
18 9 78 99 227 56 190 269 13 178 71 
19 9 213 184 187 73 307 234 288 455 358 
20 9 41 70 231 265 12 251 57 48 25 
21 9 263 119 203 468 291 44 475 215 8 
22 9 57 15 150 40 209 251 102 38 159 
23 9 29 246 253 282 118 154 174 252 104 
24 9 225 313 380 487 320 463 306 379 382 
25 9 284 70 251 53 102 12 137 217 231 
26 9 232 250 189 179 47 170 192 280 123 
27 9 271 122 242 298 383 149 141 98 47 
28 5 367 450 435 326 302 
29 9 23 253 246 282 252 14 33 80 118 
30 9 353 478 146 345 368 471 166 180 173 
31 9 152 96 217 153 102 53 268 128 172 
32 9 372 274 39 458 188 340 461 132 275 
33 9 253 200 144 148 282 29 23 246 65 
34 9 130 171 92 287 133 156 168 265 2 
35 9 67 257 366 388 415 324 312 460 418 
36 9 205 76 74 285 137 227 88 18 56 
37 9 175 159 153 165 150 268 40 38 31 
38 9 40 150 15 159 175 136 69 37 22 
39 9 274 461 32 372 437 386 387 355 188 
40 9 150 38 15 159 175 22 37 57 136 
41 9 20 265 70 231 12 251 57 48 171 
42 9 63 296 44 187 241 289 351 8 468 
43 9 169 255 161 279 133 154 276 245 283 
44 9 63 42 203 263 468 21 289 296 187 
45 9 111 220 248 10 221 291 129 119 295 
46 9 272 438 114 266 262 75 365 447 109 
47 9 123 170 194 232 122 26 27 179 189 
48 9 7 265 91 218 41 20 269 92 168 
49 9 382 494 320 463 448 404 313 225 379 
50 9 485 142 308 230 103 304 163 216 337 
51 9 164 115 127 64 261 16 267 403 87 
52 9 354 297 338 470 95 426 61 376 349 
53 9 284 217 102 128 152 25 96 31 251 
54 7 337 151 55 341 223 239 344 
55 8 344 476 346 444 305 54 333 223 
56 9 269 218 99 13 78 18 205 134 207 
57 9 22 209 15 150 251 40 219 102 20 
58 9 156 2 219 287 72 171 65 209 245 
59 9 198 168 92 130 89 260 158 236 283 
60 9 360 140 401 477 418 482 406 424 415 
61 7 466 349 254 465 52 426 9 
62 9 132 275 108 280 340 189 162 85 179 
63 9 42 296 44 241 289 187 468 8 351 
64 9 261 51 127 115 164 16 267 272 97 
65 9 72 2 245 148 144 244 58 286 156 
66 9 454 160 384 429 319 481 84 81 335 
67 9 35 257 388 366 460 324 318 312 328 
68 9 94 105 449 126 405 143 439 343 292 
69 9 136 212 286 38 244 15 40 150 159 
70 9 12 231 25 20 41 251 137 284 74 
71 9 190 178 227 18 83 285 116 78 155 
72 9 65 2 58 156 245 244 219 286 148 
73 9 184 213 174 19 455 187 252 234 17 
74 9 137 205 36 12 231 76 70 56 269 
75 9 447 438 262 481 46 454 272 395 66 
76 9 36 285 227 205 88 18 74 116 78 
77 9 480 416 394 177 141 149 396 117 440 
78 9 18 99 56 13 269 178 227 190 218 
79 9 121 412 377 356 202 362 135 491 430 
80 9 14 252 11 455 228 234 174 73 29 
81 6 335 429 469 321 323 319 
82 9 98 443 394 141 235 480 242 383 149 
83 9 258 116 3 112 71 256 88 399 285 
84 9 160 384 113 66 266 429 290 454 365 
85 9 162 340 188 62 108 125 132 139 275 
86 9 428 336 462 322 310 316 352 293 472 
87 9 124 193 301 157 164 387 115 51 127 
88 9 116 285 76 258 227 36 83 71 205 
89 9 260 91 211 168 249 7 92 59 273 
90 8 339 492 483 430 419 442 135 491 
91 9 211 7 89 134 260 201 207 168 48 
92 9 168 59 130 7 198 34 89 260 91 
93 8 237 238 185 471 373 451 345 368 
94 9 68 405 449 126 105 439 343 496 186 
95 9 470 338 354 359 297 52 357 376 4 
96 9 152 31 217 128 53 153 172 268 102 
97 9 370 261 208 395 447 262 64 427 493 
98 9 82 141 394 242 383 443 480 235 149 
99 9 13 56 78 269 218 18 207 134 181 
100 7 329 432 479 361 421 389 375 
101 9 259 222 490 459 342 385 484 352 310 
102 9 217 284 251 53 31 152 96 25 22 
103 9 308 363 50 216 292 304 485 142 230 
104 9 118 174 17 246 73 279 184 23 213 
105 9 68 94 292 143 363 126 449 405 351 
106 9 311 324 388 416 257 117 328 467 67 
107 9 110 398 167 109 250 114 192 365 267 
108 9 280 62 189 179 132 275 139 264 162 
109 9 365 290 266 398 114 46 84 107 160 
110 9 107 167 192 224 398 250 458 267 403 
111 9 45 248 220 291 129 119 221 10 295 
112 9 3 256 83 258 281 247 399 116 277 
113 9 84 384 160 204 488 66 429 323 290 
114 9 272 46 398 365 438 266 109 262 75 
115 9 127 164 51 261 64 87 124 16 193 
116 9 258 88 83 285 227 71 76 190 3 
117 9 393 416 311 411 106 434 480 77 49 
118 9 104 246 174 279 154 17 23 29 282 
119 9 291 21 248 263 475 221 111 468 45 
120 9 196 194 10 236 123 129 47 273 158 
121 9 79 377 412 356 430 442 135 491 202 
122 9 27 271 242 383 298 47 149 123 98 
123 9 47 170 194 232 122 120 26 179 273 
124 9 193 87 301 387 157 164 115 51 16 
125 9 229 139 226 210 162 85 264 108 155 
126 6 405 343 94 68 439 496 
127 9 115 51 164 261 64 87 16 124 97 
128 9 96 53 152 217 31 284 102 172 268 
129 9 158 111 236 45 196 10 120 119 291 
130 9 133 198 92 59 283 34 168 276 43 
131 8 315 138 183 397 392 489 414 417 
132 9 275 62 340 108 188 280 372 458 162 
133 9 130 43 255 283 276 169 34 161 279 
134 9 207 201 211 91 13 99 210 89 260 
135 9 491 339 483 79 121 430 377 412 433 
136 9 69 38 212 286 40 15 244 150 159 
137 9 74 12 231 205 70 36 25 76 20 
138 9 315 417 131 392 489 414 347 183 5 
139 9 229 226 125 264 108 210 162 280 85 
140 9 401 360 477 60 418 415 366 482 406 
141 9 149 383 394 98 242 480 298 77 82 
142 9 485 230 50 163 308 304 337 484 103 
143 9 105 68 449 94 103 363 308 292 439 
144 9 148 200 65 33 282 245 72 161 244 
145 7 186 381 496 294 439 375 389 
146 9 478 471 353 30 345 368 238 185 451 
147 9 278 85 162 390 138 188 315 5 417 
148 9 144 200 65 33 244 72 245 282 286 
149 9 298 383 141 242 271 77 27 177 98 
150 9 40 15 38 159 22 175 37 57 153 
151 9 239 304 223 54 333 474 337 216 55 
152 9 31 96 217 53 128 102 153 268 284 
153 9 268 37 165 175 159 172 31 152 96 
154 9 279 282 169 43 246 161 255 118 23 
155 9 181 178 210 190 125 71 78 18 99 
156 9 58 287 2 171 219 72 209 245 65 
157 9 301 387 124 87 193 274 39 243 164 
158 9 236 129 196 198 59 120 10 111 283 
159 9 175 37 150 40 153 38 165 15 31 
160 9 384 84 66 113 429 454 81 323 335 
161 9 245 169 255 43 2 154 279 282 65 
162 9 85 340 188 108 62 125 132 139 275 
163 9 230 342 142 484 485 101 259 50 222 
164 9 51 115 127 64 87 124 16 193 261 
165 9 153 268 37 172 175 159 31 152 96 
166 9 368 345 353 185 300 30 146 478 471 
167 9 224 403 267 110 16 192 398 107 458 
168 9 92 59 89 7 260 130 198 91 34 
169 9 43 255 161 279 154 133 245 282 276 
170 9 123 47 179 189 232 264 26 194 273 
171 9 287 156 58 219 265 34 209 2 41 
172 9 268 153 165 96 31 152 37 217 128 
173 8 180 314 240 317 486 451 478 30 
174 9 73 104 252 118 184 17 213 246 455 
175 9 159 37 153 150 40 165 38 268 15 
176 9 355 422 437 407 386 371 5 495 461 
177 9 396 440 77 149 416 141 298 480 383 
178 9 190 155 181 71 78 18 227 99 210 
179 9 189 280 264 108 170 232 26 62 226 
180 9 486 173 240 423 191 431 30 478 409 
181 9 155 178 210 190 78 125 71 99 18 
182 9 199 436 195 413 233 410 288 330 228 
183 6 131 331 334 397 299 315 
184 9 213 19 73 187 17 455 174 307 234 
185 9 368 345 166 146 237 353 238 471 478 
186 7 145 439 496 381 449 294 375 
187 9 213 184 19 42 63 17 44 73 296 
188 9 340 132 372 275 85 162 32 62 278 
189 9 179 280 108 232 26 62 264 170 250 
190 9 71 178 227 18 78 155 181 285 116 
191 9 423 431 486 240 402 425 409 180 4 
192 9 458 250 224 110 167 275 132 372 26 
193 9 124 87 301 387 157 164 16 51 274 
194 9 123 120 47 196 10 122 170 27 273 
195 7 413 330 436 199 410 233 182 
196 9 120 236 10 194 129 158 249 273 123 
197 9 482 424 374 406 472 369 336 322 86 
198 9 59 130 92 168 283 158 276 133 236 
199 9 436 182 195 413 330 288 233 410 228 
200 9 148 144 33 244 65 212 286 72 253 
201 9 207 134 211 210 91 13 260 89 99 
202 9 356 412 362 79 377 420 121 214 445 
203 9 44 21 17 263 63 187 468 42 119 
204 5 488 323 113 348 384 
205 9 36 74 76 137 56 269 18 227 285 
206 9 325 6 312 418 366 362 415 433 460 
207 9 201 134 211 13 210 91 99 181 218 
208 6 427 493 395 370 447 481 
209 9 219 57 22 58 287 156 15 171 72 
210 9 125 229 201 207 226 139 181 155 134 
211 9 201 134 91 260 89 207 249 273 7 
212 9 286 244 69 136 65 72 148 200 144 
213 9 184 19 187 73 307 17 455 234 174 
214 9 445 350 456 356 377 412 420 442 121 
215 9 8 289 468 475 474 241 263 452 239 
216 9 304 363 103 292 151 474 50 308 239 
217 9 152 31 96 102 53 284 128 153 251 
218 9 269 56 99 13 78 18 205 134 48 
219 9 209 58 156 287 171 72 2 57 65 
220 8 45 111 295 248 221 235 443 444 
221 9 248 452 291 333 344 444 295 119 220 
222 9 459 101 352 310 259 490 462 270 385 
223 9 239 333 452 344 151 55 54 474 444 
224 9 167 403 458 192 16 110 267 32 372 
225 9 24 313 380 487 320 463 382 379 306 
226 9 229 139 264 125 210 108 179 280 189 
227 9 285 18 76 190 71 78 116 88 36 
228 9 234 455 288 182 199 80 14 252 436 
229 9 139 226 125 264 210 108 162 85 280 
230 9 142 485 163 50 308 342 484 304 337 
231 9 12 70 137 20 41 74 25 205 251 
232 9 26 250 189 47 179 170 123 122 280 
233 3 410 436 195 
234 9 455 288 228 307 19 199 182 413 73 
235 9 443 394 480 82 98 141 220 295 117 
236 9 158 196 129 120 10 198 249 59 273 
237 9 185 93 238 345 471 368 146 478 353 
238 9 471 146 478 451 345 373 368 185 353 
239 9 223 333 151 452 474 344 54 55 304 
240 7 486 180 173 191 423 431 317 
241 9 289 8 296 215 63 42 468 351 292 
242 9 383 298 149 271 27 141 98 122 82 
243 9 371 359 470 95 407 354 495 52 176 
244 9 286 212 65 72 148 69 200 144 136 
245 9 161 2 65 72 255 169 58 43 156 
246 9 23 118 29 154 282 104 279 174 253 
247 9 399 281 331 299 408 277 390 183 256 
248 9 221 291 111 45 119 220 452 295 475 
249 9 273 260 89 211 196 236 120 91 59 
250 9 26 192 232 458 189 110 280 179 107 
251 9 102 284 25 70 53 22 57 217 20 
252 9 80 14 455 174 11 73 228 234 29 
253 9 29 23 33 282 246 144 154 148 200 
254 6 466 465 9 61 349 473 
255 9 43 169 161 133 279 154 245 276 2 
256 9 3 112 281 247 399 83 258 408 299 
257 9 388 35 67 324 366 106 467 311 328 
258 9 83 116 88 3 112 285 71 256 227 
259 9 490 101 385 459 222 342 310 352 462 
260 9 89 211 249 91 168 273 59 7 92 
261 9 64 127 51 115 164 97 370 16 262 
262 9 438 447 75 272 46 395 481 370 114 
263 9 468 21 475 44 119 215 8 289 291 
264 9 226 139 179 229 189 108 280 170 125 
265 9 48 41 20 171 287 7 34 231 156 
266 9 365 46 109 438 84 114 272 160 290 
267 9 403 16 167 224 398 110 51 114 64 
268 9 172 153 165 31 96 37 152 175 159 
269 9 56 218 99 13 78 18 205 134 207 
270 5 352 310 316 222 428 
271 9 27 122 242 298 383 149 141 98 82 
272 9 46 438 114 262 75 266 447 365 398 
273 9 249 260 170 211 89 123 120 196 264 
274 9 39 32 372 461 387 437 188 386 193 
275 9 132 62 340 108 188 280 372 458 162 
276 9 283 133 43 130 169 255 198 279 118 
277 9 399 390 247 183 315 71 331 83 147 
278 9 147 5 386 138 417 188 355 315 422 
279 9 154 169 43 255 282 118 161 246 276 
280 9 108 189 62 179 132 275 264 139 250 
281 8 247 256 408 299 331 399 3 93 
282 9 154 279 246 161 253 144 23 169 29 
283 9 276 133 130 198 43 255 169 279 59 
284 9 53 25 102 251 217 152 31 96 70 
285 9 227 76 88 116 36 18 71 258 190 
286 9 212 244 69 72 65 136 148 200 219 
287 9 171 156 58 219 209 2 34 72 265 
288 9 234 307 199 413 228 195 436 182 330 
289 9 8 241 215 468 63 296 263 42 474 
290 9 109 365 84 266 440 113 396 160 384 
291 9 119 248 221 475 21 263 111 45 452 
292 9 363 216 103 105 351 241 68 304 289 
293 4 336 316 86 428 
294 7 375 389 381 145 496 329 432 
295 8 444 305 391 464 220 306 221 434 
296 9 42 63 241 351 289 44 8 187 468 
297 9 338 376 354 52 426 95 4 470 357 
298 9 149 383 242 271 27 141 122 98 440 
299 5 331 408 334 183 397 
300 9 166 185 368 345 353 30 146 478 237 
301 9 157 387 124 193 87 164 274 39 461 
302 7 450 326 28 367 182 233 410 
303 3 492 90 441 
304 9 151 216 50 485 142 54 337 103 239 
305 8 444 391 476 464 346 380 55 487 
306 9 434 464 380 411 391 24 225 313 463 
307 9 358 288 453 457 19 413 234 330 195 
308 9 50 103 485 142 230 304 363 216 163 
309 8 369 374 404 327 448 467 197 336 
310 8 352 462 428 459 222 270 86 316 
311 9 106 324 117 416 388 467 393 327 257 
312 9 460 318 206 366 325 67 446 35 415 
313 9 225 24 380 487 320 379 463 382 364 
314 5 317 173 451 373 240 
315 9 131 138 183 417 392 489 397 414 390 
316 4 270 293 428 86 
317 3 314 173 240 
318 7 460 446 312 67 348 328 420 
319 7 454 481 81 429 66 335 321 
320 9 463 382 49 313 225 494 24 411 379 
321 3 81 335 469 
322 9 472 462 400 406 86 424 428 310 197 
323 5 469 335 81 429 384 
324 9 388 106 257 311 67 328 35 467 348 
325 9 206 6 312 418 433 362 415 366 202 
326 4 367 28 233 302 
327 8 467 404 309 494 49 448 369 393 
328 7 348 324 388 460 67 318 257 
329 7 432 100 389 421 361 479 375 
330 8 195 413 436 457 199 410 233 358 
331 5 299 408 183 334 397 
332 6 364 487 379 346 313 24 
333 9 223 452 344 239 55 444 151 474 54 
334 4 397 183 299 331 
335 5 81 429 469 323 321 
336 6 86 293 374 428 369 197 
337 5 341 54 484 151 270 
338 9 297 376 354 95 52 426 4 470 357 
339 9 483 135 491 90 430 121 79 442 377 
340 9 132 275 188 62 372 162 85 108 32 
341 3 337 270 54 
342 9 101 259 163 484 490 222 459 385 352 
343 6 126 405 453 457 358 94 
344 8 55 333 444 223 452 476 305 239 
345 9 368 146 353 185 478 30 471 166 238 
346 7 476 487 332 55 364 305 380 
347 8 489 414 9 465 473 392 254 466 
348 6 328 318 460 446 488 204 
349 4 61 466 254 426 
350 6 214 442 445 419 430 377 
351 9 296 241 42 292 63 105 126 343 289 
352 8 310 270 222 459 462 428 316 86 
353 9 30 146 345 368 478 166 471 185 238 
354 9 52 297 470 338 95 426 376 359 61 
355 9 386 437 176 422 407 461 5 371 39 
356 9 412 377 202 121 79 214 445 420 442 
357 9 95 376 338 297 359 4 425 470 354 
358 7 453 457 307 330 343 413 195 
359 9 95 470 357 354 338 52 297 376 4 
360 9 60 140 401 477 418 415 482 406 424 
361 8 100 479 329 432 375 389 421 294 
362 9 433 202 6 79 356 412 121 377 206 
363 9 292 103 216 105 308 304 50 241 68 
364 5 332 379 487 313 24 
365 9 266 109 46 290 114 398 84 272 438 
366 9 415 35 418 67 312 257 206 388 460 
367 4 28 435 326 450 
368 9 345 353 185 146 166 30 478 471 238 
369 8 374 309 336 197 482 293 424 448 
370 9 97 395 447 208 262 493 427 75 438 
371 9 407 422 176 495 243 437 355 470 386 
372 9 32 274 340 188 39 132 275 458 461 
373 7 451 314 238 471 317 173 478 
374 8 369 197 336 482 424 309 406 86 
375 7 294 389 329 361 432 100 381 
376 9 4 338 297 426 425 357 95 354 52 
377 9 412 121 356 79 430 214 442 445 202 
378 6 479 361 100 329 435 421 
379 7 364 313 448 332 225 24 487 
380 9 24 225 313 487 306 464 391 434 320 
381 6 496 145 294 439 375 186 
382 9 320 463 49 494 313 225 24 411 434 
383 9 242 298 149 141 271 27 98 122 82 
384 9 160 84 113 66 429 81 323 335 454 
385 9 490 259 400 459 101 462 222 322 472 
386 9 355 437 176 461 422 5 407 371 39 
387 9 301 193 157 124 274 39 87 461 32 
388 9 257 324 67 35 106 311 328 366 467 
389 6 432 329 375 100 294 361 
390 9 277 315 399 183 138 247 131 331 299 
391 8 464 306 305 380 434 24 225 487 
392 9 489 347 417 414 9 131 465 138 473 
393 9 411 49 117 382 434 463 320 494 306 
394 9 480 443 141 235 77 98 82 149 383 
395 7 493 208 427 447 481 75 370 
396 9 440 177 77 149 290 113 416 298 204 
397 4 334 414 183 131 
398 9 114 107 109 365 110 46 167 267 266 
399 9 247 277 390 281 331 256 299 183 408 
400 9 472 322 406 462 385 424 482 197 86 
401 9 140 477 360 60 418 415 482 197 424 
402 9 409 425 191 423 431 486 4 180 376 
403 9 16 267 167 224 110 51 164 398 458 
404 8 494 327 309 49 448 467 382 320 
405 6 126 343 94 439 496 381 
406 9 424 472 482 197 322 400 374 462 86 
407 9 422 371 176 495 355 5 437 386 465 
408 5 299 331 334 183 397 
409 9 402 191 423 431 425 486 180 240 4 
410 3 233 436 195 
411 9 434 306 382 393 463 320 49 464 225 
412 9 356 377 121 79 202 214 445 430 442 
413 9 195 330 436 199 288 457 358 410 233 
414 7 489 347 473 9 392 465 397 
415 9 366 418 35 140 401 67 206 312 257 
416 9 117 77 106 311 177 480 324 394 393 
417 9 392 138 489 5 131 347 315 414 9 
418 9 415 366 140 401 206 325 360 35 60 
419 5 442 350 492 430 214 
420 7 456 445 446 214 356 202 412 
421 3 432 329 100 
422 9 407 176 371 355 5 386 495 437 417 
423 9 191 431 486 240 402 425 409 180 4 
424 9 406 482 197 472 322 400 374 86 336 
425 9 4 431 376 402 191 423 426 409 338 
426 9 4 297 338 376 349 52 354 61 425 
427 5 493 208 395 481 319 
428 8 86 462 310 322 336 316 352 293 
429 9 81 335 384 66 319 323 454 160 469 
430 9 442 377 121 419 412 350 356 79 214 
431 9 191 423 425 486 240 402 4 409 180 
432 5 329 100 389 421 361 
433 9 362 6 79 202 491 325 135 121 206 
434 9 306 411 464 380 463 24 225 320 382 
435 3 367 28 326 
436 8 199 195 413 182 233 410 330 288 
437 9 355 176 386 461 422 371 407 5 39 
438 9 46 75 262 272 447 266 114 481 365 
439 8 496 186 381 145 449 405 94 294 
440 9 396 177 290 149 77 298 113 141 84 
441 2 427 208 
442 9 430 350 419 377 214 121 445 412 356 
443 9 235 394 480 82 98 141 77 117 220 
444 8 305 344 476 55 295 391 346 464 
445 9 214 350 456 356 420 412 377 442 202 
446 6 420 318 460 456 202 312 
447 9 75 262 395 438 481 370 454 493 46 
448 6 379 494 49 320 382 404 
449 9 439 94 186 68 405 496 145 381 126 
450 6 302 28 367 326 435 233 
451 8 373 314 471 238 173 478 146 317 
452 9 333 223 239 344 475 474 221 55 151 
453 7 358 457 343 307 330 413 126 
454 7 481 319 66 429 81 75 160 
455 9 234 228 252 73 80 288 14 19 184 
456 6 420 445 214 446 356 350 
457 7 358 453 330 343 413 307 195 
458 9 192 224 372 250 32 275 132 110 167 
459 9 222 101 310 352 490 462 259 385 270 
460 8 318 312 446 67 328 348 420 35 
461 9 39 386 437 355 274 176 32 422 372 
462 9 322 310 428 86 352 472 459 400 222 
463 9 320 382 49 313 225 494 24 411 434 
464 8 391 306 380 434 24 225 305 411 
465 8 9 254 473 347 466 61 414 489 
466 6 254 61 349 465 9 473 
467 8 327 404 309 494 311 369 257 49 
468 9 263 8 215 289 475 241 21 44 63 
469 4 323 335 81 321 
470 9 95 354 52 359 297 338 376 357 426 
471 9 238 146 478 345 451 30 353 368 373 
472 9 322 406 400 424 462 197 482 86 428 
473 7 9 414 465 347 254 489 466 
474 9 239 215 475 223 452 8 151 333 216 
475 9 215 468 452 474 8 263 291 119 239 
476 7 346 305 55 487 444 332 380 
477 9 401 140 60 360 482 406 424 197 472 
478 9 146 30 471 353 345 238 368 173 451 
479 7 100 361 329 432 378 421 389 
480 9 394 443 77 141 235 98 82 117 416 
481 7 454 319 75 66 447 395 493 
482 9 197 424 406 374 472 322 369 400 336 
483 9 339 135 491 90 121 430 79 377 442 
484 9 101 222 342 270 459 163 352 259 310 
485 9 142 230 50 308 163 304 103 337 484 
486 8 180 240 423 191 431 173 409 402 
487 9 24 332 225 364 313 380 346 379 476 
488 5 204 323 113 348 469 
489 8 347 414 392 473 9 465 131 417 
490 9 259 101 385 459 222 342 462 310 352 
491 9 135 339 483 79 121 430 377 412 433 
492 4 419 90 442 430 
493 6 427 208 395 481 319 447 
494 8 49 404 382 320 448 463 379 327 
495 9 407 371 52 61 465 466 422 354 9 
496 6 381 145 439 294 186 375 
DEPOT_SECTION
   1
   -1
EOF
