NAME :  X-n513-kX-w51-c11.cctp
COMMENT : 	Adapted by Maziero, Usberti and Cavellucci from the Uchoa, Pecin, Pessoa, Poggi, Subramanian, and Vidal (2013)
TYPE :  CCTP
DIMENSION :    311
EDGE_WEIGHT_TYPE : 	EUC_2D	
CAPACITY : 	142
VERTICES_WITHIN_COVERAGE :  11
VERTICES_WITH_DEMAND : 	51
NODE_COORD_SECTION
1 500 500
2 425 323
3 806 514
4 853 637
5 326 818
6 601 664
7 680 704
8 358 401
9 688 267
10 146 846
11 171 615
12 962 75
13 710 565
14 662 574
15 665 599
16 112 811
17 439 69
18 573 69
19 997 647
20 338 524
21 626 29
22 633 570
23 957 890
24 746 397
25 224 83
26 425 827
27 787 99
28 518 378
29 890 763
30 860 608
31 683 188
32 417 680
33 483 987
34 676 197
35 294 710
36 284 281
37 568 565
38 942 896
39 223 358
40 538 428
41 910 702
42 550 516
43 524 467
44 675 128
45 977 488
46 725 890
47 205 512
48 768 660
49 443 407
50 518 363
51 730 609
52 973 64
53 683 832
54 308 298
55 510 14
56 713 483
57 502 147
58 38 76
59 265 477
60 446 909
61 849 738
62 334 250
63 683 28
64 502 235
65 513 433
66 850 764
67 465 213
68 854 966
69 491 477
70 916 597
71 999 146
72 892 989
73 734 581
74 232 386
75 538 431
76 697 331
77 557 181
78 162 281
79 819 403
80 783 931
81 562 627
82 995 892
83 135 789
84 117 954
85 911 834
86 175 386
87 296 128
88 379 78
89 567 526
90 809 171
91 389 7
92 772 308
93 322 894
94 935 730
95 24 791
96 258 823
97 884 523
98 763 576
99 498 330
100 978 797
101 174 25
102 314 61
103 618 247
104 402 994
105 491 870
106 563 291
107 376 831
108 448 343
109 352 424
110 351 829
111 560 60
112 914 981
113 835 298
114 983 778
115 305 670
116 677 546
117 701 632
118 593 635
119 170 268
120 805 891
121 989 313
122 419 48
123 758 526
124 472 66
125 419 642
126 522 581
127 763 327
128 736 892
129 220 35
130 620 463
131 87 942
132 684 692
133 264 440
134 171 385
135 727 988
136 228 622
137 529 231
138 789 316
139 577 949
140 91 33
141 415 835
142 323 299
143 987 269
144 818 672
145 929 654
146 917 999
147 584 19
148 73 17
149 305 771
150 327 985
151 468 340
152 692 921
153 822 44
154 441 883
155 799 15
156 409 285
157 921 912
158 185 815
159 11 860
160 934 42
161 162 143
162 116 639
163 185 898
164 644 943
165 501 86
166 163 620
167 633 133
168 948 742
169 691 976
170 252 718
171 371 447
172 545 965
173 227 60
174 30 899
175 398 274
176 646 981
177 764 475
178 715 67
179 342 496
180 911 52
181 309 177
182 596 454
183 977 808
184 181 471
185 484 988
186 796 913
187 178 219
188 524 516
189 954 1
190 722 654
191 518 137
192 433 330
193 939 901
194 595 961
195 951 404
196 715 956
197 713 616
198 460 949
199 406 772
200 189 916
201 924 598
202 609 662
203 189 622
204 758 634
205 739 645
206 631 577
207 782 596
208 328 752
209 228 334
210 432 519
211 131 872
212 610 626
213 297 531
214 728 700
215 753 510
216 591 648
217 263 861
218 700 602
219 687 608
220 576 520
221 619 668
222 689 614
223 273 795
224 670 622
225 37 884
226 565 629
227 961 754
228 548 608
229 735 499
230 267 712
231 719 490
232 218 615
233 186 516
234 610 659
235 421 630
236 572 520
237 573 664
238 589 737
239 732 501
240 118 871
241 764 912
242 383 717
243 270 682
244 235 557
245 410 622
246 789 712
247 46 784
248 411 768
249 175 561
250 606 451
251 453 855
252 600 675
253 802 569
254 579 361
255 614 547
256 695 617
257 650 520
258 365 805
259 308 730
260 640 776
261 643 616
262 582 522
263 678 545
264 565 565
265 411 449
266 774 557
267 240 552
268 699 606
269 723 565
270 676 382
271 181 846
272 332 761
273 123 806
274 622 737
275 886 668
276 130 804
277 429 696
278 337 809
279 161 642
280 76 787
281 458 725
282 233 529
283 659 593
284 777 565
285 170 895
286 149 566
287 279 673
288 269 700
289 427 710
290 428 661
291 674 700
292 665 706
293 231 527
294 146 811
295 161 286
296 662 668
297 748 588
298 171 610
299 321 708
300 502 561
301 687 567
302 102 614
303 730 598
304 303 683
305 642 718
306 780 648
307 212 489
308 777 609
309 527 562
310 649 760
311 437 708
DEMAND_SECTION
2 8
3 2
4 10
5 7
6 10
7 7
8 7
9 2
10 9
11 9
12 1
13 3
14 9
15 4
16 10
17 3
18 4
19 2
20 8
21 2
22 9
23 2
24 8
25 8
26 5
27 8
28 4
29 5
30 9
31 8
32 5
33 2
34 10
35 1
36 3
37 9
38 3
39 8
40 4
41 2
42 6
43 8
44 9
45 4
46 1
47 6
48 2
49 1
50 10
51 3
52 4
COVERAGE_SECTION
2 11 192 108 156 151 175 99 49 50 8 142 28 
3 11 123 215 266 253 177 284 229 98 239 97 207 
4 11 30 275 144 306 70 145 201 308 207 253 41 
5 9 278 110 258 149 107 272 223 208 96 
6 9 202 234 252 221 216 237 118 212 226 
7 8 291 132 292 296 305 214 310 190 
8 11 109 171 265 49 179 133 2 192 108 142 54 
9 11 76 34 103 31 92 127 138 270 106 44 24 
10 11 211 271 294 240 276 273 16 158 285 83 163 
11 9 298 166 203 279 232 249 286 136 162 
12 10 52 160 180 189 71 153 155 27 90 143 
13 11 269 301 73 116 218 263 303 268 297 51 14 
14 11 283 15 301 22 206 116 263 219 261 218 222 
15 9 283 219 224 14 222 261 218 256 268 
16 8 273 276 83 294 280 10 240 211 
17 11 122 124 88 165 91 55 57 191 111 102 18 
18 11 111 147 21 165 55 191 167 124 57 77 63 
19 11 145 201 70 41 94 168 227 275 114 30 4 
20 2 179 213 
21 11 147 63 18 111 178 167 44 55 165 191 124 
22 10 206 14 255 283 15 261 116 263 257 301 
23 11 38 193 82 157 85 183 100 112 114 146 72 
24 11 127 270 79 177 76 56 138 92 231 229 239 
25 11 173 129 101 87 161 102 181 140 187 88 148 
26 10 141 251 107 154 199 248 258 110 105 60 
27 10 153 90 178 155 44 63 180 31 34 160 
28 11 50 99 40 65 75 151 254 108 49 43 106 
29 11 66 61 94 168 41 227 85 100 114 275 183 
30 11 4 70 201 275 253 144 207 145 308 97 306 
31 11 34 44 167 9 103 178 77 90 27 76 92 
32 7 277 290 289 311 125 235 242 
33 10 185 198 172 104 60 139 154 194 105 251 
34 11 31 44 9 103 167 77 76 90 178 92 106 
35 10 259 230 288 299 304 243 287 115 170 208 
36 11 54 142 62 209 39 181 175 119 74 78 187 
37 11 264 89 309 236 262 220 228 126 255 42 81 
38 11 193 23 157 82 85 112 183 100 72 146 68 
39 9 209 74 86 134 133 295 36 78 54 
40 11 75 65 43 28 182 50 69 250 254 42 130 
41 11 94 275 145 168 29 61 227 4 66 144 19 
42 11 89 236 188 220 262 264 309 37 43 300 69 
43 11 69 65 75 40 188 42 236 89 182 220 262 
44 11 167 31 34 178 63 21 27 18 77 103 111 
45 10 195 97 201 70 19 30 3 145 121 79 
46 11 128 152 241 196 80 53 186 120 169 164 135 
47 8 233 307 293 282 184 267 244 249 
48 11 306 204 205 190 144 308 246 214 51 207 197 
49 11 265 108 151 65 192 28 171 8 69 2 50 
50 11 28 99 151 254 40 65 75 108 106 49 192 
51 11 303 197 73 297 218 268 256 117 205 204 222 
52 10 12 160 180 189 71 153 155 27 90 143 
53 8 260 46 128 310 152 274 241 164 
54 11 142 36 62 209 175 156 39 8 74 2 181 
55 11 124 111 165 147 18 17 122 21 91 191 57 
56 10 231 239 229 215 177 123 263 116 257 13 
57 11 191 165 77 67 124 64 137 17 18 111 122 
58 8 140 148 161 101 25 129 173 187 
59 8 133 307 293 282 213 47 179 267 
60 11 154 198 251 105 141 26 33 185 104 107 172 
61 11 66 29 246 41 144 275 94 168 4 48 227 
62 11 142 54 36 175 181 156 2 192 87 209 67 
63 11 178 21 147 44 167 18 155 27 111 153 31 
64 11 137 67 77 106 57 99 191 156 151 175 2 
65 11 40 75 43 69 28 50 49 188 182 42 250 
66 11 61 29 246 41 94 85 144 168 275 227 4 
67 11 64 137 57 156 175 191 77 2 192 99 106 
68 11 72 112 146 80 186 157 120 241 193 38 23 
69 10 43 65 188 75 40 42 210 49 265 300 
70 11 201 30 145 4 275 97 19 41 253 144 45 
71 8 12 52 160 143 180 189 121 90 
72 11 112 146 68 157 193 38 23 186 80 120 82 
73 11 297 303 269 51 13 98 218 197 268 284 266 
74 8 39 209 86 134 133 59 184 307 
75 11 40 65 43 28 182 69 50 250 254 42 188 
76 11 270 9 127 92 24 138 103 254 34 106 79 
77 11 137 191 57 64 103 167 67 106 165 18 34 
78 7 295 119 187 209 39 134 86 
79 9 24 177 138 127 92 113 3 215 229 
80 11 186 241 120 128 46 196 68 135 152 169 72 
81 7 226 228 118 216 237 212 6 
82 11 23 38 193 157 183 100 85 114 112 146 72 
83 4 276 273 294 16 
84 11 131 285 200 211 240 163 174 225 10 271 159 
85 11 38 183 23 193 29 100 157 114 66 227 168 
86 5 134 39 74 209 184 
87 11 181 102 25 88 173 129 62 161 122 187 36 
88 11 122 17 102 91 124 87 181 165 57 55 191 
89 11 236 220 262 42 37 264 188 255 309 126 43 
90 9 27 31 153 113 34 178 44 92 138 
91 11 122 88 17 102 124 55 165 87 173 129 111 
92 8 138 127 113 76 9 24 79 270 
93 7 217 110 5 107 278 150 96 
94 11 168 227 41 29 114 145 275 100 61 183 66 
95 5 247 280 159 16 225 
96 5 223 217 5 149 158 
97 11 3 70 201 30 253 45 266 284 4 207 123 
98 11 284 297 266 207 73 308 253 303 269 51 123 
99 11 151 50 28 108 192 2 106 254 49 64 156 
100 11 183 114 227 168 85 94 29 23 82 38 193 
101 11 129 173 25 140 148 161 58 102 87 187 181 
102 11 88 87 173 91 25 129 122 181 17 101 124 
103 11 106 9 34 31 77 137 76 167 64 254 44 
104 8 198 150 33 185 60 154 93 172 
105 7 251 154 60 26 141 198 172 
106 11 137 103 254 99 64 50 28 151 77 67 108 
107 10 110 258 141 278 26 5 199 248 251 93 
108 11 151 192 2 99 49 156 50 28 175 8 65 
109 10 8 171 265 179 133 49 20 59 213 192 
110 10 278 107 5 258 141 93 272 26 149 199 
111 11 18 147 165 55 21 124 191 167 57 17 77 
112 11 146 72 68 157 193 38 23 82 186 80 120 
113 6 138 92 127 79 90 24 
114 11 100 183 227 168 94 85 29 41 23 82 38 
115 4 304 287 243 35 
116 11 263 301 14 257 13 22 269 283 15 206 218 
117 9 256 197 222 268 219 190 218 224 51 
118 10 216 212 226 234 6 202 81 237 252 221 
119 7 78 295 187 209 39 36 134 
120 11 186 80 241 128 46 68 196 152 157 85 135 
121 6 143 195 113 71 45 79 
122 11 17 88 91 124 165 55 102 57 191 111 87 
123 11 215 229 266 239 284 3 98 177 269 231 73 
124 11 17 165 122 55 191 57 111 88 18 91 147 
125 4 235 290 245 32 
126 5 309 300 228 264 37 
127 9 92 138 76 24 113 79 9 270 177 
128 11 46 241 152 80 186 196 120 53 169 135 164 
129 11 173 101 25 102 87 161 140 148 88 181 91 
130 10 250 182 257 262 220 236 89 255 42 75 
131 11 84 174 225 240 211 285 200 163 159 10 16 
132 8 7 291 292 296 214 305 190 117 
133 8 59 74 307 109 184 39 47 293 
134 4 86 39 74 209 
135 11 196 169 152 80 176 241 164 128 46 186 120 
136 3 232 203 11 
137 11 64 77 67 106 57 103 191 99 151 50 156 
138 8 92 127 113 24 79 76 9 270 
139 10 194 172 164 176 33 185 105 169 198 152 
140 10 148 58 101 129 161 173 25 187 102 87 
141 11 26 107 251 154 258 110 199 248 60 278 105 
142 11 54 36 62 175 156 209 2 8 192 39 181 
143 6 121 71 195 113 12 90 
144 11 306 4 246 48 275 204 61 308 30 205 207 
145 11 275 41 201 70 19 94 4 30 168 227 144 
146 11 112 72 68 157 193 38 23 82 186 80 120 
147 11 21 111 18 55 63 165 124 167 191 178 44 
148 10 140 58 101 129 161 173 25 187 102 87 
149 8 272 208 223 259 278 5 35 299 
150 8 104 93 198 217 60 154 200 33 
151 11 108 99 192 2 50 28 49 156 175 65 106 
152 11 196 46 128 164 169 241 135 176 53 80 186 
153 11 155 27 180 178 160 90 189 63 12 52 44 
154 11 60 251 105 141 26 198 107 110 258 33 185 
155 11 153 27 178 63 180 160 90 189 44 12 21 
156 11 175 2 192 108 151 62 142 67 99 54 64 
157 11 193 38 23 112 82 85 72 68 146 120 183 
158 5 271 294 10 83 276 
159 10 225 174 95 247 280 240 16 131 211 273 
160 10 180 12 52 189 153 71 155 27 90 178 
161 10 187 25 173 101 129 119 140 87 78 58 
162 5 302 279 166 11 298 
163 10 285 200 271 211 10 240 158 217 84 294 
164 10 176 194 152 169 139 196 135 46 172 128 
165 11 124 191 57 17 111 55 18 122 147 77 88 
166 9 11 298 279 203 162 232 286 249 302 
167 11 44 31 34 18 77 111 21 178 103 191 63 
168 11 94 227 114 41 29 100 183 145 275 61 85 
169 11 196 135 176 152 164 46 128 194 241 80 139 
170 4 230 288 243 35 
171 10 109 265 8 179 49 20 210 133 59 213 
172 10 139 194 185 33 198 164 176 105 60 154 
173 11 25 129 101 102 87 161 140 181 88 148 187 
174 11 225 159 131 240 84 211 95 247 16 280 10 
175 11 156 2 192 62 142 108 67 54 151 64 36 
176 10 164 169 194 196 139 152 135 172 46 128 
177 11 215 229 239 231 123 56 3 24 266 79 284 
178 11 63 44 27 21 155 167 153 31 34 90 147 
179 6 20 171 213 109 59 265 
180 10 160 12 52 189 153 155 71 27 90 178 
181 11 87 62 36 102 54 88 142 25 175 187 173 
182 10 250 130 75 40 220 262 236 43 42 89 
183 11 100 114 227 85 168 23 82 94 38 29 193 
184 3 307 233 47 
185 10 33 198 172 104 60 139 154 194 105 251 
186 11 80 120 241 128 46 68 196 135 152 72 169 
187 7 119 78 295 161 36 209 181 
188 10 42 89 309 236 43 300 69 220 262 264 
189 10 160 52 180 12 153 71 155 27 90 178 
190 10 205 117 197 204 48 51 214 256 222 268 
191 11 57 165 77 124 18 111 67 137 64 17 167 
192 11 2 108 151 156 99 175 49 50 28 8 142 
193 11 38 23 157 82 85 112 72 146 183 68 100 
194 10 139 172 164 176 169 152 185 33 196 135 
195 7 45 121 79 97 143 113 3 
196 11 169 135 152 241 46 128 80 164 176 186 120 
197 11 268 51 256 218 117 222 303 219 190 205 73 
198 10 60 33 185 154 104 105 172 251 139 141 
199 6 248 258 26 242 141 289 
200 9 163 285 271 211 84 10 240 217 158 
201 11 70 145 30 275 4 97 19 41 45 253 144 
202 8 234 6 221 252 216 118 212 237 
203 7 11 298 166 232 279 136 249 
204 11 205 306 48 308 51 190 207 303 297 197 117 
205 11 190 204 48 51 197 117 306 303 256 308 214 
206 8 22 14 283 255 15 261 212 116 
207 11 308 98 284 253 297 266 204 73 303 306 51 
208 6 272 149 259 299 35 278 
209 10 39 74 86 134 36 295 78 54 119 142 
210 7 69 265 300 188 179 20 171 
211 11 240 10 285 271 163 294 16 273 276 200 158 
212 6 118 216 234 261 202 6 
213 4 20 179 267 59 
214 11 132 190 7 291 205 48 246 292 204 117 296 
215 11 123 229 239 177 231 56 266 3 284 269 98 
216 10 118 6 234 202 237 252 212 226 221 81 
217 8 96 223 93 5 271 163 278 158 
218 11 268 219 222 256 197 117 303 51 15 224 301 
219 9 222 256 268 218 224 15 197 117 283 
220 11 236 262 89 42 37 264 255 188 309 182 130 
221 8 202 234 6 252 216 118 212 296 
222 8 219 256 268 218 224 117 197 15 
223 4 96 149 5 278 
224 4 222 219 15 256 
225 11 174 159 131 240 95 211 247 16 280 84 10 
226 8 81 228 118 216 237 212 6 234 
227 11 168 114 94 100 183 29 41 85 145 66 19 
228 7 81 226 126 264 37 309 118 
229 11 239 231 215 56 123 177 269 266 13 3 263 
230 7 288 170 35 243 287 259 304 
231 11 56 239 229 215 177 123 263 116 257 269 13 
232 5 136 203 11 298 166 
233 7 47 307 184 249 293 282 286 
234 8 202 6 221 252 216 118 212 237 
235 4 125 245 290 32 
236 11 220 89 262 42 37 264 188 255 309 182 43 
237 10 216 6 252 118 202 226 234 81 221 212 
238 6 274 305 252 260 310 6 
239 11 229 231 215 56 123 177 269 13 263 266 116 
240 11 211 10 285 16 273 294 271 276 163 131 225 
241 11 80 186 128 46 120 196 152 135 169 68 53 
242 2 289 32 
243 6 287 288 230 304 35 115 
244 5 267 282 293 47 232 
245 4 235 125 290 32 
246 11 144 48 214 61 306 66 204 205 190 4 308 
247 4 95 280 16 273 
248 6 199 242 258 289 26 281 
249 8 286 233 298 11 47 166 244 203 
250 10 182 130 75 40 220 262 236 257 43 89 
251 10 154 26 105 141 60 107 198 199 248 258 
252 9 6 202 234 221 216 237 118 212 226 
253 11 284 266 207 98 308 3 297 123 73 30 215 
254 11 50 28 106 40 75 99 250 182 65 270 130 
255 11 22 206 262 257 220 37 236 89 264 14 116 
256 9 222 219 268 117 218 197 224 15 51 
257 10 116 263 255 22 14 206 301 130 262 56 
258 8 107 110 278 5 199 272 141 248 
259 8 35 299 208 272 149 230 304 288 
260 7 310 274 305 238 53 292 7 
261 3 15 224 283 
262 11 220 236 89 42 255 37 264 188 257 309 182 
263 11 116 301 14 13 257 269 22 283 15 206 218 
264 11 37 309 89 126 220 228 236 262 42 255 81 
265 10 171 49 109 8 210 179 69 65 20 108 
266 11 284 98 253 123 207 297 73 215 269 308 3 
267 5 244 282 293 47 213 
268 10 218 219 256 222 197 117 51 303 224 15 
269 11 13 73 297 303 301 98 218 51 268 263 116 
270 10 76 24 130 250 254 127 56 182 9 231 
271 8 158 10 294 285 163 211 276 240 
272 7 208 149 259 278 299 258 5 
273 6 276 16 83 294 10 280 
274 8 305 238 310 260 292 291 252 7 
275 11 41 4 145 30 144 70 61 94 201 29 168 
276 5 273 83 294 16 10 
277 7 289 311 32 290 281 242 125 
278 8 5 110 258 107 272 149 208 223 
279 6 166 11 203 298 162 232 
280 6 247 16 273 95 276 83 
281 5 311 289 277 32 248 
282 6 293 267 244 47 307 233 
283 8 15 14 261 224 206 219 22 222 
284 11 266 98 253 207 297 123 308 73 269 303 3 
285 10 163 200 211 271 10 240 84 158 294 131 
286 7 249 298 11 166 233 302 203 
287 5 243 115 304 288 35 
288 7 230 243 170 35 287 304 115 
289 6 311 277 32 281 242 290 
290 7 125 32 235 277 245 311 289 
291 7 7 292 132 296 305 214 221 
292 9 291 7 132 305 296 274 310 221 214 
293 6 282 267 47 244 307 233 
294 7 276 273 83 16 10 158 271 
295 7 78 119 187 209 39 134 86 
296 4 132 291 292 7 
297 11 73 98 303 51 269 207 308 284 266 13 197 
298 9 11 166 203 279 232 249 286 136 162 
299 6 259 35 304 115 208 288 
300 6 309 126 188 264 37 42 
301 11 13 116 263 14 269 218 283 15 219 268 222 
302 6 162 166 279 286 11 298 
303 11 51 73 297 197 218 268 269 13 98 256 219 
304 6 115 287 35 299 243 288 
305 11 292 274 291 7 310 132 296 221 238 260 252 
306 11 48 204 308 205 144 207 190 51 246 297 303 
307 8 47 184 233 293 282 59 267 133 
308 11 207 204 98 297 306 284 51 253 303 73 48 
309 8 126 300 264 37 188 42 228 89 
310 8 260 274 305 292 7 238 291 132 
311 6 289 277 281 32 290 242 
DEPOT_SECTION
   1
   -1
EOF
