NAME :  X-n524-kX-w104-c7.cctp
COMMENT : 	Adapted by Maziero, Usberti and Cavellucci from the Uchoa, Pecin, Pessoa, Poggi, Subramanian, and Vidal (2013)
TYPE :  CCTP
DIMENSION :    436
EDGE_WEIGHT_TYPE : 	EUC_2D	
CAPACITY : 	125
VERTICES_WITHIN_COVERAGE :  7
VERTICES_WITH_DEMAND : 	104
NODE_COORD_SECTION
1 691 729
2 978 828
3 427 367
4 777 543
5 190 596
6 773 750
7 234 727
8 851 358
9 140 69
10 891 285
11 467 13
12 537 162
13 636 355
14 213 284
15 75 877
16 384 814
17 606 173
18 76 236
19 86 733
20 642 61
21 303 261
22 771 775
23 107 264
24 763 43
25 811 873
26 38 170
27 822 920
28 907 792
29 539 273
30 576 836
31 491 411
32 430 725
33 727 248
34 532 825
35 457 218
36 398 153
37 942 597
38 8 330
39 637 85
40 75 781
41 578 635
42 560 188
43 27 523
44 432 198
45 359 691
46 695 372
47 203 307
48 641 389
49 836 612
50 375 499
51 818 980
52 577 226
53 889 259
54 516 324
55 102 346
56 318 976
57 223 11
58 484 245
59 365 982
60 648 790
61 878 261
62 600 800
63 493 722
64 549 214
65 714 918
66 638 166
67 452 172
68 711 687
69 924 905
70 326 662
71 786 203
72 24 32
73 529 661
74 843 248
75 115 449
76 82 971
77 876 644
78 322 24
79 642 810
80 685 607
81 141 824
82 351 732
83 641 954
84 330 941
85 830 188
86 469 250
87 970 812
88 723 360
89 274 238
90 668 103
91 562 82
92 269 147
93 135 493
94 895 953
95 930 729
96 579 972
97 901 987
98 546 102
99 664 479
100 967 393
101 388 767
102 977 995
103 933 329
104 947 364
105 242 400
106 991 716
107 738 728
108 346 490
109 639 634
110 765 715
111 772 60
112 254 183
113 804 906
114 150 451
115 378 297
116 881 802
117 959 912
118 225 450
119 842 994
120 662 474
121 20 116
122 562 217
123 709 544
124 50 682
125 771 244
126 538 704
127 506 883
128 414 522
129 583 435
130 210 579
131 326 715
132 92 24
133 879 544
134 648 720
135 291 405
136 14 19
137 446 28
138 130 966
139 978 572
140 558 84
141 288 10
142 783 837
143 319 895
144 76 494
145 289 952
146 254 165
147 915 405
148 151 945
149 407 685
150 106 831
151 373 284
152 875 321
153 768 758
154 735 150
155 304 323
156 760 158
157 277 663
158 217 608
159 712 264
160 879 873
161 52 214
162 63 197
163 690 714
164 579 862
165 313 245
166 32 608
167 9 608
168 840 747
169 152 742
170 994 868
171 294 57
172 76 784
173 302 11
174 527 742
175 753 939
176 156 870
177 571 127
178 913 884
179 637 341
180 162 87
181 581 979
182 93 14
183 856 260
184 54 332
185 459 387
186 118 61
187 754 299
188 233 411
189 883 640
190 288 268
191 720 892
192 115 418
193 22 358
194 839 126
195 516 272
196 361 714
197 157 512
198 798 356
199 882 889
200 554 183
201 354 851
202 21 719
203 812 664
204 650 254
205 668 231
206 57 773
207 911 335
208 371 480
209 723 473
210 223 658
211 234 50
212 118 434
213 393 488
214 225 141
215 444 66
216 547 252
217 106 475
218 636 540
219 104 269
220 135 647
221 844 424
222 94 941
223 172 293
224 381 958
225 148 504
226 588 69
227 709 51
228 129 266
229 679 164
230 977 422
231 372 843
232 912 957
233 1000 521
234 743 716
235 838 43
236 649 346
237 144 771
238 454 383
239 553 361
240 419 490
241 482 77
242 967 302
243 556 701
244 484 665
245 972 422
246 297 676
247 476 864
248 978 988
249 340 827
250 675 391
251 832 207
252 465 723
253 289 259
254 281 611
255 752 271
256 539 782
257 25 72
258 772 963
259 724 627
260 791 367
261 375 323
262 0 91
263 385 995
264 132 510
265 488 274
266 403 745
267 456 817
268 313 773
269 486 256
270 657 8
271 256 745
272 668 922
273 528 298
274 153 272
275 303 733
276 814 649
277 352 306
278 187 498
279 115 362
280 857 350
281 663 898
282 222 391
283 846 792
284 461 617
285 290 396
286 292 402
287 781 370
288 582 192
289 506 792
290 638 178
291 755 124
292 654 335
293 917 986
294 277 98
295 986 960
296 66 850
297 623 623
298 602 913
299 674 0
300 125 625
301 937 264
302 430 671
303 171 691
304 374 862
305 407 938
306 284 116
307 939 702
308 155 256
309 504 293
310 770 501
311 764 790
312 702 683
313 525 835
314 379 711
315 140 264
316 597 673
317 657 752
318 798 514
319 679 437
320 843 272
321 708 837
322 55 768
323 664 373
324 103 28
325 841 826
326 47 539
327 530 354
328 924 776
329 477 784
330 69 282
331 371 110
332 309 154
333 234 333
334 61 527
335 104 132
336 711 178
337 47 755
338 357 66
339 332 541
340 860 711
341 817 206
342 853 658
343 440 187
344 603 576
345 438 190
346 857 282
347 169 702
348 461 299
349 878 549
350 252 181
351 714 846
352 196 92
353 780 638
354 724 171
355 650 937
356 353 961
357 505 953
358 801 374
359 239 74
360 718 26
361 325 941
362 0 789
363 461 432
364 330 888
365 391 542
366 548 841
367 965 772
368 61 446
369 215 324
370 181 749
371 562 764
372 678 70
373 985 664
374 678 370
375 118 587
376 913 258
377 548 391
378 669 600
379 735 621
380 474 67
381 615 218
382 854 798
383 390 924
384 768 589
385 4 303
386 43 400
387 525 257
388 673 778
389 850 158
390 593 392
391 123 233
392 935 921
393 130 687
394 394 334
395 765 405
396 625 734
397 540 408
398 358 553
399 903 236
400 64 121
401 11 847
402 758 962
403 981 723
404 36 659
405 539 348
406 506 458
407 762 62
408 173 89
409 96 995
410 982 670
411 593 42
412 256 579
413 706 808
414 373 748
415 260 698
416 538 250
417 348 539
418 952 444
419 84 185
420 320 795
421 168 346
422 857 379
423 84 839
424 901 930
425 637 820
426 297 973
427 61 140
428 804 298
429 795 51
430 979 294
431 492 157
432 324 520
433 285 618
434 672 535
435 306 601
436 832 980
DEMAND_SECTION
2 95
3 66
4 66
5 50
6 55
7 91
8 100
9 73
10 96
11 85
12 82
13 72
14 77
15 62
16 86
17 100
18 63
19 94
20 97
21 78
22 94
23 83
24 90
25 71
26 59
27 88
28 50
29 65
30 75
31 50
32 56
33 90
34 56
35 71
36 95
37 93
38 97
39 79
40 94
41 69
42 90
43 63
44 93
45 82
46 53
47 92
48 70
49 88
50 57
51 93
52 69
53 66
54 98
55 75
56 69
57 87
58 69
59 55
60 64
61 92
62 96
63 80
64 85
65 66
66 99
67 54
68 77
69 67
70 77
71 66
72 74
73 93
74 81
75 60
76 73
77 64
78 84
79 60
80 57
81 95
82 63
83 51
84 77
85 67
86 70
87 98
88 66
89 60
90 56
91 72
92 77
93 71
94 51
95 79
96 97
97 93
98 84
99 79
100 75
101 86
102 58
103 65
104 54
105 57
COVERAGE_SECTION
2 7 87 170 367 328 28 117 178 
3 7 238 185 394 261 363 348 31 
4 7 318 310 384 123 209 379 49 
5 7 130 158 412 210 300 375 220 
6 7 153 22 110 107 311 234 168 
7 5 271 415 370 275 210 
8 7 280 422 152 358 198 260 207 
9 7 186 180 408 324 352 132 182 
10 7 53 61 346 376 152 183 320 
11 7 137 380 215 241 140 91 98 
12 7 200 42 431 177 64 288 122 
13 7 179 236 292 323 48 374 250 
14 7 47 369 223 333 274 308 89 
15 7 296 423 150 222 401 176 81 
16 7 231 249 101 201 304 414 420 
17 7 288 290 66 381 42 200 177 
18 7 161 162 23 219 330 391 419 
19 7 337 322 40 206 172 124 393 
20 7 39 372 90 411 226 270 227 
21 7 253 190 165 89 155 277 151 
22 7 153 311 6 107 110 142 234 
23 7 219 228 315 391 18 330 274 
24 7 111 407 429 360 227 235 291 
25 7 113 142 27 325 160 199 382 
26 7 162 427 161 419 400 121 18 
27 7 113 25 51 436 258 199 175 
28 7 328 116 382 283 367 87 95 
29 7 387 216 195 416 273 309 265 
30 7 164 366 62 34 313 425 256 
31 7 363 185 238 397 406 377 327 
32 7 266 252 149 314 302 101 414 
33 7 159 255 125 187 205 336 71 
34 7 313 366 289 256 30 164 127 
35 7 44 86 345 343 58 67 269 
36 6 331 343 345 44 67 35 
37 7 139 189 349 373 77 133 410 
38 7 385 193 184 330 386 55 279 
39 7 20 90 372 226 411 91 177 
40 7 172 206 322 337 19 150 423 
41 7 316 297 73 109 344 243 126 
42 7 200 288 64 122 12 52 17 
43 7 326 334 144 368 166 167 217 
44 7 345 343 35 67 36 86 58 
45 7 196 314 131 82 70 149 414 
46 7 374 250 88 323 236 292 48 
47 7 369 14 223 333 421 274 308 
48 7 323 13 250 374 236 179 390 
49 7 276 342 77 189 203 353 384 
50 7 208 213 108 128 240 365 417 
51 7 436 119 258 27 402 113 175 
52 7 122 64 288 381 216 42 416 
53 7 61 376 10 399 183 346 74 
54 7 273 309 327 405 195 239 29 
55 7 279 184 421 330 192 219 386 
56 7 426 361 84 145 356 59 224 
57 7 211 141 359 173 171 352 408 
58 7 269 86 265 35 195 387 309 
59 6 263 356 224 56 84 361 
60 7 79 388 425 317 62 396 413 
61 7 53 183 10 346 376 399 74 
62 7 425 30 79 60 371 256 164 
63 7 252 174 126 244 32 329 243 
64 7 122 42 52 200 216 416 288 
65 7 191 175 272 281 402 355 351 
66 7 290 17 229 381 288 90 205 
67 7 343 345 44 431 35 36 58 
68 7 312 163 234 107 110 259 379 
69 7 392 178 424 117 199 232 160 
70 7 246 45 157 131 433 196 435 
71 7 341 125 85 251 156 354 74 
72 7 136 257 262 132 182 324 121 
73 7 126 244 243 41 316 63 174 
74 7 183 320 61 346 251 53 341 
75 7 212 217 192 114 93 368 144 
76 7 409 222 138 148 15 296 176 
77 6 189 342 49 276 203 340 
78 5 173 141 171 338 294 
79 7 425 60 62 388 317 413 30 
80 7 378 259 379 109 297 123 434 
81 4 150 176 237 423 
82 7 196 414 131 314 45 275 101 
83 7 355 272 298 281 96 181 65 
84 7 361 356 56 145 426 143 364 
85 7 251 341 389 71 74 194 156 
86 7 58 269 265 35 348 195 309 
87 7 2 367 328 170 28 116 403 
88 6 46 374 250 287 323 395 
89 7 253 190 21 165 112 350 14 
90 7 372 39 20 229 227 66 290 
91 7 140 98 226 177 411 39 241 
92 7 146 306 350 112 332 214 294 
93 7 225 264 197 217 114 75 278 
94 7 232 424 97 293 392 69 199 
95 7 307 328 403 367 106 28 340 
96 5 181 298 83 357 355 
97 7 293 232 94 424 119 436 392 
98 7 140 91 177 226 12 241 411 
99 6 120 319 434 209 218 123 
100 7 245 230 104 147 418 103 207 
101 7 414 266 16 82 314 32 196 
102 7 248 295 293 232 97 117 392 
103 7 207 104 242 430 152 10 301 
104 7 100 103 207 147 245 230 242 
105 7 188 282 285 135 286 118 333 
106 7 403 410 373 307 95 367 328 
107 7 234 110 6 153 68 163 22 
108 6 208 50 432 213 417 339 
109 7 297 378 80 316 41 344 312 
110 7 234 107 6 153 22 68 203 
111 7 407 24 429 227 360 291 235 
112 7 350 146 92 214 89 332 306 
113 7 27 25 175 258 142 402 51 
114 7 75 212 93 192 217 225 278 
115 6 151 261 277 394 155 21 
116 7 382 28 283 325 328 168 160 
117 7 392 69 178 295 170 424 232 
118 7 188 105 282 278 114 135 286 
119 7 436 51 97 94 293 27 258 
120 6 99 319 209 434 218 123 
121 7 262 257 400 427 26 72 335 
122 7 64 52 42 288 200 216 416 
123 7 434 80 4 378 209 218 384 
124 5 404 202 19 337 166 
125 7 255 33 71 187 341 159 428 
126 7 243 174 73 63 371 244 316 
127 4 247 313 366 34 
128 4 365 240 213 50 
129 4 390 397 377 48 
130 6 5 158 412 254 210 278 
131 7 275 82 196 45 246 70 314 
132 7 182 324 186 9 72 136 257 
133 4 349 49 37 318 
134 7 396 317 163 388 312 316 60 
135 3 286 285 105 
136 7 72 257 262 132 182 324 121 
137 7 11 215 380 241 338 331 78 
138 6 148 222 409 76 176 15 
139 6 37 233 373 410 133 349 
140 7 91 98 226 177 411 241 39 
141 7 173 78 171 57 211 359 294 
142 6 25 311 325 22 351 113 
143 7 364 361 84 201 145 304 249 
144 7 217 334 368 326 43 264 93 
145 6 426 56 361 84 143 356 
146 7 350 112 92 214 332 306 294 
147 6 104 100 418 245 230 422 
148 6 138 222 76 409 176 15 
149 7 302 314 32 45 196 266 252 
150 7 423 81 296 15 172 40 176 
151 6 115 277 261 394 165 21 
152 7 280 10 207 346 8 103 320 
153 7 6 22 311 107 110 234 168 
154 7 354 156 291 336 229 71 90 
155 5 277 190 21 253 261 
156 7 154 291 354 71 336 341 85 
157 7 246 415 433 70 254 210 435 
158 7 5 130 412 210 254 433 157 
159 6 33 255 187 205 125 204 
160 7 199 178 69 325 424 25 116 
161 7 162 18 419 26 330 391 23 
162 6 161 419 26 18 427 391 
163 7 312 68 134 107 317 234 388 
164 7 30 366 298 34 313 62 425 
165 7 21 253 190 89 151 277 155 
166 6 167 404 326 124 43 334 
167 6 166 404 326 124 43 334 
168 5 340 283 382 6 116 
169 6 237 370 347 303 393 19 
170 7 2 117 87 69 392 178 295 
171 6 78 294 141 173 359 211 
172 7 40 206 322 337 19 150 423 
173 6 141 78 171 211 338 57 
174 7 63 126 371 256 243 289 252 
175 7 402 258 65 191 113 27 51 
176 5 81 150 148 423 15 
177 7 98 140 91 12 17 200 226 
178 7 69 199 160 392 424 117 94 
179 7 236 13 292 323 48 374 250 
180 6 408 9 352 186 335 359 
181 6 96 83 298 357 355 272 
182 7 132 324 186 72 9 136 257 
183 7 74 320 61 346 53 10 399 
184 7 193 38 55 330 385 279 386 
185 6 238 3 31 363 327 394 
186 7 9 324 132 180 182 408 335 
187 6 255 428 159 33 125 88 
188 7 105 282 118 135 285 286 333 
189 7 77 342 49 276 37 203 340 
190 7 253 21 89 165 155 277 14 
191 6 65 351 321 175 281 272 
192 7 212 75 114 279 217 368 55 
193 7 38 184 386 385 55 330 279 
194 6 389 85 251 235 341 291 
195 7 387 29 309 265 273 416 269 
196 7 314 82 45 131 414 266 149 
197 7 225 264 93 278 114 217 75 
198 6 260 358 287 8 428 280 
199 7 160 178 69 424 392 94 27 
200 7 42 12 288 64 122 52 17 
201 6 231 304 249 364 16 143 
202 6 337 124 322 404 206 19 
203 6 276 342 353 49 77 340 
204 7 205 381 159 33 290 52 292 
205 7 204 159 381 33 290 229 336 
206 6 322 40 337 172 19 362 
207 7 103 152 104 10 280 8 242 
208 4 50 213 108 240 
209 5 310 319 99 120 123 
210 7 158 157 415 303 5 7 347 
211 7 359 57 352 171 294 141 408 
212 7 75 192 114 217 368 93 279 
213 5 50 208 240 128 108 
214 6 146 92 350 112 352 306 
215 7 380 137 241 11 331 338 36 
216 7 416 29 387 195 64 122 52 
217 7 75 93 144 212 264 114 225 
218 3 434 344 99 
219 7 23 228 315 330 391 18 274 
220 7 300 393 303 375 347 5 210 
221 3 422 8 358 
222 7 76 138 409 148 15 176 296 
223 7 274 47 308 14 315 228 369 
224 5 356 59 305 383 263 
225 7 197 93 264 278 217 114 75 
226 7 411 91 140 39 98 20 177 
227 7 360 372 407 24 299 111 90 
228 6 315 23 219 274 308 391 
229 7 336 66 290 354 154 90 205 
230 5 245 100 418 147 104 
231 6 304 201 16 249 364 420 
232 7 94 293 424 97 392 69 117 
233 6 139 418 37 230 245 133 
234 7 107 110 68 6 153 163 312 
235 3 429 111 24 
236 7 292 179 13 323 374 48 250 
237 5 169 370 81 19 172 
238 7 185 3 31 363 394 327 348 
239 7 405 327 377 397 390 54 273 
240 4 213 128 50 208 
241 7 380 215 137 11 98 140 91 
242 6 430 103 301 104 207 376 
243 7 126 73 174 316 371 63 41 
244 7 73 284 302 63 252 126 149 
245 5 230 100 418 147 104 
246 7 157 70 415 131 275 433 45 
247 4 127 267 313 34 
248 7 102 295 293 232 97 117 392 
249 5 201 231 420 16 304 
250 7 323 374 46 48 319 236 13 
251 7 341 85 74 71 389 183 320 
252 7 63 32 244 329 302 174 266 
253 7 190 21 89 165 155 277 14 
254 7 433 435 412 157 158 246 70 
255 6 187 125 33 159 428 71 
256 7 371 289 174 34 313 366 329 
257 7 262 72 121 136 400 427 132 
258 7 402 175 51 436 113 27 65 
259 7 379 80 353 384 312 68 378 
260 5 287 358 198 395 8 
261 6 394 115 277 151 3 155 
262 7 257 121 72 400 136 427 26 
263 4 59 224 356 305 
264 7 93 225 197 217 278 144 114 
265 7 269 309 195 58 86 348 387 
266 7 101 414 32 314 196 82 149 
267 6 329 247 289 313 16 34 
268 5 420 275 82 131 249 
269 7 58 86 265 195 387 309 35 
270 7 299 20 360 372 227 411 39 
271 4 7 415 275 268 
272 7 355 281 83 65 191 298 175 
273 7 309 29 54 195 387 265 416 
274 6 315 308 228 223 23 219 
275 6 131 268 82 271 415 246 
276 6 203 353 342 49 77 189 
277 6 115 261 151 394 155 21 
278 6 197 225 93 264 114 118 
279 7 55 421 192 184 212 386 75 
280 7 8 422 152 207 198 358 260 
281 7 272 355 65 191 83 298 351 
282 7 105 188 118 333 369 285 135 
283 6 382 325 116 168 28 22 
284 4 244 302 73 149 
285 4 286 135 105 188 
286 3 135 285 105 
287 5 260 358 198 395 88 
288 7 42 200 17 122 52 64 381 
289 7 329 256 34 313 174 267 371 
290 7 66 17 229 381 288 205 336 
291 7 154 156 354 407 111 336 24 
292 7 236 179 13 323 374 46 48 
293 7 97 232 94 424 102 248 392 
294 5 306 171 359 92 211 
295 7 248 102 117 392 232 293 69 
296 7 423 15 150 401 172 40 206 
297 7 109 41 344 378 316 80 218 
298 7 355 164 83 96 281 272 181 
299 7 270 360 227 20 372 411 39 
300 7 220 375 393 5 303 347 124 
301 6 376 399 53 242 10 430 
302 6 149 32 244 284 252 314 
303 7 347 393 169 220 370 210 7 
304 6 231 201 16 249 364 143 
305 4 383 224 356 59 
306 5 294 92 332 146 171 
307 7 95 403 106 410 373 367 328 
308 6 274 315 228 391 223 23 
309 7 195 265 273 54 29 269 387 
310 4 318 4 209 123 
311 6 22 153 6 142 413 107 
312 7 68 163 234 107 259 134 379 
313 7 34 366 289 30 127 256 247 
314 7 196 45 82 414 149 266 32 
315 6 228 274 308 23 391 219 
316 7 41 243 297 109 126 396 73 
317 7 388 134 396 60 163 79 425 
318 4 310 4 384 209 
319 7 120 99 250 209 48 323 46 
320 7 346 183 74 61 428 53 10 
321 6 351 413 191 388 79 311 
322 6 206 337 40 172 19 362 
323 7 374 250 48 46 236 13 292 
324 7 132 182 186 9 72 180 136 
325 7 382 283 116 25 142 160 28 
326 7 334 43 144 166 167 375 217 
327 7 405 239 54 377 397 273 309 
328 7 28 367 95 116 87 382 2 
329 7 289 267 252 256 63 174 34 
330 7 219 23 18 184 228 385 161 
331 5 338 36 332 215 306 
332 5 92 306 146 112 350 
333 6 369 47 14 282 105 421 
334 7 326 43 144 217 264 93 368 
335 5 400 427 419 186 9 
336 7 354 229 154 156 205 291 33 
337 6 322 206 40 172 202 19 
338 5 331 78 171 173 294 
339 6 417 432 398 108 365 50 
340 5 168 342 203 77 95 
341 7 251 85 71 74 389 125 183 
342 6 77 189 276 203 49 340 
343 7 345 44 67 35 36 431 86 
344 3 218 297 41 
345 7 343 44 67 35 36 431 86 
346 7 320 183 61 10 74 53 152 
347 7 303 393 169 370 220 7 210 
348 7 265 309 86 269 58 54 195 
349 4 133 49 37 318 
350 6 112 146 92 214 89 332 
351 6 321 413 191 142 65 281 
352 6 408 180 359 211 214 9 
353 7 276 203 379 384 259 49 342 
354 7 336 154 156 229 291 71 33 
355 7 83 272 281 298 65 96 181 
356 7 59 224 84 361 56 263 383 
357 3 127 96 181 
358 6 260 198 287 395 8 422 
359 6 211 294 352 171 306 57 
360 7 227 24 299 407 372 111 270 
361 7 84 356 56 145 426 143 364 
362 6 337 206 322 401 202 40 
363 5 31 185 238 406 240 
364 7 143 201 304 84 361 231 249 
365 5 128 398 417 50 213 
366 7 34 313 30 164 127 256 289 
367 7 87 328 403 95 2 28 106 
368 7 386 144 75 217 212 192 334 
369 7 47 333 14 421 223 282 105 
370 4 169 237 347 7 
371 7 256 174 62 243 289 126 34 
372 7 90 227 20 39 360 270 299 
373 7 410 106 403 307 37 95 139 
374 7 323 46 250 236 48 292 13 
375 7 300 220 5 264 334 197 326 
376 6 53 399 301 10 61 183 
377 7 397 239 327 405 390 129 31 
378 7 80 109 297 259 434 218 123 
379 7 259 384 353 80 378 68 312 
380 7 241 215 137 11 98 140 91 
381 7 52 288 17 290 204 122 205 
382 6 283 116 325 28 168 328 
383 4 305 224 356 84 
384 7 379 4 353 259 49 123 276 
385 7 38 184 193 330 18 161 386 
386 7 193 368 184 192 38 55 279 
387 7 416 195 29 216 269 265 273 
388 7 60 317 79 413 425 134 396 
389 5 194 85 251 341 71 
390 7 129 377 48 239 397 13 179 
391 5 228 23 315 308 219 
392 7 69 117 424 178 232 94 199 
393 7 220 303 347 169 300 19 124 
394 5 261 115 3 277 151 
395 5 287 260 358 198 88 
396 7 134 317 60 388 316 163 371 
397 7 377 31 239 129 327 390 405 
398 6 417 339 365 432 50 108 
399 7 376 53 61 301 10 183 74 
400 7 427 335 121 26 257 419 262 
401 7 296 362 15 423 206 322 172 
402 7 258 175 65 51 113 436 27 
403 7 106 307 95 367 410 373 328 
404 5 124 166 167 202 19 
405 7 327 239 54 377 273 397 309 
406 3 31 363 397 
407 7 111 24 429 227 360 291 235 
408 6 180 352 9 186 359 211 
409 7 76 138 222 148 15 176 296 
410 7 373 106 403 307 95 37 139 
411 7 226 91 20 140 39 270 98 
412 6 254 130 158 433 435 5 
413 6 321 351 388 60 311 79 
414 7 101 82 266 196 314 131 45 
415 7 7 157 246 271 210 275 131 
416 7 216 387 29 195 64 122 52 
417 6 339 398 432 365 50 108 
418 4 245 230 100 147 
419 6 162 161 26 427 18 335 
420 5 268 249 275 201 16 
421 7 47 369 223 279 55 333 282 
422 6 8 280 221 358 152 198 
423 7 296 150 15 172 40 81 206 
424 7 94 232 69 392 199 178 97 
425 7 79 60 62 388 30 413 317 
426 7 56 145 361 84 356 59 143 
427 7 400 26 335 121 419 162 161 
428 6 320 187 346 198 255 74 
429 6 111 24 407 235 360 291 
430 5 242 301 103 376 104 
431 7 67 12 343 345 200 35 44 
432 5 339 417 108 398 50 
433 7 254 435 157 412 246 70 158 
434 6 218 123 99 120 378 80 
435 6 254 433 412 70 339 157 
436 7 51 119 27 258 94 97 402 
DEPOT_SECTION
   1
   -1
EOF
