NAME :  X-n586-kX-w58-c7.cctp
COMMENT : 	Adapted by Maziero, Usberti and Cavellucci from the Uchoa, Pecin, Pessoa, Poggi, Subramanian, and Vidal (2013)
TYPE :  CCTP
DIMENSION :    288
EDGE_WEIGHT_TYPE : 	EUC_2D	
CAPACITY : 	28
VERTICES_WITHIN_COVERAGE :  7
VERTICES_WITH_DEMAND : 	58
NODE_COORD_SECTION
1 18 761
2 835 397
3 299 16
4 31 168
5 142 257
6 242 984
7 612 357
8 663 812
9 105 188
10 487 636
11 993 703
12 672 148
13 506 259
14 953 706
15 888 203
16 107 534
17 772 692
18 475 182
19 828 775
20 719 220
21 655 722
22 844 197
23 918 600
24 460 844
25 739 102
26 301 523
27 341 627
28 989 936
29 935 602
30 44 72
31 861 67
32 163 416
33 981 503
34 722 397
35 317 903
36 547 95
37 944 106
38 935 192
39 128 376
40 908 176
41 720 226
42 738 793
43 791 498
44 712 751
45 530 693
46 141 673
47 380 544
48 634 301
49 427 853
50 606 949
51 47 557
52 48 202
53 791 67
54 546 876
55 526 842
56 535 216
57 828 214
58 829 352
59 623 473
60 74 187
61 726 789
62 51 597
63 894 395
64 301 893
65 978 261
66 709 153
67 391 153
68 876 370
69 846 725
70 604 107
71 117 709
72 507 89
73 476 204
74 948 710
75 358 66
76 459 43
77 555 414
78 558 360
79 641 424
80 25 205
81 852 45
82 501 234
83 817 114
84 651 941
85 817 643
86 209 663
87 542 691
88 296 10
89 148 641
90 9 553
91 824 612
92 608 727
93 481 574
94 350 608
95 396 536
96 10 569
97 813 10
98 569 627
99 692 467
100 738 487
101 508 327
102 983 244
103 637 109
104 582 957
105 932 452
106 60 66
107 944 435
108 338 688
109 900 168
110 583 871
111 852 59
112 921 72
113 845 534
114 812 354
115 5 404
116 590 575
117 930 128
118 832 466
119 32 531
120 966 58
121 31 40
122 162 539
123 621 425
124 802 495
125 385 493
126 769 329
127 921 15
128 854 678
129 943 122
130 103 285
131 398 212
132 335 459
133 43 108
134 822 749
135 783 760
136 218 360
137 321 463
138 403 172
139 44 456
140 430 570
141 509 572
142 639 505
143 984 435
144 479 341
145 709 700
146 557 130
147 270 964
148 482 320
149 836 272
150 819 754
151 648 809
152 640 892
153 838 79
154 552 232
155 831 306
156 503 726
157 571 837
158 162 504
159 458 845
160 458 127
161 929 786
162 579 971
163 662 173
164 320 524
165 894 787
166 554 560
167 581 840
168 693 830
169 355 662
170 844 433
171 877 594
172 556 739
173 264 505
174 782 143
175 919 703
176 958 559
177 90 181
178 794 485
179 267 35
180 322 883
181 376 52
182 541 423
183 36 607
184 101 687
185 657 754
186 695 294
187 174 686
188 128 560
189 926 32
190 540 223
191 334 635
192 125 661
193 129 401
194 725 544
195 200 281
196 822 540
197 887 520
198 714 539
199 780 97
200 464 94
201 785 333
202 677 811
203 595 733
204 735 816
205 37 189
206 332 670
207 16 13
208 986 893
209 603 900
210 452 820
211 846 825
212 625 965
213 456 850
214 437 848
215 322 852
216 270 978
217 954 920
218 389 874
219 563 823
220 541 906
221 34 189
222 539 823
223 55 50
224 498 853
225 121 190
226 744 860
227 44 63
228 43 203
229 115 299
230 5 191
231 15 221
232 214 965
233 677 912
234 188 671
235 312 929
236 976 943
237 51 48
238 183 409
239 27 179
240 463 837
241 435 847
242 353 670
243 128 303
244 59 408
245 319 870
246 473 816
247 138 202
248 406 825
249 181 611
250 7 136
251 127 532
252 408 873
253 94 257
254 432 821
255 128 179
256 322 943
257 153 220
258 105 265
259 21 156
260 47 175
261 34 140
262 215 989
263 444 821
264 963 961
265 126 686
266 513 812
267 437 876
268 996 910
269 899 754
270 203 473
271 127 344
272 437 847
273 465 817
274 102 191
275 84 185
276 660 782
277 35 216
278 74 67
279 110 175
280 617 832
281 617 787
282 501 842
283 59 73
284 586 955
285 474 852
286 131 189
287 422 862
288 81 228
DEMAND_SECTION
2 9
3 7
4 6
5 5
6 7
7 10
8 9
9 8
10 9
11 8
12 6
13 6
14 5
15 10
16 9
17 7
18 9
19 7
20 9
21 6
22 5
23 7
24 10
25 7
26 6
27 9
28 9
29 10
30 7
31 7
32 9
33 10
34 5
35 6
36 8
37 10
38 8
39 5
40 8
41 10
42 8
43 10
44 7
45 5
46 8
47 9
48 7
49 10
50 5
51 6
52 10
53 9
54 9
55 10
56 6
57 8
58 10
59 9
COVERAGE_SECTION
2 7 170 58 68 114 63 118 201 
3 4 88 179 75 181 
4 6 239 259 260 221 205 261 
5 7 258 257 130 243 253 229 247 
6 4 262 216 147 232 
7 7 78 48 123 79 77 182 186 
8 7 202 151 276 168 280 281 185 
9 7 274 279 225 177 275 255 286 
10 6 93 141 45 87 98 140 
11 7 14 74 175 161 269 29 23 
12 7 163 66 103 70 25 20 41 
13 7 82 190 56 154 73 148 101 
14 7 74 175 11 269 161 165 128 
15 7 40 109 22 38 57 117 149 
16 7 251 188 122 158 51 119 62 
17 7 145 85 135 134 150 69 128 
18 7 73 82 160 56 138 190 13 
19 6 150 134 135 69 211 165 
20 7 41 66 163 186 12 174 57 
21 7 185 92 145 276 203 44 281 
22 7 57 15 109 40 149 174 83 
23 7 29 171 176 197 91 113 128 
24 7 159 213 240 285 214 272 210 
25 7 199 66 174 53 83 12 103 
26 6 164 173 137 132 47 125 
27 6 191 94 169 206 242 108 
28 5 236 268 264 217 208 
29 7 23 176 171 197 175 14 33 
30 7 227 283 106 223 237 278 121 
31 7 111 81 153 112 83 53 189 
32 6 238 193 39 270 136 271 
33 7 176 143 105 107 197 29 23 
34 7 99 126 79 201 100 114 123 
35 6 64 180 235 245 256 215 
36 7 146 72 70 200 103 160 76 
37 7 129 117 112 120 109 189 40 
38 7 40 109 15 117 129 102 65 
39 6 193 271 32 238 243 244 
40 7 109 38 15 117 129 22 37 
41 7 20 186 66 163 12 174 57 
42 7 61 204 44 135 168 202 226 
43 7 124 178 118 196 100 113 194 
44 7 61 42 145 185 276 21 202 
45 6 87 156 172 10 203 98 
46 7 192 265 89 187 184 71 234 
47 7 95 125 140 164 94 26 27 
48 7 7 186 78 154 41 20 190 
49 7 241 287 214 272 267 252 213 
50 6 284 104 212 162 84 209 
51 7 119 90 96 62 183 16 188 
52 7 228 205 221 277 80 260 60 
53 7 199 153 83 97 111 25 81 
54 5 220 110 55 157 167 
55 6 222 282 224 266 54 219 
56 7 190 154 82 13 73 18 146 
57 7 22 149 15 109 174 40 155 
58 7 114 2 155 201 68 126 63 
59 7 142 123 79 99 77 182 116 
60 5 275 177 274 52 260 
61 7 42 204 44 168 202 135 276 
62 7 183 51 96 90 119 16 188 
63 6 68 2 170 107 105 58 
64 5 35 180 245 235 215 
65 4 102 38 15 40 
66 7 12 163 25 20 41 174 103 
67 6 138 131 160 18 75 200 
68 6 63 2 58 114 170 155 
69 7 134 150 128 19 269 135 175 
70 7 103 146 36 12 163 72 66 
71 4 265 184 46 192 
72 7 36 200 160 146 76 18 70 
73 7 18 82 56 13 190 131 160 
74 7 14 175 11 269 161 165 128 
75 6 181 3 88 67 179 76 
76 6 200 72 181 160 36 75 
77 5 182 78 123 7 79 
78 6 7 77 101 182 144 148 
79 7 123 59 99 7 142 34 77 
80 7 277 221 228 231 205 52 230 
81 7 111 31 153 97 53 112 127 
82 7 13 56 73 190 154 18 148 
83 7 153 199 174 53 31 111 81 
84 6 212 233 50 152 209 284 
85 7 91 128 17 171 69 196 134 
86 5 234 187 249 89 46 
87 6 45 172 156 203 98 92 
88 4 3 179 75 181 
89 7 192 46 249 234 265 187 86 
90 5 96 119 51 183 62 
91 7 85 171 128 196 113 17 23 
92 6 203 21 172 185 281 87 
93 7 141 140 10 166 95 98 47 
94 7 27 191 169 242 206 47 108 
95 7 47 125 140 164 94 93 26 
96 6 90 51 119 183 62 16 
97 7 81 53 111 153 31 199 83 
98 7 116 87 166 45 141 10 93 
99 7 100 142 79 59 198 34 123 
100 7 99 43 178 198 194 124 34 
101 5 148 144 78 13 82 
102 4 65 38 40 15 
103 7 70 12 163 146 66 36 25 
104 6 284 162 50 212 209 220 
105 7 107 143 63 33 197 170 68 
106 6 283 278 227 30 223 237 
107 6 105 143 63 33 68 170 
108 5 206 242 169 191 27 
109 7 40 15 38 117 22 129 37 
110 7 167 209 157 54 219 280 220 
111 7 31 81 153 53 97 83 112 
112 7 189 37 120 129 117 127 31 
113 7 196 197 124 43 171 118 178 
114 7 58 201 2 126 155 68 149 
115 4 244 139 193 39 
116 7 166 98 141 142 59 93 10 
117 7 129 37 109 40 112 38 120 
118 7 170 124 178 43 2 113 196 
119 5 51 90 96 62 16 
120 7 112 189 37 127 129 117 31 
121 6 237 223 227 207 30 106 
122 5 158 251 188 16 249 
123 7 79 59 77 7 182 99 142 
124 7 43 178 118 196 113 100 170 
125 6 95 47 132 137 164 26 
126 7 201 114 58 155 186 34 149 
127 7 189 112 120 81 31 111 37 
128 7 69 85 175 91 134 17 150 
129 7 117 37 112 109 40 120 38 
130 5 229 258 253 243 5 
131 5 138 67 73 18 160 
132 4 137 125 164 26 
133 2 261 30 
134 7 150 19 69 135 17 269 128 
135 7 150 134 19 42 61 17 44 
136 2 238 32 
137 3 132 164 26 
138 5 67 131 160 18 73 
139 4 244 115 119 16 
140 7 95 93 47 141 10 94 125 
141 6 93 166 10 140 98 116 
142 7 59 99 79 123 198 116 194 
143 4 107 105 33 63 
144 5 148 101 78 13 182 
145 7 44 21 17 185 61 135 276 
146 7 36 70 72 103 56 190 18 
147 5 216 6 235 232 256 
148 5 144 101 13 78 82 
149 7 155 57 22 58 201 114 15 
150 7 134 19 135 69 211 17 269 
151 7 8 202 276 281 280 168 185 
152 6 209 233 84 110 280 50 
153 7 111 31 81 83 53 199 97 
154 7 190 56 82 13 73 18 146 
155 7 149 58 114 201 126 68 2 
156 3 45 87 172 
157 6 167 219 222 110 55 54 
158 5 122 251 270 16 188 
159 7 24 213 240 285 214 272 241 
160 6 200 18 72 138 67 73 
161 4 165 269 74 14 
162 4 104 284 50 212 
163 7 12 66 103 20 41 70 25 
164 7 26 173 137 47 132 125 95 
165 4 269 161 211 19 
166 6 116 141 98 93 10 142 
167 6 157 219 110 280 222 54 
168 7 202 8 204 151 61 42 276 
169 5 242 206 108 191 27 
170 7 118 2 63 68 178 124 58 
171 7 23 91 29 113 197 85 196 
172 5 203 87 45 92 156 
173 4 26 164 270 137 
174 7 83 199 25 66 53 22 57 
175 7 74 14 269 128 11 69 161 
176 7 29 23 33 197 171 105 113 
177 4 275 274 9 60 
178 7 43 124 118 100 196 113 170 
179 4 3 88 75 181 
180 5 245 35 64 215 235 
181 6 75 76 3 88 200 67 
182 4 77 78 123 59 
183 5 62 96 51 90 119 
184 4 265 71 192 46 
185 7 276 21 281 44 92 151 8 
186 7 48 41 20 126 201 7 34 
187 6 234 46 86 265 89 192 
188 6 251 16 122 158 249 51 
189 7 127 112 120 31 81 37 111 
190 7 56 154 82 13 73 18 146 
191 6 27 94 169 206 242 108 
192 6 46 265 89 184 71 187 
193 6 39 32 238 271 244 136 
194 7 198 100 43 99 124 178 142 
195 5 5 243 257 136 229 
196 7 113 124 43 178 197 91 118 
197 7 113 196 171 118 176 105 23 
198 7 194 100 99 142 43 178 124 
199 7 53 25 83 174 153 111 31 
200 6 160 72 76 36 18 67 
201 7 126 114 58 155 149 2 34 
202 7 8 168 151 276 61 204 185 
203 6 92 172 281 21 185 87 
204 7 42 61 168 226 202 44 8 
205 7 221 239 228 52 260 80 4 
206 6 108 242 169 191 27 94 
207 6 121 237 223 227 30 106 
208 4 268 217 28 236 
209 7 110 152 50 284 104 54 220 
210 7 263 273 240 254 246 24 159 
211 2 19 165 
212 7 50 84 284 104 162 209 233 
213 6 159 24 240 285 214 272 
214 7 272 241 49 213 159 287 24 
215 4 245 180 64 35 
216 5 147 6 262 232 256 
217 2 236 28 
218 4 252 287 49 267 
219 6 157 222 167 55 266 110 
220 2 54 110 
221 7 205 239 228 80 52 260 4 
222 5 55 219 266 157 282 
223 6 237 106 227 283 30 278 
224 3 282 285 55 
225 7 286 255 9 274 279 247 177 
226 4 204 168 42 61 
227 7 30 106 223 237 283 121 278 
228 7 52 205 277 221 80 260 239 
229 6 243 130 258 253 271 5 
230 7 80 239 221 205 231 4 259 
231 7 80 277 230 228 221 52 205 
232 2 262 6 
233 5 84 152 212 209 50 
234 5 187 86 46 89 249 
235 5 256 35 64 180 147 
236 4 28 264 217 268 
237 6 223 227 106 121 30 283 
238 4 32 193 136 39 
239 7 4 221 205 260 259 230 80 
240 7 24 159 213 285 210 273 246 
241 7 214 272 49 287 213 159 24 
242 5 169 206 108 191 27 
243 6 229 130 271 258 5 253 
244 4 139 115 193 39 
245 4 180 215 64 35 
246 5 273 210 240 263 24 
247 6 286 225 257 255 9 274 
248 6 254 49 241 263 272 214 
249 5 89 86 234 46 122 
250 3 259 261 4 
251 6 16 188 122 158 51 119 
252 4 287 218 49 267 
253 5 258 130 288 229 5 
254 7 263 210 241 248 272 214 49 
255 6 286 225 279 9 247 274 
256 4 235 35 64 147 
257 4 247 286 5 225 
258 6 253 130 229 5 243 288 
259 5 4 261 239 250 260 
260 6 4 205 221 239 52 228 
261 3 259 250 4 
262 3 232 6 216 
263 7 210 254 273 240 272 24 159 
264 2 236 28 
265 6 46 71 184 192 187 89 
266 4 222 282 55 246 
267 3 287 49 214 
268 5 208 28 236 217 264 
269 6 165 161 175 69 74 14 
270 4 158 238 173 32 
271 6 39 243 229 193 130 32 
272 7 214 241 49 213 159 287 24 
273 6 246 210 240 263 24 159 
274 7 9 177 279 225 275 60 255 
275 4 177 60 274 9 
276 7 185 8 151 202 281 168 21 
277 7 80 228 52 231 205 221 239 
278 5 106 283 223 30 227 
279 6 9 255 274 225 177 286 
280 6 167 151 281 157 8 110 
281 6 151 276 280 8 185 203 
282 4 224 55 285 266 
283 6 106 30 278 227 223 237 
284 6 104 162 50 212 209 84 
285 5 24 159 213 240 224 
286 6 225 255 247 279 9 274 
287 6 49 252 241 214 267 272 
288 6 253 52 60 274 275 258 
DEPOT_SECTION
   1
   -1
EOF
