NAME :  X-n599-kX-w119-c9.cctp
COMMENT : 	Adapted by Maziero, Usberti and Cavellucci from the Uchoa, Pecin, Pessoa, Poggi, Subramanian, and Vidal (2013)
TYPE :  CCTP
DIMENSION :    515
EDGE_WEIGHT_TYPE : 	EUC_2D	
CAPACITY : 	487
VERTICES_WITHIN_COVERAGE :  9
VERTICES_WITH_DEMAND : 	119
NODE_COORD_SECTION
1 284 167
2 6 711
3 874 746
4 483 894
5 733 189
6 336 29
7 488 684
8 825 903
9 98 412
10 206 306
11 497 641
12 499 745
13 481 40
14 500 390
15 851 268
16 51 278
17 805 796
18 554 771
19 576 984
20 734 251
21 325 414
22 658 81
23 279 467
24 1000 804
25 124 148
26 554 594
27 645 168
28 4 965
29 614 267
30 939 719
31 935 800
32 109 154
33 31 554
34 960 512
35 489 840
36 377 684
37 945 808
38 720 165
39 226 34
40 73 255
41 748 344
42 774 514
43 143 893
44 168 461
45 164 493
46 631 533
47 815 191
48 833 284
49 746 100
50 252 839
51 894 472
52 944 597
53 371 28
54 552 186
55 610 541
56 578 665
57 749 655
58 898 974
59 274 972
60 520 642
61 914 373
62 610 738
63 773 602
64 752 74
65 729 90
66 464 658
67 70 36
68 964 397
69 388 732
70 185 51
71 712 144
72 45 437
73 910 738
74 956 879
75 318 560
76 592 913
77 642 564
78 907 240
79 88 186
80 399 931
81 763 180
82 626 876
83 302 689
84 970 490
85 775 574
86 653 667
87 813 999
88 5 980
89 10 249
90 980 136
91 557 816
92 915 680
93 131 722
94 553 946
95 45 101
96 306 260
97 627 26
98 771 398
99 869 585
100 493 282
101 312 212
102 985 939
103 194 262
104 992 698
105 834 844
106 1 651
107 271 893
108 20 349
109 163 503
110 579 761
111 923 502
112 2 469
113 103 284
114 928 132
115 51 883
116 63 181
117 784 300
118 212 774
119 138 90
120 532 999
121 160 179
122 51 330
123 439 328
124 519 563
125 15 591
126 2 546
127 20 964
128 975 611
129 128 984
130 131 737
131 969 497
132 367 77
133 925 640
134 160 288
135 771 912
136 162 80
137 704 21
138 980 560
139 896 344
140 892 149
141 20 663
142 405 859
143 475 920
144 480 756
145 407 973
146 447 697
147 325 148
148 249 926
149 894 188
150 146 433
151 22 95
152 789 664
153 110 741
154 378 573
155 606 838
156 583 717
157 151 525
158 803 457
159 971 191
160 512 553
161 893 179
162 339 985
163 108 241
164 317 221
165 763 566
166 310 305
167 572 203
168 454 957
169 621 295
170 154 175
171 881 149
172 122 50
173 163 817
174 825 86
175 879 455
176 801 726
177 504 198
178 970 276
179 934 920
180 21 730
181 0 689
182 55 848
183 234 477
184 881 106
185 125 170
186 169 455
187 825 911
188 300 380
189 492 28
190 466 702
191 280 878
192 529 935
193 580 243
194 892 721
195 844 830
196 950 63
197 139 349
198 345 668
199 202 781
200 703 608
201 293 435
202 195 547
203 28 660
204 481 59
205 632 672
206 220 763
207 13 308
208 216 306
209 32 554
210 96 824
211 158 386
212 829 812
213 867 873
214 784 951
215 220 977
216 852 979
217 776 539
218 456 434
219 113 924
220 30 459
221 659 795
222 623 116
223 635 270
224 232 431
225 520 384
226 73 559
227 676 791
228 492 942
229 869 445
230 79 773
231 843 368
232 23 54
233 908 695
234 727 140
235 314 736
236 73 940
237 646 802
238 946 370
239 461 280
240 987 63
241 619 314
242 233 651
243 310 285
244 440 921
245 84 462
246 659 265
247 294 353
248 392 406
249 973 635
250 0 537
251 973 718
252 762 474
253 889 147
254 806 717
255 762 978
256 217 27
257 446 332
258 185 282
259 456 227
260 972 759
261 774 283
262 29 157
263 110 925
264 396 428
265 427 836
266 334 853
267 695 663
268 216 367
269 914 966
270 675 144
271 380 424
272 983 421
273 196 287
274 703 575
275 42 81
276 188 558
277 651 950
278 761 901
279 828 842
280 316 34
281 391 970
282 725 674
283 120 90
284 694 30
285 517 759
286 365 235
287 494 299
288 905 177
289 491 337
290 872 740
291 660 518
292 45 383
293 354 180
294 425 710
295 601 696
296 985 82
297 838 611
298 831 477
299 977 848
300 61 126
301 337 5
302 962 264
303 832 389
304 870 159
305 537 349
306 15 890
307 85 734
308 17 668
309 650 591
310 42 53
311 367 72
312 951 526
313 607 633
314 686 319
315 915 493
316 625 316
317 920 267
318 189 208
319 735 596
320 128 875
321 544 996
322 700 96
323 314 626
324 240 431
325 689 615
326 177 160
327 132 639
328 292 500
329 313 752
330 240 47
331 750 460
332 314 486
333 701 50
334 303 175
335 541 185
336 966 670
337 7 640
338 911 283
339 550 784
340 657 974
341 565 856
342 725 81
343 557 176
344 122 60
345 347 872
346 86 270
347 671 300
348 306 688
349 62 569
350 592 581
351 380 868
352 191 553
353 108 151
354 806 685
355 956 106
356 465 782
357 315 454
358 257 878
359 859 581
360 857 385
361 956 788
362 932 515
363 713 464
364 614 647
365 39 570
366 293 866
367 861 930
368 997 658
369 25 56
370 996 771
371 609 794
372 575 912
373 798 641
374 47 705
375 33 332
376 20 892
377 406 668
378 911 786
379 287 587
380 230 500
381 999 267
382 101 865
383 218 917
384 478 14
385 179 48
386 284 237
387 832 379
388 685 104
389 224 45
390 31 407
391 558 298
392 385 391
393 8 935
394 760 662
395 255 263
396 811 645
397 152 288
398 840 493
399 48 522
400 624 942
401 557 687
402 302 629
403 570 674
404 523 682
405 521 738
406 825 540
407 906 960
408 286 33
409 43 940
410 410 713
411 96 760
412 269 427
413 329 180
414 893 150
415 634 97
416 285 241
417 431 871
418 964 134
419 211 400
420 19 292
421 15 407
422 986 675
423 272 671
424 346 394
425 551 663
426 759 368
427 281 999
428 416 642
429 966 681
430 416 755
431 852 486
432 487 456
433 57 476
434 828 352
435 446 705
436 197 107
437 652 878
438 559 625
439 539 149
440 76 178
441 869 714
442 172 542
443 883 701
444 167 695
445 265 285
446 465 898
447 625 552
448 876 277
449 896 763
450 429 312
451 953 351
452 634 37
453 5 753
454 998 497
455 237 482
456 787 445
457 50 301
458 429 596
459 881 355
460 888 609
461 927 216
462 555 110
463 166 518
464 840 933
465 916 873
466 221 705
467 97 71
468 634 685
469 759 542
470 111 830
471 680 133
472 152 639
473 489 197
474 216 62
475 694 287
476 849 833
477 811 272
478 141 463
479 645 843
480 461 656
481 337 375
482 534 927
483 346 660
484 32 304
485 453 799
486 325 239
487 454 629
488 137 993
489 505 920
490 461 582
491 931 438
492 194 274
493 682 129
494 152 673
495 949 48
496 579 876
497 729 124
498 513 311
499 958 86
500 936 365
501 83 93
502 10 103
503 223 860
504 402 101
505 965 683
506 35 143
507 262 766
508 113 182
509 573 796
510 384 538
511 251 775
512 186 96
513 558 287
514 567 488
515 661 518
DEMAND_SECTION
2 63
3 89
4 97
5 78
6 92
7 55
8 97
9 88
10 95
11 64
12 80
13 68
14 71
15 95
16 75
17 89
18 54
19 75
20 61
21 66
22 86
23 56
24 99
25 65
26 56
27 99
28 79
29 73
30 53
31 63
32 76
33 67
34 77
35 82
36 67
37 68
38 64
39 69
40 68
41 83
42 77
43 67
44 74
45 80
46 55
47 86
48 68
49 62
50 78
51 67
52 90
53 63
54 90
55 56
56 69
57 97
58 87
59 87
60 70
61 75
62 73
63 81
64 97
65 88
66 68
67 53
68 64
69 95
70 87
71 92
72 79
73 77
74 75
75 86
76 85
77 55
78 60
79 78
80 71
81 68
82 69
83 73
84 89
85 64
86 95
87 61
88 85
89 55
90 96
91 51
92 98
93 82
94 89
95 71
96 60
97 94
98 64
99 74
100 75
101 91
102 63
103 67
104 91
105 77
106 65
107 89
108 50
109 77
110 88
111 66
112 98
113 64
114 51
115 64
116 96
117 51
118 54
119 68
120 59
COVERAGE_SECTION
2 9 181 180 374 453 308 141 203 106 337 
3 9 290 449 194 441 73 443 378 233 30 
4 9 446 143 489 228 244 35 417 482 192 
5 9 38 81 234 71 20 497 270 471 493 
6 8 280 301 53 408 311 132 330 504 
7 9 190 66 404 480 146 11 435 60 12 
8 9 187 464 367 213 135 105 279 214 278 
9 9 150 245 72 292 211 390 478 197 433 
10 9 208 273 258 492 103 134 397 268 445 
11 9 60 66 480 7 487 404 425 438 190 
12 9 144 285 405 356 190 18 7 339 435 
13 9 189 204 384 504 462 53 311 132 439 
14 5 225 289 305 218 432 
15 9 48 448 477 338 78 317 117 261 47 
16 9 457 40 484 420 346 207 89 113 122 
17 7 212 279 195 105 476 176 254 
18 9 339 110 509 285 91 405 371 12 156 
19 9 321 94 120 400 192 482 372 76 277 
20 9 261 475 5 117 246 81 347 477 314 
21 9 424 201 357 481 188 271 412 392 248 
22 9 415 388 322 222 452 333 493 471 284 
23 9 201 328 357 332 412 455 183 324 224 
24 9 370 361 299 260 37 31 74 251 378 
25 9 32 353 185 508 170 121 79 326 440 
26 9 438 350 124 60 160 313 425 11 56 
27 9 270 471 493 222 71 415 38 388 167 
28 9 88 127 393 409 236 376 306 115 263 
29 8 223 169 193 246 241 316 513 391 
30 9 251 73 233 505 92 194 429 260 336 
31 9 37 361 378 449 260 299 24 73 370 
32 9 353 25 185 508 79 440 170 116 300 
33 9 209 365 126 349 250 399 125 226 433 
34 9 131 312 84 362 111 454 315 138 51 
35 9 4 485 265 356 446 417 91 341 143 
36 9 377 198 483 410 69 294 428 146 348 
37 9 31 361 378 299 24 260 370 449 465 
38 9 71 234 5 497 81 270 471 493 49 
39 8 256 389 330 474 70 385 408 512 
40 9 346 16 163 113 457 89 484 420 79 
41 7 426 117 98 261 314 475 434 
42 9 217 469 252 165 406 331 85 158 298 
43 9 320 219 263 382 470 173 383 210 236 
44 9 186 478 45 150 109 463 157 183 224 
45 9 109 463 44 157 186 478 442 202 150 
46 7 447 55 77 291 515 309 350 
47 9 81 304 171 149 161 477 5 15 253 
48 9 15 477 448 117 261 434 338 231 78 
49 9 65 64 342 497 234 322 71 388 333 
50 9 503 358 191 366 107 511 507 118 199 
51 9 175 315 229 111 431 491 362 398 298 
52 9 128 133 249 138 460 312 99 336 368 
53 8 6 301 311 132 280 504 408 384 
54 9 335 343 167 439 177 193 473 462 27 
55 9 447 46 77 350 291 515 309 514 26 
56 9 403 425 401 295 364 313 438 156 205 
57 9 394 282 152 373 267 63 319 396 354 
58 9 407 269 216 367 179 464 87 102 187 
59 8 427 148 215 162 383 107 191 358 
60 9 11 425 404 438 7 66 401 26 403 
61 9 500 238 139 459 451 68 360 491 231 
62 9 156 110 295 371 468 18 509 205 237 
63 9 85 165 319 373 396 57 394 469 217 
64 9 49 65 342 497 322 333 234 137 284 
65 9 342 49 64 322 497 388 333 234 71 
66 9 480 487 7 11 146 190 435 428 60 
67 9 310 467 369 232 275 172 344 501 95 
68 8 272 238 500 451 491 61 139 84 
69 9 410 430 294 36 435 377 146 235 198 
70 9 385 474 136 389 256 39 512 330 436 
71 9 234 38 497 471 493 270 388 322 5 
72 9 220 390 433 421 245 112 292 9 399 
73 9 194 449 30 3 290 233 443 378 441 
74 9 299 465 179 102 37 31 24 213 361 
75 7 379 154 328 323 510 402 332 
76 9 372 496 400 82 94 482 341 192 437 
77 9 447 309 46 55 291 515 350 274 325 
78 9 317 461 338 448 149 302 15 161 288 
79 9 440 116 508 32 185 353 25 163 262 
80 9 281 244 145 168 351 417 142 446 143 
81 9 5 38 47 234 71 497 20 49 270 
82 8 437 479 155 496 76 372 341 400 
83 9 348 423 198 235 483 402 323 329 36 
84 9 131 34 454 312 362 111 315 491 272 
85 9 165 63 217 469 319 42 406 373 274 
86 9 205 468 267 364 313 295 325 282 56 
87 7 216 255 214 464 367 58 187 
88 8 28 127 393 409 236 376 306 115 
89 9 420 16 207 484 40 457 346 116 375 
90 9 418 355 114 296 499 159 240 196 288 
91 9 509 339 341 18 155 371 110 496 285 
92 9 233 443 133 30 194 505 429 336 441 
93 9 130 153 444 307 411 494 230 327 374 
94 9 192 482 372 19 76 321 489 120 228 
95 9 275 151 300 502 501 506 310 369 232 
96 9 243 416 486 386 164 166 101 445 395 
97 9 452 22 284 415 137 333 222 388 322 
98 8 426 456 41 303 387 331 158 434 
99 9 359 460 297 406 52 133 396 373 362 
100 9 287 239 498 289 513 259 391 257 123 
101 9 164 486 413 334 386 416 96 293 286 
102 9 179 74 269 407 299 58 465 367 213 
103 9 492 258 273 134 10 208 397 318 395 
104 9 422 251 429 505 336 368 30 260 249 
105 8 279 195 476 212 213 17 8 187 
106 9 337 141 308 203 181 2 125 374 180 
107 9 191 358 366 148 50 383 503 266 59 
108 9 375 122 207 292 484 420 457 421 390 
109 9 45 463 157 442 44 478 186 202 352 
110 9 18 509 339 62 156 371 91 285 405 
111 9 315 362 312 34 51 131 84 175 491 
112 9 220 72 433 421 250 390 399 126 245 
113 9 346 40 163 397 16 457 134 122 197 
114 9 418 355 414 140 253 171 288 90 184 
115 9 376 182 306 382 409 236 393 263 210 
116 9 440 79 262 506 508 32 353 300 185 
117 9 261 477 48 41 434 20 426 15 231 
118 9 199 206 511 507 173 466 50 503 130 
119 9 283 136 344 172 467 512 501 385 25 
120 9 321 19 94 192 228 482 489 168 143 
121 8 170 326 185 318 508 25 32 353 
122 9 375 457 484 108 207 420 16 292 113 
123 7 257 450 239 289 287 100 498 
124 6 160 26 490 438 350 60 
125 9 365 33 209 126 337 349 250 106 226 
126 9 250 33 209 365 125 399 349 226 112 
127 9 28 88 393 409 236 376 306 115 263 
128 9 249 52 138 368 133 336 422 429 505 
129 6 488 219 263 236 43 215 
130 8 93 153 411 307 444 230 494 199 
131 9 84 34 454 312 362 111 315 138 491 
132 8 311 504 53 6 280 301 147 408 
133 9 92 52 249 460 336 128 233 429 505 
134 9 397 258 273 492 103 10 113 208 197 
135 4 278 214 187 8 
136 9 119 512 385 70 283 436 344 172 474 
137 9 284 333 342 64 452 65 322 22 97 
138 9 312 128 34 52 131 362 454 84 249 
139 9 459 61 500 238 360 451 231 338 434 
140 9 414 253 171 304 161 288 149 114 184 
141 9 308 203 106 337 181 2 374 180 125 
142 7 351 417 265 345 244 266 80 
143 9 446 4 228 489 244 168 192 482 417 
144 9 12 356 285 405 485 190 435 430 146 
145 9 281 80 168 244 162 143 228 446 417 
146 9 435 190 294 410 7 66 480 377 428 
147 4 413 334 293 101 
148 9 383 107 358 59 191 215 503 366 427 
149 9 161 288 304 414 140 171 253 461 78 
150 9 478 186 44 211 9 45 245 109 419 
151 9 502 95 275 369 232 310 300 506 501 
152 8 373 354 394 396 57 254 176 63 
153 8 130 411 307 93 230 374 444 494 
154 8 510 458 75 428 323 490 379 483 
155 9 479 82 371 341 496 509 91 237 437 
156 9 295 62 401 110 403 56 468 18 425 
157 9 463 109 442 45 202 352 276 478 44 
158 8 456 298 252 398 331 431 42 98 
159 9 461 90 418 288 114 302 149 161 78 
160 4 124 26 490 350 
161 9 149 288 414 140 304 171 253 461 114 
162 9 281 427 59 145 80 148 345 107 168 
163 9 346 40 113 79 508 397 16 134 440 
164 9 101 486 386 416 96 413 334 286 293 
165 9 85 469 217 63 319 42 274 406 200 
166 9 243 96 445 247 486 395 416 386 481 
167 9 54 343 335 193 439 177 29 27 473 
168 9 244 228 143 145 446 80 489 281 4 
169 6 241 316 29 223 246 347 
170 8 121 326 185 25 508 318 32 353 
171 9 253 140 414 304 161 288 149 184 114 
172 9 344 467 283 119 136 67 385 501 70 
173 9 199 470 118 210 320 503 382 43 206 
174 2 184 64 
175 8 229 51 431 315 298 398 491 111 
176 8 254 354 152 441 17 290 3 394 
177 8 473 335 54 259 343 439 167 100 
178 8 302 381 317 338 78 461 451 159 
179 9 74 407 269 465 102 58 367 213 299 
180 9 2 453 374 181 308 307 141 203 230 
181 9 2 308 141 106 203 180 337 374 453 
182 8 115 210 382 376 306 470 320 230 
183 8 455 380 23 224 324 412 328 44 
184 6 253 171 140 414 114 304 
185 9 508 25 32 353 170 121 79 440 326 
186 9 44 478 150 45 109 463 224 183 419 
187 9 8 464 367 135 213 214 278 105 279 
188 9 247 481 21 424 201 412 166 357 324 
189 9 13 384 204 462 504 53 439 311 132 
190 9 146 435 7 294 66 480 12 144 410 
191 9 107 366 358 50 148 266 503 345 383 
192 9 482 94 489 228 372 143 4 321 120 
193 9 167 29 513 391 223 54 169 335 343 
194 9 443 441 73 290 3 233 449 30 92 
195 9 476 105 279 212 213 17 8 378 187 
196 7 495 499 240 296 355 114 418 
197 9 211 397 134 113 9 268 10 258 150 
198 9 483 36 348 83 323 402 377 423 235 
199 9 118 206 511 173 507 50 466 503 130 
200 9 325 274 319 267 309 57 63 282 165 
201 9 412 357 23 21 324 188 332 224 328 
202 6 352 276 442 463 157 109 
203 8 141 308 106 337 181 374 2 125 
204 9 13 189 384 504 462 439 53 132 311 
205 9 468 86 364 295 313 56 403 267 156 
206 9 118 199 511 507 466 173 50 444 130 
207 9 420 484 375 457 108 122 16 89 40 
208 9 10 273 258 492 103 445 395 134 268 
209 9 33 365 126 349 250 399 125 226 433 
210 8 470 382 182 230 320 411 173 115 
211 9 197 150 419 268 9 186 44 478 224 
212 9 195 17 476 279 105 213 3 449 290 
213 9 105 476 195 465 279 8 187 367 464 
214 6 255 135 278 87 187 464 
215 7 59 148 383 427 488 129 107 
216 9 87 58 464 367 407 269 187 214 8 
217 9 469 42 165 85 406 63 252 319 398 
218 4 432 264 14 248 
219 8 263 43 236 320 382 129 409 488 
220 9 72 112 433 390 245 421 399 292 9 
221 7 237 227 371 479 155 62 437 
222 9 415 22 27 270 471 493 388 462 322 
223 9 29 246 169 241 316 347 193 475 314 
224 9 324 412 419 183 455 23 201 268 186 
225 4 14 305 289 498 
226 8 349 365 209 33 399 125 126 250 
227 6 221 237 479 371 155 62 
228 9 489 143 192 168 482 4 446 244 94 
229 8 175 51 431 298 398 360 491 315 
230 8 411 307 153 210 130 470 180 93 
231 8 387 360 434 303 459 139 61 98 
232 9 369 310 275 151 67 502 95 501 467 
233 9 92 443 194 30 73 441 133 290 505 
234 9 71 497 38 49 493 471 5 65 270 
235 8 329 83 348 507 69 511 198 423 
236 8 409 263 219 127 115 393 129 376 
237 8 221 227 371 479 155 62 509 437 
238 8 500 451 61 68 139 272 459 491 
239 8 100 287 450 123 259 257 498 289 
240 7 296 196 499 495 355 90 418 
241 5 316 169 29 223 347 
242 4 423 466 402 83 
243 9 166 96 445 486 416 386 395 164 247 
244 9 446 143 168 80 4 417 228 145 489 
245 9 433 72 9 220 478 150 399 390 112 
246 9 223 347 475 29 169 314 316 241 20 
247 9 188 481 166 424 21 243 445 412 268 
248 7 392 264 271 424 481 21 218 
249 9 128 368 336 422 429 52 133 505 104 
250 9 126 33 209 399 365 125 112 349 226 
251 9 104 30 505 429 260 422 336 370 368 
252 8 331 456 42 158 363 217 469 298 
253 9 140 414 171 304 161 288 149 114 184 
254 8 176 354 152 441 290 394 396 3 
255 3 214 87 135 
256 9 39 389 330 474 70 385 408 136 512 
257 7 123 450 289 239 287 100 498 
258 9 273 492 103 134 10 397 208 395 318 
259 5 473 239 177 100 287 
260 9 370 361 251 30 24 31 37 104 73 
261 9 117 477 20 48 41 15 475 426 434 
262 9 506 116 300 440 502 95 151 79 275 
263 8 219 236 43 320 382 129 409 115 
264 6 271 248 392 218 424 21 
265 8 142 417 485 351 35 356 446 4 
266 6 345 366 351 191 142 107 
267 9 282 86 325 57 200 205 394 468 319 
268 9 419 208 211 10 224 324 197 247 412 
269 9 407 58 179 216 367 102 464 465 74 
270 9 471 493 71 27 388 38 234 322 497 
271 8 264 248 392 424 21 481 357 218 
272 9 68 491 238 84 500 451 131 454 61 
273 9 258 492 10 103 208 134 397 395 445 
274 9 200 319 325 309 165 77 469 291 515 
275 9 95 151 310 369 232 502 501 300 67 
276 6 352 202 442 463 157 109 
277 4 340 400 76 437 
278 3 135 214 8 
279 8 105 195 476 212 213 17 8 187 
280 8 6 408 301 53 311 132 330 39 
281 9 145 80 162 168 244 143 351 446 228 
282 9 57 267 394 152 325 200 86 319 373 
283 9 119 344 467 501 172 136 25 353 32 
284 9 137 333 342 452 22 322 97 65 64 
285 9 405 12 144 18 339 356 110 509 91 
286 6 486 164 293 101 96 413 
287 9 100 498 239 289 257 123 391 513 305 
288 9 161 149 414 140 253 171 304 461 114 
289 9 498 287 257 305 123 14 100 225 239 
290 9 3 441 194 449 73 443 233 378 30 
291 6 515 46 77 447 55 274 
292 9 390 421 108 375 122 72 9 220 484 
293 6 413 147 334 101 164 286 
294 9 410 435 146 190 69 377 430 36 66 
295 9 156 468 403 56 205 62 401 364 86 
296 8 240 499 355 196 495 90 418 114 
297 9 359 99 396 373 460 63 152 406 85 
298 8 398 431 158 229 175 456 51 406 
299 9 74 24 37 31 361 465 370 179 260 
300 9 95 506 501 262 275 151 353 440 116 
301 8 6 280 53 408 311 132 330 39 
302 8 178 381 317 338 461 78 159 448 
303 8 387 231 360 434 459 98 229 456 
304 9 171 253 140 414 161 149 288 184 47 
305 6 225 498 289 14 391 513 
306 9 376 115 393 409 182 127 28 236 382 
307 8 153 411 230 130 93 374 180 2 
308 9 141 203 106 181 337 2 374 180 125 
309 9 77 325 447 274 200 350 313 46 55 
310 9 369 232 275 67 151 95 501 467 502 
311 8 132 53 504 6 280 301 147 408 
312 9 34 362 131 111 84 138 315 454 52 
313 9 364 56 205 438 350 403 86 468 309 
314 7 347 475 246 316 41 241 169 
315 9 111 362 51 34 312 175 131 84 491 
316 5 241 169 223 347 29 
317 8 338 78 302 448 178 461 15 381 
318 5 121 170 326 103 492 
319 9 200 63 274 165 85 325 469 57 217 
320 9 43 382 470 219 263 210 173 115 182 
321 9 120 19 94 192 482 228 489 372 76 
322 9 388 342 65 493 497 471 22 49 333 
323 8 402 379 483 198 423 348 83 75 
324 9 224 412 419 183 455 23 201 268 380 
325 9 200 274 309 267 319 86 77 282 57 
326 8 121 170 318 185 25 436 512 32 
327 6 472 494 444 93 130 276 
328 8 332 23 357 455 183 380 75 201 
329 6 235 507 83 348 511 69 
330 8 389 39 474 256 408 70 385 512 
331 6 252 363 456 158 42 98 
332 9 328 357 23 201 21 75 412 455 183 
333 9 284 137 342 322 65 22 64 388 49 
334 5 413 147 101 164 293 
335 9 54 343 167 439 177 473 193 462 259 
336 9 429 505 422 368 249 104 251 133 92 
337 8 106 141 203 308 181 125 2 374 
338 8 317 448 78 302 178 15 139 461 
339 9 18 509 91 110 285 405 371 12 341 
340 4 277 400 19 76 
341 9 496 91 155 372 509 76 82 339 371 
342 9 65 49 64 322 333 497 388 234 284 
343 9 54 335 167 439 177 462 193 473 27 
344 9 172 467 283 119 136 501 67 385 70 
345 6 266 351 366 142 191 80 
346 9 40 113 16 163 457 484 397 122 420 
347 8 314 475 246 223 316 169 241 29 
348 9 83 423 198 235 483 402 323 329 36 
349 8 226 365 33 209 399 125 126 250 
350 9 26 55 447 77 313 438 309 46 364 
351 6 142 345 266 417 265 80 
352 6 276 202 442 463 157 109 
353 9 32 25 185 508 79 440 170 300 116 
354 8 152 254 396 176 373 394 57 441 
355 8 499 418 90 114 296 196 240 495 
356 9 485 144 12 430 285 35 265 405 435 
357 9 201 332 23 21 328 412 424 271 188 
358 9 107 191 366 503 50 148 383 266 345 
359 9 99 297 460 406 396 85 52 373 63 
360 8 231 303 387 459 434 139 61 229 
361 9 37 31 260 370 378 24 299 449 73 
362 9 111 312 34 315 131 84 51 138 454 
363 6 331 252 515 291 456 42 
364 9 313 205 56 468 86 295 403 438 425 
365 8 209 33 349 125 226 126 399 250 
366 8 191 107 358 266 50 345 503 148 
367 9 464 187 8 216 407 58 213 269 179 
368 9 422 249 336 429 104 505 128 251 133 
369 9 232 310 275 151 67 95 502 501 467 
370 9 260 24 361 251 37 31 104 30 299 
371 9 509 237 155 110 221 62 91 18 339 
372 9 76 496 94 482 192 341 400 82 489 
373 8 396 152 394 354 63 297 57 85 
374 9 180 2 307 308 203 141 181 453 106 
375 9 122 108 484 207 457 420 292 16 390 
376 9 306 115 393 409 182 127 236 28 382 
377 9 428 36 410 294 146 435 480 66 198 
378 9 449 31 37 361 73 3 290 260 194 
379 4 75 402 323 242 
380 8 455 183 23 202 328 45 352 463 
381 8 178 302 317 159 461 338 78 451 
382 8 320 470 210 182 43 115 219 263 
383 8 148 358 503 107 215 191 59 43 
384 9 189 13 204 53 504 462 311 132 301 
385 9 70 136 474 256 389 39 512 172 344 
386 7 416 96 164 101 395 486 445 
387 8 303 231 360 434 459 98 139 426 
388 9 322 493 471 22 270 65 342 71 497 
389 9 39 330 256 474 70 385 408 512 436 
390 9 421 292 72 220 108 9 112 433 375 
391 7 513 498 305 193 169 241 29 
392 8 248 271 264 424 481 21 123 218 
393 9 28 127 409 88 376 306 236 115 182 
394 8 57 152 282 373 354 396 63 267 
395 8 445 416 386 96 208 243 103 492 
396 8 373 152 354 297 394 63 57 254 
397 9 134 258 273 492 103 113 10 197 163 
398 8 431 298 406 158 175 229 51 42 
399 9 33 209 226 433 349 365 250 126 220 
400 7 277 76 340 372 19 82 437 
401 9 403 425 56 404 156 295 60 405 438 
402 7 323 379 423 483 198 348 83 
403 9 56 401 425 295 156 404 438 364 313 
404 9 401 425 7 60 403 11 405 56 190 
405 9 285 12 144 18 339 404 110 401 7 
406 9 217 398 359 42 85 431 99 298 469 
407 9 269 58 179 367 216 464 102 465 74 
408 8 280 330 6 301 39 389 256 474 
409 9 236 127 393 28 376 88 306 115 263 
410 9 294 69 435 146 430 36 377 190 428 
411 8 230 153 307 130 93 210 470 374 
412 9 201 324 224 23 357 188 21 183 419 
413 6 293 334 147 101 164 486 
414 9 140 253 171 304 161 288 149 114 184 
415 9 222 22 388 471 493 452 270 322 97 
416 8 386 96 395 164 101 486 445 243 
417 9 142 265 446 244 351 4 35 143 80 
418 9 90 355 114 499 296 159 196 288 414 
419 9 268 224 324 211 412 186 150 44 183 
420 9 207 484 457 16 375 89 122 108 40 
421 9 390 292 72 220 108 112 375 433 9 
422 9 368 336 429 505 104 249 251 30 128 
423 8 83 348 242 402 466 323 198 483 
424 8 481 21 392 271 188 248 264 247 
425 9 403 401 56 404 60 438 11 295 156 
426 8 41 98 434 117 387 303 456 231 
427 8 59 162 215 148 383 107 281 191 
428 9 377 487 480 458 66 36 146 294 435 
429 9 505 336 422 104 251 368 30 249 92 
430 9 69 410 294 356 485 435 144 146 190 
431 8 398 298 175 51 229 158 406 315 
432 2 218 14 
433 9 245 220 72 399 112 390 9 421 33 
434 9 231 387 303 360 459 48 117 139 426 
435 9 146 190 294 410 7 66 480 377 430 
436 8 512 136 474 70 326 119 385 389 
437 5 82 479 155 76 400 
438 9 26 425 60 56 313 403 350 364 401 
439 9 343 335 54 462 177 167 473 222 193 
440 9 116 79 508 32 353 185 262 300 506 
441 8 443 194 290 3 233 73 449 92 
442 7 352 276 202 463 157 109 45 
443 8 441 194 233 92 290 3 73 30 
444 8 494 93 130 466 472 327 153 242 
445 9 395 243 96 416 166 386 208 10 273 
446 9 4 143 244 417 489 228 168 35 142 
447 9 55 46 77 350 309 291 515 274 26 
448 9 15 338 48 317 78 477 139 459 461 
449 9 378 3 73 290 194 31 441 30 443 
450 7 123 257 239 287 289 100 498 
451 8 238 500 61 68 139 459 272 178 
452 9 97 22 284 415 333 137 222 388 322 
453 9 180 2 181 374 230 307 308 141 411 
454 9 84 131 34 312 138 362 111 272 315 
455 8 183 380 23 224 324 328 412 44 
456 8 158 252 331 98 298 42 303 398 
457 9 484 16 122 420 375 207 346 40 113 
458 8 490 487 428 154 480 66 510 377 
459 9 139 61 360 231 434 387 500 303 238 
460 9 99 359 133 297 52 92 396 128 233 
461 9 78 149 288 161 159 317 302 338 178 
462 9 439 343 222 54 335 415 204 167 13 
463 9 109 157 45 442 202 352 276 44 478 
464 9 367 187 8 216 214 213 58 87 407 
465 9 74 213 179 299 37 31 476 367 195 
466 9 242 444 206 423 118 507 494 511 199 
467 9 501 344 283 172 67 119 275 310 95 
468 9 205 86 295 364 62 56 313 156 267 
469 9 217 165 42 85 319 63 274 406 252 
470 8 210 382 320 173 182 230 43 411 
471 9 493 270 388 71 322 234 27 497 38 
472 5 327 494 444 242 93 
473 7 177 259 335 54 439 343 167 
474 9 389 330 39 70 256 385 512 436 136 
475 8 347 314 246 20 223 169 316 41 
476 9 195 105 279 212 213 17 8 378 465 
477 9 48 117 261 15 448 20 47 434 41 
478 9 44 186 150 45 109 245 463 157 9 
479 7 437 82 155 237 221 227 371 
480 9 66 487 7 11 146 190 428 435 377 
481 8 424 188 21 247 392 248 271 201 
482 9 192 94 489 372 228 143 76 4 496 
483 9 198 36 323 348 83 402 377 428 423 
484 9 420 457 207 375 16 122 108 89 40 
485 9 356 265 144 35 430 12 285 417 142 
486 9 164 96 101 286 416 386 243 413 293 
487 9 480 66 428 458 11 490 377 7 60 
488 6 129 219 263 236 215 43 
489 9 228 192 143 482 4 446 94 168 244 
490 7 458 487 160 124 11 480 428 
491 9 51 68 175 272 315 229 111 84 61 
492 9 103 258 273 10 134 208 397 395 318 
493 9 471 270 388 71 322 234 497 38 22 
494 8 444 472 327 93 130 466 153 242 
495 6 196 499 240 296 355 114 
496 9 341 372 76 82 155 91 482 437 479 
497 9 234 71 49 65 322 38 342 493 388 
498 8 287 289 100 305 391 513 239 257 
499 8 355 196 296 240 495 418 90 114 
500 8 238 451 61 68 139 459 272 491 
501 9 467 283 95 300 275 344 119 310 67 
502 9 151 95 275 506 369 232 300 262 310 
503 9 50 358 383 107 191 366 148 173 199 
504 7 132 311 53 204 147 293 6 
505 9 429 336 422 104 251 368 30 249 92 
506 9 262 300 95 116 502 151 440 275 79 
507 9 511 206 118 329 235 199 466 50 83 
508 9 185 79 32 353 25 440 170 121 116 
509 9 91 339 18 110 371 155 341 285 62 
510 6 154 75 458 332 490 328 
511 9 507 206 118 199 50 329 235 466 503 
512 9 436 136 70 474 119 385 389 326 283 
513 8 391 193 498 29 169 100 287 305 
514 1 55 
515 6 291 46 77 447 55 274 
DEPOT_SECTION
   1
   -1
EOF
