NAME :  X-n524-kX-w209-c7.cctp
COMMENT : 	Adapted by Maziero, Usberti and Cavellucci from the Uchoa, Pecin, Pessoa, Poggi, Subramanian, and Vidal (2013)
TYPE :  CCTP
DIMENSION :    511
EDGE_WEIGHT_TYPE : 	EUC_2D	
CAPACITY : 	125
VERTICES_WITHIN_COVERAGE :  7
VERTICES_WITH_DEMAND : 	209
NODE_COORD_SECTION
1 691 729
2 978 828
3 427 367
4 777 543
5 190 596
6 773 750
7 234 727
8 851 358
9 140 69
10 891 285
11 467 13
12 537 162
13 636 355
14 213 284
15 75 877
16 384 814
17 606 173
18 76 236
19 86 733
20 642 61
21 303 261
22 771 775
23 107 264
24 763 43
25 811 873
26 38 170
27 822 920
28 907 792
29 539 273
30 576 836
31 491 411
32 430 725
33 727 248
34 532 825
35 457 218
36 398 153
37 942 597
38 8 330
39 637 85
40 75 781
41 578 635
42 560 188
43 27 523
44 432 198
45 359 691
46 695 372
47 203 307
48 641 389
49 836 612
50 375 499
51 818 980
52 577 226
53 889 259
54 516 324
55 102 346
56 318 976
57 223 11
58 484 245
59 365 982
60 648 790
61 878 261
62 600 800
63 493 722
64 549 214
65 714 918
66 638 166
67 452 172
68 711 687
69 924 905
70 326 662
71 786 203
72 24 32
73 529 661
74 843 248
75 115 449
76 82 971
77 876 644
78 322 24
79 642 810
80 685 607
81 141 824
82 351 732
83 641 954
84 330 941
85 830 188
86 469 250
87 970 812
88 723 360
89 274 238
90 668 103
91 562 82
92 269 147
93 135 493
94 895 953
95 930 729
96 579 972
97 901 987
98 546 102
99 664 479
100 967 393
101 388 767
102 977 995
103 933 329
104 947 364
105 242 400
106 991 716
107 983 38
108 738 728
109 436 466
110 346 490
111 639 634
112 765 715
113 772 60
114 254 183
115 804 906
116 150 451
117 378 297
118 881 802
119 959 912
120 225 450
121 213 802
122 842 994
123 662 474
124 20 116
125 562 217
126 709 544
127 50 682
128 771 244
129 538 704
130 506 883
131 341 389
132 414 522
133 583 435
134 210 579
135 326 715
136 92 24
137 969 100
138 252 841
139 879 544
140 648 720
141 291 405
142 14 19
143 446 28
144 130 966
145 978 572
146 333 105
147 558 84
148 288 10
149 783 837
150 1000 230
151 319 895
152 76 494
153 289 952
154 254 165
155 915 405
156 151 945
157 407 685
158 294 824
159 106 831
160 373 284
161 875 321
162 768 758
163 735 150
164 304 323
165 760 158
166 277 663
167 217 608
168 712 264
169 958 12
170 879 873
171 52 214
172 63 197
173 690 714
174 579 862
175 313 245
176 32 608
177 9 608
178 840 747
179 152 742
180 994 868
181 294 57
182 76 784
183 302 11
184 527 742
185 753 939
186 156 870
187 571 127
188 913 884
189 922 146
190 900 41
191 346 427
192 637 341
193 162 87
194 581 979
195 93 14
196 888 48
197 168 188
198 427 499
199 856 260
200 54 332
201 459 387
202 118 61
203 754 299
204 233 411
205 883 640
206 288 268
207 489 533
208 720 892
209 115 418
210 22 358
211 839 126
212 516 272
213 162 208
214 361 714
215 157 512
216 855 12
217 798 356
218 882 889
219 554 183
220 354 851
221 21 719
222 812 664
223 650 254
224 196 793
225 668 231
226 57 773
227 911 335
228 490 922
229 371 480
230 723 473
231 223 658
232 234 50
233 408 609
234 118 434
235 393 488
236 225 141
237 444 66
238 547 252
239 132 189
240 865 488
241 106 475
242 636 540
243 104 269
244 135 647
245 222 849
246 844 424
247 94 941
248 325 93
249 957 47
250 172 293
251 381 958
252 148 504
253 588 69
254 863 453
255 709 51
256 129 266
257 679 164
258 977 422
259 372 843
260 912 957
261 1000 521
262 743 716
263 838 43
264 649 346
265 144 771
266 771 321
267 454 383
268 553 361
269 419 490
270 482 77
271 13 726
272 967 302
273 556 701
274 484 665
275 969 209
276 972 422
277 297 676
278 461 532
279 476 864
280 978 988
281 340 827
282 675 391
283 895 110
284 225 785
285 832 207
286 465 723
287 289 259
288 281 611
289 875 10
290 752 271
291 926 12
292 539 782
293 25 72
294 530 546
295 772 963
296 724 627
297 791 367
298 375 323
299 0 91
300 385 995
301 132 510
302 941 144
303 488 274
304 403 745
305 965 258
306 456 817
307 313 773
308 486 256
309 657 8
310 231 914
311 256 745
312 668 922
313 528 298
314 153 272
315 303 733
316 814 649
317 352 306
318 187 498
319 141 175
320 115 362
321 857 350
322 878 459
323 663 898
324 592 503
325 222 391
326 846 792
327 461 617
328 290 396
329 333 441
330 292 402
331 522 501
332 489 939
333 781 370
334 197 119
335 582 192
336 299 353
337 506 792
338 638 178
339 755 124
340 654 335
341 917 986
342 277 98
343 986 960
344 66 850
345 623 623
346 602 913
347 674 0
348 125 625
349 937 264
350 430 671
351 171 691
352 1 656
353 374 862
354 407 938
355 284 116
356 939 702
357 155 256
358 504 293
359 770 501
360 764 790
361 702 683
362 525 835
363 839 711
364 379 711
365 140 264
366 597 673
367 657 752
368 265 523
369 798 514
370 679 437
371 843 272
372 981 47
373 708 837
374 55 768
375 965 58
376 664 373
377 103 28
378 841 826
379 47 539
380 530 354
381 924 776
382 477 784
383 69 282
384 371 110
385 309 154
386 234 333
387 460 499
388 61 527
389 104 132
390 711 178
391 47 755
392 357 66
393 332 541
394 332 390
395 860 711
396 817 206
397 853 658
398 440 187
399 603 576
400 438 190
401 857 282
402 169 702
403 461 299
404 878 549
405 252 181
406 714 846
407 196 92
408 995 201
409 780 638
410 724 171
411 650 937
412 353 961
413 505 953
414 801 374
415 239 74
416 718 26
417 325 941
418 0 789
419 461 518
420 461 432
421 330 888
422 391 542
423 548 841
424 965 772
425 252 790
426 181 188
427 61 446
428 215 324
429 181 749
430 562 764
431 678 70
432 985 664
433 344 341
434 678 370
435 118 587
436 483 572
437 913 258
438 548 391
439 669 600
440 951 149
441 735 621
442 474 67
443 615 218
444 854 798
445 850 728
446 928 10
447 154 235
448 390 924
449 768 589
450 4 303
451 204 802
452 43 400
453 525 257
454 673 778
455 850 158
456 593 392
457 123 233
458 935 921
459 130 687
460 394 334
461 765 405
462 625 734
463 540 408
464 881 423
465 358 553
466 903 236
467 524 486
468 64 121
469 11 847
470 758 962
471 981 723
472 36 659
473 539 348
474 506 458
475 762 62
476 465 529
477 956 508
478 294 792
479 173 89
480 96 995
481 982 670
482 593 42
483 473 529
484 256 579
485 538 566
486 706 808
487 373 748
488 252 819
489 260 698
490 538 250
491 348 539
492 952 444
493 716 841
494 84 185
495 320 795
496 168 346
497 857 379
498 84 839
499 901 930
500 637 820
501 297 973
502 61 140
503 804 298
504 795 51
505 979 294
506 492 157
507 324 520
508 285 618
509 672 535
510 306 601
511 832 980
DEMAND_SECTION
2 95
3 66
4 66
5 50
6 55
7 91
8 100
9 73
10 96
11 85
12 82
13 72
14 77
15 62
16 86
17 100
18 63
19 94
20 97
21 78
22 94
23 83
24 90
25 71
26 59
27 88
28 50
29 65
30 75
31 50
32 56
33 90
34 56
35 71
36 95
37 93
38 97
39 79
40 94
41 69
42 90
43 63
44 93
45 82
46 53
47 92
48 70
49 88
50 57
51 93
52 69
53 66
54 98
55 75
56 69
57 87
58 69
59 55
60 64
61 92
62 96
63 80
64 85
65 66
66 99
67 54
68 77
69 67
70 77
71 66
72 74
73 93
74 81
75 60
76 73
77 64
78 84
79 60
80 57
81 95
82 63
83 51
84 77
85 67
86 70
87 98
88 66
89 60
90 56
91 72
92 77
93 71
94 51
95 79
96 97
97 93
98 84
99 79
100 75
101 86
102 58
103 65
104 54
105 57
106 81
107 88
108 85
109 82
110 82
111 81
112 59
113 81
114 94
115 82
116 81
117 94
118 75
119 63
120 95
121 54
122 85
123 52
124 53
125 67
126 56
127 61
128 53
129 80
130 76
131 56
132 52
133 61
134 53
135 87
136 95
137 73
138 52
139 60
140 91
141 98
142 58
143 65
144 88
145 60
146 62
147 97
148 96
149 59
150 76
151 83
152 64
153 83
154 65
155 57
156 55
157 93
158 71
159 89
160 69
161 93
162 86
163 99
164 70
165 56
166 75
167 95
168 60
169 54
170 57
171 89
172 53
173 73
174 78
175 76
176 55
177 96
178 80
179 58
180 83
181 75
182 84
183 69
184 90
185 57
186 61
187 100
188 95
189 59
190 60
191 74
192 55
193 92
194 76
195 70
196 92
197 85
198 85
199 51
200 61
201 63
202 59
203 86
204 86
205 71
206 50
207 6
208 6
209 10
210 2
COVERAGE_SECTION
2 7 87 180 424 381 28 119 188 
3 7 267 201 460 298 420 403 31 
4 7 369 359 449 126 230 441 49 
5 7 134 167 484 231 348 435 244 
6 7 162 22 112 108 360 262 178 
7 7 311 489 429 284 425 315 231 
8 7 321 497 161 414 217 297 227 
9 7 202 193 479 377 407 136 195 
10 7 53 61 401 437 161 199 371 
11 7 143 442 237 270 147 91 98 
12 7 219 42 506 187 64 335 125 
13 7 192 264 340 376 48 434 282 
14 7 47 428 250 386 314 357 89 
15 7 344 498 159 247 469 186 81 
16 7 259 281 101 220 353 487 495 
17 7 335 338 66 443 42 219 187 
18 7 171 172 23 243 383 457 494 
19 7 391 374 40 226 182 127 459 
20 7 39 431 90 482 253 309 255 
21 7 287 206 175 89 164 317 160 
22 7 162 360 6 108 112 149 262 
23 7 243 256 365 457 18 383 314 
24 7 113 475 504 416 255 263 339 
25 7 115 149 27 378 170 218 444 
26 7 172 502 171 494 468 124 18 
27 7 115 25 51 511 295 218 185 
28 7 381 118 444 326 424 87 95 
29 7 453 238 212 490 313 358 303 
30 7 174 423 62 34 362 500 292 
31 7 420 201 267 463 474 438 380 
32 7 304 286 157 364 350 101 487 
33 7 168 290 128 203 225 390 71 
34 7 362 423 337 292 30 174 130 
35 7 44 86 400 398 58 67 308 
36 7 384 398 400 44 67 146 35 
37 7 145 205 404 432 77 139 481 
38 7 450 210 200 383 452 55 320 
39 7 20 90 431 253 482 91 187 
40 7 182 226 374 391 19 159 498 
41 7 366 345 73 111 399 273 129 
42 7 219 335 64 125 12 52 17 
43 7 379 388 152 427 176 177 241 
44 7 400 398 35 67 36 86 58 
45 7 214 364 135 82 70 157 487 
46 7 434 282 88 376 264 340 48 
47 7 428 14 250 386 496 314 357 
48 7 376 13 282 434 264 192 456 
49 7 316 397 77 205 222 409 449 
50 7 229 235 110 132 269 422 491 
51 7 511 122 295 27 470 115 185 
52 7 125 64 335 443 238 42 490 
53 7 61 437 10 466 199 401 74 
54 7 313 358 380 473 212 268 29 
55 7 320 200 496 383 209 243 452 
56 7 501 417 84 153 412 59 251 
57 7 232 148 415 183 181 407 479 
58 7 308 86 303 35 212 453 358 
59 6 300 412 251 56 84 417 
60 7 79 454 500 367 62 462 486 
61 7 53 199 10 401 437 466 74 
62 7 500 30 79 60 430 292 174 
63 7 286 184 129 274 32 382 273 
64 7 125 42 52 219 238 490 335 
65 7 208 185 312 323 470 411 406 
66 7 338 17 257 443 335 90 225 
67 7 398 400 44 506 35 36 58 
68 7 361 173 262 108 112 296 441 
69 7 458 188 499 119 218 260 170 
70 7 277 45 166 135 508 214 510 
71 7 396 128 85 285 165 410 74 
72 7 142 293 299 136 195 377 124 
73 7 129 274 273 41 366 63 184 
74 7 199 371 61 401 285 53 396 
75 7 234 241 209 116 93 427 152 
76 7 480 247 144 156 15 344 186 
77 7 205 397 49 316 222 395 363 
78 7 183 148 181 392 248 146 342 
79 7 500 60 62 454 367 486 30 
80 7 439 296 441 111 345 126 509 
81 7 159 186 265 498 224 451 121 
82 7 214 487 135 364 45 315 101 
83 7 411 312 346 323 96 194 65 
84 7 417 412 56 153 501 151 421 
85 7 285 396 455 71 74 211 165 
86 7 58 308 303 35 403 212 358 
87 7 2 424 381 180 28 118 471 
88 7 46 434 282 333 376 266 461 
89 7 287 206 21 175 114 405 14 
90 7 431 39 20 257 255 66 338 
91 7 147 98 253 187 482 39 270 
92 7 154 355 405 114 385 236 342 
93 7 252 301 215 241 116 75 318 
94 7 260 499 97 341 458 69 218 
95 7 356 381 471 424 106 28 395 
96 7 194 346 83 413 411 332 228 
97 7 341 260 94 499 122 511 458 
98 7 147 91 187 253 12 270 482 
99 7 123 370 509 230 242 324 126 
100 7 276 258 104 155 492 103 227 
101 7 487 304 16 82 364 32 214 
102 7 280 343 341 260 97 119 458 
103 7 227 104 272 505 161 10 349 
104 7 100 103 227 155 276 258 272 
105 7 204 325 328 141 330 120 386 
106 7 471 481 432 356 95 424 381 
107 7 372 375 249 169 446 291 137 
108 7 262 112 6 162 68 173 22 
109 7 269 198 387 420 235 419 132 
110 7 229 50 507 235 491 329 393 
111 7 345 439 80 366 41 399 361 
112 7 262 108 6 162 22 68 222 
113 7 475 24 504 255 416 339 263 
114 7 405 154 92 236 89 385 355 
115 7 27 25 185 295 149 470 51 
116 7 75 234 93 209 241 252 318 
117 7 160 298 317 460 433 164 21 
118 7 444 28 326 378 381 178 170 
119 7 458 69 188 343 180 499 260 
120 7 204 105 325 318 116 141 330 
121 7 451 224 284 425 488 245 138 
122 7 511 51 97 94 341 27 295 
123 7 99 370 230 509 242 324 126 
124 7 299 293 468 502 26 72 389 
125 7 64 52 42 335 219 238 490 
126 7 509 80 4 439 230 242 449 
127 7 472 221 352 271 19 391 176 
128 7 290 33 71 203 396 168 503 
129 7 273 184 73 63 430 274 366 
130 6 279 228 362 332 423 34 
131 7 394 191 433 328 330 141 329 
132 7 198 422 269 235 50 419 278 
133 6 456 463 438 324 48 467 
134 7 5 167 484 288 368 231 318 
135 7 315 82 214 45 277 70 364 
136 7 195 377 202 9 72 142 293 
137 7 375 302 440 249 372 107 189 
138 7 488 245 158 425 121 284 451 
139 7 404 240 49 37 322 477 369 
140 7 462 367 173 454 361 366 60 
141 7 330 328 394 105 131 336 329 
142 7 72 293 299 136 195 377 124 
143 7 11 237 442 270 392 384 78 
144 7 156 247 480 76 186 15 310 
145 7 37 261 477 432 481 139 404 
146 7 248 384 392 355 385 342 181 
147 7 91 98 253 187 482 270 39 
148 7 183 78 181 57 232 415 342 
149 7 25 360 378 22 493 406 115 
150 7 408 275 305 505 349 272 437 
151 7 421 417 84 220 153 353 281 
152 7 241 388 427 379 43 301 93 
153 7 501 56 417 84 151 412 310 
154 7 405 114 92 236 385 355 342 
155 7 464 104 100 492 276 258 497 
156 7 144 247 76 480 186 310 15 
157 7 350 364 32 45 214 304 286 
158 7 478 495 488 138 281 307 425 
159 7 498 81 344 15 182 40 186 
160 7 117 317 298 460 433 175 21 
161 7 321 10 227 401 8 103 371 
162 7 6 22 360 108 112 262 178 
163 7 410 165 339 390 257 71 90 
164 7 336 433 317 206 21 287 298 
165 7 163 339 410 71 390 396 85 
166 7 277 489 508 70 288 231 510 
167 7 5 134 484 231 288 508 166 
168 7 33 290 203 225 128 223 266 
169 7 446 291 249 107 372 375 190 
170 7 218 188 69 378 499 25 118 
171 7 172 18 494 26 383 457 23 
172 7 171 494 26 18 502 239 457 
173 7 361 68 140 108 367 262 454 
174 7 30 423 346 34 362 62 500 
175 7 21 287 206 89 160 317 164 
176 7 177 472 352 379 127 43 388 
177 7 176 352 472 379 127 43 388 
178 7 445 363 395 326 444 6 118 
179 7 265 429 402 351 459 19 224 
180 7 2 119 87 69 458 188 343 
181 7 78 342 148 183 248 415 232 
182 7 40 226 374 391 19 159 498 
183 7 148 78 181 232 392 57 248 
184 7 63 129 430 292 273 337 286 
185 7 470 295 65 208 115 27 51 
186 7 81 159 245 156 498 15 451 
187 7 98 147 91 12 17 219 253 
188 7 69 218 170 458 499 119 94 
189 7 302 440 283 137 455 275 211 
190 7 196 291 289 446 216 249 263 
191 7 329 131 394 141 229 330 110 
192 7 264 13 340 376 48 434 282 
193 7 479 9 407 334 202 389 415 
194 7 96 83 346 413 411 332 312 
195 7 136 377 202 72 9 142 293 
196 7 190 289 216 263 291 446 283 
197 7 426 213 319 239 447 457 357 
198 7 269 132 387 109 235 419 278 
199 7 74 371 61 401 53 10 466 
200 7 210 38 55 383 450 320 452 
201 7 267 3 31 420 380 109 460 
202 7 9 377 136 193 195 479 389 
203 7 266 290 503 168 33 128 88 
204 7 105 325 120 141 328 330 386 
205 7 77 397 49 316 37 222 395 
206 7 287 21 89 175 164 317 14 
207 7 483 476 278 419 436 294 387 
208 7 65 406 493 373 185 323 312 
209 7 234 75 116 320 241 427 55 
210 7 38 200 452 450 55 383 320 
211 7 455 283 85 285 263 396 339 
212 7 453 29 358 303 313 490 308 
213 7 197 426 447 239 319 457 357 
214 7 364 82 45 135 487 304 157 
215 7 252 301 93 318 116 241 75 
216 7 289 263 196 190 291 504 446 
217 7 297 414 333 266 8 503 321 
218 7 170 188 69 499 458 94 27 
219 7 42 12 335 64 125 52 17 
220 7 259 353 281 421 16 151 158 
221 7 271 391 127 374 472 226 19 
222 7 316 397 409 363 49 77 395 
223 7 225 443 168 33 338 52 340 
224 7 451 121 284 429 265 425 245 
225 7 223 168 443 33 338 257 390 
226 7 374 40 391 182 19 418 271 
227 7 103 161 104 10 321 8 272 
228 4 332 413 130 279 
229 7 50 235 110 269 329 191 198 
230 5 359 370 99 123 126 
231 7 167 166 489 351 5 7 402 
232 7 415 57 407 181 342 148 479 
233 6 327 350 422 465 157 436 
234 7 75 209 116 241 427 93 320 
235 7 50 229 269 198 132 110 109 
236 7 334 154 92 405 114 407 355 
237 7 442 143 270 11 384 392 36 
238 7 490 29 453 212 64 125 52 
239 7 319 197 213 457 494 426 447 
240 6 322 254 139 404 246 464 
241 7 75 93 152 234 301 116 252 
242 4 509 399 324 99 
243 7 23 256 365 383 457 18 314 
244 7 348 459 351 435 402 5 231 
245 7 138 488 121 451 224 284 310 
246 6 254 464 497 322 8 414 
247 7 76 144 480 156 15 186 344 
248 7 146 392 355 181 342 384 385 
249 7 375 372 107 169 291 446 137 
250 7 314 47 357 14 365 256 428 
251 5 412 59 354 448 300 
252 7 215 93 301 318 241 116 75 
253 7 482 91 147 39 98 20 187 
254 6 322 240 246 464 155 497 
255 7 416 431 475 24 347 113 90 
256 7 365 23 243 314 357 457 447 
257 7 390 66 338 410 163 90 225 
258 7 276 100 492 155 104 477 464 
259 6 353 220 16 281 421 495 
260 7 94 341 499 97 458 69 119 
261 7 477 145 492 37 258 276 139 
262 7 108 112 68 6 162 173 361 
263 7 216 504 196 289 190 113 24 
264 7 340 192 13 376 434 48 282 
265 7 179 429 81 224 451 19 182 
266 7 203 503 217 297 333 290 414 
267 7 201 3 31 420 460 380 403 
268 7 473 380 438 463 456 54 313 
269 7 198 235 109 132 387 50 229 
270 7 442 237 143 11 98 147 91 
271 7 221 391 127 374 226 418 352 
272 7 505 103 305 349 104 227 437 
273 7 129 73 184 366 430 63 41 
274 7 73 327 350 63 286 129 157 
275 7 408 150 305 440 349 302 466 
276 7 258 100 492 155 104 477 464 
277 7 166 70 489 135 315 508 45 
278 7 476 483 419 207 387 436 198 
279 5 130 306 362 228 34 
280 7 102 343 341 260 97 119 458 
281 7 220 259 495 16 158 353 478 
282 7 376 434 46 48 370 264 13 
283 7 189 302 211 196 455 440 190 
284 7 121 425 451 224 488 311 429 
285 7 396 85 74 71 455 199 371 
286 7 63 32 274 382 350 184 304 
287 7 206 21 89 175 164 317 14 
288 7 508 510 484 166 167 277 70 
289 7 216 190 196 263 291 446 169 
290 7 203 128 33 168 266 503 71 
291 7 446 169 190 249 289 196 375 
292 7 430 337 184 34 362 423 382 
293 7 299 72 124 142 468 502 136 
294 5 485 207 331 436 483 
295 7 470 185 51 511 115 27 65 
296 7 441 80 409 449 361 68 439 
297 6 333 414 217 461 266 8 
298 7 460 117 317 433 160 3 164 
299 7 293 124 72 468 142 502 26 
300 4 59 251 412 354 
301 7 93 252 215 241 318 152 116 
302 7 440 189 137 283 275 408 375 
303 7 308 358 212 58 86 403 453 
304 7 101 487 32 364 214 82 157 
305 7 349 505 272 150 275 437 408 
306 6 382 279 337 362 16 34 
307 7 495 478 315 158 82 135 281 
308 7 58 86 303 212 453 358 35 
309 7 347 20 416 431 255 482 39 
310 7 245 153 138 156 186 501 151 
311 7 7 425 489 315 284 478 307 
312 7 411 323 83 65 208 346 185 
313 7 358 29 54 212 453 303 490 
314 7 365 357 256 250 447 23 243 
315 7 135 307 82 311 489 277 478 
316 7 222 409 397 49 77 363 205 
317 7 117 298 160 433 460 164 21 
318 7 215 252 93 301 116 120 368 
319 7 239 197 213 426 389 494 447 
320 7 55 496 209 200 234 452 75 
321 7 8 497 161 227 217 414 297 
322 6 254 240 464 246 155 492 
323 7 312 411 65 208 83 346 406 
324 3 242 133 331 
325 7 105 204 120 386 428 328 141 
326 7 444 378 118 178 28 445 22 
327 7 436 274 233 350 73 278 157 
328 7 330 141 394 336 105 131 204 
329 7 191 110 394 131 229 141 330 
330 7 141 328 394 336 105 131 329 
331 6 467 207 294 474 483 387 
332 4 228 413 130 279 
333 6 297 414 217 461 266 88 
334 7 407 236 479 193 415 426 154 
335 7 42 219 17 125 52 64 443 
336 7 164 328 433 330 394 141 131 
337 7 382 292 34 362 184 306 430 
338 7 66 17 257 443 335 225 390 
339 7 163 165 410 475 113 390 24 
340 7 264 192 13 376 434 46 48 
341 7 97 260 94 499 102 280 458 
342 7 355 181 415 248 92 146 232 
343 7 280 102 119 458 260 341 69 
344 7 498 15 159 469 182 40 226 
345 7 111 41 399 439 366 80 242 
346 7 411 174 83 96 323 312 194 
347 7 309 416 255 20 431 482 39 
348 7 244 435 459 5 351 402 127 
349 7 437 305 466 53 272 10 505 
350 7 157 32 274 327 286 364 233 
351 7 402 459 179 244 429 231 7 
352 7 472 177 127 176 221 271 391 
353 6 259 220 16 281 421 151 
354 4 448 251 412 59 
355 7 342 92 385 248 146 154 181 
356 7 95 471 106 481 432 424 381 
357 7 314 365 447 256 457 250 23 
358 7 212 303 313 54 29 308 453 
359 4 369 4 230 126 
360 7 22 162 6 149 486 108 493 
361 7 68 173 262 108 296 140 441 
362 7 34 423 337 30 130 292 279 
363 7 445 395 178 222 397 316 112 
364 7 214 45 82 487 157 304 32 
365 7 256 314 357 447 23 457 243 
366 7 41 273 345 111 129 462 73 
367 7 454 140 462 60 173 79 500 
368 7 484 507 393 134 318 120 491 
369 5 359 4 240 449 230 
370 7 123 99 282 230 48 376 46 
371 7 401 199 74 61 503 53 10 
372 7 107 375 249 169 137 291 446 
373 7 493 406 486 208 454 79 360 
374 7 226 391 40 182 19 271 418 
375 7 249 372 107 137 169 291 446 
376 7 434 282 48 46 264 13 340 
377 7 136 195 202 9 72 193 142 
378 7 444 326 118 25 149 170 28 
379 7 388 43 152 176 177 435 241 
380 7 473 268 54 438 463 313 358 
381 7 28 424 95 118 87 444 2 
382 7 337 306 286 292 63 184 34 
383 7 243 23 18 200 256 450 171 
384 7 146 392 248 36 385 237 355 
385 7 92 355 146 154 114 248 405 
386 7 428 47 14 325 105 496 336 
387 7 419 476 198 278 483 109 269 
388 7 379 43 152 241 301 93 427 
389 7 468 502 319 494 239 202 9 
390 7 410 257 163 165 225 339 33 
391 7 374 226 40 182 221 19 271 
392 7 248 146 384 78 181 183 342 
393 6 491 507 465 110 422 50 
394 7 131 191 328 330 141 336 433 
395 7 445 363 178 397 222 77 95 
396 7 285 85 71 74 455 128 199 
397 7 77 205 316 222 49 395 363 
398 7 400 44 67 35 36 506 86 
399 4 242 345 41 485 
400 7 398 44 67 35 36 506 86 
401 7 371 199 61 10 74 53 161 
402 7 351 459 179 429 244 7 231 
403 7 303 358 86 308 58 54 212 
404 7 139 240 49 37 369 477 322 
405 7 114 154 92 236 89 385 426 
406 7 493 373 486 208 149 65 323 
407 7 479 334 193 415 232 236 9 
408 7 275 150 305 440 302 349 189 
409 7 316 222 441 449 296 49 397 
410 7 390 163 165 257 339 71 33 
411 7 83 312 323 346 65 96 194 
412 7 59 251 84 417 56 300 448 
413 5 332 228 130 96 194 
414 7 297 217 333 461 8 497 266 
415 7 232 342 407 181 334 355 57 
416 7 255 24 347 475 431 113 309 
417 7 84 412 56 153 501 151 421 
418 7 391 226 374 469 271 221 40 
419 7 476 278 483 387 207 198 132 
420 7 31 109 201 267 474 387 269 
421 7 151 220 353 84 417 259 281 
422 6 132 465 491 50 235 198 
423 7 34 362 30 174 130 292 337 
424 7 87 381 471 95 2 28 106 
425 7 284 488 121 478 311 451 138 
426 7 197 213 319 239 447 236 334 
427 7 452 152 75 241 234 209 388 
428 7 47 386 14 496 250 325 105 
429 7 179 265 224 402 7 284 451 
430 7 292 184 62 273 337 129 34 
431 7 90 255 20 39 416 309 347 
432 7 481 106 471 356 37 95 145 
433 7 298 317 164 336 131 394 460 
434 7 376 46 282 264 48 340 13 
435 7 348 244 5 301 388 215 379 
436 7 207 483 278 476 327 294 485 
437 7 53 466 349 10 61 305 199 
438 7 463 268 380 473 456 133 31 
439 7 80 111 345 296 509 242 126 
440 7 302 189 137 275 283 408 375 
441 7 296 449 409 80 439 68 361 
442 7 270 237 143 11 98 147 91 
443 7 52 335 17 338 223 125 225 
444 7 326 118 378 28 178 445 381 
445 7 363 395 178 326 397 444 222 
446 7 291 169 190 249 289 196 375 
447 7 357 213 457 365 314 256 197 
448 4 354 251 412 84 
449 7 441 4 409 296 49 126 316 
450 7 38 200 210 383 18 171 452 
451 7 121 224 284 425 245 488 429 
452 7 210 427 200 209 38 55 320 
453 7 490 212 29 238 308 303 313 
454 7 60 367 79 486 500 140 462 
455 7 211 85 285 396 283 189 71 
456 7 133 438 48 268 463 13 192 
457 7 447 256 23 365 357 243 239 
458 7 69 119 499 188 260 94 218 
459 7 244 351 402 179 348 19 127 
460 7 298 117 3 317 433 160 131 
461 5 333 297 414 217 88 
462 7 140 367 60 454 366 173 430 
463 7 438 31 268 133 380 456 473 
464 6 254 322 246 155 497 240 
465 6 491 393 422 507 50 110 
466 7 437 53 61 349 10 199 74 
467 6 331 474 207 294 387 483 
468 7 502 389 124 26 293 494 299 
469 7 344 418 15 498 226 374 182 
470 7 295 185 65 51 115 511 27 
471 7 106 356 95 424 481 432 381 
472 7 127 352 176 177 221 271 19 
473 7 380 268 54 438 313 463 358 
474 6 467 331 31 420 463 387 
475 7 113 24 504 255 416 339 263 
476 7 278 483 419 207 387 436 198 
477 7 261 492 145 139 276 404 258 
478 7 495 307 158 425 488 281 311 
479 7 193 407 334 9 202 415 232 
480 7 76 144 247 156 15 186 344 
481 7 432 106 471 356 95 37 145 
482 7 253 91 20 147 39 309 98 
483 7 476 278 207 419 387 436 198 
484 7 288 134 167 508 510 368 5 
485 5 294 436 207 399 331 
486 7 373 493 406 454 60 360 79 
487 7 101 82 304 214 364 135 45 
488 7 138 425 158 245 121 284 478 
489 7 7 166 277 311 231 315 135 
490 7 238 453 29 212 64 125 52 
491 6 393 465 507 422 50 110 
492 7 276 258 100 155 477 464 322 
493 7 406 373 486 208 149 360 454 
494 7 172 171 26 239 502 18 389 
495 7 307 478 281 158 315 220 16 
496 7 47 428 250 320 55 386 325 
497 7 8 321 246 464 414 161 217 
498 7 344 159 15 182 40 81 226 
499 7 94 260 69 458 218 188 97 
500 7 79 60 62 454 30 486 367 
501 7 56 153 417 84 412 59 151 
502 7 468 26 389 124 494 172 171 
503 7 266 371 203 401 217 290 74 
504 7 113 24 475 263 216 416 339 
505 7 272 305 349 103 150 437 104 
506 7 67 12 398 400 219 35 44 
507 6 393 491 110 465 50 368 
508 7 288 510 166 484 277 70 167 
509 6 242 126 99 123 439 80 
510 6 288 508 484 70 393 166 
511 7 51 122 27 295 94 97 470 
DEPOT_SECTION
   1
   -1
EOF
