NAME :  X-n536-kX-w214-c11.cctp
COMMENT : 	Adapted by Maziero, Usberti and Cavellucci from the Uchoa, Pecin, Pessoa, Poggi, Subramanian, and Vidal (2013)
TYPE :  CCTP
DIMENSION :    534
EDGE_WEIGHT_TYPE : 	EUC_2D	
CAPACITY : 	371
VERTICES_WITHIN_COVERAGE :  11
VERTICES_WITH_DEMAND : 	214
NODE_COORD_SECTION
1 500 500
2 957 135
3 149 141
4 1 96
5 228 268
6 781 529
7 867 797
8 109 53
9 9 127
10 258 317
11 89 54
12 167 155
13 739 534
14 962 896
15 975 122
16 960 68
17 205 52
18 841 806
19 739 677
20 90 192
21 842 772
22 972 143
23 27 85
24 953 240
25 185 211
26 652 428
27 764 523
28 159 142
29 101 113
30 879 837
31 885 326
32 953 118
33 777 491
34 65 66
35 976 171
36 961 748
37 710 493
38 778 708
39 277 223
40 88 112
41 172 57
42 2 209
43 121 64
44 938 29
45 166 160
46 142 97
47 84 284
48 269 224
49 940 727
50 876 822
51 131 169
52 951 768
53 278 21
54 292 280
55 672 616
56 94 96
57 212 89
58 270 368
59 852 777
60 170 200
61 848 123
62 951 777
63 756 532
64 101 29
65 136 52
66 831 553
67 953 784
68 170 135
69 861 728
70 172 133
71 826 899
72 832 615
73 142 249
74 900 565
75 735 672
76 837 833
77 723 538
78 931 862
79 214 45
80 938 2
81 918 296
82 931 760
83 994 40
84 302 389
85 115 120
86 138 134
87 764 502
88 962 408
89 888 216
90 209 168
91 100 131
92 900 163
93 15 209
94 219 170
95 782 310
96 922 706
97 279 265
98 750 566
99 276 393
100 133 16
101 372 183
102 761 503
103 116 205
104 33 8
105 203 336
106 240 222
107 95 100
108 261 357
109 633 551
110 904 796
111 12 26
112 288 231
113 861 613
114 245 331
115 815 790
116 257 215
117 949 42
118 83 118
119 529 414
120 462 64
121 146 141
122 799 566
123 618 497
124 742 619
125 954 95
126 57 141
127 133 147
128 179 120
129 938 798
130 92 54
131 188 352
132 211 240
133 866 805
134 660 583
135 74 30
136 119 236
137 120 81
138 69 324
139 719 569
140 788 550
141 120 172
142 14 196
143 179 85
144 171 66
145 107 83
146 861 867
147 108 141
148 272 82
149 838 505
150 43 122
151 617 454
152 28 140
153 91 118
154 880 814
155 833 431
156 130 386
157 670 343
158 940 211
159 708 548
160 695 683
161 71 239
162 804 481
163 181 205
164 237 246
165 783 600
166 987 269
167 851 904
168 193 200
169 156 48
170 169 133
171 824 526
172 52 78
173 636 413
174 158 202
175 661 518
176 503 293
177 575 564
178 227 248
179 90 2
180 122 18
181 786 523
182 960 117
183 958 161
184 752 556
185 24 141
186 116 95
187 371 175
188 184 142
189 937 88
190 875 736
191 22 198
192 882 774
193 639 445
194 810 457
195 127 62
196 5 118
197 95 143
198 876 63
199 285 103
200 773 583
201 81 381
202 238 111
203 192 112
204 174 145
205 778 665
206 511 970
207 22 131
208 196 67
209 261 221
210 782 505
211 220 252
212 173 150
213 816 601
214 806 559
215 14 85
216 256 96
217 278 754
218 110 144
219 779 840
220 726 649
221 24 33
222 789 502
223 891 441
224 139 183
225 866 897
226 689 824
227 853 747
228 863 901
229 155 178
230 969 132
231 299 256
232 158 110
233 159 108
234 909 804
235 125 34
236 22 156
237 573 369
238 815 507
239 6 58
240 917 123
241 240 291
242 986 55
243 818 595
244 253 263
245 943 195
246 131 242
247 30 327
248 778 781
249 981 137
250 121 775
251 954 848
252 797 822
253 954 250
254 225 255
255 174 53
256 956 816
257 214 280
258 805 500
259 873 491
260 256 117
261 50 35
262 185 185
263 65 68
264 207 260
265 156 61
266 49 5
267 71 6
268 927 138
269 140 191
270 814 161
271 850 719
272 176 26
273 991 261
274 848 439
275 929 775
276 153 149
277 185 155
278 230 56
279 170 174
280 239 290
281 63 148
282 781 515
283 99 71
284 148 140
285 791 748
286 924 218
287 803 391
288 82 136
289 876 669
290 310 69
291 66 21
292 736 530
293 701 510
294 875 534
295 687 967
296 63 50
297 759 255
298 230 7
299 874 209
300 695 484
301 849 700
302 251 194
303 739 85
304 851 157
305 794 978
306 242 319
307 821 949
308 244 217
309 961 173
310 110 95
311 50 170
312 919 814
313 189 198
314 978 223
315 47 97
316 959 147
317 156 229
318 53 374
319 169 153
320 936 80
321 772 613
322 205 289
323 226 227
324 951 155
325 881 702
326 191 58
327 126 58
328 722 532
329 921 656
330 168 349
331 85 69
332 810 844
333 113 73
334 863 716
335 862 810
336 250 187
337 25 56
338 203 221
339 969 661
340 719 562
341 884 752
342 241 314
343 764 525
344 132 265
345 144 344
346 573 430
347 276 185
348 247 342
349 837 453
350 888 516
351 219 242
352 295 317
353 228 115
354 815 268
355 351 420
356 67 154
357 893 135
358 863 815
359 159 324
360 28 41
361 711 120
362 94 122
363 873 783
364 964 182
365 303 71
366 801 527
367 743 469
368 263 62
369 691 763
370 981 160
371 226 261
372 231 277
373 0 66
374 48 108
375 162 295
376 680 554
377 199 93
378 848 757
379 92 81
380 203 265
381 98 266
382 67 156
383 148 150
384 988 69
385 741 524
386 961 140
387 132 74
388 828 773
389 785 734
390 69 154
391 48 26
392 700 593
393 142 62
394 198 427
395 781 499
396 980 94
397 828 87
398 26 148
399 194 252
400 981 717
401 884 608
402 797 521
403 875 253
404 502 408
405 295 92
406 5 77
407 164 234
408 63 110
409 117 104
410 46 147
411 900 127
412 219 151
413 319 211
414 837 700
415 109 209
416 696 686
417 868 544
418 293 351
419 167 171
420 357 171
421 183 209
422 99 228
423 897 821
424 209 175
425 219 49
426 188 30
427 261 197
428 242 211
429 958 11
430 824 818
431 156 230
432 109 154
433 194 32
434 920 831
435 995 157
436 760 310
437 180 73
438 98 90
439 946 255
440 953 881
441 162 8
442 883 804
443 232 412
444 109 131
445 883 880
446 813 219
447 242 262
448 232 252
449 352 260
450 813 936
451 362 335
452 64 199
453 890 788
454 901 823
455 942 120
456 688 799
457 662 470
458 300 261
459 967 790
460 965 126
461 102 58
462 794 886
463 788 252
464 116 327
465 763 349
466 1000 129
467 814 388
468 198 136
469 425 178
470 227 226
471 311 229
472 161 159
473 106 161
474 287 271
475 695 660
476 207 138
477 112 6
478 915 537
479 169 94
480 769 555
481 158 72
482 35 268
483 790 842
484 80 321
485 150 503
486 89 287
487 645 573
488 190 296
489 165 193
490 135 337
491 978 234
492 138 28
493 223 78
494 865 815
495 883 795
496 113 268
497 143 232
498 235 221
499 840 666
500 197 130
501 101 121
502 786 589
503 153 12
504 152 191
505 209 267
506 232 124
507 89 490
508 759 490
509 674 703
510 109 317
511 46 93
512 250 203
513 741 662
514 924 148
515 622 606
516 730 561
517 910 118
518 21 113
519 879 493
520 72 281
521 961 782
522 158 80
523 926 766
524 800 624
525 989 133
526 21 106
527 802 534
528 601 532
529 928 976
530 162 281
531 134 76
532 901 235
533 348 278
534 31 94
DEMAND_SECTION
2 22
3 94
4 52
5 51
6 54
7 96
8 96
9 82
10 77
11 82
12 55
13 78
14 77
15 40
16 47
17 89
18 77
19 94
20 78
21 81
22 37
23 66
24 8
25 79
26 24
27 70
28 80
29 100
30 53
31 30
32 10
33 34
34 63
35 29
36 80
37 41
38 80
39 62
40 100
41 66
42 79
43 71
44 29
45 94
46 99
47 59
48 57
49 93
50 52
51 54
52 65
53 64
54 52
55 88
56 56
57 76
58 82
59 65
60 77
61 41
62 94
63 100
64 94
65 97
66 56
67 92
68 79
69 59
70 78
71 99
72 91
73 59
74 64
75 61
76 80
77 99
78 66
79 95
80 28
81 5
82 69
83 9
84 86
85 73
86 58
87 98
88 15
89 19
90 71
91 88
92 26
93 79
94 64
95 32
96 75
97 54
98 97
99 82
100 92
101 51
102 68
103 84
104 56
105 65
106 56
107 63
108 53
109 77
110 81
111 85
112 65
113 67
114 67
115 78
116 93
117 48
118 54
119 21
120 56
121 81
122 58
123 36
124 72
125 1
126 95
127 99
128 74
129 79
130 94
131 98
132 72
133 72
134 56
135 65
136 89
137 98
138 55
139 60
140 67
141 91
142 84
143 69
144 80
145 71
146 80
147 80
148 60
149 72
150 51
151 34
152 61
153 97
154 73
155 47
156 55
157 46
158 31
159 91
160 90
161 72
162 38
163 100
164 87
165 72
166 45
167 73
168 86
169 99
170 90
171 56
172 70
173 29
174 51
175 56
176 43
177 59
178 85
179 88
180 65
181 80
182 26
183 11
184 76
185 59
186 73
187 69
188 57
189 43
190 59
191 69
192 94
193 1
194 6
195 82
196 65
197 97
198 2
199 84
200 63
201 94
202 57
203 62
204 89
205 83
206 88
207 81
208 63
209 89
210 68
211 98
212 81
213 67
214 96
215 98
COVERAGE_SECTION
2 11 386 230 316 460 22 32 182 324 455 15 249 
3 11 284 121 276 383 28 86 127 68 170 472 12 
4 11 215 406 196 526 518 23 373 534 9 239 207 
5 11 371 372 254 447 448 211 257 505 178 264 164 
6 11 181 282 343 27 402 366 140 527 210 63 222 
7 11 133 335 363 495 442 358 494 154 59 453 50 
8 11 461 43 130 327 11 195 333 283 64 235 65 
9 11 196 207 518 185 152 526 398 4 236 150 534 
10 11 306 342 114 348 241 280 352 108 372 418 54 
11 11 130 461 331 8 283 296 34 379 64 135 263 
12 11 319 45 472 212 204 28 276 419 277 279 68 
13 11 292 385 77 63 328 184 27 343 516 98 159 
14 11 440 78 251 434 256 445 529 312 454 225 228 
15 11 460 230 182 249 525 22 2 32 386 466 396 
16 11 320 117 125 384 242 189 396 83 44 182 32 
17 11 79 425 326 208 433 278 426 255 493 41 437 
18 11 335 430 358 133 494 76 7 59 115 21 388 
19 11 75 513 220 205 160 416 475 38 124 509 321 
20 11 415 452 103 473 141 422 432 382 390 356 311 
21 11 59 388 378 227 115 363 18 7 192 133 335 
22 11 230 249 386 316 2 460 370 525 15 183 324 
23 11 534 215 511 526 315 406 172 4 337 518 374 
24 11 253 439 491 314 158 286 273 166 245 532 364 
25 11 421 163 168 313 60 338 262 489 174 407 317 
26 11 193 173 457 151 300 123 346 37 157 175 293 
27 11 343 63 6 282 102 87 181 385 210 13 292 
28 11 276 3 284 68 121 170 383 12 204 319 70 
29 11 501 153 362 40 107 85 56 91 409 118 310 
30 11 50 154 423 454 494 358 335 442 133 146 434 
31 11 81 403 354 532 439 467 253 95 287 24 89 
32 11 182 455 460 2 230 15 125 386 316 22 268 
33 11 395 210 222 87 508 102 282 162 258 181 27 
34 11 263 296 172 331 11 130 379 511 261 283 315 
35 11 370 309 364 183 435 22 316 324 249 386 230 
36 11 52 49 62 82 521 67 400 523 275 459 129 
37 11 300 293 328 367 385 292 77 508 13 102 457 
38 11 389 285 205 19 75 513 414 301 248 271 499 
39 11 48 112 209 116 427 308 512 471 106 428 347 
40 11 153 118 362 29 107 501 56 91 438 288 408 
41 11 255 144 265 169 437 326 481 208 522 143 393 
42 11 93 142 191 236 311 452 398 482 185 152 161 
43 11 195 327 333 387 8 137 531 65 461 393 283 
44 11 117 80 429 16 320 242 83 189 384 125 198 
45 11 12 472 319 419 212 279 204 276 28 277 229 
46 11 233 232 531 522 387 186 409 137 479 481 310 
47 11 486 520 381 496 484 510 138 161 344 482 464 
48 11 39 209 116 112 308 427 512 106 428 498 302 
49 11 96 36 82 523 52 400 275 62 67 521 341 
50 11 154 494 30 358 335 442 133 423 454 7 495 
51 11 141 224 127 269 383 229 473 432 276 504 121 
52 11 62 67 521 36 82 275 523 459 129 49 256 
53 11 368 298 365 290 278 148 425 79 405 216 17 
54 11 474 97 458 231 352 244 112 10 241 447 280 
55 11 134 392 475 487 515 220 376 139 124 160 340 
56 11 107 438 379 310 40 29 145 153 186 409 118 
57 11 377 493 208 203 353 143 202 437 326 17 278 
58 11 108 99 418 348 84 114 10 306 352 443 342 
59 11 21 378 363 388 7 192 227 18 133 335 495 
60 11 489 163 174 421 25 313 504 262 168 279 229 
61 11 304 397 357 270 411 517 92 198 240 268 514 
62 11 67 52 521 459 275 129 82 523 36 256 312 
63 11 343 27 13 385 292 184 6 480 102 282 87 
64 11 180 8 235 477 130 135 11 179 461 100 291 
65 11 327 393 195 43 169 235 265 387 492 531 8 
66 11 214 171 122 527 417 366 140 243 402 294 149 
67 11 62 521 459 52 129 275 256 523 82 36 312 
68 11 170 70 204 28 212 188 128 319 12 3 276 
69 11 334 271 190 227 301 378 325 341 414 21 59 
70 11 68 170 204 128 188 28 212 319 12 3 276 
71 11 167 462 228 450 225 146 307 332 445 76 483 
72 11 213 243 113 524 165 401 499 502 122 321 66 
73 11 246 497 344 317 431 136 407 496 530 381 422 
74 11 478 417 294 401 350 113 66 519 259 72 171 
75 11 19 513 220 160 416 475 205 124 38 509 321 
76 11 430 18 332 358 494 335 133 50 252 30 146 
77 11 328 292 13 159 385 340 516 139 63 184 293 
78 11 251 440 434 14 312 454 445 256 423 30 234 
79 11 425 17 278 433 326 208 426 493 255 298 272 
80 11 429 44 117 83 16 242 320 384 189 198 125 
81 11 31 439 253 403 532 24 166 286 273 89 491 
82 11 523 275 52 62 36 67 49 521 129 110 459 
83 11 242 384 16 117 429 396 44 80 125 320 189 
84 11 99 58 418 108 355 348 352 443 114 451 10 
85 11 444 501 29 409 91 362 147 153 186 218 310 
86 11 121 284 3 127 383 276 28 85 444 218 147 
87 11 102 508 33 395 210 27 282 343 222 181 63 
88 11 223 31 274 519 81 259 155 350 349 478 166 
89 11 299 532 286 403 158 92 245 24 304 439 253 
90 11 424 94 412 277 262 476 468 168 188 313 279 
91 11 444 501 362 147 197 153 218 29 85 288 118 
92 11 514 357 411 268 240 517 304 324 299 89 245 
93 11 42 142 191 452 311 236 398 482 161 185 410 
94 11 90 424 412 476 336 262 277 168 302 468 313 
95 11 436 465 354 463 297 287 467 446 31 403 157 
96 11 49 325 329 82 190 36 289 334 341 400 523 
97 11 474 54 458 231 244 112 447 39 48 164 241 
98 11 184 516 480 200 139 340 13 63 77 292 140 
99 11 58 84 108 418 443 348 114 10 352 355 306 
100 11 180 492 235 503 477 441 64 65 169 327 8 
101 11 187 420 469 413 471 449 347 112 533 39 231 
102 11 87 508 27 33 395 210 343 282 222 63 385 
103 11 415 269 20 422 136 224 141 497 51 504 246 
104 11 266 391 221 111 261 360 291 267 135 337 296 
105 10 131 330 114 488 306 342 348 359 322 257 
106 11 498 308 428 470 323 116 209 512 164 48 178 
107 11 56 438 29 40 310 153 379 145 118 186 362 
108 11 58 348 114 418 99 10 306 342 84 352 105 
109 11 487 528 134 175 376 123 515 177 159 55 293 
110 11 234 453 495 442 312 423 454 154 192 275 129 
111 11 221 360 104 239 337 391 261 373 266 406 291 
112 11 39 48 471 231 209 458 97 116 413 474 427 
113 11 401 72 213 243 499 289 74 524 66 417 329 
114 11 348 306 342 10 108 241 280 105 58 352 418 
115 11 388 430 18 21 252 248 59 378 76 285 335 
116 11 209 308 512 48 428 106 427 39 302 498 336 
117 11 44 16 429 242 320 80 83 384 189 125 396 
118 11 40 153 362 288 501 29 91 107 408 56 197 
119 11 404 346 237 151 173 193 123 26 176 528 457 
120 11 469 187 101 420 290 365 405 199 53 148 368 
121 11 284 3 383 86 276 28 127 472 170 12 68 
122 11 214 140 502 200 480 527 66 243 165 213 366 
123 11 528 151 175 457 109 193 26 300 177 346 487 
124 11 321 220 513 165 200 392 75 502 98 139 19 
125 11 189 32 182 320 396 16 455 460 15 2 230 
126 11 281 410 356 382 390 150 288 152 311 398 408 
127 11 86 121 383 3 284 276 51 218 432 28 147 
128 11 70 203 170 68 500 188 232 233 204 468 479 
129 11 67 62 256 275 312 521 234 459 52 110 523 
130 11 11 461 8 331 283 64 379 333 296 34 135 
131 10 330 105 359 345 490 488 348 114 306 375 
132 11 351 211 178 264 323 254 338 399 470 448 371 
133 11 335 7 358 494 154 442 50 495 363 18 453 
134 11 487 55 376 392 109 515 159 139 340 175 516 
135 11 291 296 267 261 391 64 11 130 179 266 34 
136 11 246 422 497 73 415 103 344 496 381 431 317 
137 11 333 145 387 186 531 43 310 195 283 409 327 
138 11 484 247 510 486 47 520 464 318 201 381 482 
139 11 340 516 159 77 98 392 184 328 13 376 292 
140 11 122 214 480 527 6 366 181 402 343 27 184 
141 11 51 473 432 224 127 269 218 103 147 20 229 
142 11 191 93 42 236 311 398 452 185 152 410 207 
143 11 437 479 144 377 522 208 481 41 203 233 326 
144 11 41 437 255 481 265 522 143 326 169 208 479 
145 11 438 310 333 137 283 186 379 56 107 409 43 
146 11 445 225 228 30 167 76 50 71 358 494 154 
147 11 218 444 91 197 432 473 501 85 362 127 288 
148 11 216 368 199 405 365 260 290 202 278 493 353 
149 11 238 171 258 259 162 366 519 402 527 294 66 
150 11 374 152 207 408 126 518 315 410 185 526 511 
151 11 193 123 26 173 457 346 175 528 300 237 119 
152 11 185 398 207 236 410 9 150 518 126 196 526 
153 11 362 40 118 501 29 91 107 288 56 444 85 
154 11 50 442 494 133 358 335 423 495 7 30 454 
155 11 274 349 194 467 287 162 223 259 149 258 519 
156 10 345 201 490 330 464 131 359 510 318 394 
157 11 173 26 465 436 237 193 95 151 297 457 346 
158 11 245 286 24 364 314 253 309 439 491 532 89 
159 11 77 340 328 139 516 376 292 13 293 385 184 
160 11 416 475 509 75 19 220 513 55 124 369 205 
161 11 422 381 452 520 482 47 136 415 20 486 496 
162 11 258 194 222 238 33 395 210 282 402 149 349 
163 11 421 25 313 60 168 262 489 174 338 504 279 
164 11 448 178 254 447 211 351 371 323 470 244 5 
165 11 502 321 200 524 213 243 122 124 98 214 480 
166 11 273 491 253 439 24 314 81 158 286 245 364 
167 11 228 225 71 146 445 450 307 462 76 30 332 
168 11 313 163 421 25 262 60 338 489 424 174 279 
169 11 265 41 255 65 393 144 481 492 272 195 327 
170 11 68 70 28 204 128 188 212 319 3 12 284 
171 11 238 366 527 149 402 66 258 181 214 222 6 
172 11 263 511 34 315 23 534 296 374 331 408 337 
173 11 26 193 151 457 346 237 157 123 300 119 175 
174 11 489 60 504 269 163 229 421 224 317 25 431 
175 11 293 376 109 123 300 457 37 159 487 528 328 
176 11 237 404 119 469 451 346 449 533 101 157 187 
177 11 528 109 515 487 123 134 175 376 55 151 392 
178 11 448 254 211 164 351 371 132 5 323 447 470 
179 11 267 477 64 291 135 180 266 100 235 391 11 
180 11 100 235 477 492 64 503 179 8 65 327 441 
181 11 6 282 402 366 210 527 222 27 343 395 140 
182 11 32 460 15 230 2 455 125 386 22 249 316 
183 11 324 309 316 35 386 364 22 370 2 230 249 
184 11 98 480 516 63 13 292 343 77 200 340 385 
185 11 152 398 207 236 9 410 150 518 196 126 526 
186 11 310 409 137 145 438 56 107 333 29 85 46 
187 11 101 420 469 413 471 449 347 112 39 533 231 
188 11 204 277 212 70 468 68 170 500 319 12 128 
189 11 320 125 16 455 32 182 240 517 396 460 117 
190 11 69 341 334 227 271 378 325 192 301 59 363 
191 11 142 93 42 311 236 452 398 410 185 152 382 
192 11 363 453 495 341 7 59 442 110 133 378 190 
193 11 26 151 173 457 123 300 346 175 37 293 528 
194 11 162 349 155 274 258 33 222 238 395 149 210 
195 11 327 43 65 387 393 531 333 8 137 461 235 
196 11 9 518 526 207 4 185 152 215 534 398 150 
197 11 91 147 218 288 432 444 362 473 501 153 118 
198 11 397 320 517 61 189 411 44 240 357 117 16 
199 11 405 148 216 260 365 290 368 202 506 353 493 
200 11 502 165 480 98 321 122 184 140 214 213 243 
201 10 318 156 138 484 464 490 510 345 247 330 
202 11 353 506 260 216 57 493 476 377 412 148 500 
203 11 128 500 377 468 70 479 57 143 476 170 188 
204 11 212 319 188 68 12 70 170 28 277 45 472 
205 11 513 19 38 75 524 321 220 124 499 165 389 
206 11 295 226 456 369 305 462 219 450 483 307 509 
207 11 185 152 9 398 518 196 150 236 526 410 374 
208 11 326 17 437 143 144 41 255 377 57 79 425 
209 11 116 48 39 308 106 428 512 427 498 112 302 
210 11 395 222 282 33 87 181 102 402 6 258 27 
211 11 254 178 351 371 448 132 264 5 164 505 380 
212 11 204 319 12 45 277 188 68 472 28 70 170 
213 11 243 72 524 502 165 122 214 321 113 200 66 
214 11 122 140 527 66 366 502 480 171 243 6 402 
215 11 406 23 4 534 526 373 239 518 337 511 196 
216 11 148 260 202 199 353 368 506 493 405 57 278 
217 11 250 485 206 507 394 355 443 177 99 84 515 
218 11 147 432 444 197 91 473 127 85 501 362 288 
219 11 483 252 332 462 430 76 248 115 18 71 388 
220 11 513 75 19 475 124 160 416 205 321 392 55 
221 11 360 111 337 391 261 104 239 266 373 296 291 
222 11 210 395 282 33 258 181 402 87 162 238 6 
223 11 274 259 519 349 155 350 88 149 194 467 294 
224 11 269 504 51 229 141 174 489 419 103 279 472 
225 11 228 167 445 146 71 30 450 307 76 462 78 
226 11 456 369 219 248 483 252 462 509 332 285 115 
227 11 378 69 190 21 271 59 341 334 388 192 363 
228 11 225 167 445 146 71 450 307 30 462 76 78 
229 11 504 419 279 224 489 269 472 45 174 12 51 
230 11 460 22 386 2 15 249 182 316 525 32 324 
231 11 458 474 97 54 112 471 39 48 244 413 209 
232 11 233 479 46 128 170 70 68 522 86 3 28 
233 11 232 479 46 128 170 70 522 68 143 86 203 
234 11 110 312 423 454 453 442 495 434 129 154 275 
235 11 492 180 100 65 327 8 64 195 43 477 393 
236 11 398 185 152 207 410 311 9 126 150 142 191 
237 11 346 119 173 404 151 26 157 193 176 457 123 
238 11 258 171 149 402 366 222 162 527 181 210 282 
239 11 373 337 406 215 360 221 111 23 4 534 172 
240 11 517 411 268 455 514 357 32 189 2 92 182 
241 11 280 372 342 5 257 306 447 244 10 371 322 
242 11 384 83 16 117 396 125 429 44 320 189 182 
243 11 213 72 502 524 122 165 214 66 113 200 321 
244 11 447 164 448 5 97 372 371 254 178 280 241 
245 11 158 364 309 286 183 35 324 314 24 316 514 
246 11 73 136 497 344 317 431 496 407 422 103 415 
247 11 138 484 318 482 520 47 486 201 510 464 381 
248 11 285 115 252 389 388 219 430 483 21 18 332 
249 11 525 22 230 15 460 386 466 370 2 316 435 
250 11 217 485 507 394 443 156 201 318 99 355 84 
251 11 78 256 440 434 14 312 129 454 459 234 423 
252 11 483 219 332 430 115 76 248 18 388 462 335 
253 11 439 24 491 314 166 273 158 286 532 245 81 
254 11 211 371 178 448 5 351 164 447 264 505 132 
255 11 41 144 326 169 265 437 481 208 272 426 433 
256 11 129 459 67 251 521 312 62 434 52 234 275 
257 11 322 505 372 5 380 264 371 254 280 241 211 
258 11 238 222 162 402 210 395 366 282 33 181 171 
259 11 519 350 149 294 349 223 417 274 171 238 478 
260 11 202 216 506 353 199 148 405 412 493 57 476 
261 11 391 296 291 360 135 221 266 104 337 34 263 
262 11 313 168 279 163 60 489 419 421 25 424 90 
263 11 34 172 296 331 11 130 379 511 283 315 261 
264 11 380 505 211 399 254 371 132 257 5 351 178 
265 11 481 169 393 41 144 522 255 65 387 437 531 
266 11 104 391 267 291 261 135 221 179 360 111 296 
267 11 291 179 266 135 391 261 64 104 477 296 11 
268 11 514 240 455 517 324 411 2 32 316 357 386 
269 11 224 504 229 174 51 489 103 141 60 279 419 
270 11 304 61 446 397 299 357 92 89 411 463 517 
271 11 334 69 301 414 227 190 325 378 341 21 499 
272 11 426 433 441 255 503 169 41 326 492 17 144 
273 11 166 491 253 314 24 439 158 286 81 245 364 
274 11 155 349 194 223 259 162 467 519 287 149 258 
275 11 523 82 62 52 129 67 110 521 234 312 453 
276 11 383 3 28 284 121 472 12 319 45 127 212 
277 11 188 212 204 319 12 45 468 279 419 472 68 
278 11 425 79 493 17 368 208 57 326 433 216 377 
279 11 419 45 229 472 12 262 489 319 212 277 504 
280 11 241 372 342 5 257 447 306 244 371 10 322 
281 11 356 390 126 382 410 288 311 197 150 118 152 
282 11 181 210 6 222 395 402 27 343 87 102 366 
283 11 379 461 145 331 333 130 438 11 8 43 137 
284 11 3 121 276 383 28 86 127 170 68 472 12 
285 11 389 248 38 388 115 21 378 227 271 414 59 
286 11 158 532 245 24 89 439 253 299 314 364 491 
287 11 467 155 465 194 274 349 95 162 436 367 223 
288 11 197 118 362 91 153 281 390 356 501 40 126 
289 11 325 499 301 329 334 414 271 113 96 69 401 
290 11 365 405 148 199 368 53 216 260 278 202 493 
291 11 135 267 391 261 266 296 179 104 64 11 130 
292 11 13 385 328 77 63 343 27 184 516 159 340 
293 11 37 300 328 77 159 292 175 385 13 376 340 
294 11 417 350 74 478 519 259 149 66 171 238 214 
295 11 305 450 462 307 226 71 219 483 456 332 167 
296 11 34 263 261 135 11 391 130 291 331 172 360 
297 11 463 436 354 95 446 465 270 403 299 157 304 
298 11 79 425 433 426 278 53 17 272 326 368 441 
299 11 89 532 403 286 92 304 446 158 245 357 270 
300 11 37 293 457 175 367 328 77 385 292 508 159 
301 11 414 271 334 69 325 499 289 190 227 378 341 
302 11 336 512 427 428 116 308 347 209 106 498 48 
303 11 361 397 270 61 304 198 446 357 411 297 463 
304 11 61 270 357 92 299 411 89 517 446 240 397 
305 11 307 450 71 462 167 228 225 295 146 445 529 
306 11 342 114 10 348 241 280 108 105 372 257 322 
307 11 450 305 71 167 228 225 462 146 445 332 529 
308 11 106 428 498 116 512 209 470 323 302 48 427 
309 11 364 183 35 324 370 316 245 22 386 2 435 
310 11 186 409 145 438 56 107 137 29 333 379 85 
311 11 382 356 410 390 281 126 236 452 398 152 185 
312 11 234 434 454 110 423 129 256 442 154 453 275 
313 11 168 163 421 25 262 60 489 338 424 174 279 
314 11 491 24 253 158 273 364 245 439 166 35 309 
315 11 511 374 534 172 408 23 150 526 518 263 215 
316 11 386 324 2 22 183 230 460 249 309 370 35 
317 11 431 407 497 73 174 246 60 25 421 163 489 
318 11 201 138 247 484 156 464 510 490 486 47 520 
319 11 12 212 45 204 472 28 276 277 68 419 188 
320 11 189 125 16 117 455 32 182 396 517 240 44 
321 11 165 502 200 524 124 213 243 98 205 122 220 
322 10 257 488 505 380 264 372 5 280 241 371 
323 11 470 498 106 351 132 178 308 164 428 338 211 
324 11 183 316 386 2 309 22 514 230 268 35 364 
325 11 334 301 69 289 190 271 96 414 341 227 499 
326 11 208 17 255 41 437 144 79 433 426 425 143 
327 11 195 43 65 393 387 8 333 531 137 235 461 
328 11 77 292 13 159 385 293 340 516 63 139 184 
329 11 289 339 96 325 401 49 113 499 334 301 400 
330 9 131 345 359 490 105 156 375 464 488 
331 11 283 379 11 130 34 263 461 438 145 56 333 
332 11 483 252 76 430 219 462 18 115 146 71 358 
333 11 137 43 145 283 195 387 461 8 327 531 186 
334 11 69 271 301 190 325 414 227 341 378 289 499 
335 11 358 133 494 7 50 154 18 442 495 363 30 
336 11 302 427 512 428 347 116 308 94 106 209 498 
337 11 360 239 221 373 23 406 215 111 261 172 296 
338 11 25 132 168 421 323 470 351 163 313 399 498 
339 11 329 400 96 49 36 289 325 401 82 52 523 
340 11 139 516 159 77 328 98 13 184 292 392 376 
341 11 190 192 227 69 363 378 453 59 334 495 523 
342 11 306 10 114 241 280 348 372 257 105 322 108 
343 11 27 63 6 282 102 181 87 385 13 210 292 
344 11 73 496 246 136 381 530 497 375 431 317 407 
345 9 490 330 359 464 156 510 131 375 105 
346 11 119 151 237 173 193 404 26 123 457 528 175 
347 11 427 336 302 512 116 39 209 48 428 308 112 
348 11 114 108 306 10 342 58 105 418 241 280 352 
349 11 274 155 194 162 149 259 223 258 238 519 222 
350 11 294 519 259 417 478 74 149 171 66 238 223 
351 11 132 178 211 254 448 323 164 470 371 264 338 
352 11 418 10 54 474 108 114 306 97 342 348 458 
353 11 506 202 260 57 476 216 500 203 377 412 468 
354 11 463 446 95 297 403 436 299 89 31 532 465 
355 11 84 99 451 418 58 108 352 443 348 114 10 
356 11 382 390 281 126 410 288 311 197 118 91 150 
357 11 411 517 240 92 268 514 61 304 455 324 32 
358 11 494 335 133 50 154 7 442 18 30 495 76 
359 9 345 330 490 375 131 488 464 530 105 
360 11 221 337 111 261 391 239 104 296 373 266 291 
361 11 303 270 397 61 446 297 304 463 198 354 357 
362 11 153 501 29 91 40 118 444 288 85 197 107 
363 11 192 7 495 453 59 133 442 335 154 21 341 
364 11 309 35 183 245 370 324 316 158 22 435 386 
365 11 290 405 148 199 368 216 53 260 278 202 493 
366 11 402 527 181 6 171 282 238 140 258 222 210 
367 11 508 102 87 33 37 395 300 210 385 222 27 
368 11 148 278 216 365 493 53 405 425 199 290 79 
369 11 456 226 509 416 160 248 19 389 75 285 38 
370 11 35 435 22 183 249 309 316 364 386 525 230 
371 11 254 5 211 448 178 447 372 505 164 264 351 
372 11 5 280 241 257 371 447 254 505 448 244 211 
373 11 239 406 215 337 4 23 360 221 111 534 526 
374 11 315 150 408 511 534 518 526 172 23 126 207 
375 9 530 488 359 344 322 73 490 380 345 
376 11 159 134 340 487 175 139 392 77 109 328 293 
377 11 57 203 143 208 437 493 479 128 326 353 500 
378 11 227 21 59 388 69 190 341 363 192 271 7 
379 11 438 283 331 56 145 107 333 310 461 11 130 
380 11 264 505 399 257 211 371 254 322 5 132 351 
381 11 496 47 486 520 344 136 161 422 246 73 510 
382 11 356 390 281 126 311 410 288 197 473 91 118 
383 11 276 3 121 284 28 127 472 86 12 45 319 
384 11 242 396 16 83 125 117 320 189 15 182 32 
385 11 292 13 63 328 27 77 343 102 87 184 508 
386 11 2 316 22 230 460 324 249 183 15 32 182 
387 11 531 195 137 43 393 327 333 65 46 186 481 
388 11 21 115 59 378 18 227 285 430 7 363 133 
389 11 285 38 248 388 414 115 271 378 21 205 227 
390 11 356 382 281 126 288 410 311 197 473 91 118 
391 11 261 291 266 104 221 360 135 296 267 111 337 
392 11 139 55 340 134 376 516 159 124 98 487 77 
393 11 65 265 195 327 387 531 481 169 43 522 137 
394 11 443 131 156 330 99 485 105 58 108 348 345 
395 11 210 33 222 282 87 102 258 508 181 402 27 
396 11 125 384 15 182 16 460 32 242 230 466 525 
397 11 61 198 304 270 357 411 517 303 240 92 320 
398 11 185 152 236 207 410 9 150 126 311 518 196 
399 11 264 380 132 505 211 351 254 338 178 371 257 
400 11 36 49 339 52 96 82 62 521 67 459 523 
401 11 113 74 72 329 289 417 243 213 499 294 66 
402 11 366 181 527 282 6 222 210 258 238 171 395 
403 11 532 89 299 286 81 354 439 446 31 158 24 
404 11 119 346 237 176 151 173 193 123 26 355 451 
405 11 199 365 148 290 216 368 260 202 353 506 53 
406 11 215 373 4 239 23 337 534 526 518 196 360 
407 11 317 431 497 73 25 421 174 163 246 60 399 
408 11 374 315 118 150 511 40 153 126 288 362 56 
409 11 186 310 85 29 107 137 145 501 56 438 46 
410 11 126 281 152 398 356 185 311 382 390 150 236 
411 11 357 517 240 268 514 92 455 61 32 189 304 
412 11 476 94 90 424 468 500 506 277 188 353 202 
413 11 471 112 39 231 347 48 458 420 209 449 101 
414 11 301 271 334 499 69 325 227 289 190 378 38 
415 11 103 422 20 136 269 141 224 246 497 51 452 
416 11 160 475 509 75 19 220 513 55 369 124 38 
417 11 294 350 66 74 171 478 149 519 259 214 238 
418 11 58 108 352 84 99 348 10 114 306 342 54 
419 11 279 45 472 229 12 319 212 489 262 277 504 
420 11 187 101 413 469 471 347 449 112 39 199 427 
421 11 25 163 168 313 60 338 262 489 174 407 317 
422 11 415 136 103 161 246 20 381 496 497 452 73 
423 11 454 154 50 234 442 312 30 434 110 495 494 
424 11 90 94 262 412 168 313 277 476 279 163 188 
425 11 79 278 17 208 326 493 433 426 57 298 255 
426 11 433 272 255 17 326 79 41 441 425 169 208 
427 11 302 512 336 116 347 209 428 308 48 39 106 
428 11 308 106 512 498 116 302 209 470 323 427 336 
429 11 80 44 117 83 242 16 384 320 189 125 396 
430 11 76 18 252 115 332 335 358 494 483 133 388 
431 11 317 407 497 73 174 246 60 421 25 163 136 
432 11 473 218 147 197 141 444 91 127 51 288 501 
433 11 426 272 17 79 326 255 425 41 208 441 144 
434 11 312 454 423 234 78 110 129 251 256 30 154 
435 11 370 35 249 525 22 466 230 183 316 309 386 
436 11 95 465 297 463 354 287 467 157 446 31 403 
437 11 144 143 208 41 326 255 481 522 479 265 377 
438 11 56 107 145 379 310 186 283 29 333 40 137 
439 11 253 24 491 166 286 158 273 314 532 81 245 
440 11 14 78 251 434 256 445 312 454 423 129 30 
441 11 503 272 100 492 426 169 433 180 235 255 41 
442 11 495 154 7 133 453 50 494 110 335 423 358 
443 11 394 99 58 108 348 84 131 105 114 418 330 
444 11 91 147 85 218 501 362 197 29 153 432 288 
445 11 225 146 228 167 30 78 50 71 454 423 434 
446 11 463 354 270 299 297 403 304 89 532 95 61 
447 11 244 448 5 371 164 254 372 178 211 280 241 
448 11 178 164 254 371 211 447 5 351 132 244 372 
449 11 533 471 458 231 413 54 474 112 97 451 101 
450 11 307 71 305 167 462 228 225 146 445 332 483 
451 11 533 352 418 449 84 355 54 458 58 474 231 
452 11 20 311 161 191 382 356 390 422 415 93 142 
453 11 495 110 192 442 363 7 234 154 133 423 335 
454 11 423 312 234 434 154 50 30 442 110 495 453 
455 11 32 182 2 268 460 240 125 386 230 189 316 
456 11 226 369 248 509 219 252 483 416 285 160 389 
457 11 193 300 26 151 175 123 37 293 173 367 109 
458 11 231 474 54 97 112 471 39 244 48 533 449 
459 11 521 67 62 52 256 129 275 36 82 523 312 
460 11 230 182 15 2 32 386 22 249 316 455 525 
461 11 8 130 283 11 333 43 331 327 145 195 379 
462 11 71 483 332 219 450 167 252 76 307 146 228 
463 11 297 354 446 95 436 403 270 299 465 89 304 
464 10 510 490 345 484 359 138 486 47 330 375 
465 11 436 95 287 467 157 297 354 463 155 194 367 
466 11 525 249 15 435 22 230 460 370 396 386 182 
467 11 287 155 274 465 194 349 95 223 31 162 436 
468 11 500 476 188 277 128 203 70 204 412 68 170 
469 11 101 187 420 449 413 120 471 533 176 112 231 
470 11 323 498 106 351 308 132 428 164 178 338 448 
471 11 413 112 231 458 39 48 97 474 209 449 54 
472 11 45 12 319 276 419 212 383 28 279 204 229 
473 11 432 218 141 147 197 51 127 444 91 20 288 
474 11 54 97 458 231 244 112 447 352 471 39 48 
475 11 160 416 220 75 513 19 509 55 124 392 205 
476 11 468 500 412 188 277 506 90 203 353 128 94 
477 11 180 179 100 64 235 492 267 503 135 8 291 
478 11 74 350 294 417 519 259 401 149 66 171 113 
479 11 143 233 522 232 437 481 46 128 144 203 377 
480 11 184 140 98 63 200 6 343 27 122 181 13 
481 11 522 265 144 393 41 437 169 531 143 255 479 
482 11 520 161 47 486 247 93 381 138 42 484 191 
483 11 219 332 252 430 462 76 115 18 248 71 146 
484 11 138 510 486 464 47 520 247 490 381 318 201 
485 11 507 394 156 443 201 330 131 345 318 99 490 
486 11 47 520 381 496 484 510 138 344 464 161 482 
487 11 134 109 376 515 55 175 392 528 159 177 139 
488 10 322 375 257 530 380 505 264 105 359 399 
489 11 60 174 504 229 163 279 262 419 421 269 313 
490 9 345 464 359 510 330 156 375 131 484 
491 11 314 24 253 273 166 439 158 245 364 286 35 
492 11 100 235 180 503 65 169 441 327 393 477 195 
493 11 57 278 377 208 425 17 79 202 353 216 326 
494 11 358 335 133 50 154 7 442 18 30 495 76 
495 11 442 453 7 363 154 133 110 192 335 494 50 
496 11 381 344 486 246 47 136 73 422 520 497 510 
497 11 317 431 246 73 407 136 174 344 103 269 415 
498 11 106 470 308 323 428 116 512 164 209 351 178 
499 11 414 301 289 72 271 325 334 113 524 205 69 
500 11 468 476 188 203 128 70 68 204 170 277 412 
501 11 362 29 91 153 444 85 40 118 147 107 197 
502 11 165 200 122 321 213 243 214 480 524 140 98 
503 11 441 100 492 272 180 169 235 426 477 65 255 
504 11 269 174 229 489 224 60 279 419 51 163 472 
505 11 380 264 257 371 5 211 254 399 322 372 178 
506 11 353 202 260 476 412 468 500 216 57 203 377 
507 11 485 201 156 318 394 345 490 330 443 464 138 
508 11 87 102 33 395 367 210 222 27 282 343 385 
509 11 416 160 475 369 75 19 220 513 55 456 38 
510 10 464 484 490 486 47 138 345 496 359 381 
511 11 315 374 534 172 23 408 526 150 263 518 34 
512 11 302 428 427 116 308 336 106 209 498 48 347 
513 11 75 19 220 205 124 475 160 416 321 38 524 
514 11 268 240 92 324 411 455 517 357 2 316 183 
515 11 487 134 55 109 177 528 376 392 475 175 139 
516 11 340 139 98 184 77 159 13 328 292 63 385 
517 11 240 411 357 268 455 514 189 32 92 320 2 
518 11 526 196 9 207 534 150 4 374 152 185 23 
519 11 259 350 294 149 417 223 478 349 274 171 238 
520 11 47 486 381 482 484 161 138 496 510 422 247 
521 11 67 459 62 52 129 275 36 256 82 523 312 
522 11 481 479 144 265 143 46 437 393 531 41 387 
523 11 82 275 52 62 67 129 110 521 36 49 234 
524 11 213 165 321 72 243 502 205 200 122 124 499 
525 11 249 466 15 22 230 435 460 370 386 2 182 
526 11 518 534 196 4 23 215 9 207 150 374 315 
527 11 366 402 181 140 6 171 214 282 238 122 258 
528 11 109 123 177 487 175 515 134 151 376 457 193 
529 11 14 440 228 225 167 445 307 78 450 71 146 
530 9 375 488 344 73 359 399 322 380 407 
531 11 387 137 195 393 43 327 333 46 65 481 522 
532 11 89 286 403 299 158 439 24 253 245 81 92 
533 11 449 458 231 54 451 471 474 352 97 413 112 
534 11 23 511 315 526 215 518 374 172 4 150 406 
DEPOT_SECTION
   1
   -1
EOF
