NAME :  X-n586-kX-w234-c11.cctp
COMMENT : 	Adapted by Maziero, Usberti and Cavellucci from the Uchoa, Pecin, Pessoa, Poggi, Subramanian, and Vidal (2013)
TYPE :  CCTP
DIMENSION :    516
EDGE_WEIGHT_TYPE : 	EUC_2D	
CAPACITY : 	28
VERTICES_WITHIN_COVERAGE :  11
VERTICES_WITH_DEMAND : 	234
NODE_COORD_SECTION
1 18 761
2 835 397
3 299 16
4 31 168
5 142 257
6 242 984
7 612 357
8 663 812
9 105 188
10 487 636
11 993 703
12 672 148
13 506 259
14 953 706
15 888 203
16 107 534
17 772 692
18 475 182
19 828 775
20 719 220
21 655 722
22 844 197
23 918 600
24 460 844
25 739 102
26 301 523
27 341 627
28 989 936
29 935 602
30 44 72
31 861 67
32 163 416
33 981 503
34 722 397
35 317 903
36 547 95
37 944 106
38 935 192
39 128 376
40 908 176
41 720 226
42 738 793
43 791 498
44 712 751
45 530 693
46 141 673
47 380 544
48 634 301
49 427 853
50 606 949
51 47 557
52 48 202
53 791 67
54 546 876
55 526 842
56 535 216
57 828 214
58 829 352
59 623 473
60 374 1000
61 74 187
62 275 415
63 726 789
64 51 597
65 894 395
66 159 743
67 301 893
68 755 946
69 978 261
70 709 153
71 391 153
72 876 370
73 846 725
74 604 107
75 117 709
76 507 89
77 348 744
78 476 204
79 181 957
80 948 710
81 158 788
82 414 685
83 358 66
84 196 732
85 283 343
86 456 931
87 5 468
88 459 43
89 555 414
90 94 964
91 558 360
92 641 424
93 132 16
94 777 947
95 25 205
96 852 45
97 5 686
98 400 682
99 501 234
100 905 968
101 492 971
102 817 114
103 651 941
104 817 643
105 735 937
106 333 829
107 223 584
108 306 412
109 209 663
110 206 549
111 542 691
112 296 10
113 215 747
114 148 641
115 9 553
116 411 59
117 382 800
118 824 612
119 608 727
120 481 574
121 169 950
122 350 608
123 396 536
124 36 459
125 359 339
126 798 917
127 10 569
128 813 10
129 569 627
130 692 467
131 166 178
132 247 413
133 738 487
134 508 327
135 158 986
136 983 244
137 637 109
138 177 207
139 357 374
140 361 972
141 365 701
142 582 957
143 712 996
144 932 452
145 847 981
146 60 66
147 252 267
148 944 435
149 338 688
150 900 168
151 583 871
152 852 59
153 921 72
154 845 534
155 387 253
156 812 354
157 5 404
158 590 575
159 930 128
160 184 742
161 832 466
162 285 346
163 548 976
164 32 531
165 966 58
166 31 40
167 162 539
168 621 425
169 802 495
170 385 493
171 769 329
172 921 15
173 64 106
174 854 678
175 943 122
176 103 285
177 304 739
178 398 212
179 335 459
180 43 108
181 400 255
182 935 851
183 179 147
184 822 749
185 60 32
186 829 992
187 783 760
188 218 360
189 321 463
190 403 172
191 32 134
192 218 490
193 44 456
194 430 570
195 896 875
196 509 572
197 424 936
198 639 505
199 914 852
200 984 435
201 479 341
202 207 937
203 709 700
204 235 795
205 557 130
206 270 964
207 482 320
208 60 761
209 836 272
210 413 327
211 509 379
212 961 329
213 819 754
214 176 910
215 648 809
216 640 892
217 838 79
218 552 232
219 831 306
220 503 726
221 555 765
222 486 958
223 571 837
224 162 504
225 458 845
226 378 389
227 458 127
228 929 786
229 364 368
230 579 971
231 662 173
232 320 524
233 919 901
234 894 787
235 428 736
236 554 560
237 94 22
238 82 61
239 581 840
240 54 127
241 693 830
242 355 662
243 24 276
244 946 348
245 844 433
246 877 594
247 238 103
248 556 739
249 503 462
250 264 505
251 782 143
252 919 703
253 958 559
254 90 181
255 794 485
256 267 35
257 322 883
258 376 52
259 487 982
260 541 423
261 36 607
262 101 687
263 657 754
264 372 421
265 695 294
266 174 686
267 128 560
268 926 32
269 540 223
270 490 930
271 334 635
272 125 661
273 473 467
274 129 401
275 247 415
276 725 544
277 284 155
278 200 281
279 822 540
280 306 433
281 216 59
282 887 520
283 714 539
284 780 97
285 464 94
286 951 329
287 785 333
288 886 820
289 677 811
290 232 689
291 595 733
292 690 901
293 457 905
294 868 966
295 492 778
296 735 816
297 37 189
298 225 887
299 845 927
300 332 670
301 178 109
302 16 13
303 17 419
304 986 893
305 2 931
306 603 900
307 495 820
308 452 820
309 846 825
310 625 965
311 409 900
312 474 942
313 350 832
314 267 929
315 456 850
316 86 109
317 184 186
318 475 917
319 83 123
320 254 899
321 132 768
322 437 848
323 140 810
324 449 950
325 186 798
326 908 949
327 322 852
328 270 978
329 954 920
330 389 874
331 273 852
332 900 963
333 881 878
334 181 113
335 478 868
336 464 902
337 563 823
338 149 130
339 162 793
340 444 918
341 136 138
342 541 906
343 34 189
344 130 980
345 237 386
346 520 908
347 517 985
348 815 899
349 539 823
350 55 50
351 498 853
352 121 190
353 253 850
354 72 175
355 155 903
356 744 860
357 479 941
358 44 63
359 43 203
360 115 299
361 139 818
362 185 933
363 5 191
364 81 163
365 840 863
366 15 221
367 366 999
368 898 981
369 214 965
370 677 912
371 471 869
372 188 671
373 312 929
374 976 943
375 51 48
376 421 911
377 40 708
378 72 266
379 183 409
380 100 88
381 424 921
382 877 967
383 27 179
384 171 936
385 932 1000
386 455 869
387 463 837
388 846 959
389 435 847
390 353 670
391 187 752
392 464 978
393 128 303
394 59 408
395 319 870
396 887 957
397 240 175
398 473 816
399 138 202
400 406 825
401 388 728
402 78 745
403 287 734
404 144 150
405 181 611
406 261 116
407 444 964
408 367 966
409 188 819
410 7 136
411 127 532
412 408 873
413 808 928
414 430 951
415 94 257
416 170 97
417 7 126
418 916 902
419 432 821
420 181 936
421 887 864
422 128 179
423 464 900
424 493 815
425 229 847
426 322 943
427 343 786
428 153 220
429 321 964
430 128 913
431 201 898
432 912 951
433 105 265
434 32 133
435 428 946
436 21 156
437 47 175
438 70 772
439 459 932
440 165 773
441 146 938
442 34 140
443 900 958
444 215 989
445 444 821
446 963 961
447 914 869
448 102 310
449 126 686
450 819 967
451 282 720
452 113 780
453 3 828
454 148 924
455 421 731
456 513 812
457 177 909
458 227 897
459 96 713
460 437 876
461 789 981
462 996 910
463 90 87
464 578 807
465 833 865
466 138 750
467 899 754
468 195 895
469 843 872
470 203 473
471 480 960
472 258 899
473 127 344
474 471 906
475 461 949
476 437 847
477 465 817
478 951 979
479 102 191
480 84 185
481 377 879
482 660 782
483 171 812
484 35 216
485 484 921
486 74 67
487 440 953
488 110 175
489 617 832
490 138 815
491 617 787
492 501 842
493 390 969
494 92 163
495 59 73
496 913 979
497 387 735
498 846 908
499 121 746
500 419 942
501 128 998
502 517 952
503 586 955
504 40 118
505 474 852
506 234 798
507 138 137
508 131 189
509 481 981
510 854 903
511 160 987
512 98 917
513 78 766
514 422 862
515 81 228
516 842 959
DEMAND_SECTION
2 9
3 7
4 6
5 5
6 7
7 10
8 9
9 8
10 9
11 8
12 6
13 6
14 5
15 10
16 9
17 7
18 9
19 7
20 9
21 6
22 5
23 7
24 10
25 7
26 6
27 9
28 9
29 10
30 7
31 7
32 9
33 10
34 5
35 6
36 8
37 10
38 8
39 5
40 8
41 10
42 8
43 10
44 7
45 5
46 8
47 9
48 7
49 10
50 5
51 6
52 10
53 9
54 9
55 10
56 6
57 8
58 10
59 9
60 10
61 9
62 7
63 5
64 8
65 10
66 6
67 9
68 5
69 7
70 8
71 8
72 10
73 10
74 5
75 8
76 8
77 8
78 6
79 10
80 6
81 9
82 7
83 9
84 10
85 6
86 9
87 6
88 10
89 5
90 9
91 8
92 5
93 5
94 5
95 10
96 5
97 8
98 6
99 6
100 10
101 6
102 5
103 10
104 7
105 9
106 5
107 8
108 8
109 6
110 5
111 6
112 5
113 6
114 6
115 7
116 8
117 6
118 6
119 10
120 7
121 10
122 8
123 7
124 6
125 7
126 10
127 9
128 8
129 8
130 10
131 10
132 6
133 10
134 7
135 6
136 9
137 8
138 9
139 6
140 9
141 10
142 10
143 7
144 8
145 6
146 9
147 7
148 8
149 7
150 9
151 9
152 8
153 6
154 7
155 8
156 9
157 7
158 5
159 7
160 6
161 6
162 5
163 6
164 6
165 10
166 5
167 5
168 7
169 7
170 9
171 10
172 6
173 10
174 9
175 6
176 6
177 9
178 9
179 6
180 8
181 5
182 9
183 8
184 10
185 5
186 6
187 6
188 8
189 7
190 6
191 9
192 6
193 7
194 8
195 6
196 10
197 9
198 6
199 7
200 5
201 6
202 6
203 10
204 5
205 9
206 6
207 8
208 9
209 10
210 6
211 10
212 5
213 10
214 7
215 6
216 6
217 6
218 9
219 10
220 10
221 6
222 9
223 6
224 8
225 6
226 9
227 7
228 9
229 5
230 7
231 10
232 9
233 10
234 9
235 7
COVERAGE_SECTION
2 11 245 58 72 156 65 161 287 219 171 255 169 
3 11 112 256 83 258 281 247 406 116 277 416 301 
4 11 383 436 437 343 297 442 191 363 434 95 359 
5 11 433 428 176 393 415 360 399 138 278 448 515 
6 11 444 328 206 369 202 314 79 362 420 121 429 
7 11 91 48 168 92 89 260 265 211 134 34 59 
8 11 289 215 482 241 489 491 263 63 296 42 44 
9 11 479 488 352 254 480 422 508 494 61 354 364 
10 11 120 196 45 111 129 194 82 220 98 236 235 
11 11 14 80 252 228 467 29 23 234 174 253 73 
12 11 231 70 137 74 25 20 41 251 205 284 36 
13 11 99 269 56 218 78 207 134 18 201 181 91 
14 11 80 252 11 467 228 234 174 29 73 23 288 
15 11 40 150 22 38 57 159 209 175 136 69 37 
16 11 411 267 167 224 51 164 64 110 115 193 261 
17 11 203 104 187 184 213 73 174 44 118 19 42 
18 11 78 99 227 56 190 269 13 178 71 285 218 
19 11 213 184 187 73 309 234 288 467 365 465 42 
20 11 41 70 231 265 12 251 57 48 25 171 22 
21 11 263 119 203 482 291 44 491 215 8 289 63 
22 11 57 15 150 40 209 251 102 38 159 219 217 
23 11 29 246 253 282 118 154 174 252 104 14 279 
24 11 225 315 387 505 322 476 308 386 389 371 477 
25 11 284 70 251 53 102 12 137 217 231 128 20 
26 11 232 250 189 179 47 170 192 280 123 110 122 
27 11 271 122 242 300 390 149 141 98 47 82 232 
28 6 374 462 446 329 304 478 
29 11 23 253 246 282 252 14 33 80 118 174 154 
30 11 358 495 146 350 375 486 166 180 173 238 185 
31 11 152 96 217 153 102 53 268 128 172 284 37 
32 11 379 274 39 470 188 345 473 132 275 224 192 
33 11 253 200 144 148 282 29 23 246 65 154 161 
34 11 130 171 92 287 133 156 168 265 2 255 58 
35 11 67 257 373 395 426 327 314 472 429 320 481 
36 11 205 76 74 285 137 227 88 18 56 269 78 
37 11 175 159 153 165 150 268 40 38 31 172 152 
38 11 40 150 15 159 175 136 69 37 22 57 153 
39 11 274 473 32 379 448 393 394 360 188 176 345 
40 11 150 38 15 159 175 22 37 57 136 153 69 
41 11 20 265 70 231 12 251 57 48 171 25 209 
42 11 63 296 44 187 241 289 356 8 482 213 263 
43 11 169 255 161 279 133 154 276 245 283 282 130 
44 11 63 42 203 263 482 21 289 296 187 8 241 
45 11 111 220 248 10 221 291 129 119 295 235 455 
46 11 272 449 114 266 262 75 372 459 109 66 405 
47 11 123 170 194 232 122 26 27 179 189 271 120 
48 11 7 265 91 218 41 20 269 92 168 134 34 
49 11 389 514 322 476 460 412 315 225 386 419 24 
50 11 503 142 310 230 103 306 163 216 342 370 151 
51 11 164 115 127 64 261 16 267 411 87 124 193 
52 11 359 297 343 484 95 437 61 383 354 4 366 
53 11 284 217 102 128 152 25 96 31 251 70 153 
54 9 342 151 55 346 223 239 349 351 337 
55 10 349 492 351 456 307 54 337 424 223 505 
56 11 269 218 99 13 78 18 205 134 207 227 36 
57 11 22 209 15 150 251 40 219 102 20 38 41 
58 11 156 2 219 287 72 171 65 209 245 161 34 
59 11 198 168 92 130 89 260 158 236 283 133 7 
60 11 367 140 408 493 429 500 414 435 426 407 197 
61 9 480 354 254 364 479 52 437 494 9 
62 11 132 275 108 280 345 189 162 85 179 188 250 
63 11 42 296 44 241 289 187 482 8 356 263 215 
64 11 261 51 127 115 164 16 267 272 97 411 262 
65 11 72 2 245 148 144 244 58 286 156 161 212 
66 11 466 160 391 440 321 499 84 81 339 75 113 
67 11 35 257 395 373 472 327 320 314 331 426 353 
68 11 94 105 461 126 413 143 450 348 292 370 186 
69 11 136 212 286 38 244 15 40 150 159 209 175 
70 11 12 231 25 20 41 251 137 284 74 102 53 
71 11 190 178 227 18 83 285 116 78 155 181 258 
72 11 65 2 58 156 245 244 219 286 148 212 287 
73 11 184 213 174 19 467 187 252 234 17 104 309 
74 11 137 205 36 12 231 76 70 56 269 25 218 
75 11 459 449 262 499 46 466 272 402 66 266 321 
76 11 36 285 227 205 88 18 74 116 78 56 71 
77 11 497 427 401 177 141 149 403 117 451 390 455 
78 11 18 99 56 13 269 178 227 190 218 181 71 
79 11 121 420 384 362 202 369 135 511 441 214 444 
80 11 14 252 11 467 228 234 174 73 29 23 288 
81 10 339 440 483 323 325 321 490 361 409 466 
82 11 98 455 401 141 235 497 242 390 149 300 10 
83 11 258 116 3 112 71 256 88 406 285 190 277 
84 11 160 391 113 66 266 440 290 466 372 325 81 
85 11 162 345 188 62 108 125 132 139 275 147 229 
86 11 439 340 475 324 312 318 357 293 487 474 336 
87 11 124 193 303 157 164 394 115 51 127 16 64 
88 11 116 285 76 258 227 36 83 71 205 18 190 
89 11 260 91 211 168 249 7 92 59 273 134 201 
90 10 344 512 501 441 430 454 135 511 121 384 
91 11 211 7 89 134 260 201 207 168 48 92 13 
92 11 168 59 130 7 198 34 89 260 91 133 48 
93 10 237 238 185 486 380 463 350 375 146 416 
94 11 68 413 461 126 105 450 348 516 186 388 299 
95 11 484 343 359 366 297 52 363 383 4 437 436 
96 11 152 31 217 128 53 153 172 268 102 284 37 
97 11 377 261 208 402 459 262 64 438 513 75 127 
98 11 82 141 401 242 390 455 497 235 149 300 27 
99 11 13 56 78 269 218 18 207 134 181 178 201 
100 8 332 443 496 368 432 326 396 382 
101 11 259 222 509 471 347 392 502 357 312 475 270 
102 11 217 284 251 53 31 152 96 25 22 150 57 
103 11 310 370 50 216 292 306 503 142 230 143 105 
104 11 118 174 17 246 73 279 184 23 213 154 252 
105 11 68 94 292 143 370 126 461 413 356 103 348 
106 11 313 327 395 427 257 117 331 481 67 330 400 
107 11 110 405 167 109 250 114 192 372 267 26 224 
108 11 280 62 189 179 132 275 139 264 162 85 229 
109 11 372 290 266 405 114 46 84 107 160 113 272 
110 11 107 167 192 224 405 250 470 267 411 26 16 
111 11 45 248 220 291 129 119 221 10 295 21 464 
112 11 3 256 83 258 281 247 406 116 277 416 301 
113 11 84 391 160 204 506 66 440 325 290 81 339 
114 11 272 46 405 372 449 266 109 262 75 267 459 
115 11 127 164 51 261 64 87 124 16 193 267 411 
116 11 258 88 83 285 227 71 76 190 3 112 18 
117 11 400 427 313 419 106 445 497 77 49 389 401 
118 11 104 246 174 279 154 17 23 29 282 73 43 
119 11 291 21 248 263 491 221 111 482 45 464 215 
120 11 196 194 10 236 123 129 47 273 158 249 170 
121 11 79 384 420 362 441 454 135 511 202 214 457 
122 11 27 271 242 390 300 47 149 123 98 194 232 
123 11 47 170 194 232 122 120 26 179 273 189 27 
124 11 193 87 303 394 157 164 115 51 16 274 127 
125 11 229 139 226 210 162 85 264 108 155 181 280 
126 11 413 348 94 299 498 68 450 510 516 465 388 
127 11 115 51 164 261 64 87 16 124 97 193 267 
128 11 96 53 152 217 31 284 102 172 268 25 153 
129 11 158 111 236 45 196 10 120 119 291 248 220 
130 11 133 198 92 59 283 34 168 276 43 255 169 
131 10 317 138 183 404 399 508 422 428 352 341 
132 11 275 62 345 108 188 280 379 470 162 85 192 
133 11 130 43 255 283 276 169 34 161 279 198 59 
134 11 207 201 211 91 13 99 210 89 260 218 7 
135 11 511 344 501 79 121 441 384 420 444 362 369 
136 11 69 38 212 286 40 15 244 150 159 175 37 
137 11 74 12 231 205 70 36 25 76 20 41 284 
138 11 317 428 131 399 508 422 352 183 5 404 397 
139 11 229 226 125 264 108 210 162 280 85 179 62 
140 11 408 367 493 60 429 426 373 500 414 435 197 
141 11 149 390 401 98 242 497 300 77 82 455 177 
142 11 503 230 50 163 310 306 342 502 103 347 346 
143 11 105 68 461 94 103 370 310 292 450 50 126 
144 11 148 200 65 33 282 245 72 161 244 253 2 
145 9 186 388 516 294 450 382 396 368 299 
146 11 495 486 358 30 350 375 238 185 463 166 173 
147 11 278 85 162 397 138 188 317 5 428 277 345 
148 11 144 200 65 33 244 72 245 282 286 212 2 
149 11 300 390 141 242 271 77 27 177 98 401 451 
150 11 40 15 38 159 22 175 37 57 153 102 31 
151 11 239 306 223 54 337 489 342 216 55 464 349 
152 11 31 96 217 53 128 102 153 268 284 172 37 
153 11 268 37 165 175 159 172 31 152 96 217 150 
154 11 279 282 169 43 246 161 255 118 23 245 29 
155 11 181 178 210 190 125 71 78 18 99 207 229 
156 11 58 287 2 171 219 72 209 245 65 34 161 
157 11 303 394 124 87 193 274 39 243 164 448 473 
158 11 236 129 196 198 59 120 10 111 283 45 276 
159 11 175 37 150 40 153 38 165 15 31 268 152 
160 11 391 84 66 113 440 466 81 325 339 266 321 
161 11 245 169 255 43 2 154 279 282 65 133 144 
162 11 85 345 188 108 62 125 132 139 275 229 147 
163 11 230 347 142 502 503 101 259 50 222 509 342 
164 11 51 115 127 64 87 124 16 193 261 411 267 
165 11 153 268 37 172 175 159 31 152 96 150 217 
166 11 375 350 358 185 302 30 146 495 486 238 237 
167 11 224 411 267 110 16 192 405 107 470 114 250 
168 11 92 59 89 7 260 130 198 91 34 211 249 
169 11 43 255 161 279 154 133 245 282 276 283 2 
170 11 123 47 179 189 232 264 26 194 273 280 226 
171 11 287 156 58 219 265 34 209 2 41 72 20 
172 11 268 153 165 96 31 152 37 217 128 175 159 
173 9 180 316 240 319 504 463 495 30 146 
174 11 73 104 252 118 184 17 213 246 467 80 19 
175 11 159 37 153 150 40 165 38 268 15 31 172 
176 11 360 433 448 415 393 378 5 515 473 243 428 
177 11 403 451 77 149 427 141 300 497 390 401 290 
178 11 190 155 181 71 78 18 227 99 210 13 277 
179 11 189 280 264 108 170 232 26 62 226 250 139 
180 10 504 173 240 434 191 442 30 495 417 316 
181 11 155 178 210 190 78 125 71 99 18 207 13 
182 11 199 447 195 421 233 418 288 333 228 304 329 
183 9 131 334 338 404 301 317 507 341 416 
184 11 213 19 73 187 17 467 174 309 234 42 288 
185 11 375 350 166 146 237 358 238 486 495 30 302 
186 10 145 450 516 388 461 294 382 299 413 396 
187 11 213 184 19 42 63 17 44 73 296 309 203 
188 11 345 132 379 275 85 162 32 62 278 39 473 
189 11 179 280 108 232 26 62 264 170 250 275 132 
190 11 71 178 227 18 78 155 181 285 116 83 99 
191 10 434 442 504 240 410 436 417 180 4 173 
192 11 470 250 224 110 167 275 132 379 26 32 62 
193 11 124 87 303 394 157 164 16 51 274 115 411 
194 11 123 120 47 196 10 122 170 27 273 82 98 
195 10 421 333 447 199 418 233 182 510 469 288 
196 11 120 236 10 194 129 158 249 273 123 45 111 
197 11 500 435 381 414 487 376 340 324 86 407 439 
198 11 59 130 92 168 283 158 276 133 236 89 260 
199 11 447 182 195 421 333 288 233 418 228 234 309 
200 11 148 144 33 244 65 212 286 72 253 282 245 
201 11 207 134 211 210 91 13 260 89 99 226 181 
202 11 362 420 369 79 384 431 121 214 457 468 458 
203 11 44 21 17 263 63 187 482 42 119 289 291 
204 9 506 325 113 425 409 353 391 483 331 
205 11 36 74 76 137 56 269 18 227 285 218 78 
206 11 328 6 314 429 373 369 426 444 472 320 202 
207 11 201 134 211 13 210 91 99 181 218 269 78 
208 8 438 513 402 452 377 459 499 321 
209 11 219 57 22 58 287 156 15 171 72 40 150 
210 11 125 229 201 207 226 139 181 155 134 264 211 
211 11 201 134 91 260 89 207 249 273 7 210 13 
212 11 286 244 69 136 65 72 148 200 144 219 58 
213 11 184 19 187 73 309 17 467 234 174 42 288 
214 11 457 355 468 362 384 420 431 454 121 202 441 
215 11 8 289 482 491 489 241 263 464 239 63 223 
216 11 306 370 103 292 151 489 50 310 239 241 8 
217 11 152 31 96 102 53 284 128 153 251 268 25 
218 11 269 56 99 13 78 18 205 134 48 207 231 
219 11 209 58 156 287 171 72 2 57 65 22 15 
220 11 45 111 295 248 221 235 455 456 424 10 291 
221 11 248 464 291 337 349 456 295 119 220 491 223 
222 11 471 101 357 312 259 509 475 270 392 502 439 
223 11 239 337 464 349 151 55 54 489 456 491 492 
224 11 167 411 470 192 16 110 267 32 379 107 250 
225 11 24 315 387 505 322 476 389 386 308 371 445 
226 11 229 139 264 125 210 108 179 280 189 162 170 
227 11 285 18 76 190 71 78 116 88 36 205 178 
228 11 234 467 288 182 199 80 14 252 447 421 309 
229 11 139 226 125 264 210 108 162 85 280 179 62 
230 11 142 503 163 50 310 347 502 306 342 103 346 
231 11 12 70 137 20 41 74 25 205 251 218 265 
232 11 26 250 189 47 179 170 123 122 280 27 192 
233 4 418 447 195 329 
234 11 467 288 228 309 19 199 182 421 73 184 213 
235 11 455 401 497 82 98 141 220 295 117 77 419 
236 11 158 196 129 120 10 198 249 59 273 194 111 
237 11 185 93 238 350 486 375 146 495 358 463 166 
238 11 486 146 495 463 350 380 375 185 358 30 237 
239 11 223 337 151 464 489 349 54 55 306 491 215 
240 8 504 180 173 191 434 442 319 316 
241 11 289 8 296 215 63 42 482 356 292 489 44 
242 11 390 300 149 271 27 141 98 122 82 401 497 
243 11 378 366 484 95 415 359 515 52 176 433 448 
244 11 286 212 65 72 148 69 200 144 136 58 2 
245 11 161 2 65 72 255 169 58 43 156 144 282 
246 11 23 118 29 154 282 104 279 174 253 252 169 
247 11 406 281 334 301 416 277 397 183 256 338 317 
248 11 221 291 111 45 119 220 464 295 491 337 456 
249 11 273 260 89 211 196 236 120 91 59 170 201 
250 11 26 192 232 470 189 110 280 179 107 62 275 
251 11 102 284 25 70 53 22 57 217 20 41 152 
252 11 80 14 467 174 11 73 228 234 29 23 184 
253 11 29 23 33 282 246 144 154 148 200 279 118 
254 9 480 479 9 61 494 354 364 488 352 
255 11 43 169 161 133 279 154 245 276 2 283 282 
256 11 3 112 281 247 406 83 258 416 301 334 277 
257 11 395 35 67 327 373 106 481 313 331 426 472 
258 11 83 116 88 3 112 285 71 256 227 190 406 
259 11 509 101 392 471 222 347 312 357 475 502 407 
260 11 89 211 249 91 168 273 59 7 92 134 201 
261 11 64 127 51 115 164 97 377 16 262 267 272 
262 11 449 459 75 272 46 402 499 377 114 266 466 
263 11 482 21 491 44 119 215 8 289 291 203 63 
264 11 226 139 179 229 189 108 280 170 125 62 210 
265 11 48 41 20 171 287 7 34 231 156 219 92 
266 11 372 46 109 449 84 114 272 160 290 66 75 
267 11 411 16 167 224 405 110 51 114 64 107 164 
268 11 172 153 165 31 96 37 152 175 159 217 128 
269 11 56 218 99 13 78 18 205 134 207 48 227 
270 9 485 357 312 318 222 439 474 471 86 
271 11 27 122 242 300 390 149 141 98 82 451 47 
272 11 46 449 114 262 75 266 459 372 405 109 499 
273 11 249 260 170 211 89 123 120 196 264 194 47 
274 11 39 32 379 473 394 448 188 393 193 360 470 
275 11 132 62 345 108 188 280 379 470 162 85 192 
276 11 283 133 43 130 169 255 198 279 118 154 59 
277 11 406 397 247 183 317 71 334 83 147 301 281 
278 11 147 5 393 138 428 188 360 317 433 473 176 
279 11 154 169 43 255 282 118 161 246 276 133 104 
280 11 108 189 62 179 132 275 264 139 250 345 226 
281 10 247 256 416 301 334 406 3 93 112 183 
282 11 154 279 246 161 253 144 23 169 29 33 245 
283 11 276 133 130 198 43 255 169 279 59 158 154 
284 11 53 25 102 251 217 152 31 96 70 128 12 
285 11 227 76 88 116 36 18 71 258 190 205 83 
286 11 212 244 69 72 65 136 148 200 219 58 144 
287 11 171 156 58 219 209 2 34 72 265 245 41 
288 11 234 309 199 421 228 195 447 182 333 365 467 
289 11 8 241 215 482 63 296 263 42 489 491 44 
290 11 109 372 84 266 451 113 403 160 391 177 66 
291 11 119 248 221 491 21 263 111 45 464 482 220 
292 11 370 216 103 105 356 241 68 306 289 310 8 
293 7 336 423 474 340 318 86 439 
294 9 382 396 388 145 516 332 443 368 100 
295 11 424 456 307 398 477 220 308 221 445 349 492 
296 11 42 63 241 356 289 44 8 187 482 215 292 
297 11 343 383 359 52 437 95 4 484 363 61 436 
298 8 458 431 320 468 472 425 353 202 
299 9 498 510 388 516 413 348 294 126 450 
300 11 149 390 242 271 27 141 122 98 451 177 77 
301 8 334 416 338 183 507 341 404 247 
302 11 166 185 375 350 358 30 146 495 237 486 238 
303 11 157 394 124 193 87 164 274 39 473 115 448 
304 8 462 329 28 374 182 233 418 446 
305 3 512 90 453 
306 11 151 216 50 503 142 54 342 103 239 310 489 
307 11 424 456 398 492 477 351 387 55 505 24 295 
308 11 445 477 387 419 398 24 225 315 476 322 389 
309 11 365 288 465 469 19 421 234 333 195 199 213 
310 11 50 103 503 142 230 306 370 216 163 292 143 
311 10 376 381 412 330 460 481 197 340 514 500 
312 11 357 475 439 471 222 270 86 485 318 324 101 
313 11 106 327 117 427 395 481 400 330 257 412 35 
314 11 472 320 206 373 328 67 458 35 426 298 6 
315 11 225 24 387 505 322 386 476 389 371 335 49 
316 6 319 173 463 380 240 180 
317 10 131 138 183 428 399 508 404 422 397 352 
318 10 485 474 336 270 423 293 439 86 357 312 
319 4 316 173 240 463 
320 11 472 458 298 314 67 353 331 431 425 468 202 
321 9 466 452 499 81 440 66 339 323 490 
322 11 476 389 49 315 225 514 24 419 386 387 445 
323 5 490 361 81 339 483 
324 11 487 475 407 414 86 435 439 312 197 357 500 
325 8 409 483 339 81 440 391 323 506 
326 4 432 443 332 100 
327 11 395 106 257 313 67 331 35 481 353 427 330 
328 11 206 6 314 429 444 369 426 373 202 472 320 
329 6 374 28 233 304 418 446 
330 10 481 412 311 514 49 460 376 400 389 322 
331 10 353 425 327 395 472 67 320 257 298 106 
332 8 443 100 396 326 432 368 496 382 
333 11 195 421 447 510 469 199 418 233 365 498 465 
334 8 301 416 183 338 507 341 404 247 
335 7 371 505 386 351 315 24 225 
336 7 423 293 474 318 340 485 86 
337 11 223 464 349 239 55 456 151 489 54 221 491 
338 7 507 341 404 183 301 334 416 
339 9 81 440 483 325 323 490 361 409 321 
340 10 86 293 381 439 376 336 197 423 474 318 
341 5 507 404 338 422 183 
342 6 346 54 502 151 270 485 
343 11 297 383 359 95 52 437 4 484 363 436 366 
344 11 501 135 511 90 441 121 79 454 384 420 430 
345 11 132 275 188 62 379 162 85 108 32 280 470 
346 6 342 270 485 54 502 318 
347 11 101 259 163 502 509 222 471 392 357 270 312 
348 10 126 413 498 465 469 510 299 365 94 516 
349 11 55 337 456 223 464 492 307 239 424 351 54 
350 11 375 146 358 185 495 30 486 166 238 237 463 
351 9 492 505 335 55 371 307 387 424 24 
352 10 508 422 9 479 488 399 254 480 494 428 
353 8 331 425 298 320 472 458 506 204 
354 8 61 364 480 254 494 437 479 9 
355 6 214 454 457 430 441 384 
356 11 296 241 42 292 63 105 126 348 289 370 68 
357 11 312 270 222 471 475 485 439 318 86 324 101 
358 11 30 146 350 375 495 166 486 185 238 180 173 
359 11 52 297 484 343 95 437 383 366 61 4 354 
360 11 393 448 176 433 415 473 5 378 39 515 278 
361 5 490 323 483 339 81 
362 11 420 384 202 121 79 214 457 431 454 441 468 
363 11 95 383 343 297 366 4 436 484 359 52 437 
364 5 494 354 254 480 61 
365 11 465 469 309 510 333 348 498 421 195 288 299 
366 11 95 484 363 359 343 52 297 383 4 243 437 
367 11 60 140 408 493 429 426 500 414 435 407 197 
368 10 100 496 332 443 382 396 432 294 326 385 
369 11 444 202 6 79 362 420 121 384 206 328 511 
370 11 292 103 216 105 310 306 50 241 68 356 143 
371 7 335 386 505 315 24 225 351 
372 11 266 109 46 290 114 405 84 272 449 160 66 
373 11 426 35 429 67 314 257 206 395 472 140 320 
374 6 28 446 329 462 478 304 
375 11 350 358 185 146 166 30 495 486 238 302 237 
376 10 381 311 340 197 500 293 435 460 86 412 
377 11 97 402 459 208 262 513 438 75 449 499 272 
378 11 415 433 176 515 243 448 360 484 393 52 359 
379 11 32 274 345 188 39 132 275 470 473 192 62 
380 8 463 316 238 486 319 173 495 146 
381 10 376 197 340 500 435 311 414 86 487 293 
382 8 294 396 332 368 443 100 388 145 
383 11 4 343 297 437 436 363 95 359 52 484 442 
384 11 420 121 362 79 441 214 454 457 202 355 431 
385 8 478 496 368 100 332 446 432 443 
386 9 371 315 460 335 225 24 505 322 476 
387 11 24 225 315 505 308 477 398 445 322 476 389 
388 9 516 145 294 450 299 382 186 396 413 
389 11 322 476 49 514 315 225 24 419 445 460 386 
390 11 242 300 149 141 271 27 98 122 82 401 497 
391 11 160 84 113 66 440 81 325 339 466 321 483 
392 11 509 259 407 471 101 475 222 324 487 312 357 
393 11 360 448 176 473 433 5 415 378 39 278 428 
394 11 303 193 157 124 274 39 87 473 32 448 360 
395 11 257 327 67 35 106 313 331 373 481 472 353 
396 8 443 332 382 100 294 326 368 432 
397 11 277 317 406 183 138 247 131 334 301 147 428 
398 11 477 424 308 307 387 445 24 225 505 315 492 
399 11 508 352 428 422 9 131 479 138 488 317 254 
400 11 419 49 117 389 445 476 322 514 308 412 330 
401 11 497 455 141 235 77 98 82 149 390 117 427 
402 10 513 208 438 459 499 452 75 377 321 466 
403 11 451 177 77 149 290 113 427 300 204 506 141 
404 8 341 507 338 422 183 131 508 488 
405 11 114 107 109 372 110 46 167 267 266 272 290 
406 11 247 277 397 281 334 256 301 183 416 317 3 
407 11 487 324 414 475 392 435 500 197 86 439 471 
408 11 140 493 367 60 429 426 500 197 435 414 373 
409 4 483 325 339 81 
410 11 417 436 191 434 442 504 4 180 383 240 363 
411 11 16 267 167 224 110 51 164 405 470 64 192 
412 10 514 330 311 49 460 481 389 322 476 376 
413 11 126 348 94 299 450 498 516 388 510 68 461 
414 11 435 487 500 197 324 407 381 475 86 439 340 
415 11 433 378 176 515 360 5 448 393 479 9 399 
416 8 301 334 338 183 507 341 404 281 
417 11 410 191 434 442 436 504 180 240 4 383 173 
418 4 233 447 195 329 
419 11 445 308 389 400 476 322 49 477 225 387 24 
420 11 362 384 121 79 202 214 457 441 454 355 431 
421 11 195 333 447 199 288 469 365 418 233 182 510 
422 9 508 352 488 9 399 479 404 131 254 
423 7 336 293 474 318 340 485 86 
424 11 307 398 456 477 492 295 387 351 308 505 55 
425 7 353 298 331 506 409 458 204 
426 11 373 429 35 140 408 67 206 314 257 328 367 
427 11 117 77 106 313 177 497 327 401 400 403 395 
428 11 399 138 508 5 131 352 317 422 9 479 488 
429 11 426 373 140 408 206 328 367 35 60 314 493 
430 6 454 355 512 441 214 384 
431 9 468 298 457 458 214 362 202 420 355 
432 4 326 443 332 100 
433 11 415 176 378 360 5 393 515 448 428 399 479 
434 10 191 442 504 240 410 436 417 180 4 173 
435 11 414 500 197 487 324 407 381 86 340 475 439 
436 11 4 442 383 410 191 434 437 417 343 297 363 
437 11 4 297 343 383 354 52 359 61 436 364 95 
438 7 513 208 402 452 499 321 459 
439 11 86 475 312 324 340 318 357 293 485 487 474 
440 11 81 339 391 66 321 325 466 160 483 323 490 
441 11 454 384 121 430 420 355 362 79 214 457 344 
442 10 191 434 436 504 240 410 4 417 180 437 
443 6 332 100 326 396 432 368 
444 11 369 6 79 202 511 328 135 121 206 420 362 
445 11 308 419 477 387 476 24 225 322 389 398 315 
446 5 374 478 28 329 385 
447 8 199 195 421 182 233 418 333 288 
448 11 360 176 393 473 433 378 415 5 39 243 515 
449 11 46 75 262 272 459 266 114 499 372 466 66 
450 10 516 186 388 145 461 413 94 299 294 126 
451 11 403 177 290 149 77 300 113 141 84 390 204 
452 8 321 499 513 466 323 490 438 81 
453 3 438 208 513 
454 10 441 355 430 384 214 121 457 420 362 79 
455 11 235 401 497 82 98 141 77 117 220 295 390 
456 11 307 424 349 492 55 295 398 351 477 337 387 
457 11 214 355 468 362 431 420 384 454 202 121 441 
458 10 298 431 320 472 468 202 425 314 457 214 
459 11 75 262 402 449 499 377 466 513 46 208 272 
460 8 386 514 49 322 389 412 476 315 
461 11 450 94 186 68 413 516 145 388 126 105 143 
462 7 304 28 374 329 446 233 418 
463 9 380 316 486 238 173 495 146 319 30 
464 11 337 223 239 349 491 489 221 55 151 456 215 
465 11 365 469 348 309 510 498 333 421 126 299 195 
466 10 499 321 66 440 452 81 75 160 339 391 
467 11 234 228 252 73 80 288 14 19 184 213 174 
468 9 431 457 214 298 458 362 355 420 202 
469 11 365 465 510 498 333 348 421 309 195 299 126 
470 11 192 224 379 250 32 275 132 110 167 62 345 
471 11 222 101 312 357 509 475 259 392 270 324 439 
472 11 320 314 458 298 67 331 353 431 35 425 373 
473 11 39 393 448 360 274 176 32 433 379 5 188 
474 6 336 423 318 293 485 86 
475 11 324 312 439 86 357 487 471 407 222 392 414 
476 11 322 389 49 315 225 514 24 419 445 386 387 
477 11 398 308 387 445 24 424 225 307 419 315 505 
478 5 446 385 496 374 100 
479 11 9 254 488 352 480 61 422 508 494 354 364 
480 9 254 61 354 479 9 364 494 488 352 
481 10 330 412 311 514 313 376 257 49 395 460 
482 11 263 8 215 289 491 241 21 44 63 489 119 
483 7 409 325 339 81 323 361 490 
484 11 95 359 52 366 297 343 383 363 437 4 515 
485 9 318 270 474 357 312 439 336 423 86 
486 11 238 146 495 350 463 30 358 375 380 185 173 
487 11 324 414 407 435 475 197 500 86 439 340 392 
488 8 9 422 479 352 254 494 508 480 
489 11 239 215 491 223 464 8 151 337 216 289 482 
490 5 361 323 339 483 81 
491 11 215 482 464 489 8 263 291 119 239 289 337 
492 10 351 307 55 424 505 456 335 387 398 371 
493 11 408 140 60 367 500 414 435 197 487 407 381 
494 6 364 254 488 354 480 9 
495 11 146 30 486 358 350 238 375 173 463 180 185 
496 9 100 368 332 443 385 432 326 396 382 
497 11 401 455 77 141 235 98 82 117 427 149 390 
498 9 510 299 348 469 413 365 465 333 126 
499 10 466 321 452 75 66 459 402 513 440 81 
500 11 197 435 414 381 487 324 376 407 340 86 493 
501 11 344 135 511 90 121 441 79 384 454 420 430 
502 11 101 222 347 270 471 163 357 259 312 346 485 
503 11 142 230 50 310 163 306 103 342 502 347 346 
504 10 180 240 434 191 442 173 417 410 436 319 
505 10 24 335 225 371 315 387 351 386 492 398 
506 9 204 325 425 409 113 353 483 391 331 
507 5 341 338 404 183 422 
508 10 352 422 399 488 9 479 131 428 404 254 
509 11 259 101 392 471 222 347 475 312 357 407 324 
510 9 498 299 469 333 348 365 465 195 421 
511 11 135 344 501 79 121 441 384 420 444 369 362 
512 4 430 90 454 441 
513 8 438 208 402 452 499 321 459 466 
514 10 49 412 389 322 460 476 386 330 315 225 
515 11 415 378 52 61 479 480 433 359 9 254 484 
516 9 388 145 450 294 299 186 382 396 413 
DEPOT_SECTION
   1
   -1
EOF
