NAME :  X-n513-kX-w102-c11.cctp
COMMENT : 	Adapted by Maziero, Usberti and Cavellucci from the Uchoa, Pecin, Pessoa, Poggi, Subramanian, and Vidal (2013)
TYPE :  CCTP
DIMENSION :    397
EDGE_WEIGHT_TYPE : 	EUC_2D	
CAPACITY : 	142
VERTICES_WITHIN_COVERAGE :  11
VERTICES_WITH_DEMAND : 	102
NODE_COORD_SECTION
1 500 500
2 425 323
3 806 514
4 853 637
5 326 818
6 601 664
7 680 704
8 358 401
9 688 267
10 146 846
11 171 615
12 962 75
13 710 565
14 662 574
15 665 599
16 112 811
17 439 69
18 573 69
19 997 647
20 338 524
21 626 29
22 633 570
23 957 890
24 746 397
25 224 83
26 425 827
27 787 99
28 518 378
29 890 763
30 860 608
31 683 188
32 417 680
33 483 987
34 676 197
35 294 710
36 284 281
37 568 565
38 942 896
39 223 358
40 538 428
41 910 702
42 550 516
43 524 467
44 675 128
45 977 488
46 725 890
47 205 512
48 768 660
49 443 407
50 518 363
51 730 609
52 973 64
53 683 832
54 308 298
55 510 14
56 17 647
57 275 527
58 303 571
59 415 624
60 713 483
61 502 147
62 38 76
63 265 477
64 446 909
65 849 738
66 878 222
67 334 250
68 683 28
69 502 235
70 513 433
71 850 764
72 465 213
73 854 966
74 465 648
75 491 477
76 916 597
77 999 146
78 581 824
79 892 989
80 734 581
81 232 386
82 538 431
83 139 541
84 697 331
85 557 181
86 339 957
87 271 514
88 162 281
89 175 424
90 819 403
91 783 931
92 562 627
93 995 892
94 135 789
95 117 954
96 911 834
97 125 757
98 279 646
99 175 386
100 296 128
101 379 78
102 567 526
103 809 171
104 389 7
105 772 308
106 143 492
107 322 894
108 935 730
109 24 791
110 482 626
111 974 278
112 258 823
113 58 256
114 884 523
115 475 692
116 763 576
117 498 330
118 978 797
119 491 640
120 428 548
121 174 25
122 139 270
123 314 61
124 618 247
125 402 994
126 491 870
127 563 291
128 131 720
129 376 831
130 448 343
131 352 424
132 351 829
133 560 60
134 914 981
135 835 298
136 267 968
137 983 778
138 305 670
139 677 546
140 701 632
141 593 635
142 170 268
143 805 891
144 989 313
145 419 48
146 758 526
147 472 66
148 419 642
149 522 581
150 763 327
151 736 892
152 220 35
153 620 463
154 87 942
155 635 473
156 141 772
157 411 593
158 684 692
159 264 440
160 171 385
161 959 282
162 118 379
163 727 988
164 228 622
165 529 231
166 789 316
167 577 949
168 308 992
169 91 33
170 415 835
171 323 299
172 987 269
173 818 672
174 550 782
175 929 654
176 917 999
177 584 19
178 73 17
179 305 771
180 327 985
181 468 340
182 692 921
183 822 44
184 529 801
185 441 883
186 799 15
187 409 285
188 921 912
189 185 815
190 11 860
191 934 42
192 162 143
193 116 639
194 185 898
195 644 943
196 869 312
197 501 86
198 163 620
199 633 133
200 948 742
201 92 529
202 691 976
203 252 718
204 371 447
205 545 965
206 227 60
207 30 899
208 398 274
209 460 653
210 262 554
211 646 981
212 491 605
213 764 475
214 715 67
215 342 496
216 888 336
217 560 874
218 911 52
219 309 177
220 596 454
221 977 808
222 56 272
223 181 471
224 484 988
225 289 633
226 796 913
227 178 219
228 524 516
229 255 573
230 954 1
231 722 654
232 518 137
233 433 330
234 939 901
235 595 961
236 951 404
237 715 956
238 156 471
239 713 616
240 460 949
241 406 772
242 156 745
243 189 916
244 498 652
245 924 598
246 609 662
247 44 591
248 189 622
249 758 634
250 484 682
251 488 618
252 739 645
253 631 577
254 266 653
255 782 596
256 328 752
257 228 334
258 432 519
259 17 636
260 284 656
261 131 872
262 610 626
263 297 531
264 728 700
265 118 496
266 753 510
267 591 648
268 263 861
269 116 727
270 121 722
271 311 625
272 179 790
273 700 602
274 687 608
275 576 520
276 619 668
277 689 614
278 273 795
279 670 622
280 37 884
281 310 576
282 565 629
283 961 754
284 548 608
285 387 643
286 735 499
287 127 530
288 306 597
289 267 712
290 719 490
291 218 615
292 297 575
293 154 759
294 186 516
295 610 659
296 421 630
297 572 520
298 57 672
299 573 664
300 112 761
301 589 737
302 732 501
303 118 871
304 168 777
305 764 912
306 330 606
307 383 717
308 242 665
309 270 682
310 131 744
311 235 557
312 410 622
313 34 593
314 789 712
315 601 803
316 46 784
317 411 768
318 175 561
319 606 451
320 453 855
321 600 675
322 313 597
323 802 569
324 455 570
325 617 795
326 579 361
327 614 547
328 270 627
329 695 617
330 136 446
331 650 520
332 154 412
333 365 805
334 308 730
335 640 776
336 643 616
337 582 522
338 678 545
339 565 565
340 411 449
341 774 557
342 467 625
343 240 552
344 92 562
345 699 606
346 723 565
347 676 382
348 104 337
349 181 846
350 332 761
351 123 806
352 622 737
353 886 668
354 130 804
355 429 696
356 337 809
357 161 642
358 76 787
359 302 650
360 458 725
361 233 529
362 659 593
363 777 565
364 170 895
365 149 566
366 279 673
367 269 700
368 427 710
369 428 661
370 674 700
371 665 706
372 522 638
373 231 527
374 146 811
375 161 286
376 662 668
377 748 588
378 171 610
379 321 708
380 502 561
381 266 647
382 687 567
383 102 614
384 730 598
385 303 683
386 101 747
387 31 623
388 642 718
389 780 648
390 149 448
391 37 580
392 212 489
393 777 609
394 527 562
395 649 760
396 437 708
397 46 689
DEMAND_SECTION
2 8
3 2
4 10
5 7
6 10
7 7
8 7
9 2
10 9
11 9
12 1
13 3
14 9
15 4
16 10
17 3
18 4
19 2
20 8
21 2
22 9
23 2
24 8
25 8
26 5
27 8
28 4
29 5
30 9
31 8
32 5
33 2
34 10
35 1
36 3
37 9
38 3
39 8
40 4
41 2
42 6
43 8
44 9
45 4
46 1
47 6
48 2
49 1
50 10
51 3
52 4
53 2
54 7
55 3
56 6
57 1
58 5
59 4
60 1
61 7
62 4
63 9
64 7
65 5
66 4
67 6
68 10
69 1
70 6
71 1
72 8
73 3
74 5
75 5
76 6
77 1
78 9
79 1
80 2
81 5
82 10
83 7
84 6
85 5
86 10
87 4
88 6
89 10
90 3
91 10
92 4
93 10
94 3
95 8
96 9
97 3
98 2
99 8
100 7
101 7
102 8
103 2
COVERAGE_SECTION
2 11 233 130 187 181 208 117 49 50 8 171 28 
3 11 146 266 341 323 213 363 286 116 302 114 255 
4 11 30 353 173 389 76 175 245 393 255 323 41 
5 9 356 132 333 179 129 350 278 256 112 
6 9 246 295 321 276 267 299 141 262 282 
7 8 370 158 371 376 388 264 395 231 
8 11 131 204 340 49 215 159 2 233 130 171 54 
9 11 84 34 124 31 105 150 166 347 127 44 24 
10 11 261 349 374 303 354 351 16 189 364 94 194 
11 9 378 198 248 357 291 318 365 164 193 
12 11 52 191 218 230 77 183 66 186 27 103 172 
13 11 346 382 80 139 273 338 384 345 377 51 14 
14 11 362 15 382 22 253 139 338 274 336 273 277 
15 9 362 274 279 14 277 336 273 329 345 
16 11 351 354 94 374 358 10 156 300 97 303 261 
17 11 145 147 101 197 104 55 61 232 133 123 18 
18 11 133 177 21 197 55 232 199 147 61 85 68 
19 11 175 245 76 41 108 200 283 353 137 30 4 
20 10 215 263 58 281 57 292 87 322 288 210 
21 11 177 68 18 133 214 199 44 55 197 232 147 
22 10 253 14 327 362 15 336 139 338 331 382 
23 11 38 234 93 188 96 221 118 134 137 176 79 
24 11 150 347 90 213 84 60 166 105 290 286 302 
25 11 206 152 121 100 192 123 219 169 227 101 178 
26 10 170 320 129 185 241 317 333 132 126 64 
27 11 183 103 214 186 44 68 218 31 34 66 191 
28 11 50 117 40 70 82 181 326 130 49 43 127 
29 11 71 65 108 200 41 283 96 118 137 353 221 
30 11 4 76 245 353 323 173 255 175 393 114 389 
31 11 34 44 199 9 124 214 85 103 27 84 105 
32 8 355 369 368 396 148 285 296 307 
33 11 224 240 205 125 64 167 185 235 126 320 217 
34 11 31 44 9 124 199 85 84 103 214 105 127 
35 10 334 289 367 379 385 309 366 138 203 256 
36 11 54 171 67 257 39 219 208 142 81 88 227 
37 11 339 102 394 297 337 275 284 149 327 42 92 
38 11 234 23 188 93 96 134 221 118 79 176 73 
39 11 257 81 99 160 89 332 159 375 36 88 54 
40 11 82 70 43 28 220 50 75 319 326 42 153 
41 11 108 353 175 200 29 65 283 4 71 173 19 
42 11 102 297 228 275 337 339 394 37 43 380 75 
43 11 75 70 82 40 228 42 297 102 220 275 337 
44 11 199 31 34 214 68 21 27 18 85 124 133 
45 11 236 114 245 76 19 30 3 175 144 216 90 
46 11 151 182 305 237 91 53 226 143 202 195 163 
47 10 294 392 373 361 223 343 311 318 238 106 
48 11 389 249 252 231 173 393 314 264 51 255 239 
49 11 340 130 181 70 233 28 204 8 75 2 50 
50 11 28 117 181 326 40 70 82 130 127 49 233 
51 11 384 239 80 377 273 345 329 140 252 249 277 
52 11 12 191 218 230 77 183 186 66 27 103 172 
53 11 335 46 325 151 395 315 182 78 352 305 195 
54 11 171 36 67 257 208 187 39 8 81 2 219 
55 11 147 133 197 177 18 17 145 21 104 232 61 
56 7 259 387 298 397 313 247 391 
57 11 87 263 210 361 343 373 229 311 63 58 292 
58 9 292 281 288 322 263 210 306 229 57 
59 9 312 296 148 157 285 369 342 209 74 
60 11 290 302 286 266 213 146 338 139 331 155 13 
61 11 232 197 85 72 147 69 165 17 18 133 145 
62 11 169 178 192 121 113 25 152 206 222 227 122 
63 11 87 159 57 392 373 361 263 47 210 215 343 
64 11 185 240 320 126 170 26 33 224 125 129 205 
65 11 71 29 314 41 173 353 108 200 4 48 283 
66 11 103 135 196 161 111 216 172 166 105 77 144 
67 11 171 54 36 208 219 187 2 233 100 257 72 
68 11 214 21 177 44 199 18 186 27 133 183 31 
69 11 165 72 85 127 61 117 232 187 181 208 2 
70 11 40 82 43 75 28 50 49 228 220 42 319 
71 11 65 29 314 41 108 96 173 200 353 283 4 
72 11 69 165 61 187 208 232 85 2 233 117 127 
73 11 79 134 176 91 226 188 143 305 234 38 23 
74 10 209 342 119 110 244 251 250 369 115 148 
75 10 43 70 228 82 40 42 258 49 340 380 
76 11 245 30 175 4 353 114 19 41 323 173 45 
77 11 12 52 191 172 218 111 161 66 230 144 103 
78 9 315 325 174 217 184 335 301 395 352 
79 11 134 176 73 188 234 38 23 226 91 143 93 
80 11 377 384 346 51 13 116 273 239 345 363 341 
81 11 39 257 99 160 159 89 332 63 223 390 392 
82 11 40 70 43 28 220 75 50 319 326 42 228 
83 8 287 365 318 106 201 265 344 294 
84 11 347 9 150 105 24 166 124 326 34 127 90 
85 11 165 232 61 69 124 199 72 127 197 18 34 
86 11 180 168 107 125 136 64 240 268 185 132 129 
87 11 57 263 63 210 361 373 343 311 229 392 58 
88 11 375 142 122 227 348 257 39 160 99 222 113 
89 10 332 390 99 160 330 223 238 81 162 106 
90 11 24 213 166 150 216 196 105 135 3 266 286 
91 11 226 305 143 151 46 237 73 163 182 202 79 
92 8 282 284 141 267 299 372 262 6 
93 11 23 38 234 188 221 118 96 137 134 176 79 
94 11 354 156 351 374 16 97 304 293 300 272 310 
95 11 154 364 243 261 303 194 207 280 10 349 190 
96 11 38 221 23 234 29 118 188 137 71 283 200 
97 10 300 310 156 386 293 269 242 94 270 128 
98 11 260 381 254 225 328 359 366 138 309 271 308 
99 10 160 332 89 39 81 162 390 330 257 223 
100 11 219 123 25 101 206 152 67 192 145 227 36 
101 11 145 17 123 104 147 100 219 197 61 55 232 
102 11 297 275 337 42 37 339 228 327 394 149 43 
103 11 27 66 31 183 135 34 214 44 105 166 196 
104 11 145 101 17 123 147 55 197 100 206 152 133 
105 11 166 150 135 84 9 24 196 90 216 347 66 
106 8 238 265 287 223 390 330 83 294 
107 10 86 268 132 5 129 356 180 136 112 168 
108 11 200 283 41 29 137 175 353 118 65 221 71 
109 7 316 358 190 386 16 300 280 
110 8 251 342 119 212 74 244 209 372 
111 11 161 172 144 216 196 66 236 77 135 166 103 
112 5 278 268 5 179 189 
113 8 222 122 348 88 375 142 227 162 
114 11 3 76 245 30 323 45 341 363 4 255 146 
115 7 250 360 396 209 74 244 355 
116 11 363 377 341 255 80 393 323 384 346 51 146 
117 11 181 50 28 130 233 2 127 326 49 69 187 
118 11 221 137 283 200 96 108 29 23 93 38 234 
119 8 244 110 251 74 342 372 209 212 
120 9 258 324 157 380 312 59 296 212 342 
121 11 152 206 25 169 178 192 62 123 100 227 219 
122 10 88 375 142 227 348 113 222 257 162 160 
123 11 101 100 206 104 25 152 145 219 17 121 147 
124 11 127 9 34 31 85 165 84 199 69 326 44 
125 11 86 240 180 33 224 168 64 185 107 136 205 
126 11 320 185 64 217 26 184 170 240 78 174 205 
127 11 165 124 326 117 69 50 28 181 85 72 130 
128 5 270 269 310 242 97 
129 10 132 333 170 356 26 5 241 317 320 107 
130 11 181 233 2 117 49 187 50 28 208 8 70 
131 11 8 204 340 215 159 49 20 63 263 87 233 
132 10 356 129 5 333 170 107 350 26 179 241 
133 11 18 177 197 55 21 147 232 199 61 17 85 
134 11 176 79 73 188 234 38 23 93 226 91 143 
135 11 196 166 105 216 150 66 90 161 103 24 111 
136 10 168 180 86 107 243 268 194 364 125 112 
137 11 118 221 283 200 108 96 29 41 23 93 38 
138 8 385 359 260 366 98 309 225 35 
139 11 338 382 14 331 13 22 346 362 15 253 273 
140 9 329 239 277 345 274 231 273 279 51 
141 10 267 262 282 295 6 246 92 299 321 276 
142 11 88 375 122 227 257 348 39 113 222 36 160 
143 11 226 91 305 151 46 73 237 182 188 96 163 
144 11 111 161 172 236 216 196 66 135 77 45 90 
145 11 17 101 104 147 197 55 123 61 232 133 100 
146 11 266 286 341 302 363 3 116 213 346 290 80 
147 11 17 197 145 55 232 61 133 101 18 104 177 
148 9 296 59 369 312 285 32 209 74 157 
149 8 394 380 284 212 339 37 251 372 
150 11 105 166 84 24 135 90 9 347 196 216 213 
151 11 46 305 182 91 226 237 143 53 202 163 195 
152 11 206 121 25 123 100 192 169 178 101 219 104 
153 11 155 319 220 331 337 275 297 102 327 42 82 
154 11 95 207 280 303 261 364 243 194 190 10 16 
155 11 153 319 220 331 337 275 327 60 297 139 338 
156 10 94 293 97 304 310 242 300 354 351 374 
157 8 312 59 296 120 148 324 285 342 
158 8 7 370 371 376 264 388 231 140 
159 11 63 81 392 87 57 131 223 89 39 47 373 
160 10 99 332 89 162 39 81 390 330 257 348 
161 11 111 172 144 216 196 66 236 135 77 166 90 
162 6 348 332 160 99 330 89 
163 11 237 202 182 91 211 305 195 151 46 226 143 
164 9 291 248 328 308 381 254 98 229 11 
165 11 69 85 72 127 61 124 232 117 181 50 187 
166 11 105 150 135 196 24 90 84 216 9 66 347 
167 11 235 205 195 211 217 33 224 126 202 240 182 
168 10 180 86 136 125 107 268 243 194 240 64 
169 11 178 62 121 152 192 206 25 227 113 123 100 
170 11 26 129 320 185 333 132 241 317 64 356 126 
171 11 54 36 67 208 187 257 2 8 233 39 219 
172 11 111 161 144 66 216 77 196 236 135 12 103 
173 11 389 4 314 48 353 249 65 393 30 252 255 
174 8 184 78 315 301 325 352 335 217 
175 11 353 41 245 76 19 108 4 30 200 283 173 
176 11 134 79 73 188 234 38 23 93 226 91 143 
177 11 21 133 18 55 68 197 147 199 232 214 44 
178 11 169 62 121 152 192 206 25 227 113 123 100 
179 8 350 256 278 334 356 5 35 379 
180 11 168 86 136 125 107 240 268 64 185 243 33 
181 11 130 117 233 2 50 28 49 187 208 70 127 
182 11 237 46 151 195 202 305 163 211 53 91 226 
183 11 186 27 218 214 191 103 230 68 12 52 44 
184 8 174 78 315 126 217 301 325 320 
185 11 64 320 126 170 26 240 129 132 333 33 224 
186 11 183 27 214 68 218 191 103 230 44 12 21 
187 11 208 2 233 130 181 67 171 72 117 54 69 
188 11 234 38 23 134 93 96 79 73 176 143 221 
189 7 272 349 374 304 10 94 354 
190 10 280 207 109 316 358 303 16 154 261 351 
191 11 218 12 52 230 183 77 186 27 103 66 214 
192 11 227 25 206 121 152 142 122 169 100 88 62 
193 5 383 357 198 11 378 
194 10 364 243 349 261 10 303 189 268 95 374 
195 11 211 235 182 202 167 237 163 46 205 151 217 
196 11 216 135 166 66 161 105 90 150 111 144 236 
197 11 147 232 61 17 133 55 18 145 177 85 101 
198 9 11 378 357 248 193 291 365 318 383 
199 11 44 31 34 18 85 133 21 214 124 232 68 
200 11 108 283 137 41 29 118 221 175 353 65 96 
201 4 344 287 265 83 
202 11 237 163 211 182 195 46 151 235 305 91 167 
203 4 289 367 309 35 
204 11 131 340 8 215 49 20 258 159 63 263 120 
205 11 167 235 224 33 240 217 195 211 126 64 185 
206 11 25 152 121 123 100 192 169 219 101 178 227 
207 11 280 190 154 303 95 261 109 316 16 358 10 
208 11 187 2 233 67 171 130 72 54 181 69 36 
209 11 74 342 369 119 110 244 250 115 148 251 296 
210 10 229 343 311 57 361 87 292 373 263 58 
211 11 195 202 235 237 167 182 163 205 46 151 217 
212 9 251 110 342 119 149 372 380 244 74 
213 11 266 286 302 290 146 60 3 24 341 90 363 
214 11 68 44 27 21 186 199 183 31 34 103 177 
215 11 20 204 263 87 131 57 63 340 58 281 292 
216 11 196 135 161 236 90 166 111 144 66 105 172 
217 11 78 126 167 184 315 205 174 235 325 195 320 
218 11 191 12 52 230 183 186 77 27 103 66 214 
219 11 100 67 36 123 54 101 171 25 208 227 206 
220 11 319 153 155 82 40 275 337 297 43 42 102 
221 11 118 137 283 96 200 23 93 108 38 29 234 
222 7 113 348 122 88 375 142 162 
223 10 238 392 390 106 294 89 47 330 332 265 
224 11 33 240 205 125 64 167 185 235 126 217 320 
225 11 98 328 359 271 260 381 254 138 288 366 322 
226 11 91 143 305 151 46 73 237 163 182 79 202 
227 11 142 88 122 375 192 36 257 113 222 219 348 
228 10 42 102 394 297 43 380 75 275 337 339 
229 9 210 311 343 292 58 361 57 373 281 
230 11 191 52 218 12 183 77 186 27 103 66 214 
231 10 252 140 239 249 48 51 264 329 277 345 
232 11 61 197 85 147 18 133 72 165 69 17 199 
233 11 2 130 181 187 117 208 49 50 28 8 171 
234 11 38 23 188 93 96 134 79 176 221 73 118 
235 11 167 205 195 211 217 202 182 224 33 237 163 
236 11 45 216 144 161 196 111 90 114 172 135 3 
237 11 202 163 182 305 46 151 91 195 211 226 143 
238 8 390 106 223 330 265 89 294 332 
239 11 345 51 329 273 140 277 384 274 231 252 80 
240 11 64 33 224 185 125 126 205 320 167 86 170 
241 6 317 333 26 307 170 368 
242 4 293 310 156 97 
243 10 194 364 349 261 95 10 303 268 136 189 
244 7 119 372 110 74 250 251 209 
245 11 76 175 30 353 4 114 19 41 45 323 173 
246 8 295 6 276 321 267 141 262 299 
247 7 313 391 387 259 344 56 383 
248 7 11 378 198 291 357 164 318 
249 11 252 389 48 393 51 231 255 384 377 239 140 
250 5 115 244 209 74 119 
251 9 110 212 119 342 244 74 372 209 149 
252 11 231 249 48 51 239 140 389 384 329 393 264 
253 8 22 14 362 327 15 336 262 139 
254 11 381 98 260 366 328 308 309 225 359 138 367 
255 11 393 116 363 323 377 341 249 80 384 389 51 
256 6 350 179 334 379 35 356 
257 11 39 81 99 160 36 375 88 54 142 171 89 
258 10 120 324 75 340 157 380 228 215 20 204 
259 7 56 387 313 247 298 391 397 
260 11 98 254 366 359 381 225 138 309 328 385 271 
261 11 303 10 364 349 194 374 16 351 354 243 189 
262 6 141 267 295 336 246 6 
263 11 57 87 58 20 210 292 281 215 229 343 63 
264 11 158 231 7 370 252 48 314 371 249 140 376 
265 5 106 287 201 238 83 
266 11 146 286 302 213 290 60 341 3 363 346 116 
267 10 141 6 295 246 299 321 262 282 276 92 
268 8 112 278 107 5 349 194 356 189 
269 6 270 128 310 386 97 300 
270 6 269 128 310 386 97 300 
271 8 225 306 359 288 322 98 260 328 
272 6 304 189 374 293 156 94 
273 11 345 274 277 329 239 140 384 51 15 279 382 
274 9 277 329 345 273 279 15 239 140 362 
275 11 297 337 102 42 37 339 327 228 394 220 153 
276 8 246 295 6 321 267 141 262 376 
277 8 274 329 345 273 279 140 239 15 
278 4 112 179 5 356 
279 4 277 274 15 329 
280 11 207 190 154 303 109 261 316 16 358 95 10 
281 9 58 292 288 322 306 263 271 210 229 
282 9 92 284 141 267 299 372 262 6 295 
283 11 200 137 108 118 221 29 41 96 175 71 19 
284 9 92 282 149 372 339 37 394 141 212 
285 4 312 148 59 296 
286 11 302 290 266 60 146 213 346 341 13 3 338 
287 7 83 201 265 106 365 344 318 
288 8 322 281 292 58 306 271 225 328 
289 7 367 203 35 309 366 334 385 
290 11 60 302 286 266 213 146 338 139 331 346 13 
291 9 164 248 11 378 328 198 308 229 381 
292 10 58 281 288 322 210 229 263 306 271 57 
293 6 242 156 304 310 97 94 
294 11 47 392 223 318 373 106 361 83 238 287 365 
295 8 246 6 276 321 267 141 262 299 
296 10 59 148 312 369 285 157 209 342 74 32 
297 11 275 102 337 42 37 339 228 327 394 220 43 
298 4 397 56 259 387 
299 10 267 6 321 141 246 282 295 92 276 262 
300 10 97 386 310 156 269 94 270 293 358 128 
301 9 352 388 174 321 325 335 395 315 6 
302 11 286 290 266 60 146 213 346 13 338 341 139 
303 11 261 10 364 16 351 374 349 354 194 154 280 
304 7 272 293 156 242 94 374 189 
305 11 91 226 151 46 143 237 182 163 202 73 53 
306 5 322 288 271 281 58 
307 2 368 32 
308 10 254 381 309 366 98 260 367 164 328 289 
309 11 366 367 254 260 289 308 385 381 35 98 138 
310 9 97 269 128 270 242 300 293 156 386 
311 9 343 229 210 361 373 57 47 87 291 
312 8 59 296 148 157 285 369 342 32 
313 7 247 391 387 259 56 344 383 
314 11 173 48 264 65 389 71 249 252 231 4 393 
315 9 325 78 335 174 395 301 352 184 217 
316 7 109 358 386 300 16 351 97 
317 6 241 307 333 368 26 360 
318 10 365 83 294 378 11 47 287 198 311 248 
319 11 220 153 155 82 40 275 337 297 331 43 102 
320 11 185 26 126 170 64 129 184 240 241 317 333 
321 9 6 246 295 276 267 299 141 262 282 
322 7 288 306 281 292 58 271 225 
323 11 363 341 255 116 393 3 377 146 80 30 266 
324 9 120 380 157 212 258 342 251 110 59 
325 10 315 335 78 395 352 301 174 53 388 184 
326 11 50 28 127 40 82 117 319 220 70 347 153 
327 11 22 253 337 331 275 37 297 102 339 14 139 
328 10 225 381 98 254 260 359 271 164 288 308 
329 9 277 274 345 140 273 239 279 15 51 
330 7 390 238 332 89 106 223 265 
331 11 139 338 327 155 22 14 253 382 153 337 60 
332 8 89 160 99 390 330 162 238 223 
333 8 129 132 356 5 241 350 170 317 
334 8 35 379 256 350 179 289 385 367 
335 10 395 325 352 315 388 301 53 371 78 7 
336 3 15 279 362 
337 11 275 297 102 42 327 37 339 228 331 394 220 
338 11 139 382 14 13 331 346 22 362 15 253 273 
339 11 37 394 102 149 275 284 297 337 42 327 92 
340 11 204 49 131 8 258 215 75 120 70 20 130 
341 11 363 116 323 146 255 377 80 266 346 393 3 
342 9 110 251 74 119 209 212 244 296 148 
343 9 311 210 361 229 373 57 87 47 263 
344 7 201 287 83 383 247 365 391 
345 10 273 274 329 277 239 140 51 384 279 15 
346 11 13 80 377 384 382 116 273 51 345 338 139 
347 11 84 24 153 319 326 155 150 60 220 9 290 
348 8 162 122 375 88 222 160 99 332 
349 9 189 10 374 364 194 261 272 354 303 
350 7 256 179 334 356 379 333 5 
351 11 354 16 94 374 156 10 300 97 358 304 293 
352 9 388 301 395 335 371 325 370 321 7 
353 11 41 4 175 30 173 76 65 108 245 29 200 
354 11 351 94 374 16 156 10 97 300 304 272 293 
355 9 368 396 32 369 360 115 307 209 148 
356 8 5 132 333 129 350 179 256 278 
357 6 198 11 248 378 193 291 
358 10 316 16 300 386 351 109 97 354 94 156 
359 9 260 138 225 98 271 366 385 254 381 
360 7 396 368 115 355 250 32 317 
361 10 373 343 311 47 210 87 57 392 229 294 
362 8 15 14 336 279 253 274 22 277 
363 11 341 116 323 255 377 146 393 80 346 384 3 
364 10 194 243 261 349 10 303 95 189 374 154 
365 11 318 83 287 378 11 198 344 294 383 201 248 
366 11 309 260 254 138 385 98 367 381 359 308 35 
367 10 289 309 203 35 366 385 308 260 138 254 
368 7 396 355 32 360 307 369 115 
369 11 148 32 296 209 355 59 74 312 285 396 368 
370 7 7 371 158 376 388 264 276 
371 9 370 7 158 388 376 352 395 276 264 
372 6 244 119 251 284 92 110 
373 10 361 343 47 311 210 87 392 57 294 229 
374 10 354 351 94 16 10 156 189 272 304 349 
375 11 88 142 122 227 348 257 39 160 99 162 222 
376 4 158 370 371 7 
377 11 80 116 384 51 346 255 393 363 341 13 239 
378 9 11 198 248 357 291 318 365 164 193 
379 6 334 35 385 138 256 367 
380 9 394 149 212 324 228 251 339 37 42 
381 11 254 98 260 328 225 366 308 309 359 138 164 
382 11 13 139 338 14 346 273 362 15 274 345 277 
383 8 193 344 198 247 357 365 11 378 
384 11 51 80 377 239 273 345 346 13 116 329 274 
385 9 138 366 35 379 260 309 359 367 98 
386 7 300 269 97 310 270 128 156 
387 8 259 56 313 247 391 298 397 383 
388 11 371 352 370 7 395 158 376 276 301 335 321 
389 11 48 249 393 252 173 255 231 51 314 377 384 
390 7 330 238 89 332 223 106 265 
391 6 247 313 387 344 259 56 
392 11 47 223 294 373 361 63 238 87 106 343 159 
393 11 255 249 116 377 389 363 51 323 384 80 48 
394 9 149 380 339 37 228 42 284 102 212 
395 10 335 352 388 325 371 7 301 315 370 158 
396 8 368 355 360 32 115 369 250 307 
397 3 298 56 259 
DEPOT_SECTION
   1
   -1
EOF
