NAME :  X-n502-kX-w100-c11.cctp
COMMENT : 	Adapted by Maziero, Usberti and Cavellucci from the Uchoa, Pecin, Pessoa, Poggi, Subramanian, and Vidal (2013)
TYPE :  CCTP
DIMENSION :    477
EDGE_WEIGHT_TYPE : 	EUC_2D	
CAPACITY : 	13
VERTICES_WITHIN_COVERAGE :  11
VERTICES_WITH_DEMAND : 	100
NODE_COORD_SECTION
1 0 0
2 159 917
3 635 200
4 278 907
5 667 141
6 119 954
7 29 448
8 590 87
9 375 990
10 511 374
11 298 957
12 107 911
13 323 766
14 161 892
15 151 912
16 438 1000
17 284 933
18 724 191
19 286 940
20 144 785
21 672 157
22 759 176
23 553 179
24 625 167
25 133 924
26 695 73
27 149 946
28 599 162
29 305 712
30 229 709
31 332 874
32 756 143
33 696 248
34 94 777
35 381 975
36 224 928
37 414 951
38 910 190
39 749 162
40 668 273
41 146 786
42 17 793
43 255 883
44 326 837
45 549 226
46 137 868
47 74 977
48 618 248
49 328 898
50 62 802
51 177 914
52 646 208
53 666 142
54 591 205
55 163 873
56 721 164
57 623 153
58 333 956
59 237 874
60 729 102
61 330 896
62 192 949
63 446 930
64 148 897
65 92 876
66 389 942
67 131 847
68 237 990
69 594 149
70 780 190
71 719 271
72 168 982
73 278 911
74 256 896
75 279 903
76 613 47
77 597 187
78 440 296
79 320 872
80 261 925
81 301 931
82 599 218
83 227 860
84 591 189
85 319 992
86 617 172
87 118 839
88 117 909
89 578 300
90 503 966
91 232 907
92 34 955
93 191 816
94 273 42
95 171 877
96 132 920
97 113 906
98 581 125
99 138 910
100 149 870
101 622 303
102 587 60
103 234 818
104 310 832
105 568 227
106 711 167
107 728 251
108 185 937
109 110 840
110 254 945
111 140 937
112 238 919
113 97 799
114 804 100
115 243 927
116 310 938
117 171 826
118 708 166
119 151 931
120 262 920
121 121 769
122 149 660
123 199 749
124 78 738
125 323 963
126 63 799
127 233 931
128 693 170
129 673 156
130 213 980
131 620 191
132 125 946
133 748 117
134 250 926
135 661 327
136 147 831
137 181 923
138 548 235
139 682 157
140 263 898
141 469 339
142 144 915
143 569 234
144 577 450
145 598 231
146 693 229
147 227 952
148 211 643
149 12 942
150 288 969
151 734 312
152 641 37
153 241 761
154 618 206
155 156 915
156 712 391
157 74 787
158 705 109
159 240 902
160 603 338
161 572 363
162 620 204
163 272 925
164 652 231
165 585 299
166 107 789
167 617 223
168 242 907
169 601 240
170 453 388
171 301 889
172 356 916
173 681 238
174 607 119
175 351 970
176 159 896
177 582 156
178 472 257
179 143 878
180 113 926
181 236 888
182 738 73
183 716 196
184 532 304
185 334 772
186 514 326
187 220 712
188 631 121
189 531 262
190 707 228
191 617 160
192 624 151
193 609 191
194 599 228
195 210 727
196 239 749
197 650 373
198 550 138
199 393 807
200 195 806
201 81 873
202 375 829
203 104 898
204 271 910
205 222 806
206 655 37
207 324 847
208 622 54
209 399 213
210 101 875
211 30 895
212 241 842
213 627 176
214 869 235
215 812 223
216 561 286
217 171 973
218 582 242
219 651 183
220 175 840
221 365 946
222 125 924
223 296 984
224 682 174
225 165 846
226 136 982
227 397 821
228 185 807
229 236 972
230 278 948
231 338 880
232 759 215
233 498 51
234 177 962
235 253 878
236 190 865
237 612 266
238 204 902
239 169 877
240 101 877
241 242 885
242 585 201
243 592 164
244 461 897
245 652 246
246 267 899
247 204 860
248 298 852
249 156 936
250 135 977
251 268 927
252 303 918
253 110 877
254 625 248
255 265 857
256 592 325
257 715 115
258 565 376
259 306 759
260 208 961
261 120 892
262 115 963
263 33 726
264 750 227
265 432 927
266 97 802
267 552 303
268 257 846
269 191 873
270 595 189
271 190 815
272 175 949
273 359 932
274 458 246
275 175 872
276 486 173
277 320 818
278 207 945
279 183 837
280 76 937
281 154 972
282 215 886
283 647 225
284 90 963
285 635 199
286 310 860
287 757 281
288 528 222
289 187 947
290 568 144
291 179 893
292 429 939
293 323 841
294 527 77
295 116 883
296 792 274
297 611 282
298 170 927
299 136 925
300 161 968
301 575 237
302 283 911
303 684 269
304 303 957
305 98 843
306 608 145
307 136 934
308 412 885
309 435 879
310 421 265
311 189 916
312 296 925
313 394 969
314 161 856
315 222 947
316 189 816
317 470 256
318 239 875
319 171 888
320 433 776
321 205 941
322 55 872
323 354 803
324 612 189
325 135 857
326 664 215
327 145 863
328 740 71
329 102 946
330 592 250
331 519 99
332 214 884
333 402 983
334 593 174
335 118 922
336 738 121
337 41 948
338 350 705
339 544 124
340 196 681
341 160 889
342 159 858
343 654 195
344 782 275
345 328 864
346 241 885
347 740 404
348 266 914
349 717 180
350 684 230
351 301 860
352 180 920
353 301 865
354 294 964
355 383 912
356 559 143
357 433 966
358 827 145
359 294 784
360 147 707
361 173 944
362 298 915
363 175 923
364 333 919
365 280 869
366 596 219
367 614 286
368 104 861
369 279 771
370 188 938
371 100 840
372 117 866
373 722 126
374 215 853
375 276 893
376 444 296
377 547 286
378 213 803
379 86 990
380 173 947
381 672 173
382 130 983
383 360 987
384 718 192
385 66 817
386 657 97
387 33 914
388 623 266
389 678 101
390 270 864
391 620 232
392 335 935
393 295 987
394 101 738
395 359 881
396 158 934
397 182 919
398 717 177
399 653 54
400 683 139
401 381 928
402 277 962
403 645 238
404 608 267
405 625 217
406 565 76
407 523 188
408 519 855
409 165 947
410 305 922
411 406 294
412 125 702
413 227 858
414 774 36
415 611 204
416 107 703
417 209 979
418 557 175
419 80 903
420 172 890
421 203 984
422 665 200
423 230 892
424 138 914
425 270 872
426 702 198
427 737 258
428 150 975
429 666 196
430 174 804
431 266 959
432 142 936
433 142 976
434 79 750
435 208 836
436 439 240
437 438 339
438 841 230
439 289 910
440 191 888
441 309 861
442 242 958
443 408 932
444 243 954
445 616 200
446 729 281
447 642 230
448 707 106
449 395 678
450 134 820
451 514 197
452 547 236
453 660 98
454 0 923
455 190 870
456 302 673
457 50 967
458 79 930
459 628 254
460 3 965
461 159 988
462 613 252
463 229 833
464 343 877
465 626 246
466 332 921
467 214 861
468 117 872
469 119 964
470 370 865
471 632 243
472 304 893
473 52 899
474 434 232
475 288 773
476 301 905
477 284 799
DEMAND_SECTION
2 1
3 1
4 1
5 1
6 1
7 1
8 1
9 1
10 1
11 1
12 1
13 1
14 1
15 1
16 1
17 1
18 1
19 1
20 1
21 1
22 1
23 1
24 1
25 1
26 1
27 1
28 1
29 1
30 1
31 1
32 1
33 1
34 1
35 1
36 1
37 1
38 1
39 1
40 1
41 1
42 1
43 1
44 1
45 1
46 1
47 1
48 1
49 1
50 1
51 1
52 1
53 1
54 1
55 1
56 1
57 1
58 1
59 1
60 1
61 1
62 1
63 1
64 1
65 1
66 1
67 1
68 1
69 1
70 1
71 1
72 1
73 1
74 1
75 1
76 1
77 1
78 1
79 1
80 1
81 1
82 1
83 1
84 1
85 1
86 1
87 1
88 1
89 1
90 1
91 1
92 1
93 1
94 1
95 1
96 1
97 1
98 1
99 1
100 1
101 1
COVERAGE_SECTION
2 11 155 15 142 298 119 363 396 51 249 176 352 
3 11 285 52 162 131 154 445 343 405 219 415 213 
4 11 73 75 302 204 439 246 348 375 140 163 120 
5 11 53 129 400 21 139 381 224 128 188 389 192 
6 11 132 262 469 329 307 111 250 180 432 284 27 
7 11 122 148 416 412 263 360 340 124 394 434 187 
8 11 102 406 174 98 76 208 188 339 290 306 69 
9 11 383 35 313 333 175 221 66 58 37 85 125 
10 11 186 258 141 170 161 184 437 267 256 377 160 
11 11 304 354 150 19 116 230 402 81 125 223 17 
12 11 97 88 203 180 335 222 261 96 419 25 295 
13 11 185 259 359 475 369 323 477 277 29 104 338 
14 11 341 176 319 420 64 239 95 291 55 15 179 
15 11 155 142 2 99 424 64 176 119 299 96 14 
16 11 357 333 313 37 35 292 9 63 90 265 443 
17 11 19 163 312 230 81 251 302 73 362 80 252 
18 11 384 183 349 398 426 56 106 118 128 22 39 
19 11 17 230 81 312 11 163 251 116 304 402 354 
20 11 41 121 430 450 166 136 228 113 117 266 34 
21 10 129 139 53 381 5 224 400 128 219 118 
22 11 39 70 32 18 232 56 349 398 384 183 106 
23 11 418 407 356 177 290 84 242 334 198 243 270 
24 11 86 213 191 57 192 131 28 324 306 193 219 
25 11 299 96 222 307 424 142 99 111 335 432 119 
26 11 389 448 158 182 453 60 328 386 399 257 206 
27 11 249 432 111 119 396 409 307 132 361 380 299 
28 11 243 334 69 177 191 306 86 77 24 57 192 
29 10 456 338 259 13 475 369 185 359 30 196 
30 8 187 195 196 340 123 153 148 29 
31 11 231 345 464 79 61 49 286 441 207 395 353 
32 11 39 133 336 22 373 56 60 257 106 398 70 
33 9 173 146 350 190 303 107 71 40 427 
34 11 166 113 157 266 121 434 126 394 50 124 385 
35 11 313 9 333 383 175 221 66 37 401 273 443 
36 11 127 112 115 315 91 321 147 278 134 168 159 
37 11 292 443 357 66 313 265 333 63 401 35 221 
38 11 214 438 358 215 70 114 296 22 232 344 32 
39 11 22 32 56 398 349 18 106 118 70 336 384 
40 10 303 245 173 33 403 459 164 350 388 471 
41 11 20 121 430 450 166 228 136 117 113 266 316 
42 10 50 126 385 157 263 434 34 113 266 124 
43 11 235 74 241 346 140 318 425 59 181 246 375 
44 11 293 207 104 277 345 286 441 248 351 79 31 
45 9 138 452 105 288 143 301 218 189 242 
46 11 327 325 100 179 372 468 67 342 55 295 314 
47 11 379 284 457 280 329 262 337 92 458 469 6 
48 11 462 254 465 459 471 391 169 237 388 404 167 
49 11 61 231 364 466 31 472 464 79 171 476 252 
50 11 126 385 157 113 266 34 42 166 371 305 434 
51 11 352 397 363 137 311 298 2 155 291 108 176 
52 11 3 285 343 283 326 422 447 405 429 164 219 
53 11 5 21 129 400 139 381 224 128 188 192 389 
54 11 242 82 366 84 270 77 415 193 194 445 324 
55 11 239 95 275 100 341 342 314 319 14 420 179 
56 11 106 118 398 349 18 39 384 128 183 373 426 
57 11 192 191 24 306 86 213 28 69 188 243 334 
58 11 125 392 175 116 304 221 11 273 466 364 85 
59 11 318 241 346 181 235 83 413 423 43 282 332 
60 11 257 336 448 133 158 373 182 328 26 32 389 
61 11 49 231 31 364 464 466 79 472 171 476 345 
62 11 289 370 108 321 278 272 380 234 260 361 409 
63 11 265 292 244 37 357 443 309 308 66 313 401 
64 11 176 14 341 15 99 142 155 179 424 2 319 
65 11 210 240 201 253 368 203 295 468 372 419 261 
66 11 401 443 221 37 313 355 273 35 292 172 333 
67 11 325 87 327 46 109 136 372 450 100 468 342 
68 11 229 130 417 442 421 444 147 260 431 315 110 
69 11 28 177 243 306 191 334 290 98 57 192 86 
70 11 22 232 39 215 264 32 18 384 56 183 349 
71 11 446 107 427 33 303 287 151 190 146 173 40 
72 11 217 461 300 281 428 234 433 226 250 272 380 
73 11 4 302 204 75 439 348 163 246 120 375 251 
74 11 140 246 43 159 168 235 241 346 375 204 348 
75 11 4 73 302 375 204 439 246 140 348 362 476 
76 11 208 102 152 399 206 8 406 386 453 174 188 
77 11 270 84 193 334 324 242 54 415 131 445 243 
78 11 376 411 310 437 178 317 141 274 436 474 186 
79 11 345 31 286 441 231 353 351 464 171 207 61 
80 11 120 251 134 163 348 115 204 110 73 17 112 
81 11 312 410 116 252 362 17 19 439 11 304 476 
82 11 366 194 145 54 415 167 154 169 242 162 391 
83 11 413 467 374 59 318 212 247 332 463 181 241 
84 11 270 77 242 334 54 193 324 243 415 445 28 
85 11 223 393 125 304 354 58 150 175 11 383 402 
86 11 24 213 191 324 131 57 28 193 192 334 77 
87 11 109 67 371 305 325 450 368 372 136 468 46 
88 11 97 12 335 180 203 222 261 96 99 25 424 
89 10 165 216 267 256 377 297 367 101 160 404 
90 11 63 357 16 292 244 265 37 443 333 313 309 
91 11 159 168 112 423 181 36 115 127 241 346 74 
92 11 337 457 149 460 387 47 280 454 458 284 473 
93 11 271 316 200 228 430 117 279 378 435 220 205 
94 6 209 233 474 276 331 294 
95 11 239 275 55 319 420 341 14 291 269 455 176 
96 11 25 299 222 424 99 142 335 307 88 111 432 
97 11 88 12 203 261 335 180 222 295 96 99 424 
98 11 290 69 174 356 177 198 306 339 8 28 243 
99 11 424 142 96 15 25 299 64 155 222 88 2 
100 11 327 179 46 55 342 314 325 239 341 95 14 
101 11 367 297 165 256 388 237 404 160 89 135 459 
102 11 8 406 76 208 152 174 294 98 399 206 188 
103 10 463 205 212 378 435 268 374 200 413 83 
104 10 293 44 277 207 248 286 351 441 353 345 
105 10 143 301 45 218 138 452 366 145 194 242 
106 11 118 56 398 349 128 384 18 183 224 139 426 
107 11 427 71 446 190 33 264 146 287 232 303 173 
108 11 370 289 62 361 137 272 380 363 298 352 397 
109 11 87 371 305 67 368 372 325 450 468 210 253 
110 11 444 431 442 134 80 115 251 230 127 120 163 
111 11 432 307 27 119 299 25 249 132 396 96 222 
112 11 115 91 127 168 134 36 159 80 120 348 423 
113 11 266 166 34 157 126 50 385 121 371 109 450 
114 11 358 133 32 336 328 182 414 60 39 373 22 
115 11 134 112 127 80 36 120 168 110 91 159 251 
116 11 81 410 312 304 252 11 19 392 17 362 125 
117 11 220 279 225 316 93 271 430 228 136 200 314 
118 11 106 56 398 128 349 224 139 384 18 183 426 
119 11 249 396 432 111 27 307 2 299 142 155 15 
120 11 80 348 251 163 134 204 73 115 4 140 246 
121 11 166 20 34 41 394 113 266 434 157 124 450 
122 11 360 412 340 416 148 187 195 394 30 123 124 
123 9 195 196 187 153 30 378 200 228 430 
124 11 434 394 34 416 263 157 121 166 412 126 113 
125 11 58 304 11 116 85 175 354 392 223 150 393 
126 11 50 157 385 113 266 34 166 42 434 371 305 
127 11 36 115 112 134 315 147 91 110 444 168 442 
128 10 224 118 139 106 381 129 21 398 349 56 
129 10 21 139 5 53 381 224 400 128 219 118 
130 11 417 421 260 229 68 147 315 278 442 62 234 
131 11 324 445 193 162 154 415 3 213 285 86 77 
132 11 6 307 111 469 262 432 222 25 180 329 27 
133 11 336 60 32 373 257 448 158 39 182 328 56 
134 11 115 80 120 112 127 251 110 348 168 163 36 
135 10 101 197 40 160 303 367 297 256 388 151 
136 11 450 67 225 117 220 314 325 87 342 327 279 
137 11 352 397 363 51 311 298 108 370 361 2 289 
138 9 452 45 143 105 288 301 189 218 330 
139 10 129 21 128 224 400 381 5 53 118 106 
140 11 246 74 204 375 348 4 43 75 73 120 235 
141 11 437 186 376 78 170 10 184 411 178 317 310 
142 11 424 15 99 155 96 299 25 2 119 64 222 
143 9 105 301 218 138 45 452 330 145 194 
144 9 258 161 10 197 160 256 170 186 156 
145 10 194 169 366 82 218 330 167 391 301 48 
146 7 350 190 173 33 326 426 183 
147 11 315 442 444 260 278 127 229 36 321 110 115 
148 11 340 122 30 187 195 360 456 412 123 196 29 
149 9 454 460 92 337 387 457 211 473 280 
150 11 354 402 11 223 304 393 230 431 19 17 125 
151 10 446 287 71 427 107 344 303 296 33 135 
152 11 206 399 208 76 102 386 453 26 8 389 188 
153 8 196 369 123 195 205 475 378 30 
154 11 162 445 415 405 131 167 193 3 285 324 82 
155 11 2 15 142 119 298 424 99 176 396 64 51 
156 7 347 197 135 151 446 287 71 
157 11 126 50 34 113 266 385 166 434 124 121 394 
158 11 448 257 373 60 389 336 26 400 133 453 182 
159 11 168 91 423 181 74 112 241 346 140 43 115 
160 11 256 101 161 165 89 367 258 297 135 197 267 
161 11 258 160 256 10 89 267 165 186 184 101 216 
162 11 154 445 415 131 405 3 285 193 324 167 82 
163 11 251 80 120 348 17 73 204 302 4 19 134 
164 10 283 403 447 245 326 471 52 173 405 465 
165 11 89 216 256 297 367 267 101 404 377 160 237 
166 11 113 266 34 121 157 20 41 450 126 50 434 
167 11 391 405 154 82 162 194 415 145 366 169 445 
168 11 159 91 112 74 423 115 181 134 241 346 140 
169 10 145 194 330 462 48 218 391 82 366 167 
170 11 437 141 10 186 376 78 411 258 184 161 310 
171 11 472 476 353 439 79 375 75 362 49 302 4 
172 11 273 364 466 355 392 401 221 49 61 395 231 
173 8 350 146 33 190 326 164 245 303 
174 11 188 306 98 69 8 192 57 191 28 177 290 
175 11 383 58 221 125 35 9 392 85 273 313 66 
176 11 14 341 64 319 420 15 155 291 2 239 95 
177 11 243 69 28 290 334 356 306 98 418 77 84 
178 11 317 274 436 474 376 78 310 189 288 451 184 
179 11 100 46 327 64 341 55 325 14 176 239 342 
180 11 335 222 12 88 25 96 97 132 299 329 307 
181 11 346 241 423 318 59 159 91 43 168 235 282 
182 11 328 60 26 133 448 257 336 158 414 373 389 
183 10 384 18 426 349 398 106 118 56 190 128 
184 10 267 377 186 216 189 89 165 256 452 138 
185 11 13 259 323 359 475 277 369 477 44 104 29 
186 11 184 267 141 10 377 216 189 89 161 258 165 
187 8 30 195 340 196 123 153 148 360 
188 11 174 192 57 306 386 453 5 53 191 24 69 
189 10 377 452 138 216 45 288 184 267 143 105 
190 8 146 33 350 173 426 107 183 384 
191 11 57 24 192 86 306 28 213 69 243 334 324 
192 11 57 191 24 306 86 213 28 69 188 243 174 
193 11 324 131 445 77 415 270 154 162 84 86 54 
194 10 145 366 82 169 167 391 218 330 54 301 
195 8 187 123 30 196 153 340 360 378 
196 8 153 195 123 30 187 369 475 205 
197 9 135 160 156 101 256 161 258 367 347 
198 11 356 339 290 98 177 418 23 69 243 331 28 
199 11 227 202 323 320 470 185 44 277 293 207 308 
200 11 228 271 93 316 378 430 205 117 279 435 220 
201 11 65 210 240 322 368 253 419 203 305 295 468 
202 11 227 199 323 470 44 293 207 395 277 464 345 
203 11 97 12 88 261 295 240 253 210 65 419 335 
204 11 348 73 4 75 246 302 120 140 163 251 80 
205 8 378 103 200 463 93 271 435 316 
206 11 152 399 208 76 26 386 453 389 102 8 448 
207 11 293 44 345 286 104 441 79 248 351 31 277 
208 11 76 152 399 102 206 8 386 453 406 174 188 
209 10 474 436 310 274 411 317 178 78 376 276 
210 11 240 65 253 368 468 295 372 201 203 261 305 
211 9 387 473 322 454 149 419 337 201 92 
212 10 463 268 413 83 103 255 374 59 318 467 
213 11 24 86 131 191 324 57 193 285 3 192 219 
214 11 438 215 38 296 344 358 70 232 264 287 22 
215 11 438 70 232 296 214 344 264 22 358 287 427 
216 9 377 267 89 165 184 189 330 218 256 
217 11 72 300 234 281 461 428 272 380 409 361 433 
218 9 301 330 143 145 169 105 194 366 82 
219 10 343 429 422 3 285 381 52 213 24 131 
220 10 279 225 117 314 342 316 93 136 236 271 
221 11 273 66 401 175 172 392 35 58 313 355 383 
222 11 335 25 96 299 180 307 424 88 99 111 142 
223 11 393 150 354 85 11 304 402 125 431 230 19 
224 10 381 128 139 21 129 118 429 106 422 426 
225 10 314 220 342 279 117 136 327 55 275 100 
226 11 250 382 433 428 281 461 469 262 300 72 6 
227 11 199 202 323 470 320 308 309 395 44 207 277 
228 11 271 200 316 93 430 117 378 279 220 205 435 
229 11 442 68 444 147 130 417 315 260 110 431 421 
230 11 19 402 17 431 11 150 251 354 110 163 304 
231 11 464 31 61 345 79 49 395 286 441 470 207 
232 11 264 70 22 18 183 384 107 427 39 190 215 
233 7 294 331 406 339 102 8 198 
234 11 217 272 380 300 289 361 409 62 72 281 108 
235 11 43 241 318 346 59 74 425 181 140 390 255 
236 9 455 269 247 275 95 440 239 467 55 
237 11 404 388 462 297 48 367 459 254 465 330 169 
238 10 282 440 311 332 291 91 397 423 51 352 
239 11 95 55 275 319 420 341 14 291 100 176 342 
240 11 210 65 253 295 368 468 372 201 203 261 97 
241 11 346 181 318 59 43 235 423 159 74 168 91 
242 11 54 84 270 77 366 82 193 415 334 194 324 
243 11 28 334 177 69 77 84 191 270 306 86 290 
244 11 309 63 265 308 292 443 37 408 357 355 90 
245 10 403 164 447 471 283 459 465 254 173 40 
246 11 140 74 375 204 75 4 348 73 43 302 120 
247 9 467 374 236 455 269 83 413 435 332 
248 10 351 353 286 441 104 365 207 293 79 390 
249 11 396 119 27 409 432 111 298 2 361 307 380 
250 11 226 433 382 428 281 469 262 461 6 300 72 
251 11 163 80 120 348 17 204 134 73 4 19 302 
252 11 410 362 312 81 476 439 116 302 17 472 73 
253 11 295 210 240 468 372 368 65 261 203 46 97 
254 11 465 48 459 471 462 391 388 237 403 169 404 
255 10 390 268 425 365 235 43 212 318 59 248 
256 11 160 165 89 101 161 367 267 297 216 258 377 
257 11 158 448 373 60 336 133 389 400 26 182 56 
258 11 161 10 160 256 186 267 144 89 184 165 197 
259 10 13 475 359 369 185 477 29 277 153 323 
260 11 278 417 62 130 315 321 147 421 289 229 370 
261 11 295 97 88 203 253 468 12 240 99 210 372 
262 11 469 6 132 329 250 284 382 226 433 111 307 
263 11 124 434 42 394 157 416 126 34 50 412 113 
264 11 232 107 427 190 18 183 384 70 22 71 287 
265 11 292 63 443 37 357 244 66 308 309 355 401 
266 11 113 166 34 157 126 385 50 371 109 121 305 
267 10 377 216 184 89 165 186 189 256 160 161 
268 9 255 212 390 425 463 235 413 83 365 
269 9 455 236 440 275 247 95 239 291 319 
270 11 77 84 193 334 54 242 324 415 445 131 243 
271 11 93 316 228 200 430 117 279 378 435 220 205 
272 11 380 361 409 289 234 108 62 370 249 298 396 
273 11 221 172 401 392 364 466 355 66 58 175 49 
274 11 317 178 436 474 310 376 78 209 411 288 451 
275 11 95 239 55 455 269 319 236 420 291 314 342 
276 9 451 407 288 23 418 198 339 274 356 
277 11 104 44 293 207 323 248 477 286 359 441 351 
278 11 321 315 62 260 289 370 147 108 36 127 272 
279 10 220 117 225 93 316 271 435 236 314 228 
280 11 458 329 284 419 337 180 12 47 457 335 473 
281 11 428 300 433 72 217 461 250 226 234 27 382 
282 10 332 423 238 181 440 59 467 318 346 91 
283 10 447 164 403 52 326 245 405 471 3 391 
284 11 47 329 262 379 469 6 280 458 132 457 180 
285 11 3 52 162 131 154 343 445 405 219 213 324 
286 11 441 351 353 248 79 345 207 293 31 44 104 
287 11 344 446 427 296 71 151 107 264 232 33 190 
288 10 45 138 452 451 407 105 189 143 301 23 
289 11 62 370 108 272 361 380 234 321 278 409 137 
290 11 356 177 198 98 69 243 339 418 28 23 334 
291 11 420 319 440 14 95 239 341 176 51 275 269 
292 11 265 37 63 443 357 66 313 401 333 244 355 
293 11 44 207 104 277 286 345 441 248 351 79 353 
294 8 331 406 233 339 102 8 198 98 
295 11 253 261 468 240 210 372 203 97 65 368 46 
296 11 344 287 215 427 264 446 438 107 232 151 71 
297 11 367 404 237 388 101 462 165 459 48 254 330 
298 11 363 137 352 396 397 2 51 249 361 108 155 
299 11 25 96 307 222 424 111 142 432 99 119 335 
300 11 281 217 428 72 234 461 409 433 272 380 27 
301 9 143 218 105 330 145 169 194 138 45 
302 11 73 4 439 75 204 362 348 163 312 375 476 
303 10 40 33 173 71 245 350 146 190 446 107 
304 11 11 354 150 116 125 19 81 402 230 223 58 
305 11 371 109 368 87 372 210 67 65 201 240 468 
306 11 69 57 191 192 28 243 174 24 86 177 188 
307 11 111 432 299 25 96 119 222 132 27 249 424 
308 11 309 355 265 443 470 244 395 401 63 292 66 
309 11 308 244 265 63 443 292 355 470 227 401 37 
310 11 436 411 474 78 376 274 317 178 209 437 141 
311 11 397 352 137 51 363 108 238 298 370 291 440 
312 11 81 410 252 362 17 439 19 116 302 476 73 
313 11 35 333 37 66 9 221 383 357 443 175 401 
314 11 342 225 55 327 100 220 275 239 95 325 46 
315 11 147 278 321 36 127 260 444 442 115 229 62 
316 11 271 93 228 200 430 117 279 378 220 435 205 
317 11 178 274 436 474 376 78 310 189 288 411 451 
318 11 59 241 346 181 235 43 83 423 413 282 74 
319 11 420 291 14 95 239 341 176 275 55 440 64 
320 11 199 227 202 323 185 309 449 338 470 13 308 
321 11 278 62 370 315 289 108 260 36 147 127 137 
322 9 201 473 211 65 419 210 240 387 368 
323 11 202 185 277 199 44 227 13 293 104 207 359 
324 11 193 131 445 77 415 162 270 86 154 213 84 
325 11 46 67 327 100 372 179 468 342 87 314 136 
326 7 422 52 429 164 283 343 350 
327 11 100 46 325 179 342 314 55 67 225 239 372 
328 11 182 60 26 133 448 414 336 257 158 373 389 
329 11 6 262 284 132 180 469 280 458 335 222 12 
330 10 169 218 145 301 462 194 404 48 237 143 
331 8 294 339 198 406 233 356 98 290 
332 10 282 423 238 181 440 467 59 269 247 83 
333 11 313 35 9 37 357 16 383 66 443 221 292 
334 11 243 28 77 84 270 177 193 86 324 69 191 
335 11 180 222 88 96 25 12 97 299 307 424 99 
336 11 133 373 60 257 32 448 158 39 56 182 328 
337 11 92 457 149 387 280 458 460 47 454 473 284 
338 11 29 449 456 13 185 259 475 359 369 323 320 
339 10 198 356 290 331 98 177 294 406 418 23 
340 10 187 148 30 195 122 360 123 412 196 153 
341 11 14 176 319 420 64 239 55 95 291 179 100 
342 11 314 225 327 55 100 239 275 95 46 220 325 
343 8 219 422 429 52 285 3 326 381 
344 11 296 287 427 446 264 107 215 151 71 232 438 
345 11 31 79 207 286 231 441 464 293 44 351 353 
346 11 241 181 318 59 423 43 235 159 74 168 91 
347 7 156 151 197 135 446 287 71 
348 11 204 120 73 80 163 251 4 246 140 75 302 
349 11 398 384 18 106 56 183 118 426 128 224 39 
350 8 146 173 33 190 326 164 245 422 
351 10 353 441 248 286 79 365 207 345 104 171 
352 11 397 137 363 51 311 298 108 370 2 155 361 
353 10 351 441 286 248 79 365 171 345 472 207 
354 11 11 150 304 402 223 230 393 19 431 125 116 
355 11 401 172 66 273 443 221 395 308 470 37 364 
356 11 290 198 339 177 98 418 23 69 243 28 334 
357 11 37 292 16 333 63 265 313 443 66 35 9 
358 11 114 70 32 22 215 39 133 438 336 38 232 
359 9 475 477 369 259 13 185 277 104 153 
360 11 412 416 122 340 394 195 121 123 187 124 20 
361 11 380 272 409 108 289 370 298 234 396 249 62 
362 11 252 312 410 439 476 81 302 73 4 75 17 
363 11 137 298 352 397 51 311 2 108 370 396 155 
364 11 466 392 49 61 172 410 273 116 252 81 362 
365 10 425 390 255 353 351 375 248 235 43 171 
366 11 82 194 145 54 167 242 415 169 154 218 391 
367 11 297 101 237 404 388 165 462 459 48 89 254 
368 11 210 372 240 253 468 65 305 371 109 295 87 
369 8 475 359 477 259 153 13 196 185 
370 11 108 289 62 361 137 272 321 380 278 352 363 
371 11 305 109 87 368 372 67 210 468 65 240 201 
372 11 468 253 368 295 210 240 46 325 67 261 65 
373 11 257 336 158 60 448 133 32 56 400 106 118 
374 10 467 247 413 83 435 463 212 236 59 455 
375 11 75 246 4 140 73 204 302 74 439 425 43 
376 11 78 411 310 437 178 317 141 274 436 474 186 
377 9 216 267 184 189 89 165 452 138 186 
378 9 205 200 93 103 271 316 228 435 463 
379 11 47 284 262 469 457 382 329 6 226 250 280 
380 11 272 361 409 289 108 234 370 62 249 298 396 
381 10 224 21 129 139 128 219 429 343 422 5 
382 11 226 250 433 428 469 262 281 461 6 300 132 
383 11 9 175 35 313 58 85 221 333 125 66 273 
384 11 183 18 349 398 426 106 56 118 128 190 224 
385 11 50 126 157 266 113 305 371 34 109 166 42 
386 11 453 389 188 399 5 26 53 158 400 448 174 
387 9 211 473 454 149 337 92 322 419 280 
388 11 237 459 404 462 254 48 297 465 367 471 169 
389 11 453 386 158 448 26 400 257 5 53 60 188 
390 10 425 255 365 235 268 43 248 375 351 353 
391 11 167 465 48 405 471 254 169 194 462 145 447 
392 11 466 364 58 273 116 172 125 221 410 81 252 
393 11 223 150 354 85 11 304 402 125 431 230 19 
394 11 124 434 416 121 34 412 166 360 157 113 20 
395 11 464 470 231 31 61 49 172 345 355 79 364 
396 11 249 119 298 27 409 432 2 111 361 155 363 
397 11 352 137 51 311 363 298 108 370 2 155 291 
398 11 349 106 56 118 384 18 183 128 426 39 224 
399 11 206 152 208 76 386 453 26 389 102 8 188 
400 11 5 53 139 129 21 128 224 381 118 158 389 
401 11 66 355 273 221 443 172 37 313 35 392 292 
402 11 431 150 230 354 11 19 304 110 223 17 393 
403 11 447 164 245 283 471 465 254 459 391 48 405 
404 11 237 297 388 462 367 48 330 459 254 169 465 
405 11 167 154 162 391 415 445 3 285 447 52 283 
406 10 8 102 294 331 98 339 76 174 208 198 
407 11 451 23 288 418 276 45 138 452 198 356 105 
408 11 244 309 63 308 90 265 320 292 227 199 443 
409 11 380 361 272 249 396 27 234 119 298 300 108 
410 11 252 312 81 362 116 476 439 17 302 19 466 
411 11 310 78 376 437 436 474 274 317 178 141 209 
412 11 416 360 394 122 124 434 121 340 34 20 41 
413 11 83 374 467 59 212 318 247 463 332 435 282 
414 11 328 182 114 60 133 26 336 448 257 158 373 
415 11 445 154 162 193 324 131 82 405 54 167 366 
416 11 412 394 360 124 434 122 121 34 263 166 20 
417 11 130 421 260 229 68 147 62 278 315 234 217 
418 11 23 177 356 290 334 407 84 243 198 242 270 
419 11 203 458 12 473 65 201 97 240 280 210 88 
420 11 319 291 14 341 95 239 176 275 55 440 51 
421 11 417 130 260 217 234 68 72 229 62 278 147 
422 7 429 343 326 52 219 381 3 
423 11 181 346 159 241 91 282 332 59 168 318 74 
424 11 99 142 96 25 299 15 222 155 64 307 2 
425 10 390 365 255 235 43 375 140 246 74 268 
426 8 183 384 18 349 398 128 190 224 
427 11 107 71 446 287 264 33 190 232 344 146 151 
428 11 281 433 300 250 226 461 72 217 382 27 234 
429 7 422 343 326 219 52 381 224 
430 11 228 271 316 93 200 117 41 279 20 220 136 
431 11 402 230 110 150 442 444 19 354 11 17 251 
432 11 111 307 119 27 299 249 25 396 96 132 142 
433 11 250 226 428 281 382 300 461 469 72 217 262 
434 11 124 394 34 157 121 166 113 126 263 50 266 
435 10 374 463 247 279 93 467 271 316 413 83 
436 10 474 274 310 317 178 209 78 376 411 276 
437 11 141 78 376 170 411 310 186 10 178 317 274 
438 11 214 215 296 70 344 38 232 358 264 22 287 
439 11 302 362 4 73 75 476 252 312 204 410 375 
440 10 291 269 455 238 420 319 95 236 275 332 
441 11 286 351 353 248 79 345 207 293 31 44 104 
442 11 444 229 147 110 315 431 127 115 68 134 260 
443 11 37 66 292 265 401 355 63 313 357 221 308 
444 11 442 110 147 229 315 431 127 115 134 36 80 
445 11 154 162 415 131 193 324 3 285 405 77 167 
446 11 71 427 287 107 151 33 303 344 190 264 40 
447 11 283 403 164 471 245 405 52 391 465 254 167 
448 11 158 257 60 373 389 336 26 400 133 182 328 
449 11 338 456 29 320 185 13 259 199 323 227 475 
450 11 136 87 67 109 20 41 117 325 371 225 166 
451 11 407 288 276 23 45 418 138 452 105 143 189 
452 9 138 45 143 105 288 301 189 218 330 
453 11 386 389 188 26 5 53 399 158 400 448 174 
454 9 149 387 211 460 92 337 473 457 322 
455 9 269 236 275 247 440 95 239 291 319 
456 11 29 338 30 259 187 449 13 148 196 369 475 
457 11 92 337 47 280 284 379 149 458 460 329 387 
458 11 280 419 329 12 180 284 335 203 473 97 337 
459 11 254 465 48 471 388 462 237 391 403 404 245 
460 10 149 92 337 454 457 387 47 211 280 473 
461 11 72 428 281 217 300 433 226 250 382 234 409 
462 11 48 254 237 465 459 404 169 388 330 391 471 
463 10 212 103 435 374 413 83 205 268 467 378 
464 11 231 31 395 345 61 79 49 470 207 286 441 
465 11 254 471 48 459 462 391 388 403 447 237 167 
466 11 364 392 49 61 172 410 116 252 273 81 58 
467 9 374 247 83 413 332 236 282 59 269 
468 11 372 253 295 210 240 368 46 261 325 65 179 
469 11 262 6 132 250 382 226 329 433 284 428 111 
470 11 395 464 231 202 31 345 308 207 355 79 61 
471 11 465 254 459 403 48 391 447 245 462 164 283 
472 11 171 476 362 439 49 252 61 79 75 302 353 
473 9 211 387 322 419 201 458 280 65 337 
474 10 436 274 310 209 317 178 78 376 411 276 
475 9 369 359 259 477 13 185 153 196 277 
476 11 362 472 252 439 171 410 302 312 75 4 73 
477 8 359 475 369 277 104 259 13 103 
DEPOT_SECTION
   1
   -1
EOF
