NAME :  X-n599-kX-w239-c11.cctp
COMMENT : 	Adapted by Maziero, Usberti and Cavellucci from the Uchoa, Pecin, Pessoa, Poggi, Subramanian, and Vidal (2013)
TYPE :  CCTP
DIMENSION :    599
EDGE_WEIGHT_TYPE : 	EUC_2D	
CAPACITY : 	487
VERTICES_WITHIN_COVERAGE :  11
VERTICES_WITH_DEMAND : 	239
NODE_COORD_SECTION
1 284 167
2 6 711
3 874 746
4 483 894
5 733 189
6 336 29
7 488 684
8 825 903
9 98 412
10 206 306
11 497 641
12 499 745
13 481 40
14 500 390
15 851 268
16 51 278
17 805 796
18 554 771
19 576 984
20 734 251
21 325 414
22 658 81
23 279 467
24 1000 804
25 124 148
26 554 594
27 645 168
28 4 965
29 614 267
30 939 719
31 935 800
32 109 154
33 31 554
34 960 512
35 489 840
36 377 684
37 945 808
38 720 165
39 226 34
40 73 255
41 748 344
42 774 514
43 143 893
44 168 461
45 164 493
46 631 533
47 815 191
48 833 284
49 746 100
50 252 839
51 894 472
52 944 597
53 371 28
54 552 186
55 610 541
56 578 665
57 749 655
58 898 974
59 274 972
60 520 642
61 914 373
62 610 738
63 773 602
64 752 74
65 729 90
66 464 658
67 70 36
68 964 397
69 388 732
70 185 51
71 712 144
72 45 437
73 910 738
74 956 879
75 318 560
76 592 913
77 642 564
78 907 240
79 88 186
80 399 931
81 763 180
82 626 876
83 302 689
84 970 490
85 775 574
86 653 667
87 813 999
88 5 980
89 10 249
90 980 136
91 557 816
92 915 680
93 131 722
94 553 946
95 45 101
96 306 260
97 627 26
98 771 398
99 869 585
100 493 282
101 312 212
102 985 939
103 194 262
104 992 698
105 834 844
106 1 651
107 271 893
108 20 349
109 163 503
110 579 761
111 923 502
112 2 469
113 103 284
114 928 132
115 51 883
116 63 181
117 784 300
118 212 774
119 138 90
120 532 999
121 160 179
122 51 330
123 743 949
124 439 328
125 519 563
126 15 591
127 2 546
128 20 964
129 975 611
130 128 984
131 131 737
132 214 591
133 969 497
134 367 77
135 925 640
136 160 288
137 771 912
138 162 80
139 252 140
140 704 21
141 980 560
142 896 344
143 566 389
144 892 149
145 20 663
146 405 859
147 391 304
148 475 920
149 649 458
150 480 756
151 835 65
152 407 973
153 447 697
154 363 808
155 82 623
156 344 837
157 325 148
158 249 926
159 894 188
160 146 433
161 22 95
162 789 664
163 110 741
164 378 573
165 606 838
166 583 717
167 151 525
168 803 457
169 971 191
170 687 417
171 512 553
172 893 179
173 339 985
174 108 241
175 268 98
176 317 221
177 763 566
178 310 305
179 572 203
180 454 957
181 621 295
182 706 865
183 154 175
184 881 149
185 122 50
186 163 817
187 825 86
188 879 455
189 801 726
190 504 198
191 970 276
192 934 920
193 21 730
194 0 689
195 55 848
196 234 477
197 475 485
198 881 106
199 125 170
200 169 455
201 683 933
202 825 911
203 300 380
204 836 71
205 492 28
206 466 702
207 280 878
208 529 935
209 580 243
210 892 721
211 844 830
212 249 541
213 950 63
214 139 349
215 345 668
216 202 781
217 435 492
218 703 608
219 220 590
220 293 435
221 195 547
222 28 660
223 481 59
224 632 672
225 220 763
226 13 308
227 216 306
228 32 554
229 826 687
230 512 498
231 96 824
232 510 533
233 158 386
234 829 812
235 867 873
236 784 951
237 690 940
238 220 977
239 852 979
240 776 539
241 723 945
242 399 357
243 456 434
244 113 924
245 885 12
246 30 459
247 659 795
248 623 116
249 635 270
250 232 431
251 520 384
252 838 24
253 758 862
254 73 559
255 676 791
256 492 942
257 869 445
258 79 773
259 843 368
260 23 54
261 908 695
262 727 140
263 314 736
264 73 940
265 646 802
266 946 370
267 461 280
268 987 63
269 181 970
270 619 314
271 233 651
272 310 285
273 440 921
274 84 462
275 659 265
276 294 353
277 676 392
278 631 446
279 344 805
280 392 406
281 973 635
282 0 537
283 973 718
284 762 474
285 741 920
286 889 147
287 806 717
288 762 978
289 217 27
290 446 332
291 185 282
292 456 227
293 972 759
294 774 283
295 29 157
296 110 925
297 396 428
298 427 836
299 334 853
300 695 663
301 216 367
302 914 966
303 675 144
304 380 424
305 983 421
306 196 287
307 703 575
308 42 81
309 574 452
310 188 558
311 651 950
312 761 901
313 699 838
314 257 174
315 828 842
316 316 34
317 391 970
318 725 674
319 120 90
320 694 30
321 517 759
322 365 235
323 494 299
324 582 323
325 266 128
326 905 177
327 491 337
328 872 740
329 660 518
330 523 459
331 735 841
332 157 997
333 45 383
334 354 180
335 425 710
336 236 203
337 601 696
338 985 82
339 838 611
340 608 357
341 829 443
342 954 46
343 831 477
344 977 848
345 61 126
346 254 595
347 337 5
348 750 956
349 962 264
350 832 389
351 870 159
352 537 349
353 15 890
354 85 734
355 17 668
356 650 591
357 42 53
358 367 72
359 951 526
360 607 633
361 686 319
362 483 489
363 915 493
364 625 316
365 920 267
366 189 208
367 735 596
368 128 875
369 544 996
370 700 96
371 314 626
372 240 431
373 689 615
374 177 160
375 132 639
376 292 500
377 313 752
378 240 47
379 750 460
380 314 486
381 701 50
382 459 543
383 303 175
384 541 185
385 966 670
386 858 77
387 7 640
388 911 283
389 550 784
390 414 218
391 657 974
392 565 856
393 725 81
394 557 176
395 122 60
396 347 872
397 86 270
398 671 300
399 855 53
400 306 688
401 62 569
402 592 581
403 380 868
404 191 553
405 406 216
406 108 151
407 806 685
408 956 106
409 702 965
410 465 782
411 315 454
412 257 878
413 859 581
414 857 385
415 671 387
416 956 788
417 615 350
418 932 515
419 713 464
420 614 647
421 39 570
422 293 866
423 861 930
424 997 658
425 25 56
426 996 771
427 609 794
428 575 912
429 798 641
430 47 705
431 33 332
432 20 892
433 406 668
434 911 786
435 287 587
436 709 973
437 230 500
438 999 267
439 101 865
440 218 917
441 478 14
442 179 48
443 284 237
444 832 379
445 685 104
446 275 165
447 224 45
448 31 407
449 215 179
450 558 298
451 385 391
452 8 935
453 760 662
454 255 263
455 811 645
456 152 288
457 840 493
458 48 522
459 624 942
460 557 687
461 302 629
462 570 674
463 523 682
464 521 738
465 825 540
466 906 960
467 286 33
468 43 940
469 410 713
470 96 760
471 269 427
472 329 180
473 893 150
474 634 97
475 907 61
476 285 241
477 431 871
478 964 134
479 211 400
480 19 292
481 15 407
482 986 675
483 272 671
484 346 394
485 963 309
486 551 663
487 759 368
488 281 999
489 416 642
490 966 681
491 416 755
492 545 448
493 852 486
494 487 456
495 571 354
496 57 476
497 569 437
498 828 352
499 625 458
500 446 705
501 197 107
502 652 878
503 559 625
504 539 149
505 194 624
506 76 178
507 433 175
508 869 714
509 345 130
510 172 542
511 883 701
512 167 695
513 265 285
514 465 898
515 625 552
516 876 277
517 896 763
518 429 312
519 953 351
520 634 37
521 5 753
522 998 497
523 237 482
524 787 445
525 695 461
526 50 301
527 429 596
528 881 355
529 888 609
530 927 216
531 555 110
532 166 518
533 840 933
534 916 873
535 221 705
536 97 71
537 634 685
538 759 542
539 111 830
540 832 46
541 680 133
542 152 639
543 489 197
544 728 864
545 216 62
546 246 214
547 694 287
548 849 833
549 811 272
550 141 463
551 645 843
552 461 656
553 858 75
554 393 220
555 337 375
556 534 927
557 81 805
558 509 460
559 346 660
560 239 626
561 32 304
562 453 799
563 325 239
564 454 629
565 589 438
566 137 993
567 505 920
568 254 198
569 461 582
570 931 438
571 194 274
572 425 490
573 682 129
574 152 673
575 280 141
576 949 48
577 116 990
578 579 876
579 729 124
580 513 311
581 958 86
582 936 365
583 83 93
584 10 103
585 223 860
586 402 101
587 965 683
588 35 143
589 262 766
590 113 182
591 573 796
592 384 538
593 251 775
594 655 351
595 186 96
596 558 287
597 695 874
598 567 488
599 661 518
DEMAND_SECTION
2 63
3 89
4 97
5 78
6 92
7 55
8 97
9 88
10 95
11 64
12 80
13 68
14 71
15 95
16 75
17 89
18 54
19 75
20 61
21 66
22 86
23 56
24 99
25 65
26 56
27 99
28 79
29 73
30 53
31 63
32 76
33 67
34 77
35 82
36 67
37 68
38 64
39 69
40 68
41 83
42 77
43 67
44 74
45 80
46 55
47 86
48 68
49 62
50 78
51 67
52 90
53 63
54 90
55 56
56 69
57 97
58 87
59 87
60 70
61 75
62 73
63 81
64 97
65 88
66 68
67 53
68 64
69 95
70 87
71 92
72 79
73 77
74 75
75 86
76 85
77 55
78 60
79 78
80 71
81 68
82 69
83 73
84 89
85 64
86 95
87 61
88 85
89 55
90 96
91 51
92 98
93 82
94 89
95 71
96 60
97 94
98 64
99 74
100 75
101 91
102 63
103 67
104 91
105 77
106 65
107 89
108 50
109 77
110 88
111 66
112 98
113 64
114 51
115 64
116 96
117 51
118 54
119 68
120 59
121 100
122 61
123 62
124 99
125 77
126 52
127 81
128 80
129 94
130 91
131 65
132 89
133 90
134 94
135 91
136 68
137 93
138 74
139 100
140 60
141 79
142 89
143 96
144 63
145 57
146 53
147 60
148 51
149 58
150 69
151 71
152 56
153 88
154 58
155 89
156 64
157 94
158 66
159 53
160 69
161 95
162 75
163 96
164 95
165 74
166 81
167 59
168 76
169 80
170 79
171 86
172 53
173 93
174 65
175 61
176 81
177 56
178 51
179 81
180 93
181 66
182 91
183 66
184 91
185 77
186 64
187 52
188 83
189 63
190 80
191 87
192 93
193 55
194 94
195 88
196 82
197 77
198 75
199 67
200 78
201 98
202 54
203 68
204 69
205 52
206 68
207 59
208 64
209 69
210 72
211 98
212 61
213 59
214 71
215 99
216 76
217 75
218 54
219 73
220 93
221 70
222 98
223 74
224 65
225 84
226 72
227 59
228 91
229 81
230 79
231 59
232 88
233 53
234 80
235 68
236 97
237 90
238 100
239 86
240 79
COVERAGE_SECTION
2 11 194 193 430 521 355 145 222 106 387 354 258 
3 11 328 517 210 508 73 511 434 261 30 287 189 
4 11 514 148 567 256 273 35 477 556 208 180 298 
5 11 38 81 262 71 20 579 303 541 573 47 27 
6 11 316 347 53 467 358 134 175 378 586 509 39 
7 11 206 66 463 552 153 11 500 60 12 464 564 
8 11 202 533 423 235 137 105 315 236 312 548 211 
9 11 160 274 72 333 233 448 550 214 496 200 246 
10 11 227 306 291 571 103 136 456 301 513 454 214 
11 11 60 66 552 7 564 463 486 503 206 569 26 
12 11 150 321 464 410 206 18 7 389 500 463 153 
13 11 205 223 441 586 531 53 358 134 504 507 6 
14 11 251 327 352 243 143 494 558 330 492 290 495 
15 11 48 516 549 388 78 365 117 294 47 498 142 
16 11 526 40 561 480 397 226 89 113 122 431 174 
17 11 234 315 211 105 548 189 287 253 331 3 328 
18 11 389 110 591 321 91 464 427 12 166 62 150 
19 11 369 94 120 459 208 556 428 76 311 391 256 
20 11 294 547 5 117 275 81 398 549 361 38 41 
21 11 484 220 411 555 203 304 471 451 280 276 23 
22 11 474 445 370 248 520 381 573 541 320 97 303 
23 11 220 376 411 380 471 523 196 372 250 437 21 
24 11 426 416 344 293 37 31 74 283 434 30 104 
25 11 32 406 199 590 183 121 79 374 506 319 119 
26 11 503 402 125 60 171 360 486 11 56 232 55 
27 11 303 541 573 248 71 474 38 445 179 262 22 
28 11 88 128 452 468 264 432 353 115 296 577 244 
29 11 249 181 209 275 270 364 596 324 450 398 179 
30 11 283 73 261 587 92 210 490 293 385 104 511 
31 11 37 416 434 517 293 344 24 73 426 534 3 
32 11 406 25 199 590 79 506 183 116 345 121 319 
33 11 228 421 127 401 282 458 126 254 496 155 387 
34 11 133 359 84 418 111 522 363 141 51 570 52 
35 11 4 562 298 410 514 477 91 392 148 567 389 
36 11 433 215 559 469 69 335 489 153 400 500 83 
37 11 31 416 434 344 24 293 426 517 534 74 73 
38 11 71 262 5 579 81 303 541 573 49 445 370 
39 11 289 447 378 545 70 442 467 595 175 138 501 
40 11 397 16 174 113 526 89 561 480 79 116 506 
41 11 487 117 98 294 361 547 498 277 415 398 444 
42 11 240 538 284 177 465 379 85 168 343 457 524 
43 11 368 244 296 439 539 186 440 231 264 269 585 
44 11 200 550 45 160 109 532 167 196 250 523 437 
45 11 109 532 44 167 200 550 510 221 160 404 437 
46 11 515 55 77 329 599 356 402 499 149 598 307 
47 11 81 351 184 159 172 549 5 15 286 144 473 
48 11 15 549 516 117 294 498 388 259 78 528 142 
49 11 65 64 393 579 262 370 71 445 381 38 573 
50 11 585 412 207 422 107 593 589 118 216 225 299 
51 11 188 363 257 111 493 570 418 457 343 341 34 
52 11 129 135 281 141 529 359 99 385 424 418 34 
53 11 6 347 358 134 316 586 467 509 441 13 223 
54 11 384 394 179 504 190 209 543 531 27 248 596 
55 11 515 46 77 402 329 599 356 598 26 499 149 
56 11 462 486 460 337 420 360 503 166 224 463 537 
57 11 453 318 162 429 300 63 367 455 407 218 373 
58 11 466 302 239 423 192 533 87 102 202 8 534 
59 11 488 158 238 173 440 107 269 207 412 422 317 
60 11 11 486 463 503 7 66 460 26 462 552 56 
61 11 582 266 142 528 519 68 414 570 259 485 444 
62 11 166 110 337 427 537 18 591 224 265 460 247 
63 11 85 177 367 429 455 57 453 538 240 162 339 
64 11 49 65 393 579 370 381 262 140 320 445 187 
65 11 393 49 64 370 579 445 381 262 71 573 541 
66 11 552 564 7 11 153 206 500 489 60 433 463 
67 11 357 536 425 260 308 185 395 583 95 319 161 
68 11 305 266 582 519 570 61 142 485 84 528 133 
69 11 469 491 335 36 500 433 153 263 215 377 154 
70 11 442 545 138 447 289 39 595 378 501 119 185 
71 11 262 38 579 541 573 303 445 370 5 49 65 
72 11 246 448 496 481 274 112 333 9 458 108 550 
73 11 210 517 30 3 328 261 511 434 508 92 293 
74 11 344 534 192 102 37 31 24 235 416 466 302 
75 11 435 164 376 371 592 461 212 346 380 23 219 
76 11 428 578 459 82 94 556 392 208 502 311 19 
77 11 515 356 46 55 329 599 402 307 373 218 360 
78 11 365 530 388 516 159 349 15 172 326 191 169 
79 11 506 116 590 32 199 406 25 174 295 345 183 
80 11 317 273 152 180 403 477 146 514 148 396 173 
81 11 5 38 47 262 71 579 20 49 303 541 65 
82 11 502 551 165 578 76 428 392 459 597 265 311 
83 11 400 483 215 263 559 461 371 377 36 271 535 
84 11 133 34 522 359 418 111 363 570 305 141 51 
85 11 177 63 240 538 367 42 465 429 307 339 218 
86 11 224 537 300 420 360 337 373 318 56 356 218 
87 11 239 288 236 533 348 423 123 58 202 8 137 
88 11 28 128 452 468 264 432 353 115 577 296 244 
89 11 480 16 226 561 40 526 397 116 431 122 295 
90 11 478 408 114 338 581 169 268 213 326 473 144 
91 11 591 389 392 18 165 427 110 578 321 35 464 
92 11 261 511 135 30 210 587 490 385 508 73 283 
93 11 131 163 512 354 470 574 258 375 430 542 216 
94 11 208 556 428 19 76 369 567 120 256 459 578 
95 11 308 161 345 584 583 588 357 425 260 295 536 
96 11 272 476 563 443 176 178 101 513 454 322 546 
97 11 520 22 320 474 140 381 248 445 370 531 393 
98 11 487 524 41 350 444 379 168 341 498 284 259 
99 11 413 529 339 465 52 135 455 429 418 85 457 
100 11 323 267 580 327 596 292 450 290 124 518 352 
101 11 176 563 472 383 443 476 96 334 322 446 568 
102 11 192 74 302 466 344 58 534 423 235 24 37 
103 11 571 291 306 136 10 227 456 366 454 546 336 
104 11 482 283 490 587 385 424 30 293 281 426 92 
105 11 315 211 548 234 235 17 8 202 253 534 533 
106 11 387 145 355 222 194 2 126 430 193 155 421 
107 11 207 412 422 158 50 440 585 299 59 396 156 
108 11 431 122 226 333 561 480 526 481 448 16 72 
109 11 45 532 167 510 44 550 200 221 404 310 437 
110 11 18 591 389 62 166 427 91 321 464 337 460 
111 11 363 418 359 34 51 133 84 188 570 493 522 
112 11 246 72 496 481 282 448 458 127 274 33 228 
113 11 397 40 174 456 16 526 136 122 214 561 291 
114 11 478 408 473 144 286 184 326 90 198 581 172 
115 11 432 195 353 439 468 264 452 296 231 244 368 
116 11 506 79 295 588 590 32 406 345 199 25 40 
117 11 294 549 48 41 498 20 487 15 259 547 444 
118 11 216 225 593 589 186 535 50 585 131 512 93 
119 11 319 138 395 185 536 595 583 442 25 70 501 
120 11 369 19 94 208 256 556 567 180 148 428 76 
121 11 183 374 199 366 590 25 449 32 406 79 336 
122 11 431 526 561 108 226 480 16 333 113 397 40 
123 11 348 241 285 288 236 436 409 137 312 237 201 
124 11 290 518 242 267 327 147 323 100 580 451 14 
125 11 171 232 26 569 382 230 503 402 60 11 362 
126 11 421 33 228 127 387 401 282 106 254 222 145 
127 11 282 33 228 421 126 458 401 254 112 496 246 
128 11 28 88 452 468 264 432 353 115 296 577 244 
129 11 281 52 141 424 135 385 482 490 587 529 359 
130 11 566 577 332 269 244 296 264 43 238 468 368 
131 11 93 163 470 354 512 258 574 216 557 186 118 
132 11 219 505 346 310 560 404 221 212 271 510 435 
133 11 84 34 522 359 418 111 363 141 570 305 51 
134 11 358 586 53 6 509 316 347 157 467 175 334 
135 11 92 52 281 529 385 129 261 490 587 482 424 
136 11 456 291 306 571 103 10 113 227 214 174 397 
137 11 312 285 236 123 348 253 202 8 241 544 288 
138 11 119 595 442 70 319 501 395 185 545 536 447 
139 11 325 575 314 446 175 449 568 383 501 336 157 
140 11 320 381 393 64 520 65 370 22 97 445 49 
141 11 359 129 34 52 133 418 522 84 281 111 363 
142 11 528 61 582 266 414 519 259 388 498 516 444 
143 11 495 251 497 352 340 565 417 492 309 14 324 
144 11 473 286 184 351 172 326 159 114 198 478 530 
145 11 355 222 106 387 194 2 430 193 126 155 521 
146 11 403 477 298 396 156 154 273 299 80 514 562 
147 11 518 124 242 290 267 322 178 272 554 451 390 
148 11 514 4 256 567 273 180 208 556 477 80 35 
149 11 278 499 525 170 329 599 565 419 277 415 309 
150 11 12 410 321 464 562 206 500 491 153 7 335 
151 11 204 540 187 399 553 386 252 198 475 245 64 
152 11 317 80 180 273 173 148 256 514 477 403 4 
153 11 500 206 335 469 7 66 552 433 489 491 150 
154 11 279 156 299 403 146 396 298 377 491 69 263 
155 11 375 401 222 254 421 542 126 145 387 355 228 
156 11 299 279 154 396 403 422 146 207 298 377 50 
157 11 509 472 383 334 575 446 325 101 139 176 314 
158 11 440 107 412 59 207 238 585 422 488 269 50 
159 11 172 326 351 473 144 184 286 530 78 114 169 
160 11 550 200 44 233 9 45 274 109 479 214 250 
161 11 584 95 308 425 260 357 345 588 583 295 67 
162 11 429 407 453 455 57 229 287 189 63 318 339 
163 11 131 470 354 93 258 557 430 512 574 231 539 
164 11 592 527 75 489 371 569 382 435 559 461 564 
165 11 551 82 427 392 578 591 91 265 502 247 76 
166 11 337 62 460 110 462 56 537 18 486 464 224 
167 11 532 109 510 45 221 404 310 550 44 200 437 
168 11 524 341 343 284 457 379 493 42 98 257 350 
169 11 530 90 478 326 114 349 159 172 78 438 191 
170 11 277 415 525 419 149 278 594 499 379 98 487 
171 11 125 232 382 230 26 569 362 197 402 598 503 
172 11 159 326 473 144 351 184 286 530 114 78 198 
173 11 317 488 59 152 80 158 396 107 180 238 273 
174 11 397 40 113 79 590 456 16 136 506 199 116 
175 11 325 139 575 378 545 446 467 447 501 157 39 
176 11 101 563 443 476 96 472 383 322 334 272 568 
177 11 85 538 240 63 367 42 307 465 218 429 339 
178 11 272 96 513 276 563 454 476 443 555 203 147 
179 11 54 394 384 209 504 190 29 27 543 596 249 
180 11 273 256 148 152 514 80 567 317 4 208 556 
181 11 270 364 29 249 275 324 398 417 340 450 596 
182 11 597 544 313 331 253 502 285 551 312 201 237 
183 11 121 374 199 25 590 366 32 406 449 79 506 
184 11 286 144 473 351 172 326 159 198 114 386 553 
185 11 395 536 319 119 138 67 442 583 70 595 357 
186 11 216 539 118 231 368 585 439 43 225 557 131 
187 11 204 151 386 553 540 399 198 252 64 49 184 
188 11 257 51 493 341 363 343 457 570 111 414 168 
189 11 287 407 229 162 508 17 328 3 453 455 429 
190 11 543 384 54 292 394 504 179 507 100 209 390 
191 11 349 438 485 365 388 78 530 519 169 516 582 
192 11 74 466 302 534 102 58 423 235 344 533 239 
193 11 2 521 430 194 355 354 145 222 258 106 470 
194 11 2 355 145 106 222 193 387 430 521 354 126 
195 11 115 231 439 557 432 353 539 368 258 468 264 
196 11 523 437 23 250 372 471 376 212 44 200 45 
197 11 362 494 230 217 558 572 243 330 232 382 171 
198 11 386 553 286 184 144 473 475 114 351 204 187 
199 11 590 25 32 406 183 121 79 506 374 116 174 
200 11 44 550 160 45 109 532 250 196 479 233 167 
201 11 237 311 409 241 436 391 285 459 597 123 502 
202 11 8 533 423 137 235 236 312 105 315 239 548 
203 11 276 555 21 484 220 471 178 411 372 250 301 
204 11 151 187 553 386 540 399 252 198 475 245 64 
205 11 13 441 223 531 586 53 504 358 134 97 520 
206 11 153 500 7 335 66 552 12 150 469 463 464 
207 11 107 422 412 50 158 299 585 396 440 156 59 
208 11 556 94 567 256 428 148 4 369 120 76 19 
209 11 179 29 596 450 249 54 181 384 394 324 270 
210 11 511 508 73 328 3 261 517 30 92 434 229 
211 11 548 105 315 234 235 17 8 434 202 534 517 
212 11 437 221 346 219 376 404 435 523 132 310 196 
213 11 576 342 581 268 338 408 475 114 478 90 198 
214 11 233 456 136 113 9 301 10 291 160 306 227 
215 11 559 36 400 83 371 461 433 483 263 489 69 
216 11 118 225 593 186 589 50 535 585 131 93 512 
217 11 572 197 362 382 243 494 592 297 230 558 232 
218 11 373 307 367 300 356 57 63 318 177 77 86 
219 11 132 346 560 505 310 404 221 212 271 435 510 
220 11 471 411 23 21 372 203 380 250 376 484 196 
221 11 404 310 510 532 132 167 219 109 212 437 45 
222 11 145 355 106 387 194 430 2 155 126 193 421 
223 11 13 205 441 586 531 504 53 134 358 507 543 
224 11 537 86 420 337 360 56 462 300 166 62 460 
225 11 118 216 593 589 535 186 50 512 131 377 585 
226 11 480 561 431 526 108 122 16 89 40 333 397 
227 11 10 306 291 571 103 513 454 136 301 456 214 
228 11 33 421 127 401 282 458 126 254 496 155 112 
229 11 407 287 162 455 189 508 429 511 328 453 210 
230 11 362 232 558 197 330 494 171 598 492 125 382 
231 11 539 557 439 195 258 368 470 186 115 43 163 
232 11 171 125 230 362 382 197 569 558 598 26 330 
233 11 214 160 479 301 9 200 44 550 250 10 372 
234 11 211 17 548 315 105 235 3 517 328 434 253 
235 11 105 548 211 534 315 8 202 423 533 234 192 
236 11 348 288 123 137 285 312 87 202 533 241 8 
237 11 201 409 241 436 311 391 123 285 348 459 597 
238 11 269 59 158 440 488 332 566 130 107 577 412 
239 11 87 58 533 423 466 302 202 236 8 288 192 
240 11 538 42 177 85 465 63 284 367 457 307 343 
241 11 123 348 409 285 436 237 201 288 137 312 236 
242 11 451 124 280 290 147 518 484 555 304 297 21 
243 11 494 197 558 297 362 14 217 572 280 330 304 
244 11 296 43 264 368 439 130 577 468 566 115 269 
245 11 252 399 475 540 553 386 151 576 204 342 213 
246 11 72 112 496 448 274 481 458 333 9 282 127 
247 11 265 255 427 551 313 165 62 502 182 591 82 
248 11 474 22 27 303 541 573 445 531 370 520 394 
249 11 29 275 181 270 364 398 209 547 361 324 596 
250 11 372 471 479 196 523 23 220 301 200 437 44 
251 11 14 352 143 327 495 492 497 580 330 558 494 
252 11 540 399 151 204 245 553 386 187 475 198 64 
253 11 544 331 312 137 182 285 313 597 315 105 8 
254 11 401 421 228 33 458 155 126 127 282 167 496 
255 11 247 265 313 551 427 331 182 165 62 597 502 
256 11 567 148 208 180 556 4 514 273 94 120 369 
257 11 188 51 341 493 343 457 414 570 363 168 350 
258 11 470 557 354 163 231 131 539 193 93 430 521 
259 11 444 414 498 350 528 142 61 341 98 257 487 
260 11 425 357 308 161 67 584 95 583 536 345 588 
261 11 92 511 210 30 73 508 135 328 587 490 3 
262 11 71 579 38 49 573 541 5 65 303 370 81 
263 11 377 83 400 589 69 593 215 279 483 36 559 
264 11 468 296 244 128 115 452 577 130 432 28 353 
265 11 247 255 427 551 165 313 62 591 502 82 110 
266 11 582 519 61 68 142 305 485 528 570 414 388 
267 11 100 323 518 124 292 290 580 327 147 390 405 
268 11 338 213 342 581 576 408 90 478 475 114 198 
269 11 332 238 566 130 440 577 158 244 296 43 59 
270 11 364 181 417 324 340 29 249 594 398 495 275 
271 11 560 483 505 535 346 219 132 461 83 512 400 
272 11 178 96 513 563 476 443 454 176 276 101 322 
273 11 514 148 180 80 4 477 256 152 567 317 146 
274 11 496 72 9 246 550 160 458 448 112 44 200 
275 11 249 398 547 29 181 361 364 270 20 209 594 
276 11 203 555 178 484 21 272 513 471 301 220 227 
277 11 415 170 594 278 149 525 361 417 340 419 499 
278 11 499 149 565 309 170 497 525 277 415 598 329 
279 11 154 156 299 377 396 403 263 422 146 69 491 
280 11 451 297 304 484 242 555 21 243 572 124 411 
281 11 129 424 385 482 490 52 135 587 104 92 141 
282 11 127 33 228 458 421 126 112 401 254 496 246 
283 11 104 30 587 490 293 482 385 426 424 73 92 
284 11 379 524 42 168 419 240 525 538 343 341 98 
285 11 312 123 137 241 348 236 237 544 201 253 409 
286 11 144 473 184 351 172 326 159 114 198 478 386 
287 11 189 407 229 162 508 328 453 455 3 429 17 
288 11 348 123 236 241 436 87 409 285 137 312 237 
289 11 39 447 378 545 70 442 467 138 595 501 175 
290 11 124 518 327 242 267 323 147 100 580 14 451 
291 11 306 571 103 136 10 456 227 454 366 513 214 
292 11 390 543 405 267 190 507 554 100 323 518 322 
293 11 426 416 283 30 24 31 37 104 73 434 517 
294 11 117 549 20 48 41 15 547 487 498 361 47 
295 11 588 116 345 506 584 95 161 79 308 406 32 
296 11 244 264 43 368 439 130 577 468 115 566 269 
297 11 304 280 451 243 484 572 242 21 217 555 411 
298 11 146 477 562 403 35 410 154 514 4 491 156 
299 11 156 396 422 403 279 154 207 146 107 412 50 
300 11 318 86 373 57 218 224 453 537 367 420 356 
301 11 479 227 233 10 250 372 214 276 471 306 203 
302 11 466 58 192 239 423 102 533 534 74 235 202 
303 11 541 573 71 27 445 38 262 370 579 248 474 
304 11 297 280 451 484 21 555 242 411 243 572 217 
305 11 68 570 266 84 582 519 133 522 61 34 363 
306 11 291 571 10 103 227 136 456 454 513 366 301 
307 11 218 367 373 356 177 77 538 329 599 85 63 
308 11 95 161 357 425 260 584 583 345 67 536 588 
309 11 497 565 492 598 330 499 278 143 558 149 230 
310 11 404 221 510 132 219 532 167 109 212 505 45 
311 11 391 459 201 237 409 436 76 241 502 82 19 
312 11 137 285 253 544 123 236 348 241 8 202 331 
313 11 182 331 597 544 255 551 247 502 253 265 82 
314 11 446 568 139 336 575 546 449 383 325 101 443 
315 11 105 211 548 234 235 17 8 202 253 312 137 
316 11 6 467 347 53 358 134 378 175 39 447 289 
317 11 152 80 173 180 273 148 403 514 256 396 477 
318 11 57 300 453 162 373 218 86 367 429 407 63 
319 11 119 395 536 583 185 138 25 406 32 595 345 
320 11 140 381 393 520 22 370 97 65 64 445 49 
321 11 464 12 150 18 389 410 110 591 91 562 206 
322 11 554 563 405 176 390 334 101 96 472 147 272 
323 11 100 580 267 327 290 124 450 596 352 518 292 
324 11 495 450 270 340 417 596 364 181 352 29 143 
325 11 139 575 175 446 314 383 157 568 449 501 509 
326 11 172 159 473 144 286 184 351 530 114 78 169 
327 11 580 323 290 352 124 14 100 251 267 518 450 
328 11 3 508 210 517 73 511 261 434 30 229 287 
329 11 599 46 77 515 55 149 525 499 307 356 419 
330 11 558 492 494 230 362 309 497 598 197 565 243 
331 11 544 253 313 182 597 312 255 285 137 17 247 
332 11 566 130 269 577 238 244 296 440 264 43 158 
333 11 448 481 108 431 122 72 9 246 561 226 526 
334 11 472 157 383 509 101 176 322 554 405 563 390 
335 11 469 500 153 206 69 433 491 36 66 552 7 
336 11 546 568 449 314 366 446 443 476 454 139 103 
337 11 166 537 462 56 224 62 460 420 86 486 360 
338 11 268 581 408 213 342 576 90 478 114 475 198 
339 11 413 99 455 429 529 63 162 465 85 229 407 
340 11 417 495 324 270 364 594 143 181 415 352 277 
341 11 168 343 257 524 493 188 457 350 414 444 51 
342 11 576 213 268 581 338 475 408 245 478 114 90 
343 11 457 493 168 341 257 188 524 51 465 42 284 
344 11 74 24 37 31 416 534 426 192 293 102 434 
345 11 95 588 583 295 308 161 406 506 116 32 584 
346 11 219 435 560 132 212 461 271 505 371 75 221 
347 11 6 316 53 467 358 134 378 39 175 586 447 
348 11 123 288 241 236 285 436 137 409 312 237 201 
349 11 191 438 365 485 388 530 78 169 516 519 159 
350 11 444 259 414 498 341 528 98 257 524 168 487 
351 11 184 286 144 473 172 159 326 198 47 114 530 
352 11 495 251 580 327 143 324 14 450 596 323 340 
353 11 432 115 452 468 195 128 28 264 439 88 296 
354 11 163 470 258 131 93 430 193 557 2 521 231 
355 11 145 222 106 194 387 2 430 193 126 155 521 
356 11 77 373 515 307 218 402 360 46 55 420 329 
357 11 425 260 308 67 161 95 583 536 584 345 185 
358 11 134 53 586 6 509 316 347 157 467 175 334 
359 11 34 418 133 111 84 141 363 522 52 51 129 
360 11 420 56 224 503 402 462 86 537 356 337 486 
361 11 398 547 594 275 364 41 270 181 415 249 277 
362 11 197 230 494 558 217 330 232 572 382 243 171 
363 11 111 418 51 34 359 188 133 84 570 493 257 
364 11 270 181 417 324 340 594 249 398 29 275 361 
365 11 388 78 349 516 191 530 485 15 438 142 159 
366 11 449 121 336 183 374 103 546 568 571 199 291 
367 11 218 63 307 177 85 373 538 57 240 453 429 
368 11 43 439 539 244 296 231 186 115 195 557 264 
369 11 120 19 94 208 556 256 567 428 76 459 180 
370 11 445 393 65 573 579 541 22 49 381 71 262 
371 11 461 435 559 215 483 400 83 75 346 560 164 
372 11 250 471 479 196 523 23 220 301 437 200 44 
373 11 218 307 356 300 367 86 77 318 57 224 420 
374 11 121 183 449 366 199 25 501 595 32 590 406 
375 11 542 574 155 505 512 93 132 131 310 254 401 
376 11 380 23 411 523 212 196 437 75 220 471 372 
377 11 263 589 279 83 400 593 154 69 156 215 483 
378 11 447 39 545 289 467 70 175 442 595 501 316 
379 11 284 419 524 168 525 42 98 170 341 538 240 
380 11 376 411 23 220 21 75 471 523 196 212 437 
381 11 320 140 393 370 65 22 64 445 49 520 97 
382 11 569 232 171 217 362 197 527 125 572 230 592 
383 11 472 446 157 101 575 314 176 334 568 325 139 
384 11 54 394 179 504 190 543 209 531 292 596 27 
385 11 490 587 482 424 281 104 283 135 92 30 129 
386 11 553 204 399 151 187 198 540 475 252 245 184 
387 11 106 145 222 355 194 126 2 430 155 421 33 
388 11 365 516 78 349 485 191 15 142 530 48 528 
389 11 18 591 91 110 321 464 427 12 392 150 166 
390 11 405 554 292 507 322 334 267 543 147 563 190 
391 11 311 409 459 237 201 436 241 19 76 123 348 
392 11 578 91 165 428 591 76 82 389 427 556 35 
393 11 65 49 64 370 381 579 445 262 320 71 140 
394 11 54 384 179 504 190 531 209 543 27 248 29 
395 11 185 536 319 119 138 583 67 442 70 595 357 
396 11 299 403 156 422 146 154 207 279 80 107 477 
397 11 40 113 16 174 526 561 456 122 480 136 89 
398 11 361 547 275 249 364 181 594 270 29 417 20 
399 11 553 151 386 540 204 252 187 245 475 198 576 
400 11 83 483 215 263 559 461 371 377 36 271 535 
401 11 254 421 33 228 458 126 155 127 282 387 496 
402 11 26 55 515 77 360 503 356 46 420 125 56 
403 11 146 396 156 299 477 298 154 80 279 273 422 
404 11 310 221 510 532 132 219 167 109 212 45 437 
405 11 390 554 322 507 292 334 267 563 472 543 147 
406 11 32 25 199 590 79 506 183 345 116 121 319 
407 11 229 162 287 455 189 429 453 57 508 511 339 
408 11 581 478 90 114 338 213 268 576 342 475 198 
409 11 436 237 241 201 123 391 348 311 285 288 459 
410 11 562 150 12 491 321 35 298 464 500 206 335 
411 11 220 380 23 21 376 471 484 304 203 372 555 
412 11 107 207 422 585 50 158 440 299 396 59 156 
413 11 99 339 529 465 455 85 52 429 63 135 457 
414 11 259 350 444 528 498 142 61 257 341 188 582 
415 11 277 170 594 417 340 361 278 149 525 364 499 
416 11 37 31 293 426 434 24 344 517 73 30 283 
417 11 340 364 270 594 324 495 181 143 415 277 398 
418 11 111 359 34 363 133 84 51 141 522 570 188 
419 11 525 379 284 170 149 599 329 524 42 277 278 
420 11 360 224 56 537 86 337 462 503 486 356 402 
421 11 228 33 401 126 254 127 458 282 155 387 106 
422 11 207 107 412 299 50 396 156 585 158 279 403 
423 11 533 202 8 239 466 58 235 302 192 534 236 
424 11 482 281 385 490 104 587 129 283 135 52 30 
425 11 260 357 308 161 67 95 584 583 536 345 588 
426 11 293 24 416 283 37 31 104 30 344 434 73 
427 11 591 265 165 110 247 62 91 18 389 551 255 
428 11 76 578 94 556 208 392 459 82 567 19 165 
429 11 455 162 453 407 63 339 57 229 85 287 367 
430 11 193 2 354 355 222 145 194 521 106 163 470 
431 11 122 108 561 226 526 480 333 16 448 481 397 
432 11 353 115 452 468 195 128 264 28 439 88 296 
433 11 489 36 469 335 153 500 552 66 215 559 564 
434 11 517 31 37 416 73 3 328 293 210 30 548 
435 11 346 75 461 371 212 560 219 132 271 483 376 
436 11 409 241 237 123 348 201 391 288 285 311 236 
437 11 523 196 212 23 221 376 45 404 532 109 250 
438 11 191 349 485 365 169 530 388 78 519 266 582 
439 11 368 539 231 195 43 115 244 296 557 186 264 
440 11 158 412 585 107 238 269 207 59 43 50 422 
441 11 205 13 223 53 586 531 358 134 347 6 504 
442 11 70 138 545 289 447 39 595 185 395 119 378 
443 11 476 96 176 101 454 563 546 568 513 272 336 
444 11 350 259 414 498 528 98 341 142 487 257 524 
445 11 370 573 541 22 303 65 393 71 579 474 262 
446 11 314 575 383 139 325 568 157 336 472 546 101 
447 11 39 378 289 545 70 442 467 595 501 175 138 
448 11 481 333 72 246 108 9 112 496 431 274 122 
449 11 336 366 314 374 568 546 139 121 183 446 325 
450 11 596 324 580 352 495 209 181 270 29 323 100 
451 11 280 304 242 297 484 555 21 124 243 290 203 
452 11 28 128 468 88 432 353 264 115 195 296 244 
453 11 57 162 318 429 407 455 63 300 229 367 287 
454 11 513 476 443 546 96 227 272 103 571 336 306 
455 11 429 162 407 339 229 453 63 57 287 85 413 
456 11 136 291 306 571 103 113 10 214 174 227 397 
457 11 493 343 465 341 168 188 257 51 42 524 363 
458 11 33 228 254 496 401 421 282 127 246 112 274 
459 11 311 76 391 428 201 19 82 237 502 94 578 
460 11 462 486 56 463 166 337 60 464 503 7 420 
461 11 371 435 483 559 215 346 400 83 560 75 271 
462 11 56 460 486 337 166 463 503 420 360 60 224 
463 11 460 486 7 60 462 11 464 56 206 66 12 
464 11 321 12 150 18 389 463 110 460 7 166 206 
465 11 240 457 413 42 85 493 99 343 538 177 339 
466 11 302 58 192 423 239 533 102 534 74 202 235 
467 11 316 378 6 347 39 447 175 289 545 53 358 
468 11 264 128 452 28 432 88 353 115 296 244 577 
469 11 335 69 500 153 491 36 433 206 489 552 66 
470 11 258 163 354 131 557 93 231 539 430 193 186 
471 11 220 372 250 23 411 203 21 196 479 523 380 
472 11 334 383 157 101 176 509 446 563 575 322 314 
473 11 144 286 184 351 172 326 159 114 198 478 530 
474 11 248 22 445 541 573 520 303 370 97 27 531 
475 11 213 576 342 553 198 386 399 245 581 408 151 
476 11 443 96 454 176 101 563 546 513 272 568 336 
477 11 146 298 514 273 403 4 35 148 80 562 396 
478 11 90 408 114 581 338 169 213 326 473 144 268 
479 11 301 250 372 233 471 200 160 44 196 523 214 
480 11 226 561 526 16 431 89 122 108 40 397 113 
481 11 448 333 72 246 108 112 431 496 9 122 274 
482 11 424 385 490 587 104 281 283 30 129 135 92 
483 11 83 400 271 461 560 535 371 215 559 263 346 
484 11 555 21 451 304 203 280 297 242 276 220 411 
485 11 191 519 349 438 388 365 582 266 142 61 68 
486 11 462 460 56 463 60 503 11 337 166 360 420 
487 11 41 98 498 117 444 350 524 259 277 294 170 
488 11 59 173 238 158 440 269 107 317 207 412 332 
489 11 433 564 552 527 66 36 153 335 500 469 559 
490 11 587 385 482 104 283 424 30 281 92 135 261 
491 11 69 469 335 410 562 500 150 153 206 154 36 
492 11 330 497 309 558 565 598 494 230 143 251 14 
493 11 457 343 188 51 257 341 168 465 363 111 524 
494 11 558 197 362 330 243 230 492 217 14 572 251 
495 11 324 352 143 340 417 450 251 270 364 596 580 
496 11 274 246 72 458 112 448 9 481 33 228 282 
497 11 309 565 492 143 330 598 499 278 558 251 14 
498 11 259 444 350 414 528 48 117 142 487 98 41 
499 11 278 149 565 309 497 598 329 525 599 170 46 
500 11 153 206 335 469 7 66 552 433 491 150 69 
501 11 595 138 545 70 374 119 442 139 447 175 325 
502 11 82 551 597 182 165 313 201 76 459 311 237 
503 11 26 486 60 56 360 462 402 420 460 11 463 
504 11 394 384 54 531 190 179 543 248 209 223 27 
505 11 132 219 542 560 271 375 574 310 346 404 512 
506 11 116 79 590 32 406 199 295 345 588 25 174 
507 11 390 405 292 543 554 190 334 586 322 509 472 
508 11 511 210 328 3 261 73 229 517 92 287 189 
509 11 157 334 472 134 358 383 586 575 446 325 175 
510 11 404 310 221 532 167 109 45 132 219 437 212 
511 11 508 210 261 92 328 3 73 30 229 517 135 
512 11 574 93 131 535 542 375 163 505 271 225 118 
513 11 454 272 96 476 178 443 227 10 306 571 546 
514 11 4 148 273 477 567 256 180 35 146 298 80 
515 11 55 46 77 402 356 329 599 307 26 360 598 
516 11 15 388 48 365 78 549 142 528 530 349 498 
517 11 434 3 73 328 210 31 508 30 511 416 37 
518 11 124 290 147 267 242 323 327 100 580 292 451 
519 11 266 582 485 61 68 142 528 305 191 388 349 
520 11 97 22 320 474 381 140 248 445 370 393 573 
521 11 193 2 194 430 258 354 355 145 470 557 222 
522 11 84 133 34 359 141 418 111 305 363 570 68 
523 11 196 437 23 250 372 376 212 471 44 200 220 
524 11 168 284 379 341 98 343 42 350 457 419 493 
525 11 419 170 149 379 278 599 329 284 499 277 415 
526 11 561 16 122 480 431 226 397 40 113 108 89 
527 11 569 564 489 164 382 552 66 592 433 11 171 
528 11 142 61 414 259 498 444 582 350 266 519 388 
529 11 99 413 135 339 52 92 455 129 261 281 511 
530 11 78 159 326 172 169 365 349 388 191 473 144 
531 11 504 394 248 54 384 474 223 179 13 190 205 
532 11 109 167 45 510 221 404 310 44 550 200 437 
533 11 423 202 8 239 236 235 58 87 466 137 302 
534 11 74 235 192 344 37 31 548 423 211 105 434 
535 11 271 512 225 483 118 589 574 593 216 560 83 
536 11 583 395 319 185 67 119 308 357 95 138 345 
537 11 224 86 337 420 62 56 360 166 300 462 460 
538 11 240 177 42 85 367 63 307 465 284 379 218 
539 11 231 439 557 368 186 195 258 43 470 115 163 
540 11 151 252 399 204 553 386 187 245 475 198 64 
541 11 573 303 445 71 370 262 27 579 38 22 474 
542 11 375 574 505 512 155 132 271 219 93 560 310 
543 11 190 292 384 507 54 504 394 390 179 100 405 
544 11 182 331 253 597 313 312 285 137 502 241 201 
545 11 447 378 39 70 289 442 595 501 138 175 467 
546 11 336 568 314 443 449 476 454 366 446 101 383 
547 11 398 361 275 20 249 181 364 594 41 270 294 
548 11 211 105 315 234 235 17 8 434 534 202 517 
549 11 48 117 294 15 516 20 47 498 41 78 259 
550 11 44 200 160 45 109 274 532 167 9 233 496 
551 11 502 82 165 265 247 313 597 255 427 182 578 
552 11 66 564 7 11 153 206 489 500 433 60 335 
553 11 386 204 399 151 187 198 540 475 252 245 184 
554 11 405 390 322 334 507 292 563 472 176 101 147 
555 11 484 203 21 276 451 280 242 304 220 178 297 
556 11 208 94 567 428 256 148 76 4 578 369 19 
557 11 231 258 539 470 195 439 163 354 186 115 131 
558 11 330 494 230 492 362 197 243 497 598 309 14 
559 11 215 36 371 400 83 461 433 489 483 263 69 
560 11 271 346 219 132 505 483 435 461 371 535 310 
561 11 480 526 226 431 16 122 108 89 40 397 113 
562 11 410 298 150 35 491 12 321 477 146 154 464 
563 11 176 96 101 322 476 443 272 472 334 178 383 
564 11 552 66 489 527 11 569 433 7 60 153 206 
565 11 497 309 499 278 492 143 598 149 330 340 558 
566 11 130 332 577 269 244 296 264 238 43 468 440 
567 11 256 208 148 556 4 514 94 180 273 428 35 
568 11 546 336 314 446 449 443 476 383 139 101 575 
569 11 527 382 564 171 125 11 232 552 489 66 164 
570 11 51 68 188 305 363 257 111 84 61 133 266 
571 11 103 291 306 10 136 227 456 454 366 513 546 
572 11 217 197 362 382 592 243 297 494 304 230 558 
573 11 541 303 445 71 370 262 579 38 22 27 474 
574 11 512 542 375 93 505 131 535 163 271 155 354 
575 11 325 446 139 314 383 175 157 472 568 509 449 
576 11 342 213 581 268 475 338 408 245 114 478 198 
577 11 130 566 332 296 244 264 269 468 128 43 238 
578 11 392 428 76 82 165 91 556 502 551 94 208 
579 11 262 71 49 65 370 38 393 573 445 541 64 
580 11 323 327 100 352 450 596 267 290 324 495 251 
581 11 408 213 338 268 576 342 478 90 114 475 198 
582 11 266 519 61 68 142 528 485 305 570 414 388 
583 11 536 319 95 345 308 395 119 357 67 185 161 
584 11 161 95 308 588 425 260 345 295 357 583 67 
585 11 50 412 440 107 207 422 158 186 216 43 118 
586 11 134 358 509 53 507 223 157 334 6 13 472 
587 11 490 385 482 104 283 424 30 281 92 261 135 
588 11 295 345 95 116 584 161 506 308 79 583 406 
589 11 593 225 118 377 263 216 535 50 83 400 279 
590 11 199 79 32 406 25 506 183 121 116 174 374 
591 11 91 389 18 110 427 165 392 321 62 265 464 
592 11 164 572 217 75 527 382 380 569 376 197 411 
593 11 589 225 118 216 50 377 263 535 585 186 279 
594 11 415 417 361 277 364 340 270 398 181 170 547 
595 11 501 138 70 545 119 442 447 374 319 378 395 
596 11 450 324 209 580 29 181 100 323 352 270 495 
597 11 182 544 313 502 331 551 201 253 285 237 82 
598 11 309 492 497 330 565 230 558 499 55 232 278 
599 11 329 46 77 515 55 149 525 499 307 356 419 
DEPOT_SECTION
   1
   -1
EOF
