NAME :  X-n524-kX-w52-c11.cctp
COMMENT : 	Adapted by Maziero, Usberti and Cavellucci from the Uchoa, Pecin, Pessoa, Poggi, Subramanian, and Vidal (2013)
TYPE :  CCTP
DIMENSION :    365
EDGE_WEIGHT_TYPE : 	EUC_2D	
CAPACITY : 	125
VERTICES_WITHIN_COVERAGE :  11
VERTICES_WITH_DEMAND : 	52
NODE_COORD_SECTION
1 691 729
2 978 828
3 427 367
4 777 543
5 190 596
6 773 750
7 234 727
8 851 358
9 140 69
10 891 285
11 467 13
12 537 162
13 636 355
14 213 284
15 75 877
16 384 814
17 606 173
18 76 236
19 86 733
20 642 61
21 303 261
22 771 775
23 107 264
24 763 43
25 811 873
26 38 170
27 822 920
28 907 792
29 539 273
30 576 836
31 491 411
32 430 725
33 727 248
34 532 825
35 457 218
36 398 153
37 942 597
38 8 330
39 637 85
40 75 781
41 578 635
42 560 188
43 27 523
44 432 198
45 359 691
46 695 372
47 203 307
48 641 389
49 836 612
50 375 499
51 818 980
52 577 226
53 889 259
54 516 324
55 102 346
56 223 11
57 484 245
58 648 790
59 878 261
60 600 800
61 493 722
62 549 214
63 638 166
64 452 172
65 326 662
66 786 203
67 24 32
68 529 661
69 843 248
70 82 971
71 876 644
72 642 810
73 141 824
74 351 732
75 469 250
76 970 812
77 723 360
78 274 238
79 668 103
80 562 82
81 930 729
82 901 987
83 546 102
84 388 767
85 933 329
86 991 716
87 738 728
88 436 466
89 346 490
90 639 634
91 765 715
92 772 60
93 804 906
94 378 297
95 881 802
96 842 994
97 662 474
98 20 116
99 562 217
100 709 544
101 50 682
102 771 244
103 538 704
104 506 883
105 414 522
106 583 435
107 210 579
108 326 715
109 92 24
110 879 544
111 14 19
112 446 28
113 130 966
114 978 572
115 333 105
116 558 84
117 783 837
118 1000 230
119 76 494
120 151 945
121 407 685
122 106 831
123 373 284
124 875 321
125 768 758
126 735 150
127 304 323
128 277 663
129 217 608
130 712 264
131 879 873
132 52 214
133 63 197
134 690 714
135 579 862
136 313 245
137 32 608
138 9 608
139 840 747
140 152 742
141 994 868
142 76 784
143 527 742
144 753 939
145 156 870
146 571 127
147 913 884
148 346 427
149 637 341
150 162 87
151 93 14
152 427 499
153 856 260
154 54 332
155 459 387
156 118 61
157 754 299
158 883 640
159 288 268
160 22 358
161 516 272
162 162 208
163 361 714
164 855 12
165 798 356
166 882 889
167 554 183
168 354 851
169 21 719
170 812 664
171 650 254
172 668 231
173 57 773
174 911 335
175 371 480
176 723 473
177 223 658
178 393 488
179 444 66
180 547 252
181 132 189
182 104 269
183 135 647
184 844 424
185 428 875
186 94 941
187 172 293
188 588 69
189 709 51
190 129 266
191 679 164
192 372 843
193 1000 521
194 743 716
195 838 43
196 649 346
197 144 771
198 454 383
199 553 361
200 419 490
201 482 77
202 13 726
203 967 302
204 556 701
205 484 665
206 297 676
207 476 864
208 340 827
209 675 391
210 225 785
211 832 207
212 465 723
213 289 259
214 752 271
215 539 782
216 25 72
217 772 963
218 791 367
219 375 323
220 0 91
221 488 274
222 403 745
223 965 258
224 456 817
225 486 256
226 657 8
227 256 745
228 528 298
229 153 272
230 303 733
231 814 649
232 352 306
233 857 350
234 222 391
235 846 792
236 333 441
237 781 370
238 197 119
239 582 192
240 506 792
241 638 178
242 755 124
243 654 335
244 66 850
245 623 623
246 602 913
247 674 0
248 125 625
249 937 264
250 430 671
251 171 691
252 1 656
253 374 862
254 155 256
255 504 293
256 770 501
257 764 790
258 525 835
259 839 711
260 379 711
261 140 264
262 597 673
263 798 514
264 679 437
265 843 272
266 55 768
267 664 373
268 103 28
269 841 826
270 47 539
271 530 354
272 924 776
273 477 784
274 69 282
275 371 110
276 309 154
277 234 333
278 61 527
279 104 132
280 711 178
281 47 755
282 357 66
283 332 541
284 853 658
285 440 187
286 603 576
287 438 190
288 857 282
289 169 702
290 461 299
291 878 549
292 196 92
293 780 638
294 724 171
295 801 374
296 718 26
297 0 789
298 461 432
299 391 542
300 548 841
301 965 772
302 252 790
303 61 446
304 215 324
305 181 749
306 562 764
307 678 70
308 985 664
309 678 370
310 118 587
311 913 258
312 548 391
313 735 621
314 474 67
315 615 218
316 854 798
317 850 728
318 154 235
319 768 589
320 4 303
321 43 400
322 525 257
323 593 392
324 123 233
325 130 687
326 394 334
327 765 405
328 540 408
329 881 423
330 358 553
331 903 236
332 64 121
333 11 847
334 758 962
335 981 723
336 36 659
337 539 348
338 506 458
339 762 62
340 956 508
341 173 89
342 96 995
343 982 670
344 593 42
345 256 579
346 538 566
347 706 808
348 373 748
349 346 575
350 260 698
351 538 250
352 348 539
353 84 185
354 320 795
355 168 346
356 857 379
357 84 839
358 901 930
359 637 820
360 61 140
361 795 51
362 979 294
363 492 157
364 324 520
365 832 980
DEMAND_SECTION
2 95
3 66
4 66
5 50
6 55
7 91
8 100
9 73
10 96
11 85
12 82
13 72
14 77
15 62
16 86
17 100
18 63
19 94
20 97
21 78
22 94
23 83
24 90
25 71
26 59
27 88
28 50
29 65
30 75
31 50
32 56
33 90
34 56
35 71
36 95
37 93
38 97
39 79
40 94
41 69
42 90
43 63
44 93
45 82
46 53
47 92
48 70
49 88
50 57
51 93
52 69
53 66
COVERAGE_SECTION
2 8 76 141 301 272 28 147 95 335 
3 9 198 155 326 219 298 290 31 94 232 
4 9 263 256 319 100 176 313 49 293 291 
5 8 107 129 345 177 248 310 183 251 
6 10 125 22 91 87 257 194 139 259 317 235 
7 10 227 350 305 210 302 230 177 289 251 128 
8 11 233 356 124 295 165 218 174 184 237 329 288 
9 10 156 150 341 268 292 109 151 279 238 332 
10 11 53 59 288 311 124 153 265 331 249 174 69 
11 11 112 314 179 201 116 80 83 282 344 188 275 
12 11 167 42 363 146 62 239 99 83 17 52 116 
13 11 149 196 243 267 48 309 209 323 46 199 77 
14 11 47 304 187 277 229 254 78 261 159 318 355 
15 11 244 357 122 186 333 145 73 142 70 40 120 
16 10 192 208 84 168 253 348 354 222 224 185 
17 11 239 241 63 315 42 167 146 52 99 12 62 
18 11 132 133 23 182 274 324 353 190 261 181 26 
19 11 281 266 40 173 142 101 325 169 140 197 202 
20 11 39 307 79 344 188 226 189 247 80 296 116 
21 8 213 159 136 78 127 232 123 94 
22 11 125 257 6 87 91 117 194 347 139 235 316 
23 11 182 190 261 324 18 274 229 254 318 187 132 
24 11 92 339 361 296 189 195 242 307 164 247 126 
25 10 93 117 27 269 131 166 316 144 235 257 
26 11 133 360 132 353 332 98 18 279 220 181 216 
27 10 93 25 51 365 217 166 144 131 96 334 
28 11 272 95 316 235 301 76 81 269 2 139 131 
29 11 322 180 161 351 228 255 221 54 225 52 62 
30 11 135 300 60 34 258 359 215 72 306 246 240 
31 11 298 155 198 328 338 312 271 3 88 337 199 
32 11 222 212 121 260 250 84 348 61 163 273 45 
33 9 130 214 102 157 172 280 66 171 294 
34 11 258 300 240 215 30 135 104 207 306 273 60 
35 11 44 75 287 285 57 64 225 221 363 322 161 
36 10 275 285 287 44 64 115 35 276 363 282 
37 10 114 158 291 308 71 110 343 340 193 49 
38 10 320 160 154 274 321 55 182 18 23 132 
39 11 20 79 307 188 344 80 146 116 189 226 63 
40 11 142 173 266 281 19 122 357 197 244 297 73 
41 9 262 245 68 90 286 204 103 346 205 
42 11 167 239 62 99 12 52 17 146 315 180 351 
43 7 270 278 119 303 137 138 310 
44 11 287 285 35 64 36 75 57 363 225 221 123 
45 11 163 260 108 74 65 121 348 206 222 230 250 
46 11 309 209 77 267 196 243 48 13 149 264 327 
47 11 304 14 187 277 355 229 254 261 190 234 318 
48 11 267 13 209 309 196 149 323 243 46 264 106 
49 11 231 284 71 158 170 293 319 291 110 4 259 
50 11 175 178 89 105 200 299 352 152 364 330 283 
51 9 365 96 217 27 334 93 144 82 358 
52 11 99 62 239 315 180 42 351 167 17 29 322 
53 11 59 311 10 331 153 288 69 249 265 124 223 
54 11 228 255 271 337 161 199 29 221 290 322 225 
55 9 154 355 274 182 321 160 23 190 187 
56 4 292 341 150 9 
57 11 225 75 221 35 161 322 255 351 290 29 180 
58 5 72 359 60 347 30 
59 11 53 153 10 288 311 331 69 265 249 124 211 
60 9 359 30 72 58 306 215 135 300 34 
61 11 212 143 103 205 32 273 204 68 240 215 250 
62 11 99 42 52 167 180 351 239 322 12 29 315 
63 11 241 17 191 315 239 79 172 280 146 39 42 
64 11 285 287 44 363 35 36 57 75 12 225 201 
65 8 206 45 128 108 163 260 74 230 
66 7 102 211 294 69 33 126 214 
67 11 111 216 220 109 151 268 98 156 332 360 9 
68 10 103 205 204 41 262 61 143 212 346 250 
69 8 153 265 59 288 211 53 10 331 
70 11 342 186 113 120 15 244 145 357 122 333 73 
71 9 158 284 49 231 170 259 37 317 291 
72 5 359 58 60 347 30 
73 8 122 145 197 357 142 40 244 140 
74 10 163 348 108 260 45 230 84 222 354 121 
75 11 57 225 221 35 290 161 255 322 44 287 285 
76 10 2 301 272 141 28 95 335 81 147 86 
77 10 46 309 209 237 267 327 157 218 243 165 
78 7 213 159 21 136 14 127 276 
79 11 307 39 20 191 189 63 241 126 280 188 294 
80 11 116 83 188 146 344 39 201 20 12 314 17 
81 9 272 335 301 86 28 343 317 308 95 
82 4 358 96 365 51 
83 11 116 80 146 188 12 201 344 363 314 167 42 
84 10 348 222 16 74 260 32 163 354 208 192 
85 8 174 203 362 124 10 249 311 223 
86 10 335 343 308 81 301 272 76 2 28 37 
87 7 194 91 6 125 134 22 257 
88 8 200 152 298 178 105 175 50 338 
89 11 175 50 364 178 352 236 283 148 330 299 200 
90 4 245 262 41 286 
91 9 194 87 6 125 22 170 259 134 257 
92 10 339 24 361 189 296 242 195 307 164 126 
93 10 27 25 144 217 117 334 51 365 166 131 
94 10 123 219 232 326 127 21 136 290 3 159 
95 11 316 28 235 269 272 139 131 317 166 81 147 
96 8 365 51 82 27 217 358 334 93 
97 6 264 176 100 209 48 106 
98 11 220 216 332 360 26 67 279 133 353 111 132 
99 11 62 52 42 239 167 180 351 315 322 12 29 
100 6 4 176 319 256 313 97 
101 11 336 169 252 202 19 281 137 325 138 266 173 
102 8 214 33 66 157 130 211 69 265 
103 10 204 143 68 61 306 205 262 212 215 41 
104 7 207 258 300 34 135 185 224 
105 6 152 299 200 178 50 88 
106 7 323 328 312 48 199 338 97 
107 5 5 129 345 177 310 
108 10 230 74 163 45 206 65 260 348 350 128 
109 11 151 268 156 9 67 111 216 150 332 341 279 
110 8 291 49 37 340 263 158 71 4 
111 11 67 216 220 109 151 268 98 156 332 360 9 
112 10 11 179 314 201 282 275 83 116 80 36 
113 10 120 186 342 70 145 15 244 357 122 73 
114 9 37 193 340 308 343 110 291 158 71 
115 4 275 282 276 36 
116 11 80 83 188 146 344 201 39 12 314 20 363 
117 8 25 257 269 22 93 235 125 316 
118 7 223 362 249 203 311 331 53 
119 4 278 303 270 43 
120 9 113 186 70 342 145 15 73 122 357 
121 10 250 260 32 45 163 222 212 348 74 205 
122 11 357 73 244 15 142 40 145 197 173 266 281 
123 10 94 232 219 326 136 21 127 159 213 290 
124 11 233 10 174 288 8 85 265 59 356 53 153 
125 11 6 22 257 87 91 194 139 117 347 235 259 
126 10 294 242 280 191 66 79 339 92 33 63 
127 6 232 159 21 213 219 277 
128 8 206 350 65 177 108 230 7 129 
129 8 5 107 345 177 128 183 248 251 
130 10 33 214 157 172 102 171 280 243 294 66 
131 8 166 147 269 358 25 95 27 316 
132 11 133 18 353 26 274 324 23 360 182 181 190 
133 10 132 353 26 18 360 181 324 332 279 23 
134 5 87 194 91 58 6 
135 10 30 300 246 34 258 60 359 104 72 215 
136 9 21 213 159 78 123 232 127 94 276 
137 11 138 336 252 270 101 43 278 310 248 183 169 
138 11 137 252 336 270 101 43 278 310 169 248 202 
139 10 317 259 235 316 6 95 125 22 269 28 
140 9 197 305 289 251 325 19 7 73 210 
141 7 2 76 147 301 358 166 131 
142 11 40 173 266 281 19 122 357 244 197 73 297 
143 11 61 103 306 215 204 240 212 273 68 34 205 
144 7 334 217 93 27 51 25 365 
145 6 73 122 120 357 15 244 
146 11 83 116 80 12 17 167 188 42 239 39 63 
147 6 166 131 358 141 2 95 
148 5 236 175 89 178 50 
149 11 196 13 243 267 48 309 209 46 323 199 77 
150 7 341 9 292 238 156 279 268 
151 11 109 268 156 67 9 111 216 150 341 332 279 
152 6 200 105 88 178 50 299 
153 10 69 265 59 288 53 10 331 311 211 124 
154 10 160 38 55 274 320 321 182 23 18 190 
155 11 198 3 31 298 271 88 326 328 54 338 290 
156 11 9 268 109 150 151 341 279 332 292 216 360 
157 9 214 130 33 102 77 165 237 218 295 
158 9 71 284 49 231 37 170 259 291 317 
159 9 213 21 78 136 127 232 14 277 123 
160 8 38 154 321 320 55 274 303 182 
161 11 322 29 255 221 228 351 225 180 57 54 75 
162 8 318 181 324 254 261 229 190 23 
163 11 260 74 45 108 348 222 121 84 230 65 32 
164 4 195 361 92 24 
165 9 218 295 237 8 233 327 356 157 77 
166 7 131 147 358 27 25 269 93 
167 11 42 12 239 62 99 52 17 146 363 180 351 
168 6 192 253 208 16 354 185 
169 11 202 281 101 266 336 173 19 252 297 40 142 
170 10 231 284 293 259 49 71 91 317 158 194 
171 11 172 315 130 33 241 52 243 149 63 17 196 
172 11 171 130 315 33 241 191 280 63 294 17 52 
173 11 266 40 281 142 19 297 202 169 357 122 244 
174 9 85 124 10 233 8 203 356 249 288 
175 11 50 178 89 200 236 148 152 105 364 352 299 
176 7 256 264 97 100 327 263 4 
177 9 129 128 350 251 5 7 289 206 107 
178 9 50 175 200 152 105 89 88 299 352 
179 11 314 112 201 11 275 282 36 363 64 83 116 
180 11 351 29 322 161 62 99 52 228 255 225 57 
181 8 162 324 353 318 279 133 254 18 
182 11 23 190 261 274 324 18 229 254 318 187 132 
183 11 248 325 251 310 289 5 177 129 101 140 19 
184 5 329 356 8 295 233 
185 7 207 253 192 224 16 104 168 
186 11 70 113 342 120 15 145 244 357 122 333 73 
187 11 229 47 254 14 261 190 304 355 318 23 182 
188 11 344 80 116 39 83 20 146 79 307 226 12 
189 11 296 307 339 24 247 92 79 226 20 39 242 
190 11 261 23 182 229 254 324 318 187 18 274 162 
191 10 280 63 241 294 126 79 172 17 315 242 
192 7 253 168 16 208 185 354 84 
193 5 340 114 37 110 291 
194 9 87 91 6 125 134 22 257 170 293 
195 5 164 361 92 24 339 
196 11 243 149 13 267 309 48 209 46 323 77 171 
197 8 140 305 73 19 142 40 122 289 
198 11 155 3 31 298 326 271 290 88 54 328 338 
199 11 337 271 312 328 323 54 228 31 106 13 255 
200 7 152 178 88 105 50 175 299 
201 11 314 179 112 11 83 116 80 363 64 12 146 
202 11 169 281 101 266 173 297 252 336 19 40 142 
203 9 362 85 223 249 174 311 10 118 53 
204 9 103 68 143 262 306 61 41 205 215 
205 9 68 250 61 212 103 121 204 32 143 
206 8 128 65 350 108 230 45 163 177 
207 8 104 185 224 258 34 300 240 273 
208 6 168 192 354 16 253 84 
209 11 267 309 46 48 264 196 13 77 243 149 323 
210 4 302 227 305 7 
211 8 69 66 153 265 59 102 53 331 
212 11 61 32 205 273 250 143 222 121 103 240 260 
213 9 159 21 78 136 127 232 14 123 277 
214 8 157 102 33 130 66 265 172 69 
215 11 306 240 143 34 258 300 273 60 30 61 103 
216 11 220 67 98 111 332 360 109 151 268 156 26 
217 8 334 144 51 365 93 27 96 25 
218 8 237 295 165 327 8 356 77 233 
219 7 326 94 232 123 3 127 290 
220 11 216 98 67 332 111 360 26 279 109 151 268 
221 11 225 255 161 57 75 290 322 228 29 351 54 
222 11 84 348 32 260 163 74 121 212 45 16 250 
223 9 249 362 203 118 311 331 53 85 10 
224 11 273 207 240 185 258 16 34 104 84 192 222 
225 11 57 75 221 161 322 255 35 290 351 29 228 
226 11 247 20 296 307 189 344 39 188 79 24 339 
227 7 7 302 350 230 210 305 108 
228 11 255 29 54 161 322 221 351 180 337 271 225 
229 11 261 254 190 187 318 23 182 324 14 47 162 
230 9 108 74 227 350 206 163 354 7 45 
231 10 170 293 284 49 71 259 158 319 91 313 
232 9 94 219 123 326 127 21 136 159 213 
233 10 8 356 124 174 165 295 218 288 10 184 
234 4 277 304 355 47 
235 11 316 269 95 139 28 317 22 117 272 259 257 
236 6 148 89 175 50 178 364 
237 8 218 295 165 327 77 8 157 356 
238 4 292 341 150 9 
239 11 42 167 17 99 52 62 315 12 241 63 146 
240 11 273 215 34 258 143 224 306 300 61 207 212 
241 11 63 17 191 315 239 172 280 171 52 42 79 
242 9 126 294 339 92 280 24 361 66 189 
243 11 196 149 13 267 309 46 48 209 77 171 323 
244 11 357 15 122 333 142 40 173 73 266 297 145 
245 5 90 41 286 262 68 
246 5 135 30 300 359 104 
247 11 226 296 189 20 307 344 39 24 79 339 188 
248 11 183 310 325 5 251 289 101 129 137 336 107 
249 10 311 223 331 53 203 10 362 59 85 118 
250 9 121 32 205 212 260 45 222 61 163 
251 11 289 325 140 183 305 177 7 248 197 350 19 
252 11 336 138 101 137 169 202 281 19 266 270 248 
253 6 192 168 16 208 185 354 
254 10 229 261 318 190 324 187 23 162 182 14 
255 11 161 221 228 54 29 225 322 290 57 75 351 
256 6 263 4 176 100 319 327 
257 8 22 125 6 117 347 87 91 194 
258 11 34 300 240 30 104 215 207 135 273 224 306 
259 10 317 139 170 284 231 91 6 71 235 158 
260 11 163 45 74 348 121 222 32 108 84 250 65 
261 11 190 229 254 318 23 324 182 187 162 18 274 
262 9 41 204 245 90 103 68 286 306 143 
263 6 256 4 319 176 110 291 
264 9 97 209 176 48 267 46 309 77 327 
265 9 288 153 69 59 53 10 124 211 331 
266 11 173 281 40 142 19 202 297 169 357 122 244 
267 11 309 209 48 46 196 13 243 149 77 264 323 
268 11 109 151 156 9 67 150 111 216 341 332 279 
269 11 316 235 95 25 117 131 28 166 139 257 22 
270 7 278 43 119 137 138 310 303 
271 11 337 199 54 312 328 228 255 31 323 155 29 
272 10 28 301 81 95 76 316 2 335 235 317 
273 11 240 224 212 215 61 143 34 258 32 207 222 
274 11 182 23 18 154 190 320 132 55 261 324 38 
275 6 115 282 36 276 179 64 
276 3 115 275 36 
277 7 304 47 14 234 355 127 187 
278 6 270 43 119 303 310 137 
279 10 332 360 353 181 156 9 150 26 133 341 
280 10 294 191 126 172 242 33 241 63 66 79 
281 11 266 173 40 142 169 19 202 297 101 357 122 
282 4 115 275 179 36 
283 9 352 364 330 349 89 299 50 175 178 
284 9 71 158 231 170 49 259 317 293 139 
285 11 287 44 64 35 36 363 75 57 225 221 12 
286 4 245 41 346 90 
287 11 285 44 64 35 36 363 75 57 225 221 12 
288 10 265 153 59 10 69 53 124 311 331 233 
289 11 251 325 140 305 183 7 177 197 19 248 350 
290 11 221 255 75 225 57 54 161 228 3 326 322 
291 8 110 49 37 263 340 158 71 4 
292 6 341 238 150 9 156 56 
293 8 231 170 313 319 49 284 91 194 
294 10 280 126 191 242 66 33 172 63 241 102 
295 8 218 165 237 327 8 356 233 184 
296 11 189 24 247 339 307 92 226 361 20 79 39 
297 11 281 173 266 333 202 169 40 142 244 357 19 
298 9 31 88 155 198 338 200 3 152 328 
299 11 105 330 352 50 178 152 349 200 283 175 89 
300 11 34 258 30 135 104 215 240 60 207 306 246 
301 10 76 272 335 81 2 28 86 95 141 343 
302 3 210 227 7 
303 5 321 119 278 43 270 
304 8 47 277 14 355 187 234 229 127 
305 8 140 197 289 7 210 251 227 325 
306 10 215 143 60 204 240 103 34 30 300 258 
307 11 79 189 20 39 296 226 247 339 24 344 188 
308 10 343 86 335 37 81 114 158 301 71 272 
309 11 267 46 209 196 48 243 13 77 149 264 323 
310 7 248 183 5 278 270 137 107 
311 11 53 331 249 10 59 223 153 288 203 69 265 
312 11 328 199 271 337 323 106 31 54 338 155 48 
313 6 319 293 100 231 170 4 
314 11 201 179 112 11 83 116 80 363 64 275 12 
315 11 52 239 17 241 171 99 172 63 42 62 167 
316 11 235 95 269 28 139 317 272 131 117 22 25 
317 10 259 139 235 284 316 170 6 81 95 28 
318 9 254 162 324 261 229 190 181 23 182 
319 9 313 4 293 49 100 231 263 170 256 
320 11 38 154 160 274 18 132 321 182 55 23 133 
321 6 160 303 154 38 55 119 
322 11 351 161 29 180 225 221 228 255 57 62 99 
323 11 106 312 48 199 328 13 149 337 196 267 271 
324 10 318 190 23 261 254 182 181 162 18 229 
325 11 183 251 289 140 248 19 101 305 197 177 336 
326 8 219 94 3 232 123 290 198 155 
327 8 237 218 295 165 77 46 176 184 
328 10 312 31 199 106 271 323 337 338 298 155 
329 4 184 356 8 233 
330 10 352 349 283 299 364 50 89 105 175 178 
331 10 311 53 59 249 10 153 69 288 223 265 
332 11 360 279 98 26 216 353 220 133 156 9 132 
333 11 244 297 15 357 173 266 142 40 122 281 202 
334 8 217 144 51 93 365 27 96 25 
335 9 86 81 301 343 308 272 76 28 2 
336 11 101 252 137 138 169 202 19 248 281 325 183 
337 11 271 199 54 312 228 328 255 323 29 31 161 
338 4 31 298 328 88 
339 9 92 24 361 189 296 242 195 307 126 
340 5 193 114 110 291 37 
341 7 150 292 238 9 156 279 56 
342 10 70 113 186 120 15 145 244 357 122 333 
343 10 308 86 335 81 37 114 158 301 71 272 
344 11 188 80 20 116 39 226 83 146 307 247 79 
345 7 107 129 5 283 177 128 349 
346 2 286 41 
347 6 58 257 72 359 22 125 
348 10 84 74 222 163 260 108 45 32 16 354 
349 7 330 352 283 299 364 50 89 
350 9 7 128 206 227 177 230 108 65 251 
351 11 180 322 29 161 62 99 52 228 225 57 221 
352 10 283 330 364 349 299 50 89 175 105 178 
353 10 133 132 26 181 360 18 279 324 332 162 
354 8 208 230 168 16 302 74 192 348 
355 9 47 304 187 55 277 234 229 14 261 
356 9 8 233 184 329 295 124 165 218 174 
357 11 244 122 15 142 40 73 173 333 266 145 197 
358 5 166 147 82 131 27 
359 6 72 58 60 30 347 135 
360 10 332 26 279 98 353 133 132 216 220 181 
361 8 92 24 339 195 164 296 242 189 
362 8 203 223 249 85 118 311 174 10 
363 11 64 12 285 287 167 35 44 42 83 62 201 
364 10 283 352 89 330 50 349 175 299 178 236 
365 8 51 96 27 217 82 334 93 358 
DEPOT_SECTION
   1
   -1
EOF
