NAME :  X-n502-kX-w50-c7.cctp
COMMENT : 	Adapted by Maziero, Usberti and Cavellucci from the Uchoa, Pecin, Pessoa, Poggi, Subramanian, and Vidal (2013)
TYPE :  CCTP
DIMENSION :    295
EDGE_WEIGHT_TYPE : 	EUC_2D	
CAPACITY : 	13
VERTICES_WITHIN_COVERAGE :  7
VERTICES_WITH_DEMAND : 	50
NODE_COORD_SECTION
1 0 0
2 159 917
3 635 200
4 278 907
5 667 141
6 119 954
7 29 448
8 590 87
9 375 990
10 511 374
11 298 957
12 107 911
13 323 766
14 161 892
15 151 912
16 438 1000
17 284 933
18 724 191
19 286 940
20 144 785
21 672 157
22 759 176
23 553 179
24 625 167
25 133 924
26 695 73
27 149 946
28 599 162
29 305 712
30 229 709
31 332 874
32 756 143
33 696 248
34 94 777
35 381 975
36 224 928
37 414 951
38 910 190
39 749 162
40 668 273
41 146 786
42 17 793
43 255 883
44 326 837
45 549 226
46 137 868
47 74 977
48 618 248
49 328 898
50 62 802
51 177 914
52 646 208
53 666 142
54 721 164
55 623 153
56 333 956
57 330 896
58 446 930
59 148 897
60 389 942
61 131 847
62 594 149
63 780 190
64 719 271
65 278 911
66 256 896
67 279 903
68 613 47
69 320 872
70 301 931
71 617 172
72 117 909
73 503 966
74 232 907
75 34 955
76 171 877
77 132 920
78 113 906
79 138 910
80 149 870
81 587 60
82 310 832
83 568 227
84 711 167
85 728 251
86 140 937
87 238 919
88 97 799
89 804 100
90 243 927
91 310 938
92 151 931
93 121 769
94 199 749
95 78 738
96 323 963
97 63 799
98 233 931
99 693 170
100 673 156
101 620 191
102 125 946
103 748 117
104 661 327
105 181 923
106 548 235
107 682 157
108 263 898
109 469 339
110 144 915
111 569 234
112 577 450
113 693 229
114 211 643
115 288 969
116 156 915
117 74 787
118 705 109
119 572 363
120 620 204
121 272 925
122 107 789
123 601 240
124 453 388
125 681 238
126 607 119
127 351 970
128 159 896
129 582 156
130 143 878
131 113 926
132 738 73
133 716 196
134 334 772
135 514 326
136 220 712
137 631 121
138 531 262
139 707 228
140 617 160
141 624 151
142 210 727
143 239 749
144 550 138
145 393 807
146 375 829
147 104 898
148 271 910
149 655 37
150 324 847
151 622 54
152 627 176
153 869 235
154 651 183
155 365 946
156 125 924
157 296 984
158 682 174
159 278 948
160 338 880
161 759 215
162 253 878
163 612 266
164 169 877
165 242 885
166 592 164
167 461 897
168 267 899
169 156 936
170 268 927
171 625 248
172 265 857
173 565 376
174 306 759
175 120 892
176 115 963
177 33 726
178 750 227
179 432 927
180 97 802
181 486 173
182 320 818
183 76 937
184 90 963
185 635 199
186 528 222
187 179 893
188 429 939
189 323 841
190 170 927
191 136 925
192 283 911
193 684 269
194 303 957
195 608 145
196 136 934
197 189 916
198 296 925
199 394 969
200 222 947
201 239 875
202 171 888
203 354 803
204 135 857
205 145 863
206 740 71
207 102 946
208 402 983
209 593 174
210 118 922
211 738 121
212 350 705
213 196 681
214 160 889
215 654 195
216 328 864
217 241 885
218 266 914
219 717 180
220 684 230
221 180 920
222 294 964
223 559 143
224 433 966
225 827 145
226 294 784
227 175 923
228 333 919
229 279 771
230 117 866
231 722 126
232 276 893
233 86 990
234 672 173
235 360 987
236 718 192
237 66 817
238 657 97
239 623 266
240 678 101
241 270 864
242 620 232
243 295 987
244 101 738
245 359 881
246 158 934
247 182 919
248 717 177
249 653 54
250 683 139
251 381 928
252 277 962
253 608 267
254 625 217
255 565 76
256 523 188
257 165 947
258 774 36
259 557 175
260 80 903
261 172 890
262 138 914
263 270 872
264 702 198
265 737 258
266 174 804
267 266 959
268 142 936
269 79 750
270 841 230
271 289 910
272 408 932
273 616 200
274 729 281
275 707 106
276 395 678
277 134 820
278 514 197
279 547 236
280 660 98
281 302 673
282 50 967
283 79 930
284 628 254
285 3 965
286 613 252
287 343 877
288 626 246
289 332 921
290 117 872
291 119 964
292 370 865
293 632 243
294 304 893
295 288 773
DEMAND_SECTION
2 1
3 1
4 1
5 1
6 1
7 1
8 1
9 1
10 1
11 1
12 1
13 1
14 1
15 1
16 1
17 1
18 1
19 1
20 1
21 1
22 1
23 1
24 1
25 1
26 1
27 1
28 1
29 1
30 1
31 1
32 1
33 1
34 1
35 1
36 1
37 1
38 1
39 1
40 1
41 1
42 1
43 1
44 1
45 1
46 1
47 1
48 1
49 1
50 1
51 1
COVERAGE_SECTION
2 7 116 15 110 190 92 227 246 
3 6 185 52 120 101 273 215 
4 7 65 67 192 148 271 168 218 
5 7 53 100 250 21 107 234 158 
6 6 102 176 291 207 196 86 
7 3 114 177 213 
8 6 81 255 126 68 151 137 
9 7 235 35 199 208 127 155 60 
10 5 135 173 109 124 119 
11 7 194 222 115 19 91 159 252 
12 7 78 72 147 131 210 156 175 
13 6 134 174 226 295 229 203 
14 7 214 128 202 261 59 164 76 
15 7 116 110 2 79 262 59 128 
16 7 224 208 199 37 35 188 9 
17 7 19 121 198 159 70 170 192 
18 7 236 133 219 248 264 54 84 
19 7 17 159 70 198 11 121 170 
20 5 41 93 266 277 122 
21 7 100 107 53 234 5 158 250 
22 7 39 63 32 18 161 54 219 
23 4 259 256 223 129 
24 7 71 152 140 55 141 101 28 
25 7 191 77 156 196 262 110 79 
26 6 240 275 118 132 280 206 
27 7 169 268 86 92 246 257 196 
28 7 166 209 62 129 140 195 71 
29 7 281 212 174 13 295 229 134 
30 5 136 142 143 213 94 
31 6 160 216 287 69 57 49 
32 6 39 103 211 22 231 54 
33 6 125 113 220 139 193 85 
34 7 122 88 117 180 93 269 97 
35 7 199 9 208 235 127 155 60 
36 5 98 87 90 200 74 
37 7 188 272 224 60 199 179 208 
38 5 153 270 225 63 89 
39 7 22 32 54 248 219 18 84 
40 4 193 125 33 284 
41 5 20 93 266 277 122 
42 7 50 97 237 117 177 269 34 
43 7 162 66 165 217 108 201 263 
44 5 189 150 82 182 216 
45 5 106 279 83 186 111 
46 7 205 204 80 130 230 290 61 
47 6 233 184 282 183 207 176 
48 7 286 171 288 284 293 242 123 
49 7 57 160 228 289 31 294 287 
50 7 97 237 117 88 180 34 42 
51 7 221 247 227 105 197 190 2 
52 3 3 185 215 
53 7 5 21 100 250 107 234 158 
54 6 84 248 219 18 39 236 
55 7 141 140 24 195 71 152 28 
56 6 96 127 91 194 155 11 
57 7 49 160 31 228 287 289 69 
58 6 179 188 167 37 224 272 
59 7 128 14 214 15 79 110 116 
60 5 251 272 155 37 199 
61 4 204 205 46 230 
62 6 28 129 166 195 140 209 
63 6 22 161 39 178 32 18 
64 5 274 85 265 33 193 
65 7 4 192 148 67 271 218 121 
66 5 108 168 43 162 165 
67 7 4 65 192 232 148 271 168 
68 6 151 81 249 149 8 255 
69 3 216 31 160 
70 4 198 91 17 19 
71 6 24 152 140 101 55 28 
72 7 78 12 210 131 147 156 175 
73 7 58 224 16 188 167 179 37 
74 3 87 36 90 
75 4 282 285 47 183 
76 5 164 202 261 214 14 
77 7 25 191 156 262 79 110 210 
78 7 72 12 147 175 210 131 156 
79 7 262 110 77 15 25 191 59 
80 4 205 130 46 204 
81 5 8 255 68 151 126 
82 4 189 44 182 150 
83 4 111 45 106 279 
84 6 54 248 219 99 236 18 
85 7 265 64 274 139 33 178 113 
86 7 268 196 27 92 191 25 169 
87 4 90 74 98 36 
88 7 180 122 34 117 97 50 237 
89 7 225 103 32 211 206 132 258 
90 3 87 98 36 
91 5 70 198 194 11 19 
92 7 169 246 268 86 27 196 2 
93 7 122 20 34 41 244 88 180 
94 4 142 143 136 30 
95 6 269 244 34 177 117 93 
96 6 56 194 11 91 127 222 
97 7 50 117 237 88 180 34 122 
98 5 36 90 87 200 74 
99 6 158 107 84 234 100 21 
100 7 21 107 5 53 234 158 250 
101 3 273 120 3 
102 7 6 196 86 291 176 268 156 
103 5 211 32 231 275 118 
104 2 40 193 
105 6 221 247 227 51 197 190 
106 5 279 45 111 83 186 
107 7 100 21 99 158 250 234 5 
108 7 168 66 148 232 218 4 43 
109 3 135 124 10 
110 7 262 15 79 116 77 191 25 
111 4 83 106 45 279 
112 3 173 119 10 
113 4 220 139 125 33 
114 5 213 30 136 142 281 
115 7 222 252 11 157 194 243 159 
116 7 2 15 110 92 190 262 79 
117 7 97 50 34 88 180 237 122 
118 5 275 231 240 211 26 
119 2 173 10 
120 5 273 101 254 3 185 
121 5 170 218 17 65 148 
122 7 88 180 34 93 117 20 41 
123 2 286 48 
124 3 109 10 135 
125 4 220 113 33 139 
126 6 137 195 62 8 141 55 
127 6 235 56 155 96 35 9 
128 7 14 214 59 202 261 15 116 
129 6 166 62 28 209 223 195 
130 6 80 46 205 59 214 204 
131 7 210 156 12 72 25 77 78 
132 5 206 26 103 275 211 
133 6 236 18 264 219 248 84 
134 7 13 174 203 226 295 182 229 
135 3 109 10 138 
136 5 30 142 213 143 94 
137 7 126 141 55 195 238 280 5 
138 4 279 106 45 186 
139 7 113 33 220 125 264 85 133 
140 7 55 24 141 71 195 28 152 
141 7 55 140 24 195 71 152 28 
142 5 136 94 30 143 213 
143 3 142 94 30 
144 4 223 129 259 23 
145 5 146 203 292 134 44 
146 6 145 203 292 44 189 150 
147 4 78 12 72 175 
148 6 218 65 4 67 168 192 
149 6 249 151 68 26 238 280 
150 5 189 44 216 82 69 
151 6 68 249 81 149 8 238 
152 5 24 71 101 140 55 
153 4 270 38 225 63 
154 5 215 3 185 234 52 
155 4 60 251 127 35 
156 7 210 25 77 191 131 196 262 
157 6 243 115 222 11 194 252 
158 5 234 99 107 21 100 
159 7 19 252 17 267 11 115 170 
160 7 287 31 57 216 69 49 245 
161 7 178 63 22 18 133 236 85 
162 6 43 165 201 217 66 263 
163 5 253 239 286 48 284 
164 5 76 202 261 214 14 
165 4 217 201 43 162 
166 5 28 209 129 62 140 
167 5 58 179 188 272 37 
168 7 108 66 232 148 67 4 218 
169 7 246 92 27 257 268 86 190 
170 4 121 218 17 148 
171 7 288 48 284 293 286 242 239 
172 4 241 263 162 43 
173 4 119 10 135 112 
174 6 13 295 226 229 134 29 
175 5 78 72 147 290 12 
176 5 291 6 102 207 184 
177 6 95 269 42 244 117 97 
178 7 161 85 265 139 18 133 236 
179 7 188 58 272 37 224 167 60 
180 7 88 122 34 117 97 237 50 
181 5 278 256 186 23 259 
182 5 82 44 189 150 203 
183 6 283 207 184 260 131 12 
184 7 47 207 176 233 291 6 183 
185 6 3 52 120 101 215 273 
186 7 45 106 279 278 256 83 138 
187 6 261 202 14 76 164 214 
188 7 179 37 58 272 224 60 199 
189 5 44 150 82 182 216 
190 7 227 105 221 246 247 2 51 
191 7 25 77 196 156 262 86 110 
192 6 65 4 271 67 148 218 
193 6 40 33 125 64 220 113 
194 7 11 222 115 91 96 19 70 
195 7 62 55 140 141 28 166 126 
196 7 86 268 191 25 77 92 156 
197 5 247 221 105 51 227 
198 4 70 17 271 19 
199 7 35 208 37 60 9 155 235 
200 2 36 98 
201 4 165 217 162 43 
202 7 261 187 14 76 164 214 128 
203 6 146 134 182 145 44 13 
204 7 46 61 205 80 230 130 290 
205 4 80 46 204 130 
206 6 132 26 103 275 258 211 
207 7 6 176 184 102 131 291 183 
208 7 199 35 9 37 224 16 235 
209 3 166 28 129 
210 7 131 156 72 77 25 12 78 
211 5 103 231 32 275 118 
212 7 29 276 281 13 134 174 295 
213 5 136 114 30 142 94 
214 6 14 128 202 261 59 164 
215 4 154 52 185 3 
216 5 31 69 150 160 287 
217 4 165 201 43 162 
218 5 148 65 121 170 4 
219 6 248 236 18 84 54 133 
220 4 113 125 33 139 
221 6 247 105 227 51 197 190 
222 7 11 115 194 252 157 159 243 
223 4 144 129 259 23 
224 7 37 188 16 208 58 179 199 
225 6 89 63 32 22 39 103 
226 5 295 229 174 13 134 
227 7 105 190 221 247 51 197 2 
228 3 289 49 57 
229 4 295 226 174 13 
230 2 290 46 
231 5 211 118 275 103 32 
232 7 67 168 4 108 65 148 192 
233 6 47 184 176 291 282 207 
234 6 158 21 100 107 99 154 
235 6 9 127 35 199 56 155 
236 7 133 18 219 248 264 84 54 
237 5 50 97 117 180 88 
238 7 280 240 137 249 5 26 53 
239 6 163 284 253 286 171 48 
240 6 280 238 118 275 26 250 
241 4 263 172 162 43 
242 6 288 48 254 293 171 123 
243 6 157 115 222 11 194 252 
244 5 95 269 93 34 122 
245 6 287 292 160 31 57 49 
246 7 169 92 190 27 257 268 2 
247 6 221 105 51 197 227 190 
248 6 219 84 54 236 18 133 
249 6 149 151 68 238 280 26 
250 7 5 53 107 100 21 99 158 
251 4 60 155 272 37 
252 7 267 115 159 222 11 19 194 
253 4 163 239 286 48 
254 4 120 242 273 3 
255 3 8 81 68 
256 7 278 23 186 259 181 45 106 
257 3 169 246 27 
258 6 206 132 89 103 26 211 
259 5 23 129 223 209 256 
260 4 147 283 12 78 
261 7 202 187 14 214 76 164 128 
262 7 79 110 77 25 191 15 156 
263 6 241 172 162 43 232 108 
264 5 133 236 18 219 248 
265 6 85 64 274 178 33 139 
266 1 41 
267 4 252 159 115 19 
268 7 86 196 92 27 191 169 25 
269 7 95 244 34 117 93 122 88 
270 4 153 63 38 161 
271 4 192 4 65 67 
272 6 37 60 188 179 251 58 
273 3 120 101 3 
274 5 64 265 85 33 193 
275 5 118 231 240 211 26 
276 6 212 281 29 134 13 174 
277 3 61 20 41 
278 7 256 186 181 23 45 259 106 
279 5 106 45 111 83 186 
280 7 238 240 137 26 5 53 249 
281 7 29 212 30 174 136 276 13 
282 5 75 47 183 184 233 
283 7 183 260 207 12 131 184 210 
284 7 171 288 48 293 239 286 163 
285 3 75 282 47 
286 7 48 171 163 288 284 253 123 
287 7 160 31 245 216 57 69 49 
288 7 171 293 48 284 286 242 239 
289 4 228 49 57 91 
290 2 230 46 
291 4 176 6 102 207 
292 6 245 287 160 146 31 216 
293 5 288 171 284 48 242 
294 3 271 49 57 
295 5 229 226 174 13 134 
DEPOT_SECTION
   1
   -1
EOF
