NAME :  X-n573-kX-w228-c11.cctp
COMMENT : 	Adapted by Maziero, Usberti and Cavellucci from the Uchoa, Pecin, Pessoa, Poggi, Subramanian, and Vidal (2013)
TYPE :  CCTP
DIMENSION :    573
EDGE_WEIGHT_TYPE : 	EUC_2D	
CAPACITY : 	210
VERTICES_WITHIN_COVERAGE :  11
VERTICES_WITH_DEMAND : 	228
NODE_COORD_SECTION
1 0 0
2 753 355
3 663 83
4 725 286
5 734 504
6 704 145
7 728 311
8 675 58
9 617 242
10 864 334
11 772 258
12 516 109
13 717 123
14 768 161
15 598 365
16 896 569
17 781 281
18 898 397
19 714 126
20 780 311
21 809 60
22 728 244
23 724 219
24 712 177
25 694 432
26 491 157
27 854 648
28 612 179
29 623 337
30 788 320
31 772 378
32 736 308
33 692 303
34 737 334
35 576 27
36 731 360
37 763 301
38 633 578
39 935 244
40 513 73
41 511 133
42 671 349
43 729 254
44 771 261
45 851 278
46 827 365
47 682 113
48 553 425
49 544 282
50 706 165
51 527 26
52 580 220
53 908 303
54 841 306
55 656 34
56 864 196
57 618 270
58 699 347
59 787 289
60 678 11
61 643 387
62 757 114
63 858 395
64 706 157
65 713 243
66 663 319
67 615 448
68 898 477
69 767 131
70 718 334
71 871 216
72 694 435
73 617 345
74 645 75
75 513 50
76 767 259
77 773 313
78 589 104
79 760 287
80 595 425
81 763 240
82 569 225
83 702 417
84 593 51
85 656 83
86 532 93
87 834 351
88 832 274
89 751 126
90 796 290
91 872 212
92 835 257
93 702 185
94 673 187
95 596 422
96 740 147
97 890 180
98 556 120
99 638 386
100 748 319
101 620 112
102 794 226
103 641 383
104 594 302
105 725 400
106 731 321
107 703 296
108 614 503
109 715 179
110 781 317
111 841 365
112 783 270
113 778 420
114 770 372
115 907 192
116 913 434
117 647 749
118 683 171
119 649 324
120 359 195
121 867 471
122 585 218
123 757 323
124 914 399
125 681 323
126 603 251
127 554 275
128 762 315
129 813 342
130 801 379
131 724 14
132 775 342
133 727 221
134 715 314
135 731 363
136 788 250
137 649 29
138 655 407
139 567 325
140 624 88
141 763 422
142 669 54
143 785 537
144 765 384
145 654 348
146 677 313
147 848 491
148 814 112
149 699 70
150 658 353
151 550 42
152 853 372
153 540 24
154 626 65
155 661 37
156 769 395
157 715 396
158 714 325
159 729 241
160 692 271
161 638 306
162 715 360
163 697 213
164 704 114
165 699 231
166 911 240
167 789 296
168 598 279
169 656 384
170 636 117
171 637 296
172 864 347
173 844 382
174 595 121
175 590 28
176 734 288
177 641 174
178 789 60
179 729 563
180 839 459
181 685 249
182 626 159
183 610 15
184 671 265
185 1000 201
186 875 408
187 419 38
188 671 63
189 693 73
190 803 184
191 690 55
192 680 192
193 511 191
194 899 256
195 610 110
196 827 287
197 672 526
198 751 216
199 755 311
200 770 321
201 750 262
202 665 436
203 595 339
204 743 228
205 748 421
206 736 240
207 747 298
208 511 179
209 753 707
210 413 402
211 628 437
212 661 207
213 737 328
214 711 285
215 655 325
216 800 288
217 804 352
218 678 59
219 623 79
220 825 278
221 736 469
222 728 268
223 675 177
224 641 245
225 686 180
226 617 646
227 903 84
228 646 72
229 778 409
230 865 386
231 928 420
232 668 91
233 702 123
234 705 306
235 574 355
236 684 468
237 700 483
238 617 442
239 629 426
240 767 394
241 750 212
242 828 227
243 544 253
244 605 107
245 746 356
246 737 130
247 638 79
248 600 47
249 734 377
250 652 13
251 482 164
252 737 249
253 740 161
254 554 181
255 623 270
256 748 363
257 655 305
258 878 250
259 638 311
260 743 397
261 663 78
262 649 322
263 718 309
264 711 345
265 750 222
266 734 195
267 691 372
268 676 264
269 793 263
270 638 111
271 717 372
272 670 184
273 635 112
274 677 120
275 708 173
276 741 62
277 483 71
278 851 348
279 776 165
280 807 346
281 659 341
282 732 272
283 815 259
284 739 375
285 907 319
286 777 316
287 756 77
288 668 72
289 766 304
290 661 144
291 599 97
292 648 208
293 696 412
294 878 216
295 507 50
296 848 417
297 673 295
298 734 420
299 676 104
300 756 332
301 667 238
302 616 134
303 692 255
304 705 186
305 675 191
306 657 99
307 760 418
308 827 350
309 662 529
310 821 447
311 759 191
312 753 72
313 859 378
314 646 242
315 896 475
316 566 258
317 645 338
318 546 60
319 748 263
320 805 435
321 785 387
322 510 198
323 937 390
324 641 386
325 759 274
326 714 352
327 674 332
328 662 189
329 712 354
330 685 112
331 628 73
332 728 372
333 703 99
334 692 48
335 746 335
336 791 248
337 579 98
338 732 249
339 503 63
340 595 63
341 877 228
342 812 137
343 788 235
344 647 192
345 738 410
346 600 100
347 742 417
348 616 343
349 830 330
350 681 162
351 809 41
352 845 394
353 714 51
354 602 236
355 590 57
356 766 375
357 746 391
358 657 113
359 630 128
360 643 248
361 623 315
362 805 534
363 639 178
364 603 114
365 779 398
366 680 289
367 994 383
368 463 284
369 715 367
370 625 297
371 773 278
372 701 345
373 729 331
374 658 317
375 807 287
376 638 7
377 669 12
378 616 128
379 587 403
380 962 294
381 717 278
382 557 161
383 565 465
384 631 245
385 816 144
386 706 90
387 771 428
388 839 190
389 786 419
390 754 358
391 687 82
392 690 187
393 692 441
394 839 365
395 763 191
396 724 301
397 791 198
398 697 159
399 661 220
400 776 276
401 736 431
402 892 182
403 602 33
404 487 297
405 747 65
406 721 103
407 744 240
408 648 381
409 571 6
410 646 130
411 758 317
412 779 433
413 737 308
414 736 197
415 585 87
416 668 304
417 863 289
418 861 472
419 628 358
420 857 330
421 755 375
422 601 537
423 759 310
424 704 272
425 642 346
426 710 240
427 877 382
428 877 287
429 573 197
430 339 383
431 651 320
432 754 254
433 694 52
434 814 293
435 703 274
436 496 169
437 766 182
438 480 92
439 847 178
440 928 298
441 871 664
442 656 36
443 753 175
444 742 128
445 760 363
446 677 376
447 761 383
448 855 434
449 773 366
450 710 177
451 762 378
452 876 191
453 801 250
454 481 159
455 839 209
456 544 312
457 749 288
458 704 91
459 647 158
460 722 176
461 608 213
462 720 277
463 757 350
464 697 229
465 890 258
466 779 273
467 949 223
468 738 400
469 674 438
470 626 293
471 716 467
472 593 371
473 872 314
474 616 310
475 670 454
476 762 339
477 676 366
478 766 318
479 753 389
480 766 236
481 671 75
482 901 344
483 737 290
484 602 77
485 784 319
486 783 268
487 792 335
488 813 294
489 768 302
490 770 281
491 798 190
492 696 305
493 714 336
494 684 65
495 686 329
496 751 357
497 667 260
498 734 295
499 538 203
500 838 499
501 104 364
502 689 47
503 621 231
504 656 128
505 595 31
506 793 258
507 844 287
508 630 165
509 537 118
510 607 413
511 783 359
512 673 280
513 756 224
514 676 466
515 609 102
516 738 221
517 556 84
518 789 84
519 624 239
520 721 70
521 711 338
522 649 180
523 229 166
524 782 342
525 759 222
526 872 494
527 589 39
528 533 226
529 704 206
530 644 66
531 830 288
532 585 126
533 660 72
534 554 11
535 755 300
536 587 243
537 708 115
538 610 16
539 774 505
540 640 436
541 683 210
542 936 268
543 795 414
544 693 592
545 817 108
546 710 305
547 739 217
548 725 45
549 638 118
550 711 456
551 783 128
552 761 313
553 866 479
554 817 400
555 554 297
556 778 342
557 654 271
558 756 239
559 748 41
560 648 151
561 701 286
562 735 275
563 792 334
564 674 111
565 754 300
566 740 149
567 798 531
568 661 275
569 530 155
570 532 181
571 587 360
572 869 444
573 794 227
DEMAND_SECTION
2 78
3 96
4 64
5 87
6 70
7 57
8 63
9 86
10 89
11 64
12 53
13 86
14 69
15 94
16 62
17 96
18 89
19 92
20 72
21 59
22 93
23 55
24 96
25 81
26 65
27 52
28 99
29 99
30 57
31 100
32 73
33 61
34 64
35 85
36 69
37 55
38 95
39 95
40 64
41 73
42 99
43 88
44 89
45 10
46 9
47 5
48 1
49 3
50 9
51 5
52 4
53 10
54 3
55 5
56 7
57 9
58 6
59 5
60 8
61 2
62 4
63 3
64 3
65 6
66 3
67 3
68 8
69 5
70 9
71 10
72 4
73 2
74 10
75 1
76 3
77 2
78 5
79 4
80 5
81 7
82 3
83 1
84 7
85 9
86 4
87 4
88 6
89 2
90 8
91 8
92 5
93 5
94 9
95 10
96 8
97 1
98 6
99 10
100 6
101 10
102 6
103 7
104 6
105 2
106 9
107 6
108 8
109 6
110 3
111 10
112 6
113 4
114 2
115 9
116 6
117 1
118 3
119 9
120 8
121 8
122 1
123 4
124 4
125 2
126 7
127 5
128 2
129 10
130 7
131 9
132 1
133 9
134 2
135 2
136 4
137 6
138 2
139 4
140 6
141 6
142 7
143 5
144 9
145 6
146 10
147 1
148 3
149 9
150 3
151 4
152 6
153 1
154 8
155 5
156 7
157 5
158 2
159 1
160 8
161 6
162 7
163 4
164 6
165 5
166 1
167 8
168 9
169 8
170 9
171 8
172 9
173 3
174 9
175 2
176 4
177 6
178 8
179 9
180 1
181 5
182 6
183 2
184 4
185 2
186 2
187 3
188 6
189 7
190 6
191 9
192 9
193 1
194 10
195 7
196 2
197 1
198 5
199 7
200 4
201 9
202 4
203 1
204 10
205 1
206 1
207 2
208 5
209 6
210 10
211 7
212 2
213 1
214 6
215 3
216 2
217 4
218 4
219 1
220 4
221 10
222 2
223 2
224 6
225 7
226 7
227 10
228 4
229 9
COVERAGE_SECTION
2 11 390 496 463 245 256 445 476 421 335 36 135 
3 11 261 85 232 481 533 288 306 74 228 188 391 
4 11 176 462 381 483 498 214 396 562 282 222 107 
5 11 221 237 539 471 550 179 143 236 197 514 567 
6 11 64 398 50 19 233 13 275 350 537 164 24 
7 11 32 413 106 263 396 134 498 213 546 158 373 
8 11 218 188 142 494 191 288 481 502 334 433 533 
9 11 519 503 384 354 126 224 360 57 255 314 461 
10 11 420 172 278 473 87 349 54 482 111 152 308 
11 11 44 76 486 112 466 136 400 432 81 371 325 
12 11 86 509 41 40 438 98 517 339 569 277 26 
13 11 19 537 233 164 406 246 444 6 333 96 89 
14 11 279 437 443 253 69 395 566 96 311 551 89 
15 11 472 571 203 235 73 348 419 29 379 99 103 
16 11 526 27 500 68 147 315 553 362 441 121 418 
17 11 400 466 371 59 112 490 486 90 167 216 44 
18 11 124 186 427 230 231 63 116 323 313 152 352 
19 11 13 233 537 164 6 246 406 444 333 64 330 
20 11 110 286 77 485 30 200 489 289 478 167 128 
21 11 351 178 518 545 148 287 312 405 559 276 551 
22 11 159 338 206 43 252 65 407 426 204 133 222 
23 11 133 516 547 204 159 206 529 22 414 426 65 
24 11 450 109 275 460 304 50 93 64 398 392 225 
25 11 72 393 83 293 469 202 550 475 236 514 471 
26 11 454 251 436 208 41 193 569 322 570 12 509 
27 11 441 16 209 362 567 143 500 179 526 147 539 
28 11 508 182 363 177 461 344 522 459 429 302 292 
29 11 348 73 425 317 361 419 203 474 119 259 262 
30 11 485 110 20 286 563 487 77 200 478 524 167 
31 11 114 356 144 451 447 449 321 156 240 421 445 
32 11 413 7 498 106 396 207 100 263 483 199 176 
33 11 492 107 234 146 366 546 561 297 125 416 134 
34 11 213 335 373 106 70 100 300 123 493 245 7 
35 11 175 527 505 409 403 534 84 151 248 355 153 
36 11 135 332 162 245 249 256 284 369 271 326 329 
37 11 289 489 535 565 423 552 199 79 128 77 207 
38 11 422 309 544 197 226 108 179 237 514 236 5 
39 11 166 542 467 194 465 440 258 380 115 341 294 
40 11 339 75 295 86 277 318 12 438 517 151 51 
41 11 12 569 509 26 436 454 251 86 208 98 438 
42 11 150 281 145 327 477 495 58 125 317 446 215 
43 11 338 252 22 159 222 206 282 65 319 407 201 
44 11 11 76 466 486 112 400 371 325 432 136 490 
45 11 507 417 88 531 92 196 220 428 54 258 434 
46 11 394 111 308 87 173 217 129 152 280 278 130 
47 11 330 564 274 299 164 233 333 358 232 537 306 
48 11 379 80 383 95 510 67 238 472 235 571 15 
49 11 127 555 243 456 316 139 104 168 528 536 404 
50 11 64 275 398 24 450 109 460 6 93 304 118 
51 11 153 75 151 295 534 318 339 409 35 40 175 
52 11 122 82 429 536 354 461 126 316 503 9 499 
53 11 285 440 428 473 482 542 417 194 465 10 380 
54 11 507 531 196 349 417 420 45 434 488 220 473 
55 11 442 155 137 250 142 377 8 60 376 188 218 
56 11 452 91 71 294 439 388 455 97 402 341 115 
57 11 255 168 126 470 9 370 384 171 519 360 224 
58 11 372 264 329 521 326 493 162 495 70 267 369 
59 11 167 90 17 216 400 371 466 112 490 375 486 
60 11 377 250 155 55 442 137 502 334 376 142 433 
61 11 324 103 99 408 169 138 419 446 150 477 145 
62 11 89 69 444 246 551 96 287 406 566 13 312 
63 11 230 352 313 173 186 427 152 296 111 394 448 
64 11 50 398 6 275 450 24 109 350 460 118 93 
65 11 426 22 159 165 43 338 464 206 303 252 23 
66 11 374 215 431 262 119 146 257 416 327 125 281 
67 11 238 211 239 540 80 95 510 202 379 383 108 
68 11 315 526 121 553 418 572 116 147 448 180 231 
69 11 551 89 62 444 14 246 96 566 279 253 342 
70 11 493 521 158 373 264 106 326 34 134 213 372 
71 11 91 294 341 56 452 455 258 402 97 388 115 
72 11 25 393 83 469 293 550 202 475 236 514 471 
73 11 348 29 419 203 425 15 317 361 571 472 474 
74 11 228 247 530 85 533 331 261 3 154 219 288 
75 11 295 339 40 51 318 153 277 151 86 438 517 
76 11 44 11 432 201 325 466 486 81 112 319 400 
77 11 286 20 110 200 478 128 289 489 552 485 423 
78 11 291 337 346 244 364 415 174 515 195 532 484 
79 11 457 490 325 37 535 565 371 207 489 289 400 
80 11 95 510 379 238 67 239 211 48 540 383 472 
81 11 480 558 432 513 525 76 407 11 44 265 204 
82 11 52 122 536 429 316 354 528 243 499 461 126 
83 11 293 25 72 157 393 105 298 469 345 401 347 
84 11 355 248 340 527 403 505 175 484 35 154 415 
85 11 3 261 533 74 232 228 288 306 481 247 530 
86 11 12 509 517 40 98 318 339 41 75 337 295 
87 11 308 394 46 111 278 349 129 280 152 172 217 
88 11 220 196 531 92 507 45 283 434 375 488 54 
89 11 444 62 246 69 96 566 551 13 19 253 406 
90 11 216 59 167 375 17 488 434 112 400 466 20 
91 11 71 294 341 56 452 455 402 97 258 115 388 
92 11 88 283 220 45 196 242 507 531 453 375 269 
93 11 304 450 392 24 275 109 225 50 529 460 192 
94 11 272 305 192 223 328 225 392 118 212 522 541 
95 11 80 510 379 238 67 239 211 48 540 472 383 
96 11 566 253 246 444 89 14 69 443 13 19 460 
97 11 402 452 115 56 91 294 71 439 341 388 455 
98 11 509 532 337 86 517 78 174 12 382 415 569 
99 11 324 103 61 408 169 138 419 150 425 446 145 
100 11 123 411 199 213 423 552 128 300 32 335 413 
101 11 195 273 515 244 378 170 364 270 359 549 302 
102 11 573 343 336 136 453 397 480 506 81 242 525 
103 11 324 61 99 408 169 138 419 150 145 425 446 
104 11 168 474 370 361 470 139 203 57 555 171 255 
105 11 157 468 345 260 298 357 347 249 332 83 271 
106 11 213 7 373 32 34 413 100 134 158 70 263 
107 11 234 561 492 546 33 214 263 134 396 435 381 
108 11 422 67 309 238 197 383 211 514 540 475 38 
109 11 24 450 460 275 304 93 50 64 266 392 398 
110 11 286 485 20 30 77 200 478 128 289 489 552 
111 11 394 46 152 87 173 278 308 313 172 352 230 
112 11 486 466 400 17 269 371 44 11 506 490 59 
113 11 389 229 387 412 141 307 543 365 156 240 205 
114 11 356 31 449 451 144 445 447 421 511 321 390 
115 11 402 97 452 294 91 56 71 341 166 467 39 
116 11 231 124 18 315 572 68 186 323 448 121 427 
117 11 226 209 544 38 179 422 309 197 27 441 108 
118 11 225 350 223 392 272 398 94 192 305 50 93 
119 11 262 431 215 374 66 317 259 257 281 161 425 
120 11 251 454 523 26 368 436 322 193 208 438 41 
121 11 418 553 526 572 147 315 180 68 448 500 310 
122 11 52 82 429 461 354 536 126 503 9 316 519 
123 11 411 128 300 100 478 552 199 200 423 335 476 
124 11 18 231 323 116 186 427 230 63 482 313 572 
125 11 495 146 327 66 33 416 492 374 215 42 281 
126 11 354 9 536 57 519 503 168 255 384 122 224 
127 11 49 316 555 243 456 168 536 104 82 139 528 
128 11 552 411 478 423 199 123 200 77 289 37 489 
129 11 280 217 308 349 487 563 87 46 524 30 511 
130 11 321 554 217 511 31 365 46 449 114 280 356 
131 11 548 559 353 60 334 433 502 276 191 377 405 
132 11 556 524 476 487 511 563 463 300 200 449 485 
133 11 23 516 547 204 159 206 22 265 198 241 407 
134 11 263 546 158 7 234 396 106 70 492 32 107 
135 11 36 332 249 284 162 369 245 256 271 326 329 
136 11 336 506 453 269 343 11 486 44 112 76 573 
137 11 55 442 155 250 376 377 142 60 530 8 188 
138 11 61 169 324 99 408 103 202 239 540 469 446 
139 11 456 203 235 555 104 571 49 15 474 127 348 
140 11 219 331 247 515 154 101 74 484 195 273 228 
141 11 307 387 113 205 412 229 347 389 156 240 345 
142 11 8 188 218 288 155 494 533 191 481 502 442 
143 11 567 362 539 5 179 500 147 221 180 310 526 
144 11 447 451 31 356 240 156 114 421 479 321 357 
145 11 150 281 425 317 42 215 119 262 327 419 431 
146 11 125 416 66 33 297 495 327 374 492 257 366 
147 11 500 553 418 526 121 180 315 572 68 310 448 
148 11 545 342 385 551 518 69 21 62 178 89 279 
149 11 189 494 191 391 433 386 458 520 334 218 353 
150 11 145 281 42 425 317 477 327 215 119 408 419 
151 11 318 153 51 35 534 75 527 175 409 517 355 
152 11 313 173 111 394 230 352 63 278 427 46 172 
153 11 51 534 151 35 318 409 75 295 175 527 339 
154 11 331 219 247 530 74 228 140 484 340 248 85 
155 11 442 55 137 142 8 250 377 188 218 502 60 
156 11 240 365 144 447 31 229 479 321 451 356 114 
157 11 105 468 271 83 293 249 332 345 260 369 298 
158 11 70 134 493 521 263 373 106 7 264 546 234 
159 11 22 206 338 252 43 407 65 204 426 133 516 
160 11 435 424 303 268 561 512 184 366 181 214 381 
161 11 259 171 370 257 361 470 262 431 119 474 374 
162 11 329 369 326 271 36 135 264 332 58 372 521 
163 11 529 541 464 165 192 392 23 93 304 426 133 
164 11 537 233 333 13 19 330 406 47 458 386 274 
165 11 464 426 65 163 181 303 529 541 23 133 22 
166 11 194 39 465 258 341 542 294 467 71 91 115 
167 11 59 90 216 17 20 375 110 489 77 286 30 
168 11 57 104 255 126 470 370 474 316 536 9 171 
169 11 408 61 103 324 99 446 138 477 150 145 267 
170 11 549 273 270 359 410 101 358 378 504 302 195 
171 11 161 470 370 259 257 361 474 431 262 119 255 
172 11 10 278 420 152 111 87 313 394 473 308 427 
173 11 352 152 313 111 394 63 230 46 554 87 427 
174 11 364 532 244 78 195 346 378 291 515 302 101 
175 11 505 527 403 35 248 84 538 183 355 409 340 
176 11 483 498 4 562 457 207 282 396 462 32 381 
177 11 363 522 508 459 344 182 560 328 28 272 223 
178 11 21 518 351 287 312 405 559 276 545 148 62 
179 11 544 5 143 197 539 309 567 362 237 221 38 
180 11 310 418 121 448 147 553 572 500 320 296 526 
181 11 303 268 184 301 497 160 165 464 426 65 424 
182 11 508 177 459 363 560 28 302 359 522 378 410 
183 11 538 403 505 175 376 527 248 35 84 409 137 
184 11 268 497 568 512 557 181 160 303 366 301 297 
185 11 467 39 115 542 166 380 402 97 194 440 294 
186 11 63 230 18 427 296 352 448 313 572 124 173 
187 11 277 438 339 295 75 40 51 12 153 86 318 
188 11 8 218 142 288 481 494 533 261 191 3 189 
189 11 149 391 494 191 218 386 433 458 481 8 188 
190 11 491 397 279 388 437 395 14 385 102 439 455 
191 11 433 334 502 494 218 8 149 189 142 188 353 
192 11 305 94 392 225 272 223 328 541 118 93 212 
193 11 322 208 570 436 499 26 251 528 569 254 454 
194 11 465 166 258 341 39 428 542 294 53 71 417 
195 11 244 364 515 101 346 291 174 378 78 273 302 
196 11 531 220 88 434 488 507 375 54 45 216 283 
197 11 309 237 236 514 108 38 5 179 544 422 475 
198 11 241 265 513 525 547 204 516 414 558 133 407 
199 11 423 552 411 128 100 535 565 123 37 289 478 
200 11 478 77 286 128 110 552 123 411 20 485 423 
201 11 319 432 325 76 252 562 44 282 11 43 338 
202 11 469 475 540 393 25 72 138 514 211 236 239 
203 11 348 571 73 15 235 29 139 472 474 104 361 
204 11 265 516 407 547 198 206 513 133 241 525 558 
205 11 347 307 298 141 345 401 468 387 260 113 357 
206 11 159 407 22 252 338 204 43 516 558 133 65 
207 11 565 535 457 483 498 413 32 199 37 176 79 
208 11 193 436 322 570 26 569 251 454 499 254 41 
209 11 117 27 441 544 179 226 143 38 362 567 197 
210 11 430 368 404 48 456 383 235 139 379 555 49 
211 11 239 238 540 67 510 80 95 202 138 475 469 
212 11 292 399 328 305 344 541 94 192 272 522 301 
213 11 34 106 373 335 100 7 300 32 70 413 123 
214 11 381 561 462 4 107 435 424 546 396 234 176 
215 11 119 431 262 374 66 281 317 257 327 259 145 
216 11 90 375 59 167 488 434 17 112 269 466 486 
217 11 280 129 487 511 563 308 524 46 130 556 87 
218 11 8 188 494 142 191 288 502 433 481 334 189 
219 11 331 140 154 247 484 74 228 530 515 291 346 
220 11 88 196 531 434 375 488 283 507 92 45 216 
221 11 471 550 5 401 237 205 298 236 347 393 539 
222 11 282 562 462 43 381 4 338 176 252 319 201 
223 11 272 94 118 225 305 192 350 328 392 522 93 
224 11 360 314 384 519 9 503 301 557 497 255 399 
225 11 392 118 223 192 94 272 305 93 350 304 275 
226 11 38 544 117 422 309 197 179 108 209 237 5 
227 11 545 148 21 97 402 351 342 385 115 439 452 
228 11 74 530 247 533 85 261 331 3 154 288 219 
229 11 113 365 389 156 543 240 141 307 387 321 412 
230 11 313 63 427 152 173 352 186 111 394 18 296 
231 11 116 124 323 18 186 68 315 427 572 230 63 
232 11 3 85 261 306 299 481 288 391 533 564 358 
233 11 164 537 19 13 330 6 47 333 274 406 564 
234 11 546 492 107 33 134 263 396 561 158 214 7 
235 11 571 472 15 203 139 73 348 379 29 456 419 
236 11 514 475 237 393 550 469 471 72 25 202 221 
237 11 236 471 514 550 221 5 475 393 72 25 197 
238 11 67 211 239 540 80 95 510 202 379 138 475 
239 11 211 540 238 67 510 138 95 80 202 61 99 
240 11 156 144 365 447 479 31 451 229 321 356 357 
241 11 198 265 547 513 525 516 204 414 266 311 133 
242 11 455 92 102 573 283 453 388 343 336 71 91 
243 11 316 127 49 528 82 536 555 52 499 122 126 
244 11 195 515 364 346 291 78 101 174 378 140 337 
245 11 496 2 256 390 463 36 445 135 284 335 421 
246 11 444 89 96 566 13 19 62 69 253 406 537 
247 11 74 228 331 530 219 140 85 154 533 3 261 
248 11 84 355 403 527 340 505 175 484 35 154 538 
249 11 284 332 135 36 271 357 256 369 421 260 479 
250 11 376 137 377 55 442 60 155 183 538 142 502 
251 11 454 26 436 208 193 41 322 569 570 12 499 
252 11 338 43 206 22 159 407 201 319 432 222 558 
253 11 566 96 443 460 14 109 246 24 437 444 50 
254 11 382 570 429 499 569 208 193 82 52 322 122 
255 11 57 470 384 168 370 126 9 171 360 224 519 
256 11 245 496 390 2 445 421 284 463 36 135 249 
257 11 374 416 66 431 161 259 262 119 171 215 297 
258 11 465 194 341 166 294 71 428 91 45 417 92 
259 11 161 171 262 361 431 119 257 370 374 215 470 
260 11 468 357 479 345 105 347 249 284 447 240 205 
261 11 3 533 288 85 481 232 188 74 228 306 530 
262 11 119 431 215 374 66 259 317 257 161 281 425 
263 11 134 546 7 396 234 158 32 106 413 107 498 
264 11 521 326 329 493 372 58 70 162 158 369 373 
265 11 198 513 204 525 241 516 547 558 407 480 81 
266 11 414 460 241 547 109 311 23 516 133 198 24 
267 11 446 477 369 58 271 162 329 372 42 326 157 
268 11 184 497 512 160 181 303 568 557 366 301 424 
269 11 506 486 112 136 336 453 466 400 11 17 44 
270 11 273 170 549 101 358 359 410 306 504 140 195 
271 11 369 332 162 135 36 249 329 326 284 157 267 
272 11 94 223 305 328 192 225 118 392 522 344 212 
273 11 270 170 549 101 359 410 358 195 378 140 306 
274 11 47 564 330 299 358 504 233 164 290 306 232 
275 11 450 24 50 109 93 304 460 64 398 225 392 
276 11 405 312 287 520 559 548 353 149 386 406 458 
277 11 438 339 40 295 75 12 86 51 318 41 187 
278 11 172 87 10 420 111 394 152 308 349 46 313 
279 11 14 437 443 395 311 190 491 69 253 397 551 
280 11 129 217 487 563 308 524 87 511 46 349 556 
281 11 145 150 42 317 215 327 425 119 262 66 431 
282 11 562 222 462 4 176 381 43 319 483 201 338 
283 11 453 92 220 269 506 88 336 136 375 196 216 
284 11 249 332 135 256 421 36 357 245 479 260 271 
285 11 53 482 440 473 428 10 172 420 417 542 380 
286 11 110 77 20 485 200 478 30 128 289 552 489 
287 11 312 405 276 518 520 62 178 559 406 548 89 
288 11 481 261 533 188 3 8 85 218 494 142 232 
289 11 489 37 423 552 77 128 535 199 565 478 411 
290 11 560 504 459 410 350 274 358 118 359 549 564 
291 11 346 515 78 244 195 364 415 337 484 174 101 
292 11 212 344 399 328 522 363 305 94 272 314 177 
293 11 83 25 72 157 393 105 469 202 298 267 138 
294 11 71 91 341 56 452 258 402 97 115 455 166 
295 11 75 339 40 51 277 318 153 151 86 438 12 
296 11 448 352 63 186 572 173 230 554 310 313 180 
297 11 366 416 512 146 33 257 568 492 66 374 125 
298 11 347 345 401 205 468 105 260 307 141 157 357 
299 11 564 47 330 232 274 306 358 3 391 333 85 
300 11 123 476 335 100 411 478 128 200 463 34 213 
301 11 399 181 314 497 360 184 224 268 303 464 212 
302 11 378 359 101 364 174 195 170 182 549 244 273 
303 11 181 160 268 424 435 184 426 65 165 497 464 
304 11 93 450 24 109 275 392 225 460 529 50 192 
305 11 94 192 272 328 223 225 392 212 541 118 93 
306 11 232 358 85 3 299 564 261 270 273 74 533 
307 11 141 205 387 113 347 229 345 412 156 240 298 
308 11 87 46 129 394 280 349 111 217 278 152 173 
309 11 197 108 38 237 422 236 514 544 179 475 5 
310 11 320 180 448 296 543 412 389 418 554 572 113 
311 11 395 437 443 241 414 266 198 14 279 525 265 
312 11 287 405 276 559 520 178 518 548 62 353 406 
313 11 152 230 173 63 427 352 111 394 172 278 186 
314 11 224 360 384 301 519 399 503 497 9 557 184 
315 11 68 121 553 526 418 572 116 147 448 180 500 
316 11 127 243 536 49 82 126 168 52 555 354 122 
317 11 425 145 281 119 215 262 431 150 29 374 66 
318 11 151 517 75 40 86 153 51 295 339 355 35 
319 11 201 432 325 252 282 562 76 43 222 338 44 
320 11 310 543 389 412 113 387 229 554 180 141 365 
321 11 365 31 130 156 240 144 114 356 229 447 449 
322 11 193 208 499 570 436 528 251 26 254 569 454 
323 11 124 231 18 116 367 482 427 186 230 285 63 
324 11 61 99 103 408 169 138 419 150 446 145 425 
325 11 79 490 201 371 319 76 400 457 44 466 11 
326 11 329 162 264 521 369 372 58 493 70 36 135 
327 11 125 495 42 66 281 146 215 374 119 145 150 
328 11 272 94 305 344 522 192 212 223 292 363 177 
329 11 326 162 264 369 372 58 521 493 271 36 70 
330 11 47 274 564 299 164 233 333 537 232 358 458 
331 11 154 219 247 140 74 530 228 484 85 533 340 
332 11 249 135 271 284 36 369 162 256 245 326 329 
333 11 458 386 164 537 406 330 391 233 47 299 13 
334 11 502 433 191 218 494 8 353 149 142 189 188 
335 11 34 300 213 100 123 476 373 463 2 106 245 
336 11 136 453 506 343 269 11 573 102 486 112 44 
337 11 78 415 291 346 517 174 244 364 532 515 484 
338 11 252 22 43 159 206 407 222 65 319 201 282 
339 11 40 295 75 277 438 86 318 51 12 151 153 
340 11 355 84 484 248 527 415 154 403 219 505 291 
341 11 294 71 91 258 465 56 166 194 452 455 115 
342 11 385 148 545 551 69 279 190 14 439 491 518 
343 11 573 102 336 136 453 480 506 81 11 269 44 
344 11 522 328 292 363 177 212 272 94 305 399 223 
345 11 347 468 298 260 205 105 357 401 307 479 157 
346 11 291 244 515 78 195 364 415 337 174 101 484 
347 11 205 345 298 401 468 307 260 141 105 357 479 
348 11 73 29 419 203 425 15 317 361 474 571 472 
349 11 308 87 129 54 420 278 280 10 217 46 394 
350 11 118 223 398 225 50 64 272 94 290 392 6 
351 11 21 178 518 559 287 312 405 545 148 276 548 
352 11 173 63 313 230 152 296 111 554 394 186 46 
353 11 548 433 520 334 149 191 502 276 189 494 559 
354 11 126 9 536 503 519 461 122 52 384 82 57 
355 11 84 340 248 527 484 505 403 175 415 35 154 
356 11 114 451 31 144 447 421 449 445 240 479 156 
357 11 260 479 468 284 447 249 421 144 240 345 451 
358 11 306 504 564 270 410 549 170 274 299 273 47 
359 11 170 549 378 302 410 273 101 270 504 195 560 
360 11 224 314 384 519 557 301 9 497 503 255 568 
361 11 474 259 161 370 29 470 171 262 119 431 348 
362 11 567 143 539 500 147 5 526 179 180 553 418 
363 11 177 522 344 508 459 182 328 28 560 292 272 
364 11 244 195 174 515 346 78 101 291 378 532 302 
365 11 156 229 240 321 144 31 113 389 447 543 356 
366 11 297 512 33 416 561 160 492 107 146 568 268 
367 11 323 231 124 380 116 18 482 285 440 53 427 
368 11 404 49 456 243 127 528 555 322 193 316 499 
369 11 271 162 329 332 326 135 36 249 264 267 284 
370 11 470 171 161 474 361 259 255 57 104 257 168 
371 11 400 490 466 17 112 486 325 79 44 59 11 
372 11 58 264 521 329 326 493 70 162 495 158 369 
373 11 34 213 106 70 158 493 335 521 7 100 134 
374 11 66 431 215 262 119 257 416 146 259 327 161 
375 11 216 434 488 90 59 167 196 220 531 17 88 
376 11 250 137 183 538 377 55 442 155 60 403 505 
377 11 60 250 55 137 155 442 376 502 142 334 8 
378 11 302 359 101 195 364 174 170 244 549 273 515 
379 11 95 510 80 472 15 48 571 239 238 235 67 
380 11 440 542 53 39 285 467 166 194 482 465 428 
381 11 462 214 4 424 222 435 282 561 562 176 107 
382 11 254 569 570 429 98 532 499 509 208 41 174 
383 11 48 80 67 95 238 108 379 510 211 239 422 
384 11 519 224 360 9 314 503 255 57 126 354 557 
385 11 342 148 545 551 190 279 439 491 14 69 388 
386 11 458 333 406 149 189 391 164 520 537 330 47 
387 11 412 141 113 307 389 229 205 543 347 365 156 
388 11 439 455 56 190 452 242 91 71 491 294 397 
389 11 113 543 229 412 387 365 141 320 307 156 240 
390 11 2 496 245 256 445 463 421 114 356 449 476 
391 11 189 149 481 494 458 232 288 386 333 3 261 
392 11 225 192 93 304 305 94 118 223 272 450 275 
393 11 72 25 469 550 83 475 202 236 293 514 471 
394 11 111 46 87 152 173 308 278 313 352 172 230 
395 11 311 437 443 241 198 414 266 279 397 14 525 
396 11 263 7 498 32 4 413 546 134 176 483 234 
397 11 491 190 102 395 573 437 311 279 343 525 241 
398 11 64 50 6 350 118 275 450 24 225 93 109 
399 11 212 292 301 541 314 328 344 224 305 360 192 
400 11 371 466 17 490 112 486 44 59 325 11 76 
401 11 298 347 205 345 307 141 468 105 260 387 550 
402 11 97 115 452 56 91 294 71 439 341 388 455 
403 11 505 175 248 527 538 84 183 35 355 340 154 
404 11 368 49 456 555 127 243 139 528 316 322 235 
405 11 276 312 287 559 520 548 353 178 406 518 149 
406 11 333 537 13 164 386 458 19 233 246 444 520 
407 11 206 252 204 558 159 338 22 432 81 265 513 
408 11 103 61 169 324 99 138 446 150 419 477 145 
409 11 534 35 175 505 153 527 183 538 403 151 51 
410 11 504 549 170 359 358 270 273 290 560 459 302 
411 11 128 552 123 199 423 478 100 200 289 300 77 
412 11 387 113 389 141 229 307 543 320 205 365 156 
413 11 32 7 498 106 207 396 100 199 483 263 565 
414 11 266 547 241 198 311 516 23 460 133 109 395 
415 11 337 78 291 346 484 340 244 515 517 355 364 
416 11 297 146 257 66 374 366 125 431 33 215 512 
417 11 428 45 507 473 54 531 88 196 220 420 465 
418 11 121 553 147 526 180 572 315 500 68 448 310 
419 11 73 425 348 29 317 103 145 99 150 408 15 
420 11 10 172 278 473 349 54 87 308 111 394 417 
421 11 451 447 356 144 445 256 479 114 284 31 390 
422 11 108 38 309 197 383 67 238 514 211 544 236 
423 11 199 552 128 411 289 37 478 535 565 489 123 
424 11 435 160 381 561 214 462 303 107 222 4 282 
425 11 317 145 150 281 419 29 119 73 215 262 348 
426 11 65 165 464 22 159 303 43 338 23 133 206 
427 11 230 313 63 18 152 186 173 352 172 111 124 
428 11 417 473 45 465 507 53 258 194 54 285 88 
429 11 52 122 254 82 499 461 382 28 570 536 354 
430 11 210 368 404 120 456 48 49 555 139 501 235 
431 11 262 119 215 374 66 257 259 161 317 281 416 
432 11 201 319 76 558 81 407 11 44 252 325 480 
433 11 334 191 502 494 218 149 8 353 189 142 188 
434 11 488 375 196 216 531 90 220 167 88 59 54 
435 11 424 160 561 214 381 462 107 303 4 222 366 
436 11 26 251 208 454 193 322 569 570 41 499 254 
437 11 395 311 443 279 14 397 253 491 241 414 266 
438 11 277 339 40 12 295 41 86 75 509 26 454 
439 11 388 56 452 455 91 97 190 71 402 385 294 
440 11 53 285 542 380 194 428 482 39 465 473 166 
441 11 27 16 209 362 567 143 500 526 179 147 553 
442 11 55 155 137 142 250 377 8 188 218 530 60 
443 11 437 311 253 395 14 279 266 414 566 96 460 
444 11 246 89 96 62 566 13 69 19 253 406 537 
445 11 390 2 496 256 114 356 421 449 463 451 245 
446 11 477 267 169 42 408 150 58 61 145 103 324 
447 11 144 451 356 421 479 31 240 114 156 357 445 
448 11 572 296 180 186 310 418 63 121 352 553 230 
449 11 114 356 31 511 445 451 144 421 390 447 2 
450 11 24 275 109 304 93 460 50 64 392 398 225 
451 11 356 447 144 421 31 114 479 445 449 240 156 
452 11 56 97 402 91 71 294 115 439 341 388 455 
453 11 336 506 136 269 283 343 573 102 486 112 11 
454 11 251 26 436 208 41 193 322 569 570 12 438 
455 11 388 242 56 439 71 91 294 452 341 190 491 
456 11 555 139 49 127 104 235 203 316 243 404 168 
457 11 207 79 483 535 565 176 325 498 37 562 490 
458 11 386 333 391 189 406 149 164 537 520 330 47 
459 11 560 177 508 290 182 363 522 410 504 223 328 
460 11 109 24 450 275 50 304 93 266 253 64 414 
461 11 503 122 354 52 9 519 28 536 126 429 384 
462 11 381 4 214 222 282 562 424 435 176 483 561 
463 11 2 390 496 476 245 445 256 300 335 132 556 
464 11 165 163 426 65 181 529 541 303 23 133 301 
465 11 194 258 166 428 341 417 45 294 71 39 542 
466 11 400 112 486 17 371 490 44 11 269 59 76 
467 11 39 166 542 115 185 194 465 402 294 341 380 
468 11 260 345 357 105 347 479 298 157 205 249 284 
469 11 202 475 393 72 25 514 236 293 540 83 138 
470 11 370 171 161 474 259 361 255 57 168 257 104 
471 11 550 221 237 236 393 72 514 5 25 401 475 
472 11 15 571 235 203 379 73 348 419 510 29 99 
473 11 10 420 417 428 54 172 285 53 507 278 45 
474 11 361 370 470 161 259 104 171 29 348 73 262 
475 11 514 469 202 236 393 72 25 540 550 237 211 
476 11 300 463 132 335 556 123 2 200 524 390 478 
477 11 446 267 42 150 169 145 58 281 408 372 327 
478 11 128 200 552 411 77 123 286 423 199 289 110 
479 11 357 447 144 260 421 451 240 156 356 468 284 
480 11 81 558 513 525 265 343 407 432 11 76 204 
481 11 288 261 3 533 188 232 494 8 85 218 391 
482 11 285 172 10 53 473 427 420 278 18 440 313 
483 11 176 498 457 4 207 562 396 32 413 282 565 
484 11 340 291 415 219 346 355 140 331 515 154 84 
485 11 30 110 286 20 77 200 563 478 487 128 289 
486 11 112 466 269 400 17 44 371 506 11 76 490 
487 11 563 524 30 556 132 485 280 110 217 129 286 
488 11 434 375 216 196 90 531 220 167 59 88 54 
489 11 289 37 77 423 535 552 128 565 20 199 478 
490 11 371 400 17 79 466 325 112 486 59 44 37 
491 11 190 397 279 437 395 102 573 311 388 14 455 
492 11 33 234 107 546 561 134 146 263 125 366 214 
493 11 70 521 264 158 326 372 373 329 58 134 34 
494 11 218 8 189 191 188 149 433 481 288 391 142 
495 11 125 327 146 58 372 42 66 492 33 521 158 
496 11 2 390 245 256 463 445 421 36 135 476 284 
497 11 184 268 568 557 181 512 301 303 160 360 314 
498 11 483 176 396 4 32 207 413 7 457 562 263 
499 11 570 528 254 322 193 208 429 82 52 382 122 
500 11 147 526 553 418 121 180 362 567 310 315 572 
501 11 523 430 120 210 368 404 251 454 436 26 322 
502 11 334 433 191 218 8 494 142 188 149 353 189 
503 11 519 9 384 354 461 224 126 314 360 292 536 
504 11 410 358 290 549 274 170 560 270 564 273 359 
505 11 175 403 527 248 35 84 538 183 355 340 409 
506 11 269 136 336 453 486 112 11 466 44 283 343 
507 11 45 531 196 88 54 417 220 92 434 488 428 
508 11 182 177 363 459 28 560 522 344 302 290 359 
509 11 98 12 86 41 569 517 337 382 532 40 78 
510 11 95 80 379 239 238 211 67 540 99 324 61 
511 11 449 524 114 556 132 31 217 356 445 487 130 
512 11 366 568 184 297 268 160 497 557 416 561 33 
513 11 525 265 198 241 204 558 480 81 516 547 407 
514 11 236 475 469 237 393 202 72 550 25 471 540 
515 11 244 195 346 291 364 101 78 140 174 484 219 
516 11 547 204 133 265 23 198 241 513 206 407 525 
517 11 86 318 337 415 98 78 509 151 355 40 340 
518 11 178 21 287 545 148 312 62 551 405 351 69 
519 11 9 384 503 224 360 314 354 126 255 461 57 
520 11 353 149 276 386 548 405 458 189 312 433 406 
521 11 493 264 70 372 158 326 58 329 373 162 134 
522 11 177 363 344 328 272 459 508 94 223 292 305 
523 11 120 187 501 430 454 251 26 368 438 436 277 
524 11 556 132 487 563 511 476 30 485 200 217 110 
525 11 513 265 198 241 480 204 558 81 516 547 407 
526 11 553 121 147 418 68 315 500 180 572 448 310 
527 11 505 175 84 248 403 35 355 340 538 183 409 
528 11 499 243 82 322 193 570 316 52 429 254 208 
529 11 163 304 93 541 23 392 464 165 133 192 109 
530 11 228 74 247 331 533 154 85 261 3 219 288 
531 11 196 220 88 507 434 488 54 45 375 216 92 
532 11 174 78 364 244 337 98 195 346 378 291 302 
533 11 261 288 3 481 85 188 228 74 530 142 8 
534 11 409 153 35 51 151 175 527 505 318 403 84 
535 11 565 37 207 199 423 289 457 489 79 552 128 
536 11 354 126 52 82 122 316 9 503 461 519 168 
537 11 164 233 13 19 333 406 330 458 386 47 6 
538 11 183 403 505 175 376 527 248 35 84 409 137 
539 11 143 567 5 362 221 500 471 412 179 147 310 
540 11 211 239 238 202 67 138 469 475 510 80 95 
541 11 163 192 305 529 212 392 399 464 94 165 272 
542 11 39 440 380 166 194 53 465 467 285 258 428 
543 11 389 113 229 320 365 412 554 387 321 156 141 
544 11 179 38 197 309 226 5 143 422 237 108 539 
545 11 148 342 385 518 551 21 69 178 62 351 89 
546 11 234 263 134 107 492 396 33 7 158 214 561 
547 11 516 198 204 241 265 133 23 513 414 525 206 
548 11 353 276 559 520 405 131 433 334 149 191 502 
549 11 170 270 273 359 410 101 358 504 378 302 306 
550 11 471 393 72 221 25 237 236 401 514 83 469 
551 11 69 62 342 89 148 14 385 279 545 444 518 
552 11 128 423 411 199 478 289 123 37 77 200 489 
553 11 121 418 526 147 315 68 180 500 572 448 310 
554 11 130 543 352 173 296 321 46 389 320 365 229 
555 11 49 456 127 139 104 316 243 168 203 235 474 
556 11 132 524 476 487 563 511 200 463 30 300 485 
557 11 568 497 184 512 268 360 224 171 314 255 297 
558 11 81 480 407 432 513 204 525 265 206 252 76 
559 11 276 548 405 312 353 131 287 520 178 433 334 
560 11 459 290 410 182 508 177 504 363 359 522 549 
561 11 107 214 435 424 160 381 33 234 492 366 462 
562 11 282 222 176 4 462 483 319 381 457 201 498 
563 11 487 524 30 556 485 132 280 110 129 217 286 
564 11 299 47 274 330 358 232 306 504 3 164 233 
565 11 535 207 37 199 423 289 457 79 489 552 128 
566 11 96 253 246 444 89 443 14 69 460 13 19 
567 11 362 143 539 500 147 5 179 180 526 418 553 
568 11 557 512 184 497 268 297 366 416 160 257 171 
569 11 570 382 41 208 254 436 509 26 193 98 322 
570 11 208 254 193 499 569 322 382 436 429 528 26 
571 11 15 472 235 203 73 348 139 419 29 379 99 
572 11 448 121 418 180 296 553 186 315 68 116 310 
573 11 102 343 336 136 453 397 480 506 81 242 525 
DEPOT_SECTION
   1
   -1
EOF
