NAME :  X-n502-kX-w100-c9.cctp
COMMENT : 	Adapted by Maziero, Usberti and Cavellucci from the Uchoa, Pecin, Pessoa, Poggi, Subramanian, and Vidal (2013)
TYPE :  CCTP
DIMENSION :    456
EDGE_WEIGHT_TYPE : 	EUC_2D	
CAPACITY : 	13
VERTICES_WITHIN_COVERAGE :  9
VERTICES_WITH_DEMAND : 	100
NODE_COORD_SECTION
1 0 0
2 159 917
3 635 200
4 278 907
5 667 141
6 119 954
7 29 448
8 590 87
9 375 990
10 511 374
11 298 957
12 107 911
13 323 766
14 161 892
15 151 912
16 438 1000
17 284 933
18 724 191
19 286 940
20 144 785
21 672 157
22 759 176
23 553 179
24 625 167
25 133 924
26 695 73
27 149 946
28 599 162
29 305 712
30 229 709
31 332 874
32 756 143
33 696 248
34 94 777
35 381 975
36 224 928
37 414 951
38 910 190
39 749 162
40 668 273
41 146 786
42 17 793
43 255 883
44 326 837
45 549 226
46 137 868
47 74 977
48 618 248
49 328 898
50 62 802
51 177 914
52 646 208
53 666 142
54 591 205
55 163 873
56 721 164
57 623 153
58 333 956
59 237 874
60 729 102
61 330 896
62 192 949
63 446 930
64 148 897
65 92 876
66 389 942
67 131 847
68 237 990
69 594 149
70 780 190
71 719 271
72 168 982
73 278 911
74 256 896
75 279 903
76 613 47
77 597 187
78 440 296
79 320 872
80 261 925
81 301 931
82 599 218
83 227 860
84 591 189
85 319 992
86 617 172
87 118 839
88 117 909
89 578 300
90 503 966
91 232 907
92 34 955
93 191 816
94 273 42
95 171 877
96 132 920
97 113 906
98 581 125
99 138 910
100 149 870
101 622 303
102 587 60
103 310 832
104 568 227
105 711 167
106 728 251
107 185 937
108 110 840
109 254 945
110 140 937
111 238 919
112 97 799
113 804 100
114 243 927
115 310 938
116 171 826
117 708 166
118 151 931
119 262 920
120 121 769
121 149 660
122 199 749
123 78 738
124 323 963
125 63 799
126 233 931
127 693 170
128 673 156
129 213 980
130 620 191
131 125 946
132 748 117
133 250 926
134 661 327
135 147 831
136 181 923
137 548 235
138 682 157
139 263 898
140 469 339
141 144 915
142 569 234
143 577 450
144 598 231
145 693 229
146 227 952
147 211 643
148 12 942
149 288 969
150 734 312
151 641 37
152 618 206
153 156 915
154 74 787
155 705 109
156 240 902
157 603 338
158 572 363
159 620 204
160 272 925
161 652 231
162 585 299
163 107 789
164 617 223
165 242 907
166 601 240
167 453 388
168 301 889
169 356 916
170 681 238
171 607 119
172 351 970
173 159 896
174 582 156
175 472 257
176 143 878
177 113 926
178 236 888
179 738 73
180 716 196
181 532 304
182 334 772
183 514 326
184 220 712
185 631 121
186 531 262
187 707 228
188 617 160
189 624 151
190 609 191
191 599 228
192 210 727
193 239 749
194 650 373
195 550 138
196 393 807
197 195 806
198 81 873
199 375 829
200 104 898
201 271 910
202 222 806
203 655 37
204 324 847
205 622 54
206 399 213
207 101 875
208 241 842
209 627 176
210 869 235
211 812 223
212 561 286
213 171 973
214 651 183
215 175 840
216 365 946
217 125 924
218 296 984
219 682 174
220 165 846
221 397 821
222 185 807
223 236 972
224 278 948
225 338 880
226 759 215
227 177 962
228 253 878
229 190 865
230 612 266
231 204 902
232 169 877
233 101 877
234 242 885
235 585 201
236 592 164
237 461 897
238 267 899
239 204 860
240 156 936
241 135 977
242 268 927
243 303 918
244 110 877
245 625 248
246 265 857
247 592 325
248 715 115
249 565 376
250 306 759
251 208 961
252 120 892
253 115 963
254 33 726
255 750 227
256 432 927
257 97 802
258 552 303
259 191 873
260 595 189
261 190 815
262 175 949
263 359 932
264 458 246
265 175 872
266 486 173
267 320 818
268 207 945
269 183 837
270 76 937
271 154 972
272 215 886
273 647 225
274 90 963
275 635 199
276 310 860
277 757 281
278 528 222
279 187 947
280 568 144
281 179 893
282 429 939
283 323 841
284 527 77
285 116 883
286 611 282
287 170 927
288 136 925
289 161 968
290 283 911
291 684 269
292 303 957
293 98 843
294 608 145
295 136 934
296 412 885
297 435 879
298 421 265
299 189 916
300 296 925
301 394 969
302 161 856
303 222 947
304 189 816
305 470 256
306 239 875
307 171 888
308 205 941
309 55 872
310 354 803
311 612 189
312 135 857
313 664 215
314 145 863
315 740 71
316 102 946
317 592 250
318 214 884
319 402 983
320 593 174
321 118 922
322 738 121
323 41 948
324 350 705
325 544 124
326 196 681
327 160 889
328 159 858
329 654 195
330 782 275
331 328 864
332 241 885
333 266 914
334 717 180
335 684 230
336 301 860
337 180 920
338 301 865
339 294 964
340 383 912
341 559 143
342 433 966
343 827 145
344 294 784
345 298 915
346 175 923
347 333 919
348 596 219
349 614 286
350 104 861
351 279 771
352 188 938
353 100 840
354 117 866
355 722 126
356 215 853
357 276 893
358 444 296
359 547 286
360 213 803
361 86 990
362 173 947
363 672 173
364 130 983
365 360 987
366 718 192
367 66 817
368 657 97
369 33 914
370 623 266
371 678 101
372 270 864
373 620 232
374 335 935
375 295 987
376 101 738
377 359 881
378 158 934
379 182 919
380 717 177
381 653 54
382 683 139
383 381 928
384 277 962
385 608 267
386 625 217
387 565 76
388 523 188
389 519 855
390 165 947
391 305 922
392 406 294
393 125 702
394 227 858
395 774 36
396 611 204
397 107 703
398 209 979
399 557 175
400 80 903
401 172 890
402 203 984
403 665 200
404 230 892
405 138 914
406 270 872
407 702 198
408 737 258
409 150 975
410 666 196
411 174 804
412 266 959
413 142 936
414 142 976
415 79 750
416 208 836
417 439 240
418 438 339
419 841 230
420 289 910
421 191 888
422 309 861
423 242 958
424 408 932
425 616 200
426 729 281
427 642 230
428 707 106
429 395 678
430 134 820
431 514 197
432 547 236
433 660 98
434 0 923
435 190 870
436 302 673
437 50 967
438 79 930
439 628 254
440 3 965
441 159 988
442 613 252
443 229 833
444 343 877
445 626 246
446 332 921
447 214 861
448 117 872
449 119 964
450 370 865
451 632 243
452 304 893
453 52 899
454 434 232
455 288 773
456 301 905
DEMAND_SECTION
2 1
3 1
4 1
5 1
6 1
7 1
8 1
9 1
10 1
11 1
12 1
13 1
14 1
15 1
16 1
17 1
18 1
19 1
20 1
21 1
22 1
23 1
24 1
25 1
26 1
27 1
28 1
29 1
30 1
31 1
32 1
33 1
34 1
35 1
36 1
37 1
38 1
39 1
40 1
41 1
42 1
43 1
44 1
45 1
46 1
47 1
48 1
49 1
50 1
51 1
52 1
53 1
54 1
55 1
56 1
57 1
58 1
59 1
60 1
61 1
62 1
63 1
64 1
65 1
66 1
67 1
68 1
69 1
70 1
71 1
72 1
73 1
74 1
75 1
76 1
77 1
78 1
79 1
80 1
81 1
82 1
83 1
84 1
85 1
86 1
87 1
88 1
89 1
90 1
91 1
92 1
93 1
94 1
95 1
96 1
97 1
98 1
99 1
100 1
101 1
COVERAGE_SECTION
2 9 153 15 141 287 118 346 378 51 240 
3 9 275 52 159 130 152 425 329 386 214 
4 9 73 75 290 201 420 238 333 357 139 
5 9 53 128 382 21 138 363 219 127 185 
6 9 131 253 449 316 295 110 241 177 413 
7 8 121 147 397 393 254 326 123 376 
8 9 102 387 171 98 76 205 185 325 280 
9 9 365 35 301 319 172 216 66 58 37 
10 9 183 249 140 167 158 181 418 258 247 
11 9 292 339 149 19 115 224 384 81 124 
12 9 97 88 200 177 321 217 252 96 400 
13 8 182 250 344 455 351 310 267 29 
14 9 327 173 307 401 64 232 95 281 55 
15 9 153 141 2 99 405 64 173 118 288 
16 9 342 319 301 37 35 282 9 63 90 
17 9 19 160 300 224 81 242 290 73 345 
18 9 366 180 334 380 407 56 105 117 127 
19 9 17 224 81 300 11 160 242 115 292 
20 9 41 120 411 430 163 135 222 112 116 
21 9 128 138 53 363 5 219 382 127 214 
22 9 39 70 32 18 226 56 334 380 366 
23 9 399 388 341 174 280 84 235 320 195 
24 9 86 209 188 57 189 130 28 311 294 
25 9 288 96 217 295 405 141 99 110 321 
26 9 371 428 155 179 433 60 315 368 381 
27 8 240 413 110 118 378 390 295 131 
28 9 236 320 69 174 188 294 86 77 24 
29 9 436 324 250 13 455 351 182 344 30 
30 6 184 192 193 326 122 147 
31 9 225 331 444 79 61 49 276 422 204 
32 9 39 132 322 22 355 56 60 248 105 
33 8 170 145 335 187 291 106 71 40 
34 9 163 112 154 257 120 415 125 376 50 
35 9 301 9 319 365 172 216 66 37 383 
36 9 126 111 114 303 91 308 146 268 133 
37 9 282 424 342 66 301 256 319 63 383 
38 8 210 419 343 211 70 113 22 226 
39 9 22 32 56 380 334 18 105 117 70 
40 7 291 170 33 439 161 335 370 
41 9 20 120 411 430 163 222 135 116 112 
42 9 50 125 367 154 254 415 34 112 257 
43 9 228 74 234 332 139 306 406 59 178 
44 8 283 204 103 267 331 276 422 336 
45 6 137 432 104 278 142 186 
46 9 314 312 100 176 354 448 67 328 55 
47 9 361 274 437 270 316 253 323 92 438 
48 9 442 245 445 439 451 373 166 230 370 
49 9 61 225 347 446 31 452 444 79 168 
50 9 125 367 154 112 257 34 42 163 353 
51 9 337 379 346 136 299 287 2 153 281 
52 9 3 275 329 273 313 403 427 386 410 
53 9 5 21 128 382 138 363 219 127 185 
54 9 235 82 348 84 260 77 396 190 191 
55 9 232 95 265 100 327 328 302 307 14 
56 9 105 117 380 334 18 39 366 127 180 
57 9 189 188 24 294 86 209 28 69 185 
58 9 124 374 172 115 292 216 11 263 446 
59 9 306 234 332 178 228 83 394 404 43 
60 9 248 322 428 132 155 355 179 315 26 
61 9 49 225 31 347 444 446 79 452 168 
62 9 279 352 107 308 268 262 362 227 251 
63 9 256 282 237 37 342 424 297 296 66 
64 9 173 14 327 15 99 141 153 176 405 
65 9 207 233 198 244 350 200 285 448 354 
66 9 383 424 216 37 301 340 263 35 282 
67 9 312 87 314 46 108 135 354 430 100 
68 8 223 129 398 423 402 146 251 412 
69 9 28 174 236 294 188 320 280 98 57 
70 9 22 226 39 211 255 32 18 366 56 
71 9 426 106 408 33 291 277 150 187 145 
72 8 213 441 289 271 409 227 414 241 
73 9 4 290 201 75 420 333 160 238 119 
74 9 139 238 43 156 165 228 234 332 357 
75 9 4 73 290 357 201 420 238 139 333 
76 9 205 102 151 381 203 8 387 368 433 
77 9 260 84 190 320 311 235 54 396 130 
78 9 358 392 298 418 175 305 140 264 417 
79 9 331 31 276 422 225 338 336 444 168 
80 9 119 242 133 160 333 114 201 109 73 
81 9 300 391 115 243 345 17 19 420 11 
82 9 348 191 144 54 396 164 152 166 235 
83 9 394 447 356 59 306 208 239 318 443 
84 9 260 77 235 320 54 190 311 236 396 
85 9 218 375 124 292 339 58 149 172 11 
86 9 24 209 188 311 130 57 28 190 189 
87 9 108 67 353 293 312 430 350 354 135 
88 9 97 12 321 177 200 217 252 96 99 
89 9 162 212 258 247 359 286 349 101 157 
90 9 63 342 16 282 237 256 37 424 319 
91 9 156 165 111 404 178 36 114 126 234 
92 9 323 437 148 440 369 47 270 434 438 
93 9 261 304 197 222 411 116 269 360 416 
94 3 206 454 266 
95 9 232 265 55 307 401 327 14 281 259 
96 9 25 288 217 405 99 141 321 295 88 
97 9 88 12 200 252 321 177 217 285 96 
98 9 280 69 171 341 174 195 294 325 8 
99 9 405 141 96 15 25 288 64 153 217 
100 9 314 176 46 55 328 302 312 232 327 
101 9 349 286 162 247 370 230 385 157 89 
102 9 8 387 76 205 151 171 284 98 381 
103 8 283 44 267 204 276 336 422 338 
104 6 142 45 137 432 348 144 
105 9 117 56 380 334 127 366 18 180 219 
106 9 408 71 426 187 33 255 145 277 226 
107 8 352 279 62 136 262 362 346 287 
108 9 87 353 293 67 350 354 312 430 448 
109 8 412 423 133 80 114 242 224 126 
110 9 413 295 27 118 288 25 240 131 378 
111 9 114 91 126 165 133 36 156 80 119 
112 9 257 163 34 154 125 50 367 120 353 
113 9 343 132 32 322 315 179 395 60 39 
114 9 133 111 126 80 36 119 165 109 91 
115 9 81 391 300 292 243 11 19 374 17 
116 9 215 269 220 304 93 261 411 222 135 
117 9 105 56 380 127 334 219 138 366 18 
118 9 240 378 413 110 27 295 2 288 141 
119 9 80 333 242 160 133 201 73 114 4 
120 9 163 20 34 41 376 112 257 415 154 
121 8 393 326 397 147 184 192 376 30 
122 6 192 193 184 30 360 197 
123 9 415 376 34 397 254 154 120 163 393 
124 9 58 292 11 115 85 172 339 374 218 
125 9 50 154 367 112 257 34 163 42 415 
126 8 36 114 111 133 303 146 91 109 
127 9 219 117 138 105 363 128 21 380 334 
128 9 21 138 5 53 363 219 382 127 214 
129 9 398 402 251 223 68 146 303 268 423 
130 9 311 425 190 159 152 396 3 209 275 
131 9 6 295 110 449 253 413 217 25 177 
132 9 322 60 32 355 248 428 155 39 179 
133 9 114 80 119 111 126 242 109 333 165 
134 9 101 194 40 157 291 349 286 247 370 
135 9 430 67 220 116 215 302 312 87 328 
136 8 337 379 346 51 299 287 107 352 
137 6 432 45 142 104 278 186 
138 9 128 21 127 219 382 363 5 53 117 
139 9 238 74 201 357 333 4 43 75 73 
140 9 418 183 358 78 167 10 181 392 175 
141 9 405 15 99 153 96 288 25 2 118 
142 5 104 137 45 432 317 
143 7 249 158 10 194 157 247 167 
144 7 191 166 348 82 317 164 373 
145 6 335 187 170 33 313 407 
146 8 303 423 251 268 126 223 36 308 
147 8 326 121 30 184 192 436 393 122 
148 7 434 440 92 323 369 437 453 
149 9 339 384 11 218 292 375 224 412 19 
150 7 426 277 71 408 106 330 291 
151 9 203 381 205 76 102 368 433 26 8 
152 9 159 425 396 386 130 164 190 3 275 
153 9 2 15 141 118 287 405 99 173 378 
154 9 125 50 34 112 257 367 163 415 123 
155 9 428 248 355 60 371 322 26 382 132 
156 9 165 91 404 178 74 111 234 332 139 
157 9 247 101 158 162 89 349 249 286 134 
158 9 249 157 247 10 89 258 162 183 181 
159 9 152 425 396 130 386 3 275 190 311 
160 9 242 80 119 333 17 73 201 290 4 
161 6 273 427 313 451 52 170 
162 9 89 212 247 286 349 258 101 385 359 
163 9 112 257 34 120 154 20 41 430 125 
164 9 373 386 152 82 159 191 396 144 348 
165 9 156 91 111 74 404 114 178 133 234 
166 7 144 191 317 442 48 373 82 
167 9 418 140 10 183 358 78 392 249 181 
168 9 452 456 338 420 79 357 75 345 49 
169 9 263 347 446 340 374 383 216 49 61 
170 6 335 145 33 187 313 161 
171 9 185 294 98 69 8 189 57 188 28 
172 9 365 58 216 124 35 9 374 85 263 
173 9 14 327 64 307 401 15 153 281 2 
174 9 236 69 28 280 320 341 294 98 399 
175 9 305 264 417 454 358 78 298 186 278 
176 9 100 46 314 64 327 55 312 14 173 
177 9 321 217 12 88 25 96 97 131 288 
178 9 332 234 404 306 59 156 91 43 165 
179 9 315 60 26 132 428 248 322 155 395 
180 9 366 18 407 334 380 105 117 56 187 
181 8 258 359 183 212 186 89 162 247 
182 8 13 250 310 344 455 267 351 44 
183 9 181 258 140 10 359 212 186 89 158 
184 5 30 192 326 193 122 
185 9 171 189 57 294 368 433 5 53 188 
186 8 359 432 137 212 45 278 181 258 
187 7 145 33 335 170 407 106 180 
188 9 57 24 189 86 294 28 209 69 236 
189 9 57 188 24 294 86 209 28 69 185 
190 9 311 130 425 77 396 260 152 159 84 
191 7 144 348 82 166 164 373 317 
192 5 184 122 30 193 326 
193 5 192 122 30 184 351 
194 6 134 157 101 247 158 249 
195 9 341 325 280 98 174 399 23 69 236 
196 8 221 199 310 450 182 44 267 283 
197 9 222 261 93 304 360 411 202 116 269 
198 9 65 207 233 309 350 244 400 200 293 
199 9 221 196 310 450 44 283 204 377 267 
200 9 97 12 88 252 285 233 244 207 65 
201 9 333 73 4 75 238 290 119 139 160 
202 6 360 197 443 93 261 416 
203 9 151 381 205 76 26 368 433 371 102 
204 8 283 44 331 276 103 422 79 336 
205 9 76 151 381 102 203 8 368 433 387 
206 8 454 417 298 264 392 305 175 78 
207 9 233 65 244 350 448 285 354 198 200 
208 6 443 394 83 246 356 59 
209 9 24 86 130 188 311 57 190 275 3 
210 8 419 211 38 330 343 70 226 255 
211 8 419 70 226 210 330 255 22 343 
212 7 359 258 89 162 181 186 317 
213 9 72 289 227 271 441 409 262 362 390 
214 8 329 410 403 3 275 363 52 209 
215 8 269 220 116 302 328 304 93 135 
216 9 263 66 383 172 169 374 35 58 301 
217 9 321 25 96 288 177 295 405 88 99 
218 9 375 149 339 85 11 292 384 124 412 
219 8 363 127 138 21 128 117 410 105 
220 9 302 215 328 269 116 135 314 55 265 
221 8 196 199 310 450 296 297 377 44 
222 9 261 197 304 93 411 116 360 269 215 
223 8 423 68 146 129 398 303 251 109 
224 9 19 384 17 412 11 149 242 339 109 
225 9 444 31 61 331 79 49 377 276 422 
226 9 255 70 22 18 180 366 106 408 39 
227 8 213 262 362 289 279 390 62 72 
228 9 43 234 306 332 59 74 406 178 139 
229 7 435 259 239 265 95 421 232 
230 9 385 370 442 286 48 349 439 245 445 
231 8 272 421 299 318 281 91 379 404 
232 9 95 55 265 307 401 327 14 281 100 
233 9 207 65 244 285 350 448 354 198 200 
234 9 332 178 306 59 43 228 404 156 74 
235 9 54 84 260 77 348 82 190 396 320 
236 9 28 320 174 69 77 84 188 260 294 
237 9 297 63 256 296 282 424 37 389 342 
238 9 139 74 357 201 75 4 333 73 43 
239 7 447 356 229 435 259 83 394 
240 8 378 118 27 390 413 110 287 2 
241 8 414 364 409 271 449 253 441 6 
242 9 160 80 119 333 17 201 133 73 4 
243 9 391 345 300 81 456 420 115 290 17 
244 9 285 207 233 448 354 350 65 252 200 
245 8 445 48 439 451 442 373 370 230 
246 6 372 406 228 43 208 306 
247 9 157 162 89 101 158 349 258 286 212 
248 9 155 428 355 60 322 132 371 382 26 
249 9 158 10 157 247 183 258 143 89 181 
250 7 13 455 344 351 182 29 267 
251 9 268 398 62 129 303 308 146 402 279 
252 9 285 97 88 200 244 448 12 233 99 
253 8 449 6 131 316 241 274 364 414 
254 9 123 415 42 376 154 397 125 34 50 
255 9 226 106 408 187 18 180 366 70 22 
256 9 282 63 424 37 342 237 66 296 297 
257 9 112 163 34 154 125 367 50 353 108 
258 8 359 212 181 89 162 183 186 247 
259 7 435 229 421 265 239 95 232 
260 9 77 84 190 320 54 235 311 396 425 
261 9 93 304 222 197 411 116 269 360 416 
262 8 362 390 279 227 107 62 352 240 
263 9 216 169 383 374 347 446 340 66 58 
264 9 305 175 417 454 298 358 78 206 392 
265 9 95 232 55 435 259 307 229 401 281 
266 7 431 388 278 23 399 195 325 
267 7 103 44 283 204 310 276 344 
268 9 308 303 62 251 279 352 146 107 36 
269 8 215 116 220 93 304 261 416 229 
270 9 438 316 274 400 323 177 12 47 437 
271 8 409 289 414 72 213 441 241 227 
272 8 318 404 231 178 421 59 447 306 
273 6 427 161 52 313 386 451 
274 9 47 316 253 361 449 6 270 438 131 
275 9 3 52 159 130 152 329 425 386 214 
276 8 422 336 338 79 331 204 283 31 
277 8 330 426 408 71 150 106 255 226 
278 8 45 137 432 431 388 104 186 142 
279 8 62 352 107 262 362 227 308 268 
280 9 341 174 195 98 69 236 325 399 28 
281 9 401 307 421 14 95 232 327 173 51 
282 9 256 37 63 424 342 66 301 383 319 
283 8 44 204 103 267 276 331 422 336 
284 5 387 325 102 8 195 
285 9 244 252 448 233 207 354 200 97 65 
286 9 349 385 230 370 101 442 162 439 48 
287 8 346 136 337 378 379 2 51 240 
288 9 25 96 295 217 405 110 141 413 99 
289 9 271 213 409 72 227 441 390 414 262 
290 9 73 4 420 75 201 345 333 160 300 
291 7 40 33 170 71 335 145 187 
292 9 11 339 149 115 124 19 81 384 224 
293 9 353 108 350 87 354 207 67 65 198 
294 9 69 57 188 189 28 236 171 24 86 
295 9 110 413 288 25 96 118 217 131 27 
296 9 297 340 256 424 450 237 377 383 63 
297 9 296 237 256 63 424 282 340 450 221 
298 9 417 392 454 78 358 264 305 175 206 
299 9 379 337 136 51 346 107 231 287 352 
300 9 81 391 243 345 17 420 19 115 290 
301 9 35 319 37 66 9 216 365 342 424 
302 9 328 220 55 314 100 215 265 232 95 
303 8 146 268 308 36 126 251 423 114 
304 9 261 93 222 197 411 116 269 360 215 
305 9 175 264 417 454 358 78 298 186 278 
306 9 59 234 332 178 228 43 83 404 394 
307 9 401 281 14 95 232 327 173 265 55 
308 9 268 62 352 303 279 107 251 36 146 
309 6 198 453 65 400 207 233 
310 9 199 182 267 196 44 221 13 283 103 
311 9 190 130 425 77 396 159 260 86 152 
312 9 46 67 314 100 354 176 448 328 87 
313 6 403 52 410 161 273 329 
314 9 100 46 312 176 328 302 55 67 220 
315 9 179 60 26 132 428 395 322 248 155 
316 9 6 253 274 131 177 449 270 438 321 
317 6 166 144 442 191 385 48 
318 8 272 404 231 178 421 447 59 259 
319 9 301 35 9 37 342 16 365 66 424 
320 9 236 28 77 84 260 174 190 86 311 
321 9 177 217 88 96 25 12 97 288 295 
322 9 132 355 60 248 32 428 155 39 56 
323 9 92 437 148 369 270 438 440 47 434 
324 9 29 429 436 13 182 250 455 344 351 
325 7 195 341 280 98 174 284 387 
326 8 184 147 30 192 121 122 393 193 
327 9 14 173 307 401 64 232 55 95 281 
328 9 302 220 314 55 100 232 265 95 46 
329 8 214 403 410 52 275 3 313 363 
330 8 277 408 426 255 106 211 150 71 
331 9 31 79 204 276 225 422 444 283 44 
332 9 234 178 306 59 404 43 228 156 74 
333 9 201 119 73 80 160 242 4 238 139 
334 9 380 366 18 105 56 180 117 407 127 
335 6 145 170 33 187 313 161 
336 6 338 422 276 79 204 331 
337 9 379 136 346 51 299 287 107 352 2 
338 7 336 422 276 79 168 331 452 
339 9 11 149 292 384 218 224 375 19 412 
340 9 383 169 66 263 424 216 377 296 450 
341 9 280 195 325 174 98 399 23 69 236 
342 9 37 282 16 319 63 256 301 424 66 
343 9 113 70 32 22 211 39 132 419 322 
344 7 455 351 250 13 182 267 103 
345 9 243 300 391 420 456 81 290 73 4 
346 9 136 287 337 379 51 299 2 107 352 
347 9 446 374 49 61 169 391 263 115 243 
348 9 82 191 144 54 164 235 396 166 152 
349 9 286 101 230 385 370 162 442 439 48 
350 9 207 354 233 244 448 65 293 353 108 
351 5 455 344 250 13 193 
352 8 107 279 62 136 262 308 362 268 
353 9 293 108 87 350 354 67 207 448 65 
354 9 448 244 350 285 207 233 46 312 67 
355 9 248 322 155 60 428 132 32 56 382 
356 8 447 239 394 83 416 443 208 229 
357 9 75 238 4 139 73 201 290 74 420 
358 9 78 392 298 418 175 305 140 264 417 
359 8 212 258 181 186 89 162 432 137 
360 7 202 197 93 261 304 222 416 
361 8 47 274 253 449 437 364 316 6 
362 8 262 390 279 107 227 352 62 240 
363 8 219 21 128 138 127 214 410 329 
364 8 241 414 409 449 253 271 441 6 
365 9 9 172 35 301 58 85 216 319 124 
366 9 180 18 334 380 407 105 56 117 127 
367 9 50 125 154 257 112 293 353 34 108 
368 9 433 371 185 381 5 26 53 155 382 
369 6 453 434 148 323 92 309 
370 9 230 439 385 442 245 48 286 445 349 
371 9 433 368 155 428 26 382 248 5 53 
372 5 406 246 228 43 357 
373 9 164 445 48 386 451 245 166 191 442 
374 9 446 347 58 263 115 169 124 216 391 
375 9 218 149 339 85 11 292 384 124 412 
376 8 123 415 397 120 34 393 163 154 
377 9 444 450 225 31 61 49 169 331 340 
378 8 240 118 287 27 390 413 2 110 
379 9 337 136 51 299 346 287 107 352 2 
380 9 334 105 56 117 366 18 180 127 407 
381 9 203 151 205 76 368 433 26 371 102 
382 9 5 53 138 128 21 127 219 363 117 
383 9 66 340 263 216 424 169 37 301 35 
384 9 412 149 224 339 11 19 292 109 218 
385 9 230 286 370 442 349 48 317 439 245 
386 9 164 152 159 373 396 425 3 275 427 
387 8 8 102 284 98 325 76 171 205 
388 9 431 23 278 399 266 45 137 432 195 
389 8 237 297 63 296 90 256 282 221 
390 8 362 262 240 378 27 227 118 287 
391 9 243 300 81 345 115 456 420 17 290 
392 9 298 78 358 418 417 454 264 305 175 
393 8 397 376 121 123 415 120 326 34 
394 9 83 356 447 59 208 306 239 443 318 
395 9 315 179 113 60 132 26 322 428 248 
396 9 425 152 159 190 311 130 82 386 54 
397 8 393 376 123 415 121 120 34 254 
398 9 129 402 251 223 68 146 62 268 303 
399 9 23 174 341 280 320 388 84 236 195 
400 9 200 438 12 453 65 198 97 233 270 
401 9 307 281 14 327 95 232 173 265 55 
402 9 398 129 251 213 227 68 72 223 62 
403 5 410 329 313 52 214 
404 9 178 332 156 234 91 272 318 59 165 
405 9 99 141 96 25 288 15 217 153 64 
406 8 372 246 228 43 357 139 238 74 
407 6 180 366 18 334 380 127 
408 9 106 71 426 277 255 33 187 226 330 
409 8 271 414 289 241 441 72 213 364 
410 6 403 329 313 214 52 363 
411 9 222 261 304 93 197 116 41 269 20 
412 8 384 224 109 149 423 19 339 11 
413 9 110 295 118 27 288 240 25 378 96 
414 8 241 409 271 364 289 441 449 72 
415 9 123 376 34 154 120 163 112 125 254 
416 8 356 443 239 269 93 447 261 304 
417 9 454 264 298 305 175 206 78 358 392 
418 9 140 78 358 167 392 298 183 10 175 
419 8 210 211 70 330 38 226 343 255 
420 9 290 345 4 73 75 456 243 300 201 
421 8 281 259 435 231 401 307 95 229 
422 8 276 336 338 79 331 204 283 31 
423 8 223 146 109 303 412 126 114 68 
424 9 37 66 282 256 383 340 63 301 342 
425 9 152 159 396 130 190 311 3 275 386 
426 9 71 408 277 106 150 33 291 330 187 
427 7 273 161 451 386 52 373 445 
428 9 155 248 60 355 371 322 26 382 132 
429 8 324 436 29 182 13 250 196 310 
430 9 135 87 67 108 20 41 116 312 353 
431 9 388 278 266 23 45 399 137 432 104 
432 6 137 45 142 104 278 186 
433 9 368 371 185 26 5 53 381 155 382 
434 6 148 369 440 92 323 453 
435 7 259 229 265 239 421 95 232 
436 9 29 324 30 250 184 429 13 147 193 
437 9 92 323 47 270 274 361 148 438 440 
438 9 270 400 316 12 177 274 321 200 453 
439 8 245 445 48 451 370 442 230 373 
440 7 148 92 323 434 437 369 47 
441 8 72 409 271 213 289 414 241 364 
442 9 48 245 230 445 439 385 166 370 317 
443 6 208 416 356 394 83 202 
444 9 225 31 377 331 61 79 49 450 204 
445 8 245 451 48 439 442 373 370 427 
446 9 347 374 49 61 169 391 115 243 263 
447 7 356 239 83 394 318 229 272 
448 9 354 244 285 207 233 350 46 252 312 
449 8 253 6 131 241 364 316 414 274 
450 9 377 444 225 199 31 331 296 204 340 
451 7 445 245 439 48 373 427 442 
452 9 168 456 345 420 49 243 61 79 75 
453 7 369 309 400 198 438 270 65 
454 8 417 264 298 206 305 175 78 358 
455 5 351 344 250 13 182 
456 9 345 452 243 420 168 391 290 300 75 
DEPOT_SECTION
   1
   -1
EOF
