NAME :  X-n586-kX-w58-c9.cctp
COMMENT : 	Adapted by Maziero, Usberti and Cavellucci from the Uchoa, Pecin, Pessoa, Poggi, Subramanian, and Vidal (2013)
TYPE :  CCTP
DIMENSION :    320
EDGE_WEIGHT_TYPE : 	EUC_2D	
CAPACITY : 	28
VERTICES_WITHIN_COVERAGE :  9
VERTICES_WITH_DEMAND : 	58
NODE_COORD_SECTION
1 18 761
2 835 397
3 299 16
4 31 168
5 142 257
6 242 984
7 612 357
8 663 812
9 105 188
10 487 636
11 993 703
12 672 148
13 506 259
14 953 706
15 888 203
16 107 534
17 772 692
18 475 182
19 828 775
20 719 220
21 655 722
22 844 197
23 918 600
24 460 844
25 739 102
26 301 523
27 341 627
28 989 936
29 935 602
30 44 72
31 861 67
32 163 416
33 981 503
34 722 397
35 317 903
36 547 95
37 944 106
38 935 192
39 128 376
40 908 176
41 720 226
42 738 793
43 791 498
44 712 751
45 530 693
46 141 673
47 380 544
48 634 301
49 427 853
50 606 949
51 47 557
52 48 202
53 791 67
54 546 876
55 526 842
56 535 216
57 828 214
58 829 352
59 623 473
60 74 187
61 726 789
62 51 597
63 894 395
64 301 893
65 978 261
66 709 153
67 391 153
68 876 370
69 846 725
70 604 107
71 117 709
72 507 89
73 476 204
74 948 710
75 358 66
76 5 468
77 459 43
78 555 414
79 558 360
80 641 424
81 25 205
82 852 45
83 501 234
84 817 114
85 651 941
86 817 643
87 209 663
88 542 691
89 296 10
90 148 641
91 9 553
92 411 59
93 382 800
94 824 612
95 608 727
96 481 574
97 350 608
98 396 536
99 36 459
100 10 569
101 813 10
102 569 627
103 692 467
104 738 487
105 508 327
106 983 244
107 637 109
108 177 207
109 582 957
110 932 452
111 60 66
112 252 267
113 944 435
114 338 688
115 900 168
116 583 871
117 852 59
118 921 72
119 845 534
120 387 253
121 812 354
122 5 404
123 590 575
124 930 128
125 832 466
126 548 976
127 32 531
128 966 58
129 31 40
130 162 539
131 621 425
132 802 495
133 385 493
134 769 329
135 921 15
136 64 106
137 854 678
138 943 122
139 103 285
140 398 212
141 335 459
142 43 108
143 400 255
144 822 749
145 783 760
146 218 360
147 321 463
148 403 172
149 32 134
150 218 490
151 44 456
152 430 570
153 509 572
154 639 505
155 984 435
156 479 341
157 709 700
158 557 130
159 270 964
160 482 320
161 836 272
162 509 379
163 819 754
164 648 809
165 640 892
166 838 79
167 552 232
168 831 306
169 503 726
170 571 837
171 162 504
172 458 845
173 458 127
174 929 786
175 579 971
176 662 173
177 320 524
178 894 787
179 554 560
180 581 840
181 693 830
182 355 662
183 24 276
184 844 433
185 877 594
186 556 739
187 503 462
188 264 505
189 782 143
190 919 703
191 958 559
192 90 181
193 794 485
194 267 35
195 322 883
196 376 52
197 541 423
198 36 607
199 101 687
200 657 754
201 695 294
202 174 686
203 128 560
204 926 32
205 540 223
206 334 635
207 125 661
208 129 401
209 725 544
210 200 281
211 822 540
212 216 59
213 887 520
214 714 539
215 780 97
216 464 94
217 785 333
218 677 811
219 595 733
220 735 816
221 37 189
222 332 670
223 16 13
224 17 419
225 986 893
226 603 900
227 495 820
228 452 820
229 846 825
230 625 965
231 267 929
232 456 850
233 437 848
234 322 852
235 270 978
236 954 920
237 389 874
238 478 868
239 563 823
240 541 906
241 34 189
242 237 386
243 520 908
244 539 823
245 55 50
246 498 853
247 121 190
248 744 860
249 44 63
250 43 203
251 115 299
252 5 191
253 15 221
254 214 965
255 677 912
256 471 869
257 188 671
258 312 929
259 976 943
260 51 48
261 183 409
262 27 179
263 455 869
264 463 837
265 435 847
266 353 670
267 128 303
268 59 408
269 319 870
270 473 816
271 138 202
272 406 825
273 181 611
274 7 136
275 127 532
276 408 873
277 94 257
278 7 126
279 432 821
280 128 179
281 322 943
282 153 220
283 321 964
284 105 265
285 32 133
286 21 156
287 47 175
288 34 140
289 215 989
290 444 821
291 963 961
292 102 310
293 126 686
294 513 812
295 96 713
296 437 876
297 996 910
298 578 807
299 899 754
300 203 473
301 258 899
302 127 344
303 437 847
304 465 817
305 102 191
306 84 185
307 377 879
308 660 782
309 35 216
310 74 67
311 110 175
312 617 832
313 617 787
314 501 842
315 59 73
316 586 955
317 474 852
318 131 189
319 422 862
320 81 228
DEMAND_SECTION
2 9
3 7
4 6
5 5
6 7
7 10
8 9
9 8
10 9
11 8
12 6
13 6
14 5
15 10
16 9
17 7
18 9
19 7
20 9
21 6
22 5
23 7
24 10
25 7
26 6
27 9
28 9
29 10
30 7
31 7
32 9
33 10
34 5
35 6
36 8
37 10
38 8
39 5
40 8
41 10
42 8
43 10
44 7
45 5
46 8
47 9
48 7
49 10
50 5
51 6
52 10
53 9
54 9
55 10
56 6
57 8
58 10
59 9
COVERAGE_SECTION
2 9 184 58 68 121 63 125 217 168 134 
3 6 89 194 75 196 212 92 
4 9 262 286 287 241 221 288 149 252 285 
5 9 284 282 139 267 277 251 271 108 210 
6 5 289 235 159 254 231 
7 9 79 48 131 80 78 197 201 162 105 
8 9 218 164 308 181 312 313 200 61 220 
9 8 305 311 247 192 306 280 318 60 
10 7 96 153 45 88 102 152 169 
11 9 14 74 190 174 299 29 23 178 137 
12 9 176 66 107 70 25 20 41 189 158 
13 9 83 205 56 167 73 160 105 18 156 
14 9 74 190 11 299 174 178 137 29 69 
15 9 40 115 22 38 57 124 161 138 106 
16 8 275 203 130 171 51 127 62 91 
17 9 157 86 145 144 163 69 137 44 94 
18 9 73 83 173 56 148 205 13 140 67 
19 7 163 144 145 69 229 178 299 
20 9 41 66 176 201 12 189 57 48 25 
21 9 200 95 157 308 219 44 313 164 8 
22 9 57 15 115 40 161 189 84 38 124 
23 9 29 185 191 213 94 119 137 190 86 
24 9 172 232 264 317 233 303 228 263 265 
25 9 215 66 189 53 84 12 107 166 176 
26 8 177 188 147 141 47 133 150 98 
27 7 206 97 182 222 266 114 47 
28 5 259 297 291 236 225 
29 9 23 191 185 213 190 14 33 74 94 
30 9 249 315 111 245 260 310 129 142 136 
31 9 117 82 166 118 84 53 204 101 135 
32 7 261 208 39 300 146 242 302 
33 9 191 155 110 113 213 29 23 185 63 
34 9 103 134 80 217 104 121 131 201 2 
35 9 64 195 258 269 281 234 231 301 283 
36 9 158 72 70 216 107 173 77 18 56 
37 9 138 124 118 128 115 204 40 38 31 
38 9 40 115 15 124 138 106 65 37 22 
39 9 208 302 32 261 292 267 268 251 146 
40 9 115 38 15 124 138 22 37 57 106 
41 9 20 201 66 176 12 189 57 48 134 
42 9 61 220 44 145 181 218 248 8 308 
43 9 132 193 125 211 104 119 209 184 214 
44 9 61 42 157 200 308 21 218 220 145 
45 7 88 169 186 10 219 102 95 
46 9 207 293 90 202 199 71 257 295 87 
47 9 98 133 152 177 97 26 27 141 147 
48 9 7 201 79 167 41 20 205 80 131 
49 9 265 319 233 303 296 276 232 172 263 
50 9 316 109 230 175 85 226 126 165 240 
51 9 127 91 100 62 198 16 203 275 76 
52 8 250 221 241 309 81 287 60 262 
53 9 215 166 84 101 117 25 82 31 189 
54 7 240 116 55 243 170 180 244 
55 8 244 314 246 294 227 54 239 170 
56 9 205 167 83 13 73 18 158 105 160 
57 9 22 161 15 115 189 40 168 84 20 
58 9 121 2 168 217 68 134 63 161 184 
59 9 154 131 80 103 78 197 123 179 214 
60 6 306 192 305 52 287 9 
61 9 42 220 44 181 218 145 308 8 248 
62 8 198 51 100 91 127 16 203 207 
63 7 68 2 184 113 110 58 121 
64 7 35 195 269 258 301 234 231 
65 6 106 38 15 40 115 124 
66 9 12 176 25 20 41 189 107 215 70 
67 9 148 140 173 18 75 216 92 73 120 
68 7 63 2 58 121 184 168 113 
69 9 144 163 137 19 299 145 190 178 17 
70 9 107 158 36 12 176 72 66 56 205 
71 5 295 293 199 46 207 
72 9 36 216 173 158 77 18 70 92 73 
73 9 18 83 56 13 205 140 173 148 167 
74 9 14 190 11 299 174 178 137 69 29 
75 8 196 92 3 89 67 194 77 216 
76 9 99 151 224 122 127 268 91 51 100 
77 9 92 216 72 196 173 36 75 67 158 
78 8 197 79 162 131 187 7 80 59 
79 9 162 7 78 105 197 156 160 131 48 
80 9 131 59 103 7 154 34 78 197 79 
81 9 309 241 250 253 221 52 252 262 4 
82 9 117 31 166 101 53 118 135 204 84 
83 9 13 56 73 205 167 18 160 105 143 
84 9 166 215 189 53 31 117 82 25 22 
85 8 230 255 50 165 226 316 109 175 
86 9 94 137 17 185 69 211 144 23 163 
87 5 257 202 273 90 46 
88 7 45 186 169 219 102 95 10 
89 6 3 194 75 196 212 92 
90 9 207 46 273 257 293 202 87 199 71 
91 9 100 127 51 198 62 76 99 16 151 
92 9 196 77 75 216 173 67 72 148 3 
93 4 272 279 290 49 
94 9 86 185 137 211 119 17 23 29 213 
95 8 219 21 186 200 313 88 308 45 
96 8 153 152 10 179 98 102 47 123 
97 8 27 206 182 266 222 47 114 98 
98 8 47 133 152 177 97 96 26 141 
99 9 151 76 224 268 122 127 91 51 16 
100 8 91 51 127 198 62 76 16 99 
101 9 82 53 117 166 31 215 84 135 204 
102 9 123 88 179 45 153 10 96 95 219 
103 9 104 154 80 59 214 34 131 209 43 
104 9 103 43 193 214 209 132 34 125 211 
105 8 160 156 162 79 13 83 78 197 
106 6 65 38 40 15 115 124 
107 9 70 12 176 158 66 36 25 72 20 
108 6 282 271 318 280 247 5 
109 8 316 175 50 126 230 226 240 85 
110 8 113 155 63 33 213 184 68 125 
111 6 315 310 249 30 245 260 
112 5 210 108 146 5 282 
113 7 110 155 63 33 68 184 213 
114 5 222 266 182 206 27 
115 9 40 15 38 124 22 138 37 57 118 
116 9 180 226 170 54 239 312 240 165 55 
117 9 31 82 166 53 101 84 118 204 215 
118 9 204 37 128 138 124 135 31 117 82 
119 9 211 213 132 43 185 125 193 94 23 
120 7 143 140 148 67 73 18 83 
121 9 58 217 2 134 168 68 161 184 63 
122 9 224 268 99 76 151 208 39 183 127 
123 9 179 102 153 154 59 96 10 88 214 
124 9 138 37 115 40 118 38 128 15 31 
125 9 184 132 193 43 2 119 211 213 63 
126 4 175 109 316 50 
127 9 51 91 100 62 76 99 16 151 198 
128 9 118 204 37 135 138 124 31 117 82 
129 8 260 245 249 223 30 111 315 310 
130 7 171 275 203 16 150 273 300 
131 9 80 59 78 7 197 103 154 79 34 
132 9 43 193 125 211 119 104 184 213 209 
133 7 98 47 141 147 177 26 152 
134 9 217 121 58 168 201 34 161 2 41 
135 9 204 118 128 82 31 117 37 166 101 
136 3 142 315 30 
137 9 69 86 190 94 144 17 163 185 299 
138 9 124 37 118 115 40 128 38 204 15 
139 8 251 284 292 277 267 5 320 302 
140 8 148 120 143 67 73 18 173 83 
141 4 147 133 177 26 
142 7 136 285 149 288 30 315 278 
143 7 120 140 148 73 67 83 18 
144 9 163 19 69 145 17 299 137 229 178 
145 9 163 144 19 42 61 17 44 69 220 
146 4 242 261 32 210 
147 5 141 177 26 133 188 
148 9 67 140 173 18 73 120 143 216 92 
149 7 285 288 274 286 278 142 4 
150 6 300 188 171 130 261 26 
151 9 99 76 224 268 122 127 16 51 208 
152 8 98 96 47 153 10 97 133 27 
153 8 96 179 10 152 102 123 187 98 
154 9 59 103 80 131 214 123 209 104 179 
155 6 113 110 33 63 68 191 
156 8 160 105 162 79 13 197 78 83 
157 9 44 21 17 200 61 145 308 42 95 
158 9 36 70 72 107 56 205 18 173 216 
159 9 235 6 231 283 258 254 281 289 301 
160 8 156 105 162 13 79 83 143 167 
161 9 168 57 22 58 217 121 15 134 68 
162 8 156 105 79 197 78 160 187 7 
163 9 144 19 145 69 229 17 299 178 137 
164 9 8 218 308 313 312 181 200 298 180 
165 8 226 255 85 116 312 50 230 180 
166 9 117 31 82 84 53 215 101 118 189 
167 9 205 56 83 13 73 18 158 105 48 
168 9 161 58 121 217 134 68 2 57 63 
169 4 45 88 186 294 
170 9 180 239 298 244 116 55 54 312 294 
171 8 130 275 300 150 16 203 32 261 
172 9 24 232 264 317 233 303 265 263 228 
173 9 216 18 72 148 67 73 92 77 36 
174 5 178 299 74 14 190 
175 7 109 316 126 50 230 226 240 
176 9 12 66 107 20 41 70 25 158 189 
177 8 26 188 147 47 141 133 98 97 
178 5 299 174 229 19 69 
179 8 123 153 102 96 10 154 187 59 
180 9 170 239 116 298 312 244 54 55 226 
181 8 218 8 220 164 61 42 308 248 
182 6 266 222 114 206 27 97 
183 8 253 309 81 277 250 320 52 139 
184 9 125 2 63 68 193 132 58 43 121 
185 9 23 94 29 119 213 86 211 137 191 
186 7 219 88 45 95 169 298 313 
187 8 197 78 162 153 179 96 79 59 
188 6 26 150 177 300 147 141 
189 9 84 215 25 66 53 22 57 166 20 
190 9 74 14 299 137 11 69 174 178 29 
191 9 29 23 33 213 185 110 119 113 155 
192 5 306 305 9 60 311 
193 9 43 132 125 104 211 119 184 209 2 
194 5 3 89 212 75 196 
195 6 269 35 64 234 258 307 
196 9 75 92 77 3 89 216 67 194 173 
197 8 78 162 187 79 131 59 7 80 
198 7 62 100 51 91 127 16 199 
199 6 293 295 71 207 46 90 
200 9 308 21 313 44 95 164 8 218 219 
201 9 48 41 20 134 217 7 34 176 121 
202 6 257 46 87 293 90 207 
203 8 275 16 130 171 273 51 90 62 
204 9 135 118 128 31 82 37 117 138 124 
205 9 56 167 83 13 73 18 158 105 160 
206 6 27 97 182 222 266 114 
207 9 46 293 90 199 71 202 295 257 273 
208 9 39 32 261 302 268 292 146 267 151 
209 9 214 104 43 103 132 193 154 211 94 
210 8 112 5 267 108 282 146 251 284 
211 9 119 132 43 193 213 94 125 185 209 
212 2 194 3 
213 9 119 211 185 125 191 110 23 132 29 
214 9 209 104 103 154 43 193 132 211 59 
215 9 53 25 84 189 166 117 31 82 66 
216 9 173 72 77 92 36 18 67 196 148 
217 9 134 121 58 168 161 2 34 68 201 
218 9 8 181 164 308 61 220 200 42 312 
219 8 95 186 313 21 200 88 45 298 
220 9 42 61 181 248 218 44 8 145 308 
221 9 241 262 250 52 287 81 4 309 252 
222 6 114 266 182 206 27 97 
223 7 129 260 245 249 30 111 315 
224 9 122 268 99 151 76 127 208 39 302 
225 4 297 236 28 259 
226 9 116 165 50 316 109 54 240 85 180 
227 8 294 270 314 304 246 264 55 317 
228 9 290 304 264 279 270 24 172 232 303 
229 2 19 178 
230 9 50 85 316 109 175 226 255 165 126 
231 7 301 159 258 235 64 35 281 
232 9 172 24 264 317 233 263 303 265 256 
233 9 303 265 49 232 172 319 24 279 263 
234 5 269 195 64 35 307 
235 8 159 6 231 283 289 254 281 258 
236 3 259 28 225 
237 6 307 276 319 49 296 272 
238 6 256 317 263 246 232 24 
239 9 170 298 244 180 55 294 116 312 54 
240 3 243 54 116 
241 9 221 262 250 81 52 287 4 309 252 
242 3 146 261 32 
243 2 240 54 
244 8 55 239 294 170 298 314 227 180 
245 7 260 111 249 315 30 310 129 
246 7 314 317 238 55 256 227 264 
247 8 318 280 9 305 311 271 192 306 
248 5 220 181 42 61 218 
249 7 30 111 245 260 315 129 310 
250 9 52 221 309 241 81 287 262 253 60 
251 8 267 292 139 284 277 302 5 39 
252 9 81 262 241 221 253 4 286 309 250 
253 9 81 309 252 250 241 52 221 262 4 
254 3 289 6 159 
255 6 85 165 230 226 50 181 
256 5 238 263 317 232 24 
257 7 202 87 46 90 273 207 293 
258 9 281 35 283 64 231 195 159 269 301 
259 4 28 291 236 297 
260 7 245 249 111 129 30 315 310 
261 7 32 208 242 146 39 300 302 
262 9 4 241 221 287 286 252 81 250 52 
263 7 256 232 296 238 172 24 317 
264 9 24 172 232 317 228 304 270 290 233 
265 9 233 303 49 319 232 172 24 279 290 
266 6 182 222 114 206 27 97 
267 8 251 292 139 302 284 5 277 39 
268 9 224 151 122 99 208 39 76 302 32 
269 6 195 234 64 35 258 307 
270 8 304 228 227 264 290 24 172 317 
271 8 318 247 282 280 9 305 108 311 
272 9 279 49 93 265 290 303 233 319 228 
273 7 90 87 257 46 130 203 202 
274 8 278 286 149 285 288 4 142 262 
275 8 16 203 130 171 51 127 273 300 
276 7 319 237 49 296 307 265 233 
277 8 284 139 320 251 5 292 267 305 
278 7 274 149 285 288 286 142 4 
279 9 290 228 265 272 303 233 49 304 172 
280 6 318 247 311 9 271 305 
281 7 258 283 35 64 159 231 195 
282 7 271 108 318 5 247 280 9 
283 5 281 258 159 235 35 
284 8 277 139 251 5 267 320 292 282 
285 7 149 288 274 286 278 142 4 
286 9 4 288 262 274 149 285 287 278 241 
287 8 4 221 241 262 52 250 60 286 
288 7 149 285 286 274 4 278 142 
289 4 254 6 235 159 
290 9 228 279 304 264 303 24 172 233 265 
291 3 259 28 236 
292 8 251 139 267 302 284 277 5 39 
293 8 46 71 199 207 295 202 90 257 
294 7 227 244 314 55 270 246 304 
295 4 71 199 293 46 
296 6 263 319 49 233 265 276 
297 5 225 28 259 236 291 
298 8 239 170 180 244 313 312 55 116 
299 8 178 174 190 69 74 14 19 144 
300 6 150 171 261 188 32 130 
301 3 231 64 35 
302 9 39 267 292 251 208 139 32 284 261 
303 9 233 265 49 232 172 319 24 279 290 
304 8 270 228 264 290 24 172 227 279 
305 8 9 192 311 247 306 60 280 318 
306 5 192 60 305 9 311 
307 5 237 276 319 195 49 
308 9 200 8 164 218 313 181 21 44 61 
309 9 81 250 52 253 221 241 262 252 287 
310 6 111 315 245 30 249 260 
311 7 9 280 305 247 192 318 306 
312 9 180 164 313 170 298 8 116 239 165 
313 9 164 308 298 312 8 200 219 95 180 
314 7 246 227 55 317 294 238 264 
315 7 111 30 310 249 245 260 136 
316 8 109 175 50 230 126 226 85 240 
317 9 24 238 172 256 232 264 246 263 314 
318 7 247 280 271 311 9 305 282 
319 8 49 276 265 233 296 303 263 237 
320 8 277 52 60 305 306 284 250 9 
DEPOT_SECTION
   1
   -1
EOF
