NAME :  X-n548-kX-w109-c7.cctp
COMMENT : 	Adapted by Maziero, Usberti and Cavellucci from the Uchoa, Pecin, Pessoa, Poggi, Subramanian, and Vidal (2013)
TYPE :  CCTP
DIMENSION :    438
EDGE_WEIGHT_TYPE : 	EUC_2D	
CAPACITY : 	11
VERTICES_WITHIN_COVERAGE :  7
VERTICES_WITH_DEMAND : 	109
NODE_COORD_SECTION
1 0 0
2 221 542
3 320 456
4 576 827
5 679 994
6 371 461
7 961 844
8 986 379
9 175 540
10 126 517
11 329 626
12 477 890
13 191 356
14 584 917
15 308 653
16 0 7
17 273 302
18 672 381
19 235 415
20 583 149
21 672 124
22 644 646
23 400 544
24 832 999
25 842 964
26 582 965
27 544 311
28 429 2
29 939 849
30 898 605
31 363 130
32 639 874
33 323 201
34 829 350
35 7 53
36 801 92
37 57 330
38 943 0
39 579 275
40 833 402
41 408 940
42 635 871
43 631 630
44 733 313
45 344 619
46 628 291
47 674 92
48 74 602
49 38 354
50 473 107
51 668 279
52 510 811
53 366 16
54 49 182
55 528 946
56 271 745
57 405 872
58 65 893
59 622 488
60 668 978
61 939 73
62 556 632
63 270 446
64 586 348
65 951 167
66 385 308
67 247 997
68 992 460
69 128 590
70 746 847
71 279 459
72 428 183
73 364 167
74 656 687
75 547 792
76 517 152
77 252 618
78 464 284
79 184 96
80 457 269
81 590 47
82 348 609
83 777 112
84 528 198
85 877 457
86 812 650
87 864 723
88 584 875
89 817 233
90 186 909
91 439 447
92 560 994
93 818 658
94 134 903
95 447 951
96 969 519
97 488 401
98 142 666
99 287 534
100 399 181
101 141 22
102 29 248
103 313 643
104 20 974
105 294 475
106 439 214
107 327 361
108 79 657
109 165 601
110 345 144
111 90 914
112 400 256
113 177 633
114 549 135
115 887 565
116 658 126
117 18 638
118 327 299
119 245 439
120 355 299
121 144 893
122 34 637
123 187 150
124 350 673
125 380 917
126 271 505
127 930 78
128 860 22
129 448 112
130 236 704
131 222 587
132 670 76
133 521 123
134 50 360
135 24 690
136 351 981
137 159 405
138 825 285
139 187 320
140 342 200
141 290 713
142 304 144
143 216 909
144 46 173
145 613 524
146 35 950
147 298 667
148 257 579
149 775 393
150 860 681
151 996 407
152 379 14
153 195 581
154 75 328
155 295 405
156 539 661
157 239 471
158 88 989
159 965 196
160 460 479
161 663 933
162 626 229
163 737 136
164 253 65
165 645 544
166 877 977
167 235 74
168 881 673
169 221 710
170 69 200
171 115 635
172 414 959
173 270 287
174 912 701
175 426 373
176 867 569
177 354 11
178 937 660
179 434 965
180 681 746
181 86 648
182 656 239
183 604 359
184 979 146
185 507 27
186 94 695
187 424 827
188 287 592
189 554 230
190 952 222
191 48 840
192 133 601
193 635 416
194 752 0
195 173 90
196 184 590
197 619 482
198 981 411
199 778 389
200 359 222
201 201 444
202 91 710
203 111 324
204 867 389
205 309 269
206 669 317
207 889 891
208 605 483
209 221 579
210 729 804
211 719 697
212 413 1000
213 977 29
214 356 605
215 107 39
216 162 737
217 557 652
218 139 48
219 145 568
220 596 316
221 420 824
222 94 529
223 422 341
224 226 328
225 687 807
226 549 281
227 944 64
228 554 49
229 258 765
230 182 881
231 641 481
232 541 807
233 107 602
234 870 999
235 247 282
236 771 712
237 109 942
238 865 629
239 632 928
240 571 734
241 899 632
242 189 934
243 385 166
244 851 399
245 890 198
246 370 248
247 372 910
248 11 248
249 845 326
250 508 769
251 511 900
252 320 984
253 158 330
254 159 327
255 798 648
256 555 541
257 832 900
258 809 931
259 460 869
260 585 804
261 487 102
262 127 981
263 39 692
264 187 528
265 462 482
266 890 450
267 857 64
268 96 223
269 610 842
270 910 604
271 260 757
272 809 211
273 48 352
274 23 950
275 622 891
276 499 618
277 873 960
278 65 845
279 990 747
280 693 76
281 506 411
282 668 167
283 301 696
284 9 695
285 939 496
286 741 894
287 663 477
288 112 160
289 588 281
290 215 559
291 528 309
292 668 953
293 594 865
294 407 905
295 478 244
296 174 707
297 635 465
298 570 151
299 651 612
300 785 786
301 166 64
302 684 574
303 598 632
304 645 944
305 976 284
306 576 737
307 87 725
308 177 414
309 865 221
310 459 506
311 23 683
312 507 320
313 497 889
314 888 561
315 963 175
316 308 530
317 576 387
318 937 529
319 463 219
320 210 641
321 582 748
322 215 107
323 985 385
324 502 117
325 851 594
326 728 54
327 64 249
328 492 57
329 852 45
330 503 209
331 292 125
332 340 273
333 242 217
334 700 96
335 663 175
336 670 279
337 611 829
338 471 843
339 412 350
340 4 325
341 454 981
342 982 397
343 793 620
344 337 779
345 106 856
346 965 538
347 780 360
348 144 904
349 225 646
350 510 276
351 564 632
352 573 501
353 903 827
354 605 806
355 216 988
356 220 716
357 75 130
358 858 686
359 107 314
360 717 125
361 991 306
362 62 373
363 641 426
364 42 62
365 184 460
366 618 878
367 430 839
368 840 747
369 284 582
370 899 505
371 453 998
372 134 596
373 30 955
374 437 412
375 660 92
376 524 418
377 723 31
378 869 759
379 824 606
380 760 852
381 352 365
382 381 873
383 746 114
384 670 702
385 447 881
386 14 996
387 844 110
388 315 373
389 808 697
390 992 409
391 692 929
392 897 142
393 397 338
394 334 75
395 104 954
396 537 581
397 502 262
398 346 190
399 361 170
400 44 202
401 326 351
402 525 950
403 773 202
404 906 167
405 910 793
406 147 12
407 542 768
408 82 850
409 358 588
410 19 296
411 147 444
412 954 410
413 529 392
414 77 383
415 822 126
416 284 784
417 804 876
418 784 608
419 870 566
420 968 481
421 548 87
422 609 314
423 328 85
424 505 944
425 358 609
426 311 26
427 909 915
428 407 84
429 523 987
430 690 982
431 841 250
432 499 9
433 646 414
434 516 682
435 944 22
436 691 660
437 763 609
438 756 289
DEMAND_SECTION
2 1
3 1
4 1
5 1
6 1
7 1
8 1
9 1
10 1
11 1
12 1
13 1
14 1
15 1
16 1
17 1
18 1
19 1
20 1
21 1
22 1
23 1
24 1
25 1
26 1
27 1
28 1
29 1
30 1
31 1
32 1
33 1
34 1
35 1
36 1
37 1
38 1
39 1
40 1
41 1
42 1
43 1
44 1
45 1
46 1
47 1
48 1
49 1
50 1
51 1
52 1
53 1
54 1
55 1
56 1
57 1
58 1
59 1
60 1
61 1
62 1
63 1
64 1
65 1
66 1
67 1
68 1
69 1
70 1
71 1
72 1
73 1
74 1
75 1
76 1
77 1
78 1
79 1
80 1
81 1
82 1
83 1
84 1
85 1
86 1
87 1
88 1
89 1
90 1
91 1
92 1
93 1
94 1
95 1
96 1
97 1
98 1
99 1
100 1
101 1
102 1
103 1
104 1
105 1
106 1
107 1
108 1
109 1
110 1
COVERAGE_SECTION
2 7 290 209 264 131 9 153 148 
3 7 105 71 6 63 155 126 316 
4 7 260 337 354 269 232 293 75 
5 7 430 60 292 304 161 391 239 
6 6 3 91 105 374 23 160 
7 6 29 353 405 207 427 279 
8 7 323 342 151 390 198 412 361 
9 7 264 219 290 2 153 196 10 
10 6 222 9 219 264 69 411 
11 7 45 103 82 15 214 425 409 
12 7 313 259 385 251 338 424 95 
13 6 139 253 254 224 137 308 
14 7 88 275 26 239 366 293 55 
15 7 103 147 11 283 124 45 82 
16 5 35 364 215 101 357 
17 6 173 235 205 118 224 401 
18 5 433 193 363 206 183 
19 7 119 201 63 157 308 155 71 
20 7 298 114 76 133 421 84 116 
21 7 116 47 375 334 282 360 132 
22 7 43 299 74 303 436 384 351 
23 7 409 310 214 425 82 6 160 
24 6 25 234 166 277 258 257 
25 6 277 24 166 234 258 257 
26 7 92 14 55 402 239 429 304 
27 7 291 226 312 350 39 220 289 
28 7 152 53 432 177 185 328 428 
29 5 7 353 405 207 427 
30 7 270 241 115 238 314 176 325 
31 7 110 73 399 243 423 142 100 
32 7 42 366 275 269 293 337 239 
33 7 140 398 200 399 73 142 110 
34 7 249 347 40 204 244 199 138 
35 5 364 16 215 357 144 
36 6 83 415 387 383 267 329 
37 6 154 273 49 134 362 410 
38 7 435 213 227 61 127 128 329 
39 7 289 226 220 422 27 189 46 
40 6 244 204 34 199 149 347 
41 7 172 294 125 179 95 247 212 
42 7 32 366 275 269 293 337 88 
43 7 22 299 303 74 351 436 62 
44 6 438 206 347 336 51 199 
45 7 82 11 425 214 409 103 15 
46 7 422 220 289 51 336 206 39 
47 7 375 132 280 334 21 116 360 
48 7 233 181 122 171 69 108 192 
49 7 273 134 37 362 154 340 414 
50 7 261 129 324 133 328 76 428 
51 7 336 206 46 182 162 422 44 
52 7 232 75 250 338 407 4 260 
53 7 152 177 426 28 394 423 428 
54 7 144 400 170 357 268 288 102 
55 7 402 424 429 251 26 92 14 
56 7 271 229 141 416 130 283 356 
57 7 382 294 367 385 187 221 247 
58 7 111 408 278 345 191 146 237 
59 6 197 208 231 297 145 287 
60 7 5 430 292 304 161 391 239 
61 7 127 227 435 213 38 392 267 
62 7 351 217 156 303 396 276 434 
63 7 71 119 105 157 19 155 3 
64 7 183 220 317 422 27 289 291 
65 7 315 159 184 404 190 392 245 
66 7 120 393 223 339 112 332 118 
67 4 355 252 242 143 
68 7 420 198 390 151 96 412 285 
69 7 372 192 233 219 109 171 48 
70 6 380 210 286 417 225 300 
71 7 63 105 119 3 157 126 155 
72 7 100 106 243 319 73 399 129 
73 7 399 243 398 110 31 100 140 
74 7 384 22 436 43 180 211 299 
75 7 232 407 260 52 4 250 321 
76 7 133 114 324 84 298 261 330 
77 7 148 349 131 188 320 369 209 
78 7 80 295 397 350 312 319 291 
79 7 195 322 301 123 167 218 164 
80 7 78 295 397 319 350 106 112 
81 7 228 421 375 132 185 47 114 
82 7 214 425 45 409 11 103 15 
83 6 36 383 163 415 360 387 
84 7 330 189 76 298 114 295 319 
85 6 266 370 244 204 40 285 
86 7 93 255 343 379 389 418 150 
87 6 368 378 358 150 168 174 
88 7 293 366 275 14 269 4 42 
89 5 272 431 309 138 403 
90 6 242 230 143 348 121 94 
91 7 374 160 265 310 97 6 175 
92 7 26 429 402 55 424 14 239 
93 7 86 255 389 343 150 358 379 
94 7 348 121 111 237 90 230 345 
95 7 179 341 172 41 371 424 212 
96 7 346 318 285 420 68 370 314 
97 6 281 376 413 374 91 175 
98 7 171 113 296 186 181 108 192 
99 7 316 126 369 148 188 105 2 
100 7 243 72 73 399 106 398 200 
101 6 406 218 215 301 195 79 
102 7 248 327 400 410 170 54 268 
103 7 15 11 147 45 124 82 283 
104 7 373 386 274 146 158 395 111 
105 7 71 3 63 126 157 316 99 
106 7 319 72 295 100 112 80 330 
107 7 401 388 381 155 118 120 393 
108 7 181 186 171 122 263 202 48 
109 7 196 372 192 113 153 69 219 
110 7 31 73 399 142 243 398 140 
111 7 58 237 395 94 348 121 345 
112 7 246 200 66 106 80 120 332 
113 7 109 320 196 98 349 192 153 
114 7 298 133 76 20 421 324 84 
115 7 314 419 176 30 270 325 370 
116 7 21 375 47 282 335 132 334 
117 7 122 311 135 263 284 108 48 
118 7 120 332 205 401 17 173 66 
119 7 19 63 157 71 201 155 105 
120 7 118 332 66 246 205 393 401 
121 7 348 94 230 90 345 111 237 
122 7 117 311 108 48 181 135 263 
123 3 322 79 195 
124 6 15 103 11 147 45 283 
125 6 247 294 41 382 57 172 
126 7 99 105 316 71 157 63 2 
127 7 61 227 435 213 392 267 38 
128 7 329 267 435 38 387 127 36 
129 7 50 261 428 324 328 72 133 
130 7 169 356 56 141 271 349 296 
131 7 209 153 290 148 196 77 2 
132 7 47 375 280 334 21 116 326 
133 7 324 76 114 261 421 50 298 
134 6 273 49 362 37 414 154 
135 6 311 263 284 117 122 108 
136 4 252 212 172 41 
137 5 308 411 201 13 365 
138 7 431 249 89 34 438 309 272 
139 4 254 253 13 224 
140 7 398 33 200 399 73 243 110 
141 7 283 56 147 271 130 229 15 
142 6 331 110 33 31 398 399 
143 4 90 242 230 348 
144 7 54 400 170 357 288 268 102 
145 7 59 165 197 208 352 231 256 
146 7 373 274 104 386 58 111 158 
147 7 15 103 283 141 11 124 45 
148 7 369 188 131 209 77 290 2 
149 3 199 347 40 
150 6 358 168 87 93 238 389 
151 7 390 198 342 323 8 412 68 
152 7 53 177 28 426 428 394 423 
153 7 196 209 131 290 109 9 2 
154 5 37 359 203 273 134 
155 7 388 63 107 71 3 119 19 
156 6 217 434 62 351 276 303 
157 7 119 63 71 126 201 105 19 
158 7 395 262 237 146 373 104 386 
159 6 315 190 65 184 404 245 
160 7 265 310 91 374 281 97 23 
161 7 292 304 391 239 60 430 275 
162 6 182 46 289 51 335 39 
163 5 360 383 83 334 21 
164 5 167 322 426 331 79 
165 6 145 302 59 231 197 299 
166 4 277 234 25 24 
167 5 164 322 79 195 301 
168 6 150 358 174 241 238 87 
169 7 356 130 296 56 271 349 216 
170 7 400 54 144 268 327 288 102 
171 7 181 233 192 98 108 372 69 
172 7 41 179 95 212 341 125 294 
173 6 17 235 205 118 224 332 
174 6 168 178 87 150 358 241 
175 5 339 223 374 393 97 
176 6 419 115 314 325 30 270 
177 7 53 152 426 394 28 423 428 
178 5 241 174 168 270 30 
179 7 95 172 341 41 371 212 294 
180 4 384 225 211 74 
181 7 108 171 48 186 233 122 98 
182 5 162 51 336 46 335 
183 7 64 317 220 422 193 433 18 
184 7 315 65 159 404 190 392 61 
185 7 432 328 228 421 261 28 81 
186 6 202 307 108 181 263 98 
187 7 221 367 57 338 259 385 382 
188 7 369 148 77 11 103 99 45 
189 7 84 39 226 330 289 397 350 
190 6 159 315 65 245 305 404 
191 4 278 408 58 345 
192 7 372 69 233 109 219 171 196 
193 5 433 363 297 18 183 
194 7 377 326 280 36 334 128 329 
195 6 79 301 322 218 123 167 
196 7 153 109 131 209 113 290 219 
197 6 59 208 231 297 145 287 
198 7 390 342 151 323 412 8 68 
199 3 149 347 40 
200 7 140 246 398 33 399 112 332 
201 7 365 308 119 19 157 411 137 
202 5 186 307 108 263 181 
203 5 359 154 253 254 37 
204 7 244 40 34 266 249 85 199 
205 7 332 118 173 17 120 235 246 
206 7 51 336 46 422 18 44 220 
207 5 427 257 29 353 277 
208 7 197 59 297 231 352 145 287 
209 7 131 290 153 148 2 196 77 
210 5 225 70 380 300 180 
211 7 436 384 236 180 74 389 22 
212 7 371 172 179 341 41 95 136 
213 7 435 38 227 61 127 128 184 
214 7 425 82 409 45 11 103 15 
215 5 218 101 406 301 364 
216 5 296 356 169 98 202 
217 7 62 156 351 303 434 276 396 
218 6 101 301 215 406 195 79 
219 7 69 372 192 109 9 196 233 
220 7 422 64 289 46 39 183 27 
221 7 187 367 57 338 259 382 385 
222 3 10 219 69 
223 5 339 393 175 66 78 
224 4 139 13 235 17 
225 3 210 180 70 
226 7 27 39 291 289 350 189 397 
227 7 61 127 435 213 38 267 184 
228 7 81 421 185 328 432 133 261 
229 6 271 56 416 141 356 130 
230 6 90 121 143 348 94 242 
231 5 297 59 197 287 208 
232 7 75 52 407 4 260 250 354 
233 7 69 192 372 48 171 181 219 
234 4 166 24 277 25 
235 4 173 17 224 205 
236 7 389 211 255 93 86 300 368 
237 7 395 111 262 94 158 348 121 
238 6 241 325 30 168 379 270 
239 7 304 161 275 292 14 366 32 
240 6 306 321 407 75 260 250 
241 6 30 270 238 168 178 325 
242 7 90 143 230 348 355 121 94 
243 7 73 100 399 31 72 110 398 
244 7 40 204 34 85 266 249 199 
245 5 309 404 392 190 65 
246 7 200 112 332 120 140 66 398 
247 5 125 294 382 41 57 
248 7 102 410 327 400 170 54 340 
249 7 34 138 204 244 347 431 40 
250 4 407 52 75 232 
251 7 313 12 424 55 402 259 385 
252 3 136 67 125 
253 5 254 139 13 203 359 
254 4 253 139 13 203 
255 7 86 93 343 418 379 389 437 
256 7 352 396 145 208 59 197 165 
257 5 417 258 207 25 277 
258 6 257 25 417 277 24 286 
259 7 385 12 338 313 367 57 187 
260 5 354 4 337 75 232 
261 7 50 324 129 133 328 76 421 
262 7 395 158 237 111 94 242 348 
263 6 135 311 284 108 122 186 
264 7 9 2 290 153 219 209 10 
265 7 160 310 91 374 281 97 23 
266 7 85 370 244 204 285 40 412 
267 6 329 128 387 36 415 127 
268 5 170 327 400 54 288 
269 6 337 293 354 4 366 42 
270 7 30 241 115 314 238 176 419 
271 6 229 56 416 141 356 130 
272 4 89 403 431 309 
273 6 134 49 37 362 154 414 
274 7 373 146 104 386 58 111 158 
275 7 366 32 42 239 293 88 14 
276 5 396 62 156 351 434 
277 5 166 25 234 24 427 
278 5 191 408 345 58 111 
279 6 174 405 7 178 29 353 
280 7 334 132 47 375 326 21 377 
281 6 376 97 413 374 317 91 
282 4 335 116 21 360 
283 7 141 147 15 103 124 56 130 
284 6 135 311 263 117 122 108 
285 7 318 420 96 370 346 68 266 
286 7 380 70 391 417 258 161 210 
287 4 231 297 59 197 
288 5 357 170 268 54 144 
289 7 39 220 226 422 46 27 189 
290 7 2 209 131 153 264 9 196 
291 7 27 312 226 350 397 39 289 
292 7 161 60 304 391 430 5 239 
293 7 88 366 269 275 337 42 4 
294 7 125 57 41 247 382 385 172 
295 7 319 397 80 78 330 350 106 
296 7 216 169 356 98 130 113 320 
297 5 231 197 59 287 208 
298 7 20 114 76 133 84 421 324 
299 7 43 22 302 303 436 165 74 
300 5 210 368 380 70 236 
301 7 195 218 79 101 406 215 322 
302 6 165 299 43 22 436 437 
303 7 43 351 62 217 22 299 156 
304 7 161 239 292 60 391 275 430 
305 6 361 190 159 8 323 315 
306 6 240 321 407 75 260 250 
307 4 202 186 263 108 
308 6 137 201 411 365 19 13 
309 5 245 431 89 272 404 
310 7 265 160 91 23 374 6 256 
311 6 135 263 284 117 122 108 
312 7 291 27 350 78 226 397 80 
313 7 251 12 259 385 338 424 55 
314 7 115 419 176 30 270 325 370 
315 7 65 159 184 190 404 392 245 
316 7 99 126 105 369 188 148 3 
317 6 64 183 413 376 193 220 
318 7 346 285 96 370 420 314 115 
319 7 106 295 330 72 80 397 78 
320 7 349 113 77 131 196 109 153 
321 6 306 240 407 75 260 354 
322 6 79 167 195 123 164 301 
323 7 8 342 151 390 198 412 68 
324 7 133 261 50 76 114 129 421 
325 6 176 379 419 238 115 30 
326 7 377 280 334 194 132 383 47 
327 7 102 268 170 400 248 410 54 
328 7 185 261 432 50 324 228 421 
329 6 267 128 387 36 127 415 
330 7 84 319 295 397 189 76 106 
331 5 142 423 110 394 31 
332 7 118 120 205 246 200 66 112 
333 3 235 173 33 
334 7 280 47 360 132 21 375 383 
335 5 282 116 21 182 162 
336 7 51 206 182 46 162 422 44 
337 5 269 354 4 260 293 
338 7 259 367 385 12 52 187 313 
339 5 223 393 175 66 381 
340 7 410 49 273 37 134 154 362 
341 7 371 179 95 212 172 41 424 
342 7 323 198 390 151 8 412 68 
343 6 418 255 437 379 86 93 
344 2 416 56 
345 7 408 278 121 58 94 111 191 
346 7 96 318 285 420 370 314 68 
347 6 199 149 34 44 40 249 
348 7 94 121 90 230 237 242 111 
349 7 320 77 113 130 131 169 209 
350 7 397 291 226 312 295 78 27 
351 7 62 217 303 156 396 276 43 
352 7 208 256 145 197 59 231 297 
353 5 405 29 7 207 378 
354 4 260 337 4 269 
355 5 67 242 143 90 262 
356 7 169 130 296 271 56 216 229 
357 5 288 144 54 170 364 
358 6 150 168 87 93 389 174 
359 5 203 154 37 253 254 
360 7 163 383 334 21 47 280 116 
361 6 305 8 323 342 190 151 
362 6 134 414 273 49 37 154 
363 5 193 433 297 18 231 
364 5 35 16 215 357 218 
365 7 201 411 308 157 137 119 19 
366 7 275 42 32 293 88 269 337 
367 7 187 221 57 338 259 385 382 
368 6 378 87 389 358 300 150 
369 7 188 148 77 99 316 131 11 
370 7 285 318 85 266 314 115 419 
371 7 341 179 212 95 172 429 41 
372 7 192 69 233 219 109 171 196 
373 7 146 274 104 386 158 58 111 
374 5 91 175 97 339 281 
375 7 47 132 21 116 280 334 360 
376 6 281 413 97 317 374 160 
377 7 326 194 280 334 132 47 383 
378 6 368 87 405 174 358 353 
379 5 325 343 418 86 238 
380 5 70 286 417 210 300 
381 5 107 401 388 393 339 
382 4 57 247 294 125 
383 7 163 83 360 334 36 326 280 
384 5 74 180 436 211 22 
385 7 259 12 57 338 367 294 313 
386 7 104 373 274 146 158 395 237 
387 3 415 36 267 
388 7 107 401 155 381 118 17 3 
389 7 93 236 86 255 358 150 368 
390 7 151 198 342 323 8 412 68 
391 7 161 292 304 430 60 239 286 
392 4 404 245 65 387 
393 5 339 223 66 175 381 
394 6 423 426 31 331 53 177 
395 7 237 262 158 111 94 348 146 
396 7 256 276 62 351 217 156 303 
397 7 350 295 78 80 226 330 291 
398 7 140 33 399 73 200 110 243 
399 7 73 243 398 110 140 31 100 
400 7 54 170 144 102 327 268 248 
401 7 107 388 381 118 120 155 17 
402 7 55 424 429 251 92 26 313 
403 2 272 89 
404 5 392 245 65 315 159 
405 5 353 378 29 7 87 
406 6 101 218 215 301 195 79 
407 7 75 250 232 240 321 306 52 
408 5 278 345 191 58 111 
409 7 214 425 82 45 11 23 103 
410 7 340 102 248 37 49 273 154 
411 5 365 137 308 201 10 
412 7 198 342 390 323 151 8 68 
413 6 376 281 97 317 64 312 
414 4 362 134 273 49 
415 2 387 36 
416 4 229 271 56 344 
417 5 257 380 258 70 286 
418 5 343 437 379 255 86 
419 6 176 115 314 325 30 270 
420 7 68 285 96 318 346 198 412 
421 7 228 133 114 324 81 261 328 
422 7 220 46 289 64 183 39 206 
423 6 394 331 31 110 426 142 
424 7 402 55 251 429 313 95 12 
425 7 214 82 45 409 11 103 124 
426 6 177 394 53 423 152 164 
427 4 207 277 166 29 
428 7 129 31 50 394 152 53 423 
429 7 402 92 55 424 26 341 371 
430 7 5 60 292 391 161 304 239 
431 7 89 138 309 272 245 249 403 
432 7 185 328 228 28 421 261 81 
433 5 193 363 18 297 287 
434 4 156 217 62 276 
435 7 38 213 227 61 127 128 329 
436 7 74 211 384 22 299 43 302 
437 5 418 343 255 379 86 
438 4 44 138 347 89 
DEPOT_SECTION
   1
   -1
EOF
