NAME :  X-n573-kX-w114-c7.cctp
COMMENT : 	Adapted by Maziero, Usberti and Cavellucci from the Uchoa, Pecin, Pessoa, Poggi, Subramanian, and Vidal (2013)
TYPE :  CCTP
DIMENSION :    492
EDGE_WEIGHT_TYPE : 	EUC_2D	
CAPACITY : 	210
VERTICES_WITHIN_COVERAGE :  7
VERTICES_WITH_DEMAND : 	114
NODE_COORD_SECTION
1 0 0
2 753 355
3 663 83
4 725 286
5 734 504
6 704 145
7 728 311
8 675 58
9 617 242
10 864 334
11 772 258
12 516 109
13 717 123
14 768 161
15 598 365
16 896 569
17 781 281
18 898 397
19 714 126
20 780 311
21 809 60
22 728 244
23 724 219
24 712 177
25 694 432
26 491 157
27 854 648
28 612 179
29 623 337
30 788 320
31 772 378
32 736 308
33 692 303
34 737 334
35 576 27
36 731 360
37 763 301
38 633 578
39 935 244
40 513 73
41 511 133
42 671 349
43 729 254
44 771 261
45 851 278
46 827 365
47 682 113
48 553 425
49 544 282
50 706 165
51 527 26
52 580 220
53 908 303
54 841 306
55 656 34
56 864 196
57 618 270
58 699 347
59 787 289
60 678 11
61 643 387
62 757 114
63 858 395
64 706 157
65 713 243
66 663 319
67 615 448
68 898 477
69 767 131
70 718 334
71 871 216
72 694 435
73 617 345
74 645 75
75 513 50
76 767 259
77 773 313
78 589 104
79 760 287
80 595 425
81 763 240
82 569 225
83 702 417
84 593 51
85 656 83
86 532 93
87 834 351
88 832 274
89 751 126
90 796 290
91 872 212
92 835 257
93 702 185
94 673 187
95 596 422
96 740 147
97 890 180
98 556 120
99 638 386
100 748 319
101 620 112
102 794 226
103 641 383
104 594 302
105 725 400
106 731 321
107 703 296
108 614 503
109 715 179
110 781 317
111 841 365
112 783 270
113 778 420
114 770 372
115 907 192
116 913 434
117 647 749
118 683 171
119 649 324
120 359 195
121 585 218
122 757 323
123 914 399
124 681 323
125 603 251
126 554 275
127 813 342
128 801 379
129 724 14
130 727 221
131 715 314
132 731 363
133 788 250
134 649 29
135 655 407
136 567 325
137 624 88
138 763 422
139 669 54
140 785 537
141 765 384
142 654 348
143 677 313
144 814 112
145 658 353
146 550 42
147 853 372
148 540 24
149 626 65
150 661 37
151 769 395
152 715 396
153 714 325
154 729 241
155 715 360
156 697 213
157 704 114
158 699 231
159 911 240
160 789 296
161 598 279
162 656 384
163 636 117
164 864 347
165 844 382
166 595 121
167 590 28
168 734 288
169 789 60
170 729 563
171 626 159
172 1000 201
173 875 408
174 419 38
175 671 63
176 803 184
177 690 55
178 680 192
179 511 191
180 899 256
181 610 110
182 827 287
183 672 526
184 755 311
185 770 321
186 750 262
187 665 436
188 595 339
189 736 240
190 747 298
191 511 179
192 753 707
193 413 402
194 628 437
195 661 207
196 737 328
197 711 285
198 655 325
199 800 288
200 678 59
201 623 79
202 825 278
203 736 469
204 728 268
205 675 177
206 641 245
207 686 180
208 617 646
209 903 84
210 646 72
211 778 409
212 865 386
213 928 420
214 668 91
215 702 123
216 705 306
217 574 355
218 700 483
219 617 442
220 629 426
221 767 394
222 828 227
223 544 253
224 605 107
225 746 356
226 737 130
227 638 79
228 600 47
229 734 377
230 652 13
231 482 164
232 737 249
233 740 161
234 623 270
235 748 363
236 655 305
237 878 250
238 743 397
239 663 78
240 649 322
241 718 309
242 711 345
243 734 195
244 691 372
245 793 263
246 638 111
247 717 372
248 670 184
249 635 112
250 677 120
251 708 173
252 483 71
253 851 348
254 776 165
255 807 346
256 659 341
257 732 272
258 815 259
259 739 375
260 907 319
261 777 316
262 756 77
263 668 72
264 766 304
265 599 97
266 696 412
267 878 216
268 507 50
269 848 417
270 673 295
271 734 420
272 676 104
273 756 332
274 616 134
275 705 186
276 675 191
277 657 99
278 760 418
279 827 350
280 662 529
281 859 378
282 896 475
283 566 258
284 546 60
285 748 263
286 805 435
287 785 387
288 937 390
289 641 386
290 759 274
291 714 352
292 674 332
293 662 189
294 712 354
295 685 112
296 628 73
297 728 372
298 692 48
299 746 335
300 791 248
301 579 98
302 732 249
303 503 63
304 595 63
305 877 228
306 812 137
307 788 235
308 738 410
309 600 100
310 616 343
311 830 330
312 681 162
313 809 41
314 845 394
315 602 236
316 590 57
317 766 375
318 630 128
319 643 248
320 623 315
321 805 534
322 603 114
323 779 398
324 680 289
325 994 383
326 463 284
327 715 367
328 773 278
329 701 345
330 729 331
331 658 317
332 807 287
333 638 7
334 669 12
335 616 128
336 587 403
337 962 294
338 717 278
339 557 161
340 565 465
341 631 245
342 771 428
343 839 190
344 786 419
345 754 358
346 690 187
347 692 441
348 839 365
349 724 301
350 791 198
351 697 159
352 776 276
353 892 182
354 602 33
355 487 297
356 721 103
357 744 240
358 648 381
359 571 6
360 758 317
361 779 433
362 737 308
363 736 197
364 585 87
365 668 304
366 863 289
367 628 358
368 857 330
369 601 537
370 759 310
371 642 346
372 710 240
373 877 382
374 877 287
375 573 197
376 339 383
377 651 320
378 754 254
379 694 52
380 814 293
381 703 274
382 496 169
383 766 182
384 480 92
385 847 178
386 928 298
387 871 664
388 656 36
389 753 175
390 742 128
391 760 363
392 677 376
393 761 383
394 855 434
395 773 366
396 710 177
397 762 378
398 876 191
399 481 159
400 839 209
401 544 312
402 749 288
403 722 176
404 608 213
405 720 277
406 757 350
407 697 229
408 890 258
409 779 273
410 949 223
411 738 400
412 674 438
413 716 467
414 593 371
415 872 314
416 616 310
417 670 454
418 762 339
419 676 366
420 766 318
421 766 236
422 671 75
423 901 344
424 737 290
425 784 319
426 783 268
427 792 335
428 813 294
429 768 302
430 770 281
431 798 190
432 696 305
433 714 336
434 684 65
435 686 329
436 751 357
437 734 295
438 689 47
439 621 231
440 595 31
441 793 258
442 844 287
443 630 165
444 537 118
445 607 413
446 783 359
447 676 466
448 609 102
449 738 221
450 556 84
451 789 84
452 624 239
453 711 338
454 229 166
455 782 342
456 872 494
457 589 39
458 533 226
459 704 206
460 644 66
461 830 288
462 585 126
463 660 72
464 554 11
465 755 300
466 587 243
467 708 115
468 774 505
469 640 436
470 936 268
471 795 414
472 693 592
473 817 108
474 710 305
475 739 217
476 638 118
477 711 456
478 783 128
479 866 479
480 817 400
481 554 297
482 756 239
483 701 286
484 735 275
485 792 334
486 674 111
487 754 300
488 740 149
489 798 531
490 530 155
491 587 360
492 794 227
DEMAND_SECTION
2 78
3 96
4 64
5 87
6 70
7 57
8 63
9 86
10 89
11 64
12 53
13 86
14 69
15 94
16 62
17 96
18 89
19 92
20 72
21 59
22 93
23 55
24 96
25 81
26 65
27 52
28 99
29 99
30 57
31 100
32 73
33 61
34 64
35 85
36 69
37 55
38 95
39 95
40 64
41 73
42 99
43 88
44 89
45 10
46 9
47 5
48 1
49 3
50 9
51 5
52 4
53 10
54 3
55 5
56 7
57 9
58 6
59 5
60 8
61 2
62 4
63 3
64 3
65 6
66 3
67 3
68 8
69 5
70 9
71 10
72 4
73 2
74 10
75 1
76 3
77 2
78 5
79 4
80 5
81 7
82 3
83 1
84 7
85 9
86 4
87 4
88 6
89 2
90 8
91 8
92 5
93 5
94 9
95 10
96 8
97 1
98 6
99 10
100 6
101 10
102 6
103 7
104 6
105 2
106 9
107 6
108 8
109 6
110 3
111 10
112 6
113 4
114 2
115 9
COVERAGE_SECTION
2 7 345 436 406 225 235 391 418 
3 7 239 85 214 422 463 263 277 
4 7 168 405 338 424 437 197 349 
5 7 203 218 468 413 477 170 140 
6 7 64 351 50 19 215 13 251 
7 7 32 362 106 241 349 131 437 
8 7 200 175 139 434 177 263 422 
9 7 452 439 341 315 125 206 319 
10 7 368 164 253 415 87 311 54 
11 7 44 76 426 112 409 133 352 
12 7 86 444 41 40 384 98 450 
13 7 19 467 215 157 356 226 390 
14 6 254 383 389 233 69 488 
15 7 414 491 188 217 73 310 367 
16 5 456 27 68 282 479 
17 7 352 409 328 59 112 430 426 
18 7 123 173 373 212 213 63 116 
19 7 13 215 467 157 6 226 356 
20 7 110 261 77 425 30 185 429 
21 6 313 169 451 473 144 262 
22 7 154 302 189 43 232 65 357 
23 6 130 449 475 154 189 459 
24 7 396 109 251 403 275 50 93 
25 7 72 347 83 266 412 187 477 
26 7 399 231 382 191 41 179 490 
27 6 387 16 192 321 489 140 
28 3 443 171 404 
29 6 310 73 371 320 367 188 
30 7 425 110 20 261 485 427 77 
31 7 114 317 141 397 393 395 287 
32 7 362 7 437 106 349 190 100 
33 7 432 107 216 143 324 474 483 
34 7 196 299 330 106 70 100 273 
35 7 167 457 440 359 354 464 84 
36 7 132 297 155 225 229 235 259 
37 6 264 429 465 487 370 184 
38 7 369 280 472 183 208 108 170 
39 7 159 470 410 180 408 386 237 
40 7 303 75 268 86 252 284 12 
41 7 12 490 444 26 382 399 231 
42 7 145 256 142 292 419 435 58 
43 7 302 232 22 154 204 189 257 
44 7 11 76 409 426 112 352 328 
45 7 442 366 88 461 92 182 202 
46 6 348 111 279 87 165 127 
47 6 295 486 250 272 157 215 
48 7 336 80 340 95 445 67 219 
49 7 126 481 223 401 283 136 104 
50 7 64 251 351 24 396 109 403 
51 7 148 75 146 268 464 284 303 
52 7 121 82 375 466 315 404 125 
53 7 260 386 374 415 423 470 366 
54 7 442 461 182 311 366 368 45 
55 7 388 150 134 230 139 334 8 
56 7 398 91 71 267 385 343 400 
57 5 234 161 125 9 341 
58 7 329 242 294 453 291 433 155 
59 7 160 90 17 199 352 328 409 
60 7 334 230 150 55 388 134 438 
61 7 289 103 99 358 162 135 367 
62 7 89 69 390 226 478 96 262 
63 7 212 314 281 165 173 373 147 
64 7 50 351 6 251 396 24 109 
65 7 372 22 154 158 43 302 407 
66 7 331 198 377 240 119 143 236 
67 7 219 194 220 469 80 95 445 
68 4 282 456 479 116 
69 7 478 89 62 390 14 226 96 
70 7 433 453 153 330 242 106 291 
71 7 91 267 305 56 398 400 237 
72 7 25 347 83 412 266 477 187 
73 6 310 29 367 188 371 15 
74 7 210 227 460 85 463 296 239 
75 7 268 303 40 51 284 148 252 
76 7 44 11 378 186 290 409 426 
77 6 261 20 110 185 420 264 
78 7 265 301 309 224 322 364 166 
79 7 402 430 290 37 465 487 328 
80 7 95 445 336 219 67 220 194 
81 5 421 482 378 76 357 
82 7 52 121 466 375 283 315 458 
83 7 266 25 72 152 347 105 271 
84 7 316 228 304 457 354 440 167 
85 7 3 239 463 74 214 210 263 
86 7 12 444 450 40 98 284 303 
87 7 279 348 46 111 253 311 127 
88 7 202 182 461 92 442 45 258 
89 7 390 62 226 69 96 488 478 
90 7 199 59 160 332 17 428 380 
91 7 71 267 305 56 398 400 353 
92 7 88 258 202 45 182 222 442 
93 7 275 396 346 24 251 109 207 
94 7 248 276 178 205 293 207 346 
95 7 80 445 336 219 67 220 194 
96 7 488 233 226 390 89 14 69 
97 7 353 398 115 56 91 267 71 
98 7 444 462 301 86 450 78 166 
99 7 289 103 61 358 162 135 367 
100 5 122 360 184 196 370 
101 7 181 249 448 224 335 163 322 
102 6 492 307 300 133 350 421 
103 7 289 61 99 358 162 135 367 
104 5 161 416 320 136 188 
105 5 152 411 308 238 271 
106 7 196 7 330 32 34 362 100 
107 7 216 483 432 474 33 197 241 
108 7 369 67 280 219 183 340 194 
109 7 24 396 403 251 275 93 50 
110 7 261 425 20 30 77 185 420 
111 7 348 46 147 87 165 253 279 
112 7 426 409 352 17 245 328 44 
113 7 344 211 342 361 138 278 471 
114 7 317 31 395 397 141 391 393 
115 7 353 97 398 267 91 56 71 
116 6 213 123 18 282 68 173 
117 7 208 192 472 38 170 369 280 
118 7 207 312 205 346 248 351 94 
119 5 240 377 198 331 66 
120 6 231 399 454 26 326 382 
121 7 52 82 375 404 315 466 125 
122 5 360 273 100 420 184 
123 7 18 213 288 116 173 373 212 
124 7 435 143 292 66 33 365 432 
125 7 315 9 466 57 452 439 161 
126 7 49 283 481 223 401 161 466 
127 6 255 279 311 427 485 87 
128 6 287 480 446 31 323 46 
129 4 60 298 379 438 
130 6 23 449 475 154 189 22 
131 7 241 474 153 7 216 349 106 
132 7 36 297 229 259 155 327 225 
133 6 300 441 245 307 11 426 
134 7 55 388 150 230 333 334 139 
135 7 61 162 289 99 358 103 187 
136 7 401 188 217 481 104 491 49 
137 7 201 296 227 448 149 101 74 
138 5 278 342 113 361 211 
139 7 8 175 200 263 150 434 463 
140 5 489 321 468 5 170 
141 7 393 397 31 317 221 151 114 
142 6 145 256 371 42 198 119 
143 7 124 365 66 33 270 435 292 
144 6 473 306 478 451 69 21 
145 6 142 256 42 371 419 292 
146 7 284 148 51 35 464 75 457 
147 7 281 165 111 348 212 314 63 
148 7 51 464 146 35 284 359 75 
149 7 296 201 227 460 74 210 137 
150 7 388 55 134 139 8 230 334 
151 6 221 323 141 393 31 211 
152 7 105 411 247 83 266 229 297 
153 7 70 131 433 453 241 330 106 
154 7 22 189 302 232 43 357 65 
155 7 294 327 291 247 36 132 242 
156 6 459 407 158 178 346 23 
157 6 467 215 13 19 295 356 
158 5 407 372 65 156 459 
159 7 180 39 408 237 305 470 267 
160 7 59 90 199 17 20 332 110 
161 5 57 104 234 125 416 
162 7 358 61 103 289 99 392 135 
163 5 476 249 246 318 101 
164 7 10 253 368 147 111 87 281 
165 7 314 147 281 111 348 63 212 
166 7 322 462 224 78 181 309 335 
167 6 440 457 354 35 228 84 
168 7 424 437 4 484 402 190 257 
169 4 21 451 313 262 
170 7 472 5 140 183 468 280 489 
171 3 443 28 274 
172 7 410 39 115 470 159 337 353 
173 7 63 212 18 373 269 314 394 
174 7 252 384 303 268 75 40 51 
175 7 8 200 139 263 422 434 463 
176 6 431 350 254 343 383 14 
177 6 379 298 438 434 200 8 
178 7 276 94 346 207 248 205 293 
179 4 191 382 26 231 
180 7 408 159 237 305 39 374 470 
181 7 224 322 448 101 309 265 166 
182 7 461 202 88 380 428 442 332 
183 6 280 218 447 108 38 5 
184 5 370 360 100 465 487 
185 5 420 77 261 110 122 
186 7 285 378 290 76 232 484 44 
187 7 412 417 469 347 25 72 135 
188 7 310 491 73 15 217 29 136 
189 6 154 357 22 232 302 43 
190 7 487 465 402 424 437 362 32 
191 5 179 382 26 490 231 
192 7 117 27 387 472 170 208 140 
193 7 376 326 355 48 401 340 217 
194 7 220 219 469 67 445 80 95 
195 3 293 276 94 
196 7 34 106 330 299 100 7 273 
197 6 338 483 405 4 107 381 
198 6 119 377 240 331 66 256 
199 7 90 332 59 160 428 380 17 
200 7 8 175 434 139 177 263 438 
201 6 296 137 149 227 74 210 
202 7 88 182 461 380 332 428 258 
203 5 413 477 5 218 271 
204 7 257 484 405 43 338 4 302 
205 7 248 94 118 207 276 178 312 
206 5 319 341 452 9 439 
207 7 346 118 205 178 94 248 276 
208 7 38 472 117 369 280 183 170 
209 7 473 144 21 97 353 313 306 
210 7 74 460 227 463 85 239 296 
211 7 113 323 344 151 471 221 138 
212 7 281 63 373 147 165 314 173 
213 7 116 123 288 18 173 68 282 
214 7 3 85 239 277 272 422 263 
215 7 157 467 19 13 295 6 47 
216 7 474 432 107 33 131 241 349 
217 7 491 414 15 188 136 73 310 
218 6 413 447 477 203 5 417 
219 7 67 194 220 469 80 95 445 
220 7 194 469 219 67 445 135 95 
221 6 151 141 323 393 31 397 
222 6 400 92 102 492 258 343 
223 7 283 126 49 458 82 466 481 
224 7 181 448 322 309 265 78 101 
225 7 436 2 235 345 406 36 391 
226 7 390 89 96 488 13 19 62 
227 7 74 210 296 460 201 137 85 
228 7 84 316 354 457 304 440 167 
229 6 259 297 132 36 247 235 
230 7 333 134 334 55 388 60 150 
231 6 399 26 382 191 179 41 
232 7 302 43 189 22 154 357 186 
233 7 488 96 389 403 14 109 226 
234 5 57 341 161 125 9 
235 6 225 436 345 2 391 259 
236 5 331 365 66 377 240 
237 7 408 180 305 159 267 71 374 
238 4 411 308 105 229 
239 7 3 463 263 85 422 214 175 
240 5 119 377 198 331 66 
241 7 131 474 7 349 216 153 32 
242 7 453 291 294 433 329 58 70 
243 5 363 403 475 109 23 
244 7 392 419 327 58 247 155 294 
245 6 441 426 112 133 300 409 
246 5 249 163 476 101 318 
247 7 327 297 155 132 36 229 294 
248 7 94 205 276 293 178 207 118 
249 5 246 163 476 101 318 
250 5 47 486 295 272 215 
251 7 396 24 50 109 93 275 403 
252 7 384 303 40 268 75 12 86 
253 7 164 87 10 368 111 348 147 
254 5 14 383 389 176 431 
255 6 127 427 485 279 455 87 
256 6 142 145 42 198 292 371 
257 7 484 204 405 4 168 338 43 
258 6 92 202 245 441 88 300 
259 5 229 297 132 235 36 
260 7 53 423 386 415 374 10 164 
261 7 110 77 20 425 185 420 30 
262 3 451 62 169 
263 7 422 239 463 175 3 8 85 
264 5 429 37 370 77 465 
265 7 309 448 78 224 181 322 364 
266 7 83 25 72 152 347 105 412 
267 7 71 91 305 56 398 237 353 
268 7 75 303 40 51 252 284 148 
269 6 394 314 63 173 165 212 
270 5 324 365 143 33 236 
271 4 308 411 105 238 
272 6 486 47 295 214 250 277 
273 6 122 418 299 100 360 420 
274 7 335 318 101 322 166 181 163 
275 7 93 396 24 109 251 346 207 
276 7 94 178 248 293 205 207 346 
277 6 214 85 3 272 486 239 
278 5 138 342 113 211 308 
279 7 87 46 127 348 255 311 111 
280 6 183 108 38 218 369 447 
281 7 147 212 165 63 373 314 111 
282 4 68 479 456 116 
283 7 126 223 466 49 82 125 161 
284 7 146 450 75 40 86 148 51 
285 7 186 378 290 232 257 484 76 
286 6 471 344 361 113 342 211 
287 7 323 31 128 151 221 141 114 
288 7 123 213 18 116 325 423 373 
289 7 61 99 103 358 162 135 367 
290 7 79 430 186 328 285 76 352 
291 7 294 155 242 453 327 329 58 
292 7 124 435 42 66 256 143 198 
293 5 248 94 276 178 195 
294 7 291 155 242 327 329 58 453 
295 6 47 250 486 272 157 215 
296 7 149 201 227 137 74 460 210 
297 7 229 132 247 259 36 327 155 
298 6 438 379 177 200 434 8 
299 7 34 273 196 100 122 418 330 
300 6 133 441 307 245 11 492 
301 7 78 364 265 309 450 166 224 
302 7 232 22 43 154 189 357 204 
303 7 40 268 75 252 384 86 284 
304 6 316 84 228 457 364 149 
305 7 267 71 91 237 408 56 159 
306 6 144 473 478 69 254 176 
307 6 492 102 300 133 421 441 
308 4 411 271 238 105 
309 7 265 224 448 78 181 322 364 
310 6 73 29 367 188 371 15 
311 7 279 87 127 54 368 253 255 
312 7 118 205 351 207 50 64 248 
313 4 21 169 451 262 
314 7 165 63 281 212 147 269 111 
315 7 125 9 466 439 452 404 121 
316 6 84 304 228 457 440 354 
317 6 114 397 31 141 393 395 
318 6 163 476 335 274 249 101 
319 4 206 341 452 9 
320 2 416 29 
321 5 489 140 468 5 456 
322 7 224 181 166 448 309 78 101 
323 7 151 211 221 287 141 31 113 
324 5 270 33 365 483 432 
325 7 288 213 123 337 116 18 423 
326 7 355 49 401 223 126 458 481 
327 7 247 155 294 297 291 132 36 
328 7 352 430 409 17 112 426 290 
329 7 58 242 453 294 291 433 70 
330 7 34 196 106 70 153 433 299 
331 7 66 377 198 240 119 236 365 
332 7 199 380 428 90 59 160 182 
333 5 230 134 334 55 388 
334 7 60 230 55 134 150 388 333 
335 7 274 318 101 181 322 166 163 
336 7 95 445 80 414 15 48 491 
337 7 386 470 53 39 260 410 159 
338 6 405 197 4 204 381 257 
339 4 490 375 98 462 
340 7 48 80 67 95 219 108 336 
341 6 452 206 319 9 439 234 
342 6 361 138 113 278 344 211 
343 7 385 400 56 176 398 222 91 
344 7 113 471 211 361 342 323 138 
345 6 2 436 225 235 391 406 
346 7 207 178 93 275 276 94 118 
347 7 72 25 412 477 83 417 187 
348 7 111 46 87 147 165 279 253 
349 7 241 7 437 32 4 362 474 
350 5 431 176 102 492 383 
351 7 64 50 6 312 118 251 396 
352 7 328 409 17 430 112 426 44 
353 7 97 115 398 56 91 267 71 
354 5 440 167 228 457 84 
355 7 326 49 401 481 126 223 136 
356 4 467 13 157 19 
357 6 189 232 482 154 302 22 
358 7 103 61 162 289 99 135 392 
359 6 464 35 167 440 148 457 
360 5 122 184 370 420 100 
361 7 342 113 344 138 211 278 471 
362 7 32 7 437 106 190 349 100 
363 4 243 475 449 23 
364 6 301 78 265 309 304 224 
365 7 270 143 236 66 331 324 124 
366 7 374 45 442 415 54 461 88 
367 6 73 371 310 29 103 142 
368 7 10 164 253 415 311 54 87 
369 7 108 38 280 183 340 67 219 
370 5 184 360 264 37 420 
371 6 142 145 256 367 29 119 
372 6 65 158 407 22 154 43 
373 7 212 281 63 18 147 173 165 
374 7 366 415 45 408 442 53 237 
375 5 52 121 82 404 339 
376 7 193 326 355 120 401 48 49 
377 6 240 119 198 331 66 236 
378 7 186 285 76 482 81 357 11 
379 6 298 177 438 434 200 8 
380 7 428 332 182 199 461 90 202 
381 5 483 197 338 405 107 
382 6 26 231 191 399 179 490 
383 5 389 254 14 350 233 
384 7 252 303 40 12 268 41 86 
385 7 343 56 398 400 91 97 176 
386 7 53 260 470 337 180 374 423 
387 6 27 16 192 321 489 140 
388 7 55 150 134 139 230 334 8 
389 5 383 233 14 254 243 
390 7 226 89 96 62 488 13 69 
391 6 345 2 436 235 114 317 
392 7 419 244 162 42 358 145 58 
393 5 141 397 317 31 221 
394 3 269 173 63 
395 7 114 317 31 446 391 397 141 
396 7 24 251 109 275 93 403 50 
397 5 317 393 141 31 114 
398 7 56 97 353 91 71 267 115 
399 6 231 26 382 191 41 179 
400 7 343 222 56 385 71 91 267 
401 7 481 136 49 126 104 217 188 
402 7 190 79 424 465 487 168 290 
403 7 109 24 396 251 50 275 93 
404 7 439 121 315 52 9 452 28 
405 6 338 4 197 204 257 484 
406 7 2 345 436 418 225 391 235 
407 5 158 156 372 65 459 
408 7 180 237 159 374 305 366 45 
409 7 352 112 426 17 328 430 44 
410 7 39 159 470 115 172 180 408 
411 4 238 308 105 271 
412 6 187 417 347 72 25 447 
413 6 477 203 218 347 72 447 
414 7 15 491 217 188 336 73 310 
415 7 10 368 366 374 54 164 260 
416 2 320 104 
417 6 447 412 187 347 72 25 
418 5 273 406 299 122 2 
419 7 392 244 42 145 162 142 58 
420 5 185 360 77 122 261 
421 4 81 482 307 357 
422 7 263 239 3 463 175 214 434 
423 7 260 164 10 53 415 373 368 
424 7 168 437 402 4 190 484 349 
425 7 30 110 261 20 77 185 485 
426 7 112 409 245 352 17 44 328 
427 5 485 455 30 425 255 
428 7 380 332 199 182 90 461 202 
429 5 264 37 77 370 465 
430 7 328 352 17 79 409 290 112 
431 6 176 350 254 383 102 492 
432 7 33 216 107 474 483 131 143 
433 7 70 453 242 153 291 329 330 
434 5 200 8 177 175 379 
435 7 124 292 143 58 329 42 66 
436 6 2 345 225 235 406 391 
437 7 424 168 349 4 32 190 362 
438 7 298 379 177 200 8 434 139 
439 7 452 9 341 315 404 206 125 
440 6 167 354 457 228 35 84 
441 6 245 133 300 426 112 11 
442 7 45 461 182 88 54 366 202 
443 2 171 28 
444 7 98 12 86 41 490 450 301 
445 7 95 80 336 220 219 194 67 
446 4 395 455 114 31 
447 6 417 412 218 347 187 72 
448 7 224 181 309 265 322 101 78 
449 3 475 130 23 
450 7 86 284 301 364 98 78 444 
451 6 169 21 262 473 144 62 
452 6 9 341 439 206 319 315 
453 7 433 242 70 329 153 291 58 
454 6 120 174 376 399 231 26 
455 5 427 485 446 418 30 
456 3 479 68 282 
457 7 440 167 84 228 354 35 316 
458 4 223 82 179 283 
459 6 156 275 93 23 346 407 
460 7 210 74 227 296 463 149 85 
461 7 182 202 88 442 380 428 54 
462 7 166 78 322 224 301 98 181 
463 7 239 263 3 422 85 175 210 
464 7 359 148 35 51 146 167 457 
465 7 487 37 190 184 370 264 402 
466 7 315 125 52 82 121 283 9 
467 6 157 215 13 19 356 295 
468 6 140 489 5 321 203 413 
469 7 194 220 219 187 67 135 412 
470 7 39 386 337 159 180 53 408 
471 7 344 113 211 286 323 361 480 
472 7 170 38 183 280 208 5 140 
473 6 144 306 451 478 21 69 
474 7 216 241 131 107 432 349 33 
475 3 449 130 23 
476 5 163 246 249 318 101 
477 6 413 347 72 203 25 218 
478 6 69 62 306 89 144 14 
479 3 456 282 68 
480 7 128 471 314 165 269 287 46 
481 7 49 401 126 136 104 283 223 
482 4 81 421 357 378 
483 5 107 197 381 338 33 
484 7 257 204 168 4 405 424 285 
485 5 427 455 30 425 255 
486 6 272 47 250 295 214 277 
487 7 465 190 37 184 370 264 402 
488 7 96 233 226 390 89 389 14 
489 5 321 140 468 5 170 
490 5 339 41 191 382 444 
491 7 15 414 217 188 73 310 136 
492 6 102 307 300 133 350 421 
DEPOT_SECTION
   1
   -1
EOF
