NAME :  X-n573-kX-w57-c11.cctp
COMMENT : 	Adapted by Maziero, Usberti and Cavellucci from the Uchoa, Pecin, Pessoa, Poggi, Subramanian, and Vidal (2013)
TYPE :  CCTP
DIMENSION :    436
EDGE_WEIGHT_TYPE : 	EUC_2D	
CAPACITY : 	210
VERTICES_WITHIN_COVERAGE :  11
VERTICES_WITH_DEMAND : 	57
NODE_COORD_SECTION
1 0 0
2 753 355
3 663 83
4 725 286
5 734 504
6 704 145
7 728 311
8 675 58
9 617 242
10 864 334
11 772 258
12 516 109
13 717 123
14 768 161
15 598 365
16 896 569
17 781 281
18 898 397
19 714 126
20 780 311
21 809 60
22 728 244
23 724 219
24 712 177
25 694 432
26 491 157
27 854 648
28 612 179
29 623 337
30 788 320
31 772 378
32 736 308
33 692 303
34 737 334
35 576 27
36 731 360
37 763 301
38 633 578
39 935 244
40 513 73
41 511 133
42 671 349
43 729 254
44 771 261
45 851 278
46 827 365
47 682 113
48 553 425
49 544 282
50 706 165
51 527 26
52 580 220
53 908 303
54 841 306
55 656 34
56 864 196
57 618 270
58 699 347
59 787 289
60 678 11
61 757 114
62 706 157
63 713 243
64 767 131
65 718 334
66 871 216
67 694 435
68 617 345
69 645 75
70 513 50
71 767 259
72 773 313
73 760 287
74 595 425
75 763 240
76 569 225
77 702 417
78 593 51
79 656 83
80 532 93
81 834 351
82 832 274
83 751 126
84 796 290
85 872 212
86 835 257
87 702 185
88 596 422
89 740 147
90 890 180
91 556 120
92 748 319
93 594 302
94 731 321
95 703 296
96 614 503
97 715 179
98 781 317
99 841 365
100 783 270
101 770 372
102 907 192
103 913 434
104 647 749
105 683 171
106 359 195
107 585 218
108 914 399
109 681 323
110 603 251
111 554 275
112 762 315
113 813 342
114 801 379
115 727 221
116 715 314
117 731 363
118 788 250
119 649 29
120 567 325
121 669 54
122 785 537
123 765 384
124 654 348
125 677 313
126 814 112
127 658 353
128 550 42
129 853 372
130 540 24
131 661 37
132 769 395
133 714 325
134 729 241
135 715 360
136 697 213
137 704 114
138 699 231
139 911 240
140 789 296
141 598 279
142 864 347
143 844 382
144 590 28
145 734 288
146 641 174
147 789 60
148 729 563
149 626 159
150 610 15
151 1000 201
152 875 408
153 419 38
154 671 63
155 693 73
156 803 184
157 690 55
158 511 191
159 899 256
160 827 287
161 672 526
162 755 311
163 770 321
164 750 262
165 665 436
166 595 339
167 736 240
168 747 298
169 511 179
170 753 707
171 413 402
172 737 328
173 711 285
174 800 288
175 804 352
176 678 59
177 825 278
178 736 469
179 728 268
180 641 245
181 617 646
182 903 84
183 646 72
184 865 386
185 928 420
186 668 91
187 702 123
188 705 306
189 574 355
190 684 468
191 700 483
192 767 394
193 544 253
194 746 356
195 737 130
196 638 79
197 600 47
198 734 377
199 652 13
200 482 164
201 737 249
202 740 161
203 554 181
204 623 270
205 748 363
206 878 250
207 663 78
208 718 309
209 711 345
210 734 195
211 691 372
212 793 263
213 717 372
214 677 120
215 708 173
216 483 71
217 851 348
218 776 165
219 807 346
220 659 341
221 732 272
222 739 375
223 907 319
224 777 316
225 668 72
226 766 304
227 696 412
228 878 216
229 507 50
230 673 295
231 676 104
232 756 332
233 705 186
234 657 99
235 827 350
236 662 529
237 759 191
238 646 242
239 566 258
240 645 338
241 546 60
242 748 263
243 785 387
244 510 198
245 937 390
246 759 274
247 714 352
248 674 332
249 712 354
250 685 112
251 728 372
252 703 99
253 692 48
254 746 335
255 791 248
256 732 249
257 503 63
258 877 228
259 812 137
260 788 235
261 616 343
262 830 330
263 681 162
264 809 41
265 845 394
266 602 236
267 590 57
268 766 375
269 657 113
270 643 248
271 623 315
272 805 534
273 639 178
274 779 398
275 680 289
276 994 383
277 463 284
278 715 367
279 625 297
280 773 278
281 701 345
282 729 331
283 807 287
284 638 7
285 669 12
286 587 403
287 962 294
288 717 278
289 557 161
290 565 465
291 631 245
292 816 144
293 706 90
294 839 190
295 754 358
296 687 82
297 692 441
298 839 365
299 763 191
300 724 301
301 697 159
302 776 276
303 892 182
304 602 33
305 487 297
306 721 103
307 744 240
308 571 6
309 737 308
310 736 197
311 668 304
312 863 289
313 628 358
314 857 330
315 755 375
316 601 537
317 759 310
318 704 272
319 642 346
320 710 240
321 877 382
322 877 287
323 573 197
324 339 383
325 754 254
326 694 52
327 814 293
328 703 274
329 496 169
330 766 182
331 480 92
332 847 178
333 928 298
334 871 664
335 656 36
336 753 175
337 742 128
338 760 363
339 677 376
340 761 383
341 773 366
342 710 177
343 762 378
344 876 191
345 801 250
346 481 159
347 839 209
348 544 312
349 749 288
350 704 91
351 722 176
352 608 213
353 720 277
354 757 350
355 697 229
356 890 258
357 779 273
358 949 223
359 674 438
360 626 293
361 716 467
362 593 371
363 872 314
364 616 310
365 670 454
366 762 339
367 676 366
368 766 236
369 671 75
370 901 344
371 737 290
372 784 319
373 783 268
374 792 335
375 813 294
376 768 302
377 770 281
378 798 190
379 696 305
380 714 336
381 684 65
382 686 329
383 751 357
384 734 295
385 538 203
386 104 364
387 689 47
388 621 231
389 595 31
390 793 258
391 844 287
392 630 165
393 537 118
394 783 359
395 673 280
396 676 466
397 738 221
398 556 84
399 789 84
400 624 239
401 711 338
402 229 166
403 782 342
404 589 39
405 533 226
406 704 206
407 644 66
408 830 288
409 660 72
410 554 11
411 755 300
412 587 243
413 708 115
414 610 16
415 774 505
416 936 268
417 693 592
418 817 108
419 710 305
420 739 217
421 711 456
422 783 128
423 761 313
424 817 400
425 554 297
426 778 342
427 701 286
428 735 275
429 792 334
430 674 111
431 754 300
432 740 149
433 798 531
434 530 155
435 532 181
436 587 360
DEMAND_SECTION
2 78
3 96
4 64
5 87
6 70
7 57
8 63
9 86
10 89
11 64
12 53
13 86
14 69
15 94
16 62
17 96
18 89
19 92
20 72
21 59
22 93
23 55
24 96
25 81
26 65
27 52
28 99
29 99
30 57
31 100
32 73
33 61
34 64
35 85
36 69
37 55
38 95
39 95
40 64
41 73
42 99
43 88
44 89
45 10
46 9
47 5
48 1
49 3
50 9
51 5
52 4
53 10
54 3
55 5
56 7
57 9
58 6
COVERAGE_SECTION
2 11 295 383 354 194 205 338 366 315 254 36 117 
3 11 207 79 186 369 409 225 234 69 183 154 296 
4 11 145 353 288 371 384 173 300 428 221 179 95 
5 11 178 191 415 361 421 148 122 190 161 396 433 
6 11 62 301 50 19 187 13 215 263 413 137 24 
7 11 32 309 94 208 300 116 384 172 419 133 282 
8 11 176 154 121 381 157 225 369 387 253 326 409 
9 11 400 388 291 266 110 180 270 57 204 238 352 
10 11 314 142 217 363 81 262 54 370 99 129 235 
11 11 44 71 373 100 357 118 302 325 75 280 246 
12 11 80 393 41 40 331 91 398 257 434 216 26 
13 11 19 413 187 137 306 195 337 6 252 89 83 
14 11 218 330 336 202 64 299 432 89 237 422 83 
15 9 362 436 166 189 68 261 313 29 286 
16 3 27 272 334 
17 11 302 357 280 59 100 377 373 84 140 174 44 
18 9 108 152 321 184 185 103 245 129 265 
19 11 13 187 413 137 6 195 306 337 252 62 250 
20 10 98 224 72 372 30 163 376 226 140 112 
21 6 264 147 399 418 126 422 
22 10 134 256 167 43 201 63 307 320 115 179 
23 10 115 397 420 134 167 406 22 310 320 63 
24 9 342 97 215 351 233 50 87 62 301 
25 11 67 297 77 227 359 165 421 365 190 396 361 
26 11 346 200 329 169 41 158 434 244 435 12 393 
27 8 334 16 170 272 433 122 148 415 
28 6 392 149 273 146 352 323 
29 8 261 68 319 240 271 313 166 364 
30 10 372 98 20 224 429 374 72 163 403 140 
31 11 101 268 123 343 340 341 243 132 192 315 338 
32 11 309 7 384 94 300 168 92 208 371 162 145 
33 11 379 95 188 125 275 419 427 230 109 311 116 
34 10 172 254 282 94 65 92 232 380 194 7 
35 11 144 404 389 308 304 410 78 128 197 267 130 
36 11 117 251 135 194 198 205 222 278 213 247 249 
37 11 226 376 411 431 317 423 162 73 112 72 168 
38 11 316 236 417 161 181 96 148 191 396 190 5 
39 11 139 416 358 159 356 333 206 287 102 258 228 
40 11 257 70 229 80 216 241 12 331 398 128 51 
41 11 12 434 393 26 329 346 200 80 169 91 331 
42 10 127 220 124 248 367 382 58 109 240 339 
43 11 256 201 22 134 179 167 221 63 242 307 164 
44 11 11 71 357 373 100 302 280 246 325 118 377 
45 11 391 312 82 408 86 160 177 322 54 206 327 
46 11 298 99 235 81 143 175 113 129 219 217 114 
47 11 250 430 214 231 137 187 252 269 186 413 234 
48 8 286 74 290 88 362 189 436 15 
49 11 111 425 193 348 239 120 93 141 405 412 305 
50 11 62 215 301 24 342 97 351 6 87 233 105 
51 11 130 70 128 229 410 241 257 308 35 40 144 
52 11 107 76 323 412 266 352 110 239 388 9 385 
53 11 223 333 322 363 370 416 312 159 356 10 287 
54 11 391 408 160 262 312 314 45 327 375 177 363 
55 11 335 131 119 199 121 285 8 60 284 154 176 
56 11 344 85 66 228 332 294 347 90 303 258 102 
57 10 204 141 110 360 9 279 291 400 270 180 
58 11 281 209 249 401 247 380 135 382 65 211 278 
59 11 140 84 17 174 302 280 357 100 377 283 373 
60 11 285 199 131 55 335 119 387 253 284 121 326 
61 9 83 64 337 195 422 89 306 432 13 
62 11 50 301 6 215 342 24 97 263 351 105 87 
63 10 320 22 134 138 43 256 355 167 201 23 
64 11 422 83 61 337 14 195 89 432 218 202 259 
65 11 380 401 133 282 209 94 247 34 116 172 281 
66 11 85 228 258 56 344 347 206 303 90 294 102 
67 11 25 297 77 359 227 421 165 365 190 396 361 
68 11 261 29 313 166 319 15 240 271 436 362 364 
69 8 183 196 407 79 409 207 3 225 
70 11 229 257 40 51 241 130 216 128 80 331 398 
71 11 44 11 325 164 246 357 373 75 100 242 302 
72 10 224 20 98 163 112 226 376 423 372 317 
73 11 349 377 246 37 411 431 280 168 376 226 302 
74 5 88 286 48 290 362 
75 6 368 325 71 307 11 44 
76 11 52 107 412 323 239 266 405 193 385 352 110 
77 5 227 25 67 297 359 
78 7 267 197 404 304 389 144 35 
79 11 3 207 409 69 186 183 225 234 369 196 407 
80 10 12 393 398 40 91 241 257 41 70 229 
81 11 235 298 46 99 217 262 113 219 129 142 175 
82 10 177 160 408 86 391 45 327 283 375 54 
83 11 337 61 195 64 89 432 422 13 19 202 306 
84 11 174 59 140 283 17 375 327 100 302 357 20 
85 11 66 228 258 56 344 347 303 90 206 102 294 
86 9 82 177 45 160 391 408 345 283 212 
87 8 233 342 24 215 97 50 406 351 
88 5 74 286 48 362 290 
89 11 432 202 195 337 83 14 64 336 13 19 351 
90 11 303 344 102 56 85 228 66 332 258 294 347 
91 6 393 80 398 12 289 434 
92 9 162 172 317 423 112 232 32 254 309 
93 10 141 364 279 271 360 120 166 57 425 204 
94 11 172 7 282 32 34 309 92 116 133 65 208 
95 11 188 427 379 419 33 173 208 116 300 328 288 
96 7 316 236 161 290 396 365 38 
97 10 24 342 351 215 233 87 50 62 210 301 
98 10 224 372 20 30 72 163 112 226 376 423 
99 10 298 46 129 81 143 217 235 142 265 184 
100 11 373 357 302 17 212 280 44 11 390 377 59 
101 11 268 31 341 343 123 338 340 315 394 243 295 
102 11 303 90 344 228 85 56 66 258 139 358 39 
103 6 185 108 18 152 245 321 
104 11 181 170 417 38 148 316 236 161 27 334 96 
105 4 263 301 50 87 
106 11 200 346 402 26 277 329 244 158 169 331 41 
107 11 52 76 323 352 266 412 110 388 9 239 400 
108 8 18 185 245 103 152 321 184 370 
109 8 382 125 248 33 311 379 42 220 
110 11 266 9 412 57 400 388 141 204 291 107 180 
111 11 49 239 425 193 348 141 412 93 76 120 405 
112 8 423 317 162 163 72 226 37 376 
113 11 219 175 235 262 374 429 81 46 403 30 394 
114 11 243 424 175 394 31 274 46 341 101 219 268 
115 7 23 397 420 134 167 22 307 
116 11 208 419 133 7 188 300 94 65 379 32 95 
117 11 36 251 198 222 135 278 194 205 213 247 249 
118 10 255 390 345 212 260 11 373 44 100 71 
119 11 55 335 131 199 284 285 121 60 407 8 154 
120 11 348 166 189 425 93 436 49 15 364 111 261 
121 11 8 154 176 225 131 381 409 157 369 387 335 
122 6 433 272 415 5 148 178 
123 9 340 343 31 268 192 132 101 315 243 
124 7 127 220 319 240 42 248 313 
125 8 109 311 33 230 382 248 379 275 
126 11 418 259 292 422 399 64 21 61 147 83 218 
127 8 124 220 42 319 240 367 248 313 
128 11 241 130 51 35 410 70 404 144 308 398 267 
129 9 143 99 298 184 265 217 321 46 142 
130 11 51 410 128 35 241 308 70 229 144 404 257 
131 11 335 55 119 121 8 199 285 154 176 387 60 
132 9 192 274 123 340 31 243 343 268 101 
133 11 65 116 380 401 208 282 94 7 209 419 188 
134 10 22 167 256 201 43 307 63 320 115 397 
135 11 249 278 247 213 36 117 209 251 58 281 401 
136 8 406 355 138 23 87 233 320 115 
137 11 413 187 252 13 19 250 306 47 350 293 214 
138 8 355 320 63 136 406 23 115 22 
139 11 159 39 356 206 258 416 228 358 66 85 102 
140 11 59 84 174 17 20 283 98 376 72 224 30 
141 10 57 93 204 110 360 279 364 239 412 9 
142 10 10 217 314 129 99 81 298 363 235 321 
143 9 265 129 99 298 184 46 424 81 321 
144 10 389 404 304 35 197 78 414 150 267 308 
145 11 371 384 4 428 349 168 221 300 353 32 288 
146 4 273 392 149 28 
147 6 21 399 264 418 126 61 
148 11 417 5 122 161 415 236 433 272 191 178 38 
149 4 392 146 273 28 
150 11 414 304 389 144 284 404 197 35 78 308 119 
151 11 358 39 102 416 139 287 303 90 159 333 228 
152 6 184 18 321 265 108 143 
153 11 216 331 257 229 70 40 51 12 130 80 241 
154 11 8 176 121 225 369 381 409 207 157 3 155 
155 10 296 381 157 176 293 326 350 369 8 154 
156 9 378 218 294 330 299 14 292 332 347 
157 9 326 253 387 381 176 8 155 121 154 
158 11 244 169 435 329 385 26 200 405 434 203 346 
159 11 356 139 206 258 39 322 416 228 53 66 312 
160 10 408 177 82 327 375 391 283 54 45 174 
161 11 236 191 190 396 96 38 5 148 417 316 365 
162 8 317 423 112 92 411 431 37 226 
163 8 72 224 112 98 423 20 372 317 
164 11 242 325 246 71 201 428 44 221 11 43 256 
165 7 359 365 297 25 67 396 190 
166 11 261 436 68 15 189 29 120 362 364 93 271 
167 9 134 307 22 201 256 43 397 115 63 
168 11 431 411 349 371 384 309 32 162 37 145 73 
169 11 158 329 244 435 26 434 200 346 385 203 41 
170 11 104 27 334 417 148 181 122 38 272 433 161 
171 11 324 277 305 48 348 290 189 120 286 425 49 
172 10 34 94 282 254 92 7 232 32 65 309 
173 11 288 427 353 4 95 328 318 419 300 188 145 
174 11 84 283 59 140 375 327 17 100 212 357 373 
175 11 219 113 374 394 429 235 403 46 114 426 81 
176 11 8 154 381 121 157 225 387 326 369 253 155 
177 10 82 160 408 327 283 375 391 86 45 174 
178 7 361 421 5 191 190 297 415 
179 11 221 428 353 43 288 4 256 145 201 242 164 
180 7 270 238 291 400 9 388 204 
181 11 38 417 104 316 236 161 148 96 170 191 5 
182 11 418 126 21 90 303 264 259 292 102 332 344 
183 8 69 407 196 409 79 207 3 225 
184 8 321 129 143 265 152 99 298 18 
185 7 103 108 245 18 152 321 184 
186 11 3 79 207 234 231 369 225 296 409 430 269 
187 11 137 413 19 13 250 6 47 252 214 306 430 
188 11 419 379 95 33 116 208 300 427 133 173 7 
189 11 436 362 15 166 120 68 261 286 29 348 313 
190 11 396 365 191 297 421 359 361 67 25 165 178 
191 11 190 361 396 421 178 5 365 297 67 25 161 
192 8 132 123 274 340 31 343 243 268 
193 11 239 111 49 405 76 412 425 52 385 107 110 
194 11 383 2 205 295 354 36 338 117 222 254 315 
195 11 337 83 89 432 13 19 61 64 202 306 413 
196 7 69 183 407 79 409 3 207 
197 8 78 267 304 404 389 144 35 414 
198 8 222 251 117 36 213 205 278 315 
199 11 284 119 285 55 335 60 131 150 414 121 387 
200 11 346 26 329 169 158 41 244 434 435 12 385 
201 10 256 43 167 22 134 307 164 242 325 179 
202 11 432 89 336 351 14 97 195 24 330 337 50 
203 11 289 435 323 385 434 169 158 76 52 244 107 
204 10 57 360 291 141 279 110 9 270 180 400 
205 11 194 383 295 2 338 315 222 354 36 117 198 
206 11 356 159 258 139 228 66 322 85 45 312 86 
207 11 3 409 225 79 369 186 154 69 183 234 407 
208 11 116 419 7 300 188 133 32 94 309 95 384 
209 11 401 247 249 380 281 58 65 135 133 278 282 
210 9 310 351 420 97 237 23 397 115 24 
211 10 339 367 278 58 213 135 249 281 42 247 
212 11 390 373 100 118 255 345 357 302 11 17 44 
213 10 278 251 135 117 36 198 249 247 222 211 
214 9 47 430 250 231 269 187 137 234 186 
215 9 342 24 50 97 87 233 351 62 301 
216 11 331 257 40 229 70 12 80 51 241 41 153 
217 10 142 81 10 314 99 298 129 235 262 46 
218 10 14 330 336 299 237 156 378 64 202 422 
219 11 113 175 374 429 235 403 81 394 46 262 426 
220 6 124 127 42 240 248 319 
221 11 428 179 353 4 145 288 43 242 371 164 256 
222 8 198 251 117 205 315 36 194 213 
223 11 53 370 333 363 322 10 142 314 312 416 287 
224 10 98 72 20 372 163 30 112 226 423 376 
225 11 369 207 409 154 3 8 79 176 381 121 186 
226 9 376 37 317 423 72 112 411 162 431 
227 7 77 25 67 297 359 165 211 
228 11 66 85 258 56 344 206 303 90 102 347 139 
229 11 70 257 40 51 216 241 130 128 80 331 12 
230 7 275 311 395 125 33 379 109 
231 11 430 47 250 186 214 234 269 3 296 252 79 
232 8 366 254 92 112 163 354 34 172 
233 8 87 342 24 97 215 351 406 50 
234 9 186 269 79 3 231 430 207 69 409 
235 11 81 46 113 298 219 262 99 175 217 129 143 
236 11 161 96 38 191 316 190 396 417 148 365 5 
237 7 299 330 336 310 210 14 218 
238 6 180 270 291 400 388 9 
239 11 111 193 412 49 76 110 141 52 425 266 107 
240 5 319 124 220 127 29 
241 11 128 398 70 40 80 130 51 229 257 267 35 
242 11 164 325 246 201 221 428 71 43 179 256 44 
243 10 274 31 114 132 192 123 101 268 340 341 
244 11 158 169 385 435 329 405 200 26 203 434 346 
245 10 108 185 18 103 276 370 321 152 184 223 
246 11 73 377 164 280 242 71 302 349 44 357 11 
247 11 249 135 209 401 278 281 58 380 65 36 117 
248 7 109 382 42 220 125 124 127 
249 11 247 135 209 278 281 58 401 380 213 36 65 
250 11 47 214 430 231 137 187 252 413 186 269 350 
251 11 198 117 213 222 36 278 135 205 194 247 249 
252 11 350 293 137 413 306 250 296 187 47 231 13 
253 9 387 326 157 176 381 8 121 155 154 
254 10 34 232 172 92 366 282 354 2 94 194 
255 9 118 345 390 260 212 11 373 100 44 
256 11 201 22 43 134 167 307 179 63 242 164 221 
257 11 40 229 70 216 331 80 241 51 12 128 130 
258 11 228 66 85 206 356 56 139 159 344 347 102 
259 11 292 126 418 422 64 218 156 14 332 378 399 
260 9 255 118 345 368 390 75 11 212 44 
261 11 68 29 313 166 319 15 240 271 364 436 362 
262 11 235 81 113 54 314 217 219 10 175 46 298 
263 5 105 301 50 62 6 
264 5 21 147 399 418 126 
265 8 143 184 129 99 424 298 152 46 
266 11 110 9 412 388 400 352 107 52 291 76 57 
267 7 78 197 404 389 304 144 35 
268 10 101 343 31 123 340 315 341 338 192 132 
269 5 234 430 214 231 47 
270 7 180 238 291 400 9 388 204 
271 5 364 279 29 360 261 
272 5 433 122 415 5 148 
273 4 146 392 149 28 
274 7 132 192 243 123 31 340 268 
275 8 230 395 33 311 427 379 95 125 
276 11 245 185 108 287 103 18 370 223 333 53 321 
277 11 305 49 348 193 111 405 425 244 158 239 385 
278 11 213 135 249 251 247 117 36 198 209 211 222 
279 7 360 364 271 204 57 93 141 
280 11 302 377 357 17 100 373 246 73 44 59 11 
281 11 58 209 401 249 247 380 65 135 382 133 278 
282 11 34 172 94 65 133 380 254 401 7 92 116 
283 11 174 327 375 84 59 140 160 177 408 17 82 
284 11 199 119 150 414 285 55 335 131 60 304 389 
285 11 60 199 55 119 131 335 284 387 121 253 8 
286 7 88 74 362 15 48 436 189 
287 11 333 416 53 39 223 358 139 159 370 356 322 
288 11 353 173 4 318 179 328 221 427 428 145 95 
289 9 203 434 435 323 91 385 393 169 41 
290 6 48 74 88 96 286 316 
291 10 400 180 270 9 238 388 204 57 110 266 
292 11 259 126 418 422 156 218 332 378 14 64 294 
293 9 350 252 306 155 296 137 413 250 47 
294 9 332 347 56 156 344 85 66 378 228 
295 11 2 383 194 205 338 354 315 101 268 341 366 
296 10 155 369 381 350 186 225 293 252 3 207 
297 11 67 25 359 421 77 365 165 190 227 396 361 
298 10 99 46 81 129 143 235 217 265 142 184 
299 7 237 330 336 310 210 218 14 
300 11 208 7 384 32 4 309 419 116 145 371 188 
301 10 62 50 6 263 105 215 342 24 87 97 
302 11 280 357 17 377 100 373 44 59 246 11 71 
303 11 90 102 344 56 85 228 66 332 258 294 347 
304 9 389 144 197 404 414 78 150 35 267 
305 11 277 49 348 425 111 193 120 405 239 244 189 
306 10 252 413 13 137 293 350 19 187 195 337 
307 7 167 201 134 256 22 325 75 
308 11 410 35 144 389 130 404 150 414 304 128 51 
309 11 32 7 384 94 168 300 92 162 371 208 431 
310 9 210 420 237 397 23 351 115 97 299 
311 6 230 125 275 109 33 395 
312 11 322 45 391 363 54 408 82 160 177 314 356 
313 8 68 319 261 29 240 124 127 15 
314 11 10 142 217 363 262 54 81 235 99 298 312 
315 10 343 340 268 123 338 205 101 222 31 295 
316 8 96 38 236 161 290 396 417 190 
317 8 162 423 112 226 37 411 431 376 
318 9 328 288 427 173 353 95 179 4 221 
319 8 240 124 127 220 313 29 68 261 
320 10 63 138 355 22 134 43 256 23 115 167 
321 9 184 18 129 152 143 265 142 99 108 
322 11 312 363 45 356 391 53 206 159 54 223 82 
323 11 52 107 203 76 385 352 289 28 435 412 266 
324 11 171 277 305 106 348 48 49 425 120 386 189 
325 10 164 242 71 75 307 11 44 201 246 368 
326 9 253 157 387 381 176 8 155 121 154 
327 11 375 283 160 174 408 84 177 140 82 59 54 
328 9 318 427 173 288 353 95 4 179 275 
329 11 26 200 169 346 158 244 434 435 41 385 203 
330 9 299 237 336 218 14 202 378 310 210 
331 11 216 257 40 12 229 41 80 70 393 26 346 
332 11 294 56 344 347 85 90 156 66 303 292 228 
333 11 53 223 416 287 159 322 370 39 356 363 139 
334 7 27 16 170 272 433 122 148 
335 11 55 131 119 121 199 285 8 154 176 407 60 
336 11 330 237 202 299 14 218 210 310 432 89 351 
337 11 195 83 89 61 432 13 64 19 202 306 413 
338 11 295 2 383 205 101 268 315 341 354 343 194 
339 6 367 211 42 127 58 124 
340 9 123 343 268 315 31 192 101 132 338 
341 11 101 268 31 394 338 343 123 315 295 340 2 
342 9 24 215 97 233 87 351 50 62 301 
343 10 268 340 123 315 31 101 338 341 192 132 
344 11 56 90 303 85 66 228 102 332 258 294 347 
345 8 255 390 118 212 260 373 100 11 
346 11 200 26 329 169 41 158 244 434 435 12 331 
347 10 294 56 332 66 85 228 344 258 156 378 
348 11 425 120 49 111 93 189 166 239 193 305 141 
349 11 168 73 371 411 431 145 246 384 37 428 377 
350 9 293 252 296 155 306 137 413 250 47 
351 11 97 24 342 215 50 233 87 210 202 62 310 
352 11 388 107 266 52 9 400 28 412 110 323 291 
353 11 288 4 173 179 221 428 318 328 145 371 427 
354 10 2 295 383 366 194 338 205 232 254 426 
355 7 138 136 320 63 406 23 115 
356 11 159 206 139 322 258 312 45 228 66 39 416 
357 11 302 100 373 17 280 377 44 11 212 59 71 
358 11 39 139 416 102 151 159 356 303 228 258 287 
359 9 165 365 297 67 25 396 190 227 77 
360 7 279 364 271 204 57 141 93 
361 10 421 178 191 190 297 67 396 5 25 365 
362 9 15 436 189 166 286 68 261 313 29 
363 11 10 314 312 322 54 142 223 53 391 217 45 
364 7 271 279 360 93 29 261 68 
365 9 396 359 165 190 297 67 25 421 191 
366 8 232 354 254 426 2 163 403 295 
367 9 339 211 42 127 124 58 220 281 248 
368 6 75 260 307 325 11 71 
369 11 225 207 3 409 154 186 381 8 79 176 296 
370 10 223 142 10 53 363 321 314 217 18 333 
371 11 145 384 349 4 168 428 300 32 309 221 431 
372 10 30 98 224 20 72 163 429 374 112 226 
373 11 100 357 212 302 17 44 280 390 11 71 377 
374 10 429 403 30 426 372 219 98 175 113 224 
375 11 327 283 174 160 84 408 177 140 59 82 54 
376 10 226 37 72 317 411 423 112 431 20 162 
377 11 280 302 17 73 357 246 100 373 59 44 37 
378 8 156 218 330 299 237 294 14 347 
379 11 33 188 95 419 427 116 125 208 109 275 173 
380 11 65 401 209 133 247 281 282 249 58 116 34 
381 10 176 8 155 157 154 326 369 225 296 121 
382 10 109 248 125 58 281 42 379 33 401 133 
383 11 2 295 194 205 354 338 315 36 117 366 222 
384 11 371 145 300 4 32 168 309 7 349 428 208 
385 11 435 405 203 244 158 169 323 76 52 289 107 
386 11 402 324 106 171 277 305 200 346 329 26 244 
387 9 253 326 157 176 8 381 121 154 155 
388 10 400 9 291 266 352 180 110 238 270 412 
389 10 144 304 404 197 35 78 414 150 267 308 
390 10 212 118 255 345 373 100 11 357 44 260 
391 11 45 408 160 82 54 312 177 86 327 375 322 
392 4 149 146 273 28 
393 8 91 12 80 41 434 398 289 40 
394 10 341 403 101 426 31 175 268 338 374 114 
395 5 275 230 311 427 33 
396 10 190 365 359 191 297 165 67 421 25 361 
397 5 420 115 23 167 307 
398 7 80 241 91 393 128 267 40 
399 8 147 21 418 126 61 422 264 64 
400 11 9 291 388 180 270 238 266 110 204 352 57 
401 11 380 209 65 281 133 247 58 249 282 135 116 
402 11 106 153 386 324 346 200 26 277 331 329 216 
403 10 426 374 429 394 366 30 372 163 175 98 
404 10 389 144 78 197 304 35 267 414 150 308 
405 11 385 193 76 244 158 435 239 52 323 203 169 
406 8 136 233 87 23 355 138 115 97 
407 8 183 69 196 409 79 207 3 225 
408 11 160 177 82 391 327 375 54 45 283 174 86 
409 11 207 225 3 369 79 154 183 69 407 121 8 
410 11 308 130 35 51 128 144 404 389 241 304 78 
411 11 431 37 168 162 317 226 349 376 73 423 112 
412 11 266 110 52 76 107 239 9 388 352 400 141 
413 11 137 187 13 19 252 306 250 350 293 47 6 
414 11 150 304 389 144 284 404 197 35 78 308 119 
415 7 122 433 5 272 178 361 148 
416 11 39 333 287 139 159 53 356 358 223 206 322 
417 11 148 38 161 236 181 5 122 316 191 96 415 
418 11 126 259 292 399 422 21 64 147 61 264 83 
419 11 188 208 116 95 379 300 33 7 133 173 427 
420 5 397 115 23 310 167 
421 10 361 297 67 178 25 191 190 396 77 359 
422 11 64 61 259 83 126 14 292 218 418 337 399 
423 8 112 317 162 226 37 72 163 376 
424 6 114 265 143 243 46 274 
425 11 49 348 111 120 93 239 193 141 166 189 364 
426 10 403 366 374 429 394 163 354 30 232 372 
427 10 95 173 328 318 288 33 188 379 275 353 
428 11 221 179 145 4 353 371 242 288 349 164 384 
429 10 374 403 30 426 372 219 98 113 175 224 
430 10 231 47 214 250 269 186 234 3 137 187 
431 11 411 168 37 162 317 226 349 73 376 423 112 
432 11 89 202 195 337 83 336 14 64 351 13 19 
433 5 272 122 415 5 148 
434 11 435 289 41 169 203 329 393 26 158 91 244 
435 11 169 203 158 385 434 244 289 329 323 405 26 
436 10 15 362 189 166 68 261 120 313 29 286 
DEPOT_SECTION
   1
   -1
EOF
