NAME :  X-n548-kX-w54-c9.cctp
COMMENT : 	Adapted by Maziero, Usberti and Cavellucci from the Uchoa, Pecin, Pessoa, Poggi, Subramanian, and Vidal (2013)
TYPE :  CCTP
DIMENSION :    316
EDGE_WEIGHT_TYPE : 	EUC_2D	
CAPACITY : 	11
VERTICES_WITHIN_COVERAGE :  9
VERTICES_WITH_DEMAND : 	54
NODE_COORD_SECTION
1 0 0
2 221 542
3 320 456
4 576 827
5 679 994
6 371 461
7 961 844
8 986 379
9 175 540
10 126 517
11 329 626
12 477 890
13 191 356
14 584 917
15 308 653
16 0 7
17 273 302
18 672 381
19 235 415
20 583 149
21 672 124
22 644 646
23 400 544
24 832 999
25 842 964
26 582 965
27 544 311
28 429 2
29 939 849
30 898 605
31 363 130
32 639 874
33 323 201
34 829 350
35 7 53
36 801 92
37 57 330
38 943 0
39 579 275
40 833 402
41 408 940
42 635 871
43 631 630
44 733 313
45 344 619
46 628 291
47 674 92
48 74 602
49 38 354
50 473 107
51 668 279
52 510 811
53 366 16
54 49 182
55 528 946
56 668 978
57 939 73
58 556 632
59 270 446
60 586 348
61 128 590
62 279 459
63 364 167
64 656 687
65 547 792
66 517 152
67 252 618
68 590 47
69 348 609
70 777 112
71 528 198
72 877 457
73 584 875
74 439 447
75 560 994
76 447 951
77 287 534
78 399 181
79 29 248
80 313 643
81 294 475
82 327 361
83 79 657
84 345 144
85 549 135
86 887 565
87 180 298
88 658 126
89 18 638
90 327 299
91 245 439
92 881 666
93 34 637
94 350 673
95 380 917
96 271 505
97 930 78
98 860 22
99 448 112
100 222 587
101 670 76
102 521 123
103 50 360
104 351 981
105 159 405
106 825 285
107 187 320
108 342 200
109 290 713
110 304 144
111 46 173
112 298 667
113 257 579
114 775 393
115 996 407
116 379 14
117 195 581
118 75 328
119 295 405
120 6 525
121 239 471
122 460 479
123 663 933
124 626 229
125 737 136
126 620 811
127 877 977
128 69 200
129 115 635
130 414 959
131 270 287
132 867 569
133 354 11
134 937 660
135 434 965
136 86 648
137 656 239
138 604 359
139 507 27
140 287 592
141 554 230
142 133 601
143 635 416
144 860 852
145 752 0
146 184 590
147 981 411
148 778 389
149 359 222
150 201 444
151 111 324
152 867 389
153 309 269
154 669 317
155 768 421
156 889 891
157 221 579
158 442 624
159 719 697
160 413 1000
161 977 29
162 356 605
163 557 652
164 145 568
165 596 316
166 681 194
167 94 529
168 226 328
169 687 807
170 549 281
171 944 64
172 541 807
173 107 602
174 870 999
175 247 282
176 865 629
177 632 928
178 899 632
179 385 166
180 851 399
181 370 248
182 372 910
183 11 248
184 845 326
185 508 769
186 511 900
187 158 330
188 159 327
189 832 900
190 809 931
191 460 869
192 585 804
193 487 102
194 187 528
195 462 482
196 890 450
197 857 64
198 96 223
199 610 842
200 910 604
201 48 352
202 622 891
203 873 960
204 990 747
205 693 76
206 668 167
207 301 696
208 61 500
209 39 477
210 476 728
211 112 160
212 588 281
213 215 559
214 528 309
215 668 953
216 594 865
217 407 905
218 423 639
219 570 151
220 651 612
221 684 574
222 598 632
223 645 944
224 976 284
225 177 414
226 459 506
227 507 320
228 497 889
229 888 561
230 308 530
231 237 184
232 985 385
233 502 117
234 851 594
235 728 54
236 64 249
237 492 57
238 852 45
239 292 125
240 340 273
241 242 217
242 700 96
243 37 511
244 663 175
245 670 279
246 611 829
247 471 843
248 4 325
249 454 981
250 94 359
251 982 397
252 780 360
253 510 276
254 564 632
255 903 827
256 605 806
257 38 525
258 75 130
259 107 314
260 717 125
261 991 306
262 62 373
263 641 426
264 42 62
265 184 460
266 618 878
267 986 690
268 430 839
269 284 582
270 453 998
271 134 596
272 660 92
273 723 31
274 222 302
275 746 114
276 670 702
277 447 881
278 844 110
279 315 373
280 115 329
281 992 409
282 692 929
283 334 75
284 346 190
285 361 170
286 44 202
287 326 351
288 525 950
289 910 793
290 752 234
291 542 768
292 358 588
293 19 296
294 147 444
295 954 410
296 529 392
297 77 383
298 822 126
299 870 566
300 548 87
301 609 314
302 328 85
303 852 128
304 505 944
305 358 609
306 311 26
307 909 915
308 407 84
309 523 987
310 690 982
311 499 9
312 646 414
313 944 22
314 691 660
315 44 506
316 756 289
DEMAND_SECTION
2 1
3 1
4 1
5 1
6 1
7 1
8 1
9 1
10 1
11 1
12 1
13 1
14 1
15 1
16 1
17 1
18 1
19 1
20 1
21 1
22 1
23 1
24 1
25 1
26 1
27 1
28 1
29 1
30 1
31 1
32 1
33 1
34 1
35 1
36 1
37 1
38 1
39 1
40 1
41 1
42 1
43 1
44 1
45 1
46 1
47 1
48 1
49 1
50 1
51 1
52 1
53 1
54 1
55 1
COVERAGE_SECTION
2 9 213 157 194 100 9 117 113 146 96 
3 9 81 62 6 59 119 96 230 91 121 
4 9 192 246 256 199 172 216 65 126 73 
5 9 310 56 215 223 123 282 177 26 202 
6 7 3 74 81 23 122 62 195 
7 7 29 255 289 156 307 144 204 
8 8 232 251 115 281 147 295 261 224 
9 8 194 164 213 2 117 146 10 157 
10 9 167 9 164 194 208 61 294 271 265 
11 9 45 80 69 15 162 305 292 94 112 
12 9 228 191 277 186 247 304 76 268 217 
13 8 107 187 188 168 87 105 225 274 
14 9 73 202 26 177 266 216 55 223 288 
15 9 80 112 11 207 94 45 69 109 140 
16 3 35 264 258 
17 9 131 175 153 274 90 168 287 240 82 
18 6 312 143 263 154 138 44 
19 9 91 150 59 121 225 119 62 265 13 
20 9 219 85 66 102 300 71 88 244 141 
21 9 88 47 272 242 206 260 101 205 244 
22 9 43 220 64 222 314 276 254 221 163 
23 9 292 226 162 305 69 6 122 195 158 
24 6 25 174 127 203 190 189 
25 7 203 24 127 174 190 189 307 
26 9 75 14 55 288 177 309 223 304 202 
27 8 214 170 227 253 39 165 212 60 
28 9 116 53 311 133 139 237 308 99 50 
29 6 7 255 289 156 307 144 
30 9 200 178 86 176 229 132 234 299 92 
31 9 84 63 285 179 302 110 78 283 284 
32 9 42 266 202 199 216 246 177 73 123 
33 9 108 284 149 285 63 110 84 181 153 
34 9 184 252 40 152 180 148 106 114 155 
35 5 264 16 258 111 54 
36 7 70 298 278 275 303 197 238 
37 9 118 201 49 103 262 250 293 259 248 
38 9 313 161 171 57 97 98 238 197 278 
39 9 212 170 165 301 27 141 46 214 124 
40 9 180 152 34 148 114 155 252 72 196 
41 8 130 217 95 135 76 182 160 249 
42 9 32 266 202 199 216 246 73 177 126 
43 9 22 220 222 64 254 314 58 163 221 
44 9 316 154 252 245 51 290 148 114 18 
45 9 69 11 305 162 292 80 15 94 140 
46 9 301 165 212 51 245 154 39 137 124 
47 9 272 101 205 242 21 88 260 235 206 
48 9 173 136 93 129 61 83 142 271 89 
49 9 201 103 37 262 118 248 297 250 293 
50 9 193 99 233 102 237 66 308 300 85 
51 8 245 154 46 137 124 301 44 212 
52 9 172 65 185 247 291 4 192 191 228 
53 7 116 133 306 28 283 302 308 
54 9 111 286 128 258 198 211 79 236 183 
55 9 288 304 309 186 26 75 14 228 12 
56 9 5 310 215 223 123 282 177 26 202 
57 7 97 171 313 161 38 197 238 
58 4 254 163 222 43 
59 9 62 91 81 121 19 119 3 96 150 
60 8 138 165 301 27 212 214 46 296 
61 7 271 142 173 164 129 48 146 
62 9 59 81 91 3 121 96 119 19 77 
63 9 285 179 284 84 31 78 108 33 149 
64 7 276 22 314 43 159 220 222 
65 7 172 291 192 52 4 185 256 
66 8 102 85 233 71 219 193 50 20 
67 7 113 100 140 269 157 15 80 
68 8 300 272 101 139 47 85 237 311 
69 9 162 305 45 292 11 80 15 140 94 
70 6 36 275 125 298 260 278 
71 5 141 66 219 85 20 
72 5 196 180 152 40 295 
73 9 216 266 202 14 199 4 42 246 32 
74 4 122 195 226 6 
75 9 26 309 288 55 304 14 177 223 186 
76 9 135 249 130 41 270 304 160 217 12 
77 9 230 96 269 113 140 81 2 62 213 
78 7 179 63 285 284 149 108 31 
79 9 183 236 286 293 128 54 198 111 248 
80 9 15 11 112 45 94 69 207 305 140 
81 9 62 3 59 96 121 230 77 91 119 
82 5 287 279 119 90 17 
83 5 136 129 93 48 173 
84 9 31 63 285 110 179 284 108 239 33 
85 9 219 102 66 20 300 233 71 193 50 
86 7 229 299 132 30 200 234 176 
87 6 107 188 187 274 168 13 
88 9 21 272 47 206 244 101 242 260 205 
89 4 93 83 48 136 
90 7 240 153 287 17 131 82 181 
91 9 19 59 121 62 150 119 81 265 96 
92 4 178 176 134 30 
93 5 89 83 48 136 129 
94 6 15 80 11 112 45 207 
95 4 182 217 41 130 
96 9 77 81 230 62 121 59 2 3 91 
97 7 57 171 313 161 197 38 238 
98 9 238 197 313 38 278 97 36 57 171 
99 8 50 193 308 233 237 102 66 179 
100 7 157 117 213 113 146 67 2 
101 9 47 272 205 242 21 88 235 260 273 
102 9 233 66 85 193 300 50 219 20 237 
103 9 201 49 262 37 297 118 250 248 151 
104 5 160 130 41 95 182 
105 7 225 294 150 13 265 187 19 
106 5 184 34 316 252 290 
107 7 87 188 187 13 274 168 175 
108 9 284 33 149 285 63 179 84 181 78 
109 3 207 112 15 
110 8 239 84 33 31 284 285 63 302 
111 9 54 286 128 258 211 198 79 236 183 
112 8 15 80 207 109 11 94 45 67 
113 9 269 140 100 157 67 213 2 77 117 
114 6 148 155 252 40 34 180 
115 7 281 147 251 232 8 295 261 
116 9 53 133 28 306 308 283 302 31 99 
117 8 146 157 100 213 9 2 164 194 
118 9 37 259 151 201 250 280 103 49 262 
119 9 279 59 82 62 3 91 19 287 81 
120 8 257 243 315 209 208 167 48 89 
121 9 91 59 62 96 150 81 19 265 2 
122 5 195 226 74 23 6 
123 9 215 223 282 177 56 310 202 5 32 
124 9 137 46 212 51 166 244 39 245 141 
125 6 260 275 70 242 21 205 
126 5 256 246 199 192 4 
127 5 203 174 25 24 307 
128 9 286 54 111 198 236 211 79 258 183 
129 7 136 173 142 83 271 61 48 
130 9 41 135 76 160 249 95 217 270 182 
131 8 17 175 153 274 90 168 240 241 
132 7 299 86 229 234 30 200 176 
133 7 53 116 306 283 28 302 308 
134 6 178 92 267 200 30 176 
135 9 76 130 249 41 270 160 217 95 304 
136 5 83 129 48 173 93 
137 7 124 51 245 166 46 244 206 
138 7 60 165 301 143 312 18 46 
139 8 311 237 300 193 28 68 50 233 
140 9 269 113 67 11 80 77 45 69 15 
141 6 71 39 170 212 253 124 
142 7 271 61 173 164 129 146 48 
143 4 312 263 18 138 
144 5 156 255 189 289 29 
145 9 273 235 205 36 242 98 238 101 275 
146 7 117 100 157 213 164 271 9 
147 6 281 251 115 232 295 8 
148 6 114 252 155 40 34 180 
149 8 108 181 284 33 285 240 63 78 
150 9 265 225 91 19 121 294 105 59 62 
151 8 280 259 118 250 187 188 37 297 
152 9 180 40 34 196 184 72 148 295 114 
153 8 240 90 131 17 175 181 33 149 
154 9 51 245 46 301 18 44 165 138 137 
155 4 114 148 252 40 
156 6 307 144 189 29 255 203 
157 8 100 213 117 113 2 146 67 9 
158 4 218 305 162 23 
159 4 314 276 64 22 
160 8 270 130 135 249 41 76 104 95 
161 8 313 38 171 57 97 98 197 238 
162 9 305 69 292 45 11 80 15 94 140 
163 4 58 254 222 43 
164 8 61 271 142 9 146 173 117 10 
165 9 301 60 212 46 39 138 27 170 214 
166 5 244 206 137 124 21 
167 9 10 208 315 257 243 164 61 173 48 
168 8 274 107 13 175 17 87 131 188 
169 3 126 246 32 
170 8 27 39 214 212 253 141 227 165 
171 7 57 97 313 161 38 197 98 
172 7 65 52 291 4 192 185 256 
173 8 61 142 271 48 129 136 164 83 
174 4 127 24 203 25 
175 7 131 274 17 168 153 241 87 
176 5 178 234 92 30 200 
177 9 223 123 202 215 14 266 32 42 282 
178 7 30 200 176 92 134 234 86 
179 8 63 78 285 31 84 284 108 149 
180 9 40 152 34 72 196 184 148 114 252 
181 6 149 240 108 284 153 33 
182 3 95 217 41 
183 9 79 293 236 286 128 54 248 111 198 
184 8 34 106 152 180 252 40 148 316 
185 5 291 52 65 172 210 
186 9 228 12 304 55 288 191 277 247 14 
187 7 188 107 87 13 280 151 259 
188 7 187 107 87 13 280 151 259 
189 6 190 144 156 25 203 307 
190 6 189 25 203 24 127 156 
191 6 277 12 247 228 268 186 
192 7 256 4 126 246 65 172 199 
193 9 50 233 99 102 237 66 300 85 139 
194 9 9 2 213 117 164 157 10 146 265 
195 5 122 226 74 23 6 
196 5 72 180 152 40 295 
197 8 238 98 278 36 303 298 97 57 
198 6 128 236 286 54 211 111 
199 9 246 216 126 256 4 266 42 73 32 
200 9 30 178 86 229 176 132 299 234 134 
201 9 103 49 37 262 118 297 250 248 293 
202 9 266 32 42 177 216 73 14 199 223 
203 7 127 25 174 24 307 190 156 
204 6 267 289 7 134 29 255 
205 9 242 101 47 272 235 21 273 260 88 
206 6 244 166 88 21 260 137 
207 5 109 112 15 80 94 
208 8 315 243 209 257 167 120 10 48 
209 8 315 208 243 257 120 167 10 297 
210 3 185 291 52 
211 5 258 128 198 54 111 
212 9 39 165 170 301 46 27 141 124 214 
213 8 2 157 100 117 194 9 146 113 
214 7 27 227 170 253 39 212 165 
215 9 123 56 223 282 310 5 177 202 32 
216 9 73 266 199 202 246 42 4 32 14 
217 7 95 41 182 277 130 76 191 
218 4 158 305 162 45 
219 8 20 85 66 102 71 300 233 141 
220 8 43 22 221 222 314 64 254 276 
221 4 220 43 22 314 
222 7 43 254 58 163 22 220 64 
223 9 123 177 215 56 282 202 310 5 26 
224 4 261 8 232 251 
225 7 105 150 294 265 19 13 91 
226 5 195 122 74 23 6 
227 5 214 27 253 170 296 
228 9 186 12 191 277 247 304 55 288 52 
229 7 86 299 132 30 200 234 176 
230 9 77 96 81 269 140 113 3 62 292 
231 4 241 110 239 33 
232 7 8 251 115 281 147 295 261 
233 9 102 193 50 66 85 99 300 237 219 
234 7 132 299 176 86 30 229 200 
235 9 273 205 242 145 101 275 47 260 70 
236 9 79 198 128 286 183 293 54 111 259 
237 8 139 193 311 50 233 300 99 102 
238 9 197 98 278 36 303 97 298 57 171 
239 5 110 302 84 283 31 
240 6 90 153 181 149 131 17 
241 5 231 175 131 33 153 
242 9 205 47 260 101 21 272 275 235 88 
243 8 315 257 208 120 209 167 10 48 
244 6 206 166 88 21 137 124 
245 7 51 154 137 46 124 301 44 
246 8 199 126 256 4 192 216 42 266 
247 7 191 268 277 12 52 228 186 
248 9 293 49 201 37 103 118 262 183 79 
249 9 270 135 76 160 130 41 304 309 288 
250 8 297 262 118 280 151 103 37 201 
251 7 232 147 281 115 8 295 261 
252 8 148 114 34 155 44 40 184 316 
253 5 214 170 227 27 141 
254 5 58 163 222 43 22 
255 6 289 29 144 7 156 307 
256 5 126 192 246 4 199 
257 8 243 315 120 208 209 167 48 10 
258 7 211 111 54 128 264 286 198 
259 8 151 280 118 250 37 187 188 201 
260 9 125 275 242 21 47 205 88 70 206 
261 7 224 8 232 251 115 281 147 
262 7 103 297 201 49 250 37 118 
263 3 143 312 18 
264 4 35 16 258 111 
265 9 150 294 225 121 105 91 19 194 9 
266 9 202 42 32 216 73 199 246 14 177 
267 6 134 204 178 92 200 30 
268 5 247 191 277 12 217 
269 9 140 113 67 77 230 100 11 157 80 
270 9 249 135 160 76 130 309 41 304 288 
271 7 142 61 173 164 129 146 48 
272 9 47 101 21 88 205 242 260 206 235 
273 9 235 145 205 242 101 47 275 272 260 
274 7 168 175 107 87 131 17 13 
275 9 125 70 260 242 36 235 205 21 47 
276 6 64 314 159 22 43 220 
277 6 191 12 247 268 217 228 
278 4 303 298 36 197 
279 7 82 287 119 90 17 3 59 
280 8 151 259 250 118 187 188 37 297 
281 6 115 147 251 232 8 295 
282 8 123 215 223 310 56 177 5 32 
283 7 302 306 31 239 53 133 84 
284 9 108 33 285 63 149 84 179 78 31 
285 9 63 179 284 84 108 31 78 33 149 
286 9 54 128 111 79 236 198 183 258 211 
287 5 82 279 90 119 17 
288 9 55 304 309 186 75 26 228 14 12 
289 4 255 29 7 144 
290 2 316 44 
291 5 65 185 172 52 192 
292 9 162 305 69 45 11 23 80 140 269 
293 9 248 79 183 37 49 201 118 236 103 
294 7 265 105 225 150 10 19 194 
295 7 147 251 281 232 115 8 196 
296 4 60 227 27 138 
297 7 262 250 103 201 49 118 37 
298 4 278 303 36 70 
299 7 132 86 229 234 30 200 176 
300 8 102 85 233 68 193 237 219 20 
301 9 165 46 212 60 138 39 154 27 170 
302 6 283 239 31 84 306 110 
303 3 278 298 36 
304 9 288 55 186 309 228 76 12 249 75 
305 9 162 69 45 292 11 80 94 15 218 
306 5 133 283 53 302 116 
307 6 156 203 127 29 189 144 
308 9 99 31 50 283 116 53 302 193 28 
309 9 288 75 55 304 26 249 270 76 186 
310 8 5 56 215 282 123 223 177 26 
311 8 139 237 28 300 193 68 50 233 
312 4 143 263 18 138 
313 8 38 161 171 57 97 98 238 197 
314 7 64 159 276 22 220 43 221 
315 8 243 208 257 209 120 167 10 48 
316 5 44 290 106 252 245 
DEPOT_SECTION
   1
   -1
EOF
