NAME :  X-n586-kX-w234-c7.cctp
COMMENT : 	Adapted by Maziero, Usberti and Cavellucci from the Uchoa, Pecin, Pessoa, Poggi, Subramanian, and Vidal (2013)
TYPE :  CCTP
DIMENSION :    475
EDGE_WEIGHT_TYPE : 	EUC_2D	
CAPACITY : 	28
VERTICES_WITHIN_COVERAGE :  7
VERTICES_WITH_DEMAND : 	234
NODE_COORD_SECTION
1 18 761
2 835 397
3 299 16
4 31 168
5 142 257
6 242 984
7 612 357
8 663 812
9 105 188
10 487 636
11 993 703
12 672 148
13 506 259
14 953 706
15 888 203
16 107 534
17 772 692
18 475 182
19 828 775
20 719 220
21 655 722
22 844 197
23 918 600
24 460 844
25 739 102
26 301 523
27 341 627
28 989 936
29 935 602
30 44 72
31 861 67
32 163 416
33 981 503
34 722 397
35 317 903
36 547 95
37 944 106
38 935 192
39 128 376
40 908 176
41 720 226
42 738 793
43 791 498
44 712 751
45 530 693
46 141 673
47 380 544
48 634 301
49 427 853
50 606 949
51 47 557
52 48 202
53 791 67
54 546 876
55 526 842
56 535 216
57 828 214
58 829 352
59 623 473
60 374 1000
61 74 187
62 275 415
63 726 789
64 51 597
65 894 395
66 159 743
67 301 893
68 755 946
69 978 261
70 709 153
71 391 153
72 876 370
73 846 725
74 604 107
75 117 709
76 507 89
77 348 744
78 476 204
79 181 957
80 948 710
81 158 788
82 414 685
83 358 66
84 196 732
85 283 343
86 456 931
87 5 468
88 459 43
89 555 414
90 94 964
91 558 360
92 641 424
93 132 16
94 777 947
95 25 205
96 852 45
97 5 686
98 400 682
99 501 234
100 905 968
101 492 971
102 817 114
103 651 941
104 817 643
105 735 937
106 333 829
107 223 584
108 306 412
109 209 663
110 206 549
111 542 691
112 296 10
113 215 747
114 148 641
115 9 553
116 411 59
117 382 800
118 824 612
119 608 727
120 481 574
121 169 950
122 350 608
123 396 536
124 36 459
125 359 339
126 798 917
127 10 569
128 813 10
129 569 627
130 692 467
131 166 178
132 247 413
133 738 487
134 508 327
135 158 986
136 983 244
137 637 109
138 177 207
139 357 374
140 361 972
141 365 701
142 582 957
143 712 996
144 932 452
145 847 981
146 60 66
147 252 267
148 944 435
149 338 688
150 900 168
151 583 871
152 852 59
153 921 72
154 845 534
155 387 253
156 812 354
157 5 404
158 590 575
159 930 128
160 184 742
161 832 466
162 285 346
163 548 976
164 32 531
165 966 58
166 31 40
167 162 539
168 621 425
169 802 495
170 385 493
171 769 329
172 921 15
173 64 106
174 854 678
175 943 122
176 103 285
177 304 739
178 398 212
179 335 459
180 43 108
181 400 255
182 935 851
183 179 147
184 822 749
185 60 32
186 829 992
187 783 760
188 218 360
189 321 463
190 403 172
191 32 134
192 218 490
193 44 456
194 430 570
195 896 875
196 509 572
197 424 936
198 639 505
199 914 852
200 984 435
201 479 341
202 207 937
203 709 700
204 235 795
205 557 130
206 270 964
207 482 320
208 60 761
209 836 272
210 413 327
211 509 379
212 961 329
213 819 754
214 176 910
215 648 809
216 640 892
217 838 79
218 552 232
219 831 306
220 503 726
221 555 765
222 486 958
223 571 837
224 162 504
225 458 845
226 378 389
227 458 127
228 929 786
229 364 368
230 579 971
231 662 173
232 320 524
233 919 901
234 894 787
235 428 736
236 554 560
237 94 22
238 82 61
239 581 840
240 54 127
241 693 830
242 355 662
243 24 276
244 946 348
245 844 433
246 877 594
247 556 739
248 503 462
249 264 505
250 782 143
251 919 703
252 958 559
253 90 181
254 794 485
255 267 35
256 322 883
257 376 52
258 487 982
259 541 423
260 36 607
261 101 687
262 657 754
263 372 421
264 695 294
265 174 686
266 128 560
267 926 32
268 540 223
269 490 930
270 334 635
271 125 661
272 473 467
273 129 401
274 247 415
275 725 544
276 284 155
277 200 281
278 822 540
279 306 433
280 887 520
281 714 539
282 780 97
283 464 94
284 951 329
285 785 333
286 886 820
287 677 811
288 232 689
289 595 733
290 690 901
291 868 966
292 492 778
293 735 816
294 37 189
295 332 670
296 178 109
297 16 13
298 17 419
299 986 893
300 2 931
301 603 900
302 452 820
303 846 825
304 625 965
305 474 942
306 350 832
307 267 929
308 456 850
309 86 109
310 184 186
311 83 123
312 254 899
313 132 768
314 437 848
315 140 810
316 449 950
317 186 798
318 322 852
319 270 978
320 954 920
321 389 874
322 273 852
323 900 963
324 881 878
325 181 113
326 563 823
327 149 130
328 162 793
329 444 918
330 541 906
331 34 189
332 130 980
333 237 386
334 517 985
335 815 899
336 539 823
337 55 50
338 498 853
339 121 190
340 72 175
341 155 903
342 744 860
343 479 941
344 44 63
345 43 203
346 115 299
347 185 933
348 5 191
349 15 221
350 366 999
351 898 981
352 214 965
353 677 912
354 188 671
355 312 929
356 976 943
357 51 48
358 421 911
359 40 708
360 72 266
361 183 409
362 424 921
363 877 967
364 27 179
365 171 936
366 932 1000
367 455 869
368 463 837
369 846 959
370 435 847
371 353 670
372 187 752
373 464 978
374 128 303
375 59 408
376 319 870
377 887 957
378 240 175
379 473 816
380 138 202
381 406 825
382 388 728
383 78 745
384 287 734
385 181 611
386 367 966
387 7 136
388 127 532
389 408 873
390 808 928
391 430 951
392 94 257
393 170 97
394 7 126
395 916 902
396 432 821
397 181 936
398 887 864
399 128 179
400 322 943
401 343 786
402 153 220
403 321 964
404 201 898
405 105 265
406 32 133
407 428 946
408 21 156
409 47 175
410 70 772
411 459 932
412 165 773
413 146 938
414 34 140
415 900 958
416 215 989
417 444 821
418 963 961
419 914 869
420 102 310
421 126 686
422 819 967
423 282 720
424 148 924
425 421 731
426 513 812
427 177 909
428 227 897
429 96 713
430 437 876
431 789 981
432 996 910
433 90 87
434 578 807
435 138 750
436 899 754
437 195 895
438 203 473
439 480 960
440 258 899
441 127 344
442 461 949
443 437 847
444 465 817
445 102 191
446 84 185
447 660 782
448 171 812
449 35 216
450 74 67
451 440 953
452 110 175
453 617 832
454 617 787
455 501 842
456 390 969
457 59 73
458 913 979
459 387 735
460 121 746
461 419 942
462 128 998
463 517 952
464 586 955
465 40 118
466 474 852
467 234 798
468 131 189
469 481 981
470 160 987
471 98 917
472 78 766
473 422 862
474 81 228
475 842 959
DEMAND_SECTION
2 9
3 7
4 6
5 5
6 7
7 10
8 9
9 8
10 9
11 8
12 6
13 6
14 5
15 10
16 9
17 7
18 9
19 7
20 9
21 6
22 5
23 7
24 10
25 7
26 6
27 9
28 9
29 10
30 7
31 7
32 9
33 10
34 5
35 6
36 8
37 10
38 8
39 5
40 8
41 10
42 8
43 10
44 7
45 5
46 8
47 9
48 7
49 10
50 5
51 6
52 10
53 9
54 9
55 10
56 6
57 8
58 10
59 9
60 10
61 9
62 7
63 5
64 8
65 10
66 6
67 9
68 5
69 7
70 8
71 8
72 10
73 10
74 5
75 8
76 8
77 8
78 6
79 10
80 6
81 9
82 7
83 9
84 10
85 6
86 9
87 6
88 10
89 5
90 9
91 8
92 5
93 5
94 5
95 10
96 5
97 8
98 6
99 6
100 10
101 6
102 5
103 10
104 7
105 9
106 5
107 8
108 8
109 6
110 5
111 6
112 5
113 6
114 6
115 7
116 8
117 6
118 6
119 10
120 7
121 10
122 8
123 7
124 6
125 7
126 10
127 9
128 8
129 8
130 10
131 10
132 6
133 10
134 7
135 6
136 9
137 8
138 9
139 6
140 9
141 10
142 10
143 7
144 8
145 6
146 9
147 7
148 8
149 7
150 9
151 9
152 8
153 6
154 7
155 8
156 9
157 7
158 5
159 7
160 6
161 6
162 5
163 6
164 6
165 10
166 5
167 5
168 7
169 7
170 9
171 10
172 6
173 10
174 9
175 6
176 6
177 9
178 9
179 6
180 8
181 5
182 9
183 8
184 10
185 5
186 6
187 6
188 8
189 7
190 6
191 9
192 6
193 7
194 8
195 6
196 10
197 9
198 6
199 7
200 5
201 6
202 6
203 10
204 5
205 9
206 6
207 8
208 9
209 10
210 6
211 10
212 5
213 10
214 7
215 6
216 6
217 6
218 9
219 10
220 10
221 6
222 9
223 6
224 8
225 6
226 9
227 7
228 9
229 5
230 7
231 10
232 9
233 10
234 9
235 7
COVERAGE_SECTION
2 7 245 58 72 156 65 161 285 
3 4 112 255 83 257 
4 7 364 408 409 331 294 414 191 
5 7 405 402 176 374 392 346 380 
6 7 416 319 206 352 202 307 79 
7 7 91 48 168 92 89 259 264 
8 7 287 215 447 241 453 454 262 
9 7 445 452 339 253 446 399 468 
10 7 120 196 45 111 129 194 82 
11 7 14 80 251 228 436 29 23 
12 7 231 70 137 74 25 20 41 
13 7 99 268 56 218 78 207 134 
14 7 80 251 11 436 228 234 174 
15 7 40 150 22 38 57 159 209 
16 7 388 266 167 224 51 164 64 
17 7 203 104 187 184 213 73 174 
18 7 78 99 227 56 190 268 13 
19 7 213 184 187 73 303 234 286 
20 7 41 70 231 264 12 250 57 
21 7 262 119 203 447 289 44 454 
22 7 57 15 150 40 209 250 102 
23 7 29 246 252 280 118 154 174 
24 7 225 308 368 466 314 443 302 
25 7 282 70 250 53 102 12 137 
26 7 232 249 189 179 47 170 192 
27 7 270 122 242 295 371 149 141 
28 5 356 432 418 320 299 
29 7 23 252 246 280 251 14 33 
30 7 344 457 146 337 357 450 166 
31 7 152 96 217 153 102 53 267 
32 7 361 273 39 438 188 333 441 
33 7 252 200 144 148 280 29 23 
34 7 130 171 92 285 133 156 168 
35 7 67 256 355 376 400 318 307 
36 7 205 76 74 283 137 227 88 
37 7 175 159 153 165 150 267 40 
38 7 40 150 15 159 175 136 69 
39 7 273 441 32 361 420 374 375 
40 7 150 38 15 159 175 22 37 
41 7 20 264 70 231 12 250 57 
42 7 63 293 44 187 241 287 342 
43 7 169 254 161 278 133 154 275 
44 7 63 42 203 262 447 21 287 
45 7 111 220 247 10 221 289 129 
46 7 271 421 114 265 261 75 354 
47 7 123 170 194 232 122 26 27 
48 7 7 264 91 218 41 20 268 
49 7 370 473 314 443 430 389 308 
50 7 464 142 304 230 103 301 163 
51 7 164 115 127 64 260 16 266 
52 7 345 294 331 449 95 409 61 
53 7 282 217 102 128 152 25 96 
54 5 330 151 55 223 239 
55 6 336 455 338 426 54 326 
56 7 268 218 99 13 78 18 205 
57 7 22 209 15 150 250 40 219 
58 7 156 2 219 285 72 171 65 
59 7 198 168 92 130 89 259 158 
60 7 350 140 386 456 403 461 391 
61 6 446 340 253 445 52 409 
62 7 132 274 108 279 333 189 162 
63 7 42 293 44 241 287 187 447 
64 7 260 51 127 115 164 16 266 
65 7 72 2 245 148 144 244 58 
66 7 435 160 372 412 313 460 84 
67 7 35 256 376 355 440 318 312 
68 7 94 105 431 126 390 143 422 
69 7 136 212 284 38 244 15 40 
70 7 12 231 25 20 41 250 137 
71 7 190 178 227 18 83 283 116 
72 7 65 2 58 156 245 244 219 
73 7 184 213 174 19 436 187 251 
74 7 137 205 36 12 231 76 70 
75 7 429 421 261 460 46 435 271 
76 7 36 283 227 205 88 18 74 
77 7 459 401 382 177 141 149 384 
78 7 18 99 56 13 268 178 227 
79 7 121 397 365 347 202 352 135 
80 7 14 251 11 436 228 234 174 
81 6 328 412 448 315 317 313 
82 7 98 425 382 141 235 459 242 
83 7 257 116 3 112 71 255 88 
84 7 160 372 113 66 265 412 288 
85 7 162 333 188 62 108 125 132 
86 6 411 329 442 316 305 343 
87 7 124 193 298 157 164 375 115 
88 7 116 283 76 257 227 36 83 
89 7 259 91 211 168 248 7 92 
90 6 332 471 462 413 424 135 
91 7 211 7 89 134 259 201 207 
92 7 168 59 130 7 198 34 89 
93 5 237 238 185 450 433 
94 7 68 390 431 126 105 422 335 
95 7 449 331 345 349 294 52 348 
96 7 152 31 217 128 53 153 172 
97 7 359 260 208 383 429 261 64 
98 7 82 141 382 242 371 425 459 
99 7 13 56 78 268 218 18 207 
100 5 323 415 458 351 377 
101 7 258 222 469 439 334 373 463 
102 7 217 282 250 53 31 152 96 
103 7 304 353 50 216 290 301 464 
104 7 118 174 17 246 73 278 184 
105 7 68 94 290 143 353 126 431 
106 7 306 318 376 401 256 117 322 
107 7 110 385 167 109 249 114 192 
108 7 279 62 189 179 132 274 139 
109 7 354 288 265 385 114 46 84 
110 7 107 167 192 224 385 249 438 
111 7 45 247 220 289 129 119 221 
112 4 3 255 83 257 
113 7 84 372 160 204 467 66 412 
114 7 271 46 385 354 421 265 109 
115 7 127 164 51 260 64 87 124 
116 7 257 88 83 283 227 71 76 
117 7 381 401 306 396 106 417 459 
118 7 104 246 174 278 154 17 23 
119 7 289 21 247 262 454 221 111 
120 7 196 194 10 236 123 129 47 
121 7 79 365 397 347 413 424 135 
122 7 27 270 242 371 295 47 149 
123 7 47 170 194 232 122 120 26 
124 7 193 87 298 375 157 164 115 
125 7 229 139 226 210 162 85 263 
126 5 390 335 94 68 422 
127 7 115 51 164 260 64 87 16 
128 7 96 53 152 217 31 282 102 
129 7 158 111 236 45 196 10 120 
130 7 133 198 92 59 281 34 168 
131 6 310 138 183 380 468 399 
132 7 274 62 333 108 188 279 361 
133 7 130 43 254 281 275 169 34 
134 7 207 201 211 91 13 99 210 
135 7 470 332 462 79 121 413 365 
136 7 69 38 212 284 40 15 244 
137 7 74 12 231 205 70 36 25 
138 7 310 402 131 380 468 399 339 
139 7 229 226 125 263 108 210 162 
140 7 386 350 456 60 403 400 355 
141 7 149 371 382 98 242 459 295 
142 7 464 230 50 163 304 301 330 
143 7 105 68 431 94 103 353 304 
144 7 148 200 65 33 280 245 72 
145 6 186 369 475 291 422 363 
146 7 457 450 344 30 337 357 238 
147 7 277 85 162 378 138 188 310 
148 7 144 200 65 33 244 72 245 
149 7 295 371 141 242 270 77 27 
150 7 40 15 38 159 22 175 37 
151 7 239 301 223 54 326 453 330 
152 7 31 96 217 53 128 102 153 
153 7 267 37 165 175 159 172 31 
154 7 278 280 169 43 246 161 254 
155 7 181 178 210 190 125 71 78 
156 7 58 285 2 171 219 72 209 
157 7 298 375 124 87 193 273 39 
158 7 236 129 196 198 59 120 10 
159 7 175 37 150 40 153 38 165 
160 7 372 84 66 113 412 435 81 
161 7 245 169 254 43 2 154 278 
162 7 85 333 188 108 62 125 132 
163 7 230 334 142 463 464 101 258 
164 7 51 115 127 64 87 124 16 
165 7 153 267 37 172 175 159 31 
166 7 357 337 344 185 297 30 146 
167 7 224 388 266 110 16 192 385 
168 7 92 59 89 7 259 130 198 
169 7 43 254 161 278 154 133 245 
170 7 123 47 179 189 232 263 26 
171 7 285 156 58 219 264 34 209 
172 7 267 153 165 96 31 152 37 
173 7 180 309 240 311 465 433 457 
174 7 73 104 251 118 184 17 213 
175 7 159 37 153 150 40 165 38 
176 7 346 405 420 392 374 360 5 
177 7 384 423 77 149 401 141 295 
178 7 190 155 181 71 78 18 227 
179 7 189 279 263 108 170 232 26 
180 7 465 173 240 406 191 414 30 
181 7 155 178 210 190 78 125 71 
182 7 199 419 195 398 233 395 286 
183 5 131 325 327 296 310 
184 7 213 19 73 187 17 436 174 
185 7 357 337 166 146 237 344 238 
186 7 145 422 475 369 431 291 363 
187 7 213 184 19 42 63 17 44 
188 7 333 132 361 274 85 162 32 
189 7 179 279 108 232 26 62 263 
190 7 71 178 227 18 78 155 181 
191 7 406 414 465 240 387 408 394 
192 7 438 249 224 110 167 274 132 
193 7 124 87 298 375 157 164 16 
194 7 123 120 47 196 10 122 170 
195 7 398 324 419 199 395 233 182 
196 7 120 236 10 194 129 158 248 
197 7 461 407 362 391 451 358 329 
198 7 59 130 92 168 281 158 275 
199 7 419 182 195 398 324 286 233 
200 7 148 144 33 244 65 212 284 
201 7 207 134 211 210 91 13 259 
202 7 347 397 352 79 365 404 121 
203 7 44 21 17 262 63 187 447 
204 3 467 317 113 
205 7 36 74 76 137 56 268 18 
206 7 319 6 307 403 355 352 400 
207 7 201 134 211 13 210 91 99 
208 4 410 472 383 359 
209 7 219 57 22 58 285 156 15 
210 7 125 229 201 207 226 139 181 
211 7 201 134 91 259 89 207 248 
212 7 284 244 69 136 65 72 148 
213 7 184 19 187 73 303 17 436 
214 7 427 341 437 347 365 397 404 
215 7 8 287 447 454 453 241 262 
216 7 301 353 103 290 151 453 50 
217 7 152 31 96 102 53 282 128 
218 7 268 56 99 13 78 18 205 
219 7 209 58 156 285 171 72 2 
220 7 45 111 292 247 221 235 425 
221 7 247 434 289 326 336 426 292 
222 7 439 101 343 305 258 469 442 
223 7 239 326 434 336 151 55 54 
224 7 167 388 438 192 16 110 266 
225 7 24 308 368 466 314 443 370 
226 7 229 139 263 125 210 108 179 
227 7 283 18 76 190 71 78 116 
228 7 234 436 286 182 199 80 14 
229 7 139 226 125 263 210 108 162 
230 7 142 464 163 50 304 334 463 
231 7 12 70 137 20 41 74 25 
232 7 26 249 189 47 179 170 123 
233 3 395 419 195 
234 7 436 286 228 303 19 199 182 
235 7 425 382 459 82 98 141 220 
236 7 158 196 129 120 10 198 248 
237 7 185 93 238 337 450 357 146 
238 6 450 146 457 433 337 357 
239 7 223 326 151 434 453 336 54 
240 6 465 180 173 191 406 414 
241 7 287 8 293 215 63 42 447 
242 7 371 295 149 270 27 141 98 
243 7 360 349 449 95 392 345 474 
244 7 284 212 65 72 148 69 200 
245 7 161 2 65 72 254 169 58 
246 7 23 118 29 154 280 104 278 
247 7 221 289 111 45 119 220 434 
248 7 272 259 89 211 196 236 120 
249 7 26 192 232 438 189 110 279 
250 7 102 282 25 70 53 22 57 
251 7 80 14 436 174 11 73 228 
252 7 29 23 33 280 246 144 154 
253 5 446 445 9 61 340 
254 7 43 169 161 133 278 154 245 
255 4 3 112 83 257 
256 6 376 35 67 318 355 106 
257 7 83 116 88 3 112 283 71 
258 7 469 101 373 439 222 334 305 
259 7 89 211 248 91 168 272 59 
260 7 64 127 51 115 164 97 359 
261 7 421 429 75 271 46 383 460 
262 7 447 21 454 44 119 215 8 
263 7 226 139 179 229 189 108 279 
264 7 48 41 20 171 285 7 34 
265 7 354 46 109 421 84 114 271 
266 7 388 16 167 224 385 110 51 
267 7 172 153 165 31 96 37 152 
268 7 56 218 99 13 78 18 205 
269 3 343 305 222 
270 7 27 122 242 295 371 149 141 
271 7 46 421 114 261 75 265 429 
272 7 248 259 170 211 89 123 120 
273 7 39 32 361 441 375 420 188 
274 7 132 62 333 108 188 279 361 
275 7 281 133 43 130 169 254 198 
276 5 378 183 310 71 325 
277 7 147 5 374 138 402 188 346 
278 7 154 169 43 254 280 118 161 
279 7 108 189 62 179 132 274 263 
280 7 154 278 246 161 252 144 23 
281 7 275 133 130 198 43 254 169 
282 7 53 25 102 250 217 152 31 
283 7 227 76 88 116 36 18 71 
284 7 212 244 69 72 65 136 148 
285 7 171 156 58 219 209 2 34 
286 7 234 303 199 398 228 195 419 
287 7 8 241 215 447 63 293 262 
288 7 109 354 84 265 423 113 384 
289 7 119 247 221 454 21 262 111 
290 7 353 216 103 105 342 241 68 
291 5 363 377 369 145 475 
292 5 426 379 444 220 302 
293 7 42 63 241 342 287 44 8 
294 7 331 364 345 52 409 95 4 
295 7 149 371 242 270 27 141 122 
296 4 325 393 327 183 
297 7 166 185 357 337 344 30 146 
298 7 157 375 124 193 87 164 273 
299 6 432 320 28 356 182 233 
300 2 471 90 
301 7 151 216 50 464 142 54 330 
302 7 417 444 368 396 379 24 225 
303 4 286 19 398 234 
304 7 50 103 464 142 230 301 353 
305 7 343 442 411 439 222 269 86 
306 6 106 318 117 401 376 381 
307 7 440 312 206 355 319 67 428 
308 7 225 24 368 466 314 367 443 
309 4 311 173 433 240 
310 6 131 138 183 402 380 468 
311 3 309 173 240 
312 5 440 428 307 67 322 
313 5 435 460 81 412 66 
314 7 443 370 49 308 225 473 24 
315 1 81 
316 6 451 442 391 86 407 411 
317 4 448 328 81 412 
318 7 376 106 256 306 67 322 35 
319 7 206 6 307 403 416 352 400 
320 3 356 28 233 
321 4 389 473 49 430 
322 5 318 376 440 67 312 
323 5 415 100 377 351 458 
324 5 195 398 419 199 395 
325 4 296 393 183 327 
326 7 223 434 336 239 55 426 151 
327 1 183 
328 5 81 412 448 317 315 
329 4 86 362 411 358 
330 4 54 463 151 269 
331 7 294 364 345 95 52 409 4 
332 7 462 135 470 90 413 121 79 
333 7 132 274 188 62 361 162 85 
334 7 101 258 163 463 469 222 439 
335 2 126 390 
336 6 55 326 426 223 434 455 
337 7 357 146 344 185 457 30 450 
338 3 455 466 55 
339 7 468 399 9 445 452 380 253 
340 4 61 446 253 409 
341 3 214 424 427 
342 7 293 241 42 290 63 105 126 
343 6 305 269 222 439 442 411 
344 7 30 146 337 357 457 166 450 
345 7 52 294 449 331 95 409 364 
346 7 374 420 176 405 392 441 5 
347 7 397 365 202 121 79 214 427 
348 7 95 364 331 294 349 4 408 
349 7 95 449 348 345 331 52 294 
350 7 60 140 386 456 403 400 461 
351 6 100 458 323 415 363 377 
352 7 416 202 6 79 347 397 121 
353 7 290 103 216 105 304 301 50 
354 7 265 109 46 288 114 385 84 
355 7 400 35 403 67 307 256 206 
356 4 28 418 320 432 
357 7 337 344 185 146 166 30 457 
358 4 362 329 197 461 
359 7 97 383 429 208 261 472 410 
360 7 392 405 176 474 243 420 346 
361 7 32 273 333 188 39 132 274 
362 5 358 197 329 461 407 
363 6 291 377 323 351 415 100 
364 7 4 331 294 409 408 348 95 
365 7 397 121 347 79 413 214 424 
366 4 458 351 100 323 
367 3 308 430 225 
368 7 24 225 308 466 302 444 379 
369 5 475 145 291 422 363 
370 7 314 443 49 473 308 225 24 
371 7 242 295 149 141 270 27 98 
372 7 160 84 113 66 412 81 317 
373 6 469 258 439 101 442 222 
374 7 346 420 176 441 405 5 392 
375 7 298 193 157 124 273 39 87 
376 7 256 318 67 35 106 306 322 
377 5 415 323 363 100 291 
378 5 276 310 183 138 131 
379 5 444 302 368 417 24 
380 7 468 339 402 399 9 131 445 
381 7 396 49 117 370 417 443 314 
382 7 459 425 141 235 77 98 82 
383 5 472 208 410 429 460 
384 7 423 177 77 149 288 113 401 
385 7 114 107 109 354 110 46 167 
386 7 140 456 350 60 403 400 461 
387 7 394 408 191 406 414 465 4 
388 7 16 266 167 224 110 51 164 
389 4 473 321 49 430 
390 5 126 335 94 422 475 
391 6 407 451 461 197 316 362 
392 7 405 360 176 474 346 5 420 
393 4 296 325 327 183 
394 7 387 191 406 414 408 465 180 
395 3 233 419 195 
396 7 417 302 370 381 443 314 49 
397 7 347 365 121 79 202 214 427 
398 5 195 324 419 199 286 
399 6 468 339 452 9 380 445 
400 7 355 403 35 140 386 67 206 
401 7 117 77 106 306 177 459 318 
402 7 380 138 468 5 131 339 310 
403 7 400 355 140 386 206 319 350 
404 6 437 427 428 214 347 202 
405 7 392 176 360 346 5 374 474 
406 7 191 414 465 240 387 408 394 
407 6 391 461 197 451 316 362 
408 7 4 414 364 387 191 406 409 
409 7 4 294 331 364 340 52 345 
410 4 472 208 383 460 
411 6 86 442 305 316 329 343 
412 7 81 328 372 66 313 317 435 
413 6 424 365 121 397 341 347 
414 7 191 406 408 465 240 387 4 
415 3 323 100 377 
416 7 352 6 79 202 470 319 135 
417 7 302 396 444 368 443 24 225 
418 2 356 28 
419 7 199 195 398 182 233 395 324 
420 7 346 176 374 441 405 360 392 
421 7 46 75 261 271 429 265 114 
422 7 475 186 369 145 431 390 94 
423 7 384 177 288 149 77 295 113 
424 6 413 341 365 214 121 427 
425 7 235 382 459 82 98 141 77 
426 5 336 455 55 292 379 
427 7 214 341 437 347 404 397 365 
428 5 404 312 440 437 202 
429 7 75 261 383 421 460 359 435 
430 4 367 473 49 314 
431 7 422 94 186 68 390 475 145 
432 5 299 28 356 320 418 
433 6 309 450 238 173 457 146 
434 7 326 223 239 336 454 453 221 
435 5 460 313 66 412 81 
436 7 234 228 251 73 80 286 14 
437 5 404 427 214 428 347 
438 7 192 224 361 249 32 274 132 
439 7 222 101 305 343 469 442 258 
440 5 312 307 428 67 322 
441 7 39 374 420 346 273 176 32 
442 7 316 305 411 86 343 451 439 
443 7 314 370 49 308 225 473 24 
444 6 379 302 368 417 24 225 
445 7 9 253 452 339 446 61 399 
446 5 253 61 340 445 9 
447 7 262 8 215 287 454 241 21 
448 4 317 328 81 315 
449 7 95 345 52 349 294 331 364 
450 7 238 146 457 337 433 30 344 
451 6 316 391 407 442 197 461 
452 6 9 399 445 339 253 468 
453 7 239 215 454 223 434 8 151 
454 7 215 447 434 453 8 262 289 
455 4 338 55 466 426 
456 7 386 140 60 350 461 391 407 
457 7 146 30 450 344 337 238 357 
458 5 100 351 323 415 366 
459 7 382 425 77 141 235 98 82 
460 5 435 313 75 66 429 
461 7 197 407 391 362 451 316 358 
462 7 332 135 470 90 121 413 79 
463 7 101 222 334 269 439 163 343 
464 7 142 230 50 304 163 301 103 
465 7 180 240 406 191 414 173 394 
466 5 24 225 308 368 338 
467 3 204 317 113 
468 7 339 399 380 452 9 445 131 
469 7 258 101 373 439 222 334 442 
470 7 135 332 462 79 121 413 365 
471 2 90 424 
472 4 410 208 383 460 
473 6 49 389 370 314 430 443 
474 7 392 360 52 61 445 446 405 
475 5 369 145 422 291 186 
DEPOT_SECTION
   1
   -1
EOF
