NAME :  X-n573-kX-w228-c9.cctp
COMMENT : 	Adapted by Maziero, Usberti and Cavellucci from the Uchoa, Pecin, Pessoa, Poggi, Subramanian, and Vidal (2013)
TYPE :  CCTP
DIMENSION :    573
EDGE_WEIGHT_TYPE : 	EUC_2D	
CAPACITY : 	210
VERTICES_WITHIN_COVERAGE :  9
VERTICES_WITH_DEMAND : 	228
NODE_COORD_SECTION
1 0 0
2 753 355
3 663 83
4 725 286
5 734 504
6 704 145
7 728 311
8 675 58
9 617 242
10 864 334
11 772 258
12 516 109
13 717 123
14 768 161
15 598 365
16 896 569
17 781 281
18 898 397
19 714 126
20 780 311
21 809 60
22 728 244
23 724 219
24 712 177
25 694 432
26 491 157
27 854 648
28 612 179
29 623 337
30 788 320
31 772 378
32 736 308
33 692 303
34 737 334
35 576 27
36 731 360
37 763 301
38 633 578
39 935 244
40 513 73
41 511 133
42 671 349
43 729 254
44 771 261
45 851 278
46 827 365
47 682 113
48 553 425
49 544 282
50 706 165
51 527 26
52 580 220
53 908 303
54 841 306
55 656 34
56 864 196
57 618 270
58 699 347
59 787 289
60 678 11
61 643 387
62 757 114
63 858 395
64 706 157
65 713 243
66 663 319
67 615 448
68 898 477
69 767 131
70 718 334
71 871 216
72 694 435
73 617 345
74 645 75
75 513 50
76 767 259
77 773 313
78 589 104
79 760 287
80 595 425
81 763 240
82 569 225
83 702 417
84 593 51
85 656 83
86 532 93
87 834 351
88 832 274
89 751 126
90 796 290
91 872 212
92 835 257
93 702 185
94 673 187
95 596 422
96 740 147
97 890 180
98 556 120
99 638 386
100 748 319
101 620 112
102 794 226
103 641 383
104 594 302
105 725 400
106 731 321
107 703 296
108 614 503
109 715 179
110 781 317
111 841 365
112 783 270
113 778 420
114 770 372
115 907 192
116 913 434
117 647 749
118 683 171
119 649 324
120 359 195
121 867 471
122 585 218
123 757 323
124 914 399
125 681 323
126 603 251
127 554 275
128 762 315
129 813 342
130 801 379
131 724 14
132 775 342
133 727 221
134 715 314
135 731 363
136 788 250
137 649 29
138 655 407
139 567 325
140 624 88
141 763 422
142 669 54
143 785 537
144 765 384
145 654 348
146 677 313
147 848 491
148 814 112
149 699 70
150 658 353
151 550 42
152 853 372
153 540 24
154 626 65
155 661 37
156 769 395
157 715 396
158 714 325
159 729 241
160 692 271
161 638 306
162 715 360
163 697 213
164 704 114
165 699 231
166 911 240
167 789 296
168 598 279
169 656 384
170 636 117
171 637 296
172 864 347
173 844 382
174 595 121
175 590 28
176 734 288
177 641 174
178 789 60
179 729 563
180 839 459
181 685 249
182 626 159
183 610 15
184 671 265
185 1000 201
186 875 408
187 419 38
188 671 63
189 693 73
190 803 184
191 690 55
192 680 192
193 511 191
194 899 256
195 610 110
196 827 287
197 672 526
198 751 216
199 755 311
200 770 321
201 750 262
202 665 436
203 595 339
204 743 228
205 748 421
206 736 240
207 747 298
208 511 179
209 753 707
210 413 402
211 628 437
212 661 207
213 737 328
214 711 285
215 655 325
216 800 288
217 804 352
218 678 59
219 623 79
220 825 278
221 736 469
222 728 268
223 675 177
224 641 245
225 686 180
226 617 646
227 903 84
228 646 72
229 778 409
230 865 386
231 928 420
232 668 91
233 702 123
234 705 306
235 574 355
236 684 468
237 700 483
238 617 442
239 629 426
240 767 394
241 750 212
242 828 227
243 544 253
244 605 107
245 746 356
246 737 130
247 638 79
248 600 47
249 734 377
250 652 13
251 482 164
252 737 249
253 740 161
254 554 181
255 623 270
256 748 363
257 655 305
258 878 250
259 638 311
260 743 397
261 663 78
262 649 322
263 718 309
264 711 345
265 750 222
266 734 195
267 691 372
268 676 264
269 793 263
270 638 111
271 717 372
272 670 184
273 635 112
274 677 120
275 708 173
276 741 62
277 483 71
278 851 348
279 776 165
280 807 346
281 659 341
282 732 272
283 815 259
284 739 375
285 907 319
286 777 316
287 756 77
288 668 72
289 766 304
290 661 144
291 599 97
292 648 208
293 696 412
294 878 216
295 507 50
296 848 417
297 673 295
298 734 420
299 676 104
300 756 332
301 667 238
302 616 134
303 692 255
304 705 186
305 675 191
306 657 99
307 760 418
308 827 350
309 662 529
310 821 447
311 759 191
312 753 72
313 859 378
314 646 242
315 896 475
316 566 258
317 645 338
318 546 60
319 748 263
320 805 435
321 785 387
322 510 198
323 937 390
324 641 386
325 759 274
326 714 352
327 674 332
328 662 189
329 712 354
330 685 112
331 628 73
332 728 372
333 703 99
334 692 48
335 746 335
336 791 248
337 579 98
338 732 249
339 503 63
340 595 63
341 877 228
342 812 137
343 788 235
344 647 192
345 738 410
346 600 100
347 742 417
348 616 343
349 830 330
350 681 162
351 809 41
352 845 394
353 714 51
354 602 236
355 590 57
356 766 375
357 746 391
358 657 113
359 630 128
360 643 248
361 623 315
362 805 534
363 639 178
364 603 114
365 779 398
366 680 289
367 994 383
368 463 284
369 715 367
370 625 297
371 773 278
372 701 345
373 729 331
374 658 317
375 807 287
376 638 7
377 669 12
378 616 128
379 587 403
380 962 294
381 717 278
382 557 161
383 565 465
384 631 245
385 816 144
386 706 90
387 771 428
388 839 190
389 786 419
390 754 358
391 687 82
392 690 187
393 692 441
394 839 365
395 763 191
396 724 301
397 791 198
398 697 159
399 661 220
400 776 276
401 736 431
402 892 182
403 602 33
404 487 297
405 747 65
406 721 103
407 744 240
408 648 381
409 571 6
410 646 130
411 758 317
412 779 433
413 737 308
414 736 197
415 585 87
416 668 304
417 863 289
418 861 472
419 628 358
420 857 330
421 755 375
422 601 537
423 759 310
424 704 272
425 642 346
426 710 240
427 877 382
428 877 287
429 573 197
430 339 383
431 651 320
432 754 254
433 694 52
434 814 293
435 703 274
436 496 169
437 766 182
438 480 92
439 847 178
440 928 298
441 871 664
442 656 36
443 753 175
444 742 128
445 760 363
446 677 376
447 761 383
448 855 434
449 773 366
450 710 177
451 762 378
452 876 191
453 801 250
454 481 159
455 839 209
456 544 312
457 749 288
458 704 91
459 647 158
460 722 176
461 608 213
462 720 277
463 757 350
464 697 229
465 890 258
466 779 273
467 949 223
468 738 400
469 674 438
470 626 293
471 716 467
472 593 371
473 872 314
474 616 310
475 670 454
476 762 339
477 676 366
478 766 318
479 753 389
480 766 236
481 671 75
482 901 344
483 737 290
484 602 77
485 784 319
486 783 268
487 792 335
488 813 294
489 768 302
490 770 281
491 798 190
492 696 305
493 714 336
494 684 65
495 686 329
496 751 357
497 667 260
498 734 295
499 538 203
500 838 499
501 104 364
502 689 47
503 621 231
504 656 128
505 595 31
506 793 258
507 844 287
508 630 165
509 537 118
510 607 413
511 783 359
512 673 280
513 756 224
514 676 466
515 609 102
516 738 221
517 556 84
518 789 84
519 624 239
520 721 70
521 711 338
522 649 180
523 229 166
524 782 342
525 759 222
526 872 494
527 589 39
528 533 226
529 704 206
530 644 66
531 830 288
532 585 126
533 660 72
534 554 11
535 755 300
536 587 243
537 708 115
538 610 16
539 774 505
540 640 436
541 683 210
542 936 268
543 795 414
544 693 592
545 817 108
546 710 305
547 739 217
548 725 45
549 638 118
550 711 456
551 783 128
552 761 313
553 866 479
554 817 400
555 554 297
556 778 342
557 654 271
558 756 239
559 748 41
560 648 151
561 701 286
562 735 275
563 792 334
564 674 111
565 754 300
566 740 149
567 798 531
568 661 275
569 530 155
570 532 181
571 587 360
572 869 444
573 794 227
DEMAND_SECTION
2 78
3 96
4 64
5 87
6 70
7 57
8 63
9 86
10 89
11 64
12 53
13 86
14 69
15 94
16 62
17 96
18 89
19 92
20 72
21 59
22 93
23 55
24 96
25 81
26 65
27 52
28 99
29 99
30 57
31 100
32 73
33 61
34 64
35 85
36 69
37 55
38 95
39 95
40 64
41 73
42 99
43 88
44 89
45 10
46 9
47 5
48 1
49 3
50 9
51 5
52 4
53 10
54 3
55 5
56 7
57 9
58 6
59 5
60 8
61 2
62 4
63 3
64 3
65 6
66 3
67 3
68 8
69 5
70 9
71 10
72 4
73 2
74 10
75 1
76 3
77 2
78 5
79 4
80 5
81 7
82 3
83 1
84 7
85 9
86 4
87 4
88 6
89 2
90 8
91 8
92 5
93 5
94 9
95 10
96 8
97 1
98 6
99 10
100 6
101 10
102 6
103 7
104 6
105 2
106 9
107 6
108 8
109 6
110 3
111 10
112 6
113 4
114 2
115 9
116 6
117 1
118 3
119 9
120 8
121 8
122 1
123 4
124 4
125 2
126 7
127 5
128 2
129 10
130 7
131 9
132 1
133 9
134 2
135 2
136 4
137 6
138 2
139 4
140 6
141 6
142 7
143 5
144 9
145 6
146 10
147 1
148 3
149 9
150 3
151 4
152 6
153 1
154 8
155 5
156 7
157 5
158 2
159 1
160 8
161 6
162 7
163 4
164 6
165 5
166 1
167 8
168 9
169 8
170 9
171 8
172 9
173 3
174 9
175 2
176 4
177 6
178 8
179 9
180 1
181 5
182 6
183 2
184 4
185 2
186 2
187 3
188 6
189 7
190 6
191 9
192 9
193 1
194 10
195 7
196 2
197 1
198 5
199 7
200 4
201 9
202 4
203 1
204 10
205 1
206 1
207 2
208 5
209 6
210 10
211 7
212 2
213 1
214 6
215 3
216 2
217 4
218 4
219 1
220 4
221 10
222 2
223 2
224 6
225 7
226 7
227 10
228 4
229 9
COVERAGE_SECTION
2 9 390 496 463 245 256 445 476 421 335 
3 9 261 85 232 481 533 288 306 74 228 
4 9 176 462 381 483 498 214 396 562 282 
5 9 221 237 539 471 550 179 143 236 197 
6 9 64 398 50 19 233 13 275 350 537 
7 9 32 413 106 263 396 134 498 213 546 
8 9 218 188 142 494 191 288 481 502 334 
9 9 519 503 384 354 126 224 360 57 255 
10 9 420 172 278 473 87 349 54 482 111 
11 9 44 76 486 112 466 136 400 432 81 
12 9 86 509 41 40 438 98 517 339 569 
13 9 19 537 233 164 406 246 444 6 333 
14 9 279 437 443 253 69 395 566 96 311 
15 9 472 571 203 235 73 348 419 29 379 
16 9 526 27 500 68 147 315 553 362 441 
17 9 400 466 371 59 112 490 486 90 167 
18 9 124 186 427 230 231 63 116 323 313 
19 9 13 233 537 164 6 246 406 444 333 
20 9 110 286 77 485 30 200 489 289 478 
21 9 351 178 518 545 148 287 312 405 559 
22 9 159 338 206 43 252 65 407 426 204 
23 9 133 516 547 204 159 206 529 22 414 
24 9 450 109 275 460 304 50 93 64 398 
25 9 72 393 83 293 469 202 550 475 236 
26 9 454 251 436 208 41 193 569 322 570 
27 9 441 16 209 362 567 143 500 179 526 
28 9 508 182 363 177 461 344 522 459 429 
29 9 348 73 425 317 361 419 203 474 119 
30 9 485 110 20 286 563 487 77 200 478 
31 9 114 356 144 451 447 449 321 156 240 
32 9 413 7 498 106 396 207 100 263 483 
33 9 492 107 234 146 366 546 561 297 125 
34 9 213 335 373 106 70 100 300 123 493 
35 9 175 527 505 409 403 534 84 151 248 
36 9 135 332 162 245 249 256 284 369 271 
37 9 289 489 535 565 423 552 199 79 128 
38 9 422 309 544 197 226 108 179 237 514 
39 9 166 542 467 194 465 440 258 380 115 
40 9 339 75 295 86 277 318 12 438 517 
41 9 12 569 509 26 436 454 251 86 208 
42 9 150 281 145 327 477 495 58 125 317 
43 9 338 252 22 159 222 206 282 65 319 
44 9 11 76 466 486 112 400 371 325 432 
45 9 507 417 88 531 92 196 220 428 54 
46 9 394 111 308 87 173 217 129 152 280 
47 9 330 564 274 299 164 233 333 358 232 
48 9 379 80 383 95 510 67 238 472 235 
49 9 127 555 243 456 316 139 104 168 528 
50 9 64 275 398 24 450 109 460 6 93 
51 9 153 75 151 295 534 318 339 409 35 
52 9 122 82 429 536 354 461 126 316 503 
53 9 285 440 428 473 482 542 417 194 465 
54 9 507 531 196 349 417 420 45 434 488 
55 9 442 155 137 250 142 377 8 60 376 
56 9 452 91 71 294 439 388 455 97 402 
57 9 255 168 126 470 9 370 384 171 519 
58 9 372 264 329 521 326 493 162 495 70 
59 9 167 90 17 216 400 371 466 112 490 
60 9 377 250 155 55 442 137 502 334 376 
61 9 324 103 99 408 169 138 419 446 150 
62 9 89 69 444 246 551 96 287 406 566 
63 9 230 352 313 173 186 427 152 296 111 
64 9 50 398 6 275 450 24 109 350 460 
65 9 426 22 159 165 43 338 464 206 303 
66 9 374 215 431 262 119 146 257 416 327 
67 9 238 211 239 540 80 95 510 202 379 
68 9 315 526 121 553 418 572 116 147 448 
69 9 551 89 62 444 14 246 96 566 279 
70 9 493 521 158 373 264 106 326 34 134 
71 9 91 294 341 56 452 455 258 402 97 
72 9 25 393 83 469 293 550 202 475 236 
73 9 348 29 419 203 425 15 317 361 571 
74 9 228 247 530 85 533 331 261 3 154 
75 9 295 339 40 51 318 153 277 151 86 
76 9 44 11 432 201 325 466 486 81 112 
77 9 286 20 110 200 478 128 289 489 552 
78 9 291 337 346 244 364 415 174 515 195 
79 9 457 490 325 37 535 565 371 207 489 
80 9 95 510 379 238 67 239 211 48 540 
81 9 480 558 432 513 525 76 407 11 44 
82 9 52 122 536 429 316 354 528 243 499 
83 9 293 25 72 157 393 105 298 469 345 
84 9 355 248 340 527 403 505 175 484 35 
85 9 3 261 533 74 232 228 288 306 481 
86 9 12 509 517 40 98 318 339 41 75 
87 9 308 394 46 111 278 349 129 280 152 
88 9 220 196 531 92 507 45 283 434 375 
89 9 444 62 246 69 96 566 551 13 19 
90 9 216 59 167 375 17 488 434 112 400 
91 9 71 294 341 56 452 455 402 97 258 
92 9 88 283 220 45 196 242 507 531 453 
93 9 304 450 392 24 275 109 225 50 529 
94 9 272 305 192 223 328 225 392 118 212 
95 9 80 510 379 238 67 239 211 48 540 
96 9 566 253 246 444 89 14 69 443 13 
97 9 402 452 115 56 91 294 71 439 341 
98 9 509 532 337 86 517 78 174 12 382 
99 9 324 103 61 408 169 138 419 150 425 
100 9 123 411 199 213 423 552 128 300 32 
101 9 195 273 515 244 378 170 364 270 359 
102 9 573 343 336 136 453 397 480 506 81 
103 9 324 61 99 408 169 138 419 150 145 
104 9 168 474 370 361 470 139 203 57 555 
105 9 157 468 345 260 298 357 347 249 332 
106 9 213 7 373 32 34 413 100 134 158 
107 9 234 561 492 546 33 214 263 134 396 
108 9 422 67 309 238 197 383 211 514 540 
109 9 24 450 460 275 304 93 50 64 266 
110 9 286 485 20 30 77 200 478 128 289 
111 9 394 46 152 87 173 278 308 313 172 
112 9 486 466 400 17 269 371 44 11 506 
113 9 389 229 387 412 141 307 543 365 156 
114 9 356 31 449 451 144 445 447 421 511 
115 9 402 97 452 294 91 56 71 341 166 
116 9 231 124 18 315 572 68 186 323 448 
117 9 226 209 544 38 179 422 309 197 27 
118 9 225 350 223 392 272 398 94 192 305 
119 9 262 431 215 374 66 317 259 257 281 
120 9 251 454 523 26 368 436 322 193 208 
121 9 418 553 526 572 147 315 180 68 448 
122 9 52 82 429 461 354 536 126 503 9 
123 9 411 128 300 100 478 552 199 200 423 
124 9 18 231 323 116 186 427 230 63 482 
125 9 495 146 327 66 33 416 492 374 215 
126 9 354 9 536 57 519 503 168 255 384 
127 9 49 316 555 243 456 168 536 104 82 
128 9 552 411 478 423 199 123 200 77 289 
129 9 280 217 308 349 487 563 87 46 524 
130 9 321 554 217 511 31 365 46 449 114 
131 9 548 559 353 60 334 433 502 276 191 
132 9 556 524 476 487 511 563 463 300 200 
133 9 23 516 547 204 159 206 22 265 198 
134 9 263 546 158 7 234 396 106 70 492 
135 9 36 332 249 284 162 369 245 256 271 
136 9 336 506 453 269 343 11 486 44 112 
137 9 55 442 155 250 376 377 142 60 530 
138 9 61 169 324 99 408 103 202 239 540 
139 9 456 203 235 555 104 571 49 15 474 
140 9 219 331 247 515 154 101 74 484 195 
141 9 307 387 113 205 412 229 347 389 156 
142 9 8 188 218 288 155 494 533 191 481 
143 9 567 362 539 5 179 500 147 221 180 
144 9 447 451 31 356 240 156 114 421 479 
145 9 150 281 425 317 42 215 119 262 327 
146 9 125 416 66 33 297 495 327 374 492 
147 9 500 553 418 526 121 180 315 572 68 
148 9 545 342 385 551 518 69 21 62 178 
149 9 189 494 191 391 433 386 458 520 334 
150 9 145 281 42 425 317 477 327 215 119 
151 9 318 153 51 35 534 75 527 175 409 
152 9 313 173 111 394 230 352 63 278 427 
153 9 51 534 151 35 318 409 75 295 175 
154 9 331 219 247 530 74 228 140 484 340 
155 9 442 55 137 142 8 250 377 188 218 
156 9 240 365 144 447 31 229 479 321 451 
157 9 105 468 271 83 293 249 332 345 260 
158 9 70 134 493 521 263 373 106 7 264 
159 9 22 206 338 252 43 407 65 204 426 
160 9 435 424 303 268 561 512 184 366 181 
161 9 259 171 370 257 361 470 262 431 119 
162 9 329 369 326 271 36 135 264 332 58 
163 9 529 541 464 165 192 392 23 93 304 
164 9 537 233 333 13 19 330 406 47 458 
165 9 464 426 65 163 181 303 529 541 23 
166 9 194 39 465 258 341 542 294 467 71 
167 9 59 90 216 17 20 375 110 489 77 
168 9 57 104 255 126 470 370 474 316 536 
169 9 408 61 103 324 99 446 138 477 150 
170 9 549 273 270 359 410 101 358 378 504 
171 9 161 470 370 259 257 361 474 431 262 
172 9 10 278 420 152 111 87 313 394 473 
173 9 352 152 313 111 394 63 230 46 554 
174 9 364 532 244 78 195 346 378 291 515 
175 9 505 527 403 35 248 84 538 183 355 
176 9 483 498 4 562 457 207 282 396 462 
177 9 363 522 508 459 344 182 560 328 28 
178 9 21 518 351 287 312 405 559 276 545 
179 9 544 5 143 197 539 309 567 362 237 
180 9 310 418 121 448 147 553 572 500 320 
181 9 303 268 184 301 497 160 165 464 426 
182 9 508 177 459 363 560 28 302 359 522 
183 9 538 403 505 175 376 527 248 35 84 
184 9 268 497 568 512 557 181 160 303 366 
185 9 467 39 115 542 166 380 402 97 194 
186 9 63 230 18 427 296 352 448 313 572 
187 9 277 438 339 295 75 40 51 12 153 
188 9 8 218 142 288 481 494 533 261 191 
189 9 149 391 494 191 218 386 433 458 481 
190 9 491 397 279 388 437 395 14 385 102 
191 9 433 334 502 494 218 8 149 189 142 
192 9 305 94 392 225 272 223 328 541 118 
193 9 322 208 570 436 499 26 251 528 569 
194 9 465 166 258 341 39 428 542 294 53 
195 9 244 364 515 101 346 291 174 378 78 
196 9 531 220 88 434 488 507 375 54 45 
197 9 309 237 236 514 108 38 5 179 544 
198 9 241 265 513 525 547 204 516 414 558 
199 9 423 552 411 128 100 535 565 123 37 
200 9 478 77 286 128 110 552 123 411 20 
201 9 319 432 325 76 252 562 44 282 11 
202 9 469 475 540 393 25 72 138 514 211 
203 9 348 571 73 15 235 29 139 472 474 
204 9 265 516 407 547 198 206 513 133 241 
205 9 347 307 298 141 345 401 468 387 260 
206 9 159 407 22 252 338 204 43 516 558 
207 9 565 535 457 483 498 413 32 199 37 
208 9 193 436 322 570 26 569 251 454 499 
209 9 117 27 441 544 179 226 143 38 362 
210 9 430 368 404 48 456 383 235 139 379 
211 9 239 238 540 67 510 80 95 202 138 
212 9 292 399 328 305 344 541 94 192 272 
213 9 34 106 373 335 100 7 300 32 70 
214 9 381 561 462 4 107 435 424 546 396 
215 9 119 431 262 374 66 281 317 257 327 
216 9 90 375 59 167 488 434 17 112 269 
217 9 280 129 487 511 563 308 524 46 130 
218 9 8 188 494 142 191 288 502 433 481 
219 9 331 140 154 247 484 74 228 530 515 
220 9 88 196 531 434 375 488 283 507 92 
221 9 471 550 5 401 237 205 298 236 347 
222 9 282 562 462 43 381 4 338 176 252 
223 9 272 94 118 225 305 192 350 328 392 
224 9 360 314 384 519 9 503 301 557 497 
225 9 392 118 223 192 94 272 305 93 350 
226 9 38 544 117 422 309 197 179 108 209 
227 9 545 148 21 97 402 351 342 385 115 
228 9 74 530 247 533 85 261 331 3 154 
229 9 113 365 389 156 543 240 141 307 387 
230 9 313 63 427 152 173 352 186 111 394 
231 9 116 124 323 18 186 68 315 427 572 
232 9 3 85 261 306 299 481 288 391 533 
233 9 164 537 19 13 330 6 47 333 274 
234 9 546 492 107 33 134 263 396 561 158 
235 9 571 472 15 203 139 73 348 379 29 
236 9 514 475 237 393 550 469 471 72 25 
237 9 236 471 514 550 221 5 475 393 72 
238 9 67 211 239 540 80 95 510 202 379 
239 9 211 540 238 67 510 138 95 80 202 
240 9 156 144 365 447 479 31 451 229 321 
241 9 198 265 547 513 525 516 204 414 266 
242 9 455 92 102 573 283 453 388 343 336 
243 9 316 127 49 528 82 536 555 52 499 
244 9 195 515 364 346 291 78 101 174 378 
245 9 496 2 256 390 463 36 445 135 284 
246 9 444 89 96 566 13 19 62 69 253 
247 9 74 228 331 530 219 140 85 154 533 
248 9 84 355 403 527 340 505 175 484 35 
249 9 284 332 135 36 271 357 256 369 421 
250 9 376 137 377 55 442 60 155 183 538 
251 9 454 26 436 208 193 41 322 569 570 
252 9 338 43 206 22 159 407 201 319 432 
253 9 566 96 443 460 14 109 246 24 437 
254 9 382 570 429 499 569 208 193 82 52 
255 9 57 470 384 168 370 126 9 171 360 
256 9 245 496 390 2 445 421 284 463 36 
257 9 374 416 66 431 161 259 262 119 171 
258 9 465 194 341 166 294 71 428 91 45 
259 9 161 171 262 361 431 119 257 370 374 
260 9 468 357 479 345 105 347 249 284 447 
261 9 3 533 288 85 481 232 188 74 228 
262 9 119 431 215 374 66 259 317 257 161 
263 9 134 546 7 396 234 158 32 106 413 
264 9 521 326 329 493 372 58 70 162 158 
265 9 198 513 204 525 241 516 547 558 407 
266 9 414 460 241 547 109 311 23 516 133 
267 9 446 477 369 58 271 162 329 372 42 
268 9 184 497 512 160 181 303 568 557 366 
269 9 506 486 112 136 336 453 466 400 11 
270 9 273 170 549 101 358 359 410 306 504 
271 9 369 332 162 135 36 249 329 326 284 
272 9 94 223 305 328 192 225 118 392 522 
273 9 270 170 549 101 359 410 358 195 378 
274 9 47 564 330 299 358 504 233 164 290 
275 9 450 24 50 109 93 304 460 64 398 
276 9 405 312 287 520 559 548 353 149 386 
277 9 438 339 40 295 75 12 86 51 318 
278 9 172 87 10 420 111 394 152 308 349 
279 9 14 437 443 395 311 190 491 69 253 
280 9 129 217 487 563 308 524 87 511 46 
281 9 145 150 42 317 215 327 425 119 262 
282 9 562 222 462 4 176 381 43 319 483 
283 9 453 92 220 269 506 88 336 136 375 
284 9 249 332 135 256 421 36 357 245 479 
285 9 53 482 440 473 428 10 172 420 417 
286 9 110 77 20 485 200 478 30 128 289 
287 9 312 405 276 518 520 62 178 559 406 
288 9 481 261 533 188 3 8 85 218 494 
289 9 489 37 423 552 77 128 535 199 565 
290 9 560 504 459 410 350 274 358 118 359 
291 9 346 515 78 244 195 364 415 337 484 
292 9 212 344 399 328 522 363 305 94 272 
293 9 83 25 72 157 393 105 469 202 298 
294 9 71 91 341 56 452 258 402 97 115 
295 9 75 339 40 51 277 318 153 151 86 
296 9 448 352 63 186 572 173 230 554 310 
297 9 366 416 512 146 33 257 568 492 66 
298 9 347 345 401 205 468 105 260 307 141 
299 9 564 47 330 232 274 306 358 3 391 
300 9 123 476 335 100 411 478 128 200 463 
301 9 399 181 314 497 360 184 224 268 303 
302 9 378 359 101 364 174 195 170 182 549 
303 9 181 160 268 424 435 184 426 65 165 
304 9 93 450 24 109 275 392 225 460 529 
305 9 94 192 272 328 223 225 392 212 541 
306 9 232 358 85 3 299 564 261 270 273 
307 9 141 205 387 113 347 229 345 412 156 
308 9 87 46 129 394 280 349 111 217 278 
309 9 197 108 38 237 422 236 514 544 179 
310 9 320 180 448 296 543 412 389 418 554 
311 9 395 437 443 241 414 266 198 14 279 
312 9 287 405 276 559 520 178 518 548 62 
313 9 152 230 173 63 427 352 111 394 172 
314 9 224 360 384 301 519 399 503 497 9 
315 9 68 121 553 526 418 572 116 147 448 
316 9 127 243 536 49 82 126 168 52 555 
317 9 425 145 281 119 215 262 431 150 29 
318 9 151 517 75 40 86 153 51 295 339 
319 9 201 432 325 252 282 562 76 43 222 
320 9 310 543 389 412 113 387 229 554 180 
321 9 365 31 130 156 240 144 114 356 229 
322 9 193 208 499 570 436 528 251 26 254 
323 9 124 231 18 116 367 482 427 186 230 
324 9 61 99 103 408 169 138 419 150 446 
325 9 79 490 201 371 319 76 400 457 44 
326 9 329 162 264 521 369 372 58 493 70 
327 9 125 495 42 66 281 146 215 374 119 
328 9 272 94 305 344 522 192 212 223 292 
329 9 326 162 264 369 372 58 521 493 271 
330 9 47 274 564 299 164 233 333 537 232 
331 9 154 219 247 140 74 530 228 484 85 
332 9 249 135 271 284 36 369 162 256 245 
333 9 458 386 164 537 406 330 391 233 47 
334 9 502 433 191 218 494 8 353 149 142 
335 9 34 300 213 100 123 476 373 463 2 
336 9 136 453 506 343 269 11 573 102 486 
337 9 78 415 291 346 517 174 244 364 532 
338 9 252 22 43 159 206 407 222 65 319 
339 9 40 295 75 277 438 86 318 51 12 
340 9 355 84 484 248 527 415 154 403 219 
341 9 294 71 91 258 465 56 166 194 452 
342 9 385 148 545 551 69 279 190 14 439 
343 9 573 102 336 136 453 480 506 81 11 
344 9 522 328 292 363 177 212 272 94 305 
345 9 347 468 298 260 205 105 357 401 307 
346 9 291 244 515 78 195 364 415 337 174 
347 9 205 345 298 401 468 307 260 141 105 
348 9 73 29 419 203 425 15 317 361 474 
349 9 308 87 129 54 420 278 280 10 217 
350 9 118 223 398 225 50 64 272 94 290 
351 9 21 178 518 559 287 312 405 545 148 
352 9 173 63 313 230 152 296 111 554 394 
353 9 548 433 520 334 149 191 502 276 189 
354 9 126 9 536 503 519 461 122 52 384 
355 9 84 340 248 527 484 505 403 175 415 
356 9 114 451 31 144 447 421 449 445 240 
357 9 260 479 468 284 447 249 421 144 240 
358 9 306 504 564 270 410 549 170 274 299 
359 9 170 549 378 302 410 273 101 270 504 
360 9 224 314 384 519 557 301 9 497 503 
361 9 474 259 161 370 29 470 171 262 119 
362 9 567 143 539 500 147 5 526 179 180 
363 9 177 522 344 508 459 182 328 28 560 
364 9 244 195 174 515 346 78 101 291 378 
365 9 156 229 240 321 144 31 113 389 447 
366 9 297 512 33 416 561 160 492 107 146 
367 9 323 231 124 380 116 18 482 285 440 
368 9 404 49 456 243 127 528 555 322 193 
369 9 271 162 329 332 326 135 36 249 264 
370 9 470 171 161 474 361 259 255 57 104 
371 9 400 490 466 17 112 486 325 79 44 
372 9 58 264 521 329 326 493 70 162 495 
373 9 34 213 106 70 158 493 335 521 7 
374 9 66 431 215 262 119 257 416 146 259 
375 9 216 434 488 90 59 167 196 220 531 
376 9 250 137 183 538 377 55 442 155 60 
377 9 60 250 55 137 155 442 376 502 142 
378 9 302 359 101 195 364 174 170 244 549 
379 9 95 510 80 472 15 48 571 239 238 
380 9 440 542 53 39 285 467 166 194 482 
381 9 462 214 4 424 222 435 282 561 562 
382 9 254 569 570 429 98 532 499 509 208 
383 9 48 80 67 95 238 108 379 510 211 
384 9 519 224 360 9 314 503 255 57 126 
385 9 342 148 545 551 190 279 439 491 14 
386 9 458 333 406 149 189 391 164 520 537 
387 9 412 141 113 307 389 229 205 543 347 
388 9 439 455 56 190 452 242 91 71 491 
389 9 113 543 229 412 387 365 141 320 307 
390 9 2 496 245 256 445 463 421 114 356 
391 9 189 149 481 494 458 232 288 386 333 
392 9 225 192 93 304 305 94 118 223 272 
393 9 72 25 469 550 83 475 202 236 293 
394 9 111 46 87 152 173 308 278 313 352 
395 9 311 437 443 241 198 414 266 279 397 
396 9 263 7 498 32 4 413 546 134 176 
397 9 491 190 102 395 573 437 311 279 343 
398 9 64 50 6 350 118 275 450 24 225 
399 9 212 292 301 541 314 328 344 224 305 
400 9 371 466 17 490 112 486 44 59 325 
401 9 298 347 205 345 307 141 468 105 260 
402 9 97 115 452 56 91 294 71 439 341 
403 9 505 175 248 527 538 84 183 35 355 
404 9 368 49 456 555 127 243 139 528 316 
405 9 276 312 287 559 520 548 353 178 406 
406 9 333 537 13 164 386 458 19 233 246 
407 9 206 252 204 558 159 338 22 432 81 
408 9 103 61 169 324 99 138 446 150 419 
409 9 534 35 175 505 153 527 183 538 403 
410 9 504 549 170 359 358 270 273 290 560 
411 9 128 552 123 199 423 478 100 200 289 
412 9 387 113 389 141 229 307 543 320 205 
413 9 32 7 498 106 207 396 100 199 483 
414 9 266 547 241 198 311 516 23 460 133 
415 9 337 78 291 346 484 340 244 515 517 
416 9 297 146 257 66 374 366 125 431 33 
417 9 428 45 507 473 54 531 88 196 220 
418 9 121 553 147 526 180 572 315 500 68 
419 9 73 425 348 29 317 103 145 99 150 
420 9 10 172 278 473 349 54 87 308 111 
421 9 451 447 356 144 445 256 479 114 284 
422 9 108 38 309 197 383 67 238 514 211 
423 9 199 552 128 411 289 37 478 535 565 
424 9 435 160 381 561 214 462 303 107 222 
425 9 317 145 150 281 419 29 119 73 215 
426 9 65 165 464 22 159 303 43 338 23 
427 9 230 313 63 18 152 186 173 352 172 
428 9 417 473 45 465 507 53 258 194 54 
429 9 52 122 254 82 499 461 382 28 570 
430 9 210 368 404 120 456 48 49 555 139 
431 9 262 119 215 374 66 257 259 161 317 
432 9 201 319 76 558 81 407 11 44 252 
433 9 334 191 502 494 218 149 8 353 189 
434 9 488 375 196 216 531 90 220 167 88 
435 9 424 160 561 214 381 462 107 303 4 
436 9 26 251 208 454 193 322 569 570 41 
437 9 395 311 443 279 14 397 253 491 241 
438 9 277 339 40 12 295 41 86 75 509 
439 9 388 56 452 455 91 97 190 71 402 
440 9 53 285 542 380 194 428 482 39 465 
441 9 27 16 209 362 567 143 500 526 179 
442 9 55 155 137 142 250 377 8 188 218 
443 9 437 311 253 395 14 279 266 414 566 
444 9 246 89 96 62 566 13 69 19 253 
445 9 390 2 496 256 114 356 421 449 463 
446 9 477 267 169 42 408 150 58 61 145 
447 9 144 451 356 421 479 31 240 114 156 
448 9 572 296 180 186 310 418 63 121 352 
449 9 114 356 31 511 445 451 144 421 390 
450 9 24 275 109 304 93 460 50 64 392 
451 9 356 447 144 421 31 114 479 445 449 
452 9 56 97 402 91 71 294 115 439 341 
453 9 336 506 136 269 283 343 573 102 486 
454 9 251 26 436 208 41 193 322 569 570 
455 9 388 242 56 439 71 91 294 452 341 
456 9 555 139 49 127 104 235 203 316 243 
457 9 207 79 483 535 565 176 325 498 37 
458 9 386 333 391 189 406 149 164 537 520 
459 9 560 177 508 290 182 363 522 410 504 
460 9 109 24 450 275 50 304 93 266 253 
461 9 503 122 354 52 9 519 28 536 126 
462 9 381 4 214 222 282 562 424 435 176 
463 9 2 390 496 476 245 445 256 300 335 
464 9 165 163 426 65 181 529 541 303 23 
465 9 194 258 166 428 341 417 45 294 71 
466 9 400 112 486 17 371 490 44 11 269 
467 9 39 166 542 115 185 194 465 402 294 
468 9 260 345 357 105 347 479 298 157 205 
469 9 202 475 393 72 25 514 236 293 540 
470 9 370 171 161 474 259 361 255 57 168 
471 9 550 221 237 236 393 72 514 5 25 
472 9 15 571 235 203 379 73 348 419 510 
473 9 10 420 417 428 54 172 285 53 507 
474 9 361 370 470 161 259 104 171 29 348 
475 9 514 469 202 236 393 72 25 540 550 
476 9 300 463 132 335 556 123 2 200 524 
477 9 446 267 42 150 169 145 58 281 408 
478 9 128 200 552 411 77 123 286 423 199 
479 9 357 447 144 260 421 451 240 156 356 
480 9 81 558 513 525 265 343 407 432 11 
481 9 288 261 3 533 188 232 494 8 85 
482 9 285 172 10 53 473 427 420 278 18 
483 9 176 498 457 4 207 562 396 32 413 
484 9 340 291 415 219 346 355 140 331 515 
485 9 30 110 286 20 77 200 563 478 487 
486 9 112 466 269 400 17 44 371 506 11 
487 9 563 524 30 556 132 485 280 110 217 
488 9 434 375 216 196 90 531 220 167 59 
489 9 289 37 77 423 535 552 128 565 20 
490 9 371 400 17 79 466 325 112 486 59 
491 9 190 397 279 437 395 102 573 311 388 
492 9 33 234 107 546 561 134 146 263 125 
493 9 70 521 264 158 326 372 373 329 58 
494 9 218 8 189 191 188 149 433 481 288 
495 9 125 327 146 58 372 42 66 492 33 
496 9 2 390 245 256 463 445 421 36 135 
497 9 184 268 568 557 181 512 301 303 160 
498 9 483 176 396 4 32 207 413 7 457 
499 9 570 528 254 322 193 208 429 82 52 
500 9 147 526 553 418 121 180 362 567 310 
501 9 523 430 120 210 368 404 251 454 436 
502 9 334 433 191 218 8 494 142 188 149 
503 9 519 9 384 354 461 224 126 314 360 
504 9 410 358 290 549 274 170 560 270 564 
505 9 175 403 527 248 35 84 538 183 355 
506 9 269 136 336 453 486 112 11 466 44 
507 9 45 531 196 88 54 417 220 92 434 
508 9 182 177 363 459 28 560 522 344 302 
509 9 98 12 86 41 569 517 337 382 532 
510 9 95 80 379 239 238 211 67 540 99 
511 9 449 524 114 556 132 31 217 356 445 
512 9 366 568 184 297 268 160 497 557 416 
513 9 525 265 198 241 204 558 480 81 516 
514 9 236 475 469 237 393 202 72 550 25 
515 9 244 195 346 291 364 101 78 140 174 
516 9 547 204 133 265 23 198 241 513 206 
517 9 86 318 337 415 98 78 509 151 355 
518 9 178 21 287 545 148 312 62 551 405 
519 9 9 384 503 224 360 314 354 126 255 
520 9 353 149 276 386 548 405 458 189 312 
521 9 493 264 70 372 158 326 58 329 373 
522 9 177 363 344 328 272 459 508 94 223 
523 9 120 187 501 430 454 251 26 368 438 
524 9 556 132 487 563 511 476 30 485 200 
525 9 513 265 198 241 480 204 558 81 516 
526 9 553 121 147 418 68 315 500 180 572 
527 9 505 175 84 248 403 35 355 340 538 
528 9 499 243 82 322 193 570 316 52 429 
529 9 163 304 93 541 23 392 464 165 133 
530 9 228 74 247 331 533 154 85 261 3 
531 9 196 220 88 507 434 488 54 45 375 
532 9 174 78 364 244 337 98 195 346 378 
533 9 261 288 3 481 85 188 228 74 530 
534 9 409 153 35 51 151 175 527 505 318 
535 9 565 37 207 199 423 289 457 489 79 
536 9 354 126 52 82 122 316 9 503 461 
537 9 164 233 13 19 333 406 330 458 386 
538 9 183 403 505 175 376 527 248 35 84 
539 9 143 567 5 362 221 500 471 412 179 
540 9 211 239 238 202 67 138 469 475 510 
541 9 163 192 305 529 212 392 399 464 94 
542 9 39 440 380 166 194 53 465 467 285 
543 9 389 113 229 320 365 412 554 387 321 
544 9 179 38 197 309 226 5 143 422 237 
545 9 148 342 385 518 551 21 69 178 62 
546 9 234 263 134 107 492 396 33 7 158 
547 9 516 198 204 241 265 133 23 513 414 
548 9 353 276 559 520 405 131 433 334 149 
549 9 170 270 273 359 410 101 358 504 378 
550 9 471 393 72 221 25 237 236 401 514 
551 9 69 62 342 89 148 14 385 279 545 
552 9 128 423 411 199 478 289 123 37 77 
553 9 121 418 526 147 315 68 180 500 572 
554 9 130 543 352 173 296 321 46 389 320 
555 9 49 456 127 139 104 316 243 168 203 
556 9 132 524 476 487 563 511 200 463 30 
557 9 568 497 184 512 268 360 224 171 314 
558 9 81 480 407 432 513 204 525 265 206 
559 9 276 548 405 312 353 131 287 520 178 
560 9 459 290 410 182 508 177 504 363 359 
561 9 107 214 435 424 160 381 33 234 492 
562 9 282 222 176 4 462 483 319 381 457 
563 9 487 524 30 556 485 132 280 110 129 
564 9 299 47 274 330 358 232 306 504 3 
565 9 535 207 37 199 423 289 457 79 489 
566 9 96 253 246 444 89 443 14 69 460 
567 9 362 143 539 500 147 5 179 180 526 
568 9 557 512 184 497 268 297 366 416 160 
569 9 570 382 41 208 254 436 509 26 193 
570 9 208 254 193 499 569 322 382 436 429 
571 9 15 472 235 203 73 348 139 419 29 
572 9 448 121 418 180 296 553 186 315 68 
573 9 102 343 336 136 453 397 480 506 81 
DEPOT_SECTION
   1
   -1
EOF
