NAME :  X-n573-kX-w57-c9.cctp
COMMENT : 	Adapted by Maziero, Usberti and Cavellucci from the Uchoa, Pecin, Pessoa, Poggi, Subramanian, and Vidal (2013)
TYPE :  CCTP
DIMENSION :    407
EDGE_WEIGHT_TYPE : 	EUC_2D	
CAPACITY : 	210
VERTICES_WITHIN_COVERAGE :  9
VERTICES_WITH_DEMAND : 	57
NODE_COORD_SECTION
1 0 0
2 753 355
3 663 83
4 725 286
5 734 504
6 704 145
7 728 311
8 675 58
9 617 242
10 864 334
11 772 258
12 516 109
13 717 123
14 768 161
15 598 365
16 896 569
17 781 281
18 898 397
19 714 126
20 780 311
21 809 60
22 728 244
23 724 219
24 712 177
25 694 432
26 491 157
27 854 648
28 612 179
29 623 337
30 788 320
31 772 378
32 736 308
33 692 303
34 737 334
35 576 27
36 731 360
37 763 301
38 633 578
39 935 244
40 513 73
41 511 133
42 671 349
43 729 254
44 771 261
45 851 278
46 827 365
47 682 113
48 553 425
49 544 282
50 706 165
51 527 26
52 580 220
53 908 303
54 841 306
55 656 34
56 864 196
57 618 270
58 699 347
59 787 289
60 678 11
61 706 157
62 713 243
63 767 131
64 718 334
65 871 216
66 694 435
67 617 345
68 645 75
69 513 50
70 767 259
71 773 313
72 760 287
73 595 425
74 763 240
75 569 225
76 702 417
77 593 51
78 656 83
79 532 93
80 834 351
81 832 274
82 751 126
83 796 290
84 872 212
85 835 257
86 702 185
87 596 422
88 740 147
89 890 180
90 556 120
91 748 319
92 594 302
93 731 321
94 703 296
95 715 179
96 781 317
97 841 365
98 783 270
99 770 372
100 907 192
101 913 434
102 647 749
103 359 195
104 585 218
105 914 399
106 681 323
107 603 251
108 554 275
109 813 342
110 801 379
111 727 221
112 715 314
113 731 363
114 788 250
115 649 29
116 567 325
117 669 54
118 785 537
119 765 384
120 654 348
121 677 313
122 814 112
123 658 353
124 550 42
125 540 24
126 661 37
127 769 395
128 714 325
129 729 241
130 715 360
131 697 213
132 704 114
133 699 231
134 911 240
135 789 296
136 598 279
137 864 347
138 844 382
139 590 28
140 734 288
141 641 174
142 789 60
143 729 563
144 626 159
145 610 15
146 1000 201
147 875 408
148 419 38
149 671 63
150 803 184
151 690 55
152 511 191
153 899 256
154 827 287
155 672 526
156 755 311
157 770 321
158 750 262
159 665 436
160 595 339
161 736 240
162 747 298
163 511 179
164 753 707
165 413 402
166 737 328
167 711 285
168 800 288
169 804 352
170 678 59
171 736 469
172 728 268
173 641 245
174 617 646
175 903 84
176 646 72
177 928 420
178 668 91
179 702 123
180 705 306
181 574 355
182 684 468
183 700 483
184 767 394
185 544 253
186 746 356
187 737 130
188 600 47
189 734 377
190 652 13
191 482 164
192 737 249
193 740 161
194 554 181
195 623 270
196 748 363
197 878 250
198 663 78
199 718 309
200 711 345
201 734 195
202 691 372
203 793 263
204 717 372
205 677 120
206 708 173
207 483 71
208 851 348
209 776 165
210 807 346
211 659 341
212 732 272
213 739 375
214 907 319
215 777 316
216 668 72
217 766 304
218 696 412
219 878 216
220 507 50
221 673 295
222 676 104
223 705 186
224 657 99
225 827 350
226 662 529
227 759 191
228 646 242
229 566 258
230 645 338
231 546 60
232 748 263
233 785 387
234 510 198
235 937 390
236 759 274
237 714 352
238 674 332
239 712 354
240 685 112
241 728 372
242 703 99
243 692 48
244 746 335
245 791 248
246 732 249
247 503 63
248 877 228
249 812 137
250 788 235
251 616 343
252 830 330
253 681 162
254 809 41
255 602 236
256 766 375
257 643 248
258 623 315
259 805 534
260 639 178
261 779 398
262 680 289
263 994 383
264 463 284
265 715 367
266 625 297
267 773 278
268 701 345
269 729 331
270 638 7
271 669 12
272 587 403
273 962 294
274 717 278
275 565 465
276 631 245
277 816 144
278 839 190
279 754 358
280 692 441
281 839 365
282 724 301
283 697 159
284 776 276
285 892 182
286 602 33
287 487 297
288 721 103
289 744 240
290 571 6
291 737 308
292 736 197
293 668 304
294 863 289
295 628 358
296 857 330
297 601 537
298 759 310
299 642 346
300 710 240
301 877 382
302 877 287
303 573 197
304 339 383
305 754 254
306 694 52
307 703 274
308 496 169
309 766 182
310 480 92
311 847 178
312 928 298
313 871 664
314 656 36
315 753 175
316 742 128
317 760 363
318 677 376
319 761 383
320 773 366
321 710 177
322 762 378
323 876 191
324 481 159
325 839 209
326 544 312
327 749 288
328 722 176
329 608 213
330 720 277
331 757 350
332 697 229
333 890 258
334 779 273
335 949 223
336 674 438
337 626 293
338 716 467
339 593 371
340 872 314
341 616 310
342 670 454
343 762 339
344 676 366
345 766 236
346 671 75
347 901 344
348 737 290
349 784 319
350 783 268
351 792 335
352 768 302
353 770 281
354 696 305
355 714 336
356 684 65
357 686 329
358 751 357
359 734 295
360 538 203
361 689 47
362 621 231
363 595 31
364 793 258
365 844 287
366 630 165
367 537 118
368 783 359
369 676 466
370 738 221
371 789 84
372 624 239
373 711 338
374 229 166
375 782 342
376 589 39
377 533 226
378 704 206
379 644 66
380 830 288
381 660 72
382 554 11
383 755 300
384 587 243
385 708 115
386 610 16
387 774 505
388 936 268
389 693 592
390 817 108
391 710 305
392 739 217
393 711 456
394 783 128
395 761 313
396 817 400
397 554 297
398 778 342
399 701 286
400 735 275
401 792 334
402 674 111
403 754 300
404 740 149
405 798 531
406 530 155
407 587 360
DEMAND_SECTION
2 78
3 96
4 64
5 87
6 70
7 57
8 63
9 86
10 89
11 64
12 53
13 86
14 69
15 94
16 62
17 96
18 89
19 92
20 72
21 59
22 93
23 55
24 96
25 81
26 65
27 52
28 99
29 99
30 57
31 100
32 73
33 61
34 64
35 85
36 69
37 55
38 95
39 95
40 64
41 73
42 99
43 88
44 89
45 10
46 9
47 5
48 1
49 3
50 9
51 5
52 4
53 10
54 3
55 5
56 7
57 9
58 6
COVERAGE_SECTION
2 8 279 358 331 186 196 317 343 244 
3 9 198 78 178 346 381 216 224 68 176 
4 9 140 330 274 348 359 167 282 400 212 
5 9 171 183 387 338 393 143 118 182 155 
6 9 61 283 50 19 179 13 206 253 385 
7 9 32 291 93 199 282 112 359 166 391 
8 9 170 149 117 356 151 216 346 361 243 
9 9 372 362 276 255 107 173 257 57 195 
10 9 296 137 208 340 80 252 54 347 97 
11 9 44 70 350 98 334 114 284 305 74 
12 8 79 367 41 40 310 90 247 406 
13 9 19 385 179 132 288 187 316 6 242 
14 8 209 309 315 193 63 404 88 227 
15 9 339 407 160 181 67 251 295 29 272 
16 3 27 259 313 
17 9 284 334 267 59 98 353 350 83 135 
18 6 105 147 301 177 101 235 
19 9 13 179 385 132 6 187 288 316 242 
20 8 96 215 71 349 30 157 352 217 
21 5 254 142 371 390 122 
22 8 129 246 161 43 192 62 289 300 
23 8 111 370 392 129 161 378 22 292 
24 9 321 95 206 328 223 50 86 61 283 
25 9 66 280 76 218 336 159 393 342 182 
26 8 324 191 308 163 41 152 406 234 
27 7 313 16 164 259 405 118 143 
28 6 366 144 260 141 329 303 
29 8 251 67 299 230 258 295 160 341 
30 8 349 96 20 215 401 351 71 157 
31 9 99 256 119 322 319 320 233 127 184 
32 9 291 7 359 93 282 162 91 199 348 
33 9 354 94 180 121 262 391 399 221 106 
34 7 166 244 269 93 64 91 355 
35 9 139 376 363 290 286 382 77 124 188 
36 9 113 241 130 186 189 196 213 265 204 
37 8 217 352 383 403 298 395 156 72 
38 8 297 226 389 155 174 143 183 369 
39 9 134 388 335 153 333 312 197 273 100 
40 8 247 69 220 79 207 231 12 310 
41 9 12 406 367 26 308 324 191 79 163 
42 9 123 211 120 238 344 357 58 106 230 
43 9 246 192 22 129 172 161 212 62 232 
44 9 11 70 334 350 98 284 267 236 305 
45 8 365 294 81 380 85 154 302 54 
46 8 281 97 225 80 138 169 109 210 
47 8 240 402 205 222 132 179 242 178 
48 6 272 73 275 87 339 181 
49 9 108 397 185 326 229 116 92 136 377 
50 9 61 206 283 24 321 95 328 6 86 
51 9 125 69 124 220 382 231 247 290 35 
52 9 104 75 303 384 255 329 107 229 362 
53 9 214 312 302 340 347 388 294 153 333 
54 7 365 380 154 252 294 296 45 
55 9 314 126 115 190 117 271 8 60 270 
56 9 323 84 65 219 311 278 325 89 285 
57 8 195 136 107 337 9 266 276 372 
58 9 268 200 239 373 237 355 130 357 64 
59 9 135 83 17 168 284 267 334 98 353 
60 9 271 190 126 55 314 115 361 243 270 
61 9 50 283 6 206 321 24 95 253 328 
62 8 300 22 129 133 43 246 332 161 
63 8 394 82 316 14 187 88 404 209 
64 9 355 373 128 269 200 93 237 34 112 
65 9 84 219 248 56 323 325 197 285 89 
66 9 25 280 76 336 218 393 159 342 182 
67 9 251 29 295 160 299 15 230 258 407 
68 6 176 379 78 381 198 3 
69 9 220 247 40 51 231 125 207 124 79 
70 9 44 11 305 158 236 334 350 74 98 
71 7 215 20 96 157 217 352 395 
72 9 327 353 236 37 383 403 267 162 352 
73 3 87 272 48 
74 6 345 305 70 289 11 44 
75 9 52 104 384 303 229 255 377 185 360 
76 5 218 25 66 280 336 
77 6 188 376 286 363 139 35 
78 9 3 198 381 68 178 176 216 224 346 
79 8 12 367 40 90 231 247 41 69 
80 8 225 281 46 97 208 252 109 210 
81 5 154 380 85 365 45 
82 8 316 187 63 88 404 394 13 19 
83 6 168 59 135 17 98 284 
84 9 65 219 248 56 323 325 285 89 197 
85 5 81 45 154 365 380 
86 7 223 321 24 206 95 50 378 
87 3 73 272 48 
88 9 404 193 187 316 82 14 63 315 13 
89 9 285 323 100 56 84 219 65 311 248 
90 3 367 79 12 
91 5 156 166 298 395 32 
92 9 136 341 266 258 337 116 160 57 397 
93 9 166 7 269 32 34 291 91 112 128 
94 9 180 399 354 391 33 167 199 112 282 
95 9 24 321 328 206 223 86 50 61 201 
96 7 215 349 20 30 71 157 217 
97 7 281 46 80 138 208 225 137 
98 9 350 334 284 17 203 267 44 11 364 
99 8 256 31 320 322 119 317 319 368 
100 9 285 89 323 219 84 56 65 248 134 
101 5 177 105 18 147 235 
102 9 174 164 389 38 143 297 226 155 27 
103 9 191 324 374 26 264 308 234 152 163 
104 9 52 75 303 329 255 384 107 362 9 
105 7 18 177 235 101 147 301 347 
106 6 357 121 238 33 293 354 
107 9 255 9 384 57 372 362 136 195 276 
108 9 49 229 397 185 326 136 384 92 75 
109 9 210 169 225 252 351 401 80 46 375 
110 9 233 396 169 368 31 261 46 320 99 
111 6 23 370 392 129 161 22 
112 9 199 391 128 7 180 282 93 64 354 
113 9 36 241 189 213 130 265 186 196 204 
114 8 245 364 203 250 11 350 44 98 
115 9 55 314 126 190 270 271 117 60 379 
116 9 326 160 181 397 92 407 49 15 341 
117 9 8 149 170 216 126 356 381 151 346 
118 6 405 259 387 5 143 171 
119 7 319 322 31 256 184 127 99 
120 6 123 211 299 230 42 238 
121 7 106 293 33 221 357 238 354 
122 8 390 249 277 394 371 63 21 142 
123 7 120 211 42 299 230 344 238 
124 9 231 125 51 35 382 69 376 139 290 
125 9 51 382 124 35 231 290 69 220 139 
126 9 314 55 115 117 8 190 271 149 170 
127 7 184 261 119 319 31 233 322 
128 9 64 112 355 373 199 269 93 7 200 
129 8 22 161 246 192 43 289 62 300 
130 9 239 265 237 204 36 113 200 241 58 
131 6 378 332 133 23 86 223 
132 8 385 179 242 13 19 240 288 47 
133 6 332 300 62 131 378 23 
134 9 153 39 333 197 248 388 219 335 65 
135 8 59 83 168 17 20 96 352 71 
136 9 57 92 195 107 337 266 341 229 384 
137 7 10 208 296 97 80 281 340 
138 4 97 281 46 396 
139 8 363 376 286 35 188 77 386 145 
140 9 348 359 4 400 327 162 212 282 330 
141 4 260 366 144 28 
142 4 21 371 254 390 
143 9 389 5 118 155 387 226 405 259 183 
144 4 366 141 260 28 
145 9 386 286 363 139 270 376 188 35 77 
146 9 335 39 100 388 134 273 285 89 153 
147 2 18 301 
148 9 207 310 247 220 69 40 51 12 125 
149 9 8 170 117 216 346 356 381 198 151 
150 5 209 278 309 14 277 
151 7 306 243 361 356 170 8 117 
152 8 234 163 308 360 26 191 377 406 
153 9 333 134 197 248 39 302 388 219 53 
154 5 380 81 365 54 45 
155 8 226 183 182 369 38 5 143 389 
156 6 298 395 91 383 403 37 
157 5 71 215 96 395 20 
158 9 232 305 236 70 192 400 44 212 11 
159 6 336 342 280 25 66 369 
160 9 251 407 67 15 181 29 116 339 341 
161 7 129 289 22 192 246 43 370 
162 9 403 383 327 348 359 291 32 156 37 
163 8 152 308 234 26 406 191 324 360 
164 9 102 27 313 389 143 174 118 38 259 
165 9 304 264 287 48 326 275 181 116 272 
166 8 34 93 269 244 91 7 32 64 
167 8 274 399 330 4 94 307 391 282 
168 6 83 59 135 17 98 203 
169 9 210 109 351 368 401 225 375 46 110 
170 9 8 149 356 117 151 216 361 306 346 
171 5 338 393 5 183 182 
172 9 212 400 330 43 274 4 246 140 192 
173 6 257 228 276 372 9 362 
174 8 38 389 102 297 226 155 143 164 
175 9 390 122 21 89 285 254 249 277 100 
176 6 68 379 381 78 198 3 
177 6 101 105 235 18 147 301 
178 8 3 78 198 224 222 346 216 381 
179 9 132 385 19 13 240 6 47 242 205 
180 9 391 354 94 33 112 199 282 399 128 
181 9 407 339 15 160 116 67 251 272 29 
182 9 369 342 183 280 393 336 338 66 25 
183 9 182 338 369 393 171 5 342 280 66 
184 7 127 119 261 319 31 322 233 
185 9 229 108 49 377 75 384 397 52 360 
186 9 358 2 196 279 331 36 317 113 213 
187 8 316 82 88 404 13 19 63 193 
188 6 77 286 376 363 139 35 
189 7 213 241 113 36 204 196 265 
190 9 270 115 271 55 314 60 126 145 386 
191 8 324 26 308 163 152 41 234 406 
192 9 246 43 161 22 129 289 158 232 305 
193 9 404 88 315 328 14 95 187 24 309 
194 7 303 360 406 163 152 75 52 
195 8 57 337 276 136 266 107 9 257 
196 8 186 358 279 2 317 213 331 36 
197 9 333 153 248 134 219 65 302 84 45 
198 9 3 381 216 78 346 178 149 68 176 
199 9 112 391 7 282 180 128 32 93 291 
200 9 373 237 239 355 268 58 64 130 128 
201 8 292 328 392 95 227 23 370 111 
202 9 318 344 265 58 204 130 239 268 42 
203 8 364 350 98 114 245 334 284 11 
204 9 265 241 130 113 36 189 239 237 213 
205 6 47 402 240 222 179 132 
206 9 321 24 50 95 86 223 328 61 283 
207 9 310 247 40 220 69 12 79 51 231 
208 8 137 80 10 296 97 281 225 252 
209 7 14 309 315 227 150 63 193 
210 9 109 169 351 401 225 375 80 368 46 
211 6 120 123 42 230 238 299 
212 9 400 172 330 4 140 274 43 232 348 
213 6 189 241 113 196 36 186 
214 9 53 347 312 340 302 10 137 296 294 
215 7 96 71 20 349 157 30 217 
216 9 346 198 381 149 3 8 78 170 356 
217 8 352 37 298 395 71 383 156 403 
218 6 76 25 66 280 336 159 
219 9 65 84 248 56 323 197 285 89 100 
220 9 69 247 40 51 207 231 125 124 79 
221 5 262 293 121 33 354 
222 7 402 47 240 178 205 224 3 
223 7 86 321 24 95 206 328 378 
224 6 178 78 3 222 402 198 
225 9 80 46 109 281 210 252 97 169 208 
226 8 155 38 183 297 182 369 389 143 
227 6 309 315 292 201 14 209 
228 6 173 257 276 372 362 9 
229 9 108 185 384 49 75 107 136 52 397 
230 5 299 120 211 123 29 
231 8 124 69 40 79 125 51 220 247 
232 9 158 305 236 192 212 400 70 43 172 
233 8 261 31 110 127 184 119 99 256 
234 8 152 163 360 308 377 191 26 194 
235 8 105 177 18 101 263 347 301 147 
236 9 72 353 158 267 232 70 284 327 44 
237 9 239 130 200 373 265 268 58 355 64 
238 5 106 357 42 211 121 
239 9 237 130 200 265 268 58 373 355 204 
240 9 47 205 402 222 132 179 242 385 178 
241 9 189 113 204 213 36 265 130 196 186 
242 6 132 385 288 240 179 47 
243 7 361 306 151 170 356 8 117 
244 7 34 166 91 343 269 331 2 
245 6 114 364 250 203 11 350 
246 9 192 22 43 129 161 289 172 62 232 
247 9 40 220 69 207 310 79 231 51 12 
248 9 219 65 84 197 333 56 134 153 323 
249 9 277 122 390 394 63 209 150 14 311 
250 6 245 114 345 364 74 11 
251 9 67 29 295 160 299 15 230 258 341 
252 9 225 80 109 54 296 208 210 10 169 
253 3 283 50 61 
254 5 21 142 371 390 122 
255 9 107 9 384 362 372 329 104 52 276 
256 8 99 322 31 119 319 320 317 184 
257 6 173 228 276 372 9 362 
258 4 341 266 29 337 
259 5 405 118 387 5 143 
260 4 141 366 144 28 
261 6 127 184 233 119 31 319 
262 7 221 33 293 399 354 94 121 
263 9 235 177 105 273 101 18 347 214 312 
264 9 287 49 326 185 108 377 397 234 152 
265 9 204 130 239 241 237 113 36 189 200 
266 6 337 341 258 195 57 92 
267 9 284 353 334 17 98 350 236 72 44 
268 9 58 200 373 239 237 355 64 130 357 
269 9 34 166 93 64 128 355 244 373 7 
270 9 190 115 145 386 271 55 314 126 60 
271 9 60 190 55 115 126 314 270 361 117 
272 6 87 73 339 15 48 407 
273 9 312 388 53 39 214 335 134 153 347 
274 8 330 167 4 172 307 212 399 400 
275 4 48 73 87 272 
276 9 372 173 257 9 228 362 195 57 107 
277 8 249 122 390 394 150 209 311 14 
278 7 311 325 56 150 323 84 65 
279 8 2 358 186 196 317 331 99 256 
280 9 66 25 336 393 76 342 159 182 218 
281 6 97 46 80 138 225 208 
282 9 199 7 359 32 4 291 391 112 140 
283 7 61 50 6 253 206 321 24 
284 9 267 334 17 353 98 350 44 59 236 
285 9 89 100 323 56 84 219 65 311 248 
286 8 363 139 188 376 386 77 145 35 
287 9 264 49 326 397 108 185 116 377 229 
288 7 242 385 13 132 19 179 187 
289 7 161 192 129 246 22 305 74 
290 9 382 35 139 363 125 376 145 386 286 
291 9 32 7 359 93 162 282 91 156 348 
292 7 201 392 227 370 23 328 111 
293 5 221 121 262 106 33 
294 8 302 45 365 340 54 380 81 154 
295 7 67 299 251 29 230 120 123 
296 9 10 137 208 340 252 54 80 225 97 
297 5 38 226 155 275 369 
298 6 156 395 217 37 383 403 
299 7 230 120 123 211 295 29 67 
300 8 62 133 332 22 129 43 246 23 
301 4 18 147 138 137 
302 9 294 340 45 333 365 53 197 153 54 
303 7 52 104 194 75 360 329 28 
304 9 165 264 287 103 326 48 49 397 116 
305 8 158 232 70 74 289 11 44 192 
306 6 243 151 361 356 170 8 
307 6 399 167 274 330 94 4 
308 8 26 191 163 324 152 234 406 41 
309 5 227 315 209 14 193 
310 9 207 247 40 12 220 41 79 69 367 
311 9 278 56 323 325 84 89 150 65 285 
312 9 53 214 388 273 153 302 347 39 333 
313 7 27 16 164 259 405 118 143 
314 9 55 126 115 117 190 271 8 149 170 
315 8 309 227 193 14 209 201 292 404 
316 8 187 82 88 404 13 63 19 193 
317 8 279 2 358 196 99 256 320 331 
318 6 344 202 42 123 58 120 
319 7 119 322 256 31 184 99 127 
320 8 99 256 31 368 317 322 119 279 
321 8 24 206 95 223 86 328 50 61 
322 7 256 319 119 31 99 317 320 
323 9 56 89 285 84 65 219 100 311 248 
324 8 191 26 308 163 41 152 234 406 
325 8 278 56 311 65 84 219 323 248 
326 9 397 116 49 108 92 181 160 229 185 
327 9 162 72 348 383 403 140 236 359 37 
328 9 95 24 321 206 50 223 86 201 193 
329 9 362 104 255 52 9 372 28 384 107 
330 8 274 4 167 172 212 400 307 140 
331 8 2 279 358 343 186 317 196 244 
332 6 133 131 300 62 378 23 
333 9 153 197 134 302 248 294 45 219 65 
334 9 284 98 350 17 267 353 44 11 203 
335 9 39 134 388 100 146 153 333 285 219 
336 8 159 342 280 66 25 369 182 218 
337 6 266 341 258 195 57 136 
338 9 393 171 183 182 280 66 369 5 25 
339 8 15 407 181 160 272 67 251 295 
340 9 10 296 294 302 54 137 214 53 365 
341 6 258 266 337 92 29 251 
342 8 369 336 159 182 280 66 25 393 
343 6 331 244 398 2 157 375 
344 7 318 202 42 123 120 58 211 
345 5 74 250 289 305 11 
346 9 216 198 3 381 149 178 356 8 78 
347 9 214 137 10 53 340 301 296 208 18 
348 9 140 359 327 4 162 400 282 32 291 
349 8 30 96 215 20 71 157 401 351 
350 9 98 334 203 284 17 44 267 364 11 
351 8 401 375 30 398 349 210 96 169 
352 8 217 37 71 298 383 395 403 20 
353 9 267 284 17 72 334 236 98 350 59 
354 9 33 180 94 391 399 112 121 199 106 
355 9 64 373 200 128 237 268 269 239 58 
356 7 170 8 151 149 306 346 216 
357 8 106 238 121 58 268 42 354 33 
358 8 2 279 186 196 331 317 36 113 
359 9 348 140 282 4 32 162 291 7 327 
360 8 377 194 234 152 163 303 75 52 
361 8 243 306 151 170 8 356 117 149 
362 9 372 9 276 255 329 173 107 228 257 
363 8 139 286 376 188 35 77 386 145 
364 8 203 114 245 350 98 11 334 44 
365 7 45 380 154 81 54 294 85 
366 4 144 141 260 28 
367 5 90 12 79 41 406 
368 8 320 375 99 398 31 169 256 317 
369 9 182 342 336 183 280 159 66 393 25 
370 4 392 111 23 161 
371 5 142 21 390 122 394 
372 9 9 276 362 173 257 228 255 107 195 
373 9 355 200 64 268 128 237 58 239 269 
374 8 103 148 304 324 191 26 264 310 
375 8 398 351 401 368 343 30 349 157 
376 7 363 139 77 188 286 35 386 
377 8 360 185 75 234 152 229 52 303 
378 7 131 223 86 23 332 133 111 
379 6 176 68 381 78 198 3 
380 5 154 81 365 54 45 
381 9 198 216 3 346 78 149 176 68 379 
382 9 290 125 35 51 124 139 376 363 231 
383 9 403 37 162 156 298 217 327 352 72 
384 9 255 107 52 75 104 229 9 362 329 
385 7 132 179 13 19 242 288 240 
386 9 145 286 363 139 270 376 188 35 77 
387 7 118 405 5 259 171 338 143 
388 9 39 312 273 134 153 53 333 335 214 
389 9 143 38 155 226 174 5 118 297 183 
390 8 122 249 277 371 394 21 63 142 
391 9 180 199 112 94 354 282 33 7 128 
392 4 370 111 23 292 
393 8 338 280 66 171 25 183 182 369 
394 8 63 249 82 122 14 277 209 390 
395 5 298 156 217 37 71 
396 4 110 138 233 46 
397 9 49 326 108 116 92 229 185 136 160 
398 8 375 343 351 401 368 157 331 30 
399 7 94 167 307 274 33 180 354 
400 9 212 172 140 4 330 348 232 274 327 
401 8 351 375 30 398 349 210 96 109 
402 7 222 47 205 240 178 224 3 
403 9 383 162 37 156 298 217 327 72 352 
404 9 88 193 187 316 82 315 14 63 328 
405 5 259 118 387 5 143 
406 7 41 163 194 308 367 26 152 
407 9 15 339 181 160 67 251 116 295 29 
DEPOT_SECTION
   1
   -1
EOF
