NAME :  X-n536-kX-w53-c7.cctp
COMMENT : 	Adapted by Maziero, Usberti and Cavellucci from the Uchoa, Pecin, Pessoa, Poggi, Subramanian, and Vidal (2013)
TYPE :  CCTP
DIMENSION :    318
EDGE_WEIGHT_TYPE : 	EUC_2D	
CAPACITY : 	371
VERTICES_WITHIN_COVERAGE :  7
VERTICES_WITH_DEMAND : 	53
NODE_COORD_SECTION
1 500 500
2 957 135
3 149 141
4 1 96
5 228 268
6 781 529
7 867 797
8 109 53
9 9 127
10 258 317
11 89 54
12 167 155
13 739 534
14 962 896
15 975 122
16 960 68
17 205 52
18 841 806
19 739 677
20 90 192
21 842 772
22 972 143
23 27 85
24 953 240
25 185 211
26 652 428
27 764 523
28 159 142
29 101 113
30 879 837
31 885 326
32 953 118
33 777 491
34 65 66
35 976 171
36 961 748
37 710 493
38 778 708
39 277 223
40 88 112
41 172 57
42 2 209
43 121 64
44 938 29
45 166 160
46 142 97
47 84 284
48 269 224
49 940 727
50 876 822
51 131 169
52 951 768
53 278 21
54 292 280
55 94 96
56 270 368
57 852 777
58 170 200
59 951 777
60 756 532
61 101 29
62 136 52
63 953 784
64 170 135
65 172 133
66 735 672
67 837 833
68 723 538
69 931 862
70 214 45
71 938 2
72 918 296
73 931 760
74 994 40
75 115 120
76 138 134
77 764 502
78 962 408
79 15 209
80 922 706
81 279 265
82 750 566
83 761 503
84 116 205
85 95 100
86 261 357
87 288 231
88 245 331
89 815 790
90 257 215
91 949 42
92 83 118
93 146 141
94 618 497
95 954 95
96 133 147
97 92 54
98 866 805
99 74 30
100 120 81
101 69 324
102 788 550
103 120 172
104 14 196
105 171 66
106 861 867
107 617 454
108 28 140
109 91 118
110 880 814
111 670 343
112 940 211
113 695 683
114 71 239
115 804 481
116 181 205
117 987 269
118 193 200
119 156 48
120 169 133
121 52 78
122 636 413
123 661 518
124 786 523
125 960 117
126 958 161
127 752 556
128 24 141
129 937 88
130 22 198
131 882 774
132 639 445
133 810 457
134 127 62
135 5 118
136 876 63
137 174 145
138 778 665
139 22 131
140 196 67
141 261 221
142 782 505
143 173 150
144 14 85
145 726 649
146 789 502
147 139 183
148 866 897
149 853 747
150 969 132
151 299 256
152 158 110
153 159 108
154 125 34
155 22 156
156 573 369
157 917 123
158 240 291
159 986 55
160 253 263
161 943 195
162 30 327
163 981 137
164 954 848
165 954 250
166 225 255
167 174 53
168 214 280
169 65 68
170 156 61
171 927 138
172 140 191
173 176 26
174 991 261
175 929 775
176 153 149
177 185 155
178 230 56
179 170 174
180 239 290
181 781 515
182 148 140
183 791 748
184 924 218
185 310 69
186 736 530
187 701 510
188 63 50
189 230 7
190 695 484
191 242 319
192 961 173
193 189 198
194 978 223
195 47 97
196 959 147
197 169 153
198 936 80
199 951 155
200 191 58
201 126 58
202 722 532
203 921 656
204 85 69
205 810 844
206 113 73
207 862 810
208 25 56
209 203 221
210 969 661
211 719 562
212 241 314
213 764 525
214 573 430
215 276 185
216 247 342
217 295 317
218 863 815
219 94 122
220 873 783
221 964 182
222 303 71
223 801 527
224 743 469
225 263 62
226 691 763
227 981 160
228 226 261
229 231 277
230 0 66
231 848 757
232 98 266
233 148 150
234 988 69
235 741 524
236 961 140
237 132 74
238 828 773
239 785 734
240 781 499
241 980 94
242 26 148
243 981 717
244 797 521
245 5 77
246 164 234
247 63 110
248 117 104
249 319 211
250 109 209
251 696 686
252 293 351
253 167 171
254 183 209
255 99 228
256 897 821
257 219 49
258 188 30
259 958 11
260 824 818
261 194 32
262 995 157
263 180 73
264 946 255
265 953 881
266 883 804
267 883 880
268 242 262
269 232 252
270 352 260
271 362 335
272 64 199
273 890 788
274 901 823
275 942 120
276 662 470
277 300 261
278 967 790
279 965 126
280 102 58
281 1000 129
282 311 229
283 161 159
284 106 161
285 287 271
286 695 660
287 169 94
288 769 555
289 158 72
290 35 268
291 80 321
292 89 287
293 978 234
294 223 78
295 865 815
296 883 795
297 113 268
298 101 121
299 209 267
300 759 490
301 674 703
302 109 317
303 46 93
304 741 662
305 730 561
306 21 113
307 72 281
308 961 782
309 158 80
310 926 766
311 989 133
312 21 106
313 802 534
314 928 976
315 134 76
316 901 235
317 348 278
318 31 94
DEMAND_SECTION
2 22
3 94
4 52
5 51
6 54
7 96
8 96
9 82
10 77
11 82
12 55
13 78
14 77
15 40
16 47
17 89
18 77
19 94
20 78
21 81
22 37
23 66
24 8
25 79
26 24
27 70
28 80
29 100
30 53
31 30
32 10
33 34
34 63
35 29
36 80
37 41
38 80
39 62
40 100
41 66
42 79
43 71
44 29
45 94
46 99
47 59
48 57
49 93
50 52
51 54
52 65
53 64
54 52
COVERAGE_SECTION
2 7 236 150 196 279 22 32 125 
3 7 182 93 176 233 28 76 96 
4 7 144 245 135 312 306 23 230 
5 6 228 229 166 268 269 168 
6 7 124 181 213 27 244 223 102 
7 7 98 207 220 296 266 218 295 
8 7 280 43 97 201 11 134 206 
9 7 135 139 306 128 108 312 242 
10 7 191 212 88 216 158 180 217 
11 6 97 280 204 8 188 34 
12 7 197 45 283 143 137 28 176 
13 7 186 235 68 60 202 127 27 
14 5 265 69 164 267 314 
15 7 279 150 125 163 311 22 2 
16 7 198 91 95 234 159 129 241 
17 7 70 257 200 140 261 178 258 
18 7 207 260 218 98 295 67 7 
19 7 66 304 145 138 113 251 286 
20 6 250 272 84 284 103 255 
21 7 57 238 231 149 89 220 18 
22 7 150 163 236 196 2 279 227 
23 7 318 144 303 312 195 245 121 
24 7 165 264 293 194 112 184 174 
25 6 254 116 118 193 58 209 
26 7 132 122 276 107 190 94 214 
27 7 213 60 6 181 83 77 124 
28 7 176 3 182 64 93 120 233 
29 7 298 109 219 40 85 75 55 
30 7 50 110 256 274 295 218 207 
31 4 72 316 264 165 
32 7 125 275 279 2 150 15 95 
33 7 240 142 146 77 300 83 181 
34 6 169 188 121 204 11 97 
35 7 227 192 221 126 262 22 196 
36 7 52 49 59 73 308 63 243 
37 7 190 187 202 224 235 186 68 
38 6 239 183 138 19 66 304 
39 4 48 87 141 90 
40 7 109 92 219 29 85 298 55 
41 7 167 105 170 119 263 200 289 
42 6 79 104 130 155 272 242 
43 7 134 201 206 237 8 100 315 
44 7 91 71 259 16 198 159 74 
45 7 12 283 197 253 143 179 137 
46 6 153 152 315 309 237 248 
47 7 292 307 232 297 291 302 101 
48 4 39 141 90 87 
49 7 80 36 73 310 52 243 175 
50 7 110 295 30 218 207 266 98 
51 6 103 147 96 172 233 284 
52 7 59 63 308 36 73 175 310 
53 6 225 189 222 185 178 257 
54 7 285 81 277 151 217 160 87 
55 3 85 40 29 
56 5 86 252 216 88 10 
57 7 21 231 220 238 7 131 149 
58 4 116 254 25 193 
59 6 63 52 308 278 175 73 
60 7 213 27 13 235 186 127 6 
61 5 8 154 97 99 11 
62 6 201 134 43 119 154 170 
63 5 59 308 278 52 175 
64 5 120 65 137 28 143 
65 5 64 120 137 28 143 
66 7 19 304 145 113 251 286 138 
67 7 260 18 205 218 295 207 98 
68 6 202 186 13 235 211 305 
69 5 164 265 14 274 267 
70 7 257 17 178 261 200 140 258 
71 7 259 44 91 74 16 159 198 
72 6 31 264 165 316 24 117 
73 7 310 175 52 59 36 63 49 
74 7 159 234 16 91 259 241 44 
75 4 298 29 248 219 
76 7 93 182 3 96 233 176 28 
77 7 83 300 33 240 142 27 181 
78 2 31 72 
79 6 42 104 130 272 155 242 
80 4 49 203 73 36 
81 7 285 54 277 151 160 87 268 
82 5 127 305 288 211 13 
83 7 77 300 27 33 240 142 213 
84 6 250 172 20 255 147 103 
85 4 55 29 40 109 
86 6 56 216 88 252 10 191 
87 7 39 48 282 151 141 277 81 
88 7 216 191 212 10 86 158 180 
89 5 238 260 18 21 57 
90 2 141 48 
91 7 44 16 259 159 198 71 74 
92 5 40 109 219 298 29 
93 7 182 3 233 76 176 28 96 
94 5 107 123 276 132 26 
95 7 129 32 125 198 241 16 275 
96 7 76 93 233 3 182 176 51 
97 5 11 280 8 204 61 
98 7 207 7 218 295 110 266 50 
99 3 188 61 11 
100 4 206 237 315 43 
101 6 291 162 302 292 47 307 
102 5 288 313 6 223 124 
103 5 51 284 147 96 172 
104 6 130 79 42 155 242 272 
105 6 41 263 167 289 170 309 
106 5 267 148 30 67 50 
107 7 132 94 26 122 276 214 123 
108 5 128 242 139 155 9 
109 6 219 40 92 298 29 85 
110 7 50 266 295 98 218 207 256 
111 4 122 26 156 132 
112 7 161 184 24 221 194 165 192 
113 7 251 286 301 66 19 145 304 
114 6 255 232 272 307 290 47 
115 5 133 146 33 240 142 
116 5 254 25 193 58 118 
117 7 174 293 165 264 24 194 72 
118 6 193 116 254 25 58 209 
119 6 170 41 167 62 105 289 
120 5 64 65 28 137 143 
121 7 169 303 34 195 23 318 188 
122 7 26 132 107 276 214 156 111 
123 5 187 94 190 276 37 
124 7 6 181 244 223 142 313 146 
125 7 32 279 15 150 2 275 95 
126 7 199 192 196 35 236 221 22 
127 7 82 288 305 60 13 186 213 
128 5 108 242 139 155 9 
129 7 198 95 16 275 32 125 157 
130 6 104 79 42 155 272 242 
131 6 220 273 296 7 57 266 
132 7 26 107 122 276 94 190 214 
133 3 115 33 146 
134 6 201 43 62 237 315 206 
135 7 9 306 312 139 4 128 108 
136 3 198 129 44 
137 6 143 197 64 12 65 120 
138 5 304 19 38 66 145 
139 6 128 108 9 242 306 135 
140 6 200 17 263 105 41 167 
141 3 90 48 39 
142 7 240 146 181 33 77 124 83 
143 6 137 197 12 45 177 64 
144 6 245 23 4 318 312 230 
145 6 304 66 19 286 113 251 
146 6 142 240 181 33 124 244 
147 3 172 51 103 
148 3 267 106 30 
149 3 231 21 57 
150 7 279 22 236 2 15 163 125 
151 7 277 285 81 54 87 282 39 
152 6 153 287 46 120 65 64 
153 6 152 287 46 120 65 309 
154 4 62 201 8 61 
155 5 242 128 108 139 9 
156 5 214 122 107 26 111 
157 3 171 275 32 
158 7 180 229 212 5 168 191 268 
159 7 234 74 16 91 241 95 259 
160 6 268 269 5 81 229 228 
161 7 112 221 192 184 126 35 199 
162 6 101 291 290 307 47 292 
163 7 311 22 150 15 279 236 281 
164 3 69 265 14 
165 7 264 24 293 194 117 174 112 
166 3 228 269 5 
167 7 41 105 200 119 170 263 289 
168 4 299 229 5 228 
169 6 34 121 188 204 11 97 
170 6 289 119 41 105 309 167 
171 4 157 275 199 2 
172 3 147 51 84 
173 5 258 261 167 119 41 
174 7 117 293 165 194 24 264 112 
175 5 310 73 59 52 63 
176 7 233 3 28 182 93 283 12 
177 5 143 137 197 12 45 
178 6 257 70 294 17 225 140 
179 4 253 45 283 12 
180 7 158 229 212 5 168 268 191 
181 7 124 142 6 146 240 244 27 
182 7 3 93 176 233 28 76 96 
183 6 239 38 238 89 21 231 
184 6 112 316 161 24 264 165 
185 3 222 225 53 
186 7 13 235 202 68 60 213 27 
187 6 37 190 202 68 186 123 
188 5 34 169 99 11 97 
189 7 70 257 261 258 178 53 17 
190 7 37 187 276 123 224 202 68 
191 7 212 88 10 216 158 180 86 
192 7 221 126 35 199 227 196 161 
193 5 118 116 254 25 58 
194 7 293 24 165 112 174 221 161 
195 5 303 318 121 247 23 
196 7 236 199 2 22 126 150 279 
197 7 12 143 45 137 283 28 176 
198 7 129 95 16 91 275 32 125 
199 6 126 196 236 2 192 22 
200 7 140 17 167 41 263 105 70 
201 6 134 43 62 237 8 206 
202 6 68 186 13 235 187 211 
203 3 210 80 49 
204 5 11 97 34 169 280 
205 3 67 260 18 
206 5 100 43 134 237 280 
207 7 218 98 295 7 50 110 18 
208 4 230 23 245 144 
209 3 25 118 254 
210 5 203 243 80 49 36 
211 5 305 68 202 82 13 
212 7 191 10 88 158 180 216 229 
213 7 27 60 6 181 83 124 77 
214 5 107 156 122 132 26 
215 3 90 39 141 
216 6 88 86 191 10 212 56 
217 7 252 10 54 285 86 88 191 
218 7 295 207 98 50 110 7 266 
219 5 109 298 29 40 92 
220 7 131 7 296 273 57 98 266 
221 7 192 35 126 161 227 199 196 
222 3 185 225 53 
223 5 244 313 124 6 181 
224 7 300 83 77 33 37 240 190 
225 4 178 222 294 53 
226 4 301 251 113 19 
227 7 35 262 22 126 163 192 196 
228 5 166 5 269 268 229 
229 7 5 180 158 168 228 268 166 
230 5 245 144 208 4 23 
231 4 149 21 57 238 
232 5 297 47 292 307 114 
233 7 176 3 93 182 28 96 283 
234 7 159 241 16 74 95 91 198 
235 7 186 13 60 202 27 68 213 
236 7 2 196 22 150 279 199 163 
237 6 315 134 100 43 201 206 
238 7 21 89 57 231 18 149 183 
239 4 183 38 238 89 
240 6 142 33 146 181 77 83 
241 7 95 234 15 125 16 279 32 
242 5 128 108 155 139 9 
243 7 36 49 210 52 80 73 59 
244 7 223 124 313 181 6 146 142 
245 6 144 230 4 23 208 318 
246 2 25 254 
247 5 195 92 303 40 109 
248 4 75 29 85 100 
249 7 282 87 39 151 215 48 277 
250 6 84 255 20 172 103 147 
251 7 113 286 301 66 19 145 304 
252 5 56 86 217 216 10 
253 6 179 45 283 12 197 143 
254 6 25 116 118 193 58 209 
255 5 250 84 114 20 232 
256 5 274 110 50 266 30 
257 7 70 178 17 140 200 294 261 
258 7 261 173 167 17 200 70 41 
259 7 71 44 91 74 159 16 234 
260 6 67 18 89 205 207 218 
261 7 258 173 17 70 200 167 257 
262 7 227 35 163 311 22 281 150 
263 6 105 140 41 200 167 289 
264 7 165 24 293 117 184 112 174 
265 4 14 69 164 267 
266 7 296 110 7 98 273 50 295 
267 5 148 106 30 69 50 
268 6 160 269 5 228 166 229 
269 4 166 228 268 5 
270 7 317 282 277 151 249 54 285 
271 5 317 217 252 270 54 
272 3 20 114 130 
273 5 296 131 266 220 7 
274 4 256 110 50 30 
275 7 32 125 2 171 279 157 95 
276 7 132 190 26 107 123 94 37 
277 7 151 285 54 81 87 282 39 
278 5 308 63 59 52 175 
279 7 150 125 15 2 32 236 22 
280 6 8 97 11 206 43 204 
281 7 311 163 15 262 22 150 279 
282 7 249 87 151 277 39 48 81 
283 7 45 12 197 176 253 143 233 
284 3 103 51 96 
285 7 54 81 277 151 160 87 268 
286 7 113 251 145 66 304 19 301 
287 6 153 309 152 263 289 46 
288 6 127 102 82 60 6 213 
289 6 309 170 105 41 263 119 
290 7 307 114 47 292 162 79 232 
291 6 101 302 292 47 307 162 
292 7 47 307 232 297 291 302 101 
293 7 194 24 165 174 117 264 112 
294 5 178 140 257 17 70 
295 7 218 207 98 50 110 7 266 
296 6 266 273 7 220 110 98 
297 3 232 292 47 
298 5 219 29 109 75 40 
299 4 168 228 5 166 
300 7 77 83 33 240 224 142 146 
301 7 251 113 286 226 66 19 145 
302 4 291 292 47 101 
303 6 195 318 121 23 247 312 
304 6 66 19 145 138 286 113 
305 5 211 82 127 68 13 
306 6 312 135 9 139 318 4 
307 7 47 292 232 290 291 114 101 
308 6 63 278 59 52 175 36 
309 6 289 287 105 170 46 263 
310 5 73 175 52 59 63 
311 7 163 281 15 22 150 262 279 
312 7 306 318 135 4 23 144 9 
313 5 223 244 124 102 6 
314 4 14 265 148 267 
315 6 237 100 134 43 201 206 
316 4 184 112 264 24 
317 7 270 277 151 54 271 282 285 
318 6 23 303 195 312 144 306 
DEPOT_SECTION
   1
   -1
EOF
