NAME :  X-n548-kX-w109-c9.cctp
COMMENT : 	Adapted by Maziero, Usberti and Cavellucci from the Uchoa, Pecin, Pessoa, Poggi, Subramanian, and Vidal (2013)
TYPE :  CCTP
DIMENSION :    479
EDGE_WEIGHT_TYPE : 	EUC_2D	
CAPACITY : 	11
VERTICES_WITHIN_COVERAGE :  9
VERTICES_WITH_DEMAND : 	109
NODE_COORD_SECTION
1 0 0
2 221 542
3 320 456
4 576 827
5 679 994
6 371 461
7 961 844
8 986 379
9 175 540
10 126 517
11 329 626
12 477 890
13 191 356
14 584 917
15 308 653
16 0 7
17 273 302
18 672 381
19 235 415
20 583 149
21 672 124
22 644 646
23 400 544
24 832 999
25 842 964
26 582 965
27 544 311
28 429 2
29 939 849
30 898 605
31 363 130
32 639 874
33 323 201
34 829 350
35 7 53
36 801 92
37 57 330
38 943 0
39 579 275
40 833 402
41 408 940
42 635 871
43 631 630
44 733 313
45 344 619
46 628 291
47 674 92
48 74 602
49 38 354
50 473 107
51 668 279
52 510 811
53 366 16
54 49 182
55 528 946
56 271 745
57 405 872
58 65 893
59 622 488
60 668 978
61 939 73
62 556 632
63 270 446
64 586 348
65 951 167
66 385 308
67 247 997
68 992 460
69 128 590
70 746 847
71 279 459
72 428 183
73 364 167
74 656 687
75 547 792
76 517 152
77 252 618
78 464 284
79 184 96
80 457 269
81 590 47
82 348 609
83 777 112
84 528 198
85 877 457
86 812 650
87 864 723
88 584 875
89 817 233
90 186 909
91 439 447
92 560 994
93 818 658
94 134 903
95 447 951
96 969 519
97 488 401
98 142 666
99 287 534
100 399 181
101 141 22
102 29 248
103 313 643
104 20 974
105 294 475
106 439 214
107 327 361
108 79 657
109 165 601
110 345 144
111 90 914
112 400 256
113 177 633
114 549 135
115 812 166
116 887 565
117 180 298
118 658 126
119 18 638
120 327 299
121 245 439
122 355 299
123 881 666
124 144 893
125 34 637
126 187 150
127 350 673
128 380 917
129 271 505
130 930 78
131 860 22
132 448 112
133 236 704
134 222 587
135 670 76
136 521 123
137 50 360
138 24 690
139 351 981
140 405 377
141 159 405
142 825 285
143 187 320
144 342 200
145 290 713
146 304 144
147 216 909
148 46 173
149 613 524
150 35 950
151 298 667
152 257 579
153 775 393
154 860 681
155 996 407
156 379 14
157 195 581
158 75 328
159 295 405
160 539 661
161 6 525
162 239 471
163 88 989
164 965 196
165 460 479
166 663 933
167 626 229
168 737 136
169 620 811
170 253 65
171 645 544
172 877 977
173 235 74
174 881 673
175 101 93
176 221 710
177 69 200
178 115 635
179 414 959
180 270 287
181 912 701
182 426 373
183 867 569
184 354 11
185 937 660
186 434 965
187 681 746
188 86 648
189 656 239
190 604 359
191 979 146
192 507 27
193 94 695
194 424 827
195 287 592
196 554 230
197 952 222
198 48 840
199 661 456
200 133 601
201 635 416
202 860 852
203 752 0
204 173 90
205 469 632
206 184 590
207 619 482
208 981 411
209 778 389
210 359 222
211 201 444
212 91 710
213 111 324
214 867 389
215 309 269
216 669 317
217 768 421
218 889 891
219 605 483
220 221 579
221 729 804
222 442 624
223 719 697
224 413 1000
225 977 29
226 356 605
227 107 39
228 570 421
229 162 737
230 557 652
231 139 48
232 145 568
233 596 316
234 681 194
235 420 824
236 94 529
237 422 341
238 226 328
239 687 807
240 299 951
241 549 281
242 944 64
243 554 49
244 302 952
245 258 765
246 182 881
247 641 481
248 541 807
249 107 602
250 870 999
251 247 282
252 771 712
253 109 942
254 865 629
255 632 928
256 571 734
257 899 632
258 189 934
259 385 166
260 851 399
261 890 198
262 370 248
263 372 910
264 11 248
265 845 326
266 508 769
267 511 900
268 320 984
269 158 330
270 159 327
271 798 648
272 555 541
273 832 900
274 809 931
275 460 869
276 585 804
277 487 102
278 127 981
279 39 692
280 187 528
281 462 482
282 890 450
283 857 64
284 96 223
285 610 842
286 910 604
287 260 757
288 809 211
289 48 352
290 23 950
291 289 98
292 622 891
293 499 618
294 873 960
295 65 845
296 990 747
297 809 808
298 693 76
299 506 411
300 668 167
301 301 696
302 61 500
303 9 695
304 939 496
305 741 894
306 39 477
307 476 728
308 663 477
309 112 160
310 588 281
311 215 559
312 528 309
313 668 953
314 594 865
315 407 905
316 478 244
317 423 639
318 174 707
319 635 465
320 570 151
321 651 612
322 785 786
323 166 64
324 684 574
325 598 632
326 645 944
327 976 284
328 576 737
329 87 725
330 177 414
331 865 221
332 459 506
333 23 683
334 507 320
335 497 889
336 888 561
337 963 175
338 308 530
339 237 184
340 576 387
341 937 529
342 463 219
343 210 641
344 582 748
345 215 107
346 985 385
347 502 117
348 851 594
349 728 54
350 64 249
351 492 57
352 415 372
353 852 45
354 503 209
355 292 125
356 340 273
357 242 217
358 700 96
359 37 511
360 663 175
361 670 279
362 611 829
363 471 843
364 412 350
365 4 325
366 454 981
367 94 359
368 688 524
369 982 397
370 793 620
371 337 779
372 106 856
373 965 538
374 780 360
375 144 904
376 225 646
377 666 449
378 510 276
379 564 632
380 573 501
381 903 827
382 605 806
383 38 525
384 216 988
385 220 716
386 788 589
387 75 130
388 858 686
389 107 314
390 717 125
391 991 306
392 62 373
393 641 426
394 350 855
395 42 62
396 184 460
397 618 878
398 986 690
399 430 839
400 840 747
401 284 582
402 899 505
403 453 998
404 134 596
405 30 955
406 437 412
407 660 92
408 203 828
409 524 418
410 723 31
411 869 759
412 824 606
413 760 852
414 352 365
415 381 873
416 222 302
417 746 114
418 670 702
419 447 881
420 14 996
421 844 110
422 315 373
423 115 329
424 808 697
425 992 409
426 692 929
427 897 142
428 397 338
429 334 75
430 104 954
431 537 581
432 502 262
433 346 190
434 812 171
435 361 170
436 44 202
437 326 351
438 525 950
439 773 202
440 906 167
441 910 793
442 752 234
443 147 12
444 542 768
445 82 850
446 358 588
447 19 296
448 228 854
449 147 444
450 954 410
451 529 392
452 77 383
453 822 126
454 284 784
455 804 876
456 784 608
457 870 566
458 968 481
459 228 806
460 548 87
461 609 314
462 328 85
463 852 128
464 505 944
465 358 609
466 311 26
467 909 915
468 407 84
469 523 987
470 690 982
471 841 250
472 499 9
473 646 414
474 516 682
475 944 22
476 691 660
477 763 609
478 44 506
479 756 289
DEMAND_SECTION
2 1
3 1
4 1
5 1
6 1
7 1
8 1
9 1
10 1
11 1
12 1
13 1
14 1
15 1
16 1
17 1
18 1
19 1
20 1
21 1
22 1
23 1
24 1
25 1
26 1
27 1
28 1
29 1
30 1
31 1
32 1
33 1
34 1
35 1
36 1
37 1
38 1
39 1
40 1
41 1
42 1
43 1
44 1
45 1
46 1
47 1
48 1
49 1
50 1
51 1
52 1
53 1
54 1
55 1
56 1
57 1
58 1
59 1
60 1
61 1
62 1
63 1
64 1
65 1
66 1
67 1
68 1
69 1
70 1
71 1
72 1
73 1
74 1
75 1
76 1
77 1
78 1
79 1
80 1
81 1
82 1
83 1
84 1
85 1
86 1
87 1
88 1
89 1
90 1
91 1
92 1
93 1
94 1
95 1
96 1
97 1
98 1
99 1
100 1
101 1
102 1
103 1
104 1
105 1
106 1
107 1
108 1
109 1
110 1
COVERAGE_SECTION
2 9 311 220 280 134 9 157 152 206 129 
3 9 105 71 6 63 159 129 338 121 162 
4 9 276 362 382 285 248 314 75 169 88 
5 9 470 60 313 326 166 426 255 26 292 
6 9 3 91 105 406 23 140 165 71 281 
7 7 29 381 441 218 467 202 296 
8 9 346 369 155 425 208 450 391 68 327 
9 9 280 232 311 2 157 206 10 220 109 
10 9 236 9 232 280 302 69 449 404 396 
11 9 45 103 82 15 226 465 446 127 151 
12 9 335 275 419 267 363 464 95 399 315 
13 8 143 269 270 238 117 141 330 416 
14 9 88 292 26 255 397 314 55 326 438 
15 9 103 151 11 301 127 45 82 145 195 
16 8 35 395 227 175 101 387 231 443 
17 9 180 251 215 416 120 238 437 356 107 
18 8 473 201 393 216 377 190 199 44 
19 9 121 211 63 162 330 159 71 396 13 
20 9 320 114 76 136 460 84 118 360 196 
21 9 118 47 407 358 300 390 135 298 360 
22 9 43 321 74 325 476 418 379 324 230 
23 9 446 332 226 465 82 6 165 281 222 
24 6 25 250 172 294 274 273 
25 7 294 24 172 250 274 273 467 
26 9 92 14 55 438 255 469 326 464 292 
27 9 312 241 334 378 39 233 310 64 432 
28 9 156 53 472 184 192 351 468 132 50 
29 6 7 381 441 218 467 202 
30 9 286 257 116 254 336 183 348 457 123 
31 9 110 73 435 259 462 146 100 429 433 
32 9 42 397 292 285 314 362 255 88 166 
33 9 144 433 210 435 73 146 110 262 215 
34 9 265 374 40 214 260 209 142 153 217 
35 8 395 16 227 175 387 148 231 54 
36 8 83 453 421 417 463 283 353 115 
37 9 158 289 49 137 392 367 447 389 365 
38 9 475 225 242 61 130 131 353 283 421 
39 9 310 241 233 461 27 196 46 312 167 
40 9 260 214 34 209 153 217 374 85 282 
41 9 179 315 128 186 95 263 224 366 57 
42 9 32 397 292 285 314 362 88 255 169 
43 9 22 321 325 74 379 476 62 230 324 
44 9 479 216 374 361 51 442 209 153 18 
45 9 82 11 465 226 446 103 15 127 195 
46 9 461 233 310 51 361 216 39 189 167 
47 9 407 135 298 358 21 118 390 349 300 
48 9 249 188 125 178 69 108 200 404 119 
49 9 289 137 37 392 158 365 452 367 447 
50 9 277 132 347 136 351 76 468 460 114 
51 8 361 216 46 189 167 461 44 310 
52 9 248 75 266 363 444 4 276 275 335 
53 8 156 184 466 28 429 462 468 291 
54 9 148 436 177 387 284 309 102 350 264 
55 9 438 464 469 267 26 92 14 335 12 
56 9 287 245 145 454 133 301 385 176 371 
57 9 415 315 399 419 194 235 263 128 275 
58 9 111 445 295 372 198 150 253 94 290 
59 9 207 219 247 319 149 308 199 380 377 
60 9 5 470 313 326 166 426 255 26 292 
61 9 130 242 475 225 38 427 283 191 353 
62 9 379 230 160 325 431 293 474 43 205 
63 9 71 121 105 162 19 159 3 129 211 
64 9 190 233 340 461 27 310 312 46 451 
65 9 337 164 191 440 197 427 261 130 61 
66 9 122 428 237 364 112 356 120 262 414 
67 7 384 240 244 268 258 147 139 
68 9 458 208 425 155 96 450 304 369 346 
69 9 404 200 249 232 109 178 48 206 113 
70 7 413 221 305 455 239 322 297 
71 9 63 105 121 3 162 129 159 19 99 
72 9 100 106 259 342 73 435 132 112 210 
73 9 435 259 433 110 31 100 144 33 210 
74 8 418 22 476 43 187 223 321 325 
75 8 248 444 276 52 4 266 344 382 
76 9 136 114 347 84 320 277 354 50 20 
77 9 152 376 134 195 343 401 220 15 103 
78 9 80 316 432 378 334 342 312 112 237 
79 9 204 345 323 126 173 231 170 175 101 
80 9 78 316 432 342 378 106 112 334 354 
81 9 243 460 407 135 192 47 114 351 472 
82 9 226 465 45 446 11 103 15 195 127 
83 8 36 417 168 453 390 115 421 434 
84 9 354 196 76 320 114 316 342 432 20 
85 8 282 402 260 214 40 304 450 341 
86 9 93 271 370 412 424 456 154 254 388 
87 9 400 411 388 154 174 181 123 424 93 
88 9 314 397 292 14 285 4 42 362 32 
89 8 288 471 331 142 439 434 442 115 
90 8 258 246 147 375 124 94 448 408 
91 9 406 165 281 332 97 6 182 299 140 
92 9 26 469 438 55 464 14 255 326 267 
93 9 86 271 424 370 154 388 412 254 456 
94 9 375 124 111 253 90 246 372 430 258 
95 9 186 366 179 41 403 464 224 315 12 
96 9 373 341 304 458 68 402 336 116 286 
97 9 299 409 451 406 91 182 352 165 334 
98 9 178 113 318 193 188 108 200 212 109 
99 9 338 129 401 152 195 105 2 71 311 
100 9 259 72 73 435 106 433 210 144 31 
101 8 443 231 227 323 204 175 79 173 
102 9 264 350 436 447 177 54 284 148 365 
103 9 15 11 151 45 127 82 301 465 195 
104 9 405 420 290 150 163 430 111 58 253 
105 9 71 3 63 129 162 338 99 121 159 
106 9 342 72 316 100 112 80 354 259 78 
107 9 437 422 414 159 120 122 428 66 17 
108 9 188 193 178 125 279 212 48 249 333 
109 9 206 404 200 113 157 69 232 249 134 
110 9 31 73 435 146 259 433 144 355 33 
111 9 58 253 430 94 375 124 372 445 150 
112 9 262 210 66 106 80 122 356 78 342 
113 9 109 343 206 98 376 200 157 404 178 
114 9 320 136 76 20 460 347 84 277 50 
115 6 434 453 288 439 463 83 
116 9 336 457 183 30 286 348 402 341 254 
117 6 143 270 269 416 238 13 
118 9 21 407 47 300 360 135 358 390 298 
119 8 125 333 138 279 303 108 48 188 
120 9 122 356 215 437 17 180 66 107 262 
121 9 19 63 162 71 211 159 105 396 129 
122 9 120 356 66 262 215 428 437 112 414 
123 9 174 154 388 257 254 181 185 87 30 
124 9 375 94 246 90 372 111 253 258 430 
125 9 119 333 108 48 188 138 279 303 178 
126 6 345 79 339 204 309 357 
127 6 15 103 11 151 45 301 
128 6 263 315 41 415 57 179 
129 9 99 105 338 71 162 63 2 3 121 
130 9 61 242 475 225 427 283 38 191 353 
131 9 353 283 475 38 421 130 36 61 242 
132 9 50 277 468 347 351 72 136 76 259 
133 9 176 385 56 145 287 376 318 245 301 
134 9 220 157 311 152 206 77 2 343 109 
135 9 47 407 298 358 21 118 349 390 410 
136 9 347 76 114 277 460 50 320 20 351 
137 9 289 49 392 37 452 158 367 365 213 
138 8 333 279 303 119 125 108 193 212 
139 8 268 244 240 224 179 41 128 263 
140 9 352 182 364 237 428 406 414 66 91 
141 7 330 449 211 13 396 269 19 
142 9 471 265 89 34 479 331 288 374 442 
143 7 117 270 269 13 416 238 251 
144 9 433 33 210 435 73 259 110 262 100 
145 9 301 56 151 287 133 245 15 176 385 
146 9 355 110 291 33 31 433 435 73 462 
147 7 90 258 246 448 375 124 384 
148 9 54 436 177 387 309 284 102 350 264 
149 9 59 171 207 219 380 247 272 319 308 
150 9 405 290 104 420 58 111 163 430 253 
151 9 15 103 301 145 11 127 45 77 133 
152 9 401 195 134 220 77 311 2 99 157 
153 6 209 217 374 40 34 260 
154 9 388 174 123 87 93 254 424 181 86 
155 9 425 208 369 346 8 450 68 458 391 
156 9 53 184 28 466 468 429 462 31 132 
157 9 206 220 134 311 109 9 2 232 280 
158 9 37 389 213 289 367 423 137 49 392 
159 9 422 63 107 71 3 121 19 437 105 
160 9 230 474 62 379 293 325 205 256 431 
161 8 383 359 478 306 302 236 48 119 
162 9 121 63 71 129 211 105 19 396 2 
163 9 430 278 253 150 405 104 420 111 290 
164 8 337 197 65 191 440 261 427 327 
165 9 281 332 91 406 299 97 23 409 6 
166 9 313 326 426 255 60 470 292 5 32 
167 9 189 46 310 51 234 360 39 361 196 
168 7 390 417 83 358 21 298 439 
169 5 382 362 285 276 4 
170 8 173 291 345 466 355 79 462 429 
171 9 149 368 324 59 247 207 321 308 219 
172 5 294 250 25 24 467 
173 8 170 345 79 291 204 323 355 126 
174 9 123 154 388 181 257 254 87 185 93 
175 8 387 227 231 395 309 323 204 101 
176 9 385 133 318 56 287 376 229 245 145 
177 9 436 54 148 284 350 309 102 387 264 
178 9 188 249 200 98 108 404 69 48 109 
179 9 41 186 95 224 366 128 315 403 263 
180 8 17 251 215 416 120 238 356 357 
181 9 174 123 185 87 154 388 257 411 398 
182 9 352 140 364 237 406 428 97 414 91 
183 8 457 116 336 348 30 286 412 254 
184 8 53 156 466 429 28 462 468 291 
185 9 257 181 123 174 398 286 30 254 154 
186 9 95 179 366 41 403 224 315 128 464 
187 5 418 239 223 74 221 
188 9 108 178 48 193 249 125 98 212 279 
189 7 167 51 361 234 46 360 300 
190 9 64 340 233 461 201 473 18 228 46 
191 9 337 65 164 440 197 427 61 130 242 
192 9 472 351 243 460 277 28 81 50 347 
193 7 212 329 108 188 279 98 178 
194 8 235 399 57 363 275 419 415 394 
195 9 401 152 77 11 103 99 45 82 15 
196 9 84 39 241 354 310 432 378 167 316 
197 8 164 337 65 261 327 440 191 331 
198 5 295 445 58 372 111 
199 9 377 308 319 247 393 473 201 207 59 
200 9 404 69 249 109 232 178 206 113 48 
201 9 473 393 377 199 319 18 190 228 247 
202 7 218 381 273 455 297 441 29 
203 9 410 349 298 36 358 131 353 135 417 
204 8 79 323 345 231 126 173 175 101 
205 7 222 293 317 474 160 431 62 
206 9 157 109 134 220 113 311 232 404 9 
207 9 59 219 247 319 149 308 199 380 377 
208 9 425 369 155 346 450 8 68 458 304 
209 6 153 374 217 40 34 260 
210 9 144 262 433 33 435 112 356 73 100 
211 9 396 330 121 19 162 449 141 63 71 
212 7 193 329 108 279 188 98 138 
213 8 423 389 158 367 269 270 37 452 
214 9 260 40 34 282 265 85 209 450 153 
215 9 356 120 180 17 122 251 262 33 210 
216 9 51 361 46 461 18 44 233 190 189 
217 4 153 209 374 40 
218 6 467 202 273 29 381 294 
219 9 207 59 319 247 380 149 308 199 393 
220 9 134 311 157 152 2 206 77 9 109 
221 6 239 70 413 322 187 297 
222 6 317 205 293 465 226 23 
223 9 476 418 252 187 74 424 22 271 477 
224 9 403 179 186 366 41 95 139 128 268 
225 9 475 38 242 61 130 131 191 283 353 
226 9 465 82 446 45 11 103 15 127 195 
227 8 231 101 443 175 323 395 204 79 
228 9 340 409 451 201 299 190 219 393 64 
229 6 318 385 176 98 212 329 
230 9 62 160 379 325 474 293 431 43 256 
231 8 101 323 227 443 204 175 79 345 
232 9 69 404 200 109 9 206 249 157 10 
233 9 461 64 310 46 39 190 27 241 312 
234 5 360 300 189 167 21 
235 8 194 399 57 363 275 415 419 394 
236 9 10 302 478 383 359 232 69 249 48 
237 9 364 428 182 352 140 66 78 406 414 
238 8 416 143 13 251 17 117 180 270 
239 6 221 187 169 70 362 32 
240 5 244 268 139 67 263 
241 9 27 39 312 310 378 196 432 334 233 
242 9 61 130 475 225 38 283 191 427 131 
243 9 81 460 192 351 472 136 277 114 347 
244 5 240 268 139 67 263 
245 8 287 56 454 459 145 385 133 176 
246 8 90 124 147 375 94 258 448 408 
247 9 319 59 207 308 199 219 377 149 393 
248 8 75 52 444 4 276 266 382 344 
249 9 69 200 404 48 178 188 232 109 108 
250 4 172 24 294 25 
251 7 180 416 17 238 215 357 117 
252 9 424 223 271 93 86 322 400 388 87 
253 9 430 111 278 94 163 375 124 58 150 
254 9 257 348 123 30 174 412 286 154 93 
255 9 326 166 292 313 14 397 32 42 426 
256 8 328 344 444 75 276 266 474 248 
257 9 30 286 254 123 174 185 348 154 116 
258 9 90 147 246 375 384 124 94 278 253 
259 9 73 100 435 31 72 110 433 144 210 
260 9 40 214 34 85 282 265 209 153 374 
261 6 331 440 427 197 65 471 
262 9 210 112 356 122 144 66 433 215 33 
263 5 128 315 415 41 57 
264 9 102 447 350 436 177 54 365 148 284 
265 9 34 142 214 260 374 471 40 209 479 
266 6 444 52 75 248 307 256 
267 9 335 12 464 55 438 275 419 363 14 
268 7 139 244 240 67 128 263 224 
269 7 270 143 117 13 423 213 389 
270 7 269 143 117 13 423 213 389 
271 9 86 93 370 456 412 424 477 386 252 
272 9 380 431 149 219 59 207 171 62 379 
273 7 455 274 202 218 25 294 467 
274 8 273 25 455 294 24 305 172 218 
275 9 419 12 363 335 399 57 194 235 267 
276 8 382 4 169 362 75 248 285 344 
277 9 50 347 132 136 351 76 460 114 192 
278 9 430 163 253 111 94 258 375 384 124 
279 8 138 333 303 108 125 193 212 119 
280 9 9 2 311 157 232 220 10 206 396 
281 9 165 332 91 406 299 97 23 409 6 
282 9 85 402 260 214 304 40 450 458 341 
283 8 353 131 421 36 463 453 130 61 
284 6 177 350 436 54 309 148 
285 9 362 314 169 382 4 397 42 88 32 
286 9 30 257 116 336 254 183 457 348 185 
287 8 245 56 454 145 385 133 459 176 
288 7 89 439 434 115 471 331 442 
289 9 137 49 37 392 158 452 367 365 447 
290 9 405 150 104 420 58 111 163 430 253 
291 8 355 462 146 170 429 173 110 345 
292 9 397 32 42 255 314 88 14 285 326 
293 9 205 431 222 62 160 379 474 230 317 
294 7 172 25 250 24 467 274 218 
295 6 198 445 372 58 111 94 
296 9 398 181 441 7 185 29 381 411 87 
297 7 322 413 202 400 455 70 411 
298 9 358 135 47 407 349 21 410 390 118 
299 9 409 97 451 228 406 340 91 165 281 
300 6 360 234 118 21 390 189 
301 8 145 151 15 103 127 56 133 287 
302 8 478 359 306 383 236 161 10 48 
303 8 138 333 279 119 125 108 212 329 
304 9 341 458 96 402 373 68 282 85 336 
305 9 413 70 426 455 274 166 221 273 313 
306 8 478 302 359 383 161 236 10 452 
307 4 266 474 444 52 
308 9 199 247 377 319 59 207 368 393 219 
309 7 387 177 284 54 148 175 126 
310 9 39 233 241 461 46 27 196 167 312 
311 9 2 220 134 157 280 9 206 152 109 
312 9 27 334 241 378 432 39 310 233 78 
313 9 166 60 326 426 470 5 255 292 32 
314 9 88 397 285 292 362 42 4 32 14 
315 9 128 57 41 263 415 419 179 95 275 
316 9 342 432 80 78 354 378 106 84 196 
317 6 222 205 465 226 293 45 
318 9 229 176 385 98 133 113 343 376 193 
319 9 247 207 59 199 308 219 377 393 201 
320 9 20 114 76 136 84 460 347 196 354 
321 9 43 22 324 325 476 171 74 379 418 
322 7 297 221 400 413 70 252 411 
323 9 204 231 79 101 443 227 345 173 175 
324 9 171 321 368 43 22 476 477 149 308 
325 9 43 379 62 230 22 321 160 74 431 
326 9 166 255 313 60 426 292 470 5 26 
327 8 391 197 164 8 346 337 369 65 
328 8 256 344 444 75 276 266 382 248 
329 6 212 193 279 108 138 229 
330 7 141 211 449 396 19 13 121 
331 6 261 471 89 288 440 434 
332 9 281 165 91 23 406 6 272 299 431 
333 8 138 279 303 119 125 108 188 193 
334 9 312 27 378 78 241 432 80 451 316 
335 9 267 12 275 419 363 464 55 438 52 
336 9 116 457 183 30 286 348 402 341 254 
337 8 65 164 191 197 440 427 261 130 
338 9 99 129 105 401 195 152 3 71 446 
339 6 357 126 146 345 355 33 
340 9 228 64 190 451 409 201 233 299 473 
341 9 373 304 96 402 458 336 116 457 286 
342 9 106 316 354 72 80 432 78 84 112 
343 9 376 113 77 134 206 109 157 220 133 
344 8 328 256 444 75 276 382 248 169 
345 8 79 173 204 126 170 323 291 355 
346 9 8 369 155 425 208 450 68 391 458 
347 9 136 277 50 76 114 132 460 351 320 
348 8 183 412 457 254 116 30 336 286 
349 9 410 298 358 203 135 417 47 390 83 
350 9 102 284 177 436 264 447 54 148 389 
351 9 192 277 472 50 347 243 460 132 136 
352 9 140 182 364 237 428 406 414 66 91 
353 9 283 131 421 36 463 130 453 61 242 
354 9 84 342 316 432 196 76 106 378 80 
355 8 146 291 462 110 429 31 170 173 
356 9 120 122 215 262 210 66 112 180 17 
357 5 339 251 180 33 215 
358 9 298 47 390 135 21 407 417 349 118 
359 8 478 383 302 161 306 236 10 48 
360 6 300 234 118 21 189 167 
361 7 51 216 189 46 167 461 44 
362 8 285 169 382 4 276 314 42 397 
363 9 275 399 419 12 52 194 335 235 267 
364 9 237 428 352 182 140 66 414 406 122 
365 9 447 49 289 37 137 158 392 264 102 
366 9 403 186 95 224 179 41 464 469 438 
367 8 452 392 158 423 213 137 37 289 
368 7 171 324 308 247 199 59 149 
369 9 346 208 425 155 8 450 68 458 391 
370 8 456 271 386 477 412 86 93 348 
371 3 454 56 394 
372 8 445 295 124 58 94 111 198 375 
373 9 96 341 304 458 402 336 68 116 286 
374 8 209 153 34 217 44 40 265 479 
375 9 94 124 90 246 253 258 111 372 430 
376 9 343 77 113 133 134 176 220 206 385 
377 9 199 308 393 319 473 247 201 207 59 
378 9 432 312 241 334 316 78 27 80 196 
379 9 62 230 325 160 431 293 43 474 22 
380 9 219 272 149 207 59 247 319 228 171 
381 7 441 29 202 7 218 411 467 
382 5 169 276 362 4 285 
383 8 359 478 161 302 306 236 48 10 
384 8 67 258 147 90 278 240 244 268 
385 9 176 133 318 287 56 229 245 145 376 
386 8 456 370 477 412 271 348 86 93 
387 8 175 309 148 54 177 395 436 284 
388 9 154 174 123 87 93 424 181 254 86 
389 8 213 423 158 367 37 269 270 289 
390 9 168 417 358 21 47 298 118 83 300 
391 8 327 8 346 369 197 155 425 208 
392 7 137 452 289 49 367 37 158 
393 9 201 473 377 199 319 18 247 308 207 
394 2 415 57 
395 8 35 175 16 227 387 231 101 148 
396 9 211 449 330 162 141 121 19 280 9 
397 9 292 42 32 314 88 285 362 14 255 
398 9 185 296 181 257 174 123 286 30 87 
399 9 194 235 57 363 275 419 415 12 315 
400 8 411 87 424 388 322 297 154 252 
401 9 195 152 77 99 338 134 11 220 103 
402 9 304 341 85 282 336 116 457 96 183 
403 9 366 186 224 95 179 469 41 464 438 
404 9 200 69 249 232 109 178 206 113 48 
405 9 150 290 104 420 163 58 111 430 253 
406 9 91 182 352 140 97 364 299 165 237 
407 9 47 135 21 118 298 358 390 300 349 
408 5 459 448 246 147 90 
409 9 299 451 97 228 340 406 165 281 91 
410 9 349 203 298 358 135 47 417 407 390 
411 8 400 87 441 181 388 381 297 154 
412 8 348 370 386 456 86 254 271 93 
413 7 70 305 455 221 297 322 239 
414 9 107 437 422 428 140 364 352 66 122 
415 5 57 394 263 315 128 
416 7 238 251 143 117 180 17 13 
417 9 168 83 390 358 36 349 298 21 47 
418 7 74 187 476 223 22 43 321 
419 9 275 12 57 363 399 315 335 194 235 
420 9 104 405 290 150 163 430 253 111 278 
421 6 463 453 36 283 427 115 
422 9 107 437 159 414 120 17 3 122 63 
423 8 213 389 367 158 269 270 37 452 
424 9 93 252 86 271 388 154 400 87 174 
425 9 155 208 369 346 8 450 68 458 304 
426 9 166 313 326 470 60 255 305 5 32 
427 6 440 463 261 65 421 130 
428 9 364 237 66 352 140 182 414 122 437 
429 8 462 291 466 31 355 53 184 110 
430 9 253 278 163 111 94 375 150 58 124 
431 9 272 293 62 379 230 160 325 205 380 
432 9 378 316 78 80 241 354 312 334 342 
433 9 144 33 435 73 210 110 259 100 31 
434 6 115 288 453 439 463 89 
435 9 73 259 433 110 144 31 100 33 210 
436 9 54 177 148 102 350 284 264 387 309 
437 9 107 422 414 120 122 159 17 428 66 
438 9 55 464 469 267 92 26 335 14 12 
439 5 288 442 434 115 89 
440 7 427 261 65 337 164 463 331 
441 8 381 411 29 7 202 87 400 181 
442 5 439 479 288 89 44 
443 8 101 231 227 323 204 79 175 173 
444 8 75 266 248 256 344 328 52 276 
445 7 295 372 198 58 111 94 124 
446 9 226 465 82 45 11 23 103 195 401 
447 9 365 102 264 37 49 289 158 350 137 
448 5 408 459 246 147 90 
449 7 396 141 330 211 10 19 280 
450 9 208 369 425 346 155 8 68 458 282 
451 9 409 299 97 340 228 64 334 27 190 
452 7 392 367 137 289 49 158 37 
453 6 421 463 36 115 434 83 
454 5 245 287 56 371 459 
455 7 273 413 274 202 70 305 297 
456 8 370 386 477 412 271 86 93 348 
457 8 183 116 336 348 30 286 412 254 
458 9 68 304 96 341 373 208 450 402 425 
459 6 408 448 245 287 454 56 
460 9 243 136 114 347 81 277 351 320 20 
461 9 233 46 310 64 190 39 216 27 241 
462 8 429 291 355 31 110 466 146 170 
463 6 421 453 427 115 434 36 
464 9 438 55 267 469 335 95 12 366 92 
465 9 226 82 45 446 11 103 127 15 317 
466 8 184 429 53 462 156 170 291 173 
467 6 218 294 172 29 273 202 
468 9 132 31 50 429 156 53 462 277 28 
469 9 438 92 55 464 26 366 403 95 267 
470 9 5 60 313 426 166 326 255 305 26 
471 8 89 142 331 288 261 265 439 434 
472 9 192 351 243 28 460 277 81 50 347 
473 9 201 393 377 18 199 319 308 247 190 
474 7 160 230 307 62 293 205 379 
475 9 38 225 242 61 130 131 353 283 191 
476 9 74 223 418 22 321 43 324 187 477 
477 8 456 370 386 271 412 86 93 324 
478 8 359 302 383 306 161 236 10 48 
479 6 44 442 142 374 89 361 
DEPOT_SECTION
   1
   -1
EOF
