NAME :  X-n524-kX-w104-c11.cctp
COMMENT : 	Adapted by Maziero, Usberti and Cavellucci from the Uchoa, Pecin, Pessoa, Poggi, Subramanian, and Vidal (2013)
TYPE :  CCTP
DIMENSION :    476
EDGE_WEIGHT_TYPE : 	EUC_2D	
CAPACITY : 	125
VERTICES_WITHIN_COVERAGE :  11
VERTICES_WITH_DEMAND : 	104
NODE_COORD_SECTION
1 691 729
2 978 828
3 427 367
4 777 543
5 190 596
6 773 750
7 234 727
8 851 358
9 140 69
10 891 285
11 467 13
12 537 162
13 636 355
14 213 284
15 75 877
16 384 814
17 606 173
18 76 236
19 86 733
20 642 61
21 303 261
22 771 775
23 107 264
24 763 43
25 811 873
26 38 170
27 822 920
28 907 792
29 539 273
30 576 836
31 491 411
32 430 725
33 727 248
34 532 825
35 457 218
36 398 153
37 942 597
38 8 330
39 637 85
40 75 781
41 578 635
42 560 188
43 27 523
44 432 198
45 359 691
46 695 372
47 203 307
48 641 389
49 836 612
50 375 499
51 818 980
52 577 226
53 889 259
54 516 324
55 102 346
56 318 976
57 223 11
58 484 245
59 365 982
60 648 790
61 878 261
62 600 800
63 493 722
64 549 214
65 714 918
66 638 166
67 452 172
68 711 687
69 924 905
70 326 662
71 786 203
72 24 32
73 529 661
74 843 248
75 115 449
76 82 971
77 876 644
78 322 24
79 642 810
80 685 607
81 141 824
82 351 732
83 641 954
84 330 941
85 830 188
86 469 250
87 970 812
88 723 360
89 274 238
90 668 103
91 562 82
92 269 147
93 135 493
94 895 953
95 930 729
96 579 972
97 901 987
98 546 102
99 664 479
100 967 393
101 388 767
102 977 995
103 933 329
104 947 364
105 242 400
106 991 716
107 738 728
108 436 466
109 346 490
110 639 634
111 765 715
112 772 60
113 254 183
114 804 906
115 150 451
116 378 297
117 881 802
118 959 912
119 225 450
120 213 802
121 842 994
122 662 474
123 20 116
124 562 217
125 709 544
126 50 682
127 771 244
128 538 704
129 506 883
130 414 522
131 583 435
132 210 579
133 326 715
134 92 24
135 879 544
136 648 720
137 291 405
138 14 19
139 446 28
140 130 966
141 978 572
142 333 105
143 558 84
144 288 10
145 783 837
146 1000 230
147 319 895
148 76 494
149 289 952
150 254 165
151 915 405
152 151 945
153 407 685
154 106 831
155 373 284
156 875 321
157 768 758
158 735 150
159 304 323
160 760 158
161 277 663
162 217 608
163 712 264
164 879 873
165 52 214
166 63 197
167 690 714
168 579 862
169 313 245
170 32 608
171 9 608
172 840 747
173 152 742
174 994 868
175 294 57
176 76 784
177 302 11
178 527 742
179 753 939
180 156 870
181 571 127
182 913 884
183 922 146
184 346 427
185 637 341
186 162 87
187 581 979
188 93 14
189 427 499
190 856 260
191 54 332
192 459 387
193 118 61
194 754 299
195 233 411
196 883 640
197 288 268
198 720 892
199 115 418
200 22 358
201 839 126
202 516 272
203 162 208
204 361 714
205 157 512
206 855 12
207 798 356
208 882 889
209 554 183
210 354 851
211 21 719
212 812 664
213 650 254
214 196 793
215 668 231
216 412 946
217 57 773
218 911 335
219 371 480
220 723 473
221 223 658
222 234 50
223 118 434
224 393 488
225 225 141
226 444 66
227 547 252
228 132 189
229 106 475
230 636 540
231 104 269
232 135 647
233 222 849
234 844 424
235 428 875
236 94 941
237 325 93
238 172 293
239 381 958
240 148 504
241 588 69
242 709 51
243 129 266
244 679 164
245 977 422
246 372 843
247 912 957
248 1000 521
249 743 716
250 838 43
251 649 346
252 144 771
253 771 321
254 454 383
255 553 361
256 419 490
257 482 77
258 13 726
259 967 302
260 556 701
261 484 665
262 972 422
263 297 676
264 476 864
265 978 988
266 340 827
267 675 391
268 225 785
269 832 207
270 465 723
271 289 259
272 281 611
273 752 271
274 539 782
275 25 72
276 772 963
277 724 627
278 791 367
279 375 323
280 0 91
281 385 995
282 132 510
283 488 274
284 403 745
285 965 258
286 456 817
287 313 773
288 486 256
289 657 8
290 231 914
291 256 745
292 668 922
293 528 298
294 153 272
295 303 733
296 814 649
297 352 306
298 187 498
299 115 362
300 857 350
301 663 898
302 592 503
303 222 391
304 846 792
305 461 617
306 290 396
307 333 441
308 292 402
309 489 939
310 781 370
311 197 119
312 582 192
313 299 353
314 506 792
315 638 178
316 755 124
317 654 335
318 917 986
319 277 98
320 986 960
321 66 850
322 623 623
323 602 913
324 674 0
325 125 625
326 937 264
327 430 671
328 171 691
329 1 656
330 374 862
331 407 938
332 284 116
333 939 702
334 155 256
335 504 293
336 770 501
337 764 790
338 702 683
339 525 835
340 839 711
341 379 711
342 140 264
343 597 673
344 657 752
345 798 514
346 679 437
347 843 272
348 708 837
349 55 768
350 664 373
351 103 28
352 841 826
353 47 539
354 530 354
355 924 776
356 477 784
357 69 282
358 371 110
359 309 154
360 234 333
361 61 527
362 104 132
363 711 178
364 602 538
365 47 755
366 357 66
367 332 541
368 860 711
369 817 206
370 853 658
371 440 187
372 603 576
373 438 190
374 857 282
375 169 702
376 461 299
377 878 549
378 252 181
379 714 846
380 196 92
381 780 638
382 724 171
383 650 937
384 353 961
385 505 953
386 801 374
387 239 74
388 718 26
389 325 941
390 0 789
391 461 432
392 330 888
393 391 542
394 548 841
395 965 772
396 252 790
397 61 446
398 215 324
399 181 749
400 562 764
401 678 70
402 422 965
403 985 664
404 678 370
405 118 587
406 913 258
407 548 391
408 669 600
409 735 621
410 474 67
411 765 428
412 615 218
413 854 798
414 850 728
415 154 235
416 390 924
417 768 589
418 4 303
419 204 802
420 43 400
421 525 257
422 673 778
423 850 158
424 593 392
425 123 233
426 935 921
427 130 687
428 394 334
429 765 405
430 625 734
431 540 408
432 881 423
433 358 553
434 903 236
435 64 121
436 11 847
437 758 962
438 981 723
439 36 659
440 539 348
441 506 458
442 762 62
443 956 508
444 173 89
445 96 995
446 982 670
447 593 42
448 256 579
449 538 566
450 706 808
451 373 748
452 346 575
453 260 698
454 538 250
455 348 539
456 952 444
457 716 841
458 84 185
459 320 795
460 168 346
461 857 379
462 84 839
463 901 930
464 637 820
465 297 973
466 61 140
467 804 298
468 795 51
469 979 294
470 492 157
471 324 520
472 285 618
473 672 535
474 306 601
475 832 980
476 450 987
DEMAND_SECTION
2 95
3 66
4 66
5 50
6 55
7 91
8 100
9 73
10 96
11 85
12 82
13 72
14 77
15 62
16 86
17 100
18 63
19 94
20 97
21 78
22 94
23 83
24 90
25 71
26 59
27 88
28 50
29 65
30 75
31 50
32 56
33 90
34 56
35 71
36 95
37 93
38 97
39 79
40 94
41 69
42 90
43 63
44 93
45 82
46 53
47 92
48 70
49 88
50 57
51 93
52 69
53 66
54 98
55 75
56 69
57 87
58 69
59 55
60 64
61 92
62 96
63 80
64 85
65 66
66 99
67 54
68 77
69 67
70 77
71 66
72 74
73 93
74 81
75 60
76 73
77 64
78 84
79 60
80 57
81 95
82 63
83 51
84 77
85 67
86 70
87 98
88 66
89 60
90 56
91 72
92 77
93 71
94 51
95 79
96 97
97 93
98 84
99 79
100 75
101 86
102 58
103 65
104 54
105 57
COVERAGE_SECTION
2 11 87 174 395 355 28 118 182 69 117 426 438 
3 9 254 192 428 279 391 376 31 116 297 
4 10 345 336 417 125 220 409 49 381 277 377 
5 11 132 162 448 221 325 405 232 205 272 328 298 
6 11 157 22 111 107 337 249 172 340 414 304 68 
7 11 291 453 399 268 396 295 221 375 328 214 161 
8 11 300 461 156 386 207 278 218 234 310 432 374 
9 11 193 186 444 351 380 134 188 362 311 435 222 
10 11 53 61 374 406 156 190 347 434 326 218 74 
11 11 139 410 226 257 143 91 98 366 447 241 358 
12 11 209 42 470 181 64 312 124 98 17 52 143 
13 11 185 251 317 350 48 404 267 424 46 255 88 
14 11 47 398 238 360 294 334 89 342 197 415 460 
15 11 321 462 154 236 436 180 81 176 76 40 152 
16 11 246 266 101 210 330 451 459 284 286 235 287 
17 11 312 315 66 412 42 209 181 52 124 12 64 
18 11 165 166 23 231 357 425 458 243 342 228 26 
19 11 365 349 40 217 176 126 427 211 173 252 258 
20 11 39 401 90 447 241 289 242 324 91 388 143 
21 10 271 197 169 89 159 297 155 116 113 313 
22 11 157 337 6 107 111 145 249 450 172 304 413 
23 11 231 243 342 425 18 357 294 334 415 238 165 
24 11 112 442 468 388 242 250 316 401 206 324 158 
25 11 114 145 27 352 164 208 413 179 304 198 337 
26 11 166 466 165 458 435 123 18 362 280 228 275 
27 11 114 25 51 475 276 208 179 164 121 437 94 
28 11 355 117 413 304 395 87 95 352 2 172 164 
29 11 421 227 202 454 293 335 283 54 288 52 64 
30 11 168 394 62 34 339 464 274 79 400 323 314 
31 11 391 192 254 431 441 407 354 3 108 440 255 
32 11 284 270 153 341 327 101 451 63 204 356 45 
33 11 163 273 127 194 215 363 71 213 382 253 467 
34 11 339 394 314 274 30 168 129 264 400 356 62 
35 11 44 86 373 371 58 67 288 283 470 421 202 
36 11 358 371 373 44 67 142 35 359 237 470 366 
37 11 141 196 377 403 77 135 446 443 248 333 49 
38 11 418 200 191 357 420 55 299 231 18 23 165 
39 11 20 90 401 241 447 91 181 143 242 289 66 
40 11 176 217 349 365 19 154 462 252 321 390 81 
41 11 343 322 73 110 372 260 128 449 408 261 364 
42 11 209 312 64 124 12 52 17 181 412 227 454 
43 11 353 361 148 397 170 171 229 282 405 93 75 
44 11 373 371 35 67 36 86 58 470 288 283 155 
45 11 204 341 133 82 70 153 451 263 284 295 327 
46 11 404 267 88 350 251 317 48 13 185 346 429 
47 11 398 14 238 360 460 294 334 342 243 303 415 
48 11 350 13 267 404 251 185 424 317 46 346 131 
49 11 296 370 77 196 212 381 417 377 135 4 340 
50 11 219 224 109 130 256 393 455 189 471 433 367 
51 11 475 121 276 27 437 114 179 94 97 247 463 
52 11 124 64 312 412 227 42 454 209 17 29 421 
53 11 61 406 10 434 190 374 74 326 347 156 285 
54 11 293 335 354 440 202 255 29 283 376 421 288 
55 11 299 191 460 357 199 231 420 200 23 243 238 
56 11 465 389 84 149 384 59 239 281 147 392 416 
57 11 222 144 387 177 175 380 444 186 78 9 319 
58 11 288 86 283 35 202 421 335 454 376 29 227 
59 11 281 384 239 56 84 389 216 402 331 416 465 
60 11 79 422 464 344 62 430 450 136 348 30 457 
61 11 53 190 10 374 406 434 74 347 326 156 269 
62 11 464 30 79 60 400 274 168 394 430 34 344 
63 11 270 178 128 261 32 356 260 73 314 274 327 
64 11 124 42 52 209 227 454 312 421 12 29 412 
65 11 198 179 292 301 437 383 379 276 457 83 348 
66 11 315 17 244 412 312 90 215 363 181 39 42 
67 11 371 373 44 470 35 36 58 86 12 288 257 
68 11 338 167 249 107 111 277 409 136 80 344 381 
69 11 426 182 463 118 208 247 164 94 174 318 320 
70 11 263 45 161 133 472 204 474 272 341 82 295 
71 11 369 127 85 269 160 382 74 33 158 273 423 
72 11 138 275 280 134 188 351 123 193 435 466 9 
73 11 128 261 260 41 343 63 178 305 270 449 327 
74 11 190 347 61 374 269 53 369 10 85 434 467 
75 11 223 229 199 115 93 397 148 282 240 205 298 
76 11 445 236 140 152 15 321 180 462 154 436 81 
77 11 196 370 49 296 212 368 340 37 333 414 377 
78 11 177 144 175 366 237 142 319 222 387 358 57 
79 11 464 60 62 422 344 450 30 348 430 379 457 
80 11 408 277 409 110 322 125 473 338 230 68 417 
81 11 154 180 252 462 214 419 120 176 40 321 173 
82 11 204 451 133 341 45 295 101 284 287 459 153 
83 11 383 292 323 301 96 187 65 198 168 179 437 
84 11 389 384 56 149 465 147 392 59 239 416 281 
85 11 269 369 423 71 74 201 160 190 127 347 61 
86 11 58 288 283 35 376 202 335 421 44 373 371 
87 11 2 395 355 174 28 117 438 95 182 106 118 
88 11 46 404 267 310 350 253 429 194 278 317 207 
89 11 271 197 21 169 113 378 14 150 159 92 359 
90 11 401 39 20 244 242 66 315 158 363 241 382 
91 11 143 98 241 181 447 39 257 20 12 410 17 
92 11 150 332 378 113 359 225 319 142 311 237 387 
93 11 240 282 205 229 115 75 298 148 223 199 361 
94 11 247 463 97 318 426 69 208 121 475 182 118 
95 11 333 355 438 395 106 28 368 446 414 403 117 
96 10 187 323 83 385 383 309 292 168 301 129 
97 11 318 247 94 463 121 475 426 102 265 51 69 
98 11 143 91 181 241 12 257 447 470 410 209 42 
99 10 122 346 473 220 230 302 125 364 267 131 
100 10 262 245 104 151 456 103 218 259 432 469 
101 11 451 284 16 82 341 32 204 459 287 266 246 
102 11 265 320 318 247 97 118 426 94 463 69 174 
103 11 218 104 259 469 156 10 326 100 406 151 285 
104 11 100 103 218 151 262 245 259 469 456 156 432 
105 10 195 303 306 137 308 119 360 313 398 460 
106 11 438 446 403 333 95 395 355 87 2 28 37 
107 11 249 111 6 157 68 167 22 338 337 422 344 
108 8 256 189 391 224 130 219 50 441 
109 11 219 50 471 224 455 307 367 184 433 393 256 
110 11 322 408 80 343 41 372 338 277 136 68 230 
111 11 249 107 6 157 22 68 212 338 340 167 337 
112 11 442 24 468 242 388 316 250 201 401 206 158 
113 9 378 150 92 225 89 359 332 271 169 
114 11 27 25 179 276 145 437 51 475 208 164 198 
115 11 75 223 93 199 229 240 298 205 282 119 148 
116 10 155 279 297 428 159 21 169 376 3 197 
117 11 413 28 304 352 355 172 164 414 208 95 182 
118 11 426 69 182 320 174 463 247 94 265 208 102 
119 10 195 105 303 298 115 137 308 306 205 240 
120 9 419 214 268 396 233 399 291 81 252 
121 11 475 51 97 94 318 27 276 247 463 437 114 
122 10 99 346 220 473 230 302 125 267 48 131 
123 11 280 275 435 466 26 72 362 166 458 138 165 
124 11 64 52 42 312 209 227 454 412 421 12 29 
125 11 473 80 4 408 220 230 417 336 99 409 122 
126 11 439 211 329 258 19 365 170 427 171 349 217 
127 11 273 33 71 194 369 163 467 269 74 253 347 
128 11 260 178 73 63 400 261 343 270 274 41 430 
129 9 264 339 309 394 34 385 168 235 286 
130 6 189 393 256 224 50 108 
131 8 424 431 407 302 48 255 441 122 
132 10 5 162 448 272 221 298 205 472 405 240 
133 11 295 82 204 45 263 70 341 451 287 453 161 
134 11 188 351 193 9 72 138 275 186 435 444 362 
135 8 377 49 37 443 345 196 77 4 
136 11 430 344 167 422 338 343 60 68 110 79 107 
137 9 308 306 105 313 307 195 184 303 119 
138 11 72 275 280 134 188 351 123 193 435 466 9 
139 11 11 226 410 257 366 358 78 98 143 91 36 
140 11 152 236 445 76 180 15 290 321 462 154 81 
141 11 37 248 443 403 446 135 377 196 77 456 333 
142 11 237 358 366 332 359 319 175 92 36 78 150 
143 11 91 98 241 181 447 257 39 12 410 20 470 
144 11 177 78 175 57 222 387 319 366 237 142 332 
145 11 25 337 352 22 457 379 114 348 304 157 413 
146 7 285 469 326 259 406 434 53 
147 10 392 389 84 210 149 330 266 246 384 416 
148 11 229 361 397 353 43 282 93 75 223 240 205 
149 11 465 56 389 84 147 384 290 392 59 239 281 
150 9 378 113 92 225 359 332 319 311 89 
151 9 432 104 100 456 262 245 461 218 234 
152 11 140 236 76 445 180 290 15 233 81 154 462 
153 10 327 341 32 45 204 284 270 451 82 261 
154 11 462 81 321 15 176 40 180 252 217 349 365 
155 10 116 297 279 428 169 21 159 197 271 376 
156 11 300 10 218 374 8 103 347 61 461 53 190 
157 11 6 22 337 107 111 249 172 145 450 304 340 
158 11 382 160 316 363 244 71 90 442 112 33 66 
159 8 313 297 197 21 271 279 360 306 
160 11 158 316 382 71 363 369 85 244 201 127 269 
161 11 263 453 472 70 272 221 474 133 295 7 162 
162 11 5 132 448 221 272 472 161 474 232 325 328 
163 11 33 273 194 215 127 213 253 363 317 382 71 
164 11 208 182 69 352 463 25 117 27 426 413 94 
165 11 166 18 458 26 357 425 23 466 231 228 243 
166 10 165 458 26 18 466 228 425 435 362 23 
167 11 338 68 136 107 344 249 422 430 111 60 6 
168 11 30 394 323 34 339 62 464 129 79 274 301 
169 11 21 271 197 89 155 297 159 116 113 378 359 
170 11 171 439 329 353 126 43 361 405 325 232 211 
171 11 170 329 439 353 126 43 361 405 211 325 258 
172 11 414 340 368 304 413 6 117 157 22 352 28 
173 11 252 399 375 328 427 19 214 419 7 81 268 
174 11 2 118 87 69 426 182 320 395 463 208 164 
175 11 78 319 144 177 237 387 222 332 142 366 57 
176 11 40 217 349 365 19 154 462 321 252 81 390 
177 11 144 78 175 222 366 57 237 387 319 142 332 
178 11 63 128 400 274 260 314 270 356 73 34 261 
179 11 437 276 65 198 114 27 51 292 25 475 301 
180 11 81 154 233 152 462 15 419 214 290 120 321 
181 11 98 143 91 12 17 209 241 42 312 39 66 
182 11 69 208 164 426 463 118 94 247 174 2 117 
183 4 423 201 434 85 
184 8 307 137 219 308 109 306 224 50 
185 11 251 13 317 350 48 404 267 46 424 255 88 
186 10 444 9 380 311 193 362 387 222 225 351 
187 10 96 83 323 385 383 309 292 301 168 129 
188 11 134 351 193 72 9 138 275 186 444 435 362 
189 6 256 130 108 224 50 393 
190 11 74 347 61 374 53 10 434 406 269 156 467 
191 11 200 38 55 357 418 299 420 231 23 18 243 
192 11 254 3 31 391 354 108 428 431 54 441 376 
193 11 9 351 134 186 188 444 362 435 380 275 466 
194 11 253 273 467 163 33 127 88 207 310 278 386 
195 11 105 303 119 137 306 308 360 313 398 115 460 
196 11 77 370 49 296 37 212 368 333 340 377 414 
197 11 271 21 89 169 159 297 14 360 155 313 113 
198 11 65 379 457 348 179 301 292 437 383 145 114 
199 11 223 75 115 299 229 397 55 420 93 148 460 
200 11 38 191 420 418 55 357 299 397 199 231 223 
201 9 423 85 269 250 369 316 160 183 468 
202 11 421 29 335 283 293 454 288 227 58 54 86 
203 8 415 228 425 334 342 294 243 23 
204 11 341 82 45 133 451 284 153 101 295 70 32 
205 11 240 282 93 298 115 229 75 148 132 405 223 
206 4 250 468 112 24 
207 11 278 386 310 253 8 467 300 429 461 194 88 
208 11 164 182 69 463 426 94 27 25 247 352 114 
209 11 42 12 312 64 124 52 17 181 470 227 454 
210 9 246 330 266 392 16 147 459 235 416 
211 11 258 365 126 349 439 217 19 329 390 40 176 
212 11 296 370 381 340 49 77 368 111 414 196 249 
213 11 215 412 163 33 315 52 317 185 66 17 251 
214 9 419 120 268 399 252 396 233 81 173 
215 11 213 163 412 33 315 244 363 66 382 17 52 
216 10 331 402 416 239 281 476 59 384 235 309 
217 11 349 40 365 176 19 390 258 211 462 154 321 
218 11 103 156 104 10 300 8 259 151 461 326 374 
219 11 50 224 109 256 307 184 189 130 471 455 393 
220 10 336 346 99 122 411 125 429 473 345 4 
221 11 162 161 453 328 5 7 375 472 272 263 132 
222 11 387 57 380 175 319 144 444 177 311 186 332 
223 11 75 199 115 229 397 93 299 148 240 282 420 
224 9 50 219 256 189 130 109 108 393 455 
225 9 311 150 92 378 113 380 332 319 387 
226 11 410 139 257 11 358 366 36 470 67 98 143 
227 11 454 29 421 202 64 124 52 293 335 288 58 
228 8 203 425 458 415 362 166 334 18 
229 11 75 93 148 223 282 115 240 397 199 205 361 
230 9 364 473 372 302 99 408 122 125 80 
231 11 23 243 342 357 425 18 294 334 415 238 165 
232 11 325 427 328 405 375 5 221 162 126 173 19 
233 8 120 419 214 268 290 396 180 81 
234 6 432 461 8 386 151 300 
235 10 264 330 416 246 286 331 216 16 129 210 
236 11 76 140 445 152 15 180 321 462 154 436 81 
237 11 142 366 332 175 319 358 359 78 92 177 387 
238 11 294 47 334 14 342 243 398 460 415 23 231 
239 11 384 59 216 331 416 281 402 84 389 56 476 
240 11 205 93 282 298 229 115 75 148 223 405 361 
241 11 447 91 143 39 98 20 181 90 401 289 12 
242 11 388 401 442 24 324 112 90 289 20 39 316 
243 11 342 23 231 294 334 425 415 238 18 357 203 
244 11 363 66 315 382 158 90 215 17 160 412 316 
245 10 262 100 456 151 104 443 432 248 103 218 
246 10 330 210 16 266 392 235 459 147 101 416 
247 11 94 318 463 97 426 69 118 182 265 208 320 
248 9 443 141 456 37 245 262 135 377 100 
249 11 107 111 68 6 157 167 338 22 337 212 381 
250 6 206 468 112 24 442 201 
251 11 317 185 13 350 404 48 267 46 424 88 213 
252 11 173 399 81 214 419 19 176 40 154 375 120 
253 11 194 467 207 278 310 273 386 88 127 163 429 
254 11 192 3 31 391 428 354 376 108 54 431 441 
255 11 440 354 407 431 424 54 293 31 131 13 335 
256 7 189 224 108 130 50 219 393 
257 11 410 226 139 11 98 143 91 470 67 12 181 
258 11 211 365 126 349 217 390 329 439 19 40 176 
259 11 469 103 285 326 104 218 406 10 146 53 100 
260 11 128 73 178 343 400 63 41 430 261 274 136 
261 10 73 305 327 63 270 128 153 260 32 178 
262 10 245 100 456 151 104 443 432 103 248 218 
263 11 161 70 453 133 295 472 45 272 204 221 474 
264 9 129 235 286 339 34 309 394 314 356 
265 11 102 320 318 247 97 118 426 94 463 69 174 
266 9 210 246 459 16 330 287 392 147 101 
267 11 350 404 46 48 346 251 13 88 317 185 424 
268 8 120 396 419 214 291 399 7 233 
269 11 369 85 74 71 423 190 347 61 127 53 434 
270 11 63 32 261 356 327 178 284 153 128 314 341 
271 11 197 21 89 169 159 297 14 113 378 155 360 
272 11 472 474 448 161 162 263 70 452 221 132 367 
273 11 194 127 33 163 253 467 71 347 369 215 74 
274 11 400 314 178 34 339 394 356 62 30 63 128 
275 11 280 72 123 138 435 466 134 188 351 193 26 
276 11 437 179 51 475 114 27 65 121 198 25 292 
277 11 409 80 381 417 338 68 408 125 110 249 167 
278 11 310 386 207 429 253 8 411 461 88 300 467 
279 8 428 116 297 155 3 159 313 376 
280 11 275 123 72 435 138 466 26 362 134 188 351 
281 11 59 239 384 402 216 331 476 56 416 84 389 
282 11 93 240 205 229 298 148 115 75 361 223 405 
283 11 288 335 202 58 86 376 421 293 29 454 54 
284 11 101 451 32 341 204 82 153 270 45 16 327 
285 9 326 469 259 146 406 434 53 103 10 
286 11 356 264 314 235 339 16 34 129 101 246 284 
287 9 459 295 82 133 266 396 291 451 101 
288 11 58 86 283 202 421 335 35 376 454 29 293 
289 11 324 20 388 401 242 447 39 241 90 24 442 
290 9 233 149 152 180 465 147 389 392 84 
291 9 7 396 453 295 268 287 120 399 133 
292 11 383 301 83 65 198 323 179 379 348 457 437 
293 11 335 29 54 202 421 283 454 227 440 354 288 
294 11 342 334 243 238 415 23 231 425 14 47 203 
295 10 133 287 82 291 453 263 204 459 7 45 
296 11 212 381 370 49 77 340 196 417 368 111 409 
297 10 116 279 155 428 159 21 313 169 197 271 
298 10 205 240 93 282 115 119 132 229 75 223 
299 11 55 460 199 191 223 420 75 238 357 200 231 
300 11 8 461 156 218 207 386 278 374 10 467 234 
301 11 292 383 65 198 83 323 379 348 457 464 79 
302 5 364 230 131 372 99 
303 11 105 195 119 360 398 306 137 460 308 47 313 
304 11 413 352 117 172 28 414 22 145 355 340 337 
305 5 261 327 73 153 449 
306 9 308 137 313 105 195 307 184 303 159 
307 9 184 109 219 137 308 306 50 224 471 
308 9 137 306 313 105 307 184 195 303 159 
309 9 385 129 476 402 264 216 331 235 96 
310 11 278 386 207 429 253 88 411 8 194 467 461 
311 9 380 225 444 186 387 150 9 92 222 
312 11 42 209 17 124 52 64 412 12 315 66 181 
313 8 159 306 308 137 360 297 105 279 
314 11 356 274 34 339 178 286 400 394 63 264 270 
315 11 66 17 244 412 312 215 363 213 52 42 90 
316 11 158 160 382 442 112 363 24 468 201 71 242 
317 11 251 185 13 350 404 46 48 267 88 213 424 
318 11 97 247 94 463 102 265 426 320 121 69 118 
319 11 332 175 387 237 92 142 222 359 225 150 380 
320 11 265 102 118 426 247 318 69 97 463 94 174 
321 11 462 15 154 436 176 40 217 81 349 390 180 
322 11 110 41 372 408 343 80 230 364 338 136 73 
323 11 383 168 83 96 301 292 187 30 394 464 129 
324 11 289 388 242 20 401 447 39 24 90 442 241 
325 11 232 405 427 5 328 375 126 162 170 439 132 
326 10 406 285 434 53 259 10 469 61 103 146 
327 10 153 32 261 305 270 341 45 284 63 204 
328 11 375 427 173 232 399 221 7 325 252 453 19 
329 11 439 171 126 170 211 258 365 19 349 353 325 
330 10 246 210 16 266 392 235 147 416 331 459 
331 10 216 416 402 239 384 59 281 476 235 84 
332 11 319 92 359 237 142 150 175 387 225 378 113 
333 11 95 438 106 446 403 395 355 368 196 77 414 
334 10 294 342 415 243 425 238 23 203 231 14 
335 11 202 283 293 54 29 288 421 376 58 86 454 
336 8 345 4 220 411 125 417 429 473 
337 11 22 157 6 145 450 107 457 348 111 379 249 
338 11 68 167 249 107 277 136 409 111 80 110 344 
339 11 34 394 314 30 129 274 264 168 356 286 400 
340 11 414 368 172 212 370 296 111 6 77 304 196 
341 11 204 45 82 451 153 284 32 133 101 327 70 
342 11 243 294 334 415 23 425 231 238 203 18 357 
343 11 41 260 322 110 128 430 73 136 372 400 178 
344 11 422 136 430 60 167 79 464 450 62 338 107 
345 7 336 4 417 220 135 377 411 
346 11 122 99 267 220 48 350 46 404 411 88 429 
347 11 374 190 74 61 467 53 10 156 269 434 369 
348 11 457 379 450 198 422 79 337 464 145 60 301 
349 11 217 365 40 176 19 258 390 211 462 154 321 
350 11 404 267 48 46 251 13 317 185 88 346 424 
351 11 134 188 193 9 72 186 138 275 444 435 362 
352 11 413 304 117 25 145 164 28 208 172 337 22 
353 11 361 43 148 170 171 405 229 282 397 93 240 
354 11 440 255 54 407 431 293 335 31 424 192 29 
355 11 28 395 95 117 87 413 2 333 438 304 414 
356 11 314 286 270 274 63 178 34 339 32 264 284 
357 11 231 23 18 191 243 418 165 55 342 425 38 
358 11 142 366 237 36 359 226 332 175 319 78 67 
359 11 92 332 142 150 113 237 378 319 358 225 36 
360 11 398 47 14 303 105 460 313 159 238 195 306 
361 11 353 43 148 229 282 93 397 405 170 240 75 
362 10 435 466 458 228 193 9 186 26 166 444 
363 11 382 244 158 160 215 316 33 315 66 71 90 
364 7 230 302 372 449 473 99 122 
365 11 349 217 40 176 211 19 258 390 126 462 154 
366 11 237 142 358 78 175 177 319 226 332 144 36 
367 10 455 471 433 452 109 393 50 474 219 224 
368 11 414 340 172 370 212 77 95 196 296 333 304 
369 11 269 85 71 74 423 127 190 347 160 61 201 
370 11 77 196 296 212 49 368 340 414 381 172 333 
371 11 373 44 67 35 36 470 86 58 288 283 12 
372 8 364 230 322 41 449 110 408 302 
373 11 371 44 67 35 36 470 86 58 288 283 12 
374 11 347 190 61 10 74 53 156 467 406 434 300 
375 11 328 427 173 399 232 7 221 252 19 325 453 
376 11 283 335 86 288 58 54 202 293 3 428 421 
377 8 135 49 37 345 443 196 77 4 
378 9 113 150 92 225 89 359 332 311 271 
379 11 457 348 450 198 145 65 301 337 422 79 464 
380 11 444 311 186 387 222 225 9 319 193 57 92 
381 11 296 212 409 417 277 49 370 111 68 249 338 
382 11 363 158 160 244 316 71 33 215 66 315 127 
383 11 83 292 301 323 65 96 187 198 168 179 379 
384 11 59 239 84 389 56 281 416 465 331 216 149 
385 9 309 476 129 96 187 402 216 264 331 
386 10 278 207 310 429 8 461 253 300 411 234 
387 11 222 319 380 175 311 332 57 225 444 186 92 
388 11 242 24 324 442 401 112 289 468 20 90 39 
389 11 84 384 56 149 465 147 392 59 239 416 281 
390 11 365 217 349 436 258 211 40 176 321 462 19 
391 9 31 108 192 254 441 256 3 189 431 
392 10 147 210 330 84 389 246 266 416 149 384 
393 11 130 433 455 50 224 189 452 256 367 219 109 
394 11 34 339 30 168 129 274 314 62 264 400 323 
395 11 87 355 438 95 2 28 106 333 117 174 446 
396 7 268 120 291 419 214 287 7 
397 11 420 148 75 229 223 199 361 43 93 115 353 
398 11 47 360 14 460 238 303 105 294 159 195 313 
399 11 173 252 214 375 7 268 419 328 120 291 427 
400 11 274 178 62 260 314 128 34 430 30 394 339 
401 11 90 242 20 39 388 289 324 442 24 447 241 
402 9 216 331 476 239 281 416 59 384 309 
403 11 446 106 438 333 37 95 141 196 395 77 355 
404 11 350 46 267 251 48 317 13 88 185 346 424 
405 11 325 232 5 282 361 205 353 240 170 132 93 
406 11 53 434 326 10 61 285 190 374 259 74 347 
407 11 431 255 354 440 424 131 31 54 441 192 48 
408 11 80 110 322 277 473 230 125 409 372 338 364 
409 11 277 417 381 80 408 68 338 125 296 212 4 
410 11 257 226 139 11 98 143 91 470 67 358 12 
411 9 429 310 220 386 278 336 207 234 88 
412 11 52 312 17 315 213 124 215 66 42 64 209 
413 11 304 117 352 28 172 414 355 164 145 22 25 
414 11 340 368 172 304 370 413 212 6 95 117 28 
415 9 334 203 425 342 294 243 228 23 231 
416 10 331 216 239 384 402 84 235 59 330 389 
417 11 409 4 381 277 49 125 296 345 80 212 336 
418 11 38 191 200 357 18 165 420 231 55 23 166 
419 9 120 214 268 396 233 399 81 252 291 
420 11 200 397 191 199 38 55 299 223 75 229 148 
421 11 454 202 29 227 288 283 293 335 58 64 124 
422 11 60 344 79 450 464 136 430 167 348 62 457 
423 9 201 85 269 369 183 71 74 160 434 
424 11 131 407 48 255 431 13 185 440 251 350 354 
425 10 415 243 23 342 334 231 228 203 18 294 
426 11 69 118 463 182 247 94 208 320 318 97 164 
427 11 232 328 375 173 325 19 126 399 252 221 439 
428 8 279 116 3 297 155 376 254 192 
429 9 411 310 278 386 207 88 46 220 234 
430 11 136 344 60 422 343 167 400 62 260 79 464 
431 10 407 31 255 131 354 424 440 441 391 192 
432 7 234 151 461 8 456 300 104 
433 11 455 452 367 393 471 50 109 130 474 219 224 
434 10 406 53 61 326 10 190 74 374 285 347 
435 11 466 362 123 26 275 458 280 166 193 9 165 
436 11 321 390 15 462 217 349 176 40 154 365 258 
437 11 276 179 65 51 114 475 27 198 121 292 25 
438 11 106 333 95 395 446 403 355 87 28 2 368 
439 11 126 329 170 171 211 258 19 325 365 427 232 
440 11 354 255 54 407 293 431 335 424 29 31 202 
441 4 31 391 431 108 
442 11 112 24 468 242 388 316 250 401 158 160 201 
443 8 248 456 141 135 262 377 245 37 
444 10 186 380 311 9 193 387 222 225 362 57 
445 11 76 140 236 152 15 180 321 462 290 154 436 
446 11 403 106 438 333 95 37 141 196 395 77 355 
447 11 241 91 20 143 39 289 98 181 401 324 90 
448 10 272 132 162 472 474 5 367 221 161 452 
449 3 372 364 41 
450 11 348 457 379 422 60 337 79 464 22 344 157 
451 11 101 82 284 204 341 133 45 32 287 16 459 
452 10 433 455 367 474 393 471 272 472 50 109 
453 11 7 161 263 291 221 295 133 70 472 272 328 
454 11 227 421 29 202 64 124 52 293 288 58 283 
455 11 367 433 471 452 393 50 109 219 130 224 474 
456 8 262 245 100 151 443 432 104 248 
457 11 379 348 450 198 145 337 422 65 301 79 464 
458 10 166 165 26 228 466 18 362 425 435 203 
459 9 287 266 295 210 16 396 82 246 451 
460 11 47 398 238 299 55 360 303 294 14 342 199 
461 10 8 300 234 432 386 156 207 151 278 218 
462 11 321 154 15 176 40 81 217 436 349 180 252 
463 11 94 247 69 426 208 182 97 318 118 164 27 
464 11 79 60 62 422 30 450 344 168 348 379 301 
465 11 56 149 389 84 384 59 147 239 290 281 392 
466 10 435 26 362 123 458 166 165 275 280 228 
467 11 253 347 194 374 207 273 74 127 190 278 300 
468 9 112 24 442 250 206 388 316 242 201 
469 9 259 285 326 103 146 406 104 218 10 
470 11 67 12 371 373 209 35 44 42 98 64 257 
471 10 367 455 109 433 50 452 219 393 224 307 
472 11 272 474 161 448 263 70 162 221 452 453 132 
473 10 230 125 99 122 408 364 80 220 372 302 
474 11 272 472 452 448 70 367 161 433 455 263 471 
475 11 51 121 27 276 94 97 437 114 247 318 463 
476 9 402 216 309 281 331 385 239 59 416 
DEPOT_SECTION
   1
   -1
EOF
