NAME :  X-n548-kX-w109-c11.cctp
COMMENT : 	Adapted by Maziero, Usberti and Cavellucci from the Uchoa, Pecin, Pessoa, Poggi, Subramanian, and Vidal (2013)
TYPE :  CCTP
DIMENSION :    502
EDGE_WEIGHT_TYPE : 	EUC_2D	
CAPACITY : 	11
VERTICES_WITHIN_COVERAGE :  11
VERTICES_WITH_DEMAND : 	109
NODE_COORD_SECTION
1 0 0
2 221 542
3 320 456
4 576 827
5 679 994
6 371 461
7 961 844
8 986 379
9 175 540
10 126 517
11 329 626
12 477 890
13 191 356
14 584 917
15 308 653
16 0 7
17 273 302
18 672 381
19 235 415
20 583 149
21 672 124
22 644 646
23 400 544
24 832 999
25 842 964
26 582 965
27 544 311
28 429 2
29 939 849
30 898 605
31 363 130
32 639 874
33 323 201
34 829 350
35 7 53
36 801 92
37 57 330
38 943 0
39 579 275
40 833 402
41 408 940
42 635 871
43 631 630
44 733 313
45 344 619
46 628 291
47 674 92
48 74 602
49 38 354
50 473 107
51 668 279
52 510 811
53 366 16
54 49 182
55 528 946
56 271 745
57 405 872
58 65 893
59 622 488
60 668 978
61 939 73
62 556 632
63 270 446
64 586 348
65 951 167
66 385 308
67 247 997
68 992 460
69 128 590
70 746 847
71 279 459
72 428 183
73 364 167
74 656 687
75 547 792
76 517 152
77 252 618
78 464 284
79 184 96
80 457 269
81 590 47
82 348 609
83 777 112
84 528 198
85 877 457
86 812 650
87 864 723
88 584 875
89 817 233
90 186 909
91 439 447
92 560 994
93 818 658
94 134 903
95 447 951
96 969 519
97 488 401
98 142 666
99 287 534
100 399 181
101 141 22
102 29 248
103 313 643
104 20 974
105 294 475
106 439 214
107 327 361
108 79 657
109 165 601
110 345 144
111 90 914
112 400 256
113 177 633
114 549 135
115 812 166
116 887 565
117 180 298
118 658 126
119 18 638
120 327 299
121 245 439
122 355 299
123 827 854
124 881 666
125 144 893
126 34 637
127 187 150
128 350 673
129 380 917
130 271 505
131 347 879
132 930 78
133 860 22
134 448 112
135 236 704
136 222 587
137 670 76
138 521 123
139 642 795
140 50 360
141 24 690
142 351 981
143 405 377
144 159 405
145 825 285
146 187 320
147 342 200
148 290 713
149 304 144
150 216 909
151 46 173
152 613 524
153 35 950
154 298 667
155 257 579
156 775 393
157 860 681
158 996 407
159 42 719
160 379 14
161 195 581
162 75 328
163 295 405
164 539 661
165 6 525
166 239 471
167 88 989
168 965 196
169 460 479
170 927 260
171 663 933
172 626 229
173 737 136
174 620 811
175 253 65
176 645 544
177 877 977
178 825 518
179 235 74
180 881 673
181 101 93
182 221 710
183 69 200
184 115 635
185 414 959
186 270 287
187 912 701
188 426 373
189 867 569
190 354 11
191 937 660
192 434 965
193 753 436
194 681 746
195 86 648
196 656 239
197 604 359
198 979 146
199 507 27
200 94 695
201 424 827
202 287 592
203 554 230
204 952 222
205 48 840
206 99 106
207 661 456
208 133 601
209 635 416
210 860 852
211 752 0
212 173 90
213 469 632
214 184 590
215 619 482
216 981 411
217 778 389
218 359 222
219 201 444
220 91 710
221 111 324
222 867 389
223 309 269
224 669 317
225 768 421
226 889 891
227 605 483
228 221 579
229 729 804
230 442 624
231 719 697
232 413 1000
233 977 29
234 356 605
235 107 39
236 362 727
237 570 421
238 162 737
239 557 652
240 139 48
241 145 568
242 596 316
243 681 194
244 420 824
245 94 529
246 422 341
247 226 328
248 687 807
249 299 951
250 549 281
251 944 64
252 554 49
253 302 952
254 258 765
255 182 881
256 641 481
257 541 807
258 107 602
259 870 999
260 247 282
261 771 712
262 109 942
263 865 629
264 632 928
265 571 734
266 899 632
267 189 934
268 385 166
269 851 399
270 890 198
271 370 248
272 372 910
273 11 248
274 845 326
275 508 769
276 511 900
277 320 984
278 158 330
279 159 327
280 798 648
281 555 541
282 832 900
283 809 931
284 460 869
285 585 804
286 487 102
287 194 288
288 127 981
289 39 692
290 187 528
291 462 482
292 890 450
293 857 64
294 96 223
295 610 842
296 910 604
297 260 757
298 809 211
299 48 352
300 23 950
301 289 98
302 622 891
303 499 618
304 873 960
305 65 845
306 990 747
307 809 808
308 693 76
309 506 411
310 668 167
311 301 696
312 61 500
313 9 695
314 939 496
315 390 699
316 741 894
317 39 477
318 476 728
319 663 477
320 112 160
321 588 281
322 215 559
323 528 309
324 601 769
325 668 953
326 594 865
327 407 905
328 478 244
329 423 639
330 174 707
331 635 465
332 570 151
333 651 612
334 785 786
335 166 64
336 684 574
337 598 632
338 645 944
339 976 284
340 576 737
341 87 725
342 177 414
343 865 221
344 459 506
345 23 683
346 507 320
347 961 987
348 497 889
349 888 561
350 963 175
351 308 530
352 237 184
353 576 387
354 937 529
355 463 219
356 210 641
357 582 748
358 215 107
359 985 385
360 920 945
361 502 117
362 851 594
363 467 732
364 728 54
365 64 249
366 492 57
367 415 372
368 852 45
369 503 209
370 292 125
371 340 273
372 242 217
373 700 96
374 942 989
375 37 511
376 663 175
377 670 279
378 611 829
379 471 843
380 268 61
381 412 350
382 4 325
383 454 981
384 94 359
385 688 524
386 982 397
387 793 620
388 337 779
389 106 856
390 965 538
391 780 360
392 144 904
393 225 646
394 666 449
395 510 276
396 564 632
397 573 501
398 903 827
399 605 806
400 38 525
401 216 988
402 944 955
403 220 716
404 788 589
405 75 130
406 858 686
407 107 314
408 717 125
409 991 306
410 62 373
411 641 426
412 350 855
413 42 62
414 184 460
415 618 878
416 986 690
417 430 839
418 840 747
419 284 582
420 899 505
421 453 998
422 134 596
423 30 955
424 437 412
425 660 92
426 203 828
427 524 418
428 723 31
429 869 759
430 824 606
431 760 852
432 352 365
433 954 998
434 381 873
435 905 972
436 222 302
437 746 114
438 670 702
439 447 881
440 14 996
441 844 110
442 315 373
443 115 329
444 808 697
445 992 409
446 692 929
447 897 142
448 397 338
449 334 75
450 104 954
451 537 581
452 502 262
453 346 190
454 812 171
455 361 170
456 44 202
457 326 351
458 525 950
459 773 202
460 906 167
461 910 793
462 752 234
463 147 12
464 542 768
465 82 850
466 358 588
467 19 296
468 228 854
469 147 444
470 954 410
471 529 392
472 77 383
473 822 126
474 284 784
475 804 876
476 735 425
477 784 608
478 870 566
479 968 481
480 228 806
481 548 87
482 609 314
483 328 85
484 852 128
485 505 944
486 358 609
487 311 26
488 855 140
489 909 915
490 407 84
491 523 987
492 690 982
493 841 250
494 499 9
495 646 414
496 516 682
497 713 221
498 944 22
499 691 660
500 763 609
501 44 506
502 756 289
DEMAND_SECTION
2 1
3 1
4 1
5 1
6 1
7 1
8 1
9 1
10 1
11 1
12 1
13 1
14 1
15 1
16 1
17 1
18 1
19 1
20 1
21 1
22 1
23 1
24 1
25 1
26 1
27 1
28 1
29 1
30 1
31 1
32 1
33 1
34 1
35 1
36 1
37 1
38 1
39 1
40 1
41 1
42 1
43 1
44 1
45 1
46 1
47 1
48 1
49 1
50 1
51 1
52 1
53 1
54 1
55 1
56 1
57 1
58 1
59 1
60 1
61 1
62 1
63 1
64 1
65 1
66 1
67 1
68 1
69 1
70 1
71 1
72 1
73 1
74 1
75 1
76 1
77 1
78 1
79 1
80 1
81 1
82 1
83 1
84 1
85 1
86 1
87 1
88 1
89 1
90 1
91 1
92 1
93 1
94 1
95 1
96 1
97 1
98 1
99 1
100 1
101 1
102 1
103 1
104 1
105 1
106 1
107 1
108 1
109 1
110 1
COVERAGE_SECTION
2 11 322 228 290 136 9 161 155 214 130 99 166 
3 11 105 71 6 63 163 130 351 121 166 442 99 
4 11 285 378 399 295 257 326 75 174 88 324 415 
5 11 492 60 325 338 171 446 264 26 302 316 92 
6 11 3 91 105 424 23 143 169 71 291 351 163 
7 10 29 398 461 226 489 210 306 360 402 429 
8 11 359 386 158 445 216 470 409 68 339 479 222 
9 11 290 241 322 2 161 214 10 228 109 136 69 
10 11 245 9 241 290 312 69 469 422 414 501 208 
11 11 45 103 82 15 234 486 466 128 154 202 419 
12 11 348 284 439 276 379 485 95 417 327 57 55 
13 10 146 278 279 247 117 144 342 436 287 19 
14 11 88 302 26 264 415 326 55 338 458 42 32 
15 11 103 154 11 311 128 45 82 148 202 77 486 
16 11 35 413 235 181 206 101 405 240 463 151 335 
17 11 186 260 223 436 120 247 457 371 107 287 122 
18 11 495 209 411 224 394 197 207 476 44 64 331 
19 11 121 219 63 166 342 163 71 414 13 144 105 
20 11 332 114 76 138 481 84 118 376 203 310 361 
21 11 118 47 425 373 310 408 137 308 376 173 243 
22 11 43 333 74 337 499 438 396 336 239 62 231 
23 11 466 344 234 486 82 6 169 291 230 351 45 
24 11 25 259 177 304 283 435 282 360 374 489 402 
25 11 304 24 177 259 283 435 282 360 489 226 475 
26 11 92 14 55 458 264 491 338 485 302 60 171 
27 11 323 250 346 395 39 242 321 64 452 482 197 
28 11 160 53 494 190 199 366 490 134 50 286 449 
29 10 7 398 461 226 489 210 360 402 123 306 
30 11 296 266 116 263 349 189 362 478 124 191 180 
31 11 110 73 455 268 483 149 100 449 453 490 370 
32 11 42 415 302 295 326 378 264 88 171 174 14 
33 11 147 453 218 455 73 149 110 271 223 268 371 
34 11 274 391 40 222 269 217 145 156 225 502 493 
35 11 413 16 235 181 405 206 151 240 54 101 463 
36 10 83 473 441 437 484 293 368 488 115 173 
37 11 162 299 49 140 410 384 467 407 382 221 472 
38 11 498 233 251 61 132 133 368 293 441 447 198 
39 11 321 250 242 482 27 203 46 323 172 395 64 
40 11 269 222 34 217 156 225 391 85 292 274 193 
41 11 185 327 129 192 95 272 232 383 57 142 439 
42 11 32 415 302 295 326 378 88 264 174 171 14 
43 11 22 333 337 74 396 499 62 239 336 438 176 
44 11 502 224 391 377 51 462 217 156 18 497 145 
45 11 82 11 486 234 466 103 15 128 202 154 419 
46 11 482 242 321 51 377 224 39 196 172 64 197 
47 11 425 137 308 373 21 118 408 364 310 437 173 
48 11 258 195 126 184 69 108 208 422 119 245 241 
49 11 299 140 37 410 162 382 472 384 467 221 407 
50 11 286 134 361 138 366 76 490 481 114 199 72 
51 10 377 224 46 196 172 482 44 497 321 242 
52 11 257 75 275 379 464 4 285 284 348 417 12 
53 11 160 190 487 28 449 483 490 380 301 31 175 
54 11 151 456 183 405 294 320 102 365 273 206 181 
55 11 458 485 491 276 26 92 14 348 12 95 383 
56 10 297 254 148 474 135 311 403 182 388 480 
57 11 434 327 417 439 201 244 272 129 284 131 412 
58 11 111 465 305 389 205 153 262 94 300 423 450 
59 11 215 227 256 331 152 319 207 397 394 176 411 
60 11 5 492 325 338 171 446 264 26 302 14 32 
61 11 132 251 498 233 38 447 293 198 368 133 65 
62 11 396 239 164 337 451 303 496 43 213 22 281 
63 11 71 121 105 166 19 163 3 130 219 442 414 
64 11 197 242 353 482 27 321 323 46 471 39 237 
65 11 350 168 198 460 204 447 270 132 61 170 488 
66 11 122 448 246 381 112 371 120 271 432 367 143 
67 8 401 249 253 277 267 150 142 90 
68 11 479 216 445 158 96 470 314 386 359 8 390 
69 11 422 208 258 241 109 184 48 214 113 161 9 
70 10 431 229 316 475 248 334 307 123 446 282 
71 11 63 105 121 3 166 130 163 19 99 351 219 
72 11 100 106 268 355 73 455 134 112 218 328 369 
73 11 455 268 453 110 31 100 147 33 218 149 72 
74 9 438 22 499 43 194 231 333 337 340 
75 11 257 464 285 52 4 275 357 324 399 340 265 
76 11 138 114 361 84 332 286 369 50 20 481 134 
77 11 155 393 136 202 356 419 228 15 103 154 161 
78 11 80 328 452 395 346 355 323 112 246 106 66 
79 11 212 358 335 127 179 240 175 181 101 206 380 
80 11 78 328 452 355 395 106 112 346 369 246 323 
81 11 252 481 425 137 199 47 114 366 494 20 138 
82 11 234 486 45 466 11 103 15 202 128 419 154 
83 10 36 437 173 473 408 115 441 454 364 484 
84 11 369 203 76 332 114 328 355 452 20 138 395 
85 11 292 420 269 222 40 314 178 470 354 479 349 
86 11 93 280 387 430 444 477 157 263 406 500 404 
87 11 418 429 406 157 180 187 124 444 93 461 86 
88 11 326 415 302 14 295 4 42 378 32 285 264 
89 9 298 493 343 145 459 454 462 115 270 
90 10 267 255 150 392 125 94 468 426 262 401 
91 11 424 169 291 344 97 6 188 309 143 367 427 
92 11 26 491 458 55 485 14 264 338 276 383 421 
93 11 86 280 444 387 157 406 430 263 477 124 180 
94 11 392 125 111 262 90 255 389 450 267 58 465 
95 11 192 383 185 41 421 485 232 327 12 439 129 
96 11 390 354 314 479 68 420 349 116 296 292 216 
97 11 309 427 471 424 91 188 367 169 346 237 291 
98 11 184 113 330 200 195 108 208 220 109 422 356 
99 11 351 130 419 155 202 105 2 71 322 166 228 
100 11 268 72 73 455 106 453 218 147 31 110 271 
101 11 463 240 235 335 212 181 79 206 179 413 358 
102 11 273 365 456 467 183 54 294 151 382 37 162 
103 11 15 11 154 45 128 82 311 486 202 234 77 
104 11 423 440 300 153 167 450 111 58 262 288 94 
105 11 71 3 63 130 166 351 99 121 163 6 19 
106 11 355 72 328 100 112 80 369 268 78 271 452 
107 11 457 442 432 163 120 122 448 66 17 143 381 
108 11 195 200 184 126 289 220 48 258 345 98 119 
109 11 214 422 208 113 161 69 241 258 136 184 228 
110 11 31 73 455 149 268 453 147 370 33 483 100 
111 11 58 262 450 94 392 125 389 465 153 305 423 
112 11 271 218 66 106 80 122 371 78 355 100 72 
113 11 109 356 214 98 393 208 161 422 184 136 69 
114 11 332 138 76 20 481 361 84 286 50 252 369 
115 9 454 473 298 488 459 484 83 441 89 
116 10 349 478 189 30 296 362 420 354 263 266 
117 9 287 146 279 278 436 247 13 260 443 
118 11 21 425 47 310 376 137 373 408 308 243 20 
119 11 126 345 141 289 313 108 48 195 159 200 258 
120 11 122 371 223 457 17 186 66 107 271 432 442 
121 11 19 63 166 71 219 163 105 414 130 342 3 
122 11 120 371 66 271 223 448 457 112 432 107 381 
123 10 475 210 282 307 431 226 283 334 70 398 
124 11 180 157 406 266 263 187 191 87 30 93 296 
125 11 392 94 255 90 389 111 262 267 450 150 465 
126 11 119 345 108 48 195 141 289 313 184 258 159 
127 7 358 79 352 212 320 372 335 
128 10 15 103 315 11 154 45 311 236 82 486 
129 8 272 327 41 434 131 57 185 412 
130 11 99 105 351 71 166 63 2 3 121 155 322 
131 5 412 434 272 129 57 
132 11 61 251 498 233 447 293 38 198 368 133 65 
133 11 368 293 498 38 441 132 36 61 251 484 211 
134 11 50 286 490 361 366 72 138 76 268 100 31 
135 11 182 403 56 148 297 393 330 254 311 356 154 
136 11 228 161 322 155 214 77 2 356 109 393 419 
137 11 47 425 308 373 21 118 364 408 428 81 437 
138 11 361 76 114 286 481 50 332 20 366 134 84 
139 9 174 399 378 248 324 295 285 194 4 
140 10 299 49 410 37 472 162 384 382 221 467 
141 11 345 289 313 159 119 126 108 200 220 341 195 
142 9 277 253 249 232 185 41 129 272 192 
143 11 367 188 381 246 448 424 432 66 91 107 457 
144 9 342 469 219 13 414 278 19 279 384 
145 11 493 274 89 34 502 343 298 391 462 44 459 
146 10 117 279 278 287 13 436 247 260 443 221 
147 11 453 33 218 455 73 268 110 271 100 149 31 
148 11 311 56 154 297 135 254 15 182 403 474 128 
149 11 370 110 301 33 31 453 455 73 483 147 449 
150 9 90 267 255 468 392 125 401 94 426 
151 11 54 456 183 405 320 294 102 365 273 206 181 
152 11 59 176 215 227 397 256 281 331 319 385 207 
153 11 423 300 104 440 58 111 167 450 262 288 305 
154 11 15 103 311 148 11 128 45 77 135 202 393 
155 11 419 202 136 228 77 322 2 99 161 351 214 
156 9 217 225 391 193 476 40 34 269 44 
157 11 406 180 124 87 93 263 444 187 86 266 418 
158 11 445 216 386 359 8 470 68 479 409 314 292 
159 8 289 141 313 345 341 220 200 108 
160 11 53 190 28 487 490 449 483 31 134 494 366 
161 11 214 228 136 322 109 9 2 241 290 113 155 
162 11 37 407 221 299 384 443 140 49 410 472 467 
163 11 442 63 107 71 3 121 19 457 105 432 166 
164 10 239 496 62 396 303 337 213 265 451 340 
165 10 400 375 501 317 312 245 48 119 126 10 
166 11 121 63 71 130 219 105 19 414 2 290 99 
167 11 450 288 262 153 423 104 440 111 300 94 58 
168 11 350 204 65 198 460 170 270 447 339 343 409 
169 11 291 344 91 424 309 97 23 427 6 188 471 
170 11 204 339 270 343 168 409 493 350 460 65 145 
171 11 325 338 446 264 60 492 302 5 32 42 415 
172 11 196 46 321 51 243 376 39 377 203 310 482 
173 9 408 437 83 373 21 308 459 310 47 
174 9 399 378 139 295 285 324 4 326 42 
175 11 380 179 301 358 487 370 79 483 449 212 335 
176 11 152 385 336 59 256 215 333 319 227 331 397 
177 11 304 259 435 25 24 360 374 489 402 433 283 
178 7 189 478 420 349 116 85 362 
179 11 175 380 358 79 301 212 335 370 127 487 483 
180 11 124 157 406 187 266 263 87 191 93 30 86 
181 11 206 405 235 240 413 320 335 212 101 79 463 
182 11 403 135 330 56 297 393 238 254 148 356 311 
183 9 456 54 151 294 365 320 102 405 273 
184 11 195 258 208 98 108 422 69 48 109 113 200 
185 11 41 192 95 232 383 129 327 421 272 142 439 
186 10 17 260 223 436 120 247 371 372 287 457 
187 11 180 124 191 87 157 406 266 429 416 418 263 
188 11 367 143 381 246 424 448 97 432 91 66 309 
189 10 478 116 349 362 30 296 430 263 178 266 
190 11 53 160 487 449 28 483 490 380 301 175 31 
191 11 266 187 124 180 416 296 30 263 157 406 87 
192 11 95 185 383 41 421 232 327 129 485 272 142 
193 6 225 476 156 217 391 40 
194 9 438 248 231 139 74 229 324 499 174 
195 11 108 184 48 200 258 126 98 220 289 208 119 
196 9 172 51 377 243 46 497 376 310 224 
197 11 64 353 242 482 209 495 18 237 46 27 224 
198 11 350 65 168 460 204 447 61 132 251 270 233 
199 11 494 366 252 481 286 28 81 50 361 138 134 
200 10 220 341 108 195 289 98 159 184 141 345 
201 10 244 417 57 379 284 439 434 412 327 12 
202 11 419 155 77 11 103 99 45 82 15 136 351 
203 11 84 39 250 369 321 452 395 172 328 332 27 
204 11 168 170 350 65 270 339 460 198 343 409 447 
205 5 305 465 58 389 111 
206 11 181 405 320 235 240 413 212 335 151 79 54 
207 11 394 319 331 256 411 495 209 215 59 227 385 
208 11 422 69 258 109 241 184 214 113 48 161 98 
209 11 495 411 394 207 331 18 197 237 256 353 319 
210 10 123 226 398 282 475 307 461 29 489 429 
211 11 428 364 308 36 373 133 368 137 437 83 47 
212 11 79 335 358 240 127 179 181 101 206 463 235 
213 8 230 303 329 496 164 451 62 239 
214 11 161 109 136 228 113 322 241 422 9 208 69 
215 11 59 227 256 331 152 319 207 397 394 411 176 
216 11 445 386 158 359 470 8 68 479 314 292 409 
217 9 156 391 225 193 476 40 34 269 44 
218 11 147 271 453 33 455 112 371 73 100 268 223 
219 11 414 342 121 19 166 469 144 63 71 290 13 
220 10 200 341 159 108 289 195 98 141 345 238 
221 10 443 407 162 384 278 279 37 472 299 410 
222 11 269 40 34 292 274 85 217 470 156 391 225 
223 11 371 120 186 17 122 260 271 33 218 147 457 
224 11 51 377 46 482 18 44 242 197 196 64 321 
225 6 193 156 476 217 391 40 
226 11 489 210 282 360 29 398 304 123 435 402 7 
227 11 215 59 331 256 397 152 319 207 411 394 237 
228 11 136 322 161 155 2 214 77 9 109 290 356 
229 9 248 70 431 334 194 307 139 316 261 
230 9 329 213 303 486 234 23 315 466 496 
231 10 499 438 261 194 74 444 22 280 500 86 
232 11 421 185 192 383 41 95 142 129 277 327 272 
233 11 498 38 251 61 132 133 198 293 368 447 65 
234 11 486 82 466 45 11 103 15 128 202 23 329 
235 11 240 101 463 181 335 206 413 212 79 405 35 
236 8 315 128 388 311 148 154 15 56 
237 11 353 427 471 209 309 197 227 411 64 495 215 
238 8 330 403 182 98 220 341 200 135 
239 11 62 164 396 337 496 303 451 43 265 22 340 
240 11 101 335 235 463 212 181 79 206 358 413 179 
241 11 69 422 208 109 9 214 258 161 10 290 245 
242 11 482 64 321 46 39 197 27 250 323 224 353 
243 8 376 310 497 196 172 21 118 408 
244 10 201 417 57 379 284 434 439 412 327 12 
245 11 10 312 501 400 375 241 69 258 48 317 422 
246 11 381 448 188 367 143 66 78 424 432 122 80 
247 10 436 146 13 260 287 17 117 186 279 278 
248 9 229 139 194 174 70 378 32 42 399 
249 6 253 277 142 67 272 131 
250 11 27 39 323 321 395 203 452 346 242 482 64 
251 11 61 132 498 233 38 293 198 447 133 368 65 
252 11 81 481 199 366 494 138 286 114 361 50 332 
253 6 249 277 142 67 272 129 
254 8 297 56 474 480 148 403 135 182 
255 9 90 125 150 392 94 267 468 426 389 
256 11 331 59 215 319 207 227 394 152 411 176 385 
257 11 75 52 464 4 285 275 399 324 357 378 295 
258 11 69 208 422 48 184 195 241 109 108 98 245 
259 11 177 24 304 435 25 374 360 433 402 283 347 
260 9 186 436 17 247 287 223 372 117 146 
261 11 444 231 280 93 86 334 418 406 87 157 387 
262 11 450 111 288 94 167 392 125 58 153 267 423 
263 11 266 362 124 30 180 430 296 157 93 86 406 
264 11 338 171 302 325 14 415 32 42 446 26 60 
265 11 340 357 464 324 75 285 275 496 257 164 399 
266 11 30 296 263 124 180 191 362 157 116 406 187 
267 11 90 150 255 392 401 125 94 288 262 67 450 
268 11 73 100 455 31 72 110 453 147 218 33 106 
269 11 40 222 34 85 292 274 217 156 391 225 470 
270 9 343 460 447 204 65 488 493 170 168 
271 11 218 112 371 122 147 66 453 223 33 120 100 
272 7 129 327 434 131 41 57 412 
273 11 102 467 365 456 183 54 382 151 294 37 162 
274 11 34 145 222 269 391 493 40 217 502 89 156 
275 9 464 52 75 257 318 363 265 340 357 
276 11 348 12 485 55 458 284 439 379 14 88 95 
277 8 142 253 249 67 129 272 232 185 
278 10 279 146 117 13 443 221 407 287 247 384 
279 10 278 146 117 13 443 221 287 407 247 436 
280 11 86 93 387 477 430 444 500 404 261 157 263 
281 11 397 451 152 227 59 215 176 62 396 303 337 
282 10 475 283 123 210 226 25 304 489 431 177 
283 11 282 25 475 304 24 316 123 177 226 259 431 
284 11 439 12 379 348 417 57 201 244 276 327 52 
285 11 399 4 174 378 324 75 257 295 357 464 139 
286 11 50 361 134 138 366 76 481 114 199 490 252 
287 8 117 436 146 247 279 260 278 13 
288 11 450 167 262 111 94 267 392 401 125 90 153 
289 11 141 345 159 313 108 126 200 220 119 341 195 
290 11 9 2 322 161 241 228 10 214 414 136 109 
291 11 169 344 91 424 309 97 23 427 6 281 471 
292 11 85 420 269 222 314 40 470 479 354 178 216 
293 11 368 133 441 36 484 473 132 488 61 251 447 
294 8 183 365 456 54 320 151 102 273 
295 11 378 326 174 399 4 415 42 88 32 285 302 
296 11 30 266 116 349 263 189 478 362 191 124 180 
297 10 254 56 474 148 403 135 480 182 311 388 
298 8 89 459 454 115 493 343 462 145 
299 11 140 49 37 410 162 472 384 382 467 221 407 
300 11 423 153 104 440 58 111 167 450 262 288 205 
301 11 370 483 380 149 175 449 179 110 358 487 31 
302 11 415 32 42 264 326 88 14 295 338 171 378 
303 10 213 451 230 62 164 396 496 239 329 281 
304 11 177 25 435 259 360 24 489 283 226 402 282 
305 7 205 465 389 58 111 94 125 
306 11 416 187 461 7 191 29 398 429 87 180 124 
307 10 334 123 431 210 418 475 70 429 229 282 
308 11 373 137 47 425 364 21 428 408 118 437 173 
309 11 427 97 471 237 424 353 91 169 291 188 346 
310 9 376 243 118 21 408 497 196 47 172 
311 11 148 154 15 103 128 56 135 236 297 11 182 
312 10 501 375 317 400 245 165 10 48 469 241 
313 10 141 345 289 159 119 126 108 220 341 200 
314 11 354 479 96 420 390 68 292 85 349 116 470 
315 8 236 128 329 363 311 230 318 45 
316 11 431 70 446 475 283 171 229 282 325 123 248 
317 9 501 312 375 400 165 245 10 472 410 
318 7 363 275 496 464 52 315 164 
319 11 207 256 394 331 59 215 385 411 227 495 209 
320 9 405 206 183 294 54 151 181 127 456 
321 11 39 242 250 482 46 27 203 172 323 64 395 
322 11 2 228 136 161 290 9 214 155 109 77 241 
323 11 27 346 250 395 452 39 321 242 78 64 80 
324 9 357 399 285 340 174 265 139 75 464 
325 11 171 60 338 446 492 5 264 302 32 26 42 
326 11 88 415 295 302 378 42 4 32 14 174 399 
327 11 129 57 41 272 434 439 185 95 284 131 192 
328 11 355 452 80 78 369 395 106 84 203 72 112 
329 9 230 213 315 486 234 303 45 82 128 
330 11 238 182 403 98 135 113 356 393 200 220 341 
331 11 256 215 59 207 319 227 394 411 209 495 152 
332 11 20 114 76 138 84 481 361 203 369 118 172 
333 11 43 22 336 337 499 176 74 396 438 385 152 
334 10 307 229 418 431 70 261 123 429 444 475 
335 11 212 240 79 101 463 235 358 179 181 206 175 
336 10 176 333 385 43 22 499 500 152 319 256 
337 11 43 396 62 239 22 333 164 74 451 496 499 
338 11 171 264 325 60 446 302 492 5 26 14 32 
339 11 409 170 204 168 8 359 350 386 65 270 158 
340 11 265 357 324 464 75 285 275 399 257 496 164 
341 9 220 200 159 289 108 141 238 195 345 
342 9 144 219 469 414 19 13 121 166 278 
343 9 270 493 89 298 460 170 454 145 115 
344 11 291 169 91 23 424 6 281 309 451 97 427 
345 11 141 289 313 159 119 126 108 195 200 220 341 
346 11 323 27 395 78 250 452 80 471 328 97 64 
347 11 433 374 402 435 360 177 489 259 304 226 25 
348 11 276 12 284 439 379 485 55 458 52 95 417 
349 10 116 478 189 30 296 362 420 354 263 266 
350 11 65 168 198 204 460 447 270 170 132 61 343 
351 11 99 130 105 419 202 155 3 71 466 2 82 
352 6 372 127 149 358 370 33 
353 11 237 64 197 471 427 209 242 309 495 411 482 
354 11 390 314 96 420 479 349 116 478 296 189 30 
355 11 106 328 369 72 80 452 78 84 112 100 395 
356 11 393 113 77 136 214 109 161 228 135 182 98 
357 10 340 265 324 464 75 285 399 257 174 139 
358 11 79 179 212 127 175 335 380 301 370 352 149 
359 11 8 386 158 445 216 470 68 409 479 339 292 
360 11 402 435 489 304 374 177 347 226 433 259 25 
361 11 138 286 50 76 114 134 481 366 332 84 252 
362 10 189 430 478 263 116 30 349 296 266 404 
363 7 318 275 496 464 315 52 75 
364 11 428 308 373 211 137 437 47 408 83 425 36 
365 11 102 294 183 456 273 467 54 151 407 162 37 
366 11 199 286 494 50 361 252 481 134 138 28 490 
367 11 143 188 381 246 448 424 432 66 91 97 107 
368 11 293 133 441 36 484 132 473 61 251 488 498 
369 11 84 355 328 452 203 76 106 395 80 72 78 
370 11 149 301 483 110 449 380 31 175 179 358 352 
371 11 120 122 223 271 218 66 112 186 17 147 33 
372 7 352 260 186 33 223 287 127 
373 11 308 47 408 137 21 425 437 364 118 173 428 
374 11 433 347 402 435 360 177 259 304 489 25 24 
375 10 501 400 312 165 317 245 10 48 258 69 
376 9 310 243 118 21 196 172 497 408 425 
377 10 51 224 196 46 172 482 44 497 321 242 
378 11 295 174 399 4 285 326 139 42 415 32 88 
379 11 284 417 439 12 52 201 348 244 276 57 257 
380 11 175 179 301 487 483 449 370 358 149 79 190 
381 11 246 448 367 188 143 66 432 424 122 78 107 
382 11 467 49 299 37 140 162 410 273 102 472 384 
383 11 421 192 95 232 185 41 485 491 458 55 327 
384 9 472 410 162 443 221 140 37 299 407 
385 9 176 336 319 256 207 59 152 394 331 
386 11 359 216 445 158 8 470 68 479 409 292 314 
387 10 477 280 404 500 430 86 93 362 263 444 
388 5 474 236 56 412 254 
389 8 465 305 125 58 94 111 205 392 
390 11 96 354 314 479 420 349 68 116 296 30 478 
391 11 217 156 34 225 44 40 274 502 476 193 269 
392 11 94 125 90 255 262 267 111 389 450 150 288 
393 11 356 77 113 135 136 182 228 214 403 161 155 
394 11 207 319 411 331 495 256 209 215 59 18 227 
395 11 452 323 250 346 328 78 27 80 203 369 39 
396 11 62 239 337 164 451 303 43 496 22 333 281 
397 11 227 281 152 215 59 256 331 237 176 451 319 
398 10 461 29 210 7 226 429 123 489 307 282 
399 9 174 285 378 4 295 324 139 75 326 
400 10 375 501 165 312 317 245 48 10 258 69 
401 9 67 267 150 90 288 249 253 277 392 
402 11 360 374 347 435 433 489 177 304 226 259 25 
403 11 182 135 330 297 56 238 254 148 393 356 311 
404 10 477 387 500 430 280 362 86 93 178 189 
405 11 206 181 320 151 54 183 413 456 294 235 35 
406 11 157 180 124 87 93 444 187 263 86 418 266 
407 10 221 443 162 384 37 278 279 299 140 410 
408 11 173 437 373 21 47 308 118 83 310 425 137 
409 11 339 8 170 359 386 204 158 445 216 470 168 
410 9 140 472 299 49 384 37 162 221 443 
411 11 209 495 394 207 331 18 256 319 215 59 227 
412 4 131 434 57 272 
413 11 35 181 16 235 206 405 240 101 151 463 54 
414 11 219 469 342 166 144 121 19 290 9 10 63 
415 11 302 42 32 326 88 295 378 14 264 4 174 
416 11 191 306 187 266 180 124 296 30 87 157 406 
417 10 201 244 57 379 284 439 434 12 327 412 
418 10 429 87 444 406 334 307 157 261 461 180 
419 11 202 155 77 99 351 136 11 228 103 82 45 
420 11 314 354 85 292 349 116 478 96 189 479 390 
421 11 383 192 232 95 185 491 41 485 458 55 142 
422 11 208 69 258 241 109 184 214 113 48 161 9 
423 11 153 300 104 440 167 58 111 450 262 288 305 
424 11 91 188 367 143 97 381 309 169 246 291 6 
425 11 47 137 21 118 308 373 408 310 364 81 376 
426 7 480 468 255 150 90 254 125 
427 11 309 471 97 237 353 424 169 291 91 64 397 
428 11 364 211 308 373 137 47 437 425 408 83 36 
429 10 418 87 461 187 406 398 307 157 180 444 
430 10 362 387 404 477 86 263 280 93 189 478 
431 10 70 316 475 229 307 123 334 248 282 283 
432 11 107 457 442 448 143 381 367 66 122 163 120 
433 11 347 374 402 435 360 177 259 304 489 25 24 
434 8 57 131 412 272 327 129 417 201 
435 11 177 360 304 374 402 259 433 489 347 25 24 
436 10 247 287 260 146 117 186 17 13 279 278 
437 10 173 83 408 373 36 364 308 21 47 473 
438 9 74 194 499 231 22 43 333 324 139 
439 11 284 12 57 379 417 327 348 201 244 434 276 
440 11 104 423 300 153 167 450 262 111 288 58 94 
441 9 484 473 488 36 293 447 115 368 83 
442 11 107 457 163 432 120 17 3 122 63 448 19 
443 10 221 407 384 162 278 279 37 472 410 299 
444 11 93 261 86 280 406 157 418 87 180 387 124 
445 11 158 216 386 359 8 470 68 479 314 409 292 
446 11 171 325 338 492 60 264 316 5 32 302 42 
447 9 460 488 484 270 65 441 132 350 473 
448 11 381 246 66 367 143 188 432 122 457 107 120 
449 11 483 301 487 31 370 53 190 380 110 490 149 
450 11 262 288 167 111 94 392 153 58 125 423 300 
451 11 281 303 62 396 239 164 337 213 397 152 496 
452 11 395 328 78 80 250 369 323 346 355 203 27 
453 11 147 33 455 73 218 110 268 100 31 149 271 
454 9 115 298 473 459 488 484 89 83 441 
455 11 73 268 453 110 147 31 100 33 218 149 72 
456 10 54 183 151 102 365 294 273 405 320 467 
457 11 107 442 432 120 122 163 17 448 66 371 143 
458 11 55 485 491 276 92 26 348 14 12 383 95 
459 7 298 462 454 115 89 497 173 
460 9 447 270 65 350 488 168 484 343 204 
461 10 398 429 29 7 210 87 418 187 306 226 
462 8 459 497 502 298 89 44 243 454 
463 11 101 240 235 335 212 79 181 206 179 413 358 
464 11 75 275 257 265 357 340 52 285 324 4 399 
465 8 305 389 205 58 111 94 125 392 
466 11 234 486 82 45 11 23 103 202 419 351 15 
467 11 382 102 273 37 49 299 162 365 140 410 407 
468 5 426 480 255 150 90 
469 9 414 144 342 219 10 19 290 472 166 
470 11 216 386 445 359 158 8 68 479 292 314 222 
471 11 427 309 97 353 237 64 346 27 197 323 424 
472 9 410 384 140 299 49 162 37 443 221 
473 9 441 484 488 36 115 454 83 293 437 
474 6 254 297 56 388 480 148 
475 10 123 282 431 283 210 70 316 307 226 334 
476 7 193 225 156 217 394 18 391 
477 10 387 404 500 430 280 86 93 362 263 189 
478 10 189 116 349 362 30 296 430 263 178 420 
479 11 68 314 96 354 390 216 470 420 445 158 292 
480 7 426 468 254 297 474 56 255 
481 11 252 138 114 361 81 286 366 332 20 76 199 
482 11 242 46 321 64 197 39 224 27 250 51 377 
483 11 449 301 370 31 110 487 149 380 175 190 53 
484 9 488 441 473 447 115 454 36 293 460 
485 11 458 55 276 491 348 95 12 383 92 192 421 
486 11 234 82 45 466 11 103 128 15 329 202 23 
487 11 190 449 380 53 483 160 175 301 179 370 490 
488 9 484 441 473 447 115 454 460 270 36 
489 11 226 360 402 435 304 177 29 282 210 374 25 
490 11 134 31 50 449 160 53 483 286 28 268 110 
491 11 458 92 55 485 26 383 421 95 276 192 14 
492 11 5 60 325 446 171 338 264 316 26 302 32 
493 10 89 145 343 298 270 274 459 454 170 115 
494 11 199 366 252 28 481 286 81 50 361 134 138 
495 11 209 411 394 18 207 331 319 256 197 215 353 
496 9 164 239 318 62 303 213 396 363 265 
497 8 462 243 196 459 376 310 377 51 
498 11 38 233 251 61 132 133 368 293 198 447 441 
499 11 74 231 438 22 333 43 336 194 500 261 337 
500 10 477 387 404 280 430 86 93 336 499 362 
501 10 375 312 400 317 165 245 10 48 258 69 
502 9 44 462 145 391 497 89 377 51 459 
DEPOT_SECTION
   1
   -1
EOF
