NAME :  X-n513-kX-w102-c7.cctp
COMMENT : 	Adapted by Maziero, Usberti and Cavellucci from the Uchoa, Pecin, Pessoa, Poggi, Subramanian, and Vidal (2013)
TYPE :  CCTP
DIMENSION :    342
EDGE_WEIGHT_TYPE : 	EUC_2D	
CAPACITY : 	142
VERTICES_WITHIN_COVERAGE :  7
VERTICES_WITH_DEMAND : 	102
NODE_COORD_SECTION
1 500 500
2 425 323
3 806 514
4 853 637
5 326 818
6 601 664
7 680 704
8 358 401
9 688 267
10 146 846
11 171 615
12 962 75
13 710 565
14 662 574
15 665 599
16 112 811
17 439 69
18 573 69
19 997 647
20 338 524
21 626 29
22 633 570
23 957 890
24 746 397
25 224 83
26 425 827
27 787 99
28 518 378
29 890 763
30 860 608
31 683 188
32 417 680
33 483 987
34 676 197
35 294 710
36 284 281
37 568 565
38 942 896
39 223 358
40 538 428
41 910 702
42 550 516
43 524 467
44 675 128
45 977 488
46 725 890
47 205 512
48 768 660
49 443 407
50 518 363
51 730 609
52 973 64
53 683 832
54 308 298
55 510 14
56 17 647
57 275 527
58 303 571
59 415 624
60 713 483
61 502 147
62 38 76
63 265 477
64 446 909
65 849 738
66 878 222
67 334 250
68 683 28
69 502 235
70 513 433
71 850 764
72 465 213
73 854 966
74 465 648
75 491 477
76 916 597
77 999 146
78 581 824
79 892 989
80 734 581
81 232 386
82 538 431
83 139 541
84 697 331
85 557 181
86 339 957
87 271 514
88 162 281
89 175 424
90 819 403
91 783 931
92 562 627
93 995 892
94 135 789
95 117 954
96 911 834
97 125 757
98 279 646
99 175 386
100 296 128
101 379 78
102 567 526
103 809 171
104 389 7
105 772 308
106 322 894
107 935 730
108 24 791
109 482 626
110 974 278
111 258 823
112 58 256
113 884 523
114 763 576
115 498 330
116 978 797
117 491 640
118 428 548
119 174 25
120 139 270
121 314 61
122 618 247
123 402 994
124 491 870
125 563 291
126 376 831
127 448 343
128 352 424
129 351 829
130 560 60
131 914 981
132 835 298
133 267 968
134 983 778
135 305 670
136 677 546
137 593 635
138 170 268
139 805 891
140 989 313
141 419 48
142 758 526
143 472 66
144 419 642
145 522 581
146 763 327
147 736 892
148 220 35
149 87 942
150 141 772
151 411 593
152 684 692
153 264 440
154 171 385
155 959 282
156 118 379
157 727 988
158 529 231
159 789 316
160 577 949
161 308 992
162 91 33
163 415 835
164 323 299
165 987 269
166 818 672
167 550 782
168 929 654
169 917 999
170 584 19
171 73 17
172 305 771
173 327 985
174 468 340
175 692 921
176 822 44
177 529 801
178 441 883
179 799 15
180 409 285
181 921 912
182 934 42
183 162 143
184 185 898
185 869 312
186 501 86
187 163 620
188 633 133
189 948 742
190 691 976
191 371 447
192 545 965
193 227 60
194 30 899
195 398 274
196 460 653
197 262 554
198 764 475
199 715 67
200 342 496
201 888 336
202 560 874
203 911 52
204 309 177
205 596 454
206 977 808
207 56 272
208 181 471
209 484 988
210 289 633
211 796 913
212 178 219
213 524 516
214 255 573
215 954 1
216 722 654
217 518 137
218 433 330
219 939 901
220 951 404
221 715 956
222 713 616
223 460 949
224 189 916
225 924 598
226 609 662
227 189 622
228 758 634
229 739 645
230 631 577
231 266 653
232 228 334
233 432 519
234 17 636
235 284 656
236 131 872
237 297 531
238 728 700
239 753 510
240 591 648
241 263 861
242 687 608
243 576 520
244 619 668
245 273 795
246 310 576
247 565 629
248 961 754
249 548 608
250 387 643
251 735 499
252 127 530
253 306 597
254 267 712
255 719 490
256 218 615
257 297 575
258 186 516
259 610 659
260 421 630
261 572 520
262 57 672
263 573 664
264 112 761
265 732 501
266 118 871
267 764 912
268 242 665
269 131 744
270 410 622
271 34 593
272 789 712
273 601 803
274 46 784
275 175 561
276 606 451
277 453 855
278 600 675
279 313 597
280 802 569
281 617 795
282 579 361
283 614 547
284 270 627
285 136 446
286 650 520
287 154 412
288 365 805
289 308 730
290 640 776
291 582 522
292 678 545
293 565 565
294 411 449
295 774 557
296 467 625
297 240 552
298 92 562
299 699 606
300 723 565
301 676 382
302 104 337
303 181 846
304 123 806
305 886 668
306 130 804
307 429 696
308 337 809
309 161 642
310 76 787
311 302 650
312 233 529
313 659 593
314 170 895
315 149 566
316 279 673
317 269 700
318 427 710
319 428 661
320 674 700
321 665 706
322 231 527
323 146 811
324 161 286
325 748 588
326 171 610
327 321 708
328 266 647
329 687 567
330 730 598
331 303 683
332 101 747
333 31 623
334 642 718
335 780 648
336 149 448
337 212 489
338 777 609
339 527 562
340 649 760
341 437 708
342 46 689
DEMAND_SECTION
2 8
3 2
4 10
5 7
6 10
7 7
8 7
9 2
10 9
11 9
12 1
13 3
14 9
15 4
16 10
17 3
18 4
19 2
20 8
21 2
22 9
23 2
24 8
25 8
26 5
27 8
28 4
29 5
30 9
31 8
32 5
33 2
34 10
35 1
36 3
37 9
38 3
39 8
40 4
41 2
42 6
43 8
44 9
45 4
46 1
47 6
48 2
49 1
50 10
51 3
52 4
53 2
54 7
55 3
56 6
57 1
58 5
59 4
60 1
61 7
62 4
63 9
64 7
65 5
66 4
67 6
68 10
69 1
70 6
71 1
72 8
73 3
74 5
75 5
76 6
77 1
78 9
79 1
80 2
81 5
82 10
83 7
84 6
85 5
86 10
87 4
88 6
89 10
90 3
91 10
92 4
93 10
94 3
95 8
96 9
97 3
98 2
99 8
100 7
101 7
102 8
103 2
COVERAGE_SECTION
2 7 218 127 180 174 195 115 49 
3 6 142 239 295 280 198 251 
4 7 30 305 166 335 76 168 225 
5 6 308 129 288 172 126 245 
6 7 226 259 278 244 240 263 137 
7 5 320 152 321 334 238 
8 7 128 191 294 49 200 153 2 
9 7 84 34 122 31 105 146 159 
10 7 236 303 323 266 306 304 16 
11 7 326 187 227 309 256 275 315 
12 7 52 182 203 215 77 176 66 
13 6 300 329 80 136 292 330 
14 7 313 15 329 22 230 136 292 
15 3 313 242 14 
16 7 304 306 94 323 310 10 150 
17 7 141 143 101 186 104 55 61 
18 7 130 170 21 186 55 217 188 
19 7 168 225 76 41 107 189 248 
20 7 200 237 58 246 57 257 87 
21 7 170 68 18 130 199 188 44 
22 5 230 14 283 313 15 
23 7 38 219 93 181 96 206 116 
24 7 146 301 90 198 84 60 159 
25 7 193 148 119 100 183 121 204 
26 5 163 277 126 178 288 
27 7 176 103 199 179 44 68 203 
28 7 50 115 40 70 82 174 282 
29 7 71 65 107 189 41 248 96 
30 6 4 76 225 305 280 166 
31 7 34 44 188 9 122 199 85 
32 5 307 319 318 341 144 
33 7 209 223 192 123 64 160 178 
34 7 31 44 9 122 188 85 84 
35 6 289 254 317 327 331 316 
36 7 54 164 67 232 39 204 195 
37 7 293 102 339 261 291 243 249 
38 7 219 23 181 93 96 131 206 
39 7 232 81 99 154 89 287 153 
40 7 82 70 43 28 205 50 75 
41 7 107 305 168 189 29 65 248 
42 7 102 261 213 243 291 293 339 
43 7 75 70 82 40 213 42 261 
44 7 188 31 34 199 68 21 27 
45 7 220 113 225 76 19 30 3 
46 7 147 175 267 221 91 53 211 
47 6 258 337 322 312 208 297 
48 7 335 228 229 216 166 338 272 
49 7 294 127 174 70 218 28 191 
50 7 28 115 174 282 40 70 82 
51 5 330 222 80 325 299 
52 7 12 182 203 215 77 176 179 
53 7 290 46 281 147 340 273 175 
54 7 164 36 67 232 195 180 39 
55 7 143 130 186 170 18 17 141 
56 5 234 333 262 342 271 
57 7 87 237 197 312 297 322 214 
58 6 257 246 253 279 237 197 
59 6 270 260 144 151 250 319 
60 7 255 265 251 239 198 142 292 
61 7 217 186 85 72 143 69 158 
62 7 162 171 183 119 112 25 148 
63 7 87 153 57 337 322 312 237 
64 7 178 223 277 124 163 26 33 
65 7 71 29 272 41 166 305 107 
66 7 103 132 185 155 110 201 165 
67 7 164 54 36 195 204 180 2 
68 7 199 21 170 44 188 18 179 
69 7 158 72 85 125 61 115 217 
70 7 40 82 43 75 28 50 49 
71 7 65 29 272 41 107 96 166 
72 7 69 158 61 180 195 217 85 
73 7 79 131 169 91 211 181 139 
74 4 196 296 117 109 
75 7 43 70 213 82 40 42 233 
76 7 225 30 168 4 305 113 19 
77 7 12 52 182 165 203 110 155 
78 6 273 281 167 202 177 290 
79 7 131 169 73 181 219 38 23 
80 6 325 330 300 51 13 114 
81 7 39 232 99 154 153 89 287 
82 7 40 70 43 28 205 75 50 
83 4 252 315 275 298 
84 7 301 9 146 105 24 159 122 
85 7 158 217 61 69 122 188 72 
86 7 173 161 106 123 133 64 223 
87 7 57 237 63 197 312 322 297 
88 7 324 138 120 212 302 232 39 
89 6 287 336 99 154 285 208 
90 7 24 198 159 146 201 185 105 
91 7 211 267 139 147 46 221 73 
92 5 247 249 137 240 263 
93 7 23 38 219 181 206 116 96 
94 6 306 150 304 323 16 97 
95 7 149 314 224 236 266 184 194 
96 7 38 206 23 219 29 116 181 
97 4 264 269 150 332 
98 7 235 328 231 210 284 311 316 
99 7 154 287 89 39 81 156 336 
100 7 204 121 25 101 193 148 67 
101 7 141 17 121 104 143 100 204 
102 7 261 243 291 42 37 293 213 
103 7 27 66 31 176 132 34 199 
104 7 141 101 17 121 143 55 186 
105 7 159 146 132 84 9 24 185 
106 7 86 241 129 5 126 308 173 
107 7 189 248 41 29 134 168 305 
108 4 274 310 332 16 
109 3 296 117 74 
110 7 155 165 140 201 185 66 220 
111 3 245 241 5 
112 6 207 120 302 88 324 138 
113 7 3 76 225 30 280 45 295 
114 5 325 295 80 338 280 
115 7 174 50 28 127 218 2 125 
116 7 206 134 248 189 96 107 29 
117 3 109 74 296 
118 4 233 151 270 59 
119 7 148 193 25 162 171 183 62 
120 7 88 324 138 212 302 112 207 
121 7 101 100 193 104 25 148 141 
122 7 125 9 34 31 85 158 84 
123 7 86 223 173 33 209 161 64 
124 7 277 178 64 202 26 177 163 
125 7 158 122 282 115 69 50 28 
126 6 129 288 163 308 26 5 
127 7 174 218 2 115 49 180 50 
128 7 8 191 294 200 153 49 20 
129 6 308 126 5 288 163 106 
130 7 18 170 186 55 21 143 217 
131 7 169 79 73 181 219 38 23 
132 7 185 159 105 201 146 66 90 
133 7 161 173 86 106 224 241 184 
134 7 116 206 248 189 107 96 29 
135 5 331 311 235 316 98 
136 7 292 329 14 286 13 22 300 
137 5 240 247 259 6 226 
138 7 88 324 120 212 232 302 39 
139 7 211 91 267 147 46 73 221 
140 7 110 155 165 220 201 185 66 
141 7 17 101 104 143 186 55 121 
142 6 239 251 295 265 3 114 
143 7 17 186 141 55 217 61 130 
144 7 260 59 319 270 250 32 196 
145 4 339 249 293 37 
146 7 105 159 84 24 132 90 9 
147 7 46 267 175 91 211 221 139 
148 7 193 119 25 121 100 183 162 
149 6 95 194 266 236 314 224 
150 4 94 97 269 264 
151 6 270 59 260 118 144 250 
152 5 7 320 321 238 334 
153 7 63 81 337 87 57 128 208 
154 7 99 287 89 156 39 81 336 
155 7 110 165 140 201 185 66 220 
156 4 302 287 154 99 
157 5 221 190 175 91 267 
158 7 69 85 72 125 61 122 217 
159 7 105 146 132 185 24 90 84 
160 4 192 202 33 209 
161 7 173 86 133 123 106 241 224 
162 7 171 62 119 148 183 193 25 
163 6 26 126 277 178 288 129 
164 7 54 36 67 195 180 232 2 
165 7 110 155 140 66 201 77 185 
166 7 335 4 272 48 305 228 65 
167 4 177 78 273 281 
168 7 305 41 225 76 19 107 4 
169 7 131 79 73 181 219 38 23 
170 7 21 130 18 55 68 186 143 
171 7 162 62 119 148 183 193 25 
172 4 245 289 308 5 
173 7 161 86 133 123 106 223 241 
174 7 127 115 218 2 50 28 49 
175 6 221 46 147 190 267 157 
176 7 179 27 203 199 182 103 215 
177 5 167 78 273 124 202 
178 7 64 277 124 163 26 223 126 
179 7 176 27 199 68 203 182 103 
180 7 195 2 218 127 174 67 164 
181 7 219 38 23 131 93 96 79 
182 7 203 12 52 215 176 77 179 
183 7 212 25 193 119 148 138 120 
184 6 314 224 303 236 10 266 
185 7 201 132 159 66 155 105 90 
186 7 143 217 61 17 130 55 18 
187 5 11 326 309 227 256 
188 7 44 31 34 18 85 130 21 
189 7 107 248 134 41 29 116 206 
190 5 221 157 175 46 147 
191 7 128 294 8 200 49 20 233 
192 5 160 209 33 223 202 
193 7 25 148 119 121 100 183 162 
194 5 149 266 95 236 108 
195 7 180 2 218 67 164 127 72 
196 5 74 296 319 117 109 
197 6 214 297 57 312 87 257 
198 7 239 251 265 255 142 60 3 
199 7 68 44 27 21 179 188 176 
200 7 20 191 237 87 128 57 63 
201 7 185 132 155 220 90 159 110 
202 7 78 124 160 177 273 192 167 
203 7 182 12 52 215 176 179 77 
204 7 100 67 36 121 54 101 164 
205 5 276 82 40 243 291 
206 7 116 134 248 96 189 23 93 
207 6 112 302 120 88 324 138 
208 5 337 336 258 89 47 
209 7 33 223 192 123 64 160 178 
210 6 98 284 311 235 328 231 
211 7 91 139 267 147 46 73 221 
212 7 138 88 120 324 183 36 232 
213 6 42 102 339 261 43 75 
214 4 197 297 257 58 
215 7 182 52 203 12 176 77 179 
216 6 229 222 228 48 51 238 
217 7 61 186 85 143 18 130 72 
218 7 2 127 174 180 115 195 49 
219 7 38 23 181 93 96 131 79 
220 7 45 201 140 155 185 110 90 
221 7 190 157 175 267 46 147 91 
222 3 299 51 330 
223 7 64 33 209 178 123 124 192 
224 7 184 314 303 236 95 10 266 
225 7 76 168 30 305 4 113 19 
226 6 259 6 244 278 240 137 
227 5 11 326 187 256 309 
228 6 229 335 48 338 51 216 
229 6 216 228 48 51 222 335 
230 5 22 14 313 283 15 
231 6 328 98 235 316 284 268 
232 7 39 81 99 154 36 324 88 
233 4 118 75 294 151 
234 5 56 333 271 262 342 
235 7 98 231 316 311 328 210 135 
236 7 266 10 314 303 184 323 16 
237 7 57 87 58 20 197 257 246 
238 7 152 216 7 320 229 48 272 
239 7 142 251 265 198 255 60 295 
240 6 137 6 259 226 263 278 
241 4 111 245 106 5 
242 3 299 15 222 
243 7 261 291 102 42 37 293 283 
244 5 226 259 6 278 240 
245 3 111 172 5 
246 5 58 257 253 279 237 
247 5 92 249 137 240 263 
248 7 189 134 107 116 206 29 41 
249 5 92 247 145 293 37 
250 3 270 144 59 
251 7 265 255 239 60 142 198 300 
252 3 83 315 298 
253 5 279 246 257 58 210 
254 3 317 35 316 
255 7 60 265 251 239 198 142 292 
256 4 227 11 326 284 
257 7 58 246 253 279 197 214 237 
258 6 47 337 208 275 322 312 
259 6 226 6 244 278 240 137 
260 7 59 144 270 319 250 151 196 
261 7 243 102 291 42 37 293 213 
262 3 342 56 234 
263 7 240 6 278 137 226 247 259 
264 5 97 332 269 150 94 
265 7 251 255 239 60 142 198 300 
266 7 236 10 314 16 304 323 303 
267 7 91 211 147 46 139 221 175 
268 5 231 328 316 98 235 
269 2 97 264 
270 6 59 260 144 151 250 319 
271 3 333 234 56 
272 7 166 48 238 65 335 71 228 
273 5 281 78 290 167 340 
274 5 108 310 332 264 16 
275 6 315 83 258 326 11 47 
276 5 205 82 40 243 291 
277 7 178 26 124 163 64 126 177 
278 7 6 226 259 244 240 263 137 
279 4 253 246 257 58 
280 5 295 114 338 3 325 
281 5 273 290 78 340 167 
282 7 50 28 125 40 82 115 276 
283 7 22 230 291 286 243 37 261 
284 6 210 328 98 231 235 311 
285 3 336 287 89 
286 6 136 292 283 22 14 230 
287 6 89 154 99 336 285 156 
288 4 126 129 308 5 
289 4 35 327 172 254 
290 5 340 281 273 334 53 
291 7 243 261 102 42 283 37 293 
292 7 136 329 14 13 286 300 22 
293 7 37 339 102 145 243 249 261 
294 7 191 49 128 8 233 200 75 
295 5 114 280 142 325 80 
296 4 109 74 117 196 
297 5 197 312 214 322 57 
298 2 252 83 
299 3 242 222 51 
300 6 13 80 325 330 329 114 
301 5 84 24 276 282 146 
302 4 156 120 324 88 
303 5 10 323 314 184 236 
304 7 306 16 94 323 150 10 264 
305 7 41 4 168 30 166 76 65 
306 7 304 94 323 16 150 10 97 
307 4 318 341 32 319 
308 5 5 129 288 126 172 
309 4 187 11 227 326 
310 7 274 16 264 332 304 108 97 
311 5 235 135 210 98 316 
312 6 322 297 47 197 87 57 
313 5 15 14 230 242 22 
314 7 184 224 236 303 10 266 95 
315 7 275 83 252 326 11 187 298 
316 6 235 231 135 331 98 317 
317 4 254 35 316 331 
318 3 341 307 32 
319 7 144 32 260 196 307 59 74 
320 5 7 321 152 334 238 
321 4 320 7 152 334 
322 6 312 297 47 197 87 337 
323 6 306 304 94 16 10 150 
324 7 88 138 120 212 302 232 39 
325 6 80 114 330 51 300 338 
326 7 11 187 227 309 256 275 315 
327 4 289 35 331 135 
328 7 231 98 235 284 210 316 268 
329 6 13 136 292 14 300 313 
330 6 51 80 325 222 299 300 
331 6 135 316 35 327 235 311 
332 3 264 97 269 
333 4 234 56 271 262 
334 5 321 320 7 340 152 
335 6 48 228 338 229 166 216 
336 4 285 89 287 208 
337 6 47 208 258 322 312 63 
338 5 228 114 325 335 51 
339 5 145 293 37 213 42 
340 5 290 334 281 321 7 
341 3 318 307 32 
342 2 262 56 
DEPOT_SECTION
   1
   -1
EOF
