NAME :  X-n599-kX-w59-c11.cctp
COMMENT : 	Adapted by Maziero, Usberti and Cavellucci from the Uchoa, Pecin, Pessoa, Poggi, Subramanian, and Vidal (2013)
TYPE :  CCTP
DIMENSION :    425
EDGE_WEIGHT_TYPE : 	EUC_2D	
CAPACITY : 	487
VERTICES_WITHIN_COVERAGE :  11
VERTICES_WITH_DEMAND : 	59
NODE_COORD_SECTION
1 284 167
2 6 711
3 874 746
4 483 894
5 733 189
6 336 29
7 488 684
8 825 903
9 98 412
10 206 306
11 497 641
12 499 745
13 481 40
14 500 390
15 851 268
16 51 278
17 805 796
18 554 771
19 576 984
20 734 251
21 325 414
22 658 81
23 279 467
24 1000 804
25 124 148
26 554 594
27 645 168
28 4 965
29 614 267
30 939 719
31 935 800
32 109 154
33 31 554
34 960 512
35 489 840
36 377 684
37 945 808
38 720 165
39 226 34
40 73 255
41 748 344
42 774 514
43 143 893
44 168 461
45 164 493
46 631 533
47 815 191
48 833 284
49 746 100
50 252 839
51 894 472
52 944 597
53 371 28
54 552 186
55 610 541
56 578 665
57 749 655
58 898 974
59 274 972
60 520 642
61 610 738
62 773 602
63 752 74
64 729 90
65 464 658
66 388 732
67 185 51
68 712 144
69 45 437
70 910 738
71 956 879
72 318 560
73 592 913
74 642 564
75 907 240
76 88 186
77 763 180
78 302 689
79 970 490
80 775 574
81 653 667
82 813 999
83 5 980
84 10 249
85 557 816
86 915 680
87 553 946
88 627 26
89 771 398
90 869 585
91 985 939
92 194 262
93 992 698
94 834 844
95 1 651
96 271 893
97 20 349
98 163 503
99 579 761
100 923 502
101 2 469
102 103 284
103 63 181
104 784 300
105 212 774
106 138 90
107 532 999
108 160 179
109 51 330
110 439 328
111 519 563
112 15 591
113 2 546
114 20 964
115 975 611
116 128 984
117 969 497
118 367 77
119 925 640
120 160 288
121 771 912
122 704 21
123 980 560
124 566 389
125 20 663
126 475 920
127 480 756
128 407 973
129 447 697
130 344 837
131 249 926
132 146 433
133 789 664
134 583 717
135 151 525
136 803 457
137 512 553
138 339 985
139 108 241
140 268 98
141 763 566
142 572 203
143 454 957
144 621 295
145 154 175
146 163 817
147 825 86
148 879 455
149 801 726
150 504 198
151 934 920
152 21 730
153 0 689
154 234 477
155 125 170
156 169 455
157 825 911
158 300 380
159 492 28
160 466 702
161 280 878
162 529 935
163 580 243
164 892 721
165 844 830
166 139 349
167 345 668
168 202 781
169 703 608
170 293 435
171 195 547
172 28 660
173 481 59
174 632 672
175 220 763
176 13 308
177 216 306
178 32 554
179 96 824
180 510 533
181 158 386
182 829 812
183 867 873
184 784 951
185 220 977
186 852 979
187 776 539
188 399 357
189 456 434
190 113 924
191 30 459
192 623 116
193 635 270
194 232 431
195 520 384
196 758 862
197 73 559
198 492 942
199 869 445
200 908 695
201 727 140
202 314 736
203 73 940
204 181 970
205 619 314
206 440 921
207 84 462
208 659 265
209 294 353
210 392 406
211 973 635
212 0 537
213 973 718
214 762 474
215 806 717
216 217 27
217 446 332
218 185 282
219 972 759
220 774 283
221 29 157
222 110 925
223 396 428
224 427 836
225 334 853
226 695 663
227 216 367
228 914 966
229 675 144
230 380 424
231 983 421
232 196 287
233 188 558
234 651 950
235 761 901
236 828 842
237 316 34
238 725 674
239 120 90
240 694 30
241 517 759
242 582 323
243 491 337
244 872 740
245 660 518
246 735 841
247 157 997
248 45 383
249 425 710
250 601 696
251 829 443
252 831 477
253 977 848
254 61 126
255 337 5
256 870 159
257 537 349
258 15 890
259 85 734
260 17 668
261 650 591
262 367 72
263 951 526
264 607 633
265 686 319
266 915 493
267 625 316
268 920 267
269 735 596
270 128 875
271 544 996
272 700 96
273 240 431
274 689 615
275 177 160
276 292 500
277 240 47
278 750 460
279 314 486
280 701 50
281 541 185
282 966 670
283 7 640
284 911 283
285 550 784
286 657 974
287 565 856
288 725 81
289 557 176
290 86 270
291 671 300
292 306 688
293 62 569
294 592 581
295 191 553
296 108 151
297 806 685
298 465 782
299 315 454
300 257 878
301 859 581
302 956 788
303 932 515
304 713 464
305 614 647
306 39 570
307 293 866
308 861 930
309 997 658
310 996 771
311 609 794
312 575 912
313 798 641
314 47 705
315 33 332
316 20 892
317 406 668
318 911 786
319 230 500
320 101 865
321 218 917
322 478 14
323 179 48
324 685 104
325 224 45
326 31 407
327 558 298
328 385 391
329 8 935
330 760 662
331 811 645
332 152 288
333 840 493
334 48 522
335 624 942
336 557 687
337 570 674
338 523 682
339 521 738
340 825 540
341 906 960
342 286 33
343 43 940
344 410 713
345 269 427
346 634 97
347 431 871
348 211 400
349 19 292
350 15 407
351 986 675
352 346 394
353 551 663
354 759 368
355 281 999
356 416 642
357 966 681
358 416 755
359 545 448
360 852 486
361 487 456
362 57 476
363 569 437
364 828 352
365 625 458
366 446 705
367 559 625
368 539 149
369 76 178
370 869 714
371 172 542
372 883 701
373 265 285
374 465 898
375 625 552
376 876 277
377 896 763
378 634 37
379 5 753
380 998 497
381 237 482
382 787 445
383 50 301
384 429 596
385 888 609
386 555 110
387 166 518
388 840 933
389 916 873
390 634 685
391 759 542
392 111 830
393 680 133
394 489 197
395 216 62
396 694 287
397 849 833
398 811 272
399 141 463
400 461 656
401 337 375
402 534 927
403 509 460
404 346 660
405 32 304
406 453 799
407 454 629
408 137 993
409 505 920
410 461 582
411 931 438
412 194 274
413 682 129
414 116 990
415 729 124
416 223 860
417 402 101
418 965 683
419 262 766
420 113 182
421 573 796
422 251 775
423 558 287
424 567 488
425 661 518
DEMAND_SECTION
2 63
3 89
4 97
5 78
6 92
7 55
8 97
9 88
10 95
11 64
12 80
13 68
14 71
15 95
16 75
17 89
18 54
19 75
20 61
21 66
22 86
23 56
24 99
25 65
26 56
27 99
28 79
29 73
30 53
31 63
32 76
33 67
34 77
35 82
36 67
37 68
38 64
39 69
40 68
41 83
42 77
43 67
44 74
45 80
46 55
47 86
48 68
49 62
50 78
51 67
52 90
53 63
54 90
55 56
56 69
57 97
58 87
59 87
60 70
COVERAGE_SECTION
2 10 153 152 314 379 260 125 172 95 283 259 
3 11 244 377 164 370 70 372 318 200 30 215 149 
4 11 374 126 409 198 206 35 347 402 162 143 224 
5 11 38 77 201 68 20 415 229 393 413 47 27 
6 10 237 255 53 342 262 118 140 277 417 39 
7 11 160 65 338 400 129 11 366 60 12 339 407 
8 11 157 388 308 183 121 94 236 184 235 397 165 
9 11 132 207 69 248 181 326 399 166 362 156 191 
10 10 177 232 218 412 92 120 332 227 373 166 
11 11 60 65 400 7 407 338 353 367 160 410 26 
12 11 127 241 339 298 160 18 7 285 366 338 129 
13 10 159 173 322 417 386 53 262 118 368 6 
14 9 195 243 257 189 124 361 403 359 217 
15 10 48 376 398 284 75 268 104 220 47 364 
16 11 383 40 405 349 290 176 84 102 109 315 139 
17 11 182 236 165 94 397 149 215 196 246 3 244 
18 11 285 99 421 241 85 339 311 12 134 61 127 
19 11 271 87 107 335 162 402 312 73 234 286 198 
20 11 220 396 5 104 208 77 291 398 265 38 41 
21 11 352 170 299 401 158 230 345 328 210 209 23 
22 11 346 324 272 192 378 280 413 393 240 88 229 
23 11 170 276 299 279 345 381 154 273 194 319 21 
24 11 310 302 253 219 37 31 71 213 318 30 93 
25 11 32 296 155 420 145 108 76 275 369 239 106 
26 11 367 294 111 60 137 264 353 11 56 180 55 
27 11 229 393 413 192 68 346 38 324 142 201 22 
28 10 83 114 329 343 203 316 258 222 414 190 
29 11 193 144 163 208 205 267 423 242 327 291 142 
30 11 213 70 200 418 86 164 357 219 282 93 372 
31 11 37 302 318 377 219 253 24 70 310 389 3 
32 11 296 25 155 420 76 369 145 103 254 108 239 
33 10 178 306 113 293 212 334 112 197 362 283 
34 11 117 263 79 303 100 380 266 123 51 411 52 
35 11 4 406 224 298 374 347 85 287 126 409 285 
36 11 317 167 404 344 66 249 356 129 292 366 78 
37 11 31 302 318 253 24 219 310 377 389 71 70 
38 11 68 201 5 415 77 229 393 413 49 324 272 
39 8 216 325 277 395 67 323 342 140 
40 11 290 16 139 102 383 84 405 349 76 103 369 
41 8 354 104 89 220 265 396 364 291 
42 11 187 391 214 141 340 278 80 136 252 333 382 
43 11 270 190 222 320 392 146 321 179 203 204 416 
44 11 156 399 45 132 98 387 135 154 194 381 319 
45 11 98 387 44 135 156 399 371 171 132 295 319 
46 9 375 55 74 245 425 261 294 365 424 
47 5 77 256 398 5 15 
48 8 15 398 376 104 220 364 284 75 
49 11 64 63 288 415 201 272 68 324 280 38 413 
50 11 416 300 161 307 96 422 419 105 168 175 225 
51 11 148 266 199 100 360 411 303 333 252 251 34 
52 11 115 119 211 123 385 263 90 282 309 303 34 
53 10 6 255 262 118 237 417 342 322 13 173 
54 11 281 289 142 368 150 163 394 386 27 192 423 
55 10 375 46 74 294 245 425 261 424 26 365 
56 11 337 353 336 250 305 264 367 134 174 338 390 
57 11 330 238 133 313 226 62 269 331 297 169 274 
58 11 341 228 186 308 151 388 82 91 157 8 389 
59 10 355 131 185 138 321 96 204 161 300 307 
60 11 11 353 338 367 7 65 336 26 337 400 56 
61 9 134 99 250 311 390 18 421 174 336 
62 10 80 141 269 313 331 57 330 391 187 133 
63 11 49 64 288 415 272 280 201 122 240 324 147 
64 11 288 49 63 272 415 324 280 201 68 413 393 
65 11 400 407 7 11 129 160 366 356 60 317 338 
66 9 344 358 249 36 366 317 129 202 167 
67 7 323 395 325 216 39 277 106 
68 11 201 38 415 393 413 229 324 272 5 49 64 
69 11 191 326 362 350 207 101 248 9 334 97 399 
70 11 164 377 30 3 244 200 372 318 370 86 219 
71 11 253 389 151 91 37 31 24 183 302 341 228 
72 3 276 279 23 
73 8 312 335 87 402 287 162 234 19 
74 10 375 261 46 55 245 425 294 274 169 264 
75 4 268 284 376 15 
76 11 369 103 420 32 155 296 25 139 221 254 145 
77 11 5 38 47 201 68 415 20 49 229 393 64 
78 5 292 167 202 404 36 
79 11 117 34 380 263 303 100 266 411 231 123 51 
80 9 141 62 187 391 269 42 340 313 169 
81 11 174 390 226 305 264 250 274 238 56 261 169 
82 8 186 184 388 308 58 157 8 121 
83 10 28 114 329 343 203 316 258 414 222 190 
84 11 349 16 176 405 40 383 290 103 315 109 221 
85 9 421 285 287 18 311 99 241 35 339 
86 11 200 372 119 30 164 418 357 282 370 70 213 
87 10 162 402 312 19 73 271 409 107 198 335 
88 11 378 22 240 346 122 280 192 324 272 386 288 
89 8 354 382 41 278 136 251 364 214 
90 10 301 385 340 52 119 331 313 303 80 333 
91 11 151 71 228 341 253 58 389 308 183 24 37 
92 7 412 218 232 120 10 177 332 
93 11 351 213 357 418 282 309 30 219 211 310 86 
94 11 236 165 397 182 183 17 8 157 196 389 388 
95 10 283 125 260 172 153 2 112 314 152 306 
96 10 161 300 307 131 50 321 416 225 59 130 
97 11 315 109 176 248 405 349 383 350 326 16 69 
98 11 45 387 135 371 44 399 156 171 295 233 319 
99 11 18 421 285 61 134 311 85 241 339 250 336 
100 11 266 303 263 34 51 117 79 148 411 360 380 
101 11 191 69 362 350 212 326 334 113 207 33 178 
102 11 290 40 139 332 16 383 120 109 166 405 218 
103 10 369 76 221 420 32 296 254 155 25 40 
104 9 220 398 48 41 364 20 354 15 396 
105 7 168 175 422 419 146 50 416 
106 4 239 323 25 67 
107 11 271 19 87 162 198 402 409 143 126 312 73 
108 8 145 275 155 420 25 32 296 76 
109 11 315 383 405 97 176 349 16 248 102 290 40 
110 5 217 188 243 328 14 
111 8 137 180 26 410 367 294 60 11 
112 11 306 33 178 113 283 293 212 95 197 172 125 
113 11 212 33 178 306 112 334 293 197 101 362 191 
114 10 28 83 329 343 203 316 258 222 414 190 
115 11 211 52 123 309 119 282 351 357 418 385 263 
116 11 408 414 247 204 190 222 203 43 185 343 270 
117 11 79 34 380 263 303 100 266 123 411 231 51 
118 8 262 417 53 6 237 255 342 140 
119 11 86 52 211 385 282 115 200 357 418 351 309 
120 11 332 218 232 412 92 10 102 177 166 139 290 
121 5 235 184 196 157 8 
122 11 240 280 288 63 378 64 272 22 88 324 49 
123 11 263 115 34 52 117 303 380 79 211 100 266 
124 6 195 363 257 359 14 242 
125 10 260 172 95 283 153 2 314 152 112 379 
126 10 374 4 198 409 206 143 162 402 347 35 
127 11 12 298 241 339 406 160 366 358 129 7 249 
128 8 143 206 138 126 198 374 347 4 
129 11 366 160 249 344 7 65 400 317 356 358 127 
130 5 225 307 161 224 50 
131 11 321 96 300 59 161 185 416 307 355 204 50 
132 11 399 156 44 181 9 45 207 98 348 166 194 
133 9 313 297 330 331 57 215 149 62 238 
134 11 250 61 336 99 337 56 390 18 353 339 174 
135 11 387 98 371 45 171 295 233 399 44 156 319 
136 10 382 251 252 214 333 278 360 42 89 199 
137 7 111 180 26 410 294 424 367 
138 8 355 59 128 131 96 143 185 206 
139 11 290 40 102 76 420 332 16 120 369 155 103 
140 5 277 395 342 325 39 
141 9 80 391 187 62 269 42 340 169 313 
142 11 54 289 281 163 368 150 29 27 394 423 193 
143 9 206 198 126 128 374 409 4 162 402 
144 9 205 267 29 193 208 242 291 327 423 
145 9 108 275 155 25 420 32 296 76 369 
146 9 168 392 105 179 270 416 320 43 175 
147 2 63 49 
148 10 199 51 360 251 266 252 333 411 100 136 
149 10 215 297 133 370 17 244 3 330 331 313 
150 7 394 281 54 289 368 142 163 
151 11 71 341 228 389 91 58 308 183 253 388 186 
152 9 2 379 314 153 260 259 125 172 95 
153 11 2 260 125 95 172 152 283 314 379 259 112 
154 10 381 319 23 194 273 345 276 44 156 45 
155 11 420 25 32 296 145 108 76 369 275 103 139 
156 11 44 399 132 45 98 387 194 154 348 181 135 
157 11 8 388 308 121 183 184 235 94 236 186 397 
158 10 209 401 21 352 170 345 299 273 194 227 
159 11 13 322 173 386 417 53 368 262 118 88 378 
160 11 129 366 7 249 65 400 12 127 344 338 339 
161 10 96 307 300 50 131 225 416 321 130 59 
162 11 402 87 409 198 312 126 4 271 107 73 19 
163 11 142 29 423 327 193 54 144 281 289 242 205 
164 10 372 370 70 244 3 200 377 30 86 318 
165 11 397 94 236 182 183 17 8 318 157 389 377 
166 11 181 332 120 102 9 227 10 218 132 232 177 
167 8 404 36 292 78 317 202 356 66 
168 7 105 175 422 146 419 50 416 
169 10 274 269 226 261 57 62 238 141 74 81 
170 11 345 299 23 21 273 158 279 194 276 352 154 
171 8 295 233 371 387 135 98 319 45 
172 10 125 260 95 283 153 314 2 112 152 306 
173 10 13 159 322 417 386 368 53 118 262 394 
174 11 390 81 305 250 264 56 337 226 134 61 336 
175 7 105 168 422 419 146 50 416 
176 11 349 405 315 383 97 109 16 84 40 248 290 
177 10 10 232 218 412 92 373 120 227 332 166 
178 10 33 306 113 293 212 334 112 197 362 101 
179 5 392 320 270 146 43 
180 6 137 111 410 403 424 26 
181 11 166 132 348 227 9 156 44 399 194 10 273 
182 11 165 17 397 236 94 183 3 377 244 318 196 
183 11 94 397 165 389 236 8 157 308 388 182 151 
184 6 121 235 82 157 388 8 
185 11 204 59 131 321 355 247 408 116 96 414 300 
186 10 82 58 388 308 341 228 157 184 8 151 
187 10 391 42 141 80 340 62 214 269 333 252 
188 9 328 110 210 217 352 401 230 223 21 
189 6 361 403 223 14 210 230 
190 10 222 43 203 270 320 116 414 343 408 204 
191 11 69 101 362 326 207 350 334 248 9 212 113 
192 11 346 22 27 229 393 413 324 386 272 378 289 
193 11 29 208 144 205 267 291 163 396 265 242 423 
194 11 273 345 348 154 381 23 170 227 156 319 44 
195 8 14 257 124 243 359 363 403 361 
196 6 246 235 121 236 94 8 
197 10 293 306 178 33 334 112 113 212 135 362 
198 11 409 126 162 143 402 4 374 206 87 107 271 
199 9 148 51 251 360 252 333 411 266 136 
200 11 86 372 164 30 70 370 119 244 418 357 3 
201 11 68 415 38 49 413 393 5 64 229 272 77 
202 8 78 292 419 66 422 167 36 404 
203 10 343 222 190 114 329 414 116 316 28 258 
204 11 247 185 408 116 321 414 131 190 222 43 59 
205 7 267 144 242 29 193 291 208 
206 8 374 126 143 4 347 198 128 409 
207 11 362 69 9 191 399 132 334 326 101 44 156 
208 10 193 291 396 29 144 265 267 205 20 163 
209 9 158 401 352 21 373 345 227 170 177 
210 10 328 223 230 352 188 401 21 189 110 299 
211 11 115 309 282 351 357 52 119 418 93 86 123 
212 11 113 33 178 334 306 112 101 293 197 362 191 
213 11 93 30 418 357 219 351 282 310 309 70 86 
214 10 278 382 42 136 304 187 391 252 251 89 
215 10 149 297 133 370 244 330 331 3 313 17 
216 8 39 325 277 395 67 323 342 140 
217 5 110 243 188 14 328 
218 9 232 412 92 120 10 332 177 373 166 
219 11 310 302 213 30 24 31 37 93 70 318 377 
220 11 104 398 20 48 41 15 396 354 364 265 47 
221 6 103 254 369 76 296 32 
222 10 190 203 43 270 320 116 414 343 408 204 
223 9 230 210 328 189 352 188 21 401 299 
224 8 347 406 35 298 374 4 358 130 
225 6 130 307 161 96 300 50 
226 11 238 81 274 57 169 174 330 390 269 305 261 
227 11 348 177 181 10 194 273 166 209 345 232 158 
228 11 341 58 151 186 308 91 388 389 71 183 157 
229 11 393 413 68 27 324 38 201 272 415 192 346 
230 9 223 210 328 352 21 401 188 299 189 
231 6 411 79 117 380 34 266 
232 9 218 412 10 92 177 120 332 373 227 
233 7 295 171 371 387 135 98 45 
234 4 286 335 73 19 
235 6 121 196 184 8 157 246 
236 11 94 165 397 182 183 17 8 157 196 235 121 
237 11 6 342 255 53 262 118 277 140 39 325 216 
238 11 57 226 330 133 274 169 81 269 313 297 62 
239 5 106 25 296 32 254 
240 11 122 280 288 378 22 272 88 64 63 324 49 
241 11 339 12 127 18 285 298 99 421 85 406 160 
242 8 327 205 423 267 144 257 29 124 
243 6 217 257 110 14 195 327 
244 10 3 370 164 377 70 372 200 318 30 215 
245 8 425 46 74 375 55 365 261 304 
246 4 196 235 121 17 
247 11 408 116 204 414 185 190 222 321 203 43 131 
248 11 326 350 97 315 109 69 9 191 405 176 383 
249 11 344 366 129 160 66 317 358 36 65 400 7 
250 11 134 390 337 56 174 61 336 305 81 353 264 
251 8 136 252 199 382 360 148 333 51 
252 11 333 360 136 251 199 148 382 51 340 42 214 
253 11 71 24 37 31 302 389 310 151 219 91 318 
254 5 221 296 369 103 32 
255 11 6 237 53 342 262 118 277 39 140 417 325 
256 1 47 
257 7 195 243 124 242 14 327 423 
258 9 316 329 343 114 28 203 320 83 222 
259 5 314 152 2 379 179 
260 10 125 172 95 153 283 2 314 152 112 379 
261 10 74 274 375 169 294 264 46 55 305 245 
262 8 118 53 417 6 237 255 342 140 
263 11 34 303 117 100 79 123 266 380 52 51 115 
264 11 305 56 174 367 294 337 81 390 261 250 353 
265 8 291 396 208 267 41 205 144 193 
266 11 100 303 51 34 263 148 117 79 411 360 199 
267 8 205 144 242 193 291 29 208 265 
268 4 284 75 376 15 
269 10 169 62 141 80 274 391 57 187 330 313 
270 8 43 320 392 190 222 179 146 203 
271 11 107 19 87 162 402 198 409 312 73 335 143 
272 11 324 288 64 413 415 393 22 49 280 68 201 
273 11 194 345 348 154 381 23 170 227 319 156 44 
274 10 169 261 226 269 81 74 238 57 174 305 
275 7 108 145 155 25 32 420 296 
276 10 279 23 299 381 154 319 72 170 345 273 
277 9 325 39 395 216 342 67 140 323 237 
278 9 214 304 382 136 42 89 251 391 187 
279 10 276 299 23 170 21 72 345 381 154 319 
280 11 240 122 288 272 64 22 63 324 49 378 88 
281 10 54 289 142 368 150 394 163 386 423 27 
282 11 357 418 351 309 211 93 213 119 86 30 115 
283 10 95 125 172 260 153 112 2 314 306 33 
284 5 268 376 75 15 48 
285 11 18 421 85 99 241 339 311 12 287 127 134 
286 4 234 335 19 73 
287 8 85 312 421 73 285 311 402 35 
288 11 64 49 63 272 280 415 324 201 240 68 122 
289 11 54 281 142 368 150 386 163 394 27 192 29 
290 11 40 102 16 139 383 405 332 109 349 120 84 
291 9 265 396 208 193 267 144 205 29 20 
292 5 78 167 202 404 36 
293 10 197 306 33 178 334 112 113 212 283 362 
294 11 26 55 375 74 264 367 261 46 305 111 56 
295 8 233 171 371 387 135 98 45 319 
296 11 32 25 155 420 76 369 145 254 103 108 239 
297 9 133 215 331 149 313 330 57 370 372 
298 11 406 127 12 358 241 35 224 339 366 160 249 
299 11 170 279 23 21 276 345 352 230 158 273 401 
300 10 96 161 307 416 50 131 321 225 59 130 
301 10 90 385 340 331 80 52 313 62 119 333 
302 11 37 31 219 310 318 24 253 377 70 30 213 
303 11 100 263 34 266 117 79 51 123 380 411 148 
304 6 278 214 425 245 382 42 
305 11 264 174 56 390 81 250 337 367 353 261 294 
306 10 178 33 293 112 197 113 334 212 283 95 
307 8 161 96 300 225 50 130 416 131 
308 11 388 157 8 186 341 58 183 228 151 389 184 
309 11 351 211 282 357 93 418 115 213 119 52 30 
310 11 219 24 302 213 37 31 93 30 253 318 70 
311 6 421 99 61 85 18 285 
312 8 73 87 402 162 287 335 409 19 
313 9 331 133 330 297 62 57 80 215 269 
314 9 152 2 259 260 172 125 153 379 95 
315 11 109 97 405 176 383 349 248 16 326 350 290 
316 9 258 329 343 114 203 28 320 83 222 
317 11 356 36 344 249 129 366 400 65 167 404 407 
318 11 377 31 37 302 70 3 244 219 164 30 397 
319 10 381 154 23 171 276 45 295 387 98 194 
320 8 270 392 179 43 190 222 146 203 
321 11 131 300 416 96 185 204 161 59 43 50 307 
322 11 159 13 173 53 417 386 262 118 255 6 368 
323 7 67 395 216 325 39 106 277 
324 11 272 413 393 22 229 64 288 68 415 346 201 
325 8 39 277 216 395 67 323 342 140 
326 11 350 248 69 191 97 9 101 362 315 207 109 
327 7 423 242 257 163 144 205 29 
328 11 210 230 188 223 352 401 21 110 189 217 158 
329 9 28 114 343 83 316 258 203 222 190 
330 10 57 133 238 313 297 331 62 226 269 215 
331 9 313 133 297 330 62 57 215 80 301 
332 11 120 218 232 412 92 102 10 166 139 177 290 
333 11 360 252 340 251 136 148 199 51 42 382 266 
334 11 33 178 197 362 293 306 212 113 191 101 207 
335 6 234 73 286 312 19 87 
336 11 337 353 56 338 134 250 60 339 367 7 305 
337 11 56 336 353 250 134 338 367 305 264 60 174 
338 11 336 353 7 60 337 11 339 56 160 65 12 
339 11 241 12 127 18 285 338 99 336 7 134 160 
340 10 187 333 301 42 80 360 90 252 391 141 
341 11 228 58 151 308 186 388 91 389 71 157 183 
342 11 237 277 6 255 39 325 140 216 395 53 262 
343 10 203 114 329 28 316 83 258 222 190 414 
344 11 249 66 366 129 358 36 317 160 356 400 65 
345 11 170 273 194 23 299 158 21 154 348 381 279 
346 11 192 22 324 393 413 378 229 272 88 27 386 
347 7 224 374 206 4 35 126 406 
348 11 227 194 273 181 345 156 132 44 154 381 166 
349 11 176 405 383 16 315 84 109 97 40 290 102 
350 11 326 248 69 191 97 101 315 362 9 109 207 
351 11 309 282 357 418 93 211 213 30 115 119 86 
352 11 401 21 328 230 158 210 223 188 209 170 299 
353 11 337 336 56 338 60 367 11 250 134 264 305 
354 6 41 89 364 104 382 220 
355 10 59 138 185 131 321 204 96 161 300 247 
356 11 317 407 400 384 65 36 129 249 366 344 404 
357 11 418 282 351 93 213 309 30 211 86 119 200 
358 10 66 344 249 298 406 366 127 129 160 36 
359 7 363 403 424 361 124 195 14 
360 11 333 252 148 51 199 251 136 340 266 100 382 
361 5 403 189 359 14 195 
362 11 207 191 69 334 101 326 9 350 33 178 212 
363 7 359 124 424 365 403 195 14 
364 5 48 104 354 89 41 
365 5 363 424 245 425 46 
366 11 129 160 249 344 7 65 400 317 358 127 66 
367 11 26 353 60 56 264 337 294 305 336 11 338 
368 11 289 281 54 386 150 142 394 192 163 173 27 
369 10 103 76 420 32 296 155 221 254 25 139 
370 10 372 164 244 3 200 70 377 86 215 149 
371 8 295 233 171 387 135 98 45 319 
372 10 370 164 200 86 244 3 70 30 377 119 
373 4 177 10 232 412 
374 9 4 126 206 347 409 198 143 35 224 
375 10 55 46 74 294 261 245 425 26 264 424 
376 7 15 284 48 268 75 398 364 
377 11 318 3 70 244 164 31 370 30 372 302 37 
378 11 88 22 240 346 280 122 192 324 272 288 413 
379 8 152 2 153 314 259 260 125 172 
380 10 79 117 34 263 123 303 100 231 266 411 
381 10 154 319 23 194 273 276 345 44 156 170 
382 10 136 214 278 251 89 252 42 333 304 360 
383 11 405 16 109 349 315 176 290 40 102 97 84 
384 8 410 407 356 400 65 317 11 137 
385 10 90 301 119 52 86 331 115 200 211 372 
386 11 368 289 192 54 281 346 173 142 13 150 159 
387 11 98 135 45 371 171 295 233 44 399 156 319 
388 11 308 157 8 186 184 183 58 82 341 121 228 
389 11 71 183 151 253 37 31 397 308 165 94 318 
390 11 174 81 250 305 61 56 264 134 226 337 336 
391 10 187 141 42 80 269 62 340 214 278 169 
392 5 179 320 270 146 43 
393 11 413 229 324 68 272 201 27 415 38 22 346 
394 6 150 281 54 368 289 142 
395 8 325 277 39 67 216 323 140 342 
396 10 291 265 208 20 193 144 267 41 205 220 
397 11 165 94 236 182 183 17 8 318 389 157 377 
398 10 48 104 220 15 376 20 47 364 41 75 
399 11 44 156 132 45 98 207 387 135 9 181 362 
400 11 65 407 7 11 129 160 356 366 317 60 249 
401 10 352 158 21 209 328 210 188 230 170 223 
402 10 162 87 409 312 198 126 73 4 271 19 
403 6 361 359 189 363 424 14 
404 8 167 36 292 78 317 356 202 66 
405 11 349 383 176 315 16 109 97 84 40 290 102 
406 9 298 224 127 35 358 12 241 347 339 
407 11 400 65 356 384 11 410 317 7 60 129 160 
408 11 116 247 414 204 190 222 203 185 43 343 321 
409 11 198 162 126 402 4 374 87 143 206 312 35 
410 9 384 407 137 111 11 180 400 356 65 
411 8 51 148 231 266 199 100 79 117 
412 8 92 218 232 10 120 177 332 373 
413 11 393 229 324 68 272 201 415 38 22 27 346 
414 11 116 408 247 222 190 203 204 343 114 43 185 
415 11 201 68 49 64 272 38 288 413 324 393 63 
416 11 50 300 321 96 161 307 131 146 168 43 105 
417 6 118 262 53 173 6 13 
418 11 357 282 351 93 213 309 30 211 86 200 119 
419 8 422 175 105 202 168 50 78 292 
420 11 155 76 32 296 25 369 145 108 103 139 275 
421 9 85 285 18 99 311 287 241 61 339 
422 8 419 175 105 168 50 202 416 146 
423 7 327 242 163 29 144 257 205 
424 6 359 363 403 365 55 180 
425 8 245 46 74 375 55 365 261 304 
DEPOT_SECTION
   1
   -1
EOF
