NAME :  X-n655-kX-w130-c9.cctp
COMMENT : 	Adapted by Maziero, Usberti and Cavellucci from the Uchoa, Pecin, Pessoa, Poggi, Subramanian, and Vidal (2013)
TYPE :  CCTP
DIMENSION :    599
EDGE_WEIGHT_TYPE : 	EUC_2D	
CAPACITY : 	5
VERTICES_WITHIN_COVERAGE :  9
VERTICES_WITH_DEMAND : 	130
NODE_COORD_SECTION
1 500 500
2 346 793
3 692 966
4 171 666
5 287 795
6 133 668
7 704 959
8 400 795
9 195 897
10 845 931
11 829 724
12 300 860
13 218 829
14 116 780
15 237 631
16 126 681
17 825 922
18 315 913
19 271 769
20 530 917
21 156 900
22 265 808
23 171 742
24 388 776
25 153 664
26 393 855
27 320 751
28 594 862
29 213 810
30 723 924
31 192 877
32 661 910
33 153 729
34 334 812
35 558 944
36 502 783
37 266 747
38 23 753
39 180 584
40 702 854
41 354 649
42 412 709
43 721 928
44 168 674
45 364 640
46 375 727
47 247 977
48 332 853
49 664 929
50 646 901
51 248 723
52 116 628
53 123 690
54 247 539
55 715 966
56 314 712
57 237 747
58 202 679
59 409 946
60 684 879
61 142 576
62 204 636
63 440 817
64 697 882
65 772 977
66 177 889
67 341 787
68 391 725
69 82 764
70 734 834
71 352 732
72 646 553
73 102 631
74 354 612
75 374 865
76 421 812
77 335 835
78 646 931
79 560 910
80 702 965
81 273 790
82 329 750
83 300 586
84 850 855
85 235 683
86 393 953
87 389 923
88 341 851
89 781 946
90 329 862
91 472 873
92 356 895
93 194 733
94 53 777
95 133 596
96 606 971
97 273 812
98 223 812
99 156 820
100 317 650
101 177 790
102 389 747
103 663 944
104 336 940
105 284 739
106 737 977
107 249 956
108 433 852
109 294 856
110 285 879
111 280 818
112 175 885
113 295 747
114 669 902
115 763 969
116 138 632
117 193 593
118 220 818
119 145 800
120 739 960
121 72 672
122 752 940
123 639 894
124 329 726
125 799 987
126 118 343
127 660 917
128 382 741
129 242 626
130 164 824
131 350 881
132 509 886
133 190 416
134 72 656
135 353 659
136 132 677
137 364 771
138 893 900
139 140 645
140 411 757
141 397 805
142 171 644
143 260 816
144 764 980
145 149 657
146 769 855
147 716 925
148 191 843
149 566 966
150 620 908
151 358 727
152 268 705
153 406 927
154 139 943
155 549 931
156 177 664
157 433 707
158 301 753
159 120 764
160 178 664
161 109 751
162 318 529
163 419 952
164 309 737
165 289 787
166 350 812
167 88 794
168 151 658
169 185 883
170 603 872
171 342 708
172 317 747
173 579 988
174 329 555
175 361 731
176 37 706
177 394 558
178 154 745
179 324 703
180 370 912
181 727 900
182 383 694
183 151 679
184 149 654
185 144 638
186 269 635
187 212 842
188 217 644
189 250 597
190 835 953
191 620 949
192 324 910
193 344 793
194 176 922
195 370 746
196 204 682
197 262 830
198 385 931
199 706 957
200 201 655
201 300 737
202 379 791
203 728 720
204 296 858
205 154 613
206 663 942
207 135 908
208 805 910
209 646 872
210 113 692
211 349 554
212 290 737
213 430 668
214 588 977
215 236 656
216 370 871
217 286 727
218 89 671
219 136 667
220 377 846
221 375 728
222 269 763
223 235 694
224 452 826
225 281 909
226 215 585
227 325 707
228 419 817
229 392 704
230 152 544
231 136 580
232 643 996
233 198 731
234 155 556
235 345 859
236 99 666
237 519 722
238 168 757
239 295 824
240 676 800
241 229 686
242 772 941
243 294 729
244 637 926
245 464 795
246 327 758
247 665 965
248 98 690
249 852 860
250 124 598
251 235 831
252 680 969
253 323 800
254 525 931
255 120 772
256 839 978
257 214 652
258 660 965
259 297 626
260 236 738
261 148 850
262 138 699
263 336 773
264 190 648
265 119 620
266 198 853
267 288 514
268 888 888
269 165 542
270 682 934
271 794 844
272 759 985
273 416 819
274 724 966
275 403 812
276 270 789
277 482 818
278 69 537
279 734 946
280 346 556
281 644 943
282 681 943
283 323 765
284 514 782
285 141 713
286 624 870
287 625 952
288 356 923
289 356 576
290 328 801
291 185 648
292 287 633
293 689 956
294 645 958
295 137 895
296 299 975
297 448 752
298 348 642
299 151 631
300 675 910
301 245 776
302 434 705
303 283 804
304 889 924
305 187 781
306 350 844
307 519 720
308 720 924
309 259 800
310 514 712
311 421 818
312 174 765
313 750 969
314 481 831
315 281 600
316 141 959
317 299 730
318 320 840
319 341 651
320 365 730
321 789 953
322 680 906
323 145 740
324 290 741
325 467 973
326 600 980
327 288 613
328 309 761
329 153 907
330 335 809
331 989 940
332 176 655
333 759 975
334 345 821
335 658 971
336 749 841
337 380 754
338 316 640
339 177 803
340 133 650
341 254 803
342 293 782
343 493 855
344 102 745
345 226 806
346 147 600
347 437 837
348 262 671
349 310 738
350 146 594
351 864 905
352 271 792
353 317 845
354 407 563
355 469 986
356 235 641
357 405 833
358 617 890
359 508 893
360 712 984
361 577 895
362 225 550
363 171 397
364 391 780
365 418 845
366 155 768
367 135 553
368 381 894
369 383 713
370 631 842
371 313 899
372 777 738
373 289 831
374 699 923
375 323 706
376 232 689
377 232 654
378 540 966
379 137 742
380 205 693
381 178 829
382 203 663
383 354 767
384 212 657
385 370 890
386 142 643
387 274 816
388 358 665
389 152 815
390 522 768
391 232 688
392 179 630
393 359 620
394 276 725
395 269 741
396 300 881
397 234 495
398 848 971
399 141 576
400 158 722
401 140 687
402 293 767
403 250 870
404 571 769
405 236 891
406 470 860
407 409 941
408 293 643
409 219 907
410 381 689
411 186 778
412 298 706
413 149 681
414 745 731
415 314 700
416 218 889
417 286 867
418 331 662
419 817 976
420 210 767
421 60 635
422 290 814
423 356 864
424 377 751
425 759 947
426 209 914
427 348 823
428 600 940
429 283 741
430 219 943
431 334 754
432 333 697
433 700 975
434 354 815
435 281 903
436 393 876
437 116 629
438 350 746
439 457 836
440 723 793
441 322 922
442 182 725
443 612 984
444 276 788
445 337 871
446 157 712
447 180 718
448 110 751
449 478 864
450 97 782
451 245 799
452 705 860
453 251 740
454 331 736
455 678 955
456 170 770
457 310 710
458 138 651
459 299 520
460 314 735
461 238 903
462 753 794
463 116 779
464 25 788
465 115 837
466 191 605
467 39 803
468 269 809
469 333 845
470 103 581
471 390 849
472 678 973
473 368 739
474 218 733
475 698 973
476 742 935
477 338 814
478 272 632
479 96 621
480 200 778
481 741 911
482 728 990
483 374 755
484 628 922
485 713 842
486 426 574
487 243 643
488 736 891
489 379 850
490 348 845
491 370 701
492 281 761
493 121 730
494 405 747
495 722 827
496 380 638
497 192 679
498 194 723
499 391 872
500 754 984
501 319 838
502 289 917
503 466 764
504 409 807
505 302 908
506 140 817
507 303 803
508 479 913
509 42 548
510 349 834
511 686 901
512 379 698
513 659 924
514 362 867
515 290 701
516 289 978
517 239 744
518 312 820
519 742 986
520 195 565
521 339 789
522 341 972
523 259 794
524 200 725
525 219 685
526 378 793
527 329 846
528 326 617
529 317 866
530 279 817
531 942 960
532 369 728
533 688 978
534 190 881
535 136 608
536 184 611
537 85 689
538 507 533
539 326 860
540 279 803
541 688 984
542 653 911
543 360 747
544 319 744
545 390 741
546 252 873
547 104 721
548 363 911
549 667 910
550 896 805
551 73 709
552 324 725
553 258 810
554 233 734
555 794 896
556 84 667
557 692 953
558 299 858
559 193 780
560 647 844
561 427 680
562 227 914
563 57 738
564 708 994
565 283 655
566 263 686
567 105 706
568 241 837
569 312 704
570 199 748
571 370 882
572 227 644
573 331 670
574 295 836
575 59 723
576 201 647
577 249 655
578 183 835
579 343 587
580 285 816
581 770 930
582 354 804
583 331 901
584 817 995
585 172 670
586 397 950
587 391 900
588 309 797
589 324 959
590 437 695
591 77 613
592 361 894
593 721 986
594 272 770
595 688 871
596 708 917
597 380 847
598 359 931
599 83 847
DEMAND_SECTION
2 1
3 1
4 1
5 1
6 1
7 1
8 1
9 1
10 1
11 1
12 1
13 1
14 1
15 1
16 1
17 1
18 1
19 1
20 1
21 1
22 1
23 1
24 1
25 1
26 1
27 1
28 1
29 1
30 1
31 1
32 1
33 1
34 1
35 1
36 1
37 1
38 1
39 1
40 1
41 1
42 1
43 1
44 1
45 1
46 1
47 1
48 1
49 1
50 1
51 1
52 1
53 1
54 1
55 1
56 1
57 1
58 1
59 1
60 1
61 1
62 1
63 1
64 1
65 1
66 1
67 1
68 1
69 1
70 1
71 1
72 1
73 1
74 1
75 1
76 1
77 1
78 1
79 1
80 1
81 1
82 1
83 1
84 1
85 1
86 1
87 1
88 1
89 1
90 1
91 1
92 1
93 1
94 1
95 1
96 1
97 1
98 1
99 1
100 1
101 1
102 1
103 1
104 1
105 1
106 1
107 1
108 1
109 1
110 1
111 1
112 1
113 1
114 1
115 1
116 1
117 1
118 1
119 1
120 1
121 1
122 1
123 1
124 1
125 1
126 1
127 1
128 1
129 1
130 1
131 1
COVERAGE_SECTION
2 9 193 67 521 582 166 330 290 34 263 
3 9 475 80 293 252 433 533 557 7 472 
4 9 585 156 160 44 332 25 142 168 291 
5 9 165 303 540 444 342 81 352 276 507 
6 9 219 136 16 340 458 145 25 401 168 
7 9 199 80 55 557 3 293 475 433 274 
8 9 141 504 275 364 202 24 526 76 228 
9 9 169 534 31 66 426 112 416 409 194 
10 9 17 190 351 398 208 304 256 419 138 
11 8 372 414 203 462 550 271 440 84 
12 8 558 204 109 417 529 396 353 110 
13 9 118 187 251 98 29 345 568 148 266 
14 8 463 255 159 450 161 448 167 119 
15 9 129 356 487 572 188 377 215 577 257 
16 8 136 53 6 401 210 219 262 413 
17 9 10 208 190 555 351 321 89 398 419 
18 9 192 441 371 505 583 502 104 225 396 
19 9 594 222 492 276 444 81 402 37 352 
20 9 254 155 79 359 132 35 378 508 361 
21 9 329 295 207 66 112 194 169 9 534 
22 9 468 553 97 143 309 341 387 523 540 
23 9 238 178 442 33 312 400 93 323 447 
24 9 364 202 526 8 337 137 483 424 102 
25 9 168 145 184 183 219 413 4 44 6 
26 9 471 489 597 499 220 75 436 357 365 
27 9 172 544 82 246 283 431 328 349 460 
28 9 170 286 358 361 370 150 209 123 560 
29 9 98 118 345 13 251 187 451 480 559 
30 9 308 43 147 596 476 481 181 374 279 
31 9 534 169 66 112 9 266 416 148 187 
32 9 549 127 542 114 300 513 50 49 322 
33 7 400 323 178 446 285 379 23 
34 9 330 477 290 334 166 253 427 434 193 
35 9 155 149 378 79 254 20 428 214 173 
36 9 284 390 245 277 503 314 297 237 307 
37 9 395 222 453 429 105 492 19 394 594 
38 9 464 563 94 575 176 467 69 551 167 
39 9 117 466 520 536 226 350 346 234 61 
40 9 452 485 595 64 60 495 70 336 488 
41 9 298 135 45 319 388 418 496 393 573 
42 9 157 229 302 68 369 590 182 561 512 
43 9 30 308 147 596 279 476 374 481 181 
44 9 585 4 156 160 25 183 413 332 168 
45 9 41 298 496 393 135 319 388 74 418 
46 9 221 532 320 473 175 68 128 369 151 
47 8 107 516 430 296 562 502 426 409 
48 9 469 527 88 90 539 235 353 77 318 
49 9 513 127 206 103 78 32 270 549 542 
50 9 123 542 32 127 114 549 513 150 244 
51 9 453 260 554 517 57 152 394 395 37 
52 9 437 265 73 479 116 340 535 139 185 
53 8 16 210 136 262 401 6 567 248 
54 9 362 397 267 459 226 189 520 315 83 
55 9 274 7 80 199 433 360 475 593 3 
56 9 457 569 375 227 415 179 552 412 124 
57 9 517 260 554 453 474 51 37 301 395 
58 7 196 497 380 382 525 200 384 
59 9 407 163 586 86 153 198 87 587 180 
60 9 595 64 511 114 322 452 40 300 549 
61 9 399 231 350 95 234 367 346 250 535 
62 9 576 188 264 200 257 291 384 572 392 
63 9 224 311 76 347 228 273 439 245 504 
64 9 60 595 511 452 40 322 114 181 300 
65 9 144 115 333 272 500 313 125 321 519 
66 9 112 169 534 31 9 21 329 194 295 
67 9 521 193 2 263 290 582 253 330 383 
68 9 369 46 221 545 128 229 102 532 42 
69 9 450 344 161 167 448 94 563 463 14 
70 9 495 336 485 40 452 146 440 462 488 
71 9 151 175 320 438 473 532 543 454 195 
72 3 538 203 414 
73 9 479 52 437 265 591 236 116 340 134 
74 9 393 579 528 45 298 289 41 496 319 
75 9 216 514 489 571 423 499 220 597 26 
76 9 228 311 273 504 275 63 141 357 8 
77 9 469 527 510 318 490 501 88 306 334 
78 9 244 281 513 49 127 206 484 103 542 
79 9 361 155 20 35 254 428 359 132 149 
80 9 7 199 475 3 433 55 293 557 533 
81 9 276 352 444 540 5 523 165 303 309 
82 9 431 246 27 172 544 454 283 438 460 
83 9 315 327 259 528 174 579 292 189 478 
84 9 249 268 351 271 138 550 555 208 17 
85 9 391 241 376 223 525 215 566 377 348 
86 9 586 59 407 198 163 153 87 598 180 
87 9 198 153 180 587 407 586 548 59 86 
88 9 48 235 490 469 306 527 90 77 539 
89 9 242 321 581 425 115 122 65 333 144 
90 9 539 48 445 529 88 235 527 469 353 
91 9 449 406 343 132 439 359 508 314 108 
92 9 592 131 385 548 571 180 368 583 216 
93 6 233 498 524 442 570 447 
94 9 464 467 69 38 167 563 450 575 344 
95 9 250 535 350 346 231 61 399 205 265 
96 9 326 443 214 191 287 173 428 149 294 
97 9 387 468 530 22 111 540 303 580 143 
98 9 118 345 29 13 251 451 568 187 341 
99 9 389 130 506 119 381 339 261 578 101 
100 8 338 418 319 573 408 259 298 292 
101 8 305 339 411 559 456 312 480 366 
102 9 545 128 337 424 494 483 195 68 473 
103 9 206 49 282 281 455 513 78 247 258 
104 9 589 441 598 288 192 522 18 583 548 
105 9 429 212 324 217 113 243 395 201 394 
106 9 519 313 482 120 274 500 593 333 272 
107 8 47 430 516 562 296 461 502 225 
108 9 347 365 439 224 357 63 311 273 228 
109 8 204 558 12 417 574 110 353 373 
110 9 417 396 12 204 435 109 558 225 371 
111 9 530 580 387 97 422 303 468 540 239 
112 9 66 169 534 31 9 21 329 194 266 
113 9 158 324 201 212 429 105 164 317 349 
114 9 549 300 32 322 127 511 542 50 513 
115 9 333 144 65 313 272 500 425 120 106 
116 9 185 386 139 299 340 458 52 265 437 
117 9 466 39 536 226 520 392 62 205 346 
118 9 98 13 29 345 251 187 568 451 341 
119 8 389 506 99 130 339 101 366 14 
120 9 313 279 274 106 122 425 55 333 476 
121 9 556 134 218 537 236 248 551 421 210 
122 9 425 476 279 242 581 120 313 89 115 
123 9 50 358 542 209 150 32 286 484 114 
124 9 552 454 460 227 56 375 544 171 349 
125 9 584 419 65 321 144 115 272 256 333 
126 8 363 133 397 278 230 269 367 234 
127 9 32 513 542 549 49 114 300 78 50 
128 9 545 102 424 195 337 473 221 46 483 
129 9 15 356 487 572 186 189 377 577 188 
130 9 99 381 389 578 339 506 119 261 148 
131 9 92 445 592 423 514 571 216 385 235 
132 9 359 343 20 449 91 508 406 254 79 
133 8 363 397 126 269 230 54 362 267 
134 9 121 556 218 421 236 537 73 479 248 
135 8 388 41 319 298 45 418 573 496 
136 8 16 6 219 401 53 413 183 262 
137 8 383 483 337 424 543 24 202 195 
138 9 268 304 351 10 249 84 17 531 190 
139 9 386 458 185 340 116 184 145 168 299 
140 9 494 102 545 24 364 337 128 424 297 
141 9 275 8 504 526 202 273 76 228 364 
142 9 332 291 392 264 156 160 4 168 184 
143 9 553 22 468 97 197 341 387 309 530 
144 9 272 333 65 115 500 313 519 106 120 
145 9 168 184 25 458 139 219 386 340 6 
146 8 336 271 70 555 488 495 485 181 
147 8 308 43 30 596 374 181 279 476 
148 9 578 266 381 187 13 130 31 118 534 
149 9 35 214 173 378 326 155 96 428 443 
150 9 484 358 123 244 50 542 78 286 428 
151 9 175 71 320 532 473 46 221 543 438 
152 8 566 394 515 51 217 412 223 243 
153 9 407 87 59 198 586 163 86 587 180 
154 9 316 207 329 194 21 295 66 112 9 
155 9 35 20 79 254 378 149 361 428 359 
156 9 160 4 585 332 44 291 142 264 497 
157 9 302 590 42 561 213 229 68 297 494 
158 9 113 328 201 324 402 172 349 164 27 
159 8 255 14 448 463 161 344 379 450 
160 9 156 4 585 332 44 291 264 142 497 
161 9 448 344 159 255 493 379 463 14 69 
162 8 459 174 267 280 211 83 289 579 
163 9 59 407 586 86 153 198 87 325 587 
164 9 349 460 201 317 544 172 113 243 27 
165 9 342 5 444 81 303 276 352 540 402 
166 7 434 582 334 427 477 330 34 
167 9 450 14 69 463 94 255 159 161 448 
168 9 145 184 25 458 139 219 386 340 6 
169 9 534 31 66 112 9 266 21 416 426 
170 9 28 286 358 361 150 370 123 209 50 
171 8 432 227 179 375 124 151 552 71 
172 9 544 27 349 82 460 164 246 328 158 
173 9 214 326 149 96 443 378 35 428 191 
174 9 280 211 162 289 579 83 459 267 74 
175 9 320 151 71 532 473 221 46 543 195 
176 9 575 551 563 38 121 537 134 556 218 
177 8 354 486 289 211 280 579 174 74 
178 8 323 33 23 379 238 366 400 312 
179 9 375 227 415 432 569 56 457 171 552 
180 9 548 288 592 368 87 92 385 598 198 
181 9 488 481 30 308 596 147 43 64 374 
182 9 410 512 229 491 369 68 42 46 221 
183 6 413 401 25 44 136 219 
184 9 145 168 25 458 139 386 340 185 219 
185 9 386 116 139 299 458 340 184 145 168 
186 9 478 292 565 408 487 129 577 259 327 
187 9 13 266 148 118 251 568 578 29 98 
188 9 257 572 384 62 576 356 377 200 215 
189 9 129 315 15 226 327 478 186 356 487 
190 9 398 10 256 419 17 321 584 125 208 
191 9 287 428 281 96 294 484 244 78 443 
192 9 18 583 441 371 505 104 92 288 502 
193 9 2 521 67 582 290 330 166 34 253 
194 9 329 21 9 66 426 112 169 154 207 
195 8 473 424 483 543 128 337 175 320 
196 7 58 380 497 525 382 241 384 
197 9 143 387 553 97 530 22 111 468 568 
198 9 87 153 586 86 180 407 598 59 288 
199 9 7 80 55 557 3 293 475 433 274 
200 9 382 576 384 257 264 291 62 188 58 
201 9 317 164 212 243 349 113 324 460 105 
202 9 526 364 24 8 141 137 582 275 2 
203 7 414 372 440 462 240 11 495 
204 8 109 558 12 417 529 574 396 110 
205 9 346 299 535 350 116 95 185 392 536 
206 9 103 49 282 513 281 78 455 270 247 
207 9 295 329 21 154 194 66 112 316 169 
208 8 555 17 581 89 10 242 321 190 
209 9 286 123 560 50 358 370 114 60 542 
210 9 53 248 567 16 136 262 401 537 236 
211 9 280 174 289 579 162 177 74 83 354 
212 9 324 105 429 243 201 113 217 317 394 
213 8 561 590 302 157 42 229 410 182 
214 9 326 173 96 149 443 428 191 35 287 
215 9 377 577 356 487 572 188 257 384 15 
216 9 75 514 571 423 385 499 131 489 436 
217 9 243 394 212 105 317 429 324 201 113 
218 9 556 236 121 537 248 134 210 16 567 
219 9 6 136 145 458 16 25 168 340 184 
220 5 597 489 471 26 75 
221 9 46 532 320 473 175 128 68 151 369 
222 9 19 594 492 37 395 402 276 429 444 
223 9 376 391 241 85 525 566 380 51 196 
224 9 439 63 347 314 277 108 311 245 76 
225 8 435 502 505 110 18 371 396 417 
226 9 117 520 466 39 362 189 536 129 15 
227 9 375 179 56 415 432 569 457 171 552 
228 9 311 273 76 504 275 63 357 141 347 
229 9 182 369 512 410 42 68 491 46 221 
230 9 234 269 367 61 399 231 520 39 350 
231 9 399 61 95 350 250 346 367 535 234 
232 7 335 443 258 247 294 472 96 
233 7 93 524 498 442 570 474 447 
234 9 230 269 367 61 399 231 39 350 520 
235 9 88 423 48 445 490 90 306 469 514 
236 9 218 556 248 537 121 134 210 16 6 
237 8 307 310 390 284 36 503 404 297 
238 6 312 456 23 366 178 411 
239 6 373 422 574 580 111 518 
240 7 440 495 560 485 40 370 70 
241 9 376 391 85 223 525 196 380 58 215 
242 9 89 581 425 122 321 115 476 65 313 
243 9 317 217 212 201 324 105 429 164 113 
244 9 78 484 281 513 542 127 150 49 50 
245 9 277 503 63 224 36 314 439 76 297 
246 9 82 283 431 27 172 544 263 328 454 
247 8 258 335 472 252 455 103 294 206 
248 9 537 210 567 218 236 53 556 16 551 
249 9 84 268 351 138 271 17 555 208 550 
250 9 95 535 231 350 265 346 470 61 399 
251 9 568 13 118 98 187 197 345 143 29 
252 9 472 3 533 455 247 293 541 475 258 
253 6 290 588 330 34 521 507 
254 9 20 155 35 378 79 359 132 508 149 
255 8 159 463 14 448 161 450 344 379 
256 9 398 419 190 584 125 10 321 17 89 
257 9 384 188 200 576 572 382 377 62 215 
258 8 247 335 294 252 472 103 455 206 
259 9 292 327 408 338 478 186 528 100 315 
260 9 554 517 57 453 51 474 37 395 524 
261 9 99 130 506 389 465 381 578 112 148 
262 3 401 285 53 
263 8 67 283 521 246 383 431 2 193 
264 9 291 576 200 332 62 142 160 382 156 
265 9 52 437 73 535 116 250 479 95 185 
266 9 148 187 578 31 534 13 381 169 112 
267 8 459 162 54 397 174 280 83 211 
268 9 138 351 304 249 84 10 17 550 190 
269 9 230 234 367 520 61 399 39 231 350 
270 8 282 49 374 103 206 455 557 293 
271 8 146 336 555 84 249 70 462 208 
272 9 500 144 333 65 115 519 313 106 482 
273 9 228 311 76 504 275 357 63 141 365 
274 9 55 120 106 199 593 7 80 279 360 
275 9 504 141 273 8 228 76 311 357 526 
276 7 81 352 444 523 309 540 5 
277 9 314 245 224 439 343 36 63 406 449 
278 9 509 470 367 591 231 250 399 61 230 
279 9 476 120 122 43 274 30 425 308 55 
280 9 211 174 289 579 162 177 83 74 459 
281 9 78 294 244 103 206 287 49 513 191 
282 9 270 455 293 557 103 206 49 3 252 
283 7 246 27 263 328 82 431 172 
284 9 36 390 277 503 245 404 314 237 307 
285 4 262 446 400 33 
286 9 170 358 209 123 370 28 560 50 150 
287 9 191 281 294 96 428 244 78 484 443 
288 9 598 548 180 104 92 592 198 87 583 
289 9 579 280 211 174 74 177 393 528 354 
290 8 253 330 34 477 521 193 67 588 
291 9 264 332 142 576 160 200 156 392 62 
292 9 259 408 478 186 327 565 338 100 315 
293 9 557 3 455 7 282 80 252 199 475 
294 8 281 258 335 247 287 103 206 78 
295 9 207 21 329 112 66 261 194 154 169 
296 9 516 589 522 104 47 107 441 502 18 
297 9 503 140 494 245 157 302 42 590 102 
298 9 41 319 45 135 388 393 418 74 100 
299 9 185 116 386 139 205 184 142 458 145 
300 8 322 549 114 32 511 127 513 49 
301 6 451 523 19 222 276 309 
302 9 157 590 42 561 213 229 68 297 494 
303 9 540 5 422 580 97 111 530 387 468 
304 9 138 351 268 10 190 398 17 531 249 
305 7 411 559 101 480 456 312 339 
306 7 490 510 88 235 77 469 48 
307 8 237 310 390 284 36 503 404 297 
308 9 30 43 147 596 374 181 476 481 279 
309 7 341 523 22 553 468 352 451 
310 8 307 237 390 284 503 36 297 590 
311 9 228 273 76 504 63 275 357 347 141 
312 7 456 238 411 366 305 23 559 
313 9 333 115 120 106 500 144 272 519 65 
314 9 277 439 343 224 406 449 245 63 91 
315 9 327 83 189 259 478 292 186 408 129 
316 9 154 194 207 329 21 295 66 430 112 
317 9 243 201 212 164 217 324 349 460 105 
318 7 501 353 527 469 77 48 539 
319 9 298 41 135 418 573 388 100 45 338 
320 9 175 532 151 473 46 221 71 195 543 
321 9 89 242 65 581 115 425 125 419 144 
322 8 300 511 114 549 32 127 374 60 
323 8 379 178 33 400 23 493 285 238 
324 9 212 105 429 113 201 243 317 217 158 
325 9 355 163 508 59 407 254 378 586 153 
326 9 96 214 443 173 149 191 287 428 232 
327 9 315 259 292 478 186 83 408 528 338 
328 8 158 27 283 172 402 246 113 544 
329 9 21 207 295 194 66 112 154 169 9 
330 9 34 477 290 166 253 334 193 2 427 
331 9 531 304 138 268 351 10 398 190 256 
332 9 156 160 291 4 142 264 585 44 25 
333 9 115 144 272 500 313 65 519 106 120 
334 7 427 166 477 434 34 510 330 
335 8 258 247 294 472 252 455 103 206 
336 8 70 146 495 485 271 462 452 40 
337 8 424 483 102 128 195 545 473 543 
338 9 100 408 259 528 319 418 292 298 573 
339 9 101 305 130 381 99 411 389 559 119 
340 9 458 139 386 184 185 145 219 6 116 
341 7 309 553 451 523 22 143 468 
342 7 165 5 402 444 81 588 507 
343 9 449 406 314 91 132 277 359 439 224 
344 9 161 448 493 547 159 69 255 379 450 
345 7 98 118 29 451 13 251 341 
346 9 350 535 95 205 231 250 61 399 299 
347 9 108 224 63 439 365 311 228 273 76 
348 7 566 577 565 85 215 377 391 
349 9 164 460 201 172 544 317 27 113 158 
350 9 346 95 231 535 61 399 205 250 39 
351 9 138 268 304 10 17 249 84 190 208 
352 9 81 276 444 523 309 540 5 22 303 
353 7 318 501 527 469 48 539 77 
354 7 177 486 289 211 280 579 74 
355 9 325 163 59 378 508 407 254 586 86 
356 9 487 572 15 377 215 129 188 577 257 
357 9 273 365 228 275 311 471 26 76 504 
358 9 150 286 123 170 50 209 484 28 361 
359 9 132 20 508 91 343 254 449 406 79 
360 8 593 564 433 482 55 475 80 274 
361 9 79 170 28 358 150 155 428 20 35 
362 9 54 520 226 189 117 39 397 269 466 
363 8 133 126 397 269 230 234 367 54 
364 9 24 202 8 526 141 137 337 140 483 
365 9 108 357 347 273 26 311 228 471 76 
366 8 456 238 312 178 323 23 101 379 
367 9 230 234 61 399 231 269 350 95 470 
368 9 385 587 571 592 180 436 499 92 216 
369 9 229 68 46 512 221 491 182 532 410 
370 8 560 286 209 170 28 358 123 50 
371 9 18 505 192 583 396 441 502 435 529 
372 8 414 203 11 462 440 70 495 271 
373 7 574 239 111 580 422 530 387 
374 8 596 147 270 308 43 30 322 511 
375 9 227 179 56 415 569 432 457 171 552 
376 9 391 241 223 85 525 380 196 566 58 
377 9 215 572 356 487 577 188 257 384 15 
378 9 149 35 155 254 173 214 20 79 326 
379 8 323 178 493 33 159 448 161 285 
380 5 196 58 525 497 241 
381 9 578 130 148 99 339 389 266 187 261 
382 9 200 384 58 257 576 196 497 264 291 
383 8 137 263 438 543 483 67 431 195 
384 9 257 200 382 188 576 377 572 62 58 
385 9 571 592 368 92 216 131 180 548 587 
386 9 139 185 458 340 116 184 299 145 168 
387 9 97 530 111 468 580 22 143 540 303 
388 8 135 41 319 298 45 418 573 410 
389 9 99 506 130 119 339 381 101 261 578 
390 9 284 36 237 307 404 503 310 245 277 
391 9 376 241 85 223 525 380 196 58 566 
392 9 142 291 536 264 332 62 299 466 576 
393 9 74 45 298 496 41 528 319 579 135 
394 9 217 105 395 429 212 243 324 152 37 
395 9 37 429 105 394 453 212 324 217 222 
396 9 110 417 12 371 204 529 558 109 505 
397 9 54 362 267 459 520 269 133 162 226 
398 9 256 190 419 584 10 125 17 304 321 
399 9 61 231 350 95 234 367 346 250 535 
400 5 33 446 285 323 447 
401 6 413 262 136 183 16 53 
402 8 492 342 158 328 113 165 594 19 
403 9 546 405 568 461 110 417 416 197 251 
404 6 390 284 36 237 307 310 
405 8 461 416 409 546 403 562 426 9 
406 9 449 91 343 439 314 108 224 347 277 
407 9 59 153 163 586 86 198 87 587 180 
408 8 292 565 259 338 478 100 186 327 
409 8 562 426 416 461 405 9 430 534 
410 8 182 512 491 229 369 388 42 68 
411 7 305 559 480 101 312 456 420 
412 9 515 457 569 56 415 243 217 317 375 
413 6 183 401 25 136 219 44 
414 7 203 372 462 440 11 240 495 
415 8 569 179 375 457 56 227 412 432 
416 9 405 409 9 461 426 562 31 534 169 
417 9 110 204 109 12 558 396 529 574 546 
418 7 573 319 100 135 41 298 338 
419 9 584 125 256 190 398 321 65 89 10 
420 7 480 559 570 411 305 57 474 
421 9 134 591 121 479 556 73 218 236 52 
422 7 580 111 239 530 303 387 540 
423 9 514 235 216 75 131 88 445 306 490 
424 8 337 483 195 128 102 473 545 543 
425 9 122 242 581 476 89 115 120 313 279 
426 8 409 562 9 416 430 461 194 405 
427 6 334 434 166 510 477 34 
428 9 191 287 96 484 150 214 244 326 35 
429 9 105 324 212 113 217 395 243 201 394 
430 8 562 426 107 409 47 461 194 9 
431 9 82 246 27 283 172 438 454 544 263 
432 7 179 227 375 171 415 569 56 
433 9 475 80 3 533 360 541 7 55 199 
434 6 166 427 334 582 477 34 
435 8 225 502 505 110 396 371 18 417 
436 9 499 26 75 368 216 571 587 385 471 
437 9 52 265 73 116 479 340 139 185 535 
438 8 543 71 431 175 473 195 82 151 
439 9 224 347 63 314 406 108 277 449 91 
440 9 462 495 70 240 485 336 40 414 452 
441 9 18 192 104 583 505 371 502 288 589 
442 6 447 498 93 233 524 23 
443 8 326 96 214 173 232 287 191 294 
444 9 81 276 352 5 165 540 303 342 523 
445 9 90 235 131 539 48 88 423 529 514 
446 3 400 285 33 
447 3 442 498 93 
448 9 161 344 159 255 493 379 463 14 69 
449 9 406 91 343 314 439 132 359 224 277 
450 9 167 14 463 69 255 159 161 448 344 
451 6 341 309 523 553 345 22 
452 9 40 485 595 64 60 495 70 488 511 
453 9 517 260 57 37 51 395 554 222 394 
454 9 124 552 82 544 460 172 431 27 71 
455 9 293 282 252 557 247 3 472 103 206 
456 7 312 238 366 411 305 101 559 
457 9 56 569 415 412 375 227 179 552 515 
458 9 340 139 386 184 145 185 168 219 6 
459 8 267 162 174 54 280 211 83 397 
460 9 164 349 544 172 201 552 317 27 124 
461 8 405 562 409 416 426 546 403 9 
462 9 440 70 495 336 372 485 146 414 271 
463 8 14 255 159 450 161 448 167 119 
464 9 467 94 38 563 69 167 450 575 176 
465 9 506 599 261 389 99 119 130 167 14 
466 9 536 117 39 392 226 62 205 520 264 
467 9 464 94 167 38 69 450 599 563 14 
468 9 22 97 387 143 553 540 309 530 111 
469 9 527 48 77 88 318 490 353 501 90 
470 9 250 231 95 399 61 479 591 265 367 
471 7 26 597 489 220 357 75 499 
472 9 252 533 247 541 3 455 258 293 335 
473 8 195 320 175 532 543 221 46 128 
474 9 554 260 233 524 57 93 517 570 498 
475 9 433 3 80 533 7 541 55 199 252 
476 9 122 279 425 30 43 481 120 308 147 
477 8 34 330 334 166 427 290 434 582 
478 8 186 292 408 327 565 259 129 487 
479 9 73 52 591 437 265 250 421 470 134 
480 7 559 305 411 420 101 312 570 
481 9 181 488 30 476 308 43 147 122 596 
482 8 593 519 106 360 564 274 55 500 
483 8 424 337 195 128 543 102 473 137 
484 9 244 150 78 281 542 50 191 123 287 
485 9 40 495 452 70 336 595 64 60 440 
486 6 354 177 289 496 211 74 
487 9 356 15 577 215 377 572 129 188 186 
488 8 181 481 30 308 596 147 43 64 
489 6 597 220 471 26 75 216 
490 7 306 88 510 235 469 77 48 
491 9 512 182 410 369 229 46 221 532 151 
492 9 222 19 402 594 113 429 37 105 158 
493 9 547 379 161 344 448 285 323 567 33 
494 9 140 102 545 128 68 337 424 483 24 
495 9 70 485 336 40 440 452 462 240 146 
496 9 45 41 393 298 135 388 74 319 410 
497 7 58 196 380 382 156 160 585 
498 5 524 233 93 442 447 
499 9 436 26 75 216 471 571 368 489 597 
500 9 272 333 144 519 313 115 106 65 482 
501 7 318 353 527 77 469 518 48 
502 9 225 435 505 18 371 441 192 110 396 
503 9 297 245 36 284 140 277 390 63 494 
504 9 275 141 76 228 273 8 311 357 364 
505 9 18 371 502 225 192 435 441 396 583 
506 9 389 99 119 130 465 261 339 381 14 
507 6 588 422 5 518 253 303 
508 9 359 132 91 254 449 20 406 343 325 
509 9 278 470 591 421 479 367 250 231 73 
510 5 306 427 490 77 334 
511 8 322 300 114 549 60 64 374 32 
512 9 182 410 491 229 369 46 68 221 532 
513 9 49 127 32 542 78 549 206 103 300 
514 9 423 216 75 571 131 235 385 489 445 
515 8 412 152 457 569 415 56 217 243 
516 9 296 589 47 107 522 104 502 441 225 
517 9 57 260 554 453 51 474 37 395 301 
518 5 239 501 507 318 34 
519 9 106 500 482 272 313 333 593 144 120 
520 9 39 117 226 362 269 466 234 536 230 
521 8 67 193 2 263 290 253 330 582 
522 9 589 104 296 598 288 516 441 86 198 
523 6 309 341 276 352 22 81 
524 6 233 498 93 442 474 447 
525 9 241 391 376 196 85 380 58 223 382 
526 9 202 364 24 8 141 137 582 275 2 
527 9 469 48 318 353 77 88 501 539 90 
528 9 338 74 259 298 393 100 579 319 327 
529 9 539 90 12 48 558 353 445 204 396 
530 9 111 387 580 97 422 468 303 540 22 
531 9 331 304 138 268 351 398 10 256 190 
532 9 320 46 221 175 151 473 71 128 195 
533 8 541 472 475 252 433 3 80 293 
534 9 31 169 66 112 9 266 416 148 426 
535 9 95 346 250 350 205 265 116 299 52 
536 9 466 117 392 39 205 62 142 264 291 
537 9 248 218 121 556 551 567 236 210 134 
538 4 486 354 177 72 
539 9 90 48 529 527 445 88 353 469 235 
540 9 303 5 97 468 81 352 387 530 580 
541 7 533 433 472 475 252 3 564 
542 9 32 127 50 513 549 114 49 78 123 
543 8 195 438 473 175 483 71 424 320 
544 9 172 27 460 349 82 164 454 246 431 
545 9 102 128 68 337 424 494 221 46 195 
546 8 403 405 461 110 417 416 568 435 
547 9 567 493 344 161 210 448 248 551 53 
548 9 180 288 92 592 598 385 368 87 198 
549 9 32 114 300 127 322 542 513 49 511 
550 9 84 249 268 138 11 351 271 304 10 
551 9 575 537 248 567 547 563 176 121 218 
552 9 124 454 460 56 227 164 349 375 544 
553 9 143 22 341 309 468 97 523 387 451 
554 9 260 517 57 474 51 453 524 37 233 
555 8 208 17 581 146 242 89 271 481 
556 9 218 121 236 134 537 248 210 73 421 
557 9 293 3 7 455 199 282 80 252 270 
558 8 12 204 109 417 529 353 574 396 
559 7 305 411 480 101 420 312 456 
560 8 370 209 286 595 60 123 170 240 
561 9 213 590 302 157 42 229 182 410 512 
562 8 409 461 426 405 416 430 9 107 
563 9 575 551 69 38 176 94 344 547 161 
564 8 360 593 482 433 541 475 533 55 
565 7 408 292 186 478 348 259 100 
566 7 348 152 85 223 376 391 515 
567 9 547 210 248 53 537 493 551 16 262 
568 9 251 197 13 118 143 187 98 553 345 
569 9 415 457 56 375 179 227 412 432 515 
570 7 93 233 420 524 474 498 23 
571 9 385 216 592 368 75 514 92 131 423 
572 9 356 188 377 215 257 15 487 384 129 
573 7 418 319 100 135 388 432 41 
574 6 373 239 109 204 558 580 
575 9 563 551 176 537 547 38 69 344 567 
576 9 200 62 264 257 384 188 291 382 332 
577 8 215 487 377 356 348 572 15 186 
578 9 381 148 130 266 187 99 339 13 389 
579 9 289 74 280 211 528 174 393 83 298 
580 9 111 422 530 387 303 97 239 540 373 
581 9 242 89 425 122 476 321 481 279 115 
582 7 166 434 2 193 334 477 330 
583 9 192 371 18 441 92 131 505 445 592 
584 9 419 125 256 398 190 65 321 144 272 
585 9 4 44 156 160 332 25 497 183 168 
586 9 86 59 407 163 198 153 87 598 180 
587 9 368 87 385 180 436 499 571 548 153 
588 6 507 253 290 5 165 342 
589 9 522 104 296 441 516 598 18 288 192 
590 9 302 157 561 213 42 229 182 68 410 
591 9 479 421 73 470 52 437 134 265 250 
592 9 92 385 571 131 548 180 368 216 514 
593 8 482 360 564 106 274 55 519 433 
594 9 19 222 492 444 276 81 402 352 37 
595 9 60 64 452 40 511 114 322 485 300 
596 8 147 374 308 30 43 181 511 322 
597 5 220 489 471 26 75 
598 9 288 548 180 104 198 87 92 592 441 
599 9 465 167 467 506 261 450 295 14 94 
DEPOT_SECTION
   1
   -1
EOF
