NAME :  X-n670-kX-w133-c9.cctp
COMMENT : 	Adapted by Maziero, Usberti and Cavellucci from the Uchoa, Pecin, Pessoa, Poggi, Subramanian, and Vidal (2013)
TYPE :  CCTP
DIMENSION :    628
EDGE_WEIGHT_TYPE : 	EUC_2D	
CAPACITY : 	129
VERTICES_WITHIN_COVERAGE :  9
VERTICES_WITH_DEMAND : 	133
NODE_COORD_SECTION
1 612 199
2 864 279
3 746 395
4 738 519
5 684 851
6 806 263
7 867 314
8 637 357
9 64 531
10 803 657
11 22 330
12 634 731
13 351 945
14 240 812
15 664 595
16 775 1000
17 971 313
18 953 717
19 317 25
20 812 410
21 677 874
22 731 504
23 89 803
24 697 604
25 53 379
26 817 947
27 164 875
28 86 108
29 9 596
30 406 956
31 304 456
32 843 846
33 285 809
34 148 84
35 349 524
36 527 626
37 947 317
38 646 27
39 718 325
40 906 651
41 889 936
42 953 118
43 908 868
44 447 13
45 335 495
46 77 834
47 992 428
48 826 196
49 337 341
50 482 288
51 123 49
52 415 572
53 274 837
54 581 738
55 33 36
56 795 906
57 353 858
58 242 80
59 532 464
60 246 853
61 109 299
62 285 353
63 5 669
64 255 457
65 909 568
66 986 234
67 920 756
68 7 655
69 441 88
70 569 543
71 317 94
72 897 775
73 226 802
74 716 738
75 320 820
76 15 31
77 114 664
78 60 419
79 629 333
80 662 34
81 780 143
82 689 829
83 19 801
84 836 281
85 227 730
86 640 347
87 850 655
88 742 663
89 290 424
90 407 997
91 553 92
92 286 957
93 129 245
94 435 940
95 141 578
96 578 334
97 732 726
98 624 979
99 705 340
100 431 858
101 416 416
102 826 58
103 913 873
104 862 977
105 326 380
106 344 764
107 512 437
108 589 34
109 937 700
110 439 819
111 826 559
112 535 764
113 547 971
114 822 590
115 257 530
116 324 789
117 788 804
118 156 583
119 788 907
120 788 123
121 115 327
122 561 946
123 477 11
124 455 671
125 317 685
126 105 965
127 962 433
128 62 729
129 5 534
130 314 568
131 957 527
132 47 482
133 123 549
134 665 826
135 756 911
136 50 508
137 439 921
138 86 447
139 731 971
140 417 273
141 52 855
142 463 281
143 832 357
144 693 636
145 890 71
146 131 820
147 85 486
148 130 344
149 381 694
150 98 41
151 182 538
152 78 818
153 954 175
154 555 470
155 925 867
156 546 678
157 717 485
158 958 891
159 980 240
160 925 566
161 105 781
162 337 94
163 96 457
164 713 619
165 815 673
166 193 37
167 229 668
168 750 998
169 713 377
170 383 57
171 898 976
172 388 899
173 57 697
174 869 771
175 755 921
176 504 197
177 727 494
178 564 932
179 30 311
180 175 156
181 429 144
182 836 939
183 35 719
184 183 932
185 200 42
186 6 329
187 656 984
188 515 67
189 904 97
190 850 281
191 858 708
192 856 1
193 732 232
194 92 113
195 183 762
196 99 558
197 703 888
198 914 786
199 255 781
200 838 456
201 167 519
202 448 397
203 273 665
204 869 804
205 300 97
206 282 690
207 514 82
208 694 598
209 606 610
210 955 545
211 835 965
212 418 558
213 458 484
214 169 8
215 242 978
216 395 462
217 739 169
218 983 512
219 28 353
220 195 905
221 132 282
222 180 133
223 267 75
224 459 577
225 354 814
226 499 941
227 59 558
228 931 901
229 666 528
230 909 551
231 208 677
232 386 600
233 869 521
234 622 830
235 953 797
236 92 906
237 803 785
238 762 251
239 957 6
240 294 309
241 68 61
242 207 587
243 431 633
244 760 373
245 991 448
246 88 318
247 603 258
248 593 372
249 621 298
250 265 137
251 852 404
252 17 702
253 198 753
254 893 251
255 278 581
256 458 655
257 15 767
258 953 259
259 189 538
260 306 589
261 528 43
262 434 633
263 359 900
264 60 422
265 245 738
266 307 647
267 919 921
268 398 706
269 0 149
270 542 28
271 13 415
272 81 655
273 878 63
274 292 936
275 952 248
276 763 701
277 380 49
278 98 852
279 945 802
280 262 472
281 3 108
282 130 746
283 794 150
284 16 297
285 757 663
286 529 867
287 981 443
288 82 768
289 839 433
290 670 588
291 883 41
292 874 141
293 981 726
294 133 673
295 709 822
296 258 312
297 199 777
298 995 677
299 56 320
300 259 438
301 353 945
302 102 17
303 543 844
304 248 300
305 783 112
306 726 266
307 944 700
308 2 569
309 880 608
310 383 363
311 940 348
312 644 381
313 738 647
314 925 264
315 164 391
316 871 137
317 655 838
318 24 441
319 703 67
320 462 4
321 630 680
322 688 380
323 597 758
324 774 414
325 869 62
326 748 82
327 337 487
328 239 564
329 277 764
330 365 569
331 370 415
332 872 918
333 527 371
334 595 345
335 761 704
336 745 698
337 552 38
338 864 223
339 575 418
340 585 637
341 482 633
342 61 319
343 350 533
344 98 246
345 707 298
346 544 935
347 816 701
348 393 463
349 250 586
350 426 554
351 658 570
352 99 899
353 778 1
354 689 736
355 704 155
356 675 682
357 405 693
358 390 804
359 486 361
360 905 954
361 204 948
362 168 343
363 739 482
364 403 374
365 700 693
366 739 711
367 900 705
368 111 617
369 367 999
370 395 526
371 611 607
372 800 873
373 138 574
374 566 346
375 895 268
376 26 302
377 264 705
378 337 760
379 975 574
380 981 331
381 2 508
382 368 849
383 666 120
384 888 203
385 740 867
386 712 181
387 695 582
388 74 819
389 864 81
390 810 168
391 400 966
392 924 776
393 979 276
394 105 134
395 433 571
396 497 386
397 704 274
398 712 142
399 62 350
400 276 320
401 232 190
402 589 261
403 578 815
404 979 553
405 569 491
406 247 101
407 106 580
408 125 281
409 376 586
410 915 744
411 742 479
412 513 366
413 885 281
414 191 889
415 509 202
416 292 387
417 491 202
418 434 328
419 816 33
420 769 86
421 504 328
422 63 922
423 92 533
424 787 990
425 123 301
426 775 517
427 238 923
428 794 427
429 485 623
430 716 603
431 384 901
432 208 400
433 17 138
434 952 175
435 863 568
436 645 528
437 473 40
438 567 988
439 665 5
440 300 160
441 281 999
442 44 4
443 763 761
444 390 315
445 37 567
446 330 676
447 667 799
448 526 664
449 230 780
450 824 302
451 969 848
452 19 766
453 675 686
454 876 329
455 836 902
456 386 574
457 18 851
458 292 841
459 516 721
460 848 931
461 233 856
462 833 61
463 833 332
464 824 67
465 121 796
466 707 857
467 690 527
468 442 109
469 811 783
470 79 234
471 568 362
472 29 570
473 259 444
474 570 840
475 26 660
476 618 855
477 753 424
478 747 462
479 202 510
480 444 757
481 406 880
482 635 529
483 310 765
484 444 966
485 660 987
486 211 608
487 143 544
488 759 555
489 784 434
490 906 911
491 575 734
492 234 493
493 377 928
494 102 786
495 54 485
496 917 138
497 866 690
498 108 715
499 556 739
500 4 955
501 300 357
502 844 603
503 107 934
504 374 477
505 334 958
506 444 99
507 888 24
508 672 417
509 773 618
510 282 880
511 748 850
512 367 534
513 310 838
514 625 343
515 379 388
516 949 696
517 605 114
518 812 229
519 884 888
520 914 913
521 125 541
522 65 369
523 268 824
524 335 460
525 545 601
526 436 107
527 996 311
528 367 379
529 238 666
530 304 808
531 479 607
532 741 978
533 784 502
534 878 347
535 587 607
536 264 329
537 464 763
538 691 618
539 140 350
540 326 770
541 763 494
542 108 29
543 413 515
544 390 406
545 870 632
546 823 5
547 631 919
548 501 606
549 352 487
550 476 22
551 780 505
552 772 324
553 547 428
554 580 425
555 926 505
556 960 705
557 81 301
558 30 367
559 717 772
560 737 141
561 962 592
562 866 231
563 510 737
564 309 524
565 18 304
566 580 38
567 739 598
568 581 633
569 413 455
570 618 953
571 415 820
572 665 638
573 135 578
574 880 775
575 629 631
576 371 600
577 501 223
578 215 451
579 49 525
580 718 972
581 932 564
582 424 764
583 423 93
584 72 355
585 286 840
586 75 872
587 410 700
588 51 518
589 992 644
590 303 414
591 224 557
592 711 483
593 401 128
594 933 250
595 46 598
596 562 503
597 115 157
598 829 113
599 304 785
600 617 993
601 188 816
602 727 298
603 612 777
604 398 880
605 334 458
606 65 991
607 846 703
608 485 768
609 972 386
610 502 763
611 96 937
612 329 97
613 892 400
614 639 318
615 34 810
616 147 837
617 598 9
618 129 390
619 689 739
620 187 735
621 344 952
622 665 405
623 906 931
624 212 478
625 784 249
626 456 454
627 615 858
628 385 722
DEMAND_SECTION
2 50
3 86
4 94
5 54
6 57
7 52
8 66
9 76
10 69
11 57
12 77
13 94
14 64
15 79
16 91
17 55
18 79
19 68
20 51
21 93
22 91
23 68
24 51
25 93
26 91
27 91
28 59
29 76
30 57
31 96
32 97
33 69
34 83
35 58
36 56
37 81
38 96
39 52
40 86
41 78
42 92
43 67
44 56
45 56
46 51
47 91
48 93
49 73
50 70
51 77
52 91
53 64
54 81
55 76
56 51
57 75
58 81
59 57
60 50
61 80
62 53
63 86
64 61
65 62
66 100
67 94
68 89
69 88
70 52
71 60
72 83
73 79
74 64
75 82
76 72
77 90
78 72
79 51
80 88
81 82
82 78
83 80
84 82
85 98
86 70
87 74
88 61
89 88
90 51
91 60
92 57
93 84
94 65
95 57
96 51
97 77
98 63
99 55
100 53
101 88
102 90
103 89
104 70
105 94
106 50
107 62
108 87
109 56
110 89
111 73
112 88
113 94
114 63
115 90
116 86
117 53
118 70
119 75
120 92
121 94
122 67
123 59
124 94
125 52
126 52
127 71
128 79
129 76
130 87
131 54
132 63
133 92
134 69
COVERAGE_SECTION
2 9 190 413 84 375 7 254 450 562 454 
3 9 244 477 324 169 489 428 322 478 20 
4 9 22 177 541 363 426 157 411 488 551 
5 9 82 21 466 134 317 295 197 447 385 
6 9 625 84 518 450 238 190 2 562 48 
7 9 454 2 534 190 413 463 84 450 375 
8 9 86 514 79 312 614 334 248 322 622 
9 9 579 588 136 227 423 196 445 495 147 
10 9 165 285 347 87 509 276 88 335 607 
11 9 186 179 219 565 376 284 299 558 342 
12 9 323 321 603 54 354 619 491 453 356 
13 9 301 621 505 493 263 391 431 30 369 
14 9 73 523 199 449 60 53 33 461 601 
15 9 290 351 208 24 387 538 572 144 575 
16 9 424 168 532 139 580 26 211 175 182 
17 9 380 37 527 393 311 258 314 275 609 
18 9 556 307 516 109 293 410 67 367 298 
19 9 277 71 223 162 170 612 205 58 406 
20 9 428 289 489 324 251 200 143 477 244 
21 9 5 197 466 317 82 134 295 476 385 
22 9 177 4 363 157 411 592 541 478 426 
23 9 152 494 388 161 46 465 288 146 278 
24 9 208 538 430 164 387 290 144 15 567 
25 9 522 558 399 584 219 78 264 271 11 
26 9 182 211 460 56 119 455 424 104 332 
27 9 414 616 220 184 146 601 352 278 461 
28 9 194 394 241 597 34 150 51 433 542 
29 9 308 472 595 445 68 129 227 475 63 
30 9 391 94 484 493 90 137 301 13 369 
31 9 605 524 89 590 280 327 473 300 64 
32 9 204 372 455 519 43 117 469 237 103 
33 9 530 523 53 585 599 458 75 513 199 
34 9 51 222 194 166 28 150 394 185 542 
35 9 343 512 45 549 327 564 370 330 504 
36 9 525 548 448 429 341 531 568 156 340 
37 9 17 311 380 527 393 314 258 594 275 
38 9 80 439 617 108 566 319 337 383 517 
39 9 99 602 345 169 397 552 306 322 244 
40 9 545 309 367 87 497 109 307 516 191 
41 8 623 360 332 490 267 520 171 460 
42 9 496 189 153 434 145 292 316 273 389 
43 9 103 155 519 228 490 520 267 158 332 
44 9 320 123 550 437 69 277 170 583 261 
45 9 327 549 35 524 605 564 343 504 31 
46 9 388 152 278 23 141 586 615 494 146 
47 9 287 245 127 609 218 311 380 555 613 
48 9 390 518 338 562 283 384 625 6 81 
49 9 501 105 528 310 62 240 444 515 416 
50 9 142 421 418 140 577 359 412 417 415 
51 9 542 150 302 34 241 214 28 166 194 
52 9 212 395 350 456 232 409 224 330 370 
53 9 585 523 458 33 60 513 14 530 510 
54 9 491 499 323 603 12 112 459 156 563 
55 9 76 442 241 150 302 542 281 28 51 
56 9 119 372 135 455 175 26 182 460 385 
57 9 382 263 225 513 75 604 431 172 481 
58 9 406 223 185 205 250 166 71 222 612 
59 8 154 107 553 405 596 554 339 213 
60 9 461 53 523 14 585 510 458 73 33 
61 9 425 408 246 557 121 221 148 342 344 
62 9 501 536 400 416 240 105 296 49 590 
63 9 68 475 252 183 173 29 272 595 128 
64 9 473 280 300 578 492 89 624 31 590 
65 9 160 230 581 435 309 210 561 233 131 
66 8 159 275 258 393 594 153 314 434 
67 9 410 392 72 198 574 18 279 174 235 
68 9 63 475 252 29 173 595 183 272 308 
69 8 506 583 526 468 181 593 437 170 
70 9 596 405 525 535 482 154 209 371 436 
71 9 612 205 162 223 250 440 19 406 58 
72 9 574 198 392 174 67 410 204 279 235 
73 9 14 449 199 297 601 523 461 60 253 
74 9 97 354 619 559 366 365 336 443 335 
75 9 530 513 116 225 458 33 599 585 53 
76 9 55 442 241 281 150 302 542 28 433 
77 9 294 272 368 498 173 128 282 407 475 
78 9 264 138 25 318 271 522 163 558 132 
79 9 514 86 614 8 249 334 312 96 248 
80 9 38 439 319 617 108 566 383 326 517 
81 9 283 120 305 390 560 217 598 420 398 
82 9 295 5 134 466 317 447 21 197 511 
83 9 615 257 452 457 388 152 141 46 23 
84 9 190 450 2 6 7 413 463 518 562 
85 9 265 253 620 377 449 195 297 231 199 
86 9 8 514 79 614 312 334 248 249 322 
87 9 545 497 165 10 607 502 191 40 309 
88 9 285 313 336 276 335 366 365 164 509 
89 9 590 300 31 416 473 64 280 605 105 
90 9 391 369 30 484 94 301 493 13 621 
91 8 207 188 337 261 517 566 270 108 
92 9 274 441 505 215 621 427 13 301 510 
93 9 344 408 221 470 425 61 557 121 246 
94 9 137 484 30 391 493 172 90 226 431 
95 9 373 573 118 133 487 407 521 196 368 
96 9 374 334 471 248 514 79 249 8 86 
97 9 366 74 336 335 276 354 619 365 443 
98 9 600 570 187 485 438 547 122 178 113 
99 9 39 169 345 322 602 244 86 397 3 
100 9 481 110 604 571 172 137 382 431 358 
101 9 544 202 569 364 331 515 216 348 626 
102 9 462 464 419 325 389 273 546 598 291 
103 9 43 155 228 519 490 520 158 267 623 
104 9 211 171 182 460 41 360 26 332 623 
105 9 416 501 49 528 590 62 515 331 89 
106 9 378 540 116 483 599 225 530 628 75 
107 8 59 553 396 154 626 339 333 554 
108 9 566 617 337 270 38 261 91 80 188 
109 9 307 516 18 556 367 410 293 40 67 
110 8 571 100 358 582 537 480 481 608 
111 9 114 435 502 233 426 488 533 551 309 
112 9 499 610 563 459 491 608 54 323 403 
113 9 438 122 346 178 226 570 600 98 547 
114 9 502 111 435 509 309 545 10 87 488 
115 9 328 591 492 564 255 349 280 479 259 
116 9 540 599 483 530 75 106 378 225 33 
117 8 237 469 443 511 32 372 559 385 
118 9 95 373 573 487 133 407 242 151 521 
119 9 56 135 175 372 455 26 182 385 460 
120 9 305 81 283 420 598 390 560 326 217 
121 9 148 425 246 61 539 557 408 221 584 
122 9 178 346 113 438 570 226 98 600 547 
123 9 550 320 437 44 261 270 188 207 337 
124 8 256 262 243 341 587 357 429 268 
125 9 446 206 266 203 377 149 628 378 483 
126 8 611 503 606 236 422 352 184 586 
127 9 287 47 245 609 613 555 218 311 131 
128 9 183 173 288 498 252 452 257 161 282 
129 9 381 308 472 579 445 588 136 9 227 
130 9 260 255 564 343 330 35 512 409 576 
131 9 210 218 404 555 581 160 379 230 65 
132 9 495 136 588 147 579 318 9 138 381 
133 9 521 487 196 373 573 95 407 423 118 
134 9 317 82 447 5 234 295 21 466 476 
135 9 175 119 56 385 197 372 511 139 532 
136 9 588 579 495 132 9 147 381 423 227 
137 9 94 484 30 481 172 604 431 391 493 
138 8 163 264 78 147 495 132 318 136 
139 9 532 580 168 16 175 424 135 485 187 
140 6 142 444 418 50 310 577 
141 9 586 46 457 388 152 278 615 83 23 
142 8 50 140 418 421 577 444 359 417 
143 9 463 534 251 454 7 450 20 552 244 
144 9 538 164 572 24 208 430 313 356 15 
145 9 273 325 389 189 291 507 462 102 464 
146 9 616 465 23 494 278 161 152 46 388 
147 9 163 495 132 138 136 588 423 9 579 
148 9 539 121 362 425 618 246 61 315 584 
149 7 268 357 628 587 446 125 124 
150 9 542 302 51 241 55 442 34 28 194 
151 8 259 201 479 487 591 118 242 95 
152 9 388 46 23 278 494 141 615 161 465 
153 8 434 496 42 66 159 384 275 594 
154 8 59 405 596 553 554 107 339 70 
155 9 103 43 228 158 519 520 451 490 267 
156 8 448 459 36 340 568 499 491 54 
157 9 592 177 363 22 411 478 4 541 467 
158 7 228 155 451 103 267 520 43 
159 8 66 275 258 393 594 314 153 434 
160 9 581 65 230 210 561 131 379 404 555 
161 9 494 465 288 23 282 152 146 388 46 
162 9 612 71 205 170 277 19 593 223 440 
163 7 138 147 264 495 78 132 136 
164 9 430 24 538 144 208 567 313 387 572 
165 9 10 347 87 607 497 191 276 285 335 
166 9 185 214 34 58 51 223 406 542 302 
167 7 529 231 203 377 206 85 486 
168 9 532 16 139 424 580 175 26 135 211 
169 9 322 3 99 244 39 622 508 477 312 
170 9 277 583 162 69 612 19 526 593 506 
171 7 360 104 41 623 267 211 332 
172 9 431 604 481 263 493 57 382 137 301 
173 9 183 128 252 272 475 498 63 68 77 
174 9 574 72 204 198 67 410 392 469 191 
175 9 135 119 56 139 385 532 197 580 372 
176 6 415 417 577 181 142 50 
177 9 22 157 363 592 411 4 541 478 467 
178 9 122 346 113 438 570 226 547 286 98 
179 9 376 565 284 11 299 186 342 219 399 
180 9 222 597 401 394 34 406 250 194 93 
181 6 593 468 526 506 583 69 
182 9 460 26 211 455 332 104 41 56 119 
183 9 252 128 173 452 257 63 475 288 68 
184 9 361 220 414 427 27 215 503 126 611 
185 9 166 214 58 34 223 406 51 222 542 
186 9 11 565 179 219 284 376 558 299 342 
187 9 485 98 600 570 580 547 139 532 438 
188 9 207 261 91 270 337 437 550 123 566 
189 9 145 273 389 496 325 316 42 292 291 
190 9 2 84 450 413 7 375 6 254 562 
191 8 607 497 367 347 87 165 174 410 
192 9 546 507 291 419 325 102 462 273 464 
193 9 306 238 397 386 625 217 602 345 6 
194 9 28 394 597 241 34 51 150 433 542 
195 9 253 297 620 449 85 601 282 73 265 
196 9 407 133 423 521 227 573 373 9 487 
197 9 21 466 5 385 135 511 82 175 295 
198 9 392 72 67 279 574 235 410 174 204 
199 9 449 329 14 73 33 265 523 599 297 
200 9 289 20 428 251 489 533 233 551 324 
201 8 151 259 487 479 521 133 624 373 
202 9 101 396 364 359 626 544 569 418 515 
203 7 206 529 266 377 167 125 446 
204 9 574 174 72 198 32 392 469 237 67 
205 9 71 612 162 223 250 406 58 440 19 
206 9 377 203 125 266 446 529 167 265 85 
207 9 188 91 261 337 437 270 550 506 69 
208 9 24 387 538 430 290 164 15 144 567 
209 8 371 535 575 340 568 15 525 572 
210 9 131 404 581 379 160 218 230 561 555 
211 9 26 182 104 460 424 332 41 455 171 
212 9 350 52 395 456 370 543 224 409 232 
213 9 626 569 543 216 348 107 370 59 350 
214 9 166 185 51 542 302 150 34 58 241 
215 9 441 361 92 427 274 184 220 505 414 
216 9 348 569 504 549 101 331 543 544 524 
217 9 560 386 355 398 81 283 193 120 390 
218 9 131 404 210 555 379 245 287 581 160 
219 9 558 11 186 399 25 522 179 299 584 
220 9 414 184 27 361 427 461 60 616 215 
221 9 408 425 61 93 121 344 557 246 148 
222 9 180 34 597 406 394 401 58 250 194 
223 9 58 406 205 71 250 612 19 162 185 
224 9 395 531 350 52 212 548 429 262 341 
225 9 75 358 382 116 57 513 530 106 540 
226 9 346 113 484 122 137 94 178 286 438 
227 9 445 9 472 579 196 423 588 595 136 
228 8 520 267 490 158 103 155 623 43 
229 9 436 467 482 351 290 387 592 15 157 
230 9 65 160 581 210 435 555 233 131 309 
231 8 167 529 85 620 377 203 486 265 
232 9 576 409 456 330 52 212 395 243 262 
233 9 435 230 111 555 65 160 200 581 114 
234 9 476 627 317 134 403 474 603 447 5 
235 9 279 392 198 67 451 72 410 155 293 
236 8 352 611 503 422 586 278 126 141 
237 8 469 117 443 174 204 32 574 347 
238 9 625 193 306 6 518 602 397 345 552 
239 9 507 291 145 273 192 325 189 42 389 
240 8 400 296 536 62 304 501 49 105 
241 9 150 55 28 542 51 302 194 76 442 
242 8 486 591 328 349 118 259 151 95 
243 9 262 256 124 341 429 531 232 395 52 
244 9 3 324 169 552 477 20 39 99 428 
245 9 287 47 127 218 609 131 555 210 404 
246 9 557 342 61 121 299 425 584 399 148 
247 4 402 249 614 79 
248 8 334 471 374 96 514 8 339 312 
249 8 614 79 247 514 402 86 334 96 
250 9 406 440 205 58 223 401 71 612 162 
251 9 289 20 613 143 200 428 534 463 489 
252 9 183 63 173 475 68 128 452 257 272 
253 9 195 620 297 85 449 265 73 199 601 
254 8 375 413 562 314 2 338 594 384 
255 8 349 260 130 328 115 591 564 242 
256 9 124 262 341 243 429 531 357 548 587 
257 9 452 83 615 183 128 252 288 388 152 
258 8 275 594 314 393 159 66 17 37 
259 8 151 201 479 591 487 242 118 328 
260 8 130 255 349 266 330 564 576 409 
261 9 270 337 188 207 566 91 437 550 123 
262 9 243 256 124 341 429 531 232 224 395 
263 9 431 172 493 57 604 301 13 481 382 
264 9 78 138 318 25 271 163 522 132 495 
265 9 85 377 329 199 449 253 620 297 206 
266 8 446 203 125 206 260 255 377 529 
267 8 520 490 623 228 41 360 332 103 
268 7 587 357 149 628 582 124 480 
269 4 433 281 28 194 
270 9 337 261 566 108 188 617 207 91 550 
271 9 318 78 264 558 25 219 522 132 138 
272 9 77 173 368 294 475 498 595 68 128 
273 9 325 145 291 389 507 189 462 102 464 
274 9 92 505 621 427 510 13 301 441 215 
275 8 258 594 159 314 66 393 254 375 
276 9 335 336 366 285 97 88 347 10 165 
277 9 170 162 583 19 612 69 44 71 506 
278 9 46 586 152 388 141 146 352 23 616 
279 9 235 392 198 67 451 72 410 155 574 
280 9 64 473 300 492 31 624 578 89 115 
281 7 433 269 55 76 241 28 194 
282 9 498 161 494 465 288 195 620 253 23 
283 9 81 390 120 305 598 48 217 560 420 
284 8 565 376 179 11 186 299 342 219 
285 9 88 313 336 276 335 10 509 366 165 
286 9 303 474 346 403 178 226 122 627 476 
287 9 245 47 127 609 218 555 131 613 311 
288 9 161 494 23 128 465 152 388 282 498 
289 9 200 251 20 428 489 613 324 143 477 
290 9 15 351 208 387 24 538 430 572 144 
291 9 507 273 325 145 389 192 462 102 189 
292 9 316 496 189 598 389 384 390 145 48 
293 9 18 556 516 307 109 298 67 410 235 
294 8 77 498 272 368 282 231 173 620 
295 9 82 466 5 134 447 511 559 385 317 
296 6 304 536 400 240 62 501 
297 9 195 253 449 73 601 620 14 85 199 
298 8 589 556 516 293 307 18 109 561 
299 9 342 179 399 557 246 11 376 584 565 
300 9 473 64 89 280 578 31 590 492 416 
301 9 13 621 505 493 263 391 30 431 369 
302 9 542 150 51 241 442 214 55 34 76 
303 9 286 474 403 627 476 112 234 178 346 
304 5 296 536 400 240 62 
305 9 120 420 81 283 326 598 560 464 390 
306 8 397 602 193 345 238 39 625 552 
307 9 516 109 556 18 367 293 410 298 67 
308 9 472 29 129 445 595 227 381 579 588 
309 9 545 502 435 65 40 87 114 160 230 
310 9 364 528 515 544 444 49 331 105 101 
311 9 37 380 17 609 534 454 527 613 7 
312 9 8 622 86 514 322 508 79 248 334 
313 9 88 285 164 509 144 430 567 336 538 
314 8 594 258 375 275 254 413 393 37 
315 7 618 432 362 539 148 578 121 
316 9 292 496 598 189 389 384 390 145 48 
317 9 134 5 234 82 447 476 21 627 466 
318 9 271 264 78 132 495 138 25 381 136 
319 9 326 80 383 420 38 439 398 560 355 
320 9 44 123 550 437 261 188 270 69 207 
321 8 356 453 575 12 572 340 568 365 
322 9 169 622 508 99 312 8 86 3 39 
323 9 603 54 491 499 12 403 112 234 447 
324 9 489 477 428 3 20 244 478 289 169 
325 9 273 389 145 291 462 507 102 464 189 
326 9 420 305 319 120 560 81 398 464 102 
327 9 45 549 524 605 504 35 31 564 343 
328 8 591 349 115 242 255 486 259 151 
329 9 199 483 599 265 33 540 449 530 116 
330 9 409 456 576 512 232 343 35 52 130 
331 9 544 515 528 101 216 348 364 310 105 
332 9 41 460 519 490 623 455 182 520 267 
333 8 412 396 359 471 374 421 553 96 
334 9 96 248 374 514 471 79 8 86 614 
335 9 276 336 366 97 285 88 347 74 443 
336 9 366 335 276 97 88 285 365 74 313 
337 9 270 261 566 108 188 91 617 207 550 
338 8 562 384 254 48 518 375 2 190 
339 7 554 553 248 154 471 59 107 
340 8 568 535 209 371 575 525 156 36 
341 9 429 531 256 548 36 124 262 243 448 
342 9 299 246 557 399 179 584 376 11 565 
343 9 35 512 330 45 564 370 549 327 130 
344 9 470 93 408 221 61 557 425 246 342 
345 9 602 397 39 306 99 552 193 614 238 
346 9 122 178 113 226 438 286 570 547 98 
347 8 165 607 191 10 497 276 335 87 
348 9 216 569 504 549 101 331 543 544 524 
349 8 328 255 591 242 486 115 260 130 
350 9 212 395 52 224 543 370 456 409 232 
351 9 290 15 387 229 436 208 482 24 467 
352 8 236 503 586 611 422 278 141 126 
353 9 546 419 102 192 464 462 420 326 319 
354 9 619 74 97 365 559 453 12 356 366 
355 8 398 386 560 217 383 81 193 326 
356 9 453 365 321 572 144 354 619 12 538 
357 7 587 268 149 628 124 243 256 
358 8 571 225 382 110 582 106 57 100 
359 8 396 412 421 333 202 418 50 107 
360 7 171 623 41 267 520 490 104 
361 9 184 427 220 215 414 92 27 274 441 
362 8 539 148 315 121 618 425 432 221 
363 9 411 177 157 478 22 541 592 4 551 
364 9 310 515 544 528 101 202 331 418 444 
365 9 453 356 366 354 336 97 619 74 88 
366 9 336 97 335 276 74 365 88 285 443 
367 9 109 497 191 410 307 516 18 40 607 
368 9 407 573 77 272 95 373 118 196 294 
369 9 90 391 621 505 13 301 30 493 484 
370 9 543 512 212 350 35 343 456 52 330 
371 8 209 535 575 340 568 15 351 290 
372 9 56 119 455 32 511 135 385 175 117 
373 9 95 573 118 133 487 407 521 196 368 
374 8 471 96 334 248 333 412 514 79 
375 8 413 254 314 2 594 190 562 7 
376 9 565 179 284 11 186 299 342 219 557 
377 9 206 265 203 85 529 167 125 329 231 
378 9 106 540 483 116 599 225 530 329 628 
379 8 404 561 210 581 131 160 218 65 
380 9 17 527 37 311 393 609 258 314 275 
381 9 129 136 579 588 132 495 308 9 472 
382 9 57 225 604 481 358 263 172 431 571 
383 8 398 355 517 319 560 386 80 217 
384 8 338 562 254 48 292 375 594 316 
385 9 511 466 197 135 295 175 5 372 119 
386 8 355 217 398 560 193 383 81 238 
387 9 208 24 290 430 15 538 351 164 567 
388 9 152 46 23 278 615 141 494 161 288 
389 9 325 273 145 462 464 189 102 291 598 
390 9 283 48 81 120 598 518 305 316 292 
391 9 30 90 94 484 493 369 301 13 621 
392 9 198 67 72 279 410 235 574 174 204 
393 9 258 159 17 275 527 66 37 594 314 
394 8 194 597 28 34 180 222 241 51 
395 9 52 350 212 224 456 232 531 370 409 
396 8 412 359 333 202 107 421 553 471 
397 7 306 345 602 193 39 238 99 
398 9 355 560 217 386 383 81 326 319 305 
399 9 584 522 25 299 342 219 558 246 11 
400 8 536 296 240 62 304 501 49 416 
401 6 250 180 440 222 406 58 
402 5 247 249 96 614 79 
403 9 474 303 234 603 476 627 323 112 286 
404 8 379 210 131 218 561 581 160 230 
405 8 596 154 59 70 553 554 339 482 
406 9 58 223 250 205 71 222 185 440 612 
407 9 196 573 373 95 133 368 521 423 118 
408 9 221 425 61 93 344 121 557 246 148 
409 9 576 456 232 330 52 212 512 343 350 
410 9 67 392 72 198 367 18 574 109 174 
411 9 363 478 177 157 541 22 592 4 551 
412 8 333 396 359 421 471 374 107 553 
413 8 375 2 254 190 7 314 84 454 
414 9 220 27 184 461 427 361 60 616 601 
415 6 176 417 577 50 142 181 
416 9 590 501 62 105 89 300 49 536 473 
417 6 176 415 577 142 181 50 
418 9 444 142 364 140 50 310 359 202 421 
419 9 102 546 462 464 353 192 325 291 389 
420 9 326 305 120 81 464 102 560 598 283 
421 9 359 412 50 333 396 142 374 418 471 
422 8 236 611 352 503 586 126 141 500 
423 9 196 9 521 133 227 579 588 147 136 
424 9 16 168 532 26 211 139 182 580 104 
425 9 61 408 221 121 246 557 148 539 93 
426 9 551 533 541 4 488 22 363 411 177 
427 9 361 220 215 184 274 414 92 510 461 
428 9 489 324 20 477 289 200 3 478 251 
429 9 341 531 548 36 256 262 224 243 124 
430 9 164 24 208 567 538 387 144 290 313 
431 9 172 263 604 493 481 57 301 382 13 
432 7 315 578 300 473 362 64 624 
433 5 269 281 28 194 394 
434 8 153 496 42 66 384 159 275 594 
435 9 111 502 309 65 114 233 230 160 545 
436 7 482 229 351 467 290 15 387 
437 9 550 123 44 320 188 261 69 207 506 
438 9 113 122 600 178 98 346 570 226 187 
439 9 38 80 617 319 108 566 326 353 383 
440 7 250 205 71 612 401 162 406 
441 9 92 215 274 505 621 369 427 13 301 
442 9 55 76 302 241 150 542 51 28 281 
443 8 97 237 559 117 74 469 366 335 
444 8 418 310 140 49 364 528 515 142 
445 9 472 227 595 308 29 579 9 129 588 
446 9 125 266 206 149 203 377 628 268 357 
447 9 134 82 317 295 5 234 559 603 619 
448 9 156 36 341 429 459 548 568 340 525 
449 9 73 199 297 14 253 265 85 195 329 
450 9 84 463 190 6 7 2 143 552 454 
451 9 158 155 279 235 103 43 228 198 392 
452 9 257 83 615 183 128 288 252 388 23 
453 9 356 365 321 572 354 144 619 12 74 
454 9 7 534 463 413 2 143 190 450 84 
455 9 460 182 332 56 372 119 26 519 32 
456 9 409 330 232 52 576 212 512 350 395 
457 8 141 615 83 46 586 388 152 278 
458 9 585 53 513 523 33 75 530 510 60 
459 9 563 499 610 112 156 608 448 491 54 
460 9 182 332 455 26 211 41 104 519 623 
461 9 60 14 53 523 414 73 510 585 601 
462 9 102 464 419 325 389 273 598 291 546 
463 9 143 450 7 454 534 84 190 2 552 
464 9 102 462 419 389 325 598 273 420 305 
465 9 494 161 146 23 152 288 616 282 388 
466 9 5 197 82 21 385 295 511 134 317 
467 9 229 436 22 4 592 157 177 351 387 
468 7 526 506 69 583 181 593 437 
469 8 237 117 443 174 204 574 32 347 
470 6 344 93 408 557 61 221 
471 8 374 248 96 334 333 412 339 514 
472 9 445 308 227 29 595 129 579 9 588 
473 9 300 64 280 89 578 31 590 492 624 
474 9 403 303 627 286 476 234 603 112 317 
475 9 68 63 252 173 272 183 595 29 128 
476 9 627 234 317 474 134 403 21 547 5 
477 9 324 3 489 478 428 244 411 363 20 
478 9 411 363 541 157 177 477 592 22 489 
479 8 259 151 624 201 492 591 115 578 
480 7 537 582 608 610 110 587 268 
481 9 604 172 431 100 382 263 137 493 57 
482 8 436 229 351 467 70 290 15 405 
483 9 540 599 378 116 329 106 530 33 75 
484 9 94 30 391 137 90 226 493 369 172 
485 9 187 98 600 570 580 139 547 532 168 
486 7 242 349 328 591 118 167 529 
487 9 521 133 373 95 201 573 151 118 196 
488 9 426 4 567 551 22 533 541 430 509 
489 9 428 324 477 20 478 3 289 200 411 
490 8 520 267 623 228 41 519 332 103 
491 9 54 499 323 112 603 12 459 156 563 
492 8 624 280 479 64 115 578 473 300 
493 9 431 301 13 172 263 30 621 391 505 
494 9 161 23 465 288 152 388 146 282 46 
495 9 132 136 147 588 579 9 138 163 318 
496 9 42 189 292 316 434 153 384 145 389 
497 9 191 607 367 87 347 165 40 545 10 
498 9 282 128 294 77 173 288 161 272 494 
499 9 491 54 112 459 323 563 610 156 603 
500 8 422 606 611 126 236 457 503 586 
501 9 62 416 105 49 400 536 240 590 296 
502 9 114 309 545 435 111 87 10 509 65 
503 8 611 126 236 352 422 586 606 184 
504 9 348 549 216 327 45 524 605 569 35 
505 9 621 13 301 274 92 493 369 263 391 
506 7 468 69 526 583 181 593 437 
507 9 291 192 273 325 145 389 462 546 102 
508 6 622 322 312 169 8 3 
509 9 567 313 285 10 88 114 430 164 488 
510 9 458 585 53 60 513 461 274 523 427 
511 9 385 466 295 372 197 117 135 82 5 
512 9 343 35 370 330 456 549 45 543 409 
513 9 458 75 585 530 53 33 523 57 225 
514 9 79 86 8 614 334 312 248 249 96 
515 9 528 544 310 331 364 101 105 49 202 
516 9 307 109 556 18 293 298 367 410 40 
517 8 91 383 566 108 337 38 207 80 
518 9 625 6 48 338 562 238 84 390 190 
519 9 43 332 490 103 520 155 41 267 623 
520 8 490 267 623 228 41 519 103 332 
521 9 133 487 196 423 373 573 95 407 201 
522 9 25 584 399 558 219 78 299 342 264 
523 9 53 33 585 458 14 60 530 513 199 
524 9 605 327 31 549 45 504 590 331 89 
525 9 36 535 548 568 340 209 70 429 371 
526 7 468 506 583 69 181 593 170 
527 9 17 380 393 37 258 311 159 275 66 
528 9 515 310 544 331 364 105 49 101 444 
529 7 167 231 203 377 206 486 85 
530 9 33 75 599 116 513 458 585 523 53 
531 9 429 548 341 224 36 256 262 243 395 
532 9 139 168 580 16 424 175 135 485 26 
533 9 551 426 541 411 4 363 22 478 177 
534 9 454 7 143 463 613 311 251 413 2 
535 8 209 371 568 340 525 575 36 70 
536 8 400 296 62 304 240 501 416 49 
537 7 480 608 610 582 563 110 459 
538 9 24 144 208 164 430 572 15 387 290 
539 9 148 362 121 618 315 425 61 246 221 
540 9 378 483 106 116 599 530 329 75 225 
541 9 551 533 411 426 363 22 4 177 478 
542 9 302 150 51 241 214 34 442 55 28 
543 9 370 350 212 512 504 213 216 348 52 
544 9 515 331 101 364 528 310 569 216 348 
545 9 309 87 502 40 497 114 435 165 10 
546 9 419 192 353 102 462 464 507 291 325 
547 9 570 98 627 21 476 178 187 485 122 
548 9 531 429 36 341 525 224 448 256 262 
549 9 327 45 504 524 605 35 343 348 512 
550 9 123 437 320 44 261 188 270 207 69 
551 9 533 426 541 4 411 363 22 177 478 
552 9 244 602 39 450 463 143 99 6 345 
553 8 339 554 107 59 154 333 396 405 
554 6 339 553 154 248 59 471 
555 9 131 210 230 218 233 581 160 65 404 
556 9 18 516 307 109 293 298 367 410 67 
557 9 246 342 61 299 425 121 408 179 399 
558 9 219 25 522 399 11 584 186 271 299 
559 9 74 619 354 443 97 295 447 82 366 
560 9 398 217 355 81 386 120 305 283 326 
561 8 379 581 404 160 210 65 589 131 
562 8 338 254 384 375 2 190 48 413 
563 9 459 610 112 608 499 537 491 156 480 
564 9 45 35 343 130 327 115 549 512 255 
565 8 284 376 179 11 186 299 342 219 
566 9 108 337 617 270 261 91 38 188 207 
567 9 430 164 509 24 208 387 488 313 538 
568 8 340 535 209 371 525 575 36 156 
569 9 216 348 101 626 504 213 544 331 543 
570 9 98 547 600 187 485 122 178 438 113 
571 8 110 358 100 382 582 225 481 604 
572 9 144 538 575 15 356 24 208 453 290 
573 9 373 95 118 407 133 487 521 196 368 
574 9 174 72 204 198 67 392 410 469 279 
575 8 371 209 572 340 535 568 321 15 
576 9 232 409 456 330 52 212 130 260 512 
577 6 415 417 176 50 142 402 
578 8 624 64 473 300 492 280 432 479 
579 9 588 9 136 227 495 132 423 445 129 
580 9 139 532 168 485 175 187 16 424 135 
581 9 160 65 230 210 561 379 131 404 555 
582 7 480 537 358 110 571 628 608 
583 8 69 526 506 468 593 181 170 277 
584 9 399 522 25 299 342 246 219 558 121 
585 9 458 53 513 523 33 530 75 510 60 
586 9 141 278 352 46 236 422 388 152 457 
587 7 357 268 149 628 124 256 480 
588 9 579 136 9 495 132 227 423 147 129 
589 8 298 561 516 556 379 307 109 18 
590 9 89 416 105 31 300 473 605 524 501 
591 9 328 242 349 259 115 151 479 486 255 
592 8 157 177 363 22 411 478 4 467 
593 6 181 526 583 468 506 69 
594 8 314 275 258 254 375 159 393 66 
595 9 445 472 29 227 308 407 475 196 272 
596 8 405 154 70 59 553 482 554 107 
597 8 394 194 28 180 222 34 470 93 
598 9 120 305 464 389 316 283 462 292 102 
599 9 116 483 530 540 33 329 75 378 106 
600 9 98 187 570 485 438 113 122 547 178 
601 9 73 297 616 14 195 449 146 461 27 
602 9 345 39 306 397 99 552 238 193 625 
603 9 323 54 12 403 234 491 447 499 134 
604 9 481 172 431 100 382 263 57 493 137 
605 9 524 327 31 549 45 504 590 89 331 
606 8 126 611 422 500 503 236 352 586 
607 8 191 497 347 165 87 367 10 174 
608 8 610 537 563 480 112 459 582 110 
609 9 47 127 311 380 287 245 17 37 527 
610 9 608 563 112 537 459 480 499 582 491 
611 8 503 126 236 422 352 606 586 278 
612 9 162 71 205 223 170 440 277 19 250 
613 9 251 534 289 311 454 143 127 200 20 
614 8 79 249 86 514 8 334 96 312 
615 9 83 388 457 152 452 257 141 46 23 
616 9 146 27 601 465 278 23 414 494 46 
617 9 108 566 38 337 270 439 80 261 91 
618 7 315 539 148 362 121 522 584 
619 9 354 74 559 97 365 453 12 366 356 
620 9 253 195 85 297 265 282 231 449 73 
621 9 13 301 505 493 369 263 274 92 391 
622 6 508 312 322 8 169 86 
623 8 267 41 490 520 360 332 228 171 
624 8 492 578 479 64 280 473 201 300 
625 9 238 6 518 193 306 84 450 48 190 
626 9 213 569 101 202 107 216 348 543 59 
627 9 476 234 317 474 403 134 547 21 5 
628 7 268 149 587 357 582 106 378 
DEPOT_SECTION
   1
   -1
EOF
