NAME :  X-n641-kX-w128-c9.cctp
COMMENT : 	Adapted by Maziero, Usberti and Cavellucci from the Uchoa, Pecin, Pessoa, Poggi, Subramanian, and Vidal (2013)
TYPE :  CCTP
DIMENSION :    503
EDGE_WEIGHT_TYPE : 	EUC_2D	
CAPACITY : 	1381
VERTICES_WITHIN_COVERAGE :  9
VERTICES_WITH_DEMAND : 	128
NODE_COORD_SECTION
1 0 0
2 80 386
3 521 652
4 597 936
5 836 69
6 503 987
7 618 169
8 115 662
9 312 175
10 78 83
11 364 317
12 12 454
13 980 537
14 403 383
15 144 443
16 739 464
17 886 511
18 904 106
19 794 539
20 821 608
21 781 347
22 336 490
23 101 736
24 365 68
25 618 684
26 282 286
27 311 806
28 557 793
29 54 50
30 651 264
31 619 661
32 156 994
33 950 369
34 183 707
35 673 856
36 5 651
37 867 449
38 946 914
39 75 82
40 522 8
41 573 493
42 833 699
43 881 677
44 201 77
45 536 593
46 67 895
47 99 113
48 120 133
49 428 231
50 701 845
51 190 508
52 431 218
53 626 782
54 113 914
55 569 117
56 865 639
57 708 9
58 511 977
59 104 838
60 229 467
61 956 568
62 431 929
63 615 707
64 913 42
65 854 504
66 236 176
67 377 404
68 380 468
69 590 752
70 620 146
71 616 746
72 675 114
73 556 640
74 99 777
75 12 194
76 920 116
77 846 384
78 525 23
79 199 348
80 813 875
81 757 593
82 573 358
83 264 448
84 132 556
85 289 765
86 246 267
87 245 876
88 235 592
89 648 790
90 378 754
91 636 653
92 555 181
93 738 446
94 130 836
95 882 942
96 102 787
97 669 905
98 490 45
99 883 547
100 971 638
101 256 227
102 775 935
103 489 411
104 826 228
105 514 866
106 129 566
107 7 118
108 415 820
109 161 160
110 27 21
111 695 395
112 64 937
113 121 847
114 770 896
115 264 607
116 174 871
117 20 546
118 986 803
119 379 259
120 728 180
121 686 273
122 133 869
123 157 499
124 784 186
125 649 934
126 999 236
127 670 615
128 978 479
129 646 823
130 193 565
131 26 411
132 114 126
133 946 326
134 223 602
135 695 420
136 172 317
137 116 701
138 940 438
139 732 172
140 837 507
141 125 570
142 542 708
143 441 235
144 808 413
145 68 374
146 582 768
147 220 519
148 593 651
149 71 712
150 26 569
151 918 629
152 165 731
153 227 977
154 788 366
155 33 507
156 597 983
157 299 617
158 799 35
159 529 178
160 235 743
161 118 484
162 477 280
163 591 189
164 743 221
165 807 670
166 163 621
167 874 932
168 245 24
169 960 27
170 139 44
171 45 584
172 281 434
173 684 501
174 20 905
175 80 256
176 57 354
177 306 107
178 862 741
179 240 516
180 782 700
181 82 208
182 951 550
183 710 44
184 537 764
185 407 191
186 629 133
187 608 911
188 760 125
189 727 517
190 679 836
191 73 420
192 637 903
193 297 723
194 55 920
195 676 550
196 933 456
197 812 155
198 326 903
199 116 175
200 344 992
201 28 667
202 439 245
203 891 450
204 224 732
205 156 734
206 390 441
207 663 560
208 115 896
209 655 766
210 210 731
211 42 176
212 505 517
213 923 66
214 490 844
215 342 859
216 313 79
217 399 775
218 79 559
219 876 843
220 631 889
221 182 284
222 471 120
223 634 721
224 666 397
225 943 776
226 533 441
227 752 907
228 617 648
229 9 749
230 494 54
231 921 869
232 824 250
233 30 694
234 134 209
235 732 105
236 594 990
237 23 693
238 509 133
239 187 933
240 910 526
241 470 949
242 522 961
243 602 499
244 655 931
245 469 942
246 697 600
247 320 62
248 561 574
249 948 781
250 857 586
251 465 816
252 237 237
253 383 701
254 918 448
255 247 860
256 434 167
257 531 937
258 668 318
259 774 375
260 104 5
261 974 242
262 351 968
263 227 311
264 622 385
265 163 308
266 371 880
267 696 912
268 754 894
269 45 61
270 724 419
271 668 100
272 704 881
273 325 252
274 128 217
275 736 6
276 156 513
277 964 237
278 976 765
279 324 55
280 69 89
281 782 635
282 728 176
283 585 289
284 819 986
285 159 806
286 800 708
287 249 15
288 984 964
289 305 628
290 58 257
291 126 305
292 846 680
293 753 995
294 324 862
295 604 499
296 341 10
297 928 90
298 829 244
299 82 705
300 256 442
301 639 197
302 269 436
303 368 469
304 642 479
305 598 732
306 424 158
307 825 660
308 763 320
309 399 34
310 293 447
311 510 68
312 74 921
313 407 511
314 226 284
315 220 690
316 552 210
317 773 211
318 107 524
319 838 205
320 337 6
321 176 182
322 634 388
323 385 440
324 815 247
325 501 475
326 779 37
327 882 390
328 993 28
329 873 112
330 176 798
331 827 224
332 644 148
333 322 862
334 537 103
335 861 100
336 529 695
337 675 210
338 651 310
339 258 426
340 461 838
341 897 59
342 793 157
343 322 547
344 135 711
345 297 252
346 999 191
347 969 151
348 125 723
349 150 672
350 795 214
351 350 425
352 665 129
353 849 63
354 944 384
355 905 477
356 139 781
357 714 36
358 601 599
359 210 25
360 946 53
361 494 646
362 214 534
363 815 93
364 787 203
365 78 693
366 274 414
367 150 697
368 326 92
369 88 487
370 167 677
371 861 91
372 897 123
373 343 723
374 709 256
375 161 685
376 344 459
377 765 159
378 968 213
379 958 32
380 182 410
381 236 454
382 383 370
383 543 638
384 865 349
385 372 21
386 822 586
387 858 405
388 342 363
389 616 158
390 486 681
391 158 353
392 297 721
393 260 277
394 222 118
395 950 162
396 912 123
397 266 332
398 995 300
399 504 663
400 213 291
401 311 101
402 745 198
403 203 441
404 363 40
405 784 472
406 885 406
407 700 166
408 111 581
409 487 673
410 809 201
411 928 16
412 705 463
413 944 90
414 97 553
415 102 636
416 825 382
417 592 743
418 714 307
419 187 755
420 254 453
421 902 75
422 798 382
423 551 296
424 785 320
425 602 101
426 491 528
427 762 360
428 199 695
429 537 609
430 784 464
431 792 611
432 786 74
433 311 127
434 344 152
435 870 351
436 96 627
437 849 350
438 162 623
439 691 398
440 429 14
441 588 689
442 893 374
443 641 165
444 713 335
445 867 100
446 268 664
447 967 508
448 420 424
449 254 301
450 532 657
451 498 805
452 337 176
453 987 16
454 541 973
455 904 81
456 909 104
457 288 561
458 338 491
459 338 376
460 424 749
461 867 374
462 756 316
463 346 454
464 749 172
465 354 322
466 848 346
467 608 213
468 814 327
469 953 337
470 516 661
471 309 323
472 186 520
473 328 22
474 379 303
475 69 822
476 976 260
477 935 103
478 416 97
479 796 236
480 23 550
481 805 226
482 758 423
483 354 509
484 972 238
485 188 816
486 690 234
487 903 72
488 822 239
489 503 89
490 479 604
491 160 694
492 276 471
493 266 428
494 345 206
495 106 676
496 684 391
497 665 384
498 225 747
499 586 399
500 807 230
501 918 94
502 259 751
503 476 548
DEMAND_SECTION
2 59
3 87
4 98
5 73
6 70
7 64
8 98
9 87
10 99
11 78
12 68
13 99
14 53
15 56
16 66
17 67
18 74
19 86
20 75
21 71
22 87
23 87
24 66
25 71
26 75
27 62
28 78
29 83
30 63
31 95
32 52
33 57
34 58
35 65
36 86
37 85
38 58
39 84
40 92
41 50
42 72
43 76
44 79
45 58
46 100
47 94
48 86
49 70
50 80
51 75
52 86
53 95
54 94
55 79
56 97
57 56
58 88
59 72
60 58
61 64
62 51
63 84
64 71
65 95
66 68
67 75
68 95
69 95
70 63
71 63
72 65
73 88
74 84
75 68
76 67
77 98
78 72
79 61
80 73
81 84
82 65
83 87
84 94
85 90
86 50
87 87
88 96
89 51
90 84
91 93
92 68
93 71
94 74
95 84
96 70
97 52
98 77
99 98
100 77
101 99
102 100
103 62
104 96
105 69
106 74
107 88
108 85
109 59
110 86
111 69
112 53
113 79
114 70
115 53
116 51
117 50
118 70
119 66
120 88
121 76
122 52
123 57
124 57
125 100
126 95
127 51
128 76
129 51
COVERAGE_SECTION
2 9 145 191 176 131 391 15 291 12 369 
3 9 470 450 399 383 361 73 409 336 390 
4 9 187 156 125 192 236 220 244 257 454 
5 8 353 363 371 335 445 158 432 329 
6 9 58 242 454 241 245 257 236 62 156 
7 9 389 70 443 332 163 301 186 467 352 
8 7 495 415 349 137 436 365 367 
9 9 452 434 494 433 177 401 66 101 273 
10 9 39 280 47 269 29 132 48 170 107 
11 8 465 474 388 471 382 119 459 273 
12 9 131 155 191 369 117 2 480 145 161 
13 9 182 447 61 128 240 196 355 17 99 
14 9 382 67 448 206 323 388 459 351 11 
15 9 161 380 123 403 276 369 191 51 2 
16 9 93 412 430 482 405 270 189 135 173 
17 9 240 65 99 355 140 203 37 254 196 
18 8 456 372 501 76 396 455 297 421 
19 9 140 386 81 405 65 189 431 20 430 
20 9 386 431 250 281 307 56 165 81 19 
21 8 154 427 424 259 308 422 468 462 
22 9 458 483 376 463 303 68 343 310 492 
23 9 348 299 137 149 74 344 365 96 205 
24 9 404 279 247 368 309 385 216 473 478 
25 9 31 63 441 91 228 223 148 305 71 
26 9 393 449 345 86 471 397 273 314 263 
27 9 85 294 333 215 502 193 255 90 392 
28 8 146 184 69 451 417 53 305 71 
29 9 269 39 110 10 280 260 47 107 170 
30 9 121 338 486 258 337 374 467 301 283 
31 9 228 91 25 148 441 63 223 358 73 
32 9 239 153 54 208 112 312 116 194 122 
33 6 354 469 133 442 138 327 
34 8 428 491 152 375 367 370 210 205 
35 9 190 50 272 129 97 220 192 267 89 
36 6 201 237 233 171 365 150 
37 8 203 387 355 406 254 65 327 17 
38 9 231 288 95 167 219 118 249 225 80 
39 9 10 280 269 29 47 132 48 170 107 
40 9 78 98 230 311 489 440 334 55 222 
41 8 243 295 226 304 212 325 248 426 
42 9 292 286 165 307 178 180 43 56 281 
43 9 292 56 42 307 151 178 165 286 20 
44 8 394 359 168 170 287 109 48 132 
45 9 429 248 383 73 490 3 450 358 361 
46 9 312 194 112 174 208 54 59 122 113 
47 9 132 48 10 280 39 199 269 29 109 
48 9 132 47 199 109 10 280 39 321 234 
49 9 52 143 202 185 119 256 162 306 474 
50 9 190 35 272 129 267 97 268 89 227 
51 9 472 147 123 276 362 179 60 130 403 
52 9 49 143 202 185 256 306 119 162 494 
53 9 89 209 71 129 146 69 417 305 223 
54 9 208 312 122 46 112 194 113 116 239 
55 9 334 425 70 186 238 389 92 7 489 
56 9 43 292 307 20 151 250 165 42 386 
57 9 275 357 183 326 158 235 271 432 72 
58 9 6 242 454 257 241 245 236 156 62 
59 9 113 94 475 122 96 208 74 285 356 
60 9 381 420 300 403 83 492 179 339 302 
61 9 182 13 447 240 100 151 99 17 128 
62 9 245 241 266 262 6 58 242 340 257 
63 9 25 223 305 441 71 417 31 69 91 
64 7 341 213 411 487 360 421 455 
65 9 140 17 99 37 355 240 203 19 405 
66 9 101 321 394 252 9 109 433 86 345 
67 9 14 351 382 323 206 448 459 388 463 
68 9 303 323 206 376 463 458 22 483 313 
69 9 417 146 305 71 53 63 28 184 223 
70 9 389 186 7 332 443 352 425 163 301 
71 9 305 417 69 223 53 63 146 209 89 
72 9 271 352 332 186 235 407 443 70 389 
73 9 383 450 429 3 148 470 45 399 441 
74 7 96 356 23 475 348 59 94 
75 9 211 181 107 290 175 199 274 47 280 
76 8 396 456 18 477 501 372 297 413 
77 9 416 461 387 437 327 466 384 435 406 
78 9 40 98 230 311 489 334 440 55 425 
79 8 136 391 263 265 400 380 221 314 
80 9 114 268 227 102 219 167 95 231 272 
81 9 431 281 246 19 386 20 189 127 165 
82 9 499 264 423 322 283 226 338 497 103 
83 9 300 420 302 493 172 339 492 310 381 
84 9 106 141 408 414 318 276 218 123 130 
85 6 502 193 392 27 160 498 
86 9 393 314 252 449 26 101 400 263 345 
87 9 255 116 333 294 239 485 198 27 215 
88 6 134 115 130 457 362 157 
89 9 53 209 129 71 190 69 146 223 35 
90 5 217 460 373 253 108 
91 9 31 228 25 148 127 63 441 358 223 
92 9 159 316 163 467 7 389 55 238 70 
93 9 16 270 482 412 430 135 405 111 439 
94 9 113 59 122 285 96 116 356 330 485 
95 9 167 38 284 231 80 219 288 102 114 
96 7 74 356 475 23 59 94 285 
97 9 267 244 192 125 220 272 35 187 50 
98 9 230 311 78 489 40 440 334 222 238 
99 9 240 17 250 65 140 182 386 355 61 
100 9 151 61 182 43 13 56 250 99 278 
101 9 252 86 345 393 66 26 314 273 449 
102 9 227 114 268 293 284 80 267 272 167 
103 9 226 325 448 14 499 82 206 212 323 
104 8 331 488 298 500 481 232 324 319 
105 9 214 340 451 251 257 28 245 241 242 
106 9 141 84 408 414 318 218 276 130 166 
107 9 211 280 269 75 39 10 29 47 110 
108 9 217 340 251 460 266 90 214 215 451 
109 9 321 199 48 234 132 274 394 66 47 
110 9 29 269 39 260 10 280 107 170 47 
111 9 439 496 135 224 497 270 322 444 93 
112 9 194 312 46 54 174 208 122 59 113 
113 9 94 59 122 208 285 116 475 96 54 
114 9 268 227 102 80 272 267 50 293 97 
115 6 88 157 134 289 457 446 
116 9 122 94 485 113 239 208 285 87 330 
117 9 480 150 155 171 218 414 318 369 12 
118 9 278 249 225 231 219 38 178 288 43 
119 9 474 273 49 11 202 494 52 143 465 
120 8 282 139 464 402 407 377 164 317 
121 8 374 30 486 418 258 338 337 444 
122 9 113 208 94 116 59 54 285 46 485 
123 9 276 51 472 161 318 15 84 147 362 
124 9 364 317 410 342 350 377 464 402 197 
125 9 244 192 97 187 220 4 267 156 272 
126 7 261 484 476 277 378 346 398 
127 9 246 91 207 228 195 31 358 148 25 
128 8 447 196 138 13 254 355 182 240 
129 9 89 190 35 53 209 50 220 192 272 
130 9 362 472 134 88 147 51 84 106 166 
131 9 12 191 145 2 176 155 369 161 15 
132 9 48 47 199 10 109 280 39 321 234 
133 2 469 33 
134 6 88 115 130 166 438 362 
135 9 439 111 270 496 224 412 497 93 16 
136 8 265 221 391 79 291 400 263 314 
137 8 344 348 495 299 367 23 8 365 
138 8 196 254 203 355 354 128 406 33 
139 9 282 120 464 402 407 377 164 124 188 
140 9 65 17 19 99 405 37 430 355 240 
141 9 106 84 408 414 218 318 166 436 276 
142 7 336 441 450 470 184 399 3 
143 9 202 49 52 185 162 119 256 306 474 
144 9 422 416 77 154 259 387 482 430 405 
145 9 2 176 191 131 291 391 12 15 369 
146 8 69 417 28 305 71 184 53 63 
147 9 362 179 51 472 60 130 276 123 381 
148 9 228 31 441 73 25 91 383 358 63 
149 6 299 365 23 233 137 495 
150 9 480 117 171 218 155 414 36 408 436 
151 9 56 100 43 61 250 182 292 99 307 
152 6 205 34 419 344 367 491 
153 9 239 32 87 200 116 255 198 262 54 
154 8 259 422 21 427 416 424 468 144 
155 9 117 480 12 369 150 218 318 171 414 
156 9 236 4 454 125 187 242 244 257 58 
157 4 289 115 446 457 
158 9 326 432 5 353 363 275 371 357 183 
159 9 92 316 238 163 55 334 222 467 7 
160 8 498 204 502 210 419 315 85 428 
161 9 369 318 123 276 15 414 84 51 472 
162 9 202 143 49 423 52 119 474 316 283 
163 9 467 7 92 389 316 301 70 443 159 
164 4 402 317 120 282 
165 9 307 42 180 286 292 281 431 20 56 
166 5 438 349 370 8 134 
167 9 95 38 284 231 80 219 102 114 288 
168 6 287 359 44 473 247 279 
169 8 379 453 360 328 411 64 213 413 
170 9 260 44 10 359 39 47 280 29 132 
171 9 150 480 218 117 414 408 436 415 36 
172 8 302 493 310 366 83 339 300 420 
173 8 412 189 304 195 207 16 93 295 
174 9 194 46 112 312 54 208 475 59 113 
175 8 290 181 274 291 234 199 211 75 
176 9 145 2 131 191 291 290 175 391 12 
177 8 401 433 368 216 247 279 434 9 
178 9 42 292 43 286 225 307 165 180 249 
179 9 147 362 60 51 472 492 381 420 457 
180 9 286 165 42 307 281 292 178 431 20 
181 8 199 274 175 211 234 290 75 48 
182 9 61 13 447 240 99 17 128 151 355 
183 9 357 57 275 235 326 271 72 432 158 
184 7 28 146 69 142 451 417 305 
185 9 52 256 306 49 143 202 494 452 119 
186 9 70 332 389 443 352 7 425 72 271 
187 9 4 192 220 125 244 97 156 236 257 
188 9 235 377 342 464 139 432 197 282 120 
189 8 173 16 412 195 19 93 405 207 
190 9 35 50 129 272 89 97 220 209 53 
191 9 2 145 131 176 369 12 15 161 155 
192 9 220 187 97 125 244 4 35 267 272 
193 3 392 85 373 
194 9 112 312 46 174 54 208 122 59 113 
195 8 207 173 246 189 127 304 295 243 
196 8 254 138 355 203 128 447 37 406 
197 4 342 124 410 377 
198 9 294 333 215 266 262 87 255 200 27 
199 9 234 48 274 109 181 132 321 47 211 
200 9 262 198 62 266 153 294 333 215 241 
201 6 237 233 36 365 149 299 
202 9 143 49 52 162 119 185 256 474 306 
203 8 37 254 355 196 406 138 387 17 
204 8 210 498 160 502 315 419 428 34 
205 6 152 344 348 367 419 34 
206 9 323 68 448 303 67 351 463 376 14 
207 8 195 246 127 173 358 189 304 295 
208 9 54 122 46 312 113 59 94 116 112 
209 9 89 53 71 223 129 69 305 417 63 
210 9 204 498 160 419 34 428 315 152 502 
211 9 75 181 107 199 290 47 132 48 175 
212 7 426 325 503 41 248 226 45 
213 8 487 421 455 297 64 360 341 501 
214 9 340 105 251 451 108 28 184 245 257 
215 9 294 333 266 198 27 108 255 87 217 
216 7 247 368 401 279 177 433 24 
217 6 90 460 108 253 373 251 
218 9 414 408 171 318 141 106 84 150 480 
219 9 231 80 167 225 249 95 38 178 118 
220 9 192 187 97 125 244 35 4 129 267 
221 7 265 400 136 314 263 291 79 
222 9 238 489 256 306 478 311 334 230 98 
223 9 63 71 305 25 417 209 69 441 31 
224 9 497 496 439 111 322 135 264 270 412 
225 9 249 278 118 178 219 231 43 42 292 
226 9 325 103 41 499 212 243 82 295 426 
227 9 268 114 102 272 267 80 50 97 293 
228 9 31 91 148 25 441 358 63 73 127 
229 7 237 233 149 201 299 365 23 
230 9 98 311 489 78 40 334 222 440 238 
231 9 38 219 167 95 249 118 225 80 288 
232 4 298 324 488 104 
233 6 237 201 149 365 36 299 
234 8 274 199 321 181 109 175 48 132 
235 9 188 72 432 377 271 183 139 407 464 
236 9 156 4 454 125 242 187 257 58 244 
237 6 233 201 36 149 365 229 
238 9 222 334 489 159 55 311 92 230 256 
239 9 153 116 32 54 87 208 122 255 113 
240 9 17 99 182 355 65 447 61 13 196 
241 9 245 62 6 58 242 257 454 105 214 
242 9 58 454 257 6 241 245 156 236 4 
243 8 295 41 304 173 248 207 195 226 
244 9 125 97 192 267 220 187 4 272 35 
245 9 241 62 58 6 242 257 454 105 214 
246 8 127 207 195 81 91 189 281 228 
247 6 279 216 368 401 473 24 
248 9 45 429 358 73 383 212 41 148 426 
249 9 225 278 118 231 178 219 43 38 42 
250 9 386 20 99 56 431 151 19 17 240 
251 9 340 451 214 108 105 217 460 184 28 
252 9 101 86 393 314 400 66 345 449 26 
253 2 373 90 
254 8 196 138 203 355 37 406 128 327 
255 9 87 116 485 333 294 27 198 239 330 
256 9 306 185 52 222 49 143 478 202 238 
257 9 242 454 58 6 241 245 4 105 156 
258 9 338 418 121 444 30 497 374 496 322 
259 9 154 427 422 21 144 416 482 308 424 
260 9 170 29 110 269 10 39 280 47 359 
261 5 484 277 476 126 378 
262 9 200 198 62 266 215 294 333 241 245 
263 9 400 314 449 397 79 393 86 221 136 
264 9 322 499 497 224 82 496 439 111 338 
265 7 136 221 291 391 400 79 263 
266 9 215 294 198 333 108 62 262 27 340 
267 9 97 272 244 125 227 192 35 268 50 
268 9 227 114 102 272 267 80 50 97 35 
269 9 29 39 280 10 110 107 47 260 132 
270 9 135 93 482 111 439 16 412 496 224 
271 9 72 352 186 332 235 70 425 183 443 
272 9 267 50 35 97 190 268 227 114 244 
273 9 345 494 119 26 393 101 471 474 11 
274 7 234 199 181 321 175 109 290 
275 9 57 357 183 326 158 432 235 271 5 
276 9 123 472 51 161 84 318 106 362 130 
277 5 484 261 378 476 126 
278 9 249 225 118 178 231 100 219 43 151 
279 6 247 216 473 368 404 24 
280 9 39 10 269 47 29 132 48 107 110 
281 9 431 165 20 81 307 386 180 286 292 
282 9 120 139 464 402 407 377 164 124 317 
283 9 423 338 82 30 467 316 258 163 121 
284 9 102 293 95 167 114 227 80 268 267 
285 7 330 485 356 94 113 419 96 
286 9 180 42 165 292 307 178 281 43 56 
287 6 168 359 44 473 247 279 
288 9 38 95 231 167 118 219 284 249 225 
289 3 157 115 446 
290 8 175 181 75 274 211 291 234 176 
291 7 265 136 391 221 175 290 79 
292 9 42 307 43 165 56 286 178 180 20 
293 9 102 284 227 114 267 268 244 125 97 
294 9 333 215 198 266 27 255 87 108 85 
295 8 243 41 304 173 207 248 195 226 
296 7 320 473 385 404 279 247 24 
297 8 501 477 413 456 213 455 76 18 
298 5 232 488 324 104 331 
299 6 149 365 137 23 495 348 
300 9 83 420 302 339 493 381 172 366 492 
301 9 443 7 467 337 389 163 332 70 486 
302 8 493 172 83 300 339 366 420 310 
303 9 68 376 463 323 206 458 22 483 351 
304 8 295 243 173 412 41 135 195 207 
305 9 417 69 71 63 223 146 441 25 53 
306 9 256 185 52 222 478 49 143 434 202 
307 9 165 292 42 56 281 20 286 43 180 
308 6 462 424 21 427 418 468 
309 9 385 404 440 24 296 478 320 473 279 
310 8 172 302 83 492 493 300 366 420 
311 9 230 489 98 334 78 40 222 238 55 
312 9 112 194 46 54 208 174 122 59 113 
313 4 68 483 303 206 
314 8 400 86 263 449 393 221 252 26 
315 5 428 34 204 210 160 
316 9 92 159 163 467 7 389 283 423 238 
317 6 364 350 124 402 164 479 
318 9 414 84 161 369 218 106 141 276 123 
319 2 331 104 
320 7 296 473 385 404 279 247 24 
321 8 109 234 274 66 199 48 394 252 
322 9 264 497 224 499 496 439 111 82 135 
323 9 206 68 303 67 351 448 463 376 14 
324 7 232 488 298 500 104 479 481 
325 7 212 226 426 103 41 503 448 
326 9 158 432 275 5 357 363 183 353 57 
327 8 406 442 461 387 77 435 384 437 
328 8 453 169 379 360 411 413 213 64 
329 7 445 335 371 372 18 456 396 
330 7 285 485 356 419 94 205 152 
331 8 104 488 298 500 319 481 232 324 
332 9 443 186 70 352 389 7 72 301 271 
333 9 294 215 198 266 27 255 87 85 108 
334 9 55 489 238 311 230 425 222 98 159 
335 7 445 371 329 353 5 18 372 
336 7 142 470 450 399 3 390 409 
337 9 486 301 407 443 374 30 120 282 121 
338 9 258 30 121 418 444 283 497 374 264 
339 8 493 302 300 366 83 172 420 381 
340 9 251 214 108 451 105 217 62 460 266 
341 8 487 421 64 455 213 501 297 456 
342 7 197 377 124 188 364 464 410 
343 4 457 483 458 22 
344 8 348 137 367 491 205 152 375 23 
345 9 273 26 393 101 86 252 449 494 471 
346 7 378 126 347 484 261 395 277 
347 5 395 346 477 76 378 
348 8 344 137 23 205 367 152 491 299 
349 7 375 370 491 367 8 344 495 
350 8 364 481 410 500 317 479 124 104 
351 8 463 67 376 323 206 303 459 68 
352 9 72 332 271 186 443 70 407 389 7 
353 9 5 371 335 445 363 341 421 329 487 
354 7 33 469 442 138 133 327 406 
355 8 203 254 196 17 37 240 138 65 
356 7 285 96 74 330 205 419 94 
357 9 183 57 275 326 235 271 432 158 72 
358 9 248 228 148 73 91 31 45 429 383 
359 6 168 287 44 170 394 260 
360 7 379 213 169 64 413 297 411 
361 5 399 470 3 409 390 
362 9 147 472 179 51 130 88 276 123 60 
363 6 5 432 353 371 335 445 
364 7 350 317 124 410 481 479 500 
365 6 299 149 495 137 8 233 
366 6 493 339 172 302 300 83 
367 8 491 375 344 349 370 34 137 348 
368 8 401 216 177 247 279 433 24 434 
369 9 161 318 155 414 191 123 15 218 276 
370 7 375 349 491 367 34 428 344 
371 7 335 445 329 353 5 421 455 
372 7 396 18 456 76 329 501 445 
373 5 193 253 392 90 85 
374 6 121 486 164 418 337 30 
375 7 491 370 367 349 34 344 428 
376 9 463 303 22 458 351 68 323 206 483 
377 9 464 342 124 188 139 282 120 402 197 
378 6 277 484 261 346 126 476 
379 8 169 360 453 411 328 64 213 413 
380 9 403 15 391 79 381 60 339 300 420 
381 9 60 420 300 83 403 339 302 493 492 
382 9 14 67 388 459 11 465 351 448 474 
383 9 73 450 3 429 470 45 399 361 148 
384 6 435 437 466 461 442 77 
385 8 404 309 296 320 473 24 440 279 
386 9 20 250 431 19 281 81 56 99 307 
387 9 77 406 327 461 416 37 442 144 435 
388 5 459 382 465 11 471 
389 9 7 70 443 186 332 163 301 467 352 
390 5 409 399 361 470 3 
391 8 136 79 265 291 380 221 263 400 
392 3 193 85 373 
393 9 86 26 449 314 345 252 263 400 101 
394 8 44 66 109 321 177 433 401 359 
395 4 347 378 396 76 
396 8 76 372 18 456 477 501 297 329 
397 6 449 263 471 26 393 314 
398 5 476 133 469 261 126 
399 6 470 3 361 409 390 450 
400 8 314 263 221 86 449 136 393 265 
401 8 177 368 216 433 247 279 434 24 
402 8 164 120 464 282 139 317 124 364 
403 9 381 60 380 420 300 339 15 83 493 
404 8 385 24 309 296 473 279 320 247 
405 9 430 16 93 482 140 144 19 189 65 
406 8 327 387 442 461 203 77 37 254 
407 9 282 120 139 464 337 352 402 72 332 
408 9 141 106 414 84 218 436 415 318 166 
409 5 390 399 361 470 3 
410 8 350 364 481 124 319 331 500 104 
411 8 64 169 379 360 213 341 453 487 
412 9 16 93 173 135 270 189 304 439 482 
413 7 297 477 501 213 76 360 456 
414 9 218 318 408 141 84 106 171 369 276 
415 8 436 8 495 408 349 438 365 166 
416 8 77 422 144 154 387 437 461 466 
417 9 69 305 71 146 63 223 53 441 184 
418 8 444 462 121 258 308 374 338 424 
419 7 152 210 205 498 204 330 34 
420 9 83 300 381 302 339 492 493 60 172 
421 8 487 455 341 213 501 297 456 18 
422 8 154 259 416 144 21 427 77 468 
423 9 283 82 162 316 338 467 30 499 163 
424 4 308 21 462 468 
425 9 55 186 70 389 332 334 271 352 7 
426 6 212 503 325 490 45 248 
427 8 259 21 154 308 422 462 424 444 
428 8 34 315 370 210 375 491 204 367 
429 9 45 383 73 248 3 450 470 361 490 
430 9 405 16 93 482 144 140 270 19 189 
431 9 281 20 81 386 307 165 250 19 56 
432 7 363 326 158 5 188 235 353 
433 8 177 401 368 434 9 216 452 247 
434 9 452 9 433 494 177 401 368 185 216 
435 6 384 437 461 466 442 77 
436 8 415 8 408 495 141 438 166 171 
437 5 466 384 435 461 77 
438 5 166 349 370 8 415 
439 9 111 496 135 224 497 270 322 412 93 
440 9 309 385 98 404 230 24 478 296 320 
441 9 25 63 148 31 305 142 228 417 223 
442 8 327 461 406 435 384 387 77 437 
443 9 332 7 389 70 301 186 352 163 337 
444 8 418 462 258 308 427 111 496 338 
445 7 335 371 329 18 372 353 455 
446 4 289 315 157 115 
447 9 128 13 182 240 61 196 355 138 254 
448 9 206 323 14 67 68 382 303 103 351 
449 9 393 263 26 314 397 86 400 471 345 
450 9 3 470 383 73 399 336 361 409 429 
451 8 251 214 340 184 28 105 108 146 
452 9 9 434 494 433 185 177 273 401 368 
453 8 328 169 379 360 411 64 213 413 
454 9 242 58 257 6 236 156 4 241 245 
455 8 421 487 501 341 213 456 18 297 
456 8 18 501 76 396 372 297 455 477 
457 6 343 115 157 88 179 289 
458 8 22 483 376 303 463 68 343 310 
459 4 388 382 67 351 
460 3 217 90 253 
461 9 327 77 435 384 442 437 387 466 406 
462 6 308 424 21 418 427 444 
463 9 376 303 351 22 68 458 323 206 310 
464 9 139 282 377 120 402 124 317 342 188 
465 8 11 474 388 471 382 459 119 273 
466 5 437 384 435 461 77 
467 9 163 301 7 316 389 443 92 30 337 
468 2 424 21 
469 3 133 33 354 
470 8 3 399 450 361 409 383 336 390 
471 7 397 465 26 388 11 449 459 
472 9 51 276 362 147 123 130 179 84 60 
473 7 296 320 279 404 247 385 24 
474 9 11 465 119 382 388 471 273 202 14 
475 9 59 96 74 113 94 46 122 356 208 
476 6 261 484 277 126 398 378 
477 8 297 413 501 76 456 396 18 455 
478 9 24 222 306 309 256 404 440 489 385 
479 6 481 500 324 350 488 104 
480 9 117 150 171 155 218 414 318 369 408 
481 8 500 479 350 104 488 331 324 410 
482 9 93 270 16 430 144 259 405 422 135 
483 8 458 22 303 68 343 376 313 463 
484 5 261 277 476 378 126 
485 7 330 285 116 356 94 419 113 
486 8 337 374 121 30 164 301 120 402 
487 8 421 455 341 213 501 297 64 456 
488 7 298 232 324 104 331 500 481 
489 9 311 230 334 238 222 98 78 55 40 
490 3 361 503 45 
491 7 375 367 370 349 34 344 152 
492 9 83 420 310 300 302 172 381 493 60 
493 8 339 302 172 366 300 83 420 310 
494 9 452 9 273 434 119 185 345 433 49 
495 8 8 137 365 299 415 349 344 367 
496 9 439 111 224 497 135 270 322 264 444 
497 9 224 496 439 322 111 264 135 258 270 
498 8 160 204 210 502 419 315 34 428 
499 9 264 82 322 226 224 497 41 103 304 
500 8 481 479 488 104 324 350 331 232 
501 8 297 456 18 455 477 76 421 413 
502 7 160 85 498 204 193 392 210 
503 4 426 212 490 45 
DEPOT_SECTION
   1
   -1
EOF
