NAME :  X-n670-kX-w267-c9.cctp
COMMENT : 	Adapted by Maziero, Usberti and Cavellucci from the Uchoa, Pecin, Pessoa, Poggi, Subramanian, and Vidal (2013)
TYPE :  CCTP
DIMENSION :    669
EDGE_WEIGHT_TYPE : 	EUC_2D	
CAPACITY : 	129
VERTICES_WITHIN_COVERAGE :  9
VERTICES_WITH_DEMAND : 	267
NODE_COORD_SECTION
1 612 199
2 864 279
3 746 395
4 738 519
5 684 851
6 806 263
7 867 314
8 637 357
9 64 531
10 803 657
11 22 330
12 634 731
13 351 945
14 240 812
15 664 595
16 775 1000
17 971 313
18 953 717
19 317 25
20 812 410
21 677 874
22 731 504
23 89 803
24 697 604
25 53 379
26 817 947
27 164 875
28 86 108
29 9 596
30 406 956
31 304 456
32 843 846
33 285 809
34 148 84
35 349 524
36 527 626
37 947 317
38 646 27
39 718 325
40 906 651
41 889 936
42 953 118
43 908 868
44 447 13
45 335 495
46 77 834
47 992 428
48 826 196
49 337 341
50 482 288
51 123 49
52 415 572
53 274 837
54 581 738
55 33 36
56 795 906
57 353 858
58 242 80
59 532 464
60 246 853
61 109 299
62 285 353
63 5 669
64 255 457
65 909 568
66 986 234
67 920 756
68 7 655
69 441 88
70 569 543
71 317 94
72 897 775
73 226 802
74 716 738
75 320 820
76 15 31
77 114 664
78 60 419
79 629 333
80 662 34
81 780 143
82 689 829
83 19 801
84 836 281
85 227 730
86 640 347
87 850 655
88 742 663
89 290 424
90 407 997
91 553 92
92 286 957
93 129 245
94 435 940
95 141 578
96 578 334
97 732 726
98 624 979
99 705 340
100 431 858
101 416 416
102 826 58
103 913 873
104 862 977
105 326 380
106 344 764
107 512 437
108 589 34
109 937 700
110 439 819
111 826 559
112 535 764
113 547 971
114 822 590
115 257 530
116 324 789
117 788 804
118 156 583
119 788 907
120 788 123
121 115 327
122 561 946
123 477 11
124 455 671
125 317 685
126 105 965
127 962 433
128 62 729
129 5 534
130 314 568
131 957 527
132 47 482
133 123 549
134 665 826
135 756 911
136 50 508
137 439 921
138 86 447
139 731 971
140 417 273
141 52 855
142 463 281
143 832 357
144 693 636
145 890 71
146 131 820
147 85 486
148 130 344
149 204 308
150 381 694
151 98 41
152 182 538
153 78 818
154 954 175
155 555 470
156 4 246
157 925 867
158 546 678
159 717 485
160 958 891
161 980 240
162 306 252
163 925 566
164 105 781
165 812 738
166 337 94
167 96 457
168 713 619
169 815 673
170 193 37
171 229 668
172 750 998
173 713 377
174 383 57
175 898 976
176 388 899
177 57 697
178 869 771
179 755 921
180 504 197
181 727 494
182 564 932
183 30 311
184 175 156
185 429 144
186 836 939
187 35 719
188 183 932
189 200 42
190 6 329
191 656 984
192 515 67
193 904 97
194 850 281
195 858 708
196 856 1
197 732 232
198 92 113
199 183 762
200 99 558
201 703 888
202 914 786
203 255 781
204 838 456
205 167 519
206 448 397
207 273 665
208 869 804
209 300 97
210 282 690
211 514 82
212 694 598
213 606 610
214 955 545
215 835 965
216 16 229
217 418 558
218 458 484
219 169 8
220 242 978
221 395 462
222 739 169
223 29 177
224 983 512
225 28 353
226 195 905
227 6 201
228 549 395
229 132 282
230 180 133
231 267 75
232 459 577
233 354 814
234 499 941
235 59 558
236 931 901
237 666 528
238 909 551
239 208 677
240 386 600
241 869 521
242 622 830
243 615 221
244 953 797
245 92 906
246 803 785
247 762 251
248 957 6
249 294 309
250 68 61
251 207 587
252 431 633
253 760 373
254 991 448
255 88 318
256 612 473
257 603 258
258 593 372
259 621 298
260 434 211
261 265 137
262 852 404
263 599 648
264 41 925
265 17 702
266 198 753
267 893 251
268 278 581
269 458 655
270 15 767
271 953 259
272 189 538
273 11 220
274 139 439
275 306 589
276 528 43
277 434 633
278 359 900
279 60 422
280 245 738
281 307 647
282 919 921
283 398 706
284 0 149
285 542 28
286 13 415
287 81 655
288 652 200
289 878 63
290 292 936
291 952 248
292 763 701
293 380 49
294 356 176
295 427 729
296 98 852
297 945 802
298 262 472
299 3 108
300 130 746
301 794 150
302 16 297
303 757 663
304 529 867
305 981 443
306 82 768
307 839 433
308 670 588
309 883 41
310 874 141
311 981 726
312 133 673
313 709 822
314 258 312
315 993 615
316 199 777
317 995 677
318 56 320
319 259 438
320 353 945
321 102 17
322 543 844
323 248 300
324 783 112
325 726 266
326 944 700
327 2 569
328 880 608
329 383 363
330 940 348
331 644 381
332 738 647
333 925 264
334 164 391
335 871 137
336 655 838
337 24 441
338 703 67
339 462 4
340 630 680
341 688 380
342 597 758
343 774 414
344 869 62
345 748 82
346 337 487
347 239 564
348 277 764
349 365 569
350 370 415
351 872 918
352 966 955
353 527 371
354 595 345
355 761 704
356 745 698
357 552 38
358 864 223
359 575 418
360 634 443
361 585 637
362 482 633
363 61 319
364 350 533
365 98 246
366 707 298
367 544 935
368 816 701
369 393 463
370 250 586
371 426 554
372 658 570
373 99 899
374 778 1
375 689 736
376 704 155
377 675 682
378 405 693
379 390 804
380 486 361
381 905 954
382 204 948
383 168 343
384 739 482
385 403 374
386 700 693
387 739 711
388 900 705
389 111 617
390 367 999
391 395 526
392 611 607
393 800 873
394 138 574
395 508 172
396 217 654
397 566 346
398 895 268
399 26 302
400 264 705
401 337 760
402 975 574
403 981 331
404 2 508
405 368 849
406 666 120
407 976 942
408 888 203
409 740 867
410 712 181
411 695 582
412 74 819
413 864 81
414 810 168
415 400 966
416 924 776
417 979 276
418 105 134
419 433 571
420 497 386
421 651 251
422 704 274
423 712 142
424 62 350
425 276 320
426 158 422
427 232 190
428 589 261
429 578 815
430 979 553
431 569 491
432 247 101
433 106 580
434 125 281
435 376 586
436 915 744
437 742 479
438 513 366
439 885 281
440 669 455
441 191 889
442 509 202
443 402 151
444 292 387
445 491 202
446 434 328
447 816 33
448 769 86
449 504 328
450 63 922
451 92 533
452 787 990
453 422 190
454 123 301
455 775 517
456 238 923
457 266 229
458 794 427
459 485 623
460 716 603
461 384 901
462 208 400
463 17 138
464 952 175
465 953 960
466 863 568
467 645 528
468 473 40
469 567 988
470 665 5
471 300 160
472 281 999
473 44 4
474 763 761
475 390 315
476 37 567
477 330 676
478 667 799
479 526 664
480 230 780
481 824 302
482 969 848
483 19 766
484 675 686
485 876 329
486 836 902
487 386 574
488 18 851
489 292 841
490 516 721
491 848 931
492 233 856
493 833 61
494 833 332
495 824 67
496 121 796
497 707 857
498 690 527
499 442 109
500 811 783
501 79 234
502 568 362
503 29 570
504 259 444
505 570 840
506 26 660
507 618 855
508 753 424
509 747 462
510 202 510
511 444 757
512 406 880
513 635 529
514 310 765
515 444 966
516 660 987
517 211 608
518 143 544
519 759 555
520 784 434
521 906 911
522 575 734
523 234 493
524 377 928
525 102 786
526 54 485
527 917 138
528 866 690
529 638 224
530 108 715
531 556 739
532 4 955
533 300 357
534 844 603
535 107 934
536 374 477
537 334 958
538 444 99
539 226 253
540 888 24
541 934 938
542 672 417
543 773 618
544 282 880
545 748 850
546 367 534
547 310 838
548 625 343
549 379 388
550 949 696
551 605 114
552 812 229
553 884 888
554 914 913
555 125 541
556 65 369
557 268 824
558 335 460
559 545 601
560 436 107
561 996 311
562 367 379
563 238 666
564 304 808
565 479 607
566 741 978
567 784 502
568 878 347
569 587 607
570 264 329
571 464 763
572 691 618
573 140 350
574 326 770
575 763 494
576 108 29
577 413 515
578 390 406
579 870 632
580 823 5
581 631 919
582 501 606
583 174 503
584 352 487
585 476 22
586 780 505
587 772 324
588 547 428
589 580 425
590 926 505
591 960 705
592 81 301
593 30 367
594 717 772
595 737 141
596 962 592
597 866 231
598 510 737
599 309 524
600 18 304
601 580 38
602 739 598
603 581 633
604 413 455
605 618 953
606 415 820
607 665 638
608 135 578
609 880 775
610 629 631
611 371 600
612 501 223
613 215 451
614 49 525
615 718 972
616 656 456
617 932 564
618 424 764
619 423 93
620 72 355
621 286 840
622 75 872
623 410 700
624 51 518
625 992 644
626 407 141
627 303 414
628 224 557
629 711 483
630 401 128
631 933 250
632 46 598
633 562 503
634 115 157
635 829 113
636 304 785
637 617 993
638 188 816
639 727 298
640 612 777
641 398 880
642 334 458
643 65 991
644 912 247
645 383 233
646 846 703
647 485 768
648 972 386
649 502 763
650 96 937
651 329 97
652 892 400
653 639 318
654 34 810
655 147 837
656 598 9
657 129 390
658 689 739
659 187 735
660 344 952
661 263 610
662 665 405
663 906 931
664 212 478
665 784 249
666 647 257
667 456 454
668 615 858
669 385 722
DEMAND_SECTION
2 50
3 86
4 94
5 54
6 57
7 52
8 66
9 76
10 69
11 57
12 77
13 94
14 64
15 79
16 91
17 55
18 79
19 68
20 51
21 93
22 91
23 68
24 51
25 93
26 91
27 91
28 59
29 76
30 57
31 96
32 97
33 69
34 83
35 58
36 56
37 81
38 96
39 52
40 86
41 78
42 92
43 67
44 56
45 56
46 51
47 91
48 93
49 73
50 70
51 77
52 91
53 64
54 81
55 76
56 51
57 75
58 81
59 57
60 50
61 80
62 53
63 86
64 61
65 62
66 100
67 94
68 89
69 88
70 52
71 60
72 83
73 79
74 64
75 82
76 72
77 90
78 72
79 51
80 88
81 82
82 78
83 80
84 82
85 98
86 70
87 74
88 61
89 88
90 51
91 60
92 57
93 84
94 65
95 57
96 51
97 77
98 63
99 55
100 53
101 88
102 90
103 89
104 70
105 94
106 50
107 62
108 87
109 56
110 89
111 73
112 88
113 94
114 63
115 90
116 86
117 53
118 70
119 75
120 92
121 94
122 67
123 59
124 94
125 52
126 52
127 71
128 79
129 76
130 87
131 54
132 63
133 92
134 69
135 51
136 60
137 83
138 61
139 72
140 61
141 68
142 64
143 70
144 57
145 71
146 91
147 70
148 67
149 96
150 95
151 91
152 57
153 56
154 90
155 70
156 72
157 99
158 80
159 91
160 56
161 72
162 83
163 55
164 80
165 62
166 53
167 60
168 65
169 60
170 60
171 73
172 58
173 88
174 59
175 53
176 57
177 76
178 72
179 82
180 86
181 87
182 55
183 83
184 68
185 89
186 81
187 52
188 54
189 83
190 2
191 6
192 10
193 6
194 3
195 4
196 4
197 3
198 2
199 6
200 10
201 8
202 2
203 6
204 9
205 6
206 8
207 8
208 1
209 5
210 4
211 8
212 2
213 8
214 3
215 4
216 8
217 1
218 1
219 5
220 1
221 4
222 1
223 10
224 2
225 2
226 9
227 2
228 8
229 2
230 8
231 4
232 5
233 6
234 5
235 10
236 5
237 1
238 3
239 7
240 1
241 5
242 9
243 1
244 9
245 3
246 8
247 1
248 7
249 2
250 5
251 8
252 7
253 4
254 5
255 2
256 2
257 4
258 7
259 8
260 1
261 1
262 3
263 8
264 10
265 9
266 3
267 1
268 4
COVERAGE_SECTION
2 9 194 439 84 398 7 267 481 597 485 
3 9 253 508 343 173 520 458 341 509 20 
4 9 22 181 575 384 455 159 437 519 586 
5 9 82 21 497 134 336 313 201 478 409 
6 9 665 84 552 481 247 194 2 597 48 
7 9 485 2 568 194 439 494 84 481 398 
8 9 86 548 79 331 653 354 258 341 662 
9 9 614 624 136 235 451 200 476 526 147 
10 9 169 303 368 87 543 292 88 355 646 
11 9 190 183 225 600 399 302 318 593 363 
12 9 342 340 640 54 375 658 522 484 377 
13 9 320 660 537 524 278 415 461 30 390 
14 9 73 557 203 480 60 53 33 492 638 
15 9 308 372 212 24 411 572 607 144 610 
16 9 452 172 566 139 615 26 215 179 186 
17 9 403 37 561 417 330 271 333 291 648 
18 9 591 326 550 109 311 436 67 388 317 
19 9 293 71 231 166 174 651 209 58 432 
20 9 458 307 520 343 262 204 143 508 253 
21 9 5 201 497 336 82 134 313 507 409 
22 9 181 4 384 159 437 629 575 509 455 
23 9 153 525 412 164 46 496 306 146 296 
24 9 212 572 460 168 411 308 144 15 602 
25 9 556 593 424 620 225 78 279 286 11 
26 9 186 215 491 56 119 486 452 104 351 
27 9 441 655 226 188 146 638 373 296 492 
28 9 198 418 250 634 34 151 51 463 576 
29 9 327 503 632 476 68 129 235 506 63 
30 9 415 94 515 524 90 137 320 13 390 
31 9 642 558 89 627 298 346 504 319 64 
32 9 208 393 486 553 43 117 500 246 103 
33 9 564 557 53 621 636 489 75 547 203 
34 9 51 230 198 170 28 151 418 189 576 
35 9 364 546 45 584 346 599 391 349 536 
36 9 559 582 479 459 362 565 603 158 361 
37 9 17 330 403 561 417 333 271 631 291 
38 9 80 470 656 108 601 338 357 406 551 
39 9 99 639 366 173 422 587 325 341 253 
40 9 579 328 388 87 528 109 326 550 195 
41 9 663 381 351 521 282 554 175 491 541 
42 9 527 193 154 464 145 310 335 289 413 
43 9 103 157 553 236 521 554 282 160 351 
44 9 339 123 585 468 69 293 174 619 276 
45 9 346 584 35 558 642 599 364 536 31 
46 9 412 153 296 23 141 622 654 525 146 
47 9 305 254 127 648 224 330 403 590 652 
48 9 414 552 358 597 301 408 665 6 81 
49 9 533 105 562 329 62 249 475 549 444 
50 9 142 449 446 140 612 380 438 445 442 
51 9 576 151 321 34 250 219 28 170 198 
52 9 217 419 371 487 240 435 232 349 391 
53 9 621 557 489 33 60 547 14 564 544 
54 9 522 531 342 640 12 112 490 158 598 
55 9 76 473 250 151 321 576 299 28 51 
56 9 119 393 135 486 179 26 186 491 409 
57 9 405 278 233 547 75 641 461 176 512 
58 9 432 231 189 209 261 170 71 230 651 
59 9 155 107 588 431 633 589 359 228 218 
60 9 492 53 557 14 621 544 489 73 33 
61 9 454 434 255 592 121 229 148 363 365 
62 9 533 570 425 444 249 105 314 49 627 
63 9 68 506 265 187 177 29 287 632 128 
64 9 504 298 319 613 523 89 664 31 627 
65 9 163 238 617 466 328 214 596 241 131 
66 9 161 291 271 417 631 154 333 464 644 
67 9 436 416 72 202 609 18 297 178 244 
68 9 63 506 265 29 177 632 187 287 327 
69 9 538 619 560 499 185 630 468 626 174 
70 9 633 431 559 569 513 155 213 392 467 
71 9 651 209 166 231 261 471 19 432 58 
72 9 609 202 416 178 67 436 208 297 244 
73 9 14 480 203 316 638 557 492 60 266 
74 9 97 375 658 594 387 386 356 474 355 
75 9 564 547 116 233 489 33 636 621 53 
76 9 55 473 250 299 151 321 576 28 463 
77 9 312 287 389 530 177 128 300 433 506 
78 9 279 138 25 337 286 556 167 593 132 
79 9 548 86 653 8 259 354 331 96 258 
80 9 38 470 338 656 108 601 406 345 551 
81 9 301 120 324 414 595 222 635 448 423 
82 9 313 5 134 497 336 478 21 201 545 
83 9 654 270 483 488 412 153 141 46 23 
84 9 194 481 2 6 7 439 494 552 597 
85 9 280 266 659 400 480 199 316 239 203 
86 9 8 548 79 653 331 354 258 259 341 
87 9 579 528 169 10 646 534 195 40 328 
88 9 303 332 356 292 355 387 386 168 543 
89 9 627 319 31 444 504 64 298 642 105 
90 9 415 390 30 515 94 320 524 13 660 
91 9 211 192 357 276 551 601 285 108 395 
92 9 290 472 537 220 660 456 13 320 544 
93 9 365 434 229 501 454 61 592 121 255 
94 9 137 515 30 415 524 176 90 234 461 
95 9 394 608 118 133 518 433 555 200 389 
96 9 397 354 502 258 548 79 259 8 86 
97 9 387 74 356 355 292 375 658 386 474 
98 9 637 605 191 516 469 581 122 182 113 
99 9 39 173 366 341 639 253 86 422 3 
100 9 512 110 641 606 176 137 405 461 379 
101 9 578 206 604 385 350 549 221 369 667 
102 9 493 495 447 344 413 289 580 635 309 
103 9 43 157 236 553 521 554 160 282 663 
104 9 215 175 186 491 41 381 26 351 663 
105 9 444 533 49 562 627 62 549 350 89 
106 9 401 574 116 514 636 233 564 669 75 
107 9 59 588 420 155 228 667 359 353 589 
108 9 601 656 357 285 38 276 91 80 192 
109 9 326 550 18 591 388 436 311 40 67 
110 8 606 100 379 618 571 511 512 647 
111 9 114 466 534 241 455 519 567 586 328 
112 9 531 649 598 490 522 647 54 342 429 
113 9 469 122 367 182 234 605 637 98 581 
114 9 534 111 466 543 328 579 10 87 519 
115 9 347 628 523 599 268 370 298 510 272 
116 9 574 636 514 564 75 106 401 233 33 
117 9 246 500 474 545 32 165 393 594 409 
118 9 95 394 608 518 133 433 251 152 555 
119 9 56 135 179 393 486 26 186 409 491 
120 9 324 81 301 448 635 414 595 345 222 
121 9 148 454 255 61 573 592 434 229 620 
122 9 182 367 113 469 605 234 98 637 581 
123 9 585 339 468 44 276 285 192 211 357 
124 9 269 277 252 362 623 378 459 295 283 
125 9 477 210 281 207 400 150 669 401 514 
126 9 650 535 643 245 450 373 264 188 622 
127 9 305 47 254 648 652 590 224 330 131 
128 9 187 177 306 530 265 483 270 164 300 
129 9 404 327 503 614 476 624 136 9 235 
130 9 275 268 599 364 349 35 546 435 611 
131 9 214 224 430 590 617 163 402 238 65 
132 9 526 136 624 147 614 337 9 138 404 
133 9 555 518 200 394 608 95 433 451 118 
134 9 336 82 478 5 242 313 21 497 507 
135 9 179 119 56 409 201 393 545 139 566 
136 9 624 614 526 132 9 147 404 451 235 
137 9 94 515 30 512 176 641 461 415 524 
138 9 167 279 78 147 526 132 274 337 136 
139 9 566 615 172 16 179 452 135 516 191 
140 9 142 475 645 446 260 50 453 329 612 
141 9 622 46 488 412 153 296 654 83 23 
142 9 50 140 446 449 612 260 475 380 445 
143 9 494 568 262 485 7 481 20 587 253 
144 9 572 168 607 24 212 460 332 377 15 
145 9 289 344 413 193 309 540 493 102 495 
146 9 655 496 23 525 296 164 153 46 412 
147 9 167 526 132 138 136 624 451 9 614 
148 9 573 121 383 454 657 255 61 334 620 
149 9 323 383 314 539 570 425 229 573 454 
150 8 283 378 669 623 477 295 125 124 
151 9 576 321 51 250 55 473 34 28 198 
152 9 272 205 510 583 518 628 118 251 95 
153 9 412 46 23 296 525 141 654 164 496 
154 9 464 527 42 66 161 408 291 631 644 
155 9 59 431 633 588 589 107 359 256 70 
156 9 216 273 227 302 399 600 183 223 501 
157 9 103 43 236 160 553 554 482 521 282 
158 9 479 490 36 361 603 263 531 522 54 
159 9 629 181 384 22 437 509 4 575 498 
160 9 236 157 482 103 282 554 541 407 43 
161 9 66 291 271 417 631 333 644 154 464 
162 9 457 249 425 323 314 645 539 570 294 
163 9 617 65 238 214 596 131 402 430 590 
164 9 525 496 306 23 300 153 146 412 46 
165 9 368 500 246 646 474 195 292 355 169 
166 9 651 71 209 174 293 19 630 231 471 
167 9 138 147 274 279 526 78 132 136 426 
168 9 460 24 572 144 212 602 332 411 607 
169 9 10 368 87 646 528 195 292 303 355 
170 9 189 219 34 58 51 231 432 576 321 
171 9 563 396 239 207 400 210 85 517 661 
172 9 566 16 139 452 615 179 26 135 215 
173 9 341 3 99 253 39 662 542 508 331 
174 9 293 619 166 69 651 19 560 630 538 
175 9 381 104 41 663 541 465 282 215 351 
176 9 461 641 512 278 524 57 405 137 320 
177 9 187 128 265 287 506 530 63 68 77 
178 9 609 72 208 202 67 436 416 500 195 
179 9 135 119 56 139 409 566 201 615 393 
180 9 442 445 395 612 260 453 185 142 50 
181 9 22 159 384 629 437 4 575 509 498 
182 9 122 367 113 469 605 234 581 304 98 
183 9 399 600 302 11 318 190 363 225 424 
184 9 230 634 427 418 34 432 261 198 93 
185 9 626 443 630 499 560 453 538 619 69 
186 9 491 26 215 486 351 104 41 56 119 
187 9 265 128 177 483 270 63 506 306 68 
188 9 382 226 441 456 27 220 535 126 650 
189 9 170 219 58 34 231 432 51 230 576 
190 9 11 600 183 225 302 399 593 318 363 
191 9 516 98 637 605 615 581 139 566 469 
192 9 211 276 91 285 357 468 585 123 601 
193 9 145 289 413 527 344 335 42 310 309 
194 9 2 84 481 439 7 398 6 267 597 
195 9 646 528 388 368 87 165 169 178 436 
196 9 580 540 309 447 344 102 493 289 495 
197 9 325 247 422 410 665 222 639 366 6 
198 9 28 418 634 250 34 51 151 463 576 
199 9 266 316 659 480 85 638 300 73 280 
200 9 433 133 451 555 235 608 394 9 518 
201 9 21 497 5 409 135 545 82 179 313 
202 9 416 72 67 297 609 244 436 178 208 
203 9 480 348 14 73 33 280 557 636 316 
204 9 307 20 458 262 520 567 241 586 343 
205 9 583 152 272 518 510 555 133 664 394 
206 9 101 420 385 380 667 578 604 446 549 
207 9 210 563 281 400 171 125 661 396 477 
208 9 609 178 72 202 32 416 500 246 67 
209 9 71 651 166 231 261 432 58 471 19 
210 9 400 207 125 281 477 563 171 280 85 
211 9 192 91 276 357 468 285 585 538 69 
212 9 24 411 572 460 308 168 15 144 602 
213 9 392 569 610 361 603 263 15 559 607 
214 9 131 430 617 402 163 224 238 596 590 
215 9 26 186 104 491 452 351 41 486 175 
216 9 273 156 227 223 501 302 399 600 284 
217 9 371 52 419 487 391 577 232 435 240 
218 9 667 604 577 221 369 107 391 59 371 
219 9 170 189 51 576 321 151 34 58 250 
220 9 472 382 92 456 290 188 226 537 441 
221 9 369 604 536 584 101 350 577 578 558 
222 9 595 410 376 423 81 301 197 120 414 
223 9 227 284 463 273 216 156 299 501 418 
224 9 131 430 214 590 402 254 305 617 163 
225 9 593 11 190 424 25 556 183 318 620 
226 9 441 188 27 382 456 492 60 655 220 
227 9 273 216 223 156 284 463 501 299 302 
228 9 353 588 359 502 589 438 258 397 420 
229 9 434 454 61 93 121 365 592 255 148 
230 9 184 34 634 432 418 427 58 261 198 
231 9 58 432 209 71 261 651 19 166 189 
232 9 419 565 371 52 217 582 459 277 362 
233 9 75 379 405 116 57 547 564 106 574 
234 9 367 113 515 122 137 94 182 304 469 
235 9 476 9 503 614 200 451 624 632 136 
236 9 554 282 521 160 103 157 541 663 43 
237 9 467 498 513 372 308 411 629 15 159 
238 9 65 163 617 214 466 590 241 131 328 
239 9 171 396 563 85 659 400 207 517 280 
240 9 611 435 487 349 52 217 419 252 277 
241 9 466 238 111 590 65 163 204 617 114 
242 9 507 668 336 134 429 505 640 478 5 
243 9 529 257 288 421 428 666 259 653 422 
244 9 297 416 202 67 482 72 436 157 311 
245 9 373 650 535 450 622 264 296 126 141 
246 9 500 117 474 165 178 208 32 609 368 
247 9 665 197 325 6 552 639 422 366 587 
248 9 540 309 145 289 196 344 193 42 413 
249 9 425 314 570 62 323 533 49 162 105 
250 9 151 55 28 576 51 321 198 76 473 
251 9 517 628 347 370 118 272 152 661 95 
252 9 277 269 124 362 459 565 240 419 52 
253 9 3 343 173 587 508 20 39 99 458 
254 9 305 47 127 224 648 131 590 214 430 
255 9 592 363 61 121 318 454 620 424 148 
256 9 360 431 616 155 589 633 440 513 467 
257 9 428 243 259 666 421 529 653 288 79 
258 9 354 502 397 96 548 8 359 228 331 
259 9 653 79 257 548 428 666 86 354 96 
260 9 453 645 445 140 185 443 612 180 626 
261 9 432 471 209 58 231 427 71 651 166 
262 9 307 20 652 143 204 458 568 494 520 
263 9 361 603 610 213 392 569 340 158 607 
264 9 450 532 245 650 622 373 535 643 141 
265 9 187 63 177 506 68 128 483 270 287 
266 9 199 659 316 85 480 280 73 203 638 
267 9 398 644 439 597 333 2 358 631 408 
268 9 370 275 661 130 347 115 628 599 251 
269 9 124 277 362 252 459 565 378 582 623 
270 9 483 83 654 187 128 265 306 412 153 
271 9 291 631 333 417 161 66 644 17 37 
272 9 152 205 510 583 628 518 251 118 347 
273 9 216 227 156 223 501 284 302 463 399 
274 9 426 167 657 138 334 147 583 613 462 
275 9 130 268 661 370 281 349 599 611 435 
276 9 285 357 192 211 601 91 468 585 123 
277 9 252 269 124 362 459 565 240 232 419 
278 9 461 176 524 57 641 320 13 512 405 
279 9 78 138 337 25 286 167 556 132 526 
280 9 85 400 348 203 480 266 659 316 210 
281 9 477 207 125 210 661 275 268 400 563 
282 9 554 521 663 236 541 41 381 351 103 
283 8 623 378 150 669 295 618 124 511 
284 9 463 223 299 227 273 216 28 156 198 
285 9 357 276 601 108 192 656 211 91 585 
286 9 337 78 279 593 25 225 556 132 138 
287 9 77 177 389 312 506 530 632 68 128 
288 9 529 243 421 666 410 376 257 406 423 
289 9 344 145 309 413 540 193 493 102 495 
290 9 92 537 660 456 544 13 320 472 220 
291 9 271 631 161 333 66 417 644 267 398 
292 9 355 356 387 303 97 88 368 10 169 
293 9 174 166 619 19 651 69 44 71 538 
294 9 443 471 626 645 630 453 185 651 166 
295 8 511 623 618 283 378 669 571 150 
296 9 46 622 153 412 141 146 373 23 655 
297 9 244 416 202 67 482 72 436 157 609 
298 9 64 504 319 523 31 664 613 89 115 
299 9 463 284 223 55 76 250 28 198 227 
300 9 530 164 525 496 306 199 659 266 23 
301 9 81 414 120 324 635 48 222 595 448 
302 9 600 399 183 11 190 318 363 156 225 
303 9 88 332 356 292 355 10 543 387 169 
304 9 322 505 367 429 182 234 122 668 507 
305 9 254 47 127 648 224 590 131 652 330 
306 9 164 525 23 128 496 153 412 300 530 
307 9 204 262 20 458 520 652 343 143 508 
308 9 15 372 212 411 24 572 460 607 144 
309 9 540 289 344 145 413 196 493 102 193 
310 9 335 527 193 635 413 408 414 145 48 
311 9 18 591 550 326 109 317 67 436 244 
312 9 77 530 287 389 300 239 177 659 396 
313 9 82 497 5 134 478 545 594 409 336 
314 9 323 570 425 249 62 149 533 539 162 
315 9 625 596 402 317 430 214 617 163 550 
316 9 199 266 480 73 638 659 14 85 203 
317 9 625 591 550 311 326 18 109 315 596 
318 9 363 183 424 592 255 11 399 620 600 
319 9 504 64 89 298 613 31 627 523 444 
320 9 13 660 537 524 278 415 30 461 390 
321 9 576 151 51 250 473 219 55 34 76 
322 9 304 505 429 668 507 112 242 182 367 
323 9 314 570 425 149 249 539 62 457 162 
324 9 120 448 81 301 345 635 595 495 414 
325 9 422 639 197 366 247 39 665 587 421 
326 9 550 109 591 18 388 311 436 317 67 
327 9 503 29 129 476 632 235 404 614 624 
328 9 579 534 466 65 40 87 114 163 238 
329 9 385 562 549 578 475 49 350 105 101 
330 9 37 403 17 648 568 485 561 652 7 
331 9 8 662 86 548 341 542 79 258 354 
332 9 88 303 168 543 144 460 602 356 572 
333 9 631 644 271 398 291 267 439 417 37 
334 9 426 657 462 383 573 274 148 613 121 
335 9 310 527 635 193 413 408 414 145 48 
336 9 134 5 242 82 478 507 21 668 497 
337 9 286 279 78 132 526 138 25 404 136 
338 9 345 80 406 448 38 470 423 595 376 
339 9 44 123 585 468 276 192 285 69 211 
340 9 263 377 484 610 12 607 361 603 386 
341 9 173 662 542 99 331 8 86 3 39 
342 9 640 54 522 531 12 429 112 242 478 
343 9 520 508 458 3 20 253 509 307 173 
344 9 289 413 145 309 493 540 102 495 193 
345 9 448 324 338 120 595 81 423 495 102 
346 9 45 584 558 642 536 35 31 599 364 
347 9 628 370 115 251 268 517 661 272 152 
348 9 203 514 636 280 33 574 480 564 116 
349 9 435 487 611 546 240 364 35 52 130 
350 9 578 549 562 101 221 369 385 329 105 
351 9 41 491 553 521 663 486 186 554 282 
352 9 465 407 541 282 381 160 236 663 554 
353 9 438 228 420 380 502 397 449 588 96 
354 9 96 258 397 548 502 79 8 86 653 
355 9 292 356 387 97 303 88 368 74 474 
356 9 387 355 292 97 88 303 386 74 332 
357 9 285 276 601 108 192 91 656 211 585 
358 9 597 408 267 48 552 644 398 2 194 
359 9 589 588 228 258 155 502 59 360 107 
360 9 616 256 440 542 662 589 331 359 431 
361 9 603 263 569 213 392 610 559 158 36 
362 9 459 565 269 582 36 124 277 252 479 
363 9 318 255 592 424 183 620 399 11 600 
364 9 35 546 349 45 599 391 584 346 130 
365 9 501 93 434 229 61 592 454 255 363 
366 9 639 422 39 325 99 587 197 653 247 
367 9 122 182 113 234 469 304 605 581 98 
368 9 169 646 165 195 10 528 292 355 87 
369 9 221 604 536 584 101 350 577 578 558 
370 9 347 661 268 628 251 517 115 275 130 
371 9 217 419 52 232 577 391 487 435 240 
372 9 308 15 411 237 467 212 513 24 498 
373 9 245 535 622 650 450 296 141 264 126 
374 9 580 447 102 196 495 493 448 345 338 
375 9 658 74 97 386 594 484 12 377 387 
376 9 423 410 595 222 406 288 81 197 345 
377 9 484 386 340 607 144 375 658 12 572 
378 8 623 283 150 669 295 124 252 269 
379 8 606 233 405 110 618 106 57 100 
380 9 420 438 449 353 206 446 228 50 107 
381 9 175 663 41 541 282 554 521 465 104 
382 9 188 456 226 220 441 92 27 290 472 
383 9 573 148 334 149 121 657 454 462 229 
384 9 437 181 159 509 22 575 629 4 586 
385 9 329 549 578 562 101 206 350 446 475 
386 9 484 377 387 375 356 97 658 74 88 
387 9 356 97 355 292 74 386 88 303 474 
388 9 109 528 195 436 326 550 18 40 646 
389 9 433 608 77 287 95 394 118 200 312 
390 9 90 415 660 537 13 320 30 524 515 
391 9 577 546 217 371 35 364 487 52 349 
392 9 213 569 610 361 603 263 15 372 308 
393 9 56 119 486 32 545 135 409 179 117 
394 9 95 608 118 133 518 433 555 200 389 
395 9 180 442 445 612 185 260 453 211 499 
396 9 171 563 239 517 207 661 251 400 210 
397 9 502 96 354 258 353 228 438 548 79 
398 9 439 267 644 333 2 631 194 597 7 
399 9 600 183 302 11 190 318 363 225 592 
400 9 210 280 207 85 563 171 125 348 239 
401 9 106 574 514 116 636 233 564 348 669 
402 9 430 596 214 617 315 131 163 224 65 
403 9 17 561 37 330 417 648 271 333 291 
404 9 129 136 614 624 132 526 327 9 503 
405 9 57 233 641 512 379 278 176 461 606 
406 9 423 376 551 338 595 410 288 80 222 
407 9 352 465 541 160 236 282 554 663 381 
408 9 358 597 267 644 48 310 398 631 335 
409 9 545 497 201 135 313 179 5 393 119 
410 9 376 222 423 595 197 288 406 81 247 
411 9 212 24 308 460 15 572 372 168 602 
412 9 153 46 23 296 654 141 525 164 306 
413 9 344 289 145 493 495 193 102 309 635 
414 9 301 48 81 120 635 552 324 335 310 
415 9 30 90 94 515 524 390 320 13 660 
416 9 202 67 72 297 436 244 609 178 208 
417 9 271 161 17 291 561 66 37 631 333 
418 9 198 634 28 34 184 230 250 51 223 
419 9 52 371 217 232 487 240 565 391 435 
420 9 438 380 353 206 107 228 449 588 502 
421 9 666 529 243 257 288 259 422 428 653 
422 9 325 366 639 197 39 421 666 247 99 
423 9 376 595 222 410 406 81 345 338 324 
424 9 620 556 25 318 363 225 593 255 11 
425 9 570 314 249 62 323 533 49 444 149 
426 9 274 334 657 462 613 167 573 138 664 
427 9 457 261 539 184 471 230 432 162 58 
428 9 257 243 259 666 529 421 96 653 79 
429 9 505 322 242 640 507 668 342 112 304 
430 9 402 214 131 224 596 617 163 315 238 
431 9 633 155 59 256 70 588 589 359 513 
432 9 58 231 261 209 71 230 189 471 651 
433 9 200 608 394 95 133 389 555 451 118 
434 9 229 454 61 93 365 121 592 255 148 
435 9 611 487 240 349 52 217 546 364 371 
436 9 67 416 72 202 388 18 609 109 178 
437 9 384 509 181 159 575 22 629 4 586 
438 9 353 420 380 449 228 502 397 107 588 
439 9 398 2 267 194 7 333 644 84 485 
440 9 616 360 542 629 662 159 256 181 237 
441 9 226 27 188 492 456 382 60 655 638 
442 9 180 445 612 395 260 453 50 142 185 
443 9 626 630 185 453 294 560 499 619 538 
444 9 627 533 62 105 89 319 49 570 504 
445 9 180 442 612 395 260 453 142 185 50 
446 9 475 142 385 140 50 329 380 206 449 
447 9 102 580 493 495 374 196 344 309 413 
448 9 345 324 120 81 495 102 595 635 301 
449 9 380 438 50 353 420 142 397 446 502 
450 9 264 245 650 373 535 622 126 141 532 
451 9 200 9 555 133 235 614 624 147 136 
452 9 16 172 566 26 215 139 186 615 104 
453 9 260 443 185 626 645 630 294 445 180 
454 9 61 434 229 121 255 592 148 573 93 
455 9 586 567 575 4 519 22 384 437 181 
456 9 382 226 220 188 290 441 92 544 492 
457 9 162 539 427 323 471 314 249 261 425 
458 9 520 343 20 508 307 204 3 509 262 
459 9 362 565 582 36 269 277 232 252 124 
460 9 168 24 212 602 572 411 144 308 332 
461 9 176 278 641 524 512 57 320 405 13 
462 9 334 613 426 319 504 383 64 664 274 
463 9 284 299 223 227 28 198 273 418 216 
464 9 154 527 42 66 408 161 291 631 644 
465 9 352 407 541 381 282 663 175 554 236 
466 9 111 534 328 65 114 241 238 163 579 
467 9 513 237 372 498 256 308 15 616 411 
468 9 585 123 44 339 192 276 69 211 538 
469 9 113 122 637 182 98 367 605 234 191 
470 9 38 80 656 338 108 601 345 374 406 
471 9 261 294 209 71 651 427 166 457 432 
472 9 92 220 290 537 660 390 456 13 320 
473 9 55 76 321 250 151 576 51 28 299 
474 9 97 246 594 117 74 500 165 387 355 
475 9 446 329 140 49 385 562 549 142 645 
476 9 503 235 632 327 29 614 9 129 624 
477 9 125 281 210 150 207 400 669 283 378 
478 9 134 82 336 313 5 242 594 640 658 
479 9 158 36 362 459 490 582 603 361 559 
480 9 73 203 316 14 266 280 85 199 348 
481 9 84 494 194 6 7 2 143 587 485 
482 9 160 157 297 244 103 43 236 202 416 
483 9 270 83 654 187 128 306 265 412 23 
484 9 377 386 340 607 375 144 658 12 74 
485 9 7 568 494 439 2 143 194 481 84 
486 9 491 186 351 56 393 119 26 553 32 
487 9 435 349 240 52 611 217 546 371 419 
488 9 141 654 83 46 622 412 153 264 296 
489 9 621 53 547 557 33 75 564 544 60 
490 9 598 531 649 112 158 647 479 522 54 
491 9 186 351 486 26 215 41 104 553 663 
492 9 60 14 53 557 441 73 544 621 638 
493 9 102 495 447 344 413 289 635 309 580 
494 9 143 481 7 485 568 84 194 2 587 
495 9 102 493 447 413 344 635 289 448 324 
496 9 525 164 146 23 153 306 655 300 412 
497 9 5 201 82 21 409 313 545 134 336 
498 9 237 467 22 4 629 159 181 372 411 
499 9 560 538 69 619 185 630 626 443 468 
500 9 246 117 165 474 178 208 609 32 368 
501 9 365 93 216 434 592 273 61 229 156 
502 9 397 258 96 354 228 353 438 359 548 
503 9 476 327 235 29 632 129 614 9 624 
504 9 319 64 298 89 613 31 627 523 664 
505 9 429 322 668 304 507 242 640 112 336 
506 9 68 63 265 177 287 187 632 29 128 
507 9 668 242 336 505 134 429 21 581 5 
508 9 343 3 520 509 458 253 437 384 20 
509 9 437 384 575 159 181 508 629 22 520 
510 9 583 272 152 664 205 523 628 115 613 
511 8 571 618 295 647 649 110 623 283 
512 9 641 176 461 100 405 278 137 524 57 
513 9 467 237 372 498 256 70 308 15 431 
514 9 574 636 401 116 348 106 564 33 75 
515 9 94 30 415 137 90 234 524 390 176 
516 9 191 98 637 605 615 139 581 566 172 
517 9 251 370 396 347 661 628 118 171 563 
518 9 555 133 394 95 205 608 152 118 200 
519 9 455 4 602 586 22 567 575 460 543 
520 9 458 343 508 20 509 3 307 204 437 
521 9 554 282 663 236 41 553 351 103 541 
522 9 54 531 342 112 640 12 490 158 598 
523 9 664 298 510 64 115 613 504 319 583 
524 9 461 320 13 176 278 30 660 415 537 
525 9 164 23 496 306 153 412 146 300 46 
526 9 132 136 147 624 614 9 138 167 337 
527 9 42 193 310 335 464 154 408 145 413 
528 9 195 646 388 87 368 169 40 579 10 
529 9 243 288 421 666 257 428 259 422 410 
530 9 300 128 312 77 177 306 164 287 525 
531 9 522 54 112 490 342 598 649 158 640 
532 9 264 450 643 650 126 245 488 535 622 
533 9 62 444 105 49 425 570 249 627 314 
534 9 114 328 579 466 111 87 10 543 65 
535 9 650 126 245 373 450 264 622 643 188 
536 9 369 584 221 346 45 558 642 604 35 
537 9 660 13 320 290 92 524 390 278 415 
538 9 499 69 560 619 185 630 626 468 443 
539 9 457 323 149 427 314 162 425 570 249 
540 9 309 196 289 344 145 413 493 580 102 
541 9 282 465 663 554 381 352 236 521 407 
542 9 662 440 341 616 331 360 173 8 3 
543 9 602 332 303 10 88 114 460 168 519 
544 9 489 621 53 60 547 492 290 557 456 
545 9 409 497 313 393 201 117 135 82 5 
546 9 364 35 391 349 487 584 45 577 435 
547 9 489 75 621 564 53 33 557 57 233 
548 9 79 86 8 653 354 331 258 259 96 
549 9 562 578 329 350 385 101 105 49 206 
550 9 326 109 591 18 311 317 388 436 40 
551 9 91 406 601 108 357 38 211 80 288 
552 9 665 6 48 358 597 247 84 414 194 
553 9 43 351 521 103 554 157 41 282 663 
554 9 521 282 663 236 541 41 553 103 351 
555 9 133 518 200 451 394 608 95 433 205 
556 9 25 620 424 593 225 78 318 363 279 
557 9 53 33 621 489 14 60 564 547 203 
558 9 642 346 31 584 45 536 627 350 89 
559 9 36 569 582 603 361 213 70 459 392 
560 9 499 538 619 69 185 630 626 443 174 
561 9 17 403 417 37 271 330 161 291 66 
562 9 549 329 578 350 385 105 49 101 475 
563 9 171 396 239 207 400 210 661 517 85 
564 9 33 75 636 116 547 489 621 557 53 
565 9 459 582 362 232 36 269 277 252 419 
566 9 139 172 615 16 452 179 135 516 26 
567 9 586 455 575 437 4 384 22 509 181 
568 9 485 7 143 494 652 330 262 439 2 
569 9 213 392 603 361 559 263 610 36 70 
570 9 425 314 62 323 249 533 149 444 49 
571 8 511 647 649 618 295 598 110 490 
572 9 24 144 212 168 460 607 15 411 308 
573 9 148 383 121 657 334 454 61 255 229 
574 9 401 514 106 116 636 564 348 75 233 
575 9 586 567 437 455 384 22 4 181 509 
576 9 321 151 51 250 219 34 473 55 28 
577 9 391 371 217 546 536 218 221 369 52 
578 9 549 350 101 385 562 329 604 221 369 
579 9 328 87 534 40 528 114 466 169 10 
580 9 447 196 374 102 493 495 540 309 344 
581 9 605 98 668 21 507 182 191 516 122 
582 9 565 459 36 362 559 232 479 269 277 
583 9 205 510 152 272 664 518 523 555 613 
584 9 346 45 536 558 642 35 364 369 546 
585 9 123 468 339 44 276 192 285 211 69 
586 9 567 455 575 4 437 384 22 181 509 
587 9 253 639 39 481 494 143 99 6 366 
588 9 359 228 589 107 59 155 353 420 431 
589 9 359 588 228 155 258 360 256 59 502 
590 9 131 214 238 224 241 617 163 65 430 
591 9 18 550 326 109 311 317 388 436 67 
592 9 255 363 61 318 454 121 434 183 424 
593 9 225 25 556 424 11 620 190 286 318 
594 9 74 658 375 474 97 313 478 82 387 
595 9 423 222 376 81 410 120 324 301 345 
596 9 402 315 617 430 163 214 65 625 131 
597 9 358 267 408 398 2 644 194 48 439 
598 9 490 649 112 647 531 571 522 158 511 
599 9 45 35 364 130 346 115 584 546 268 
600 9 302 399 183 11 190 318 363 225 156 
601 9 108 357 656 285 276 91 38 192 211 
602 9 460 168 543 24 212 411 519 332 572 
603 9 361 263 569 213 392 559 610 36 158 
604 9 221 369 101 667 536 218 578 350 577 
605 9 98 581 637 191 516 122 182 469 113 
606 8 110 379 100 405 618 233 512 641 
607 9 144 572 610 15 377 24 212 484 308 
608 9 394 95 118 433 133 518 555 200 389 
609 9 178 72 208 202 67 416 436 500 297 
610 9 392 213 263 607 361 569 603 340 15 
611 9 240 435 487 349 52 217 130 275 546 
612 9 442 445 180 395 50 260 142 453 428 
613 9 664 64 504 319 523 298 462 510 426 
614 9 624 9 136 235 526 132 451 476 129 
615 9 139 566 172 516 179 191 16 452 135 
616 9 440 360 542 256 662 629 159 237 467 
617 9 163 65 238 214 596 402 131 430 590 
618 8 511 295 571 379 110 606 669 647 
619 9 69 560 538 499 630 185 626 174 293 
620 9 424 556 25 318 363 255 225 593 121 
621 9 489 53 547 557 33 564 75 544 60 
622 9 141 296 373 46 245 450 412 153 488 
623 8 378 283 150 669 295 124 269 511 
624 9 614 136 9 526 132 235 451 147 129 
625 9 315 317 596 550 591 402 326 109 18 
626 9 443 630 185 560 499 453 619 538 294 
627 9 89 444 105 31 319 504 642 558 533 
628 9 347 251 370 272 115 152 510 517 268 
629 9 159 181 384 22 437 509 4 498 440 
630 9 626 443 185 560 619 499 538 69 453 
631 9 333 291 644 271 267 398 161 417 66 
632 9 476 503 29 235 327 433 506 200 287 
633 9 431 155 70 59 256 588 513 589 107 
634 9 418 198 28 184 230 34 501 223 93 
635 9 120 324 495 413 335 301 493 310 102 
636 9 116 514 564 574 33 348 75 401 106 
637 9 98 191 605 516 469 113 122 581 182 
638 9 73 316 655 14 199 480 146 492 27 
639 9 366 39 325 422 99 587 247 197 665 
640 9 342 54 12 429 242 522 478 531 134 
641 9 512 176 461 100 405 278 57 524 137 
642 9 558 346 31 584 45 536 627 89 350 
643 9 126 650 450 264 532 535 245 373 622 
644 9 267 333 631 398 291 271 439 597 408 
645 9 140 260 453 294 162 475 443 142 626 
646 9 195 528 368 169 87 165 388 10 178 
647 8 649 571 598 511 112 490 618 110 
648 9 47 127 330 403 305 254 17 37 561 
649 9 647 598 112 571 490 511 531 618 522 
650 9 535 126 245 450 373 264 643 622 296 
651 9 166 71 209 231 174 471 293 19 261 
652 9 262 568 307 330 485 143 127 204 20 
653 9 79 259 86 548 8 354 666 96 331 
654 9 83 412 488 153 483 270 141 46 23 
655 9 146 27 638 496 296 23 441 525 46 
656 9 108 601 38 357 285 470 80 276 91 
657 9 334 573 426 148 274 383 121 556 620 
658 9 375 74 594 97 386 484 12 387 377 
659 9 266 199 85 316 280 300 239 480 73 
660 9 13 320 537 524 390 278 290 92 415 
661 9 370 268 275 347 517 207 281 251 563 
662 9 542 331 341 360 440 616 8 173 86 
663 9 282 41 521 554 381 541 351 236 175 
664 9 523 613 510 583 64 298 504 205 319 
665 9 247 6 552 197 325 84 481 48 194 
666 9 421 529 257 243 259 288 428 422 653 
667 9 218 604 101 206 107 221 369 577 59 
668 9 507 242 336 505 429 134 581 21 5 
669 8 283 150 623 378 295 618 106 401 
DEPOT_SECTION
   1
   -1
EOF
