NAME :  X-n641-kX-w256-c7.cctp
COMMENT : 	Adapted by Maziero, Usberti and Cavellucci from the Uchoa, Pecin, Pessoa, Poggi, Subramanian, and Vidal (2013)
TYPE :  CCTP
DIMENSION :    583
EDGE_WEIGHT_TYPE : 	EUC_2D	
CAPACITY : 	1381
VERTICES_WITHIN_COVERAGE :  7
VERTICES_WITH_DEMAND : 	256
NODE_COORD_SECTION
1 0 0
2 80 386
3 521 652
4 597 936
5 836 69
6 503 987
7 618 169
8 115 662
9 312 175
10 78 83
11 364 317
12 12 454
13 980 537
14 403 383
15 144 443
16 739 464
17 886 511
18 904 106
19 794 539
20 821 608
21 781 347
22 336 490
23 101 736
24 365 68
25 618 684
26 282 286
27 311 806
28 557 793
29 54 50
30 651 264
31 619 661
32 156 994
33 950 369
34 183 707
35 673 856
36 5 651
37 867 449
38 946 914
39 75 82
40 522 8
41 573 493
42 833 699
43 881 677
44 201 77
45 536 593
46 67 895
47 99 113
48 120 133
49 428 231
50 701 845
51 190 508
52 431 218
53 626 782
54 113 914
55 569 117
56 865 639
57 708 9
58 511 977
59 104 838
60 229 467
61 956 568
62 431 929
63 615 707
64 913 42
65 854 504
66 236 176
67 377 404
68 380 468
69 590 752
70 620 146
71 616 746
72 675 114
73 556 640
74 99 777
75 12 194
76 920 116
77 846 384
78 525 23
79 199 348
80 813 875
81 757 593
82 573 358
83 264 448
84 132 556
85 289 765
86 246 267
87 245 876
88 235 592
89 648 790
90 378 754
91 636 653
92 555 181
93 738 446
94 130 836
95 882 942
96 102 787
97 669 905
98 490 45
99 883 547
100 971 638
101 256 227
102 775 935
103 489 411
104 826 228
105 514 866
106 129 566
107 7 118
108 415 820
109 161 160
110 27 21
111 695 395
112 64 937
113 121 847
114 770 896
115 264 607
116 174 871
117 20 546
118 986 803
119 379 259
120 728 180
121 686 273
122 133 869
123 157 499
124 784 186
125 649 934
126 999 236
127 670 615
128 978 479
129 646 823
130 193 565
131 440 534
132 26 411
133 114 126
134 661 528
135 946 326
136 223 602
137 695 420
138 172 317
139 116 701
140 940 438
141 732 172
142 824 136
143 837 507
144 125 570
145 773 241
146 542 708
147 441 235
148 808 413
149 68 374
150 582 768
151 220 519
152 593 651
153 71 712
154 26 569
155 918 629
156 165 731
157 941 282
158 285 379
159 227 977
160 788 366
161 33 507
162 597 983
163 299 617
164 799 35
165 414 697
166 529 178
167 235 743
168 118 484
169 349 554
170 477 280
171 591 189
172 743 221
173 807 670
174 163 621
175 874 932
176 245 24
177 960 27
178 139 44
179 45 584
180 281 434
181 684 501
182 284 414
183 20 905
184 80 256
185 57 354
186 306 107
187 167 289
188 952 66
189 862 741
190 240 516
191 806 277
192 782 700
193 82 208
194 951 550
195 710 44
196 537 764
197 407 191
198 629 133
199 608 911
200 760 125
201 727 517
202 295 706
203 679 836
204 73 420
205 637 903
206 297 723
207 55 920
208 676 550
209 933 456
210 812 155
211 326 903
212 846 181
213 116 175
214 344 992
215 28 667
216 439 245
217 891 450
218 224 732
219 156 734
220 390 441
221 663 560
222 115 896
223 655 766
224 210 731
225 42 176
226 505 517
227 923 66
228 490 844
229 342 859
230 210 644
231 313 79
232 399 775
233 79 559
234 876 843
235 631 889
236 182 284
237 471 120
238 475 693
239 634 721
240 666 397
241 943 776
242 810 290
243 533 441
244 752 907
245 617 648
246 9 749
247 494 54
248 921 869
249 824 250
250 30 694
251 134 209
252 732 105
253 594 990
254 159 769
255 23 693
256 323 707
257 163 660
258 509 133
259 187 933
260 910 526
261 470 949
262 522 961
263 602 499
264 285 683
265 655 931
266 469 942
267 697 600
268 320 62
269 561 574
270 948 781
271 857 586
272 465 816
273 237 237
274 383 701
275 918 448
276 247 860
277 434 167
278 531 937
279 668 318
280 774 375
281 104 5
282 974 242
283 351 968
284 227 311
285 905 279
286 622 385
287 163 308
288 371 880
289 696 912
290 213 649
291 754 894
292 45 61
293 40 711
294 724 419
295 668 100
296 704 881
297 325 252
298 128 217
299 736 6
300 156 513
301 964 237
302 976 765
303 324 55
304 69 89
305 782 635
306 728 176
307 585 289
308 819 986
309 159 806
310 800 708
311 249 15
312 984 964
313 305 628
314 58 257
315 126 305
316 846 680
317 753 995
318 324 862
319 604 499
320 146 700
321 302 396
322 928 90
323 798 276
324 476 660
325 829 244
326 82 705
327 256 442
328 991 305
329 822 278
330 639 197
331 269 436
332 368 469
333 311 688
334 642 479
335 598 732
336 424 158
337 825 660
338 763 320
339 322 598
340 399 34
341 293 447
342 909 324
343 52 693
344 510 68
345 74 921
346 407 511
347 226 284
348 779 228
349 220 690
350 552 210
351 773 211
352 107 524
353 838 205
354 434 690
355 176 182
356 634 388
357 385 440
358 821 317
359 396 558
360 815 247
361 501 475
362 779 37
363 334 614
364 882 390
365 993 28
366 843 194
367 436 695
368 873 112
369 176 798
370 533 719
371 827 224
372 644 148
373 322 862
374 537 103
375 861 100
376 529 695
377 675 210
378 651 310
379 156 759
380 258 426
381 461 838
382 447 704
383 897 59
384 793 157
385 322 547
386 135 711
387 297 252
388 999 191
389 125 723
390 150 672
391 762 246
392 350 425
393 665 129
394 849 63
395 764 250
396 944 384
397 905 477
398 139 781
399 831 152
400 714 36
401 601 599
402 210 25
403 946 53
404 494 646
405 214 534
406 815 93
407 787 203
408 78 693
409 274 414
410 835 254
411 790 285
412 150 697
413 326 92
414 861 177
415 88 487
416 167 677
417 861 91
418 897 123
419 316 406
420 343 723
421 925 281
422 709 256
423 161 685
424 344 459
425 765 159
426 825 305
427 357 567
428 925 425
429 274 687
430 835 260
431 968 213
432 958 32
433 182 410
434 58 665
435 236 454
436 383 370
437 543 638
438 372 21
439 285 385
440 822 586
441 858 405
442 283 74
443 342 363
444 616 158
445 486 681
446 158 353
447 297 721
448 260 277
449 222 118
450 912 123
451 266 332
452 995 300
453 504 663
454 213 291
455 311 101
456 839 250
457 745 198
458 203 441
459 363 40
460 784 472
461 885 406
462 852 185
463 700 166
464 951 282
465 111 581
466 812 307
467 342 570
468 487 673
469 809 201
470 928 16
471 705 463
472 944 90
473 97 553
474 835 126
475 102 636
476 825 382
477 853 193
478 592 743
479 436 714
480 714 307
481 187 755
482 254 453
483 902 75
484 798 382
485 551 296
486 434 531
487 785 320
488 602 101
489 265 711
490 491 528
491 762 360
492 199 695
493 537 609
494 853 163
495 784 464
496 411 680
497 302 386
498 792 611
499 786 74
500 311 127
501 344 152
502 396 677
503 96 627
504 308 365
505 849 350
506 162 623
507 927 85
508 691 398
509 429 14
510 588 689
511 893 374
512 641 165
513 713 335
514 867 100
515 851 184
516 268 664
517 927 256
518 967 508
519 420 424
520 254 301
521 532 657
522 498 805
523 337 176
524 473 672
525 987 16
526 541 973
527 904 81
528 909 104
529 288 561
530 338 491
531 338 376
532 424 749
533 867 374
534 756 316
535 346 454
536 749 172
537 143 251
538 354 322
539 608 213
540 851 125
541 953 337
542 516 661
543 309 323
544 186 520
545 379 303
546 69 822
547 976 260
548 923 303
549 935 103
550 942 295
551 416 97
552 796 236
553 410 550
554 23 550
555 351 602
556 805 226
557 186 633
558 758 423
559 354 509
560 972 238
561 188 816
562 749 230
563 690 234
564 903 72
565 822 239
566 503 89
567 913 323
568 160 694
569 276 471
570 826 274
571 266 428
572 526 710
573 345 206
574 106 676
575 684 391
576 665 384
577 225 747
578 795 250
579 586 399
580 807 230
581 918 94
582 259 751
583 476 548
DEMAND_SECTION
2 59
3 87
4 98
5 73
6 70
7 64
8 98
9 87
10 99
11 78
12 68
13 99
14 53
15 56
16 66
17 67
18 74
19 86
20 75
21 71
22 87
23 87
24 66
25 71
26 75
27 62
28 78
29 83
30 63
31 95
32 52
33 57
34 58
35 65
36 86
37 85
38 58
39 84
40 92
41 50
42 72
43 76
44 79
45 58
46 100
47 94
48 86
49 70
50 80
51 75
52 86
53 95
54 94
55 79
56 97
57 56
58 88
59 72
60 58
61 64
62 51
63 84
64 71
65 95
66 68
67 75
68 95
69 95
70 63
71 63
72 65
73 88
74 84
75 68
76 67
77 98
78 72
79 61
80 73
81 84
82 65
83 87
84 94
85 90
86 50
87 87
88 96
89 51
90 84
91 93
92 68
93 71
94 74
95 84
96 70
97 52
98 77
99 98
100 77
101 99
102 100
103 62
104 96
105 69
106 74
107 88
108 85
109 59
110 86
111 69
112 53
113 79
114 70
115 53
116 51
117 50
118 70
119 66
120 88
121 76
122 52
123 57
124 57
125 100
126 95
127 51
128 76
129 51
130 75
131 66
132 84
133 91
134 81
135 88
136 57
137 66
138 82
139 68
140 85
141 91
142 54
143 75
144 54
145 75
146 84
147 57
148 58
149 74
150 67
151 77
152 51
153 50
154 84
155 100
156 79
157 96
158 78
159 97
160 66
161 62
162 50
163 63
164 67
165 68
166 72
167 98
168 79
169 100
170 96
171 92
172 66
173 87
174 92
175 86
176 52
177 93
178 95
179 81
180 67
181 54
182 55
183 76
184 62
185 96
186 65
187 50
188 84
189 53
190 87
191 75
192 66
193 55
194 94
195 72
196 78
197 75
198 87
199 50
200 86
201 87
202 55
203 92
204 82
205 93
206 62
207 59
208 74
209 52
210 92
211 58
212 80
213 87
214 100
215 71
216 97
217 82
218 88
219 95
220 74
221 68
222 85
223 95
224 53
225 100
226 93
227 75
228 67
229 56
230 89
231 52
232 54
233 51
234 100
235 50
236 84
237 53
238 81
239 53
240 96
241 75
242 64
243 71
244 97
245 66
246 62
247 70
248 82
249 79
250 89
251 63
252 50
253 86
254 89
255 65
256 53
257 67
COVERAGE_SECTION
2 7 149 204 185 132 446 15 315 
3 7 542 521 453 437 404 73 468 
4 7 199 162 125 205 253 235 265 
5 7 394 406 417 375 514 164 499 
6 7 58 262 526 261 266 278 253 
7 7 444 70 512 372 171 330 198 
8 7 574 475 390 139 503 257 408 
9 7 523 501 573 500 186 455 66 
10 7 39 304 47 292 29 133 48 
11 7 538 545 443 543 436 119 531 
12 7 132 161 204 415 117 2 554 
13 7 194 518 61 128 260 209 397 
14 7 436 67 519 220 357 443 531 
15 7 168 433 123 458 300 415 204 
16 7 93 471 495 558 460 294 201 
17 7 260 65 99 397 143 217 37 
18 7 528 418 581 76 450 527 322 
19 7 143 440 81 460 65 201 498 
20 7 440 498 271 305 337 56 173 
21 6 160 491 487 280 338 484 
22 7 530 559 424 535 332 68 385 
23 7 389 326 139 153 74 386 408 
24 7 459 303 268 413 340 438 231 
25 7 31 63 510 91 245 239 152 
26 7 448 520 387 86 543 451 297 
27 7 85 318 373 229 582 206 276 
28 7 150 196 69 522 478 53 335 
29 7 292 39 110 10 304 281 47 
30 7 121 378 563 279 377 422 539 
31 7 245 91 25 152 510 63 239 
32 7 259 159 54 222 112 345 116 
33 7 396 541 135 511 567 342 428 
34 7 492 568 156 423 412 416 224 
35 7 203 50 296 129 97 235 205 
36 7 215 255 250 434 343 293 179 
37 7 217 441 397 461 275 65 364 
38 7 248 312 95 175 234 118 270 
39 7 10 304 292 29 47 133 48 
40 7 78 98 247 344 566 509 374 
41 7 263 319 243 334 226 361 269 
42 7 316 310 173 337 189 192 43 
43 7 316 56 42 337 155 189 173 
44 7 449 402 176 178 311 442 109 
45 6 493 269 437 73 3 521 
46 7 345 207 112 183 222 54 59 
47 7 133 48 10 304 39 213 292 
48 7 133 47 213 109 10 304 39 
49 7 52 147 216 197 119 277 170 
50 7 203 35 296 129 289 97 291 
51 7 544 151 123 300 405 190 60 
52 7 49 147 216 197 277 336 119 
53 7 89 223 71 129 150 69 478 
54 7 222 345 122 46 112 207 113 
55 7 374 488 70 198 258 444 92 
56 7 43 316 337 20 155 271 173 
57 7 299 400 195 362 164 252 295 
58 7 6 262 526 278 261 266 253 
59 7 113 94 546 122 96 222 74 
60 7 435 482 327 458 83 569 190 
61 7 194 13 518 260 100 155 99 
62 7 266 261 288 283 6 58 262 
63 7 25 239 335 510 71 478 31 
64 7 383 227 470 564 403 483 527 
65 7 143 17 99 37 397 260 217 
66 7 101 355 449 273 9 109 500 
67 7 14 392 436 357 220 519 531 
68 7 332 357 220 424 535 530 22 
69 7 478 150 335 71 53 63 28 
70 7 444 198 7 372 512 393 488 
71 7 335 478 69 239 53 63 150 
72 7 295 393 372 198 252 463 512 
73 7 437 521 493 3 152 542 45 
74 7 96 398 23 546 379 389 59 
75 7 225 193 107 314 184 213 298 
76 7 450 528 18 549 581 418 322 
77 5 476 533 441 505 364 
78 7 40 98 247 344 566 374 509 
79 7 138 446 284 287 454 433 236 
80 7 114 291 244 102 234 175 95 
81 7 498 305 267 19 440 20 201 
82 7 579 286 485 356 307 243 378 
83 7 327 482 331 571 180 380 569 
84 7 106 144 465 473 352 300 233 
85 7 582 206 447 27 167 202 489 
86 7 448 347 273 520 26 101 454 
87 7 276 116 373 318 259 561 211 
88 7 136 115 130 230 290 529 405 
89 7 53 223 129 71 203 69 150 
90 7 232 532 420 274 165 479 256 
91 7 31 245 25 152 127 63 510 
92 7 166 350 171 539 7 444 55 
93 7 16 294 558 471 495 137 460 
94 7 113 59 122 309 96 116 398 
95 7 175 38 308 248 80 234 312 
96 7 74 398 546 23 59 94 254 
97 7 289 265 205 125 235 296 35 
98 7 247 344 78 566 40 509 374 
99 7 260 17 271 65 143 194 440 
100 7 155 61 194 43 13 56 271 
101 7 273 86 387 448 66 26 347 
102 7 244 114 291 317 308 80 289 
103 7 243 361 519 14 579 82 220 
104 7 371 565 325 580 556 249 360 
105 7 228 381 522 272 278 28 266 
106 7 144 84 465 473 352 233 300 
107 7 225 304 292 75 39 10 29 
108 7 232 381 272 532 288 90 228 
109 7 355 213 48 251 133 298 449 
110 7 29 292 39 281 10 304 107 
111 7 508 575 137 240 576 294 356 
112 7 207 345 46 54 183 222 122 
113 7 94 59 122 222 309 116 546 
114 7 291 244 102 80 296 289 50 
115 7 88 163 136 313 529 516 339 
116 7 122 94 561 113 259 222 309 
117 7 554 154 161 179 233 473 352 
118 7 302 270 241 248 234 38 189 
119 7 545 297 49 11 216 573 52 
120 7 306 141 536 457 463 425 172 
121 7 422 30 563 480 279 378 377 
122 7 113 222 94 116 59 54 309 
123 7 300 51 544 168 352 15 84 
124 6 407 351 469 384 425 536 
125 7 265 205 97 199 235 4 289 
126 7 282 560 547 301 431 388 452 
127 7 267 91 221 245 208 31 401 
128 7 518 209 140 13 275 397 194 
129 7 89 203 35 53 223 50 235 
130 7 405 544 136 88 151 51 84 
131 6 486 553 583 346 359 490 
132 7 12 204 149 2 185 161 415 
133 7 48 47 213 10 109 304 39 
134 7 208 221 181 334 319 263 201 
135 7 541 550 548 567 342 33 157 
136 7 88 115 230 130 290 557 174 
137 7 508 111 294 575 240 471 576 
138 7 287 187 236 446 79 315 454 
139 7 386 389 574 320 326 412 23 
140 7 209 428 275 217 397 396 128 
141 7 306 120 536 457 463 425 172 
142 7 474 399 210 540 384 494 406 
143 7 65 17 19 99 460 37 495 
144 7 106 84 465 473 233 352 174 
145 7 391 395 348 552 578 562 351 
146 7 370 572 376 510 521 542 196 
147 7 216 49 52 197 170 119 277 
148 7 484 476 77 160 280 441 558 
149 7 2 185 204 132 315 446 12 
150 7 69 478 28 335 71 196 53 
151 7 405 190 51 544 60 130 300 
152 7 245 31 510 73 25 91 437 
153 7 326 408 343 293 23 250 139 
154 7 554 117 179 233 161 473 36 
155 7 56 100 43 61 271 194 316 
156 7 219 379 34 481 320 386 412 
157 7 464 550 421 548 517 285 547 
158 7 439 497 321 504 182 409 419 
159 7 259 32 87 214 116 276 211 
160 6 280 484 21 491 476 487 
161 7 117 554 12 415 154 233 352 
162 7 253 4 526 125 199 262 265 
163 7 313 339 363 115 555 516 529 
164 7 362 499 5 394 406 299 417 
165 7 496 354 367 502 479 274 382 
166 7 92 350 258 171 55 374 237 
167 7 577 218 582 224 489 481 349 
168 7 415 352 123 300 15 473 84 
169 7 427 467 385 559 359 555 339 
170 7 216 147 49 485 52 119 545 
171 7 539 7 92 444 350 330 70 
172 7 562 457 391 351 145 395 348 
173 7 337 42 192 310 316 305 498 
174 7 506 557 257 230 390 416 290 
175 7 95 38 308 248 80 234 102 
176 4 311 402 442 44 
177 7 432 525 403 365 470 188 64 
178 7 281 44 10 402 39 47 304 
179 7 154 554 233 117 473 465 503 
180 7 331 571 341 182 409 83 380 
181 7 134 471 201 334 208 221 16 
182 7 409 180 571 321 331 380 439 
183 7 207 46 112 345 54 222 546 
184 7 314 193 298 537 315 251 213 
185 7 149 2 132 204 315 314 184 
186 7 455 500 413 231 442 268 303 
187 7 236 287 138 315 537 454 347 
188 7 403 472 227 507 322 432 177 
189 7 42 316 43 310 241 337 173 
190 7 151 405 60 51 544 569 435 
191 7 323 242 329 411 570 578 360 
192 7 310 173 42 337 305 316 189 
193 7 213 298 184 225 251 314 75 
194 7 61 13 518 260 99 17 128 
195 7 400 57 299 252 362 295 72 
196 7 28 150 370 69 572 146 522 
197 7 52 277 336 49 147 216 573 
198 7 70 372 444 512 393 7 488 
199 7 4 205 235 125 265 97 162 
200 7 252 425 384 536 141 499 210 
201 7 181 16 471 208 134 19 93 
202 7 447 206 333 264 256 429 489 
203 7 35 50 129 296 89 97 235 
204 7 2 149 132 185 415 12 15 
205 7 235 199 97 125 265 4 35 
206 7 447 202 256 489 333 264 85 
207 7 112 345 46 183 54 222 122 
208 7 221 134 181 267 201 127 334 
209 7 275 140 428 397 217 128 518 
210 7 384 399 142 474 124 494 212 
211 7 318 373 229 288 283 87 276 
212 6 515 462 366 477 414 494 
213 7 251 48 298 109 193 133 355 
214 7 283 211 62 288 159 318 373 
215 7 255 250 36 434 343 293 408 
216 7 147 49 52 170 119 197 277 
217 7 37 275 397 209 428 461 140 
218 7 224 577 167 582 349 481 492 
219 7 156 379 386 389 254 320 412 
220 7 357 68 519 332 67 392 535 
221 7 208 134 267 127 181 401 201 
222 7 54 122 46 345 113 59 94 
223 7 89 53 71 239 129 69 335 
224 7 218 577 167 481 34 492 349 
225 7 75 193 107 213 314 47 133 
226 7 490 361 583 131 41 486 269 
227 7 507 564 483 527 322 64 403 
228 7 381 105 272 522 108 28 196 
229 7 318 373 288 211 27 108 276 
230 7 290 557 136 349 257 174 492 
231 7 268 413 455 303 186 442 500 
232 7 90 532 108 479 274 420 272 
233 7 473 465 179 352 144 106 84 
234 7 248 80 175 241 270 95 38 
235 7 205 199 97 125 265 35 4 
236 7 187 287 454 138 347 537 284 
237 7 258 566 277 336 551 344 374 
238 7 445 524 468 382 324 367 354 
239 7 63 71 335 25 478 223 69 
240 7 576 575 508 111 356 137 286 
241 7 270 302 118 189 234 248 43 
242 7 191 329 466 323 411 426 570 
243 7 361 103 41 579 226 263 82 
244 7 291 114 102 296 289 80 50 
245 7 31 91 152 25 510 401 63 
246 7 293 255 250 343 153 215 326 
247 7 98 344 566 78 40 374 237 
248 7 38 234 175 95 270 118 241 
249 7 325 360 565 410 430 456 104 
250 7 255 293 343 215 434 153 408 
251 7 298 213 537 355 193 109 184 
252 7 200 72 499 425 295 195 141 
253 7 162 4 526 125 262 199 278 
254 7 379 398 481 369 219 309 156 
255 7 250 293 215 343 434 36 153 
256 7 333 420 202 447 206 264 429 
257 7 416 390 423 568 557 506 174 
258 7 237 374 566 166 55 344 92 
259 7 159 116 32 54 87 222 122 
260 7 17 99 194 397 65 518 61 
261 7 266 62 6 58 262 278 526 
262 7 58 526 278 6 261 266 162 
263 7 319 41 334 134 181 269 221 
264 7 429 202 516 333 489 447 206 
265 7 125 97 205 289 235 199 4 
266 7 261 62 58 6 262 278 526 
267 7 127 221 208 81 134 91 201 
268 5 303 231 413 442 455 
269 7 45 493 401 73 437 226 41 
270 7 241 302 118 248 189 234 43 
271 7 440 20 99 56 498 155 19 
272 7 381 522 228 108 105 232 532 
273 7 101 86 448 347 454 66 387 
274 7 502 165 496 420 354 90 367 
275 7 209 140 428 217 397 37 461 
276 7 87 116 561 373 318 27 211 
277 7 336 197 52 237 49 147 551 
278 7 262 526 58 6 261 266 4 
279 7 378 480 121 513 30 576 422 
280 7 160 491 484 21 148 476 558 
281 7 178 29 110 292 10 39 304 
282 6 560 301 547 126 431 464 
283 7 214 211 62 288 229 318 373 
284 7 454 347 520 451 79 448 86 
285 5 421 548 517 157 550 
286 7 356 579 576 240 82 575 508 
287 7 138 187 236 315 446 454 79 
288 7 229 318 211 373 108 62 283 
289 7 97 296 265 125 244 205 35 
290 7 230 557 349 136 492 257 416 
291 7 244 114 102 296 289 80 50 
292 7 29 39 304 10 110 107 47 
293 7 250 343 255 153 326 408 215 
294 7 137 93 558 111 508 16 471 
295 7 72 393 198 372 252 70 488 
296 7 289 50 35 97 203 291 244 
297 7 387 573 119 26 448 101 543 
298 7 251 537 213 193 355 184 109 
299 7 57 400 195 362 164 499 252 
300 7 123 544 51 168 84 352 106 
301 5 560 282 431 547 126 
302 7 270 241 118 189 248 100 234 
303 4 268 231 413 459 
304 7 39 10 292 47 29 133 48 
305 7 498 173 20 81 337 440 192 
306 7 120 141 536 457 463 425 172 
307 7 485 378 82 30 539 350 279 
308 7 102 317 95 175 114 244 80 
309 7 369 561 398 254 94 379 113 
310 7 192 42 173 316 337 189 305 
311 4 176 402 442 44 
312 7 38 95 248 175 118 234 308 
313 7 163 363 339 115 516 555 264 
314 7 184 193 75 298 225 315 537 
315 7 287 187 138 537 446 236 184 
316 7 42 337 43 173 56 310 189 
317 7 102 308 244 114 289 291 265 
318 7 373 229 211 288 27 276 87 
319 7 263 41 334 134 181 221 269 
320 7 412 568 386 423 390 139 389 
321 7 497 419 439 158 182 504 409 
322 7 507 581 549 472 528 227 527 
323 7 191 411 242 329 578 570 360 
324 6 524 468 404 445 453 238 
325 7 249 565 410 456 360 104 430 
326 7 153 408 343 139 23 574 293 
327 7 83 482 331 380 571 435 180 
328 7 452 464 547 135 541 550 157 
329 5 570 191 242 430 323 
330 7 512 7 539 377 444 171 372 
331 7 571 180 83 327 380 409 482 
332 7 68 424 535 357 220 530 22 
333 7 256 202 264 447 429 206 420 
334 7 319 263 181 134 471 41 137 
335 7 478 69 71 63 239 150 510 
336 7 277 197 52 237 551 49 147 
337 7 173 316 42 56 305 20 310 
338 6 534 487 21 491 411 466 
339 7 363 555 163 313 467 427 529 
340 5 438 459 509 24 551 
341 7 180 331 83 569 571 182 327 
342 5 567 548 135 550 285 
343 7 250 293 408 153 255 434 326 
344 7 247 566 98 374 78 40 237 
345 7 112 207 46 54 222 183 122 
346 7 486 553 131 359 68 559 332 
347 7 454 86 284 520 448 236 273 
348 6 145 351 552 391 407 556 
349 7 492 34 218 224 290 230 489 
350 7 92 166 171 539 7 444 307 
351 6 407 348 124 145 457 562 
352 7 473 84 168 415 233 106 144 
353 5 366 477 371 462 212 
354 7 367 382 165 479 496 502 238 
355 7 109 251 298 66 213 48 537 
356 7 286 576 240 579 575 508 111 
357 7 220 68 332 67 392 519 535 
358 3 426 466 242 
359 5 553 427 169 486 346 
360 7 249 565 325 580 578 410 104 
361 7 226 243 490 103 41 583 131 
362 7 164 499 299 5 400 406 195 
363 7 339 555 313 163 467 427 169 
364 5 461 511 533 441 77 
365 7 525 177 432 403 188 470 472 
366 5 477 353 212 462 515 
367 7 354 382 479 165 496 238 502 
368 7 514 375 417 418 540 18 528 
369 7 309 561 254 398 379 481 94 
370 7 572 146 376 196 445 542 521 
371 7 104 565 325 580 353 556 249 
372 7 512 198 70 393 444 7 72 
373 7 318 229 211 288 27 276 87 
374 7 55 566 258 344 247 488 237 
375 7 514 417 368 540 474 394 5 
376 7 572 146 370 542 521 453 3 
377 7 563 330 463 512 422 30 120 
378 7 279 30 121 480 513 307 576 
379 7 254 219 398 156 481 369 309 
380 7 571 331 327 409 83 180 482 
381 7 272 228 108 522 105 232 62 
382 7 367 479 354 238 165 524 496 
383 7 564 483 64 527 227 507 581 
384 7 210 425 124 142 399 200 407 
385 7 169 467 529 427 559 339 530 
386 7 320 389 139 412 568 219 156 
387 7 297 26 448 101 86 273 520 
388 4 431 126 560 282 
389 7 386 139 23 320 219 412 156 
390 7 423 257 416 568 412 320 8 
391 7 395 145 562 348 172 578 552 
392 7 535 67 424 357 419 220 332 
393 7 72 372 295 198 512 70 463 
394 7 5 417 375 514 406 383 483 
395 7 391 145 562 348 578 552 172 
396 7 33 428 541 511 140 135 364 
397 7 217 275 209 17 37 260 140 
398 7 254 379 309 96 74 369 219 
399 7 142 210 494 474 212 540 384 
400 7 195 57 299 362 252 295 499 
401 7 269 245 152 73 91 31 45 
402 6 176 311 44 178 442 449 
403 7 188 432 227 177 64 472 507 
404 6 453 324 542 3 468 524 
405 7 151 544 190 51 130 88 300 
406 7 5 499 474 142 394 417 375 
407 6 351 124 469 348 556 552 
408 7 326 153 343 574 434 139 293 
409 7 182 571 380 180 331 439 321 
410 5 430 456 249 325 565 
411 6 323 191 242 466 329 487 
412 7 320 568 423 386 390 416 34 
413 7 455 231 186 268 303 500 24 
414 4 462 515 212 494 
415 7 168 352 161 473 204 123 15 
416 7 423 257 390 568 412 320 34 
417 7 375 514 368 394 5 540 474 
418 6 450 18 528 76 368 581 
419 7 321 497 182 439 531 392 158 
420 7 256 206 274 447 90 333 202 
421 6 157 285 548 550 517 464 
422 7 121 563 562 172 480 391 395 
423 7 568 416 412 390 320 257 34 
424 7 535 332 22 530 392 68 357 
425 7 536 384 124 200 141 306 120 
426 3 358 466 242 
427 6 169 467 555 359 385 339 
428 7 140 275 209 217 461 396 364 
429 7 264 516 489 202 333 447 206 
430 5 410 456 249 325 570 
431 5 301 560 282 388 126 
432 7 177 403 525 470 188 365 64 
433 7 458 15 446 79 435 60 380 
434 7 343 215 408 250 255 326 153 
435 7 60 482 327 83 458 380 331 
436 7 14 67 443 531 11 538 392 
437 7 73 521 3 493 542 45 453 
438 3 459 340 24 
439 7 158 497 321 182 504 409 419 
440 7 20 271 498 19 305 81 56 
441 7 77 461 364 533 476 37 511 
442 6 231 268 455 186 303 413 
443 7 531 504 436 538 497 419 11 
444 7 7 70 512 198 372 171 330 
445 6 468 238 524 324 453 404 
446 7 138 79 287 315 433 187 236 
447 7 206 202 256 489 333 264 429 
448 7 86 26 520 347 387 273 284 
449 7 44 66 109 442 355 186 500 
450 7 76 418 18 528 549 581 322 
451 7 520 284 543 26 158 504 448 
452 7 328 547 464 550 135 541 157 
453 7 542 3 404 468 445 324 521 
454 7 347 284 236 86 520 187 138 
455 7 186 413 231 500 442 268 303 
456 5 410 430 325 249 565 
457 7 172 120 536 306 141 351 562 
458 7 435 60 433 482 327 380 15 
459 4 438 24 340 303 
460 7 495 16 93 558 143 148 19 
461 7 364 441 511 533 217 428 77 
462 6 515 212 477 414 366 494 
463 7 306 120 141 536 377 393 457 
464 7 157 550 421 547 517 548 135 
465 7 144 106 473 84 233 503 475 
466 4 358 426 242 487 
467 7 427 169 385 555 339 363 359 
468 6 445 524 324 453 238 404 
469 6 407 556 124 353 371 580 
470 7 64 177 432 403 227 383 188 
471 7 16 93 181 137 294 201 334 
472 7 322 549 507 188 581 227 76 
473 7 233 352 465 144 84 106 179 
474 7 142 540 399 210 375 406 368 
475 7 503 8 574 434 465 390 506 
476 7 77 484 148 160 441 505 533 
477 5 462 515 366 212 414 
478 7 69 335 71 150 63 239 53 
479 7 382 367 354 165 532 496 238 
480 6 513 534 121 279 338 422 
481 7 254 379 156 224 219 577 218 
482 7 83 327 435 331 380 569 571 
483 7 564 527 383 227 581 507 322 
484 7 160 280 476 148 21 491 77 
485 7 307 82 170 350 378 539 30 
486 6 131 553 346 583 359 490 
487 4 338 21 534 466 
488 7 55 198 70 444 372 374 295 
489 7 429 202 206 264 447 582 167 
490 6 226 583 131 361 486 45 
491 7 280 21 160 338 484 534 487 
492 7 34 349 416 224 423 568 218 
493 7 45 437 73 269 3 521 542 
494 4 414 212 515 462 
495 7 460 16 93 558 148 143 294 
496 7 502 165 354 367 274 479 382 
497 7 321 439 158 504 419 182 531 
498 7 305 20 81 440 337 173 271 
499 7 406 362 164 5 200 252 394 
500 7 186 455 413 501 9 231 523 
501 7 523 9 500 573 186 455 413 
502 6 496 165 274 354 367 479 
503 7 475 8 465 574 434 144 506 
504 7 497 158 439 321 531 443 419 
505 2 533 77 
506 7 174 557 257 390 230 416 290 
507 7 322 581 472 227 549 527 528 
508 7 111 575 137 240 576 294 356 
509 7 340 438 98 459 247 24 551 
510 7 25 63 152 31 335 146 245 
511 5 364 533 461 441 77 
512 7 372 7 444 70 330 198 393 
513 6 480 534 279 338 491 111 
514 7 375 417 368 540 18 418 394 
515 6 462 212 477 414 366 494 
516 7 429 264 489 333 202 313 349 
517 5 421 157 285 464 301 
518 7 128 13 194 260 61 209 397 
519 7 220 357 14 67 68 436 332 
520 7 448 284 26 347 451 86 454 
521 7 3 542 437 73 453 376 404 
522 7 272 228 381 196 28 105 108 
523 7 9 501 573 500 197 186 297 
524 6 324 468 445 238 453 404 
525 7 365 177 432 403 470 188 64 
526 7 262 58 278 6 253 162 4 
527 7 483 564 581 383 507 227 528 
528 7 18 581 76 450 418 322 527 
529 7 385 339 115 467 163 88 169 
530 7 22 559 424 332 535 68 385 
531 7 443 504 419 497 321 436 67 
532 7 232 479 90 382 165 367 354 
533 5 364 77 511 505 441 
534 6 338 487 21 480 491 411 
535 7 424 332 392 22 68 530 357 
536 7 141 306 425 120 457 124 351 
537 7 298 251 187 236 315 287 184 
538 7 11 545 443 543 436 531 504 
539 7 171 330 7 350 444 512 92 
540 7 474 368 375 142 514 399 417 
541 7 135 33 567 550 548 342 396 
542 7 3 453 521 404 468 437 376 
543 7 504 451 538 26 443 11 520 
544 7 51 300 405 151 123 130 190 
545 7 11 538 119 436 443 543 297 
546 7 59 96 74 113 94 46 122 
547 7 282 560 301 126 464 157 452 
548 7 550 421 567 342 157 285 135 
549 7 322 472 581 76 507 528 450 
550 7 157 464 548 421 135 285 567 
551 7 24 237 336 340 277 459 509 
552 6 556 580 578 348 360 145 
553 5 359 486 131 346 427 
554 7 117 154 179 161 233 473 352 
555 6 363 339 467 427 169 313 
556 6 580 552 104 565 371 360 
557 7 174 230 506 290 257 136 416 
558 7 93 294 16 495 148 280 460 
559 7 530 22 332 169 68 385 424 
560 5 282 301 547 431 126 
561 7 369 309 254 116 398 94 481 
562 7 172 391 395 145 348 351 457 
563 7 377 422 121 30 172 562 330 
564 7 483 527 383 227 507 581 322 
565 7 325 249 360 104 371 580 410 
566 7 344 247 374 258 237 98 78 
567 7 342 548 135 550 541 421 285 
568 7 423 412 320 416 390 34 386 
569 7 83 482 341 327 331 180 435 
570 6 329 430 191 410 242 249 
571 7 380 331 180 409 327 83 182 
572 7 370 376 146 445 542 453 521 
573 7 523 9 297 501 119 197 387 
574 7 8 139 408 326 475 390 386 
575 7 508 111 240 576 137 294 356 
576 7 240 575 508 356 111 286 137 
577 7 167 218 224 582 481 489 349 
578 7 552 360 580 145 323 556 348 
579 7 286 82 356 243 240 576 41 
580 6 556 552 565 104 360 371 
581 7 322 507 528 18 527 549 76 
582 7 167 85 577 218 489 206 447 
583 5 490 131 226 486 553 
DEPOT_SECTION
   1
   -1
EOF
