NAME :  X-n613-kX-w61-c7.cctp
COMMENT : 	Adapted by Maziero, Usberti and Cavellucci from the Uchoa, Pecin, Pessoa, Poggi, Subramanian, and Vidal (2013)
TYPE :  CCTP
DIMENSION :    360
EDGE_WEIGHT_TYPE : 	EUC_2D	
CAPACITY : 	523
VERTICES_WITHIN_COVERAGE :  7
VERTICES_WITH_DEMAND : 	61
NODE_COORD_SECTION
1 500 500
2 550 574
3 177 24
4 448 476
5 934 619
6 323 122
7 430 76
8 364 9
9 988 994
10 91 636
11 926 977
12 2 579
13 326 342
14 455 822
15 48 74
16 814 334
17 997 22
18 838 899
19 634 360
20 324 191
21 750 283
22 996 106
23 473 967
24 642 334
25 539 764
26 510 194
27 807 664
28 949 710
29 21 994
30 293 934
31 832 366
32 8 531
33 56 893
34 82 605
35 197 626
36 661 777
37 207 272
38 945 510
39 505 137
40 325 693
41 240 335
42 776 462
43 810 235
44 496 288
45 624 171
46 799 293
47 120 393
48 250 839
49 31 266
50 64 349
51 898 729
52 740 387
53 838 992
54 952 991
55 558 497
56 695 240
57 622 113
58 670 95
59 967 595
60 926 470
61 665 284
62 753 558
63 946 61
64 820 415
65 565 786
66 768 573
67 799 203
68 33 134
69 973 751
70 308 651
71 677 737
72 245 311
73 743 248
74 265 806
75 851 403
76 467 83
77 556 270
78 131 426
79 329 945
80 64 997
81 761 475
82 248 366
83 80 598
84 739 585
85 933 751
86 319 201
87 734 286
88 118 342
89 951 973
90 303 313
91 716 302
92 151 409
93 89 361
94 679 788
95 233 266
96 994 524
97 566 501
98 226 827
99 691 293
100 338 332
101 905 714
102 46 71
103 594 419
104 419 783
105 852 847
106 194 344
107 60 343
108 777 993
109 859 247
110 292 982
111 247 618
112 133 392
113 986 490
114 864 343
115 594 73
116 531 156
117 809 947
118 864 805
119 843 335
120 477 878
121 940 551
122 183 69
123 540 551
124 281 990
125 604 224
126 650 349
127 998 2
128 570 808
129 216 820
130 436 349
131 427 927
132 997 108
133 324 213
134 369 115
135 177 280
136 539 753
137 81 372
138 43 527
139 765 671
140 31 906
141 854 983
142 835 330
143 982 681
144 650 227
145 975 485
146 287 6
147 446 24
148 530 474
149 700 542
150 305 9
151 12 340
152 285 858
153 498 952
154 444 51
155 888 591
156 927 591
157 199 357
158 257 625
159 757 346
160 559 164
161 56 937
162 559 96
163 415 7
164 782 493
165 972 719
166 267 937
167 699 405
168 286 936
169 628 240
170 977 737
171 487 328
172 57 916
173 810 409
174 314 201
175 661 104
176 550 234
177 215 853
178 318 722
179 253 617
180 90 662
181 909 472
182 308 910
183 994 964
184 181 279
185 891 448
186 610 312
187 330 146
188 725 274
189 517 304
190 835 254
191 901 434
192 493 583
193 512 311
194 592 403
195 949 560
196 426 413
197 200 557
198 44 99
199 823 681
200 958 756
201 913 482
202 73 713
203 4 687
204 717 349
205 622 359
206 114 595
207 485 245
208 412 21
209 682 188
210 555 691
211 671 173
212 55 117
213 242 124
214 22 470
215 166 675
216 269 813
217 66 302
218 65 382
219 744 458
220 370 159
221 155 263
222 9 995
223 136 611
224 925 459
225 585 137
226 473 176
227 748 261
228 141 431
229 208 624
230 653 811
231 62 951
232 805 374
233 204 284
234 139 39
235 800 483
236 516 93
237 489 103
238 468 780
239 999 143
240 509 745
241 515 461
242 791 479
243 821 266
244 459 481
245 417 102
246 57 886
247 991 595
248 962 506
249 210 596
250 133 673
251 353 675
252 834 675
253 146 650
254 305 987
255 301 687
256 308 224
257 821 189
258 45 279
259 907 598
260 659 823
261 326 19
262 92 368
263 29 271
264 804 619
265 369 215
266 325 240
267 297 819
268 102 896
269 20 818
270 850 667
271 916 759
272 401 140
273 364 57
274 590 605
275 924 977
276 315 879
277 78 1
278 36 243
279 153 0
280 812 506
281 481 68
282 705 785
283 16 596
284 974 675
285 503 914
286 431 112
287 728 560
288 623 149
289 879 709
290 404 453
291 838 272
292 646 185
293 520 843
294 337 149
295 607 588
296 575 511
297 952 72
298 818 942
299 688 326
300 547 662
301 423 507
302 93 4
303 699 23
304 762 595
305 48 7
306 586 171
307 391 990
308 860 942
309 562 289
310 779 980
311 305 733
312 661 798
313 954 975
314 888 912
315 69 618
316 244 362
317 72 937
318 793 569
319 582 43
320 73 425
321 979 684
322 911 888
323 921 111
324 737 414
325 830 426
326 546 141
327 741 233
328 305 814
329 690 548
330 449 506
331 491 754
332 252 82
333 278 918
334 734 467
335 410 836
336 61 872
337 408 85
338 83 627
339 550 809
340 711 338
341 515 998
342 946 604
343 61 580
344 785 575
345 474 76
346 817 685
347 607 31
348 43 337
349 417 480
350 693 31
351 749 418
352 30 362
353 945 714
354 234 361
355 165 386
356 87 989
357 597 528
358 401 969
359 146 661
360 910 977
DEMAND_SECTION
2 97
3 2
4 30
5 91
6 63
7 99
8 78
9 50
10 2
11 58
12 1
13 3
14 99
15 28
16 32
17 10
18 1
19 75
20 55
21 75
22 31
23 38
24 34
25 62
26 25
27 12
28 63
29 43
30 100
31 58
32 45
33 68
34 38
35 31
36 91
37 59
38 4
39 43
40 48
41 31
42 84
43 43
44 51
45 37
46 48
47 26
48 97
49 39
50 42
51 64
52 50
53 5
54 98
55 66
56 65
57 24
58 74
59 59
60 40
61 57
62 23
COVERAGE_SECTION
2 7 123 274 192 295 357 296 97 
3 5 279 234 122 302 332 
4 5 244 330 349 301 290 
5 6 342 156 259 59 155 195 
6 7 187 294 134 220 20 273 86 
7 7 337 154 245 286 76 345 281 
8 7 261 273 208 163 150 146 147 
9 7 183 54 313 89 11 275 360 
10 7 338 180 315 34 83 206 223 
11 7 275 360 89 313 54 9 183 
12 7 283 32 343 138 315 83 34 
13 2 100 90 
14 5 238 335 104 120 293 
15 4 102 198 212 68 
16 6 142 119 31 232 46 114 
17 5 127 63 297 22 132 
18 6 298 308 314 105 117 322 
19 6 205 126 24 186 194 299 
20 7 86 174 133 256 294 187 266 
21 7 87 227 188 73 91 46 327 
22 7 132 239 297 63 323 17 127 
23 4 153 341 131 285 
24 7 126 19 205 186 299 61 99 
25 7 136 65 240 339 331 128 238 
26 7 226 116 39 160 176 207 326 
27 6 199 346 252 139 270 264 
28 7 353 165 170 321 284 85 101 
29 7 222 80 231 356 161 317 172 
30 7 168 333 166 182 79 110 254 
31 7 232 119 142 16 114 75 173 
32 5 138 12 214 283 343 
33 7 246 336 172 140 161 268 317 
34 7 83 315 338 10 343 206 223 
35 7 229 249 111 253 179 215 158 
36 6 94 312 230 71 282 260 
37 6 233 95 184 135 221 72 
38 7 248 145 121 201 60 113 195 
39 7 116 237 326 236 226 26 160 
40 5 255 178 251 70 311 
41 6 72 316 354 82 106 157 
42 7 81 242 164 219 235 334 351 
43 6 190 243 67 291 257 109 
44 6 189 193 171 207 77 309 
45 7 288 292 306 211 225 125 57 
46 7 243 16 291 21 142 190 43 
47 7 112 78 92 262 228 137 93 
48 7 98 216 74 177 129 152 267 
49 5 263 258 278 217 348 
50 7 107 348 93 137 218 262 352 
51 7 101 289 271 85 353 28 200 
52 6 324 351 159 204 167 340 
53 7 141 117 298 308 310 108 360 
54 7 313 89 11 275 9 360 183 
55 6 97 296 148 357 241 123 
56 7 188 144 327 73 61 99 209 
57 7 288 175 225 115 58 45 162 
58 7 175 57 350 288 211 303 115 
59 7 342 247 195 156 5 121 259 
60 7 224 181 201 185 38 191 145 
61 7 99 299 56 91 24 169 144 
62 7 66 287 84 344 304 318 149 
63 4 297 323 17 22 
64 6 173 325 75 232 31 42 
65 5 128 339 25 136 240 
66 6 344 62 304 318 84 287 
67 2 257 43 
68 3 212 198 15 
69 7 170 200 165 85 353 28 271 
70 5 255 40 251 158 179 
71 3 36 94 282 
72 7 41 95 233 316 354 37 82 
73 7 227 327 188 21 87 56 91 
74 6 216 267 48 328 98 129 
75 5 325 64 173 31 232 
76 7 345 281 237 7 154 286 236 
77 7 309 176 189 193 44 125 186 
78 5 228 92 112 47 355 
79 6 30 182 168 254 110 333 
80 7 356 29 231 222 161 317 172 
81 7 42 219 164 334 242 235 351 
82 5 316 354 41 157 72 
83 7 34 315 343 338 206 10 223 
84 5 304 287 62 66 344 
85 7 271 200 353 69 51 28 101 
86 7 174 20 133 256 266 265 294 
87 6 188 21 91 227 73 99 
88 5 93 262 137 47 112 
89 7 313 54 11 275 360 9 183 
90 3 13 100 72 
91 6 87 99 188 340 299 21 
92 5 228 112 78 355 47 
93 7 262 137 50 218 107 88 47 
94 6 36 312 282 230 260 71 
95 6 37 233 72 184 135 41 
96 7 113 248 145 38 195 121 247 
97 6 55 296 357 148 123 241 
98 5 129 48 177 74 216 
99 6 91 61 299 188 87 340 
100 2 13 90 
101 7 51 289 353 28 85 271 165 
102 5 15 198 212 68 305 
103 3 194 205 19 
104 3 238 14 335 
105 4 118 18 322 314 
106 5 157 354 41 355 316 
107 7 50 348 93 137 352 218 217 
108 4 310 117 53 298 
109 4 190 291 243 43 
110 5 124 254 168 30 166 
111 6 179 158 229 249 35 70 
112 7 47 92 355 78 228 262 88 
113 7 145 248 96 38 60 224 201 
114 4 119 142 31 16 
115 6 319 162 347 57 225 175 
116 7 326 160 39 26 225 306 226 
117 5 298 310 308 53 18 
118 3 105 271 51 
119 5 142 114 16 31 232 
120 3 285 293 14 
121 6 195 38 156 248 59 342 
122 4 3 234 332 279 
123 6 2 296 97 55 192 357 
124 5 110 254 168 166 30 
125 7 169 144 176 306 45 292 77 
126 7 24 19 205 299 186 340 61 
127 5 17 63 297 22 132 
128 5 339 65 25 293 136 
129 4 98 177 48 74 
130 4 171 196 193 44 
131 2 358 23 
132 6 22 239 297 63 323 17 
133 6 86 174 256 20 266 265 
134 7 272 220 6 294 337 187 245 
135 5 184 233 221 37 95 
136 7 25 240 65 331 339 128 210 
137 7 262 93 218 50 107 47 88 
138 5 32 343 214 12 283 
139 1 27 
140 7 33 172 246 161 336 317 231 
141 7 53 308 298 360 117 275 11 
142 5 119 16 114 31 46 
143 7 321 284 165 28 353 170 69 
144 7 169 292 125 56 209 211 61 
145 7 113 248 38 96 60 224 201 
146 7 150 261 8 332 273 3 6 
147 6 154 208 163 7 281 345 
148 4 241 55 97 296 
149 4 329 287 62 84 
150 7 146 261 8 273 332 208 163 
151 6 352 348 107 50 217 218 
152 7 276 48 267 216 328 74 182 
153 3 23 285 341 
154 6 147 7 76 345 281 208 
155 3 259 156 5 
156 6 259 342 5 195 155 59 
157 5 106 354 316 355 41 
158 6 179 111 229 249 70 35 
159 6 204 52 340 232 16 91 
160 7 326 306 116 225 26 39 45 
161 7 231 317 172 140 33 246 80 
162 7 115 236 326 225 319 57 116 
163 6 208 147 8 154 7 273 
164 7 242 235 81 42 280 219 334 
165 7 170 28 353 69 321 143 200 
166 5 168 333 30 182 110 
167 4 324 52 351 204 
168 6 30 166 333 182 79 110 
169 7 144 125 61 292 56 45 186 
170 7 69 165 200 28 353 85 321 
171 4 193 189 44 130 
172 7 161 33 317 140 246 231 336 
173 6 64 325 232 75 31 351 
174 7 86 20 133 256 266 187 265 
175 7 58 57 288 211 115 45 350 
176 7 77 125 309 26 207 160 306 
177 3 98 129 48 
178 4 311 40 255 251 
179 6 111 158 229 249 35 70 
180 6 10 338 250 315 202 359 
181 6 201 60 224 185 191 38 
182 6 30 333 276 168 79 166 
183 6 9 313 89 54 11 275 
184 5 135 233 37 221 95 
185 5 191 181 224 201 60 
186 6 24 205 309 19 126 61 
187 7 294 6 220 20 134 86 174 
188 7 87 227 21 91 73 99 327 
189 5 193 44 171 309 77 
190 5 243 291 109 43 46 
191 5 185 224 181 60 201 
192 2 123 2 
193 5 189 44 171 309 77 
194 3 103 205 19 
195 6 121 156 59 342 38 247 
196 5 290 130 4 349 244 
197 3 249 229 35 
198 4 212 15 102 68 
199 7 346 252 27 270 139 289 264 
200 7 69 85 170 165 271 353 28 
201 6 181 60 224 185 38 191 
202 4 180 250 203 10 
203 6 202 180 283 315 338 10 
204 6 340 299 159 52 91 167 
205 6 19 126 24 186 194 103 
206 7 223 34 83 338 10 315 343 
207 7 44 26 176 189 226 193 77 
208 7 163 147 154 8 7 273 337 
209 6 211 292 144 56 45 288 
210 4 300 136 240 25 
211 7 209 292 45 288 144 175 56 
212 3 198 68 15 
213 4 332 6 122 187 
214 2 138 32 
215 5 359 253 250 35 229 
216 6 74 267 48 328 98 152 
217 5 258 107 348 50 263 
218 7 137 262 93 50 107 352 320 
219 6 334 81 42 351 324 242 
220 7 294 272 187 134 20 265 6 
221 4 135 184 37 233 
222 7 29 80 231 161 356 317 140 
223 7 206 253 10 359 34 338 83 
224 6 60 181 201 191 185 38 
225 7 306 160 326 288 57 162 45 
226 7 26 39 116 207 237 286 272 
227 7 73 21 188 87 327 91 56 
228 5 78 92 112 47 355 
229 7 35 249 111 179 158 215 197 
230 4 260 312 36 94 
231 7 161 317 172 356 80 140 33 
232 7 31 173 16 64 142 75 119 
233 6 37 184 135 95 72 221 
234 5 3 279 122 302 277 
235 7 242 164 280 42 81 219 325 
236 7 237 162 281 39 345 76 326 
237 7 236 76 345 281 39 286 7 
238 7 331 14 104 240 25 136 335 
239 5 132 22 323 297 63 
240 5 331 136 25 238 65 
241 4 148 55 244 97 
242 7 235 164 42 81 280 219 334 
243 5 190 291 43 46 109 
244 5 4 330 349 301 241 
245 7 286 337 7 272 134 76 154 
246 7 33 336 172 140 268 161 317 
247 7 59 342 195 5 156 121 96 
248 7 38 145 113 96 121 60 201 
249 6 229 35 197 111 179 158 
250 5 359 253 215 180 10 
251 4 40 70 255 178 
252 6 199 270 346 27 289 264 
253 7 359 250 215 223 35 10 180 
254 5 110 124 79 30 168 
255 5 40 70 178 311 251 
256 6 133 266 174 86 20 265 
257 2 67 43 
258 5 263 49 217 278 348 
259 5 155 156 5 342 121 
260 4 230 312 94 36 
261 7 150 8 146 273 208 163 332 
262 7 93 137 218 50 88 47 107 
263 5 49 258 278 217 348 
264 5 27 304 344 318 66 
265 6 133 20 266 86 220 174 
266 6 256 133 86 174 20 265 
267 5 328 216 74 152 48 
268 2 33 246 
269 3 336 246 33 
270 6 252 199 346 27 289 264 
271 7 85 51 200 101 353 69 28 
272 7 220 134 245 286 337 294 7 
273 7 8 337 261 134 208 7 245 
274 4 295 2 300 123 
275 7 11 360 89 313 54 9 141 
276 6 182 152 333 30 267 168 
277 7 302 305 234 279 102 15 3 
278 4 49 263 258 217 
279 6 3 234 302 122 277 305 
280 5 235 164 242 42 81 
281 6 345 76 237 154 236 7 
282 5 94 36 312 71 230 
283 7 12 343 315 83 32 34 138 
284 7 143 321 28 165 353 170 5 
285 3 153 120 23 
286 7 245 337 7 272 76 345 237 
287 6 62 84 149 329 66 304 
288 7 45 57 225 292 306 211 175 
289 7 101 51 270 252 271 199 346 
290 5 349 196 4 301 244 
291 5 190 243 109 46 43 
292 7 45 211 209 144 288 125 169 
293 5 339 120 128 14 65 
294 7 187 6 220 20 134 86 174 
295 3 274 2 357 
296 6 97 55 357 123 148 2 
297 5 63 323 22 132 17 
298 6 117 308 18 53 310 141 
299 6 340 99 91 204 126 24 
300 4 210 274 2 136 
301 4 330 349 4 244 
302 7 277 305 234 279 102 15 3 
303 2 350 58 
304 5 66 84 344 62 318 
305 7 277 302 102 15 198 234 279 
306 7 160 225 45 288 326 125 116 
307 5 358 131 79 23 254 
308 7 141 314 298 18 117 53 360 
309 6 77 189 186 193 176 44 
310 4 108 117 298 53 
311 3 178 40 255 
312 5 230 36 94 260 282 
313 7 89 54 11 275 9 183 360 
314 5 322 308 18 360 105 
315 7 338 34 83 10 343 180 206 
316 5 82 354 41 157 72 
317 7 161 231 172 33 140 268 246 
318 5 344 66 304 62 264 
319 6 347 115 162 57 236 225 
320 4 218 137 47 78 
321 7 143 284 165 28 353 170 69 
322 3 314 105 18 
323 3 297 63 22 
324 6 351 52 167 219 334 42 
325 6 64 173 75 232 31 235 
326 7 116 160 225 39 162 306 236 
327 6 73 227 188 56 21 87 
328 5 267 216 74 152 48 
329 4 149 287 84 62 
330 4 301 244 4 349 
331 5 240 238 136 25 14 
332 4 213 122 6 146 
333 5 168 30 166 182 276 
334 5 219 81 42 351 324 
335 2 14 104 
336 5 246 33 172 140 268 
337 7 245 7 286 134 154 273 272 
338 7 10 315 34 83 180 206 343 
339 5 128 65 293 25 136 
340 6 204 299 91 159 99 52 
341 3 153 23 285 
342 7 5 59 156 259 195 247 121 
343 7 83 34 315 283 338 206 138 
344 6 318 66 304 62 84 264 
345 6 76 281 237 154 7 236 
346 5 199 252 27 270 139 
347 6 319 115 162 57 350 58 
348 7 107 50 352 151 217 218 93 
349 5 301 290 4 330 244 
350 4 303 58 175 347 
351 7 324 52 219 334 42 167 81 
352 6 151 348 50 107 218 137 
353 7 28 165 85 170 101 200 321 
354 5 316 82 41 157 106 
355 7 92 112 157 47 106 228 78 
356 5 80 231 317 161 29 
357 4 296 97 55 123 
358 4 307 131 23 79 
359 6 253 250 215 223 180 10 
360 7 275 11 89 54 313 141 308 
DEPOT_SECTION
   1
   -1
EOF
