NAME :  X-n655-kX-w130-c11.cctp
COMMENT : 	Adapted by Maziero, Usberti and Cavellucci from the Uchoa, Pecin, Pessoa, Poggi, Subramanian, and Vidal (2013)
TYPE :  CCTP
DIMENSION :    624
EDGE_WEIGHT_TYPE : 	EUC_2D	
CAPACITY : 	5
VERTICES_WITHIN_COVERAGE :  11
VERTICES_WITH_DEMAND : 	130
NODE_COORD_SECTION
1 500 500
2 346 793
3 692 966
4 171 666
5 287 795
6 133 668
7 704 959
8 400 795
9 195 897
10 845 931
11 829 724
12 300 860
13 218 829
14 116 780
15 237 631
16 126 681
17 825 922
18 315 913
19 271 769
20 530 917
21 156 900
22 265 808
23 171 742
24 388 776
25 153 664
26 393 855
27 320 751
28 594 862
29 213 810
30 723 924
31 192 877
32 661 910
33 153 729
34 334 812
35 558 944
36 502 783
37 266 747
38 23 753
39 180 584
40 702 854
41 354 649
42 412 709
43 721 928
44 168 674
45 364 640
46 375 727
47 247 977
48 332 853
49 664 929
50 646 901
51 248 723
52 116 628
53 123 690
54 247 539
55 715 966
56 314 712
57 237 747
58 202 679
59 409 946
60 684 879
61 142 576
62 204 636
63 440 817
64 697 882
65 772 977
66 177 889
67 341 787
68 391 725
69 82 764
70 734 834
71 352 732
72 646 553
73 102 631
74 354 612
75 374 865
76 421 812
77 335 835
78 646 931
79 560 910
80 702 965
81 273 790
82 329 750
83 300 586
84 850 855
85 235 683
86 393 953
87 389 923
88 341 851
89 781 946
90 329 862
91 472 873
92 356 895
93 194 733
94 53 777
95 133 596
96 606 971
97 273 812
98 223 812
99 156 820
100 317 650
101 177 790
102 389 747
103 663 944
104 336 940
105 284 739
106 737 977
107 249 956
108 433 852
109 294 856
110 285 879
111 280 818
112 175 885
113 295 747
114 669 902
115 763 969
116 138 632
117 193 593
118 220 818
119 145 800
120 739 960
121 72 672
122 752 940
123 639 894
124 329 726
125 799 987
126 118 343
127 660 917
128 382 741
129 242 626
130 164 824
131 350 881
132 509 886
133 190 416
134 72 656
135 353 659
136 132 677
137 364 771
138 893 900
139 140 645
140 411 757
141 397 805
142 171 644
143 260 816
144 764 980
145 149 657
146 769 855
147 716 925
148 191 843
149 566 966
150 620 908
151 358 727
152 268 705
153 406 927
154 139 943
155 192 762
156 549 931
157 177 664
158 433 707
159 301 753
160 120 764
161 178 664
162 109 751
163 318 529
164 419 952
165 309 737
166 289 787
167 350 812
168 88 794
169 151 658
170 185 883
171 603 872
172 342 708
173 317 747
174 579 988
175 329 555
176 361 731
177 37 706
178 394 558
179 154 745
180 324 703
181 370 912
182 727 900
183 383 694
184 151 679
185 149 654
186 144 638
187 269 635
188 212 842
189 217 644
190 250 597
191 835 953
192 620 949
193 324 910
194 344 793
195 176 922
196 370 746
197 204 682
198 262 830
199 328 484
200 385 931
201 706 957
202 201 655
203 300 737
204 379 791
205 728 720
206 296 858
207 154 613
208 663 942
209 135 908
210 805 910
211 646 872
212 113 692
213 349 554
214 290 737
215 430 668
216 588 977
217 236 656
218 370 871
219 286 727
220 89 671
221 136 667
222 195 761
223 377 846
224 375 728
225 269 763
226 235 694
227 452 826
228 281 909
229 215 585
230 325 707
231 419 817
232 392 704
233 152 544
234 136 580
235 643 996
236 198 731
237 155 556
238 345 859
239 99 666
240 519 722
241 168 757
242 295 824
243 676 800
244 229 686
245 772 941
246 294 729
247 637 926
248 464 795
249 346 681
250 327 758
251 665 965
252 98 690
253 852 860
254 770 889
255 124 598
256 235 831
257 680 969
258 323 800
259 525 931
260 120 772
261 839 978
262 214 652
263 660 965
264 297 626
265 236 738
266 148 850
267 138 699
268 336 773
269 190 648
270 119 620
271 198 853
272 288 514
273 888 888
274 165 542
275 682 934
276 794 844
277 759 985
278 416 819
279 724 966
280 403 812
281 270 789
282 482 818
283 69 537
284 734 946
285 346 556
286 644 943
287 681 943
288 323 765
289 514 782
290 141 713
291 624 870
292 625 952
293 356 923
294 356 576
295 328 801
296 185 648
297 287 633
298 689 956
299 645 958
300 137 895
301 299 975
302 448 752
303 348 642
304 151 631
305 675 910
306 245 776
307 434 705
308 283 804
309 889 924
310 187 781
311 486 662
312 350 844
313 519 720
314 720 924
315 259 800
316 514 712
317 421 818
318 174 765
319 750 969
320 481 831
321 281 600
322 141 959
323 299 730
324 320 840
325 341 651
326 365 730
327 789 953
328 680 906
329 145 740
330 304 810
331 290 741
332 467 973
333 600 980
334 288 613
335 309 761
336 153 907
337 335 809
338 989 940
339 176 655
340 759 975
341 345 821
342 658 971
343 749 841
344 380 754
345 316 640
346 177 803
347 133 650
348 254 803
349 293 782
350 493 855
351 102 745
352 226 806
353 147 600
354 437 837
355 262 671
356 310 738
357 146 594
358 864 905
359 271 792
360 317 845
361 407 563
362 469 986
363 693 918
364 235 641
365 405 833
366 617 890
367 508 893
368 712 984
369 577 895
370 225 550
371 171 397
372 391 780
373 418 845
374 155 768
375 135 553
376 381 894
377 383 713
378 631 842
379 313 899
380 777 738
381 289 831
382 699 923
383 323 706
384 309 774
385 232 689
386 232 654
387 540 966
388 137 742
389 205 693
390 178 829
391 203 663
392 354 767
393 212 657
394 370 890
395 300 820
396 142 643
397 274 816
398 358 665
399 152 815
400 522 768
401 232 688
402 179 630
403 359 620
404 276 725
405 269 741
406 300 881
407 234 495
408 848 971
409 141 576
410 158 722
411 140 687
412 293 767
413 250 870
414 571 769
415 236 891
416 142 766
417 470 860
418 409 941
419 293 643
420 219 907
421 381 689
422 186 778
423 298 706
424 149 681
425 745 731
426 314 700
427 252 792
428 218 889
429 286 867
430 331 662
431 817 976
432 210 767
433 60 635
434 290 814
435 356 864
436 377 751
437 759 947
438 209 914
439 348 823
440 600 940
441 283 741
442 219 943
443 334 754
444 245 914
445 333 697
446 700 975
447 354 815
448 281 903
449 393 876
450 313 794
451 116 629
452 350 746
453 457 836
454 723 793
455 322 922
456 182 725
457 612 984
458 276 788
459 337 871
460 157 712
461 180 718
462 110 751
463 478 864
464 198 713
465 97 782
466 245 799
467 366 753
468 705 860
469 251 740
470 331 736
471 678 955
472 170 770
473 310 710
474 138 651
475 299 520
476 253 784
477 314 735
478 238 903
479 753 794
480 116 779
481 25 788
482 115 837
483 191 605
484 39 803
485 269 809
486 333 845
487 103 581
488 390 849
489 678 973
490 368 739
491 218 733
492 698 973
493 742 935
494 338 814
495 272 632
496 96 621
497 200 778
498 741 911
499 728 990
500 374 755
501 628 922
502 713 842
503 426 574
504 243 643
505 736 891
506 379 850
507 348 845
508 370 701
509 281 761
510 121 730
511 405 747
512 722 827
513 380 638
514 192 679
515 323 680
516 194 723
517 391 872
518 754 984
519 319 838
520 289 917
521 466 764
522 409 807
523 302 908
524 140 817
525 303 803
526 479 913
527 42 548
528 349 834
529 702 995
530 686 901
531 379 698
532 659 924
533 362 867
534 290 701
535 289 978
536 239 744
537 312 820
538 742 986
539 195 565
540 339 789
541 191 700
542 341 972
543 259 794
544 200 725
545 219 685
546 378 793
547 329 846
548 326 617
549 640 793
550 317 866
551 279 817
552 942 960
553 369 728
554 688 978
555 190 881
556 136 608
557 184 611
558 85 689
559 507 533
560 326 860
561 279 803
562 688 984
563 653 911
564 360 747
565 319 744
566 390 741
567 252 873
568 104 721
569 363 911
570 667 910
571 185 714
572 896 805
573 73 709
574 324 725
575 258 810
576 233 734
577 794 896
578 84 667
579 692 953
580 299 858
581 193 780
582 647 844
583 427 680
584 227 914
585 57 738
586 708 994
587 249 792
588 283 655
589 263 686
590 105 706
591 241 837
592 312 704
593 199 748
594 370 882
595 227 644
596 331 670
597 295 836
598 59 723
599 201 647
600 249 655
601 183 835
602 343 587
603 285 816
604 770 930
605 354 804
606 331 901
607 817 995
608 172 670
609 397 950
610 317 783
611 391 900
612 309 797
613 324 959
614 437 695
615 77 613
616 361 894
617 721 986
618 272 770
619 688 871
620 708 917
621 380 847
622 359 931
623 83 847
624 185 712
DEMAND_SECTION
2 1
3 1
4 1
5 1
6 1
7 1
8 1
9 1
10 1
11 1
12 1
13 1
14 1
15 1
16 1
17 1
18 1
19 1
20 1
21 1
22 1
23 1
24 1
25 1
26 1
27 1
28 1
29 1
30 1
31 1
32 1
33 1
34 1
35 1
36 1
37 1
38 1
39 1
40 1
41 1
42 1
43 1
44 1
45 1
46 1
47 1
48 1
49 1
50 1
51 1
52 1
53 1
54 1
55 1
56 1
57 1
58 1
59 1
60 1
61 1
62 1
63 1
64 1
65 1
66 1
67 1
68 1
69 1
70 1
71 1
72 1
73 1
74 1
75 1
76 1
77 1
78 1
79 1
80 1
81 1
82 1
83 1
84 1
85 1
86 1
87 1
88 1
89 1
90 1
91 1
92 1
93 1
94 1
95 1
96 1
97 1
98 1
99 1
100 1
101 1
102 1
103 1
104 1
105 1
106 1
107 1
108 1
109 1
110 1
111 1
112 1
113 1
114 1
115 1
116 1
117 1
118 1
119 1
120 1
121 1
122 1
123 1
124 1
125 1
126 1
127 1
128 1
129 1
130 1
131 1
COVERAGE_SECTION
2 11 194 67 540 605 167 337 295 34 268 494 447 
3 11 492 80 298 257 446 554 579 7 489 201 471 
4 11 608 157 161 44 339 25 142 169 296 145 184 
5 11 166 308 561 458 349 81 359 281 525 434 603 
6 11 221 136 16 347 474 145 25 411 169 184 185 
7 11 201 80 55 579 3 298 492 446 279 554 257 
8 11 141 522 280 372 204 24 546 76 231 278 317 
9 11 170 555 31 66 438 112 428 420 195 584 21 
10 11 17 191 358 408 210 309 261 431 138 327 273 
11 10 380 425 205 479 572 276 454 84 253 343 
12 10 580 206 109 429 550 406 360 110 597 560 
13 11 118 188 256 98 29 352 591 148 271 601 390 
14 11 480 260 160 465 162 416 462 168 119 69 351 
15 11 129 364 504 595 189 386 217 600 262 187 62 
16 9 136 53 6 411 212 221 267 424 184 
17 11 10 210 191 577 358 327 89 408 431 245 604 
18 11 193 455 379 523 606 520 104 228 406 448 293 
19 11 618 225 509 281 458 81 412 37 359 476 166 
20 11 259 156 79 367 132 35 387 526 369 149 350 
21 11 336 300 209 66 112 195 170 9 555 31 154 
22 11 485 575 97 143 315 348 397 543 561 359 551 
23 11 241 179 456 33 318 410 93 329 461 472 155 
24 11 372 204 546 8 344 137 500 436 102 140 141 
25 11 169 145 185 184 221 424 4 44 6 474 608 
26 10 488 506 621 517 223 75 449 365 373 218 
27 11 173 565 82 250 288 443 335 356 477 165 159 
28 11 171 291 366 369 378 150 211 123 582 79 50 
29 11 98 118 352 13 256 188 466 497 581 346 310 
30 11 314 43 147 620 493 498 182 382 284 363 122 
31 11 555 170 66 112 9 271 428 148 188 420 438 
32 11 570 127 563 114 305 532 50 49 328 78 123 
33 7 410 329 179 460 290 388 23 
34 11 337 494 295 341 167 258 439 447 194 2 605 
35 11 156 149 387 79 259 20 440 216 174 369 96 
36 11 289 400 248 282 521 320 302 240 313 227 414 
37 11 405 225 469 441 105 509 19 404 618 331 214 
38 11 481 585 94 598 177 484 69 573 168 351 465 
39 11 117 483 539 557 229 357 353 237 61 207 409 
40 11 468 502 619 64 60 512 70 343 505 530 182 
41 11 303 135 45 325 398 430 513 403 596 249 74 
42 11 158 232 307 68 377 614 183 583 531 421 511 
43 11 30 314 147 620 284 493 382 498 182 363 122 
44 11 608 4 157 161 25 184 424 339 169 145 514 
45 11 41 303 513 403 135 325 398 74 430 548 249 
46 11 224 553 326 490 176 68 128 377 151 196 566 
47 11 107 535 442 301 444 584 520 438 420 478 228 
48 11 486 547 88 90 560 238 360 77 324 507 459 
49 11 532 127 208 103 78 32 275 570 563 287 305 
50 11 123 563 32 127 114 570 532 150 247 501 211 
51 11 469 265 576 536 57 152 404 405 37 226 491 
52 11 451 270 73 496 116 347 556 139 186 396 255 
53 9 16 212 136 267 411 6 590 252 221 
54 11 370 407 272 475 229 190 539 321 83 163 117 
55 11 279 7 80 201 446 368 492 617 3 106 120 
56 11 473 592 383 230 426 180 574 423 124 323 477 
57 11 536 265 576 469 491 51 37 306 405 432 225 
58 10 197 514 389 391 545 202 393 541 161 244 
59 11 418 164 609 86 153 200 87 611 181 622 293 
60 11 619 64 530 114 328 468 40 305 570 32 211 
61 11 409 234 357 95 237 375 353 255 556 233 39 
62 11 599 189 269 202 262 296 393 595 402 391 364 
63 11 227 317 76 354 231 278 453 248 522 108 373 
64 11 60 619 530 468 40 328 114 182 305 363 620 
65 11 144 115 340 277 518 319 125 327 538 89 437 
66 11 112 170 555 31 9 21 336 195 300 428 438 
67 11 540 194 2 268 295 605 258 337 392 610 34 
68 11 377 46 224 566 128 232 102 553 42 326 511 
69 11 465 351 162 168 462 94 585 480 14 160 260 
70 11 512 343 502 40 468 146 454 479 505 619 64 
71 11 151 176 326 452 490 553 564 470 196 224 46 
72 5 559 205 311 425 316 
73 11 496 52 451 270 615 239 116 347 134 139 255 
74 11 403 602 548 45 303 294 41 513 325 135 345 
75 11 218 533 506 594 435 517 223 621 26 449 488 
76 11 231 317 278 522 280 63 141 365 8 354 373 
77 11 486 547 528 324 507 519 88 312 341 48 439 
78 11 247 286 532 49 127 208 501 103 563 32 299 
79 11 369 156 20 35 259 440 367 132 149 171 28 
80 11 7 201 492 3 446 55 298 579 554 368 257 
81 11 281 359 458 561 5 543 166 308 315 485 22 
82 11 443 250 27 173 565 470 288 452 477 356 335 
83 11 321 334 264 548 175 602 297 190 495 285 345 
84 11 253 273 358 276 138 572 577 210 17 10 309 
85 11 401 244 385 226 545 217 589 386 355 197 600 
86 11 609 59 418 200 164 153 87 622 181 293 569 
87 11 200 153 181 611 418 609 569 59 86 376 622 
88 11 48 238 507 486 312 547 90 77 560 528 435 
89 11 245 327 604 437 115 122 65 340 144 319 493 
90 11 560 48 459 550 88 238 547 486 360 324 507 
91 11 463 417 350 132 453 367 526 320 108 354 227 
92 11 616 131 394 569 594 181 376 606 218 293 533 
93 11 236 516 544 456 593 464 461 571 624 491 23 
94 11 481 484 69 38 168 585 465 598 351 162 14 
95 11 255 556 357 353 234 61 409 207 270 487 52 
96 11 333 457 216 192 292 174 440 149 299 235 286 
97 11 397 485 551 22 111 561 308 603 143 575 434 
98 11 118 352 29 13 256 466 591 188 348 587 427 
99 11 399 130 524 119 390 346 266 601 101 148 482 
100 11 345 430 325 596 419 264 515 303 297 548 588 
101 11 310 346 422 581 472 318 497 374 155 119 222 
102 11 566 128 344 436 511 500 196 68 490 46 140 
103 11 208 49 287 286 471 532 78 251 263 275 299 
104 11 613 455 622 293 193 542 18 606 569 181 379 
105 11 441 214 331 219 113 246 405 203 404 323 37 
106 11 538 319 499 120 279 518 617 340 277 55 368 
107 11 47 442 444 535 584 301 478 520 228 420 438 
108 11 354 373 453 227 365 63 317 278 231 417 26 
109 9 206 580 12 429 597 110 360 381 550 
110 11 429 406 12 206 448 109 580 228 379 523 567 
111 11 551 603 397 97 434 308 485 561 242 381 22 
112 11 66 170 555 31 9 21 336 195 271 300 428 
113 11 159 331 203 214 441 105 165 323 356 246 335 
114 11 570 305 32 328 127 530 563 50 532 49 60 
115 11 340 144 65 319 277 518 437 120 106 538 89 
116 11 186 396 139 304 347 474 52 270 451 556 185 
117 11 483 39 557 229 539 402 62 207 353 357 237 
118 11 98 13 29 352 256 188 591 466 348 148 575 
119 11 399 524 99 130 346 101 374 416 14 480 260 
120 11 319 284 279 106 122 437 55 340 493 115 538 
121 11 578 134 220 558 239 252 573 433 212 590 177 
122 11 437 493 284 245 604 120 319 89 115 498 30 
123 11 50 366 563 211 150 32 291 501 114 127 247 
124 11 574 470 477 230 56 383 565 172 356 165 71 
125 11 607 431 65 327 144 115 277 261 340 89 518 
126 10 371 133 407 283 233 274 375 237 527 370 
127 11 32 532 563 570 49 114 305 78 50 328 208 
128 11 566 102 436 196 344 490 224 46 500 68 553 
129 11 15 364 504 595 187 190 386 600 189 217 495 
130 11 99 390 399 601 346 524 119 266 148 101 271 
131 11 92 459 616 435 533 594 218 394 238 90 606 
132 11 367 350 20 463 91 526 417 259 79 156 320 
133 10 371 407 126 274 233 54 370 272 237 375 
134 11 121 578 220 433 239 558 73 496 252 615 52 
135 11 398 41 325 303 45 430 249 596 513 100 515 
136 10 16 6 221 411 53 424 184 267 212 25 
137 11 392 467 500 344 436 564 24 204 196 546 2 
138 11 273 309 358 10 253 84 17 552 191 408 210 
139 11 396 474 186 347 116 185 145 169 304 221 25 
140 11 511 102 566 24 372 344 128 436 302 500 68 
141 11 280 8 522 546 204 278 76 231 372 317 365 
142 11 339 296 402 269 157 161 4 169 185 304 145 
143 11 575 22 485 97 198 348 397 315 551 111 543 
144 11 277 340 65 115 518 319 538 106 120 437 125 
145 11 169 185 25 474 139 221 396 347 6 186 184 
146 11 343 276 254 70 577 505 512 502 182 479 498 
147 11 314 43 30 620 382 363 182 284 493 498 201 
148 11 601 271 390 188 13 130 31 118 555 29 170 
149 11 35 216 174 387 333 156 96 440 457 259 79 
150 11 501 366 123 247 50 563 78 291 440 171 32 
151 11 176 71 326 553 490 46 224 564 452 196 172 
152 10 589 404 534 51 219 423 226 246 355 405 
153 11 418 87 59 200 609 164 86 611 181 376 569 
154 11 322 209 336 195 21 300 66 112 9 170 438 
155 11 222 593 422 318 497 581 432 310 472 241 23 
156 11 35 20 79 259 387 149 369 440 367 132 216 
157 11 161 4 608 339 44 296 142 269 514 25 202 
158 11 307 614 42 583 215 232 68 302 511 377 183 
159 11 113 335 203 331 412 173 356 165 27 214 565 
160 11 260 14 462 480 162 416 351 388 465 510 329 
161 11 157 4 608 339 44 296 269 142 514 25 202 
162 11 462 351 160 260 510 388 480 14 69 568 465 
163 11 475 175 272 285 213 199 83 294 602 54 321 
164 11 59 418 609 86 153 200 87 332 611 362 181 
165 11 356 477 203 323 565 173 113 246 27 159 214 
166 11 349 5 458 81 308 281 359 561 412 525 612 
167 9 447 605 341 439 494 337 34 2 194 
168 11 465 14 69 480 94 260 160 162 462 484 351 
169 11 145 185 25 474 139 221 396 347 6 184 186 
170 11 555 31 66 112 9 271 21 428 438 148 195 
171 11 28 291 366 369 150 378 123 211 50 582 501 
172 11 445 230 180 383 124 151 574 71 249 56 426 
173 11 565 27 356 82 477 165 250 335 159 443 470 
174 11 216 333 149 96 457 387 35 440 192 292 156 
175 11 285 213 163 294 602 83 475 272 74 548 178 
176 11 326 151 71 553 490 224 46 564 196 452 128 
177 11 598 573 585 38 121 558 134 578 220 252 590 
178 9 361 503 294 213 285 602 175 74 403 
179 11 329 33 23 388 241 374 410 416 318 472 460 
180 11 383 230 426 445 592 56 473 172 574 515 124 
181 11 569 293 616 376 87 92 394 622 200 611 594 
182 11 505 498 30 314 620 147 43 64 382 363 493 
183 11 421 531 232 508 377 68 42 46 224 553 398 
184 8 424 411 25 44 136 221 6 169 
185 11 145 169 25 474 139 396 347 186 221 6 304 
186 11 396 116 139 304 474 347 185 145 169 207 25 
187 10 495 297 588 419 504 129 600 264 334 15 
188 11 13 271 148 118 256 591 601 29 98 390 352 
189 11 262 595 393 62 599 364 386 202 217 15 391 
190 11 129 321 15 229 334 495 187 364 504 83 297 
191 11 408 10 261 431 17 327 607 125 210 89 358 
192 11 292 440 286 96 299 501 247 78 457 333 150 
193 11 18 606 455 379 523 104 92 293 520 406 131 
194 11 2 540 67 605 295 337 167 34 258 268 494 
195 11 336 21 9 66 438 112 170 154 209 555 420 
196 11 490 467 436 500 564 128 344 176 326 553 102 
197 9 58 389 514 545 391 541 244 393 202 
198 11 143 397 575 97 551 22 111 485 591 256 381 
199 9 163 475 272 175 213 285 407 294 54 
200 11 87 153 609 86 181 418 622 59 293 569 611 
201 11 7 80 55 579 3 298 492 446 279 368 471 
202 11 391 599 393 262 269 296 62 189 58 161 339 
203 11 323 165 214 246 356 113 331 477 105 159 219 
204 11 546 372 24 8 141 137 605 280 2 522 194 
205 9 425 380 454 479 243 11 512 70 549 
206 9 109 580 12 429 550 597 406 110 360 
207 11 353 304 556 357 116 95 186 402 557 396 255 
208 11 103 49 287 532 286 78 471 275 251 263 299 
209 11 300 336 21 154 195 66 112 322 170 266 9 
210 11 577 17 604 254 89 10 245 327 191 358 437 
211 11 291 123 582 50 366 378 114 60 563 32 619 
212 11 53 252 590 16 136 267 411 558 239 568 6 
213 11 285 175 294 602 163 178 74 83 361 475 403 
214 11 331 105 441 246 203 113 219 323 404 159 165 
215 11 583 614 307 158 42 232 421 183 311 513 531 
216 11 333 174 96 149 457 440 192 35 292 387 235 
217 11 386 600 364 504 595 189 262 393 15 85 355 
218 11 75 533 594 435 394 517 131 506 449 376 616 
219 11 246 404 214 105 323 441 331 203 113 405 423 
220 11 578 239 121 558 252 134 212 16 590 53 573 
221 11 6 136 145 474 16 25 169 347 185 184 424 
222 11 155 593 432 497 422 581 318 310 241 472 93 
223 7 621 506 488 26 75 218 533 
224 11 46 553 326 490 176 128 68 151 377 196 566 
225 11 19 618 509 37 405 412 281 441 458 476 81 
226 11 385 401 244 85 545 589 389 51 197 152 355 
227 11 453 63 354 320 282 108 317 248 76 231 278 
228 11 448 520 523 110 18 379 406 444 429 193 455 
229 11 117 539 483 39 370 190 557 129 15 62 54 
230 11 383 180 56 426 445 592 473 172 574 124 423 
231 11 317 278 76 522 280 63 365 141 354 373 8 
232 11 183 377 531 421 42 68 508 46 224 553 326 
233 11 237 274 375 61 409 234 539 39 357 95 353 
234 11 409 61 95 357 255 353 375 556 237 487 207 
235 9 342 457 263 251 299 489 96 257 333 
236 10 93 544 516 456 593 464 491 571 461 624 
237 11 233 274 375 61 409 234 39 357 539 353 95 
238 11 88 435 48 459 507 90 312 486 533 560 547 
239 11 220 578 252 558 121 134 212 16 6 53 73 
240 11 313 316 400 289 36 311 521 414 302 614 158 
241 11 318 472 23 374 179 155 222 416 422 329 310 
242 9 395 381 434 597 603 111 330 537 551 
243 10 549 454 512 582 502 40 378 70 468 619 
244 11 385 401 85 226 545 197 389 58 217 386 393 
245 11 89 604 437 122 327 115 493 65 319 340 120 
246 11 323 219 214 203 331 105 441 165 113 356 404 
247 11 78 501 286 532 563 127 150 49 50 32 192 
248 11 282 521 63 227 36 320 453 76 302 317 231 
249 11 596 398 445 135 515 430 172 325 180 508 41 
250 11 82 288 443 27 173 565 268 335 470 384 159 
251 10 263 342 489 257 471 103 299 208 298 554 
252 11 558 212 590 220 239 53 578 16 573 121 568 
253 11 84 273 358 138 276 17 577 210 572 10 309 
254 11 577 146 505 498 210 604 182 276 245 343 122 
255 11 95 556 234 357 270 353 487 61 409 52 451 
256 11 591 13 118 98 188 198 352 143 29 575 348 
257 11 489 3 554 471 251 298 562 492 263 579 446 
258 11 295 450 612 337 34 610 540 525 330 494 67 
259 11 20 156 35 387 79 367 132 526 149 369 332 
260 11 160 480 14 416 462 162 465 351 388 374 119 
261 11 408 431 191 607 125 10 327 17 89 65 309 
262 11 393 189 202 599 595 391 386 62 217 269 364 
263 10 251 342 299 257 489 103 471 208 286 287 
264 11 297 334 419 345 495 187 548 100 321 588 83 
265 11 576 536 57 469 51 491 37 405 544 593 236 
266 11 99 130 524 399 482 390 601 112 148 300 66 
267 4 411 290 53 424 
268 11 67 288 540 250 392 443 610 2 194 82 27 
269 11 296 599 202 339 62 142 161 391 157 402 262 
270 11 52 451 73 556 116 255 496 95 186 139 347 
271 11 148 188 601 31 555 13 390 170 112 118 428 
272 11 475 163 54 199 407 175 285 83 213 370 321 
273 11 138 358 309 253 84 10 17 572 191 210 552 
274 11 233 237 375 539 61 409 39 234 357 117 353 
275 11 287 49 363 382 103 208 471 579 298 305 532 
276 11 146 343 254 577 84 253 70 479 210 512 505 
277 11 518 144 340 65 115 538 319 106 499 120 437 
278 11 231 317 76 522 280 365 63 141 373 354 8 
279 11 55 120 106 201 617 7 80 284 368 499 319 
280 11 522 141 278 8 231 76 317 365 546 204 372 
281 11 81 359 458 543 315 561 5 427 476 166 618 
282 11 320 248 227 453 350 36 63 417 463 289 354 
283 11 527 487 375 615 234 255 409 61 233 95 237 
284 11 493 120 122 43 279 30 437 314 55 147 319 
285 11 213 175 294 602 163 178 83 74 475 361 548 
286 11 78 299 247 103 208 292 49 532 192 501 263 
287 11 275 471 298 579 103 208 49 3 257 251 382 
288 11 250 27 268 335 82 443 384 173 610 565 159 
289 11 36 400 282 521 248 414 320 240 313 316 302 
290 4 267 460 410 33 
291 11 171 366 211 123 378 28 582 50 150 563 501 
292 11 192 286 299 96 440 247 78 501 457 263 333 
293 11 622 569 181 104 92 616 200 87 606 455 193 
294 11 602 285 213 175 74 178 403 548 361 83 163 
295 11 258 337 34 494 540 450 194 67 612 2 610 
296 11 269 339 142 599 161 202 157 402 62 4 391 
297 10 264 419 495 187 334 588 345 100 321 548 
298 11 579 3 471 7 287 80 257 201 492 489 446 
299 10 286 263 342 251 292 103 208 78 192 247 
300 11 209 21 336 112 66 266 195 154 170 555 9 
301 11 535 613 542 104 47 107 455 520 18 523 228 
302 11 521 140 511 248 158 307 42 614 102 566 36 
303 11 41 325 45 135 398 403 430 74 100 345 513 
304 11 186 116 396 139 207 185 142 474 145 347 169 
305 11 328 570 114 32 530 127 363 532 49 563 275 
306 11 476 587 427 466 543 19 225 281 315 348 618 
307 11 158 614 42 583 215 232 68 302 511 183 377 
308 11 561 5 434 603 97 111 551 397 485 81 359 
309 11 138 358 273 10 191 408 17 552 253 261 84 
310 11 422 581 101 497 155 472 318 222 346 432 241 
311 10 215 316 614 583 307 313 240 158 42 302 
312 9 507 528 88 238 77 486 48 435 439 
313 11 240 316 400 289 36 311 521 414 302 307 614 
314 11 30 43 147 620 382 182 493 498 284 363 122 
315 11 348 543 22 575 427 485 587 359 466 143 281 
316 11 313 240 311 400 289 521 36 302 614 307 158 
317 11 231 278 76 522 63 280 365 354 141 373 8 
318 11 472 241 155 422 374 222 310 23 581 101 179 
319 11 340 115 120 106 518 144 277 538 65 437 279 
320 11 282 453 350 227 417 463 248 63 91 354 36 
321 11 334 83 190 264 495 297 187 419 129 548 345 
322 11 154 195 209 336 21 300 66 442 112 9 438 
323 11 246 203 214 165 219 331 356 477 105 113 441 
324 9 519 360 547 486 77 48 560 537 88 
325 11 303 41 135 430 596 398 100 45 345 249 515 
326 11 176 553 151 490 46 224 71 196 564 128 452 
327 11 89 245 65 604 115 437 125 431 144 340 122 
328 11 305 530 114 570 363 32 127 382 60 563 49 
329 11 388 179 33 410 23 416 510 290 241 374 460 
330 11 525 395 537 612 434 242 450 603 258 308 5 
331 11 214 105 441 113 203 246 323 219 159 165 356 
332 11 362 164 526 59 418 259 387 609 153 86 20 
333 11 96 216 457 174 149 192 292 440 235 299 35 
334 11 321 264 297 495 187 83 419 548 345 190 588 
335 11 159 384 27 288 173 412 250 113 565 82 356 
336 11 21 209 300 195 66 112 154 170 9 555 31 
337 11 34 494 295 167 258 341 194 2 439 447 540 
338 11 552 309 138 273 358 10 408 191 261 253 84 
339 11 157 161 296 4 142 269 608 44 25 169 202 
340 11 115 144 277 518 319 65 538 106 120 437 499 
341 8 439 167 494 447 34 528 337 77 
342 9 263 251 299 489 257 471 103 208 235 
343 11 70 146 512 502 276 479 468 40 254 505 454 
344 11 436 500 102 128 196 467 566 490 564 24 137 
345 11 100 419 264 548 325 430 297 303 596 588 41 
346 11 101 310 130 390 99 422 399 581 119 601 472 
347 11 474 139 396 185 186 145 221 6 116 169 25 
348 11 315 575 466 543 427 22 587 143 485 476 359 
349 11 166 5 412 384 458 81 612 450 525 281 308 
350 11 463 417 320 91 132 282 367 453 227 354 108 
351 11 162 462 510 568 160 69 260 388 465 480 14 
352 11 98 118 29 466 13 256 587 348 427 575 315 
353 11 357 556 95 207 234 255 61 409 304 116 270 
354 11 108 227 63 453 373 317 231 278 76 365 417 
355 9 589 600 588 85 217 386 401 504 152 
356 11 165 477 203 173 565 323 27 113 159 246 574 
357 11 353 95 234 556 61 409 207 255 39 270 304 
358 11 138 273 309 10 17 253 84 191 210 408 577 
359 11 81 281 458 543 315 561 5 22 308 485 166 
360 9 324 519 547 486 48 560 77 90 550 
361 9 178 503 294 213 285 602 74 403 175 
362 11 332 164 59 387 526 418 259 609 86 153 20 
363 11 382 620 328 530 275 305 147 570 287 314 114 
364 11 504 595 15 386 217 129 189 600 262 393 62 
365 11 278 373 231 280 317 488 26 76 522 141 621 
366 11 150 291 123 171 50 211 501 28 369 247 563 
367 11 132 20 526 91 350 259 463 417 79 156 320 
368 11 617 586 446 529 499 55 492 80 279 562 554 
369 11 79 171 28 366 150 156 440 20 35 291 501 
370 11 54 539 229 190 117 39 407 274 483 237 233 
371 10 133 126 407 274 233 237 375 54 370 272 
372 11 24 204 8 546 141 137 344 140 500 436 522 
373 11 108 365 354 278 26 317 231 488 76 63 280 
374 11 416 472 241 318 179 329 23 101 388 422 119 
375 11 233 237 61 409 234 274 357 95 487 255 353 
376 11 394 611 594 616 181 449 517 92 218 569 75 
377 11 232 68 46 531 224 508 183 553 421 326 128 
378 11 582 291 211 171 28 366 549 123 50 243 619 
379 11 18 523 193 606 406 455 520 448 550 110 228 
380 9 425 205 11 479 454 70 512 276 343 
381 9 597 242 111 395 603 434 551 397 97 
382 11 363 620 147 275 314 43 30 328 530 287 305 
383 11 230 180 56 426 592 445 473 172 574 124 423 
384 11 610 335 288 412 349 450 159 612 166 250 27 
385 11 401 244 226 85 545 389 197 589 58 217 355 
386 11 217 595 364 504 600 189 262 393 15 85 129 
387 11 149 35 156 259 174 216 20 79 333 440 96 
388 11 329 179 510 33 416 160 462 162 290 410 374 
389 9 197 58 541 545 514 464 244 385 401 
390 11 601 130 148 99 346 399 271 188 266 101 13 
391 11 202 393 58 262 599 197 514 269 296 189 161 
392 11 137 467 268 452 564 500 67 443 196 2 540 
393 11 262 202 391 189 599 386 595 62 58 217 269 
394 11 594 616 376 92 218 131 181 569 611 533 75 
395 9 242 330 434 537 381 603 525 597 111 
396 11 139 186 474 347 116 185 304 145 169 25 221 
397 11 97 551 111 485 603 22 143 561 308 434 575 
398 11 135 41 249 325 303 45 430 596 421 513 183 
399 11 99 524 130 119 346 390 101 266 601 482 374 
400 11 289 36 240 313 414 521 316 248 282 320 302 
401 11 385 244 85 226 545 389 197 58 589 217 355 
402 11 142 296 557 269 339 62 304 483 599 207 202 
403 11 74 45 303 513 41 548 325 602 135 294 398 
404 11 219 105 405 441 214 246 331 152 37 323 203 
405 11 37 441 105 404 469 214 331 219 225 509 113 
406 11 110 429 12 379 206 550 580 109 523 448 560 
407 11 54 370 272 475 539 274 133 163 229 199 233 
408 11 261 191 431 607 10 125 17 309 327 358 89 
409 11 61 234 357 95 237 375 353 255 556 233 487 
410 7 33 460 290 329 461 179 23 
411 7 424 267 136 184 16 53 6 
412 11 509 349 159 335 384 113 166 618 19 225 331 
413 11 567 415 591 478 110 429 428 198 256 444 448 
414 9 400 289 36 240 313 549 316 378 28 
415 11 478 428 420 567 413 444 584 438 9 31 448 
416 11 374 160 260 179 388 329 241 472 480 14 318 
417 11 463 91 350 453 320 108 227 354 282 132 367 
418 11 59 153 164 609 86 200 87 611 181 622 376 
419 9 297 588 264 345 495 100 187 334 355 
420 11 584 438 428 478 415 9 444 442 555 31 170 
421 11 183 531 508 232 377 398 249 42 68 46 224 
422 11 310 581 497 101 155 318 472 222 432 346 241 
423 11 534 473 592 56 426 246 219 323 383 180 230 
424 7 184 411 25 136 221 44 6 
425 9 205 380 479 454 11 243 512 70 343 
426 11 592 180 383 473 56 230 423 445 515 534 574 
427 11 587 543 476 466 315 348 306 281 359 575 22 
428 11 415 420 9 478 438 584 31 555 170 413 444 
429 11 110 206 109 12 580 406 550 597 567 381 413 
430 11 596 325 100 515 135 249 41 303 345 398 445 
431 11 607 125 261 191 408 327 65 89 10 144 115 
432 11 497 222 155 581 593 422 310 57 491 306 318 
433 11 134 615 121 496 578 73 220 239 52 451 558 
434 11 603 111 242 551 308 395 330 397 561 97 381 
435 10 533 238 218 75 131 88 459 312 507 594 
436 11 344 500 196 128 467 102 490 566 564 224 46 
437 11 122 245 604 493 89 115 120 319 284 340 327 
438 11 420 584 9 428 442 478 195 415 444 555 170 
439 8 341 447 167 528 494 34 77 337 
440 11 192 292 96 501 150 216 247 333 35 149 286 
441 11 105 331 214 113 219 405 246 203 404 37 323 
442 11 584 438 107 420 444 47 478 195 9 428 415 
443 11 82 250 27 288 173 452 470 565 268 392 335 
444 11 478 584 415 420 228 438 428 448 442 107 567 
445 11 180 230 383 172 426 515 249 592 56 473 596 
446 11 492 80 3 554 368 562 7 55 201 529 257 
447 8 167 439 341 605 494 34 337 528 
448 11 228 520 523 110 406 379 18 429 444 567 478 
449 11 517 26 75 376 218 594 611 394 488 506 533 
450 11 612 258 610 525 295 330 384 349 166 5 537 
451 11 52 270 73 116 496 347 139 186 556 396 474 
452 11 564 71 467 443 176 490 196 82 151 392 470 
453 11 227 354 63 320 417 108 282 463 91 317 373 
454 11 479 512 70 243 502 343 40 425 468 205 146 
455 11 18 193 104 606 523 379 520 293 613 622 569 
456 9 461 571 516 624 93 236 544 23 464 
457 10 333 96 216 174 235 292 192 299 440 342 
458 11 81 281 359 5 166 561 308 349 543 618 19 
459 11 90 238 131 560 48 88 435 550 533 486 547 
460 3 410 290 33 
461 8 571 456 624 516 464 93 541 544 
462 11 162 351 160 260 510 388 480 14 69 568 465 
463 11 417 91 350 320 453 132 367 227 282 108 354 
464 9 516 544 571 624 541 236 461 93 456 
465 11 168 14 480 69 260 160 162 462 351 94 416 
466 11 587 348 427 315 543 476 575 352 22 143 306 
467 11 196 500 564 436 344 490 452 137 392 128 176 
468 11 40 502 619 64 60 512 70 505 530 182 343 
469 11 536 265 57 37 51 405 576 225 404 441 105 
470 11 124 574 82 565 477 173 443 27 71 356 452 
471 11 298 287 257 579 251 3 489 103 208 263 275 
472 11 318 241 374 422 310 101 155 581 222 23 416 
473 11 56 592 426 423 383 230 180 574 534 323 124 
474 11 347 139 396 185 145 186 169 221 6 116 25 
475 11 272 163 175 199 54 285 213 83 407 294 370 
476 11 427 587 306 543 315 466 281 348 359 81 19 
477 11 165 356 565 173 203 574 323 27 124 470 82 
478 11 415 444 584 420 428 438 567 413 9 228 448 
479 11 454 70 512 343 380 502 146 425 276 243 205 
480 11 14 260 160 465 162 416 462 168 119 69 351 
481 11 484 94 38 585 69 168 465 598 177 623 351 
482 11 524 623 266 399 99 119 130 168 14 465 480 
483 11 557 117 39 402 229 62 207 539 269 296 599 
484 11 481 94 168 38 69 465 623 585 14 480 598 
485 11 22 97 397 143 575 561 315 551 111 308 348 
486 11 547 48 77 88 324 507 360 519 90 312 560 
487 11 255 234 95 409 61 496 615 270 375 556 357 
488 9 26 621 506 223 365 75 517 449 373 
489 10 257 554 251 562 3 471 263 298 342 492 
490 11 196 326 176 553 564 224 46 128 467 436 151 
491 11 576 265 236 544 57 93 536 593 516 464 51 
492 11 446 3 80 554 7 562 55 201 257 368 298 
493 11 122 284 437 30 43 498 120 314 147 604 245 
494 10 34 337 341 167 439 295 447 605 77 258 
495 10 187 297 419 334 588 264 129 504 321 600 
496 11 73 52 615 451 270 255 433 487 134 556 116 
497 11 581 310 422 432 155 222 101 318 593 472 346 
498 11 182 505 30 493 314 43 147 122 620 604 254 
499 11 617 538 106 368 586 279 529 55 518 319 277 
500 11 436 344 467 196 128 564 102 490 137 566 392 
501 11 247 150 78 286 563 50 192 123 292 532 127 
502 11 40 512 468 70 343 619 64 60 454 505 243 
503 8 361 178 294 513 213 74 403 285 
504 11 364 15 600 217 386 595 129 189 187 262 495 
505 11 182 498 254 30 314 620 147 43 64 468 493 
506 7 621 223 488 26 75 218 533 
507 9 312 88 528 238 486 77 48 547 435 
508 11 531 183 421 377 232 46 224 553 151 172 326 
509 11 225 19 412 618 113 441 37 105 159 331 405 
510 11 568 388 162 351 462 290 329 590 33 160 267 
511 11 140 102 566 128 68 344 436 500 24 196 46 
512 11 70 502 343 40 454 468 479 243 146 619 64 
513 11 45 41 403 303 135 398 74 325 421 249 430 
514 10 58 197 389 391 157 161 541 608 4 44 
515 10 596 430 445 426 180 249 383 592 230 100 
516 9 544 236 93 464 456 571 624 461 541 
517 11 449 26 75 218 488 594 376 506 621 394 611 
518 11 277 340 144 538 319 115 106 65 499 120 617 
519 9 324 360 547 77 486 537 48 560 597 
520 11 228 448 523 18 379 455 193 110 406 444 606 
521 11 302 248 36 289 140 282 400 63 511 227 76 
522 11 280 141 76 231 278 8 317 365 372 63 204 
523 11 18 379 520 228 193 448 455 406 606 110 429 
524 11 399 99 119 130 482 266 346 390 14 480 101 
525 11 330 612 450 395 434 5 537 258 308 166 242 
526 11 367 132 91 259 463 20 417 350 332 156 164 
527 11 283 487 615 433 496 375 255 234 73 95 409 
528 7 312 439 507 77 341 88 486 
529 10 586 368 562 446 617 492 554 499 80 3 
530 11 328 305 114 363 570 60 64 382 32 620 619 
531 11 183 421 508 232 377 46 68 224 553 42 326 
532 11 49 127 32 563 78 570 208 103 305 247 114 
533 11 435 218 75 594 131 238 394 506 459 88 223 
534 10 423 152 473 592 426 56 219 246 404 323 
535 11 301 613 47 107 542 104 520 455 228 18 523 
536 11 57 265 576 469 51 491 37 405 306 225 432 
537 9 395 330 242 519 525 324 34 258 434 
538 11 106 518 499 277 319 340 617 144 120 115 279 
539 11 39 117 229 370 274 483 237 557 233 61 409 
540 11 67 194 2 268 295 258 337 605 610 34 167 
541 9 624 464 571 389 461 514 197 516 58 
542 11 613 104 301 622 293 535 455 86 200 609 18 
543 11 315 427 348 587 281 359 476 22 81 466 575 
544 10 236 516 93 464 456 571 491 624 461 593 
545 11 244 401 385 197 85 389 58 226 391 514 393 
546 10 204 372 24 8 141 137 605 280 2 447 
547 10 486 48 324 360 77 88 519 560 90 507 
548 11 345 74 264 303 403 100 602 325 334 83 297 
549 8 243 378 582 414 211 291 28 454 
550 11 560 90 12 48 580 360 459 206 406 547 109 
551 11 111 397 603 97 434 485 308 561 22 242 381 
552 11 338 309 138 273 358 408 10 261 191 17 431 
553 11 326 46 224 176 151 490 71 128 196 377 564 
554 10 562 489 492 257 446 3 80 298 529 7 
555 11 31 170 66 112 9 271 428 148 438 21 420 
556 11 95 353 255 357 207 270 116 304 52 234 451 
557 11 483 117 402 39 207 62 142 269 296 304 353 
558 11 252 220 121 578 573 590 239 212 134 568 53 
559 7 503 361 178 311 72 215 294 
560 11 90 48 550 547 459 88 360 486 238 324 519 
561 11 308 5 97 485 81 359 397 551 603 22 111 
562 10 554 446 489 492 257 3 529 586 80 368 
563 11 32 127 50 532 570 114 49 78 123 247 305 
564 11 467 196 452 490 176 500 71 436 326 151 344 
565 11 173 27 477 356 82 165 470 250 443 159 203 
566 11 102 128 68 344 436 511 224 46 196 500 490 
567 11 413 415 478 110 429 428 591 444 448 198 109 
568 11 590 510 351 162 212 462 252 573 53 558 290 
569 11 181 293 92 616 622 394 376 87 200 594 611 
570 11 32 114 305 127 328 563 532 49 530 50 363 
571 9 624 461 456 464 516 541 544 93 236 
572 11 84 253 273 138 11 358 276 309 10 146 17 
573 11 598 558 252 590 568 585 177 121 220 212 578 
574 11 124 470 477 56 230 165 356 383 565 473 180 
575 11 143 22 348 315 485 97 543 397 466 427 198 
576 11 265 536 57 491 51 469 544 37 236 405 593 
577 11 210 254 17 604 146 245 89 276 498 327 505 
578 11 220 121 239 134 558 252 212 73 433 573 16 
579 11 298 3 7 471 201 287 80 257 275 492 446 
580 9 12 206 109 429 550 360 597 406 110 
581 11 310 422 497 155 101 222 432 318 472 346 593 
582 11 378 211 291 619 60 123 549 171 243 366 28 
583 11 215 614 307 158 42 232 183 421 531 377 68 
584 11 420 478 438 444 415 428 442 9 107 567 413 
585 11 598 573 69 38 177 94 351 568 162 462 558 
586 11 529 368 617 499 446 562 492 554 55 80 3 
587 11 427 466 476 543 348 315 306 575 281 359 22 
588 9 419 297 187 495 355 264 100 600 345 
589 9 355 152 85 226 385 401 534 244 600 
590 11 568 212 252 53 558 510 573 16 267 290 220 
591 11 256 198 13 118 143 188 98 575 352 413 348 
592 11 426 473 56 383 180 230 423 445 534 574 515 
593 11 222 93 155 236 432 544 491 516 23 456 318 
594 11 394 218 616 376 75 533 92 131 435 517 449 
595 11 364 189 386 217 262 15 504 393 129 62 600 
596 11 430 515 249 325 100 135 398 445 41 303 180 
597 9 381 242 395 109 206 580 603 111 434 
598 11 585 573 177 558 568 38 69 351 590 252 121 
599 11 202 62 269 262 393 189 296 391 339 595 402 
600 10 217 504 386 364 355 595 15 187 129 85 
601 11 390 148 130 271 188 99 346 13 399 266 29 
602 11 294 74 285 213 548 175 403 83 303 45 178 
603 11 111 434 551 397 308 97 242 561 381 395 485 
604 11 245 89 437 122 493 327 498 284 115 210 254 
605 9 167 447 2 194 341 494 337 439 67 
606 11 193 379 18 455 92 131 523 459 616 293 569 
607 11 431 125 261 408 191 65 327 144 277 115 89 
608 11 4 44 157 161 339 25 514 184 169 424 142 
609 11 86 59 418 164 200 153 87 622 181 293 611 
610 11 384 450 612 258 288 268 295 335 540 67 349 
611 11 376 87 394 181 449 517 594 569 153 616 200 
612 11 450 525 258 330 610 295 5 166 349 384 537 
613 11 542 104 301 455 535 622 18 293 193 520 523 
614 11 307 158 583 215 42 232 183 68 421 377 302 
615 11 496 433 73 487 52 451 134 270 255 578 239 
616 11 92 394 594 131 569 181 376 218 533 293 435 
617 11 499 368 586 106 279 55 529 538 446 492 80 
618 11 19 225 509 458 281 81 412 359 37 166 349 
619 11 60 64 468 40 530 114 328 502 305 211 570 
620 11 147 382 314 363 30 43 182 530 328 275 305 
621 7 223 506 488 26 75 218 517 
622 11 293 569 181 104 200 87 92 616 455 86 193 
623 11 482 168 484 524 266 465 300 14 94 399 480 
624 9 571 461 456 464 541 516 544 93 236 
DEPOT_SECTION
   1
   -1
EOF
