NAME :  X-n685-kX-w273-c9.cctp
COMMENT : 	Adapted by Maziero, Usberti and Cavellucci from the Uchoa, Pecin, Pessoa, Poggi, Subramanian, and Vidal (2013)
TYPE :  CCTP
DIMENSION :    641
EDGE_WEIGHT_TYPE : 	EUC_2D	
CAPACITY : 	408
VERTICES_WITHIN_COVERAGE :  9
VERTICES_WITH_DEMAND : 	273
NODE_COORD_SECTION
1 500 500
2 112 700
3 363 779
4 245 896
5 238 19
6 184 351
7 305 763
8 366 814
9 137 857
10 564 31
11 303 157
12 523 830
13 134 231
14 851 445
15 740 311
16 163 95
17 275 499
18 470 814
19 453 217
20 818 525
21 311 911
22 177 374
23 230 4
24 590 302
25 196 103
26 553 879
27 316 446
28 665 375
29 587 609
30 510 95
31 907 455
32 805 956
33 342 345
34 785 309
35 649 584
36 850 24
37 26 126
38 447 817
39 145 527
40 218 825
41 405 151
42 389 436
43 452 619
44 407 367
45 948 514
46 836 996
47 578 334
48 491 929
49 325 696
50 838 842
51 983 788
52 623 549
53 915 72
54 774 336
55 81 238
56 534 537
57 295 406
58 853 358
59 742 581
60 32 964
61 747 352
62 610 799
63 786 853
64 506 168
65 755 957
66 408 67
67 485 734
68 419 256
69 508 155
70 941 589
71 68 42
72 817 595
73 397 274
74 727 302
75 216 237
76 821 320
77 516 531
78 614 163
79 561 920
80 128 834
81 162 534
82 279 644
83 188 329
84 520 301
85 336 782
86 728 230
87 139 848
88 350 154
89 242 162
90 791 925
91 907 497
92 52 593
93 786 457
94 629 745
95 935 439
96 641 78
97 78 835
98 232 226
99 123 479
100 205 840
101 932 357
102 917 917
103 325 559
104 413 373
105 362 477
106 827 881
107 845 263
108 11 938
109 88 535
110 436 200
111 940 319
112 325 59
113 34 264
114 47 470
115 322 89
116 757 29
117 825 289
118 287 304
119 657 82
120 288 406
121 287 623
122 616 828
123 60 445
124 978 511
125 956 171
126 818 184
127 605 464
128 462 934
129 563 229
130 506 33
131 814 68
132 457 26
133 547 983
134 623 49
135 164 326
136 256 410
137 551 8
138 940 421
139 587 947
140 231 470
141 917 773
142 553 355
143 964 782
144 331 857
145 193 135
146 389 572
147 632 320
148 585 987
149 631 844
150 704 809
151 881 194
152 598 542
153 682 37
154 579 317
155 454 676
156 54 971
157 504 747
158 424 367
159 45 177
160 216 986
161 458 390
162 480 741
163 806 752
164 424 65
165 606 280
166 311 237
167 837 594
168 596 957
169 213 118
170 315 173
171 693 538
172 729 167
173 249 497
174 213 878
175 884 558
176 397 475
177 888 399
178 557 197
179 368 270
180 254 421
181 3 697
182 227 994
183 63 432
184 531 811
185 675 657
186 930 645
187 336 439
188 536 219
189 684 432
190 701 543
191 507 829
192 156 483
193 14 568
194 404 597
195 350 781
196 357 207
197 356 501
198 231 732
199 592 613
200 683 261
201 599 58
202 203 387
203 414 285
204 756 280
205 337 957
206 668 18
207 949 898
208 773 165
209 369 303
210 801 597
211 782 190
212 14 583
213 194 98
214 106 109
215 454 45
216 335 464
217 516 730
218 918 58
219 958 984
220 670 508
221 743 477
222 896 962
223 238 669
224 530 678
225 482 11
226 528 853
227 696 404
228 506 702
229 49 895
230 633 782
231 681 633
232 768 575
233 959 76
234 855 313
235 999 440
236 560 58
237 430 401
238 165 27
239 409 50
240 708 176
241 887 99
242 368 21
243 122 330
244 115 722
245 452 297
246 592 406
247 303 284
248 261 751
249 457 506
250 794 809
251 569 561
252 707 87
253 932 133
254 259 874
255 491 948
256 589 818
257 111 973
258 102 759
259 92 873
260 121 799
261 935 711
262 766 638
263 352 905
264 98 147
265 542 425
266 518 201
267 698 252
268 393 751
269 778 80
270 958 155
271 515 267
272 453 759
273 690 37
274 512 720
275 639 940
276 807 88
277 27 543
278 935 133
279 860 400
280 560 922
281 746 237
282 808 146
283 419 421
284 898 206
285 500 650
286 42 529
287 513 915
288 582 155
289 151 700
290 377 563
291 792 436
292 452 748
293 262 200
294 880 549
295 857 677
296 928 229
297 599 351
298 444 301
299 762 972
300 504 609
301 630 246
302 294 651
303 517 798
304 257 162
305 28 367
306 480 944
307 583 268
308 339 933
309 170 87
310 383 541
311 481 226
312 633 172
313 209 321
314 759 813
315 492 115
316 699 276
317 494 177
318 557 821
319 760 939
320 853 444
321 602 517
322 42 343
323 749 800
324 282 613
325 225 766
326 444 199
327 503 69
328 379 107
329 884 863
330 440 849
331 143 882
332 237 146
333 424 765
334 664 891
335 154 338
336 524 941
337 963 505
338 130 180
339 188 880
340 96 258
341 369 562
342 837 987
343 778 263
344 822 285
345 184 529
346 825 387
347 854 308
348 345 503
349 371 598
350 404 507
351 128 660
352 825 977
353 205 897
354 811 299
355 288 488
356 167 434
357 512 612
358 340 895
359 751 32
360 190 391
361 856 988
362 878 929
363 198 480
364 936 255
365 228 916
366 586 852
367 797 290
368 813 941
369 138 787
370 660 256
371 762 77
372 264 482
373 786 959
374 156 554
375 381 778
376 315 370
377 261 635
378 839 874
379 903 37
380 764 69
381 198 639
382 863 385
383 169 450
384 241 911
385 185 809
386 662 253
387 295 900
388 441 491
389 255 971
390 277 404
391 262 911
392 713 61
393 249 921
394 252 887
395 847 375
396 837 937
397 308 645
398 946 162
399 820 95
400 363 917
401 395 485
402 741 220
403 390 612
404 721 248
405 810 241
406 278 420
407 937 191
408 845 993
409 827 859
410 265 989
411 361 517
412 263 616
413 675 855
414 823 980
415 437 562
416 840 868
417 124 627
418 216 635
419 213 699
420 306 690
421 700 251
422 188 772
423 64 633
424 723 320
425 747 321
426 240 382
427 181 742
428 811 977
429 772 392
430 483 560
431 788 903
432 770 261
433 263 601
434 807 47
435 287 642
436 412 517
437 188 843
438 418 542
439 803 661
440 442 876
441 68 1000
442 824 38
443 332 592
444 245 799
445 685 263
446 413 463
447 387 439
448 353 910
449 740 294
450 278 634
451 342 556
452 266 662
453 729 35
454 258 715
455 196 455
456 620 52
457 316 598
458 634 209
459 311 662
460 721 113
461 844 135
462 404 633
463 374 838
464 295 539
465 415 801
466 670 38
467 697 421
468 869 423
469 185 927
470 986 838
471 835 34
472 764 176
473 262 908
474 775 275
475 266 522
476 703 239
477 591 199
478 814 34
479 776 274
480 797 997
481 715 109
482 860 167
483 755 90
484 733 971
485 201 448
486 769 73
487 314 547
488 416 507
489 167 491
490 184 887
491 960 984
492 762 878
493 664 132
494 671 69
495 689 296
496 779 54
497 829 220
498 198 706
499 369 946
500 280 739
501 279 833
502 930 977
503 87 600
504 822 1000
505 352 522
506 779 40
507 891 995
508 734 329
509 354 880
510 70 952
511 845 210
512 710 202
513 784 87
514 835 735
515 961 844
516 740 123
517 870 974
518 801 980
519 315 467
520 499 911
521 291 915
522 643 190
523 41 868
524 802 69
525 593 339
526 653 82
527 138 580
528 300 641
529 427 451
530 860 376
531 734 50
532 688 26
533 788 276
534 294 897
535 103 513
536 374 576
537 771 328
538 754 25
539 303 849
540 864 956
541 943 828
542 223 654
543 268 242
544 211 414
545 833 937
546 844 92
547 283 839
548 465 621
549 700 879
550 393 595
551 725 297
552 394 585
553 399 635
554 340 536
555 183 524
556 918 954
557 518 488
558 182 831
559 424 586
560 445 943
561 787 940
562 716 101
563 779 24
564 437 355
565 530 783
566 445 763
567 288 920
568 288 497
569 509 815
570 182 265
571 803 160
572 246 405
573 306 521
574 124 883
575 244 637
576 296 879
577 318 880
578 789 89
579 407 239
580 468 291
581 290 615
582 249 986
583 254 877
584 347 563
585 802 826
586 325 620
587 361 923
588 835 304
589 188 991
590 467 574
591 333 669
592 784 209
593 327 923
594 99 484
595 270 602
596 331 793
597 379 553
598 756 28
599 336 448
600 323 834
601 585 724
602 323 986
603 804 283
604 319 517
605 604 298
606 685 972
607 304 652
608 264 508
609 336 899
610 256 885
611 128 449
612 877 962
613 674 90
614 312 500
615 298 554
616 631 790
617 756 122
618 183 877
619 820 968
620 488 589
621 768 176
622 880 307
623 184 915
624 327 842
625 482 587
626 220 822
627 335 579
628 284 735
629 281 701
630 901 963
631 74 628
632 879 981
633 286 610
634 848 166
635 349 734
636 229 963
637 130 755
638 792 823
639 289 856
640 879 945
641 404 534
DEMAND_SECTION
2 8
3 25
4 36
5 83
6 63
7 3
8 15
9 47
10 21
11 54
12 87
13 94
14 22
15 31
16 78
17 71
18 32
19 60
20 87
21 31
22 53
23 76
24 23
25 93
26 56
27 72
28 44
29 92
30 23
31 48
32 87
33 70
34 27
35 72
36 9
37 64
38 6
39 40
40 19
41 68
42 52
43 41
44 57
45 94
46 73
47 10
48 6
49 31
50 87
51 70
52 71
53 32
54 3
55 94
56 67
57 98
58 3
59 97
60 31
61 25
62 94
63 87
64 9
65 66
66 56
67 13
68 65
69 1
70 93
71 56
72 92
73 64
74 10
75 83
76 43
77 64
78 14
79 81
80 27
81 46
82 1
83 96
84 19
85 7
86 17
87 26
88 71
89 56
90 51
91 43
92 50
93 49
94 64
95 1
96 14
97 42
98 97
99 97
100 22
101 1
102 61
103 30
104 77
105 61
106 62
107 33
108 24
109 5
110 87
111 1
112 91
113 76
114 55
115 62
116 5
117 5
118 96
119 48
120 73
121 46
122 59
123 82
124 69
125 14
126 7
127 7
128 44
129 5
130 1
131 37
132 98
133 52
134 11
135 58
136 72
137 4
138 47
139 97
140 79
141 90
142 17
143 69
144 46
145 78
146 1
147 25
148 96
149 91
150 87
151 3
152 100
153 46
154 32
155 22
156 38
157 55
158 51
159 83
160 17
161 91
162 15
163 75
164 66
165 12
166 56
167 95
168 92
169 79
170 71
171 95
172 37
173 61
174 50
175 74
176 51
177 14
178 30
179 92
180 70
181 46
182 7
183 77
184 83
185 55
186 82
187 60
188 12
189 35
190 93
191 89
192 59
193 46
194 21
195 22
196 99
197 15
198 38
199 88
200 48
201 48
202 68
203 62
204 20
205 26
206 36
207 65
208 19
209 79
210 82
211 36
212 28
213 92
214 51
215 95
216 83
217 52
218 47
219 78
220 63
221 5
222 66
223 20
224 78
225 96
226 74
227 27
228 68
229 16
230 57
231 54
232 64
233 19
234 3
235 16
236 49
237 64
238 100
239 55
240 33
241 11
242 55
243 84
244 45
245 58
246 42
247 71
248 32
249 5
250 83
251 77
252 28
253 22
254 11
255 49
256 84
257 17
258 10
259 43
260 8
261 75
262 52
263 27
264 66
265 46
266 18
267 39
268 49
269 45
270 45
271 49
272 2
273 46
274 72
COVERAGE_SECTION
2 8 244 289 351 637 258 417 427 631 
3 9 195 375 85 8 596 268 635 465 7 
4 9 394 384 610 473 583 391 393 254 365 
5 9 23 238 213 25 112 309 169 16 115 
6 9 83 22 135 335 313 360 202 426 243 
7 9 500 628 85 596 248 195 635 3 629 
8 9 463 3 195 375 596 85 600 624 465 
9 9 87 80 331 574 259 618 558 437 339 
10 9 137 236 201 130 456 134 327 30 225 
11 9 170 304 88 293 89 332 115 196 166 
12 9 191 184 569 226 303 318 565 18 26 
13 9 340 338 55 570 75 264 98 135 243 
14 9 320 468 279 31 177 291 382 346 93 
15 9 425 74 449 424 508 551 204 537 54 
16 9 309 213 25 145 169 214 238 264 332 
17 9 568 608 355 372 475 173 614 573 464 
18 9 38 569 191 330 303 12 465 566 272 
19 9 326 110 311 579 68 317 266 64 580 
20 9 294 72 232 167 175 210 93 14 320 
21 9 387 521 593 534 567 609 577 358 576 
22 9 360 6 202 335 83 135 544 356 313 
23 9 5 238 213 309 25 112 16 169 115 
24 9 605 154 165 47 307 525 147 297 142 
25 9 213 169 309 145 16 332 89 238 304 
26 9 226 79 366 280 287 12 318 520 191 
27 9 599 187 519 216 57 406 120 355 614 
28 9 227 467 189 147 297 246 424 525 495 
29 9 199 251 35 152 52 357 300 56 224 
30 9 315 327 69 130 236 64 215 10 317 
31 9 95 91 138 468 320 14 177 45 279 
32 8 368 373 619 428 518 561 352 414 
33 9 376 209 44 118 247 104 57 179 120 
34 8 367 537 354 54 603 533 474 479 
35 9 52 231 171 199 152 190 29 185 220 
36 9 471 442 478 434 379 131 524 546 563 
37 9 159 264 214 71 338 55 113 16 309 
38 9 18 330 465 566 333 272 440 191 569 
39 9 81 374 555 345 489 535 192 99 527 
40 9 626 100 437 558 385 444 174 325 422 
41 9 328 88 110 326 196 19 66 164 579 
42 9 447 283 446 176 529 105 401 187 237 
43 9 548 559 625 590 620 462 194 300 553 
44 9 104 158 564 237 283 161 33 42 209 
45 9 337 124 91 31 70 95 294 175 235 
46 8 342 408 504 414 352 361 428 619 
47 9 525 154 297 142 24 605 147 165 307 
48 9 255 306 520 287 128 336 560 280 79 
49 9 420 591 459 629 635 607 397 302 628 
50 9 409 416 378 585 106 638 329 63 250 
51 9 143 470 541 515 141 261 207 329 102 
52 9 152 321 35 251 220 29 171 199 190 
53 9 218 379 241 233 253 278 546 36 471 
54 9 537 34 61 425 508 15 76 367 354 
55 9 340 13 113 159 338 264 243 570 322 
56 9 77 251 557 430 152 620 321 625 590 
57 9 120 390 406 136 376 180 27 572 187 
58 9 395 530 382 346 279 234 76 347 177 
59 9 232 190 210 262 171 72 231 35 20 
60 9 156 108 510 441 229 257 523 259 574 
61 9 508 54 425 537 424 15 429 74 34 
62 9 616 256 230 122 149 94 318 366 601 
63 9 585 638 492 409 250 314 106 431 50 
64 9 69 317 266 315 178 188 311 326 19 
65 9 299 319 484 373 561 90 32 518 480 
66 9 164 239 328 215 242 132 112 41 115 
67 9 162 157 274 217 292 228 272 566 155 
68 9 579 73 203 298 19 179 245 110 580 
69 9 64 317 315 266 30 178 188 288 311 
70 9 186 175 294 45 124 337 91 167 261 
71 9 214 37 238 16 264 309 159 213 25 
72 9 210 167 232 262 439 20 59 175 294 
73 9 203 68 179 579 209 298 245 580 196 
74 9 551 449 15 424 425 508 204 316 495 
75 9 98 570 543 293 89 13 313 304 332 
76 9 588 354 117 234 344 347 34 367 603 
77 9 56 557 430 251 249 620 590 625 300 
78 9 312 288 522 477 458 493 178 129 301 
79 9 280 139 26 336 287 168 520 133 48 
80 9 87 9 260 369 574 97 331 259 558 
81 7 39 374 345 555 489 192 527 
82 9 435 450 302 377 528 121 452 607 397 
83 9 6 313 135 335 22 202 360 570 243 
84 9 271 580 154 142 47 245 24 307 298 
85 9 596 195 3 7 8 375 635 600 624 
86 8 402 281 404 476 512 421 267 432 
87 9 9 80 331 574 558 437 260 259 618 
88 9 170 11 196 41 328 115 166 304 110 
89 9 304 332 293 169 145 11 98 170 25 
90 9 561 431 368 32 319 373 545 65 396 
91 9 31 45 337 294 95 175 124 14 320 
92 9 503 212 631 423 193 277 286 109 417 
93 9 291 221 14 429 320 20 346 468 279 
94 9 230 616 601 62 256 122 149 150 185 
95 9 138 31 177 91 235 468 337 45 101 
96 9 526 119 494 456 134 613 201 466 153 
97 9 259 80 523 260 87 9 574 229 369 
98 9 75 543 293 570 89 304 166 332 247 
99 9 594 611 192 535 489 39 383 356 109 
100 9 437 40 626 558 385 174 339 618 490 
101 9 111 177 138 622 382 530 58 95 279 
102 8 207 556 362 640 630 222 612 502 
103 8 487 451 584 627 554 615 443 464 
104 9 44 158 564 237 161 283 42 447 33 
105 9 197 216 348 401 176 599 411 447 187 
106 8 378 416 409 50 431 63 545 90 
107 9 344 117 405 588 347 497 603 354 234 
108 9 60 156 229 510 523 441 259 257 97 
109 9 535 286 594 39 277 503 99 527 92 
110 9 326 19 579 311 41 68 317 64 196 
111 9 101 622 364 234 347 296 58 177 530 
112 9 115 242 328 66 239 5 88 164 11 
113 9 55 340 322 159 305 13 243 338 264 
114 9 123 183 594 286 535 277 99 109 611 
115 9 112 328 11 88 242 170 66 239 304 
116 7 598 538 359 563 506 453 531 
117 8 344 354 588 603 367 76 107 347 
118 9 247 543 33 166 376 313 209 179 426 
119 9 526 96 494 613 466 134 456 252 493 
120 9 57 390 406 136 180 572 376 27 426 
121 9 581 324 633 450 435 82 528 412 595 
122 9 149 256 62 366 616 230 318 413 334 
123 9 183 114 594 611 99 535 305 286 109 
124 9 337 45 91 235 95 70 31 138 175 
125 9 398 270 407 278 253 296 284 151 364 
126 9 571 634 211 511 497 282 592 482 208 
127 9 321 246 265 152 220 189 52 557 56 
128 9 560 306 48 255 520 287 440 336 330 
129 9 188 178 477 307 266 271 165 301 458 
130 9 225 327 132 137 215 10 236 30 315 
131 9 524 276 434 399 442 578 478 513 269 
132 9 215 225 130 164 239 327 66 30 242 
133 9 148 336 139 168 280 79 255 287 48 
134 9 456 201 96 526 119 466 494 206 153 
135 9 335 83 6 243 313 22 570 360 202 
136 9 180 572 390 406 120 426 57 544 202 
137 9 10 130 236 201 225 327 456 134 30 
138 9 95 31 177 235 101 468 91 279 382 
139 9 168 79 280 148 275 133 336 26 287 
140 9 173 363 372 485 455 608 17 180 544 
141 9 143 541 261 51 515 514 470 329 50 
142 9 47 525 154 297 84 246 24 265 605 
143 9 51 141 541 470 515 261 329 207 514 
144 9 624 600 577 539 509 358 576 609 639 
145 9 169 25 213 332 16 309 89 304 338 
146 9 552 290 536 597 341 550 194 310 349 
147 9 605 525 297 24 165 154 47 495 28 
148 9 168 133 139 280 79 275 336 606 255 
149 9 122 413 366 256 62 616 334 230 318 
150 9 323 413 314 549 616 230 149 638 122 
151 9 284 482 511 634 407 497 296 126 461 
152 9 321 52 251 56 35 29 199 127 220 
153 9 273 466 532 206 494 392 453 119 526 
154 9 47 24 525 605 297 142 165 307 147 
155 9 285 548 43 228 67 462 553 162 292 
156 9 60 510 441 108 257 229 523 259 574 
157 9 217 67 162 274 565 228 272 292 303 
158 9 104 44 564 237 161 283 298 245 42 
159 9 37 264 55 338 113 214 340 13 71 
160 6 182 636 589 582 389 410 
161 9 237 158 564 104 283 44 529 42 446 
162 9 67 157 292 272 217 274 566 228 333 
163 9 514 250 638 585 323 314 295 439 50 
164 9 66 239 215 132 328 242 225 327 315 
165 9 605 307 24 301 154 147 370 525 47 
166 9 543 247 196 293 170 179 118 11 98 
167 9 72 210 175 294 20 232 439 262 295 
168 9 139 148 275 280 79 133 336 26 606 
169 9 25 145 213 332 89 309 16 304 293 
170 9 11 88 196 293 304 166 89 332 543 
171 9 190 220 35 59 52 221 232 321 152 
172 9 240 472 512 621 208 516 617 402 460 
173 7 608 372 17 475 140 568 355 
174 9 353 339 490 618 4 100 394 365 583 
175 9 294 167 70 91 20 72 45 210 337 
176 9 401 446 350 105 447 488 529 42 436 
177 9 279 382 468 530 395 58 138 320 14 
178 9 188 129 477 266 288 64 69 78 317 
179 9 73 209 203 579 68 196 166 247 33 
180 9 136 572 406 390 120 426 57 544 140 
181 9 423 631 2 92 212 244 258 503 193 
182 6 160 582 636 389 410 589 
183 9 123 114 594 611 305 99 535 322 286 
184 9 303 12 569 318 565 191 226 256 18 
185 9 231 35 262 199 94 29 59 601 190 
186 9 70 261 295 175 167 294 72 439 141 
187 9 599 27 216 519 105 447 42 57 120 
188 9 266 129 178 271 311 64 317 477 307 
189 9 467 227 28 221 220 127 246 429 61 
190 9 171 220 59 35 232 52 221 231 321 
191 9 569 12 184 226 303 18 318 565 38 
192 9 489 99 383 363 611 39 455 555 356 
193 9 212 277 92 286 503 109 423 631 114 
194 9 550 552 403 559 146 349 462 536 553 
195 9 3 85 596 375 8 635 7 268 600 
196 9 88 170 166 579 179 11 41 73 68 
197 8 348 411 505 105 554 604 401 216 
198 9 454 325 248 419 498 500 427 628 422 
199 9 29 251 35 52 152 357 300 224 231 
200 9 445 267 421 316 386 370 476 495 404 
201 9 456 134 236 10 96 526 119 137 494 
202 9 360 544 22 426 6 572 136 356 83 
203 9 73 68 298 245 579 179 209 580 564 
204 9 474 449 479 432 343 533 15 551 74 
205 9 308 602 499 593 587 400 448 21 263 
206 9 466 532 153 273 494 134 456 392 453 
207 9 102 515 556 470 541 329 362 502 630 
208 9 621 472 211 571 282 172 592 617 126 
209 9 179 73 203 33 68 247 44 579 298 
210 9 72 167 232 262 59 439 20 175 294 
211 8 592 621 472 208 126 571 282 402 
212 9 193 92 277 286 423 503 631 109 535 
213 9 25 309 169 16 145 332 238 89 214 
214 9 264 16 309 338 71 37 213 25 145 
215 9 132 164 225 239 66 130 327 30 315 
216 9 599 519 187 27 105 348 197 614 355 
217 9 274 157 228 67 162 224 565 292 303 
218 9 53 379 233 241 36 253 278 546 471 
219 9 491 502 556 630 222 507 102 632 612 
220 9 171 190 52 321 189 127 35 221 152 
221 9 93 291 467 189 190 171 220 227 20 
222 9 630 612 556 640 632 517 507 540 502 
223 9 542 452 575 419 418 377 82 381 454 
224 9 228 285 274 217 357 67 601 157 300 
225 9 132 130 215 327 137 164 239 10 30 
226 9 12 191 26 184 569 318 303 366 287 
227 9 467 189 28 61 429 508 221 424 425 
228 9 274 217 224 67 157 162 285 155 292 
229 9 523 259 108 510 97 60 156 574 331 
230 9 616 62 94 122 256 149 601 150 366 
231 9 185 35 59 262 199 190 171 29 52 
232 9 59 210 72 262 20 167 190 171 439 
233 9 53 218 278 253 379 241 270 398 125 
234 9 347 588 622 76 117 344 58 354 107 
235 9 138 95 124 337 45 31 101 91 177 
236 9 10 201 137 327 130 456 30 134 96 
237 9 283 161 104 158 44 564 529 42 447 
238 9 309 16 23 5 213 25 71 214 169 
239 9 66 164 215 242 132 328 225 112 115 
240 9 172 512 402 472 86 621 493 516 476 
241 9 53 546 218 253 461 278 379 399 482 
242 9 239 112 66 164 115 328 132 215 225 
243 9 335 135 6 83 22 340 322 313 570 
244 9 2 637 258 289 351 369 427 260 498 
245 9 298 580 203 68 73 564 84 271 579 
246 9 265 297 127 142 525 47 28 154 147 
247 9 118 166 543 179 209 33 376 98 293 
248 9 500 628 198 454 325 7 444 629 419 
249 9 388 488 436 350 438 415 430 641 446 
250 9 638 585 314 63 323 50 163 409 416 
251 9 152 56 29 52 321 199 77 357 300 
252 6 562 481 392 460 613 494 
253 9 278 398 270 125 241 407 53 233 218 
254 9 583 610 394 4 473 639 391 576 384 
255 9 306 48 128 336 520 287 560 133 280 
256 9 62 122 318 366 149 616 230 184 12 
257 9 510 441 156 589 60 469 574 623 331 
258 9 637 244 260 369 2 289 80 97 427 
259 9 574 97 9 229 523 331 80 87 260 
260 9 369 80 258 637 87 97 9 385 558 
261 9 141 186 143 295 51 514 541 70 163 
262 9 439 210 59 232 72 167 231 185 295 
263 9 448 358 400 609 587 509 308 593 21 
264 9 214 338 159 37 16 13 55 309 145 
265 9 246 557 142 127 161 297 47 525 77 
266 9 188 317 64 178 311 69 129 271 19 
267 9 421 476 200 445 404 316 386 86 370 
268 9 375 333 3 635 195 566 465 292 272 
269 8 513 486 578 371 380 483 496 524 
270 9 398 125 278 253 407 233 284 296 151 
271 9 84 188 311 580 129 266 307 245 298 
272 9 566 292 333 162 67 157 465 18 38 
273 9 153 532 466 206 392 494 453 531 252 
274 9 217 228 157 67 162 224 292 565 272 
275 9 168 139 334 606 148 79 280 549 413 
276 9 399 578 524 131 513 269 546 434 486 
277 9 286 193 212 92 109 114 535 503 594 
278 9 253 398 270 125 407 241 233 53 218 
279 9 382 530 468 177 395 346 58 320 14 
280 9 79 139 336 26 287 168 133 520 48 
281 8 402 86 404 432 343 476 204 592 
282 9 571 461 126 208 634 621 211 399 472 
283 9 237 529 42 447 446 104 161 158 44 
284 9 151 296 407 511 482 364 634 398 125 
285 9 357 224 300 548 228 155 43 620 625 
286 9 277 109 193 114 212 535 92 594 503 
287 9 520 48 336 255 306 79 280 26 128 
288 9 78 477 178 312 522 69 458 129 64 
289 9 2 244 351 498 427 637 419 258 381 
290 8 341 597 536 146 310 552 584 349 
291 9 93 429 346 14 320 221 279 468 395 
292 9 272 566 162 333 67 157 268 465 217 
293 9 304 98 543 89 11 75 170 332 166 
294 9 175 91 167 20 70 45 72 210 337 
295 9 439 514 186 167 261 72 163 210 262 
296 9 364 284 407 151 125 398 270 511 107 
297 9 525 47 154 147 142 24 605 246 28 
298 9 245 580 203 68 73 564 158 579 209 
299 9 65 373 484 319 518 561 480 32 428 
300 9 357 620 625 285 548 590 43 430 224 
301 9 370 386 458 165 307 200 522 445 605 
302 9 607 435 528 397 82 459 450 121 452 
303 9 184 569 565 12 191 318 18 157 226 
304 9 89 332 293 11 170 169 98 145 543 
305 9 322 183 123 243 113 114 340 335 611 
306 9 255 48 128 560 520 287 336 133 440 
307 9 165 24 605 129 154 301 47 188 271 
308 9 593 205 587 448 400 263 499 609 21 
309 9 16 213 25 145 169 238 214 332 264 
310 7 597 641 290 341 146 411 438 
311 9 19 266 326 317 110 271 188 64 580 
312 9 78 522 458 477 493 288 301 240 178 
313 9 83 6 135 335 22 570 202 426 360 
314 9 323 638 250 585 63 150 492 163 409 
315 9 30 69 327 64 317 215 130 164 236 
316 9 445 200 495 267 421 551 404 476 74 
317 9 64 69 266 311 326 19 188 110 315 
318 9 184 256 12 366 226 303 565 569 191 
319 9 65 561 299 373 90 484 431 32 368 
320 9 14 468 279 31 177 382 291 346 93 
321 9 152 52 127 251 220 56 35 77 557 
322 9 305 113 243 183 340 123 55 335 135 
323 9 314 150 250 638 585 63 163 492 413 
324 9 633 581 121 595 412 450 433 435 377 
325 9 198 422 248 444 427 626 40 385 454 
326 9 110 19 311 579 317 41 68 64 266 
327 9 30 130 315 215 236 225 132 10 137 
328 9 66 41 88 115 164 239 112 242 11 
329 8 416 378 50 409 106 102 362 541 
330 9 440 38 18 465 463 191 569 8 12 
331 9 574 9 87 618 490 339 80 259 623 
332 9 89 304 169 145 25 293 213 11 98 
333 9 566 272 292 268 465 375 38 162 3 
334 9 413 549 275 149 122 606 366 150 139 
335 9 135 6 243 83 22 313 360 202 570 
336 9 287 255 48 520 280 79 306 133 128 
337 9 124 45 91 95 235 31 70 138 294 
338 9 264 13 214 55 145 159 340 16 570 
339 9 618 490 353 174 623 437 100 331 469 
340 9 55 13 113 243 338 570 135 159 335 
341 7 290 597 536 146 584 310 451 
342 8 46 408 352 414 361 504 619 428 
343 7 432 479 474 533 204 367 603 
344 8 117 354 603 588 367 107 76 533 
345 7 555 81 374 39 489 363 192 
346 9 395 279 530 382 58 429 468 291 14 
347 9 234 588 622 76 117 344 354 107 58 
348 8 197 505 411 604 105 554 614 216 
349 6 536 550 403 552 146 194 
350 8 488 436 401 641 176 438 310 388 
351 8 417 2 289 244 631 423 381 503 
352 8 414 619 428 342 46 504 518 408 
353 8 174 490 339 623 365 618 469 384 
354 8 117 367 603 344 76 588 34 533 
355 9 568 17 372 614 608 519 573 173 475 
356 9 383 455 485 611 544 360 192 363 489 
357 9 300 620 625 285 548 590 43 430 224 
358 9 609 263 448 509 577 593 400 21 587 
359 7 598 116 538 453 531 506 563 
360 9 202 22 544 6 356 426 485 572 83 
361 9 408 342 517 46 632 352 540 612 414 
362 7 640 540 612 222 102 630 396 
363 9 455 485 489 140 192 383 555 345 173 
364 9 296 284 111 407 622 151 125 107 398 
365 6 384 393 4 353 391 473 
366 9 256 122 318 26 149 62 226 12 184 
367 8 603 354 533 34 344 479 474 117 
368 8 32 545 396 561 90 619 373 428 
369 9 260 637 258 80 385 422 87 427 558 
370 9 386 200 445 301 267 421 316 476 495 
371 5 380 486 483 269 513 
372 9 17 173 355 608 568 140 475 614 519 
373 9 32 561 518 299 65 428 368 319 90 
374 5 81 39 527 345 555 
375 9 3 268 195 8 465 85 333 596 635 
376 9 33 57 120 390 406 136 118 187 27 
377 8 450 575 412 82 435 452 121 324 
378 8 416 106 409 50 329 63 431 585 
379 9 218 53 36 241 233 471 442 546 478 
380 5 486 371 269 496 483 
381 4 418 542 575 223 
382 9 530 279 395 58 177 346 468 320 14 
383 9 356 455 485 192 489 611 363 99 544 
384 6 393 365 4 391 473 394 
385 9 558 437 40 100 422 626 369 325 87 
386 9 370 200 445 301 267 421 476 316 495 
387 8 534 521 21 567 576 577 473 391 
388 9 249 488 436 350 446 529 401 176 438 
389 4 582 410 636 182 
390 9 120 406 57 136 180 572 426 376 27 
391 7 473 393 384 4 394 610 567 
392 5 531 252 453 273 153 
393 5 384 391 473 365 4 
394 8 610 583 4 254 473 384 391 393 
395 9 530 58 382 346 279 177 468 76 234 
396 6 545 368 540 619 32 352 
397 8 607 528 302 459 435 82 121 586 
398 9 125 270 407 278 253 284 296 151 241 
399 9 276 546 131 524 578 513 269 461 434 
400 9 587 448 263 308 499 358 609 593 509 
401 8 176 350 446 488 105 436 197 388 
402 8 86 281 404 512 476 592 432 472 
403 6 550 194 349 462 553 552 
404 9 86 476 421 267 281 402 316 445 200 
405 7 497 343 107 533 592 603 432 
406 9 390 120 57 136 180 572 27 426 519 
407 9 125 398 296 270 284 151 253 278 364 
408 8 46 342 361 504 352 414 517 619 
409 9 416 378 50 106 63 585 638 329 431 
410 4 582 389 182 636 
411 7 505 197 348 554 310 105 597 
412 8 433 595 324 377 450 633 121 581 
413 9 549 334 149 150 122 616 230 62 366 
414 8 352 428 619 342 504 46 518 408 
415 9 559 438 590 641 430 194 146 552 436 
416 8 378 409 106 50 329 63 585 431 
417 6 351 503 527 631 423 2 
418 5 381 542 575 223 377 
419 9 498 198 223 542 454 427 289 381 418 
420 9 49 629 459 591 607 302 397 452 528 
421 9 267 476 445 200 404 316 86 386 370 
422 9 427 325 385 369 198 558 626 637 40 
423 8 631 503 92 417 351 212 2 193 
424 9 508 74 15 551 425 449 61 495 537 
425 9 15 508 424 537 74 449 54 61 551 
426 9 572 136 202 180 390 544 360 120 406 
427 9 422 498 325 198 289 637 419 369 385 
428 9 518 414 619 352 32 480 504 342 46 
429 9 61 291 346 54 537 93 508 425 227 
430 9 590 625 620 77 415 300 56 249 357 
431 9 90 492 561 106 368 319 63 32 373 
432 7 343 479 474 533 204 281 367 
433 6 595 412 324 633 581 121 
434 9 478 442 131 524 496 506 471 563 276 
435 9 82 302 450 528 121 607 397 377 581 
436 8 488 350 641 438 401 310 388 176 
437 9 558 100 385 618 40 339 626 174 490 
438 8 641 436 415 310 488 350 597 146 
439 9 262 295 210 72 167 514 163 232 59 
440 9 330 38 128 520 560 18 48 306 463 
441 9 156 510 60 257 108 229 589 259 574 
442 9 478 471 434 36 131 524 506 563 496 
443 6 627 457 586 584 103 451 
444 9 626 40 325 501 248 547 100 385 422 
445 9 200 267 316 421 386 370 476 495 404 
446 9 529 176 401 447 42 388 283 488 350 
447 9 42 446 176 283 529 105 401 187 599 
448 9 263 400 587 358 609 308 593 509 499 
449 9 74 551 15 204 425 424 508 474 479 
450 9 82 435 121 377 324 581 302 412 528 
451 8 584 103 554 627 341 487 505 290 
452 9 82 377 223 435 302 450 575 607 528 
453 6 531 359 538 598 116 392 
454 9 629 198 500 628 248 419 223 420 452 
455 9 485 363 383 356 140 544 489 192 360 
456 9 134 201 96 526 119 466 494 206 10 
457 8 443 586 627 581 633 324 121 103 
458 9 522 301 312 477 78 386 370 200 129 
459 8 607 397 302 591 528 420 435 49 
460 6 481 562 516 252 617 483 
461 9 634 482 282 546 399 571 126 241 276 
462 5 553 403 194 550 349 
463 9 8 144 509 624 600 465 3 375 195 
464 8 615 487 573 604 475 103 568 614 
465 9 38 333 375 566 8 330 268 463 3 
466 9 153 206 273 532 494 119 526 134 96 
467 9 189 227 28 221 429 61 220 93 291 
468 9 279 320 14 177 382 530 31 395 346 
469 8 623 353 490 365 339 618 174 636 
470 9 515 541 51 143 207 141 102 329 556 
471 9 442 36 478 434 131 524 506 563 496 
472 9 621 208 211 172 592 571 402 282 126 
473 7 391 393 4 384 394 610 567 
474 8 479 343 533 432 204 367 603 34 
475 8 608 17 173 568 464 355 372 573 
476 9 421 267 404 86 200 445 316 512 402 
477 9 178 129 78 458 288 312 522 188 301 
478 9 442 434 471 131 506 563 36 524 496 
479 7 474 343 533 432 204 367 603 
480 9 518 428 504 414 352 619 46 373 342 
481 7 460 562 252 516 617 483 613 
482 9 634 151 461 126 511 284 282 571 497 
483 5 371 486 380 269 513 
484 9 65 299 319 606 373 561 480 518 32 
485 9 455 363 383 544 140 356 489 192 360 
486 7 380 371 269 496 513 483 578 
487 9 103 615 464 573 554 451 604 584 627 
488 8 436 350 388 401 641 438 176 249 
489 9 192 363 555 383 39 345 81 99 455 
490 9 339 618 353 623 174 469 331 437 100 
491 9 219 502 556 630 222 507 102 632 612 
492 9 63 431 90 319 549 638 106 314 585 
493 9 613 119 312 526 481 78 96 460 562 
494 9 119 613 526 96 466 153 273 252 392 
495 9 316 445 200 551 74 424 267 421 370 
496 8 506 380 486 269 524 371 434 563 
497 8 511 405 126 107 592 211 634 151 
498 9 419 427 198 289 223 542 454 325 381 
499 9 587 400 308 205 448 263 593 609 358 
500 9 628 248 454 7 629 198 420 325 49 
501 9 547 639 539 600 254 444 576 624 583 
502 9 556 219 491 630 222 507 632 612 517 
503 8 631 92 423 417 527 109 351 212 
504 9 46 342 414 352 408 428 480 518 619 
505 8 411 554 348 197 604 451 310 584 
506 8 496 563 116 598 359 434 538 380 
507 9 632 517 222 630 361 612 502 408 540 
508 9 424 425 15 61 74 551 449 537 54 
509 9 358 263 609 448 144 577 400 587 463 
510 9 156 60 257 441 108 229 259 574 523 
511 9 497 126 151 634 482 405 107 284 592 
512 9 240 86 402 476 172 404 281 421 267 
513 8 578 269 486 276 371 524 380 483 
514 9 163 295 439 250 141 585 638 261 50 
515 9 541 470 207 51 143 329 141 102 556 
516 7 617 460 481 562 483 172 252 
517 8 632 612 540 361 222 507 640 408 
518 9 428 480 414 619 32 352 373 504 342 
519 9 216 27 599 614 355 187 568 348 105 
520 9 287 48 255 306 336 128 280 26 79 
521 8 567 387 534 21 391 473 576 593 
522 9 312 458 78 477 301 493 240 386 370 
523 9 229 97 259 108 574 510 80 60 9 
524 9 131 276 434 578 513 269 496 399 486 
525 9 297 47 154 24 605 142 147 165 246 
526 9 119 96 494 613 134 456 466 493 153 
527 5 374 417 81 39 503 
528 9 397 302 607 435 82 121 450 459 581 
529 9 446 283 176 42 388 447 401 237 488 
530 9 382 395 58 279 177 346 468 234 76 
531 4 453 392 359 116 
532 8 273 153 206 466 453 392 494 531 
533 8 479 474 343 367 603 432 204 34 
534 8 387 521 576 21 567 577 473 391 
535 9 109 594 99 39 192 81 286 374 489 
536 8 290 341 146 349 552 597 550 584 
537 9 54 34 425 61 15 508 367 449 354 
538 7 598 116 359 563 453 506 531 
539 9 639 547 600 624 144 501 576 577 534 
540 7 612 517 640 632 362 222 361 
541 9 515 470 143 51 141 329 207 102 50 
542 7 418 223 575 381 377 452 419 
543 9 98 293 166 75 247 118 304 170 89 
544 9 202 360 485 572 426 180 455 136 356 
545 6 396 368 32 619 540 352 
546 9 399 276 131 461 241 524 578 434 442 
547 9 501 639 539 600 254 576 624 583 144 
548 9 43 625 620 300 285 590 357 559 155 
549 9 413 334 492 150 149 319 275 314 63 
550 8 552 194 403 349 146 536 559 290 
551 9 74 449 15 424 316 425 508 204 495 
552 9 550 146 194 536 349 403 290 559 341 
553 5 462 403 194 550 349 
554 8 505 451 103 411 487 584 604 348 
555 7 345 81 489 39 374 363 192 
556 9 630 222 502 102 640 612 362 632 507 
557 9 77 56 249 265 388 430 251 321 127 
558 9 437 385 100 40 626 87 618 339 9 
559 9 194 415 552 550 146 43 403 438 590 
560 9 128 306 255 48 520 440 287 499 336 
561 9 90 373 32 368 319 65 431 299 518 
562 7 481 460 252 516 392 483 613 
563 8 506 116 598 538 359 496 434 478 
564 9 158 104 44 161 237 298 245 283 580 
565 9 303 184 569 157 318 12 191 217 162 
566 9 272 292 333 162 465 67 268 38 18 
567 6 521 387 534 21 391 473 
568 9 355 17 614 608 372 573 475 604 173 
569 9 191 303 12 184 565 18 226 318 38 
570 9 75 13 313 98 83 135 335 6 340 
571 9 282 126 208 211 621 472 634 461 592 
572 9 136 180 426 390 406 544 120 202 57 
573 9 604 464 614 487 568 615 554 17 355 
574 9 331 9 259 87 80 618 490 339 97 
575 8 377 542 412 418 223 452 450 82 
576 9 534 387 577 639 539 21 521 254 610 
577 9 576 144 609 358 534 387 21 539 509 
578 9 513 269 276 524 486 371 380 399 131 
579 9 68 73 203 110 179 19 326 196 298 
580 9 245 298 84 271 203 68 311 564 73 
581 9 633 324 121 450 595 412 435 528 433 
582 5 389 410 182 636 160 
583 9 254 610 394 4 473 391 384 174 639 
584 8 451 627 103 341 554 290 536 443 
585 9 638 250 63 50 409 314 416 323 106 
586 6 457 443 397 528 581 121 
587 9 400 448 263 308 499 593 358 609 205 
588 9 117 347 76 234 344 354 603 367 107 
589 7 160 182 636 582 469 389 623 
590 9 625 430 620 415 559 43 548 300 357 
591 7 459 49 420 607 397 302 528 
592 8 211 621 472 405 126 402 208 497 
593 9 308 21 609 448 263 358 587 205 400 
594 9 99 535 611 109 114 123 192 39 183 
595 7 433 324 412 633 581 121 450 
596 9 85 195 3 7 8 600 624 375 463 
597 7 290 310 341 146 536 641 584 
598 7 116 538 359 563 506 453 531 
599 9 187 216 27 519 105 447 42 348 197 
600 9 624 144 539 547 639 596 501 577 8 
601 9 94 217 224 274 230 62 616 565 228 
602 6 205 308 410 499 593 389 
603 8 367 354 533 344 117 479 474 34 
604 9 573 614 554 348 487 464 505 568 197 
605 9 24 165 154 147 307 525 47 297 301 
606 9 484 275 65 299 319 334 168 549 139 
607 8 397 302 459 528 435 82 450 121 
608 8 17 475 173 372 568 355 464 573 
609 9 358 263 448 509 577 593 21 400 308 
610 8 394 583 254 4 473 391 384 393 
611 9 99 383 356 192 594 489 183 123 455 
612 8 517 540 640 222 632 630 361 362 
613 9 119 494 526 252 96 493 562 481 392 
614 9 604 573 568 355 348 519 17 216 464 
615 8 464 487 103 573 604 451 475 627 
616 9 230 62 122 94 256 149 150 366 413 
617 8 516 483 460 481 371 513 562 208 
618 9 339 490 174 353 437 623 331 100 558 
619 8 352 414 428 32 518 342 368 46 
620 9 625 300 590 430 357 548 43 415 285 
621 9 472 208 211 592 571 172 282 126 402 
622 9 234 347 588 107 58 117 76 111 344 
623 8 469 353 490 339 618 365 174 331 
624 9 600 144 539 577 639 547 463 509 8 
625 9 620 590 430 300 548 357 43 415 559 
626 9 40 100 444 385 437 558 174 325 422 
627 7 443 584 103 451 457 341 487 
628 9 500 248 454 629 7 420 198 49 635 
629 9 420 454 628 500 452 49 459 302 223 
630 9 222 556 612 632 640 502 517 507 540 
631 8 423 503 92 417 351 212 527 2 
632 9 517 507 612 361 222 630 540 408 640 
633 9 324 581 121 595 412 433 450 435 457 
634 9 482 461 126 151 511 282 571 497 284 
635 9 49 3 195 268 85 7 375 420 596 
636 4 160 389 582 182 
637 9 258 369 244 260 427 2 289 422 385 
638 9 585 250 63 314 323 50 409 492 416 
639 9 539 547 576 501 254 577 600 624 534 
640 7 362 612 540 222 630 517 632 
641 8 438 436 310 350 488 597 290 146 
DEPOT_SECTION
   1
   -1
EOF
