NAME :  X-n655-kX-w261-c11.cctp
COMMENT : 	Adapted by Maziero, Usberti and Cavellucci from the Uchoa, Pecin, Pessoa, Poggi, Subramanian, and Vidal (2013)
TYPE :  CCTP
DIMENSION :    655
EDGE_WEIGHT_TYPE : 	EUC_2D	
CAPACITY : 	5
VERTICES_WITHIN_COVERAGE :  11
VERTICES_WITH_DEMAND : 	261
NODE_COORD_SECTION
1 500 500
2 346 793
3 692 966
4 171 666
5 287 795
6 133 668
7 704 959
8 400 795
9 195 897
10 845 931
11 829 724
12 300 860
13 218 829
14 116 780
15 237 631
16 126 681
17 825 922
18 315 913
19 271 769
20 530 917
21 156 900
22 265 808
23 171 742
24 388 776
25 153 664
26 393 855
27 320 751
28 594 862
29 213 810
30 723 924
31 192 877
32 661 910
33 153 729
34 334 812
35 558 944
36 502 783
37 266 747
38 23 753
39 180 584
40 702 854
41 354 649
42 412 709
43 721 928
44 168 674
45 364 640
46 375 727
47 247 977
48 332 853
49 664 929
50 646 901
51 248 723
52 116 628
53 123 690
54 247 539
55 715 966
56 314 712
57 237 747
58 202 679
59 409 946
60 684 879
61 142 576
62 204 636
63 440 817
64 697 882
65 772 977
66 177 889
67 341 787
68 391 725
69 82 764
70 734 834
71 352 732
72 646 553
73 102 631
74 354 612
75 374 865
76 421 812
77 335 835
78 646 931
79 560 910
80 702 965
81 273 790
82 329 750
83 300 586
84 850 855
85 235 683
86 393 953
87 389 923
88 341 851
89 781 946
90 329 862
91 472 873
92 356 895
93 194 733
94 53 777
95 133 596
96 606 971
97 273 812
98 223 812
99 156 820
100 317 650
101 177 790
102 389 747
103 663 944
104 336 940
105 284 739
106 737 977
107 249 956
108 433 852
109 294 856
110 285 879
111 280 818
112 175 885
113 295 747
114 669 902
115 763 969
116 138 632
117 193 593
118 220 818
119 145 800
120 739 960
121 72 672
122 752 940
123 639 894
124 329 726
125 799 987
126 118 343
127 660 917
128 382 741
129 242 626
130 164 824
131 350 881
132 509 886
133 190 416
134 72 656
135 353 659
136 132 677
137 364 771
138 893 900
139 140 645
140 411 757
141 397 805
142 171 644
143 488 625
144 260 816
145 764 980
146 149 657
147 769 855
148 716 925
149 191 843
150 566 966
151 620 908
152 358 727
153 268 705
154 406 927
155 139 943
156 192 762
157 549 931
158 177 664
159 433 707
160 301 753
161 361 840
162 120 764
163 178 664
164 109 751
165 318 529
166 419 952
167 309 737
168 289 787
169 350 812
170 88 794
171 151 658
172 185 883
173 411 467
174 603 872
175 342 708
176 317 747
177 579 988
178 329 555
179 361 731
180 37 706
181 394 558
182 154 745
183 324 703
184 370 912
185 727 900
186 150 702
187 383 694
188 151 679
189 149 654
190 144 638
191 269 635
192 212 842
193 217 644
194 250 597
195 835 953
196 620 949
197 324 910
198 344 793
199 176 922
200 370 746
201 204 682
202 262 830
203 328 484
204 385 931
205 706 957
206 201 655
207 300 737
208 379 791
209 728 720
210 296 858
211 154 613
212 663 942
213 135 908
214 805 910
215 646 872
216 113 692
217 349 554
218 290 737
219 430 668
220 588 977
221 236 656
222 370 871
223 286 727
224 89 671
225 136 667
226 195 761
227 188 705
228 377 846
229 375 728
230 269 763
231 235 694
232 452 826
233 281 909
234 215 585
235 325 707
236 419 817
237 392 704
238 152 544
239 136 580
240 643 996
241 198 731
242 155 556
243 345 859
244 99 666
245 519 722
246 168 757
247 295 824
248 676 800
249 229 686
250 772 941
251 294 729
252 637 926
253 464 795
254 346 681
255 327 758
256 665 965
257 98 690
258 852 860
259 770 889
260 124 598
261 235 831
262 680 969
263 323 800
264 525 931
265 120 772
266 839 978
267 214 652
268 660 965
269 297 626
270 236 738
271 148 850
272 138 699
273 336 773
274 605 738
275 190 648
276 119 620
277 198 853
278 288 514
279 888 888
280 165 542
281 682 934
282 794 844
283 759 985
284 416 819
285 724 966
286 403 812
287 270 789
288 482 818
289 69 537
290 734 946
291 292 679
292 346 556
293 644 943
294 681 943
295 323 765
296 514 782
297 141 713
298 624 870
299 625 952
300 356 923
301 356 576
302 328 801
303 185 648
304 287 633
305 689 956
306 645 958
307 137 895
308 299 975
309 448 752
310 348 642
311 151 631
312 675 910
313 245 776
314 434 705
315 283 804
316 889 924
317 187 781
318 486 662
319 350 844
320 519 720
321 720 924
322 259 800
323 514 712
324 443 521
325 421 818
326 174 765
327 750 969
328 481 831
329 281 600
330 141 959
331 299 730
332 320 840
333 341 651
334 365 730
335 789 953
336 680 906
337 145 740
338 304 810
339 290 741
340 467 973
341 600 980
342 288 613
343 309 761
344 153 907
345 307 834
346 335 809
347 989 940
348 176 655
349 759 975
350 345 821
351 658 971
352 749 841
353 380 754
354 316 640
355 177 803
356 133 650
357 254 803
358 311 838
359 293 782
360 493 855
361 704 715
362 102 745
363 226 806
364 147 600
365 437 837
366 262 671
367 152 706
368 310 738
369 146 594
370 864 905
371 271 792
372 317 845
373 607 724
374 407 563
375 469 986
376 693 918
377 235 641
378 405 833
379 617 890
380 508 893
381 361 822
382 712 984
383 577 895
384 225 550
385 171 397
386 391 780
387 418 845
388 155 768
389 135 553
390 381 894
391 383 713
392 631 842
393 313 899
394 777 738
395 289 831
396 699 923
397 323 706
398 309 774
399 232 689
400 232 654
401 540 966
402 373 830
403 137 742
404 205 693
405 178 829
406 203 663
407 354 767
408 212 657
409 370 890
410 300 820
411 142 643
412 274 816
413 358 665
414 330 387
415 152 815
416 522 768
417 232 688
418 179 630
419 359 620
420 276 725
421 269 741
422 300 881
423 234 495
424 848 971
425 141 576
426 158 722
427 140 687
428 293 767
429 250 870
430 571 769
431 162 708
432 236 891
433 142 766
434 470 860
435 409 941
436 293 643
437 219 907
438 438 500
439 381 689
440 186 778
441 298 706
442 149 681
443 745 731
444 314 700
445 252 792
446 218 889
447 286 867
448 331 662
449 817 976
450 210 767
451 60 635
452 290 814
453 356 864
454 377 751
455 759 947
456 209 914
457 348 823
458 600 940
459 283 741
460 219 943
461 334 754
462 146 701
463 245 914
464 333 697
465 700 975
466 354 815
467 281 903
468 393 876
469 313 794
470 116 629
471 350 746
472 457 836
473 360 833
474 723 793
475 322 922
476 373 835
477 182 725
478 612 984
479 276 788
480 337 871
481 157 712
482 180 718
483 110 751
484 478 864
485 198 713
486 97 782
487 245 799
488 366 753
489 705 860
490 251 740
491 331 736
492 678 955
493 357 819
494 170 770
495 310 710
496 138 651
497 157 698
498 299 520
499 253 784
500 314 735
501 238 903
502 753 794
503 116 779
504 25 788
505 115 837
506 191 605
507 39 803
508 269 809
509 333 845
510 103 581
511 390 849
512 678 973
513 368 739
514 218 733
515 698 973
516 742 935
517 338 814
518 272 632
519 96 621
520 200 778
521 741 911
522 728 990
523 374 755
524 628 922
525 713 842
526 426 574
527 243 643
528 736 891
529 379 850
530 348 845
531 370 701
532 281 761
533 121 730
534 189 703
535 405 747
536 722 827
537 380 638
538 192 679
539 323 680
540 194 723
541 675 994
542 391 872
543 754 984
544 319 838
545 289 917
546 466 764
547 409 807
548 302 908
549 140 817
550 303 803
551 479 913
552 42 548
553 349 834
554 702 995
555 686 901
556 379 698
557 659 924
558 362 867
559 290 701
560 157 702
561 289 978
562 239 744
563 312 820
564 742 986
565 195 565
566 339 789
567 191 700
568 341 972
569 259 794
570 200 725
571 219 685
572 378 793
573 329 846
574 326 617
575 640 793
576 317 866
577 279 817
578 942 960
579 369 728
580 688 978
581 190 881
582 136 608
583 184 611
584 85 689
585 507 533
586 326 860
587 279 803
588 688 984
589 653 911
590 360 747
591 319 744
592 390 741
593 252 873
594 657 981
595 104 721
596 363 911
597 154 695
598 667 910
599 185 714
600 896 805
601 73 709
602 324 725
603 258 810
604 233 734
605 794 896
606 267 664
607 84 667
608 692 953
609 299 858
610 193 780
611 647 844
612 427 680
613 227 914
614 57 738
615 708 994
616 249 792
617 283 655
618 146 694
619 263 686
620 105 706
621 241 837
622 312 704
623 199 748
624 370 882
625 227 644
626 331 670
627 295 836
628 59 723
629 201 647
630 662 737
631 249 655
632 183 835
633 343 587
634 285 816
635 770 930
636 354 804
637 331 901
638 817 995
639 172 670
640 397 950
641 317 783
642 391 900
643 309 797
644 324 959
645 437 695
646 77 613
647 361 894
648 721 986
649 272 770
650 688 871
651 708 917
652 380 847
653 359 931
654 83 847
655 185 712
DEMAND_SECTION
2 1
3 1
4 1
5 1
6 1
7 1
8 1
9 1
10 1
11 1
12 1
13 1
14 1
15 1
16 1
17 1
18 1
19 1
20 1
21 1
22 1
23 1
24 1
25 1
26 1
27 1
28 1
29 1
30 1
31 1
32 1
33 1
34 1
35 1
36 1
37 1
38 1
39 1
40 1
41 1
42 1
43 1
44 1
45 1
46 1
47 1
48 1
49 1
50 1
51 1
52 1
53 1
54 1
55 1
56 1
57 1
58 1
59 1
60 1
61 1
62 1
63 1
64 1
65 1
66 1
67 1
68 1
69 1
70 1
71 1
72 1
73 1
74 1
75 1
76 1
77 1
78 1
79 1
80 1
81 1
82 1
83 1
84 1
85 1
86 1
87 1
88 1
89 1
90 1
91 1
92 1
93 1
94 1
95 1
96 1
97 1
98 1
99 1
100 1
101 1
102 1
103 1
104 1
105 1
106 1
107 1
108 1
109 1
110 1
111 1
112 1
113 1
114 1
115 1
116 1
117 1
118 1
119 1
120 1
121 1
122 1
123 1
124 1
125 1
126 1
127 1
128 1
129 1
130 1
131 1
132 1
133 1
134 1
135 1
136 1
137 1
138 1
139 1
140 1
141 1
142 1
143 1
144 1
145 1
146 1
147 1
148 1
149 1
150 1
151 1
152 1
153 1
154 1
155 1
156 1
157 1
158 1
159 1
160 1
161 1
162 1
163 1
164 1
165 1
166 1
167 1
168 1
169 1
170 1
171 1
172 1
173 1
174 1
175 1
176 1
177 1
178 1
179 1
180 1
181 1
182 1
183 1
184 1
185 1
186 1
187 1
188 1
189 1
190 1
191 1
192 1
193 1
194 1
195 1
196 1
197 1
198 1
199 1
200 1
201 1
202 1
203 1
204 1
205 1
206 1
207 1
208 1
209 1
210 1
211 1
212 1
213 1
214 1
215 1
216 1
217 1
218 1
219 1
220 1
221 1
222 1
223 1
224 1
225 1
226 1
227 1
228 1
229 1
230 1
231 1
232 1
233 1
234 1
235 1
236 1
237 1
238 1
239 1
240 1
241 1
242 1
243 1
244 1
245 1
246 1
247 1
248 1
249 1
250 1
251 1
252 1
253 1
254 1
255 1
256 1
257 1
258 1
259 1
260 1
261 1
262 1
COVERAGE_SECTION
2 11 198 67 566 636 169 346 302 34 273 517 466 
3 11 515 80 305 262 465 580 608 7 512 205 492 
4 11 639 158 163 44 348 25 142 171 303 146 188 
5 11 168 315 587 479 359 81 371 287 550 452 634 
6 11 225 136 16 356 496 146 25 427 171 188 189 
7 11 205 80 55 608 3 305 515 465 285 580 262 
8 11 141 547 286 386 208 24 572 76 236 284 325 
9 11 172 581 31 66 456 112 446 437 199 613 21 
10 11 17 195 370 424 214 316 266 449 138 335 279 
11 11 394 443 209 502 600 282 361 474 84 258 352 
12 11 609 210 109 447 576 422 372 110 358 627 586 
13 11 118 192 261 98 29 363 621 149 277 632 405 
14 11 503 265 162 486 164 433 483 170 119 69 362 
15 11 129 377 527 625 193 400 221 631 267 191 62 
16 11 136 53 6 427 216 225 272 442 618 188 462 
17 11 10 214 195 605 370 335 89 424 449 250 635 
18 11 197 475 393 548 637 545 104 233 422 467 300 
19 11 649 230 532 287 479 81 428 37 371 499 168 
20 11 264 157 79 380 132 35 401 551 383 150 360 
21 11 344 307 213 66 112 199 172 9 581 31 155 
22 11 508 603 97 144 322 357 412 569 587 371 577 
23 11 246 182 477 33 326 426 93 337 482 494 156 
24 11 386 208 572 8 353 137 523 454 102 140 141 
25 11 171 146 189 188 225 442 4 44 6 496 639 
26 11 511 529 652 542 228 75 468 378 387 222 476 
27 11 176 591 82 255 295 461 343 368 500 167 160 
28 11 174 298 379 383 392 151 215 123 611 79 50 
29 11 98 118 363 13 261 192 487 520 610 355 317 
30 11 321 43 148 651 516 521 185 396 290 376 122 
31 11 581 172 66 112 9 277 446 149 192 437 456 
32 11 598 127 589 114 312 557 50 49 336 78 123 
33 11 426 337 182 481 297 403 23 367 431 186 560 
34 11 346 517 302 350 169 263 457 466 198 2 636 
35 11 157 150 401 79 264 20 458 220 177 383 96 
36 11 296 416 253 288 546 328 309 245 320 232 430 
37 11 421 230 490 459 105 532 19 420 649 339 218 
38 11 504 614 94 628 180 507 69 601 170 362 486 
39 11 117 506 565 583 234 369 364 242 61 211 425 
40 11 489 525 650 64 60 536 70 352 528 555 185 
41 11 310 135 45 333 413 448 537 419 626 254 74 
42 11 159 237 314 68 391 645 187 612 556 439 535 
43 11 30 321 148 651 290 516 396 521 185 376 122 
44 11 639 4 158 163 25 188 442 348 171 146 538 
45 11 41 310 537 419 135 333 413 74 448 574 254 
46 11 229 579 334 513 179 68 128 391 152 200 592 
47 11 107 561 460 308 463 613 545 456 437 501 233 
48 11 509 573 88 90 586 243 372 77 332 530 480 
49 11 557 127 212 103 78 32 281 598 589 294 312 
50 11 123 589 32 127 114 598 557 151 252 524 215 
51 11 490 270 604 562 57 153 420 421 37 231 514 
52 11 470 276 73 519 116 356 582 139 190 411 260 
53 11 16 216 136 272 427 618 6 620 257 462 225 
54 11 384 423 278 498 234 194 565 329 83 165 117 
55 11 285 7 80 205 465 382 515 648 3 106 120 
56 11 495 622 397 235 444 183 602 441 124 331 500 
57 11 562 270 604 490 514 51 37 313 421 450 230 
58 11 201 538 404 406 571 206 408 567 534 163 249 
59 11 435 166 640 86 154 204 87 642 184 653 300 
60 11 650 64 555 114 336 489 40 312 598 32 215 
61 11 425 239 369 95 242 389 364 260 582 238 39 
62 11 629 193 275 206 267 303 408 625 418 406 377 
63 11 232 325 76 365 236 284 472 253 547 108 387 
64 11 60 650 555 489 40 336 114 185 312 376 651 
65 11 145 115 349 283 543 327 125 335 564 89 455 
66 11 112 172 581 31 9 21 344 199 307 446 456 
67 11 566 198 2 273 302 636 263 346 407 641 34 
68 11 391 46 229 592 128 237 102 579 42 334 535 
69 11 486 362 164 170 483 94 614 503 14 162 265 
70 11 536 352 525 40 489 147 474 502 528 650 64 
71 11 152 179 334 471 513 579 590 491 200 229 46 
72 11 585 361 143 373 630 209 274 318 443 324 323 
73 11 519 52 470 276 646 244 116 356 134 139 260 
74 11 419 633 574 45 310 301 41 537 333 135 354 
75 11 222 558 529 624 453 542 228 652 26 468 511 
76 11 236 325 284 547 286 63 141 378 8 365 387 
77 11 509 573 553 332 530 544 88 319 350 48 457 
78 11 252 293 557 49 127 212 524 103 589 32 306 
79 11 383 157 20 35 264 458 380 132 150 174 28 
80 11 7 205 515 3 465 55 305 608 580 382 262 
81 11 287 371 479 587 5 569 168 315 322 508 22 
82 11 461 255 27 176 591 491 295 471 500 368 343 
83 11 329 342 269 574 178 633 304 194 518 292 354 
84 11 258 279 370 282 138 600 605 214 17 10 316 
85 11 417 249 399 231 571 221 619 400 366 201 631 
86 11 640 59 435 204 166 154 87 653 184 300 596 
87 11 204 154 184 642 435 640 596 59 86 390 653 
88 11 48 243 530 509 319 573 90 77 586 553 453 
89 11 250 335 635 455 115 122 65 349 145 327 516 
90 11 586 48 480 576 88 243 573 509 372 332 530 
91 11 484 434 360 132 472 380 551 328 108 365 232 
92 11 647 131 409 596 624 184 390 637 222 300 558 
93 11 241 540 570 477 623 485 482 599 655 514 23 
94 11 504 507 69 38 170 614 486 628 362 164 14 
95 11 260 582 369 364 239 61 425 211 276 510 52 
96 11 341 478 220 196 299 177 458 150 306 240 293 
97 11 412 508 577 22 111 587 315 634 144 603 452 
98 11 118 363 29 13 261 487 621 192 357 616 445 
99 11 415 130 549 119 405 355 271 632 101 149 505 
100 11 354 448 333 626 436 269 539 310 304 574 617 
101 11 317 355 440 610 494 326 520 388 156 119 226 
102 11 592 128 353 454 535 523 200 68 513 46 140 
103 11 212 49 294 293 492 557 78 256 268 281 306 
104 11 644 475 653 300 197 568 18 637 596 184 393 
105 11 459 218 339 223 113 251 421 207 420 331 37 
106 11 564 327 522 120 285 543 648 349 283 55 382 
107 11 47 460 463 561 613 308 501 545 233 437 456 
108 11 365 387 472 232 378 63 325 284 236 434 26 
109 11 210 609 12 447 627 110 358 372 395 576 345 
110 11 447 422 12 210 467 109 609 233 393 548 593 
111 11 577 634 412 97 452 315 508 587 247 395 22 
112 11 66 172 581 31 9 21 344 199 277 307 446 
113 11 160 339 207 218 459 105 167 331 368 251 343 
114 11 598 312 32 336 127 555 589 50 557 49 60 
115 11 349 145 65 327 283 543 455 120 106 564 89 
116 11 190 411 139 311 356 496 52 276 470 582 189 
117 11 506 39 583 234 565 418 62 211 364 369 242 
118 11 98 13 29 363 261 192 621 487 357 149 603 
119 11 415 549 99 130 355 101 388 433 14 503 265 
120 11 327 290 285 106 122 455 55 349 516 115 564 
121 11 607 134 224 584 244 257 601 451 216 620 180 
122 11 455 516 290 250 635 120 327 89 115 521 30 
123 11 50 379 589 215 151 32 298 524 114 127 252 
124 11 602 491 500 235 56 397 591 175 368 167 71 
125 11 638 449 65 335 145 115 283 266 349 89 543 
126 11 385 133 423 289 238 280 389 242 414 552 384 
127 11 32 557 589 598 49 114 312 78 50 336 212 
128 11 592 102 454 200 353 513 229 46 523 68 579 
129 11 15 377 527 625 191 194 400 631 193 221 518 
130 11 99 405 415 632 355 549 119 271 149 101 277 
131 11 92 480 647 453 558 624 222 409 243 90 637 
132 11 380 360 20 484 91 551 434 264 79 157 328 
133 11 385 423 126 280 238 54 384 278 414 242 389 
134 11 121 607 224 451 244 584 73 519 257 646 52 
135 11 413 41 333 310 45 448 254 626 537 100 539 
136 11 16 6 225 427 53 442 188 618 272 216 25 
137 11 407 488 523 353 454 590 24 208 200 572 2 
138 11 279 316 370 10 258 84 17 578 195 424 214 
139 11 411 496 190 356 116 189 146 171 311 225 25 
140 11 535 102 592 24 386 353 128 454 309 523 68 
141 11 286 8 547 572 208 284 76 236 386 325 378 
142 11 348 303 418 275 158 163 4 171 189 311 146 
143 11 318 219 526 612 645 323 585 314 159 320 245 
144 11 603 22 508 97 202 357 412 322 577 111 569 
145 11 283 349 65 115 543 327 564 106 120 455 125 
146 11 171 189 25 496 139 225 411 356 6 190 188 
147 11 352 282 259 70 605 528 536 525 185 502 521 
148 11 321 43 30 651 396 376 185 290 516 521 205 
149 11 632 277 405 192 13 130 31 118 581 29 172 
150 11 35 220 177 401 341 157 96 458 478 264 79 
151 11 524 379 123 252 50 589 78 298 458 174 32 
152 11 179 71 334 579 513 46 229 590 471 200 175 
153 11 619 420 559 51 223 441 231 251 291 366 421 
154 11 435 87 59 204 640 166 86 642 184 390 596 
155 11 330 213 344 199 21 307 66 112 9 172 456 
156 11 226 623 440 326 520 610 450 317 494 246 23 
157 11 35 20 79 264 401 150 383 458 380 132 220 
158 11 163 4 639 348 44 303 142 275 538 25 206 
159 11 314 645 42 612 219 237 68 309 535 391 187 
160 11 113 343 207 339 428 176 368 167 27 218 591 
161 11 473 319 476 553 530 402 228 381 652 457 493 
162 11 265 14 483 503 164 433 362 403 486 533 337 
163 11 158 4 639 348 44 303 275 142 538 25 206 
164 11 483 362 162 265 533 403 503 14 69 595 486 
165 11 498 178 278 292 217 203 83 301 633 54 329 
166 11 59 435 640 86 154 204 87 340 642 375 184 
167 11 368 500 207 331 591 176 113 251 27 160 218 
168 11 359 5 479 81 315 287 371 587 428 550 643 
169 11 466 636 350 493 457 517 346 381 34 2 198 
170 11 486 14 69 503 94 265 162 164 483 507 362 
171 11 146 189 25 496 139 225 411 356 6 188 190 
172 11 581 31 66 112 9 277 21 446 456 149 199 
173 11 438 324 203 181 374 217 526 292 165 414 585 
174 11 28 298 379 383 151 392 123 215 50 611 524 
175 11 464 235 183 397 124 152 602 71 254 56 444 
176 11 591 27 368 82 500 167 255 343 160 461 491 
177 11 220 341 150 96 478 401 35 458 196 299 157 
178 11 292 217 165 301 633 83 498 278 74 574 181 
179 11 334 152 71 579 513 229 46 590 200 471 128 
180 11 628 601 614 38 121 584 134 607 224 257 620 
181 11 374 526 301 217 292 633 324 178 74 419 438 
182 11 337 33 23 403 246 388 426 433 326 494 481 
183 11 397 235 444 464 622 56 495 175 602 539 124 
184 11 596 300 647 390 87 92 409 653 204 642 624 
185 11 528 521 30 321 651 148 43 64 396 376 516 
186 11 367 462 560 497 597 618 272 481 431 297 427 
187 11 439 556 237 531 391 68 42 46 229 579 413 
188 11 442 427 25 597 618 44 136 225 497 6 171 
189 11 146 171 25 496 139 411 356 190 225 6 311 
190 11 411 116 139 311 496 356 189 146 171 211 25 
191 11 518 304 617 436 527 129 631 269 342 606 15 
192 11 13 277 149 118 261 621 632 29 98 405 363 
193 11 267 625 408 62 629 377 400 206 221 15 406 
194 11 129 329 15 234 342 518 191 377 527 83 304 
195 11 424 10 266 449 17 335 638 125 214 89 370 
196 11 299 458 293 96 306 524 252 78 478 341 151 
197 11 18 637 475 393 548 104 92 300 545 422 131 
198 11 2 566 67 636 302 346 169 34 263 273 517 
199 11 344 21 9 66 456 112 172 155 213 581 437 
200 11 513 488 454 523 590 128 353 179 334 579 102 
201 11 58 404 538 571 406 567 249 408 534 206 227 
202 11 144 412 603 97 577 22 111 508 621 261 395 
203 11 165 498 278 178 217 292 173 423 301 414 54 
204 11 87 154 640 86 184 435 653 59 300 596 642 
205 11 7 80 55 608 3 305 515 465 285 382 492 
206 11 406 629 408 267 275 303 62 193 58 163 348 
207 11 331 167 218 251 368 113 339 500 105 160 223 
208 11 572 386 24 8 141 137 636 286 2 547 198 
209 11 443 361 394 630 474 502 248 11 536 70 575 
210 11 109 609 12 447 576 627 422 110 358 372 345 
211 11 364 311 582 369 116 95 190 418 583 411 260 
212 11 103 49 294 557 293 78 492 281 256 268 306 
213 11 307 344 21 155 199 66 112 330 172 271 9 
214 11 605 17 635 259 89 10 250 335 195 370 455 
215 11 298 123 611 50 379 392 114 60 589 32 650 
216 11 53 257 620 16 136 272 427 584 244 595 6 
217 11 292 178 301 633 165 181 74 83 374 498 419 
218 11 339 105 459 251 207 113 223 331 420 160 167 
219 11 612 645 314 159 42 237 439 187 318 537 556 
220 11 341 177 96 150 478 458 196 35 299 401 240 
221 11 400 631 377 527 625 193 267 408 15 85 366 
222 11 75 558 624 453 409 542 131 529 468 390 647 
223 11 251 420 218 105 331 459 339 207 113 421 441 
224 11 607 244 121 584 257 134 216 16 620 53 601 
225 11 6 136 146 496 16 25 171 356 189 188 442 
226 11 156 623 450 520 440 610 326 317 246 494 93 
227 11 534 567 655 599 485 482 540 404 477 570 431 
228 11 652 529 476 511 402 161 26 75 473 222 558 
229 11 46 579 334 513 179 128 68 152 391 200 592 
230 11 19 649 532 37 421 428 287 459 479 499 81 
231 11 399 417 249 85 571 619 404 51 201 153 366 
232 11 472 63 365 328 288 108 325 253 76 236 284 
233 11 467 545 548 110 18 393 422 463 447 197 475 
234 11 117 565 506 39 384 194 583 129 15 62 54 
235 11 397 183 56 444 464 622 495 175 602 124 441 
236 11 325 284 76 547 286 63 378 141 365 387 8 
237 11 187 391 556 439 42 68 531 46 229 579 334 
238 11 242 280 389 61 425 239 565 39 369 95 364 
239 11 425 61 95 369 260 364 389 582 242 510 211 
240 11 594 351 541 478 268 256 306 512 96 262 341 
241 11 93 570 540 477 623 485 514 599 482 655 227 
242 11 238 280 389 61 425 239 39 369 565 364 95 
243 11 88 453 48 480 530 90 319 509 558 586 573 
244 11 224 607 257 584 121 134 216 16 6 53 73 
245 11 320 323 416 296 36 318 546 430 309 645 159 
246 11 326 494 23 388 182 156 226 433 440 337 317 
247 11 410 395 452 627 634 111 345 338 563 577 358 
248 11 575 474 536 611 525 40 392 630 70 489 650 
249 11 399 417 85 231 571 201 404 58 221 400 408 
250 11 89 635 455 122 335 115 516 65 327 349 120 
251 11 331 223 218 207 339 105 459 167 113 368 420 
252 11 78 524 293 557 589 127 151 49 50 32 196 
253 11 288 546 63 232 36 328 472 76 309 325 236 
254 11 626 413 464 135 539 448 175 333 183 531 41 
255 11 82 295 461 27 176 591 273 343 491 398 160 
256 11 268 351 512 262 492 594 103 306 212 305 580 
257 11 584 216 620 224 244 53 607 16 601 121 595 
258 11 84 279 370 138 282 17 605 214 600 10 316 
259 11 605 147 528 521 214 635 185 282 250 352 122 
260 11 95 582 239 369 276 364 510 61 425 52 470 
261 11 621 13 118 98 192 202 363 144 29 603 357 
262 11 512 3 580 492 256 305 588 515 268 608 465 
263 11 302 469 643 346 34 641 566 550 338 517 67 
264 11 20 157 35 401 79 380 132 551 150 383 340 
265 11 162 503 14 433 483 164 486 362 403 388 119 
266 11 424 449 195 638 125 10 335 17 89 65 316 
267 11 408 193 206 629 625 406 400 62 221 275 377 
268 11 256 351 594 306 262 512 103 492 212 293 294 
269 11 304 342 436 354 518 191 574 100 329 617 83 
270 11 604 562 57 490 51 514 37 421 570 623 241 
271 11 99 130 549 415 505 405 632 112 149 307 66 
272 11 462 618 186 427 297 367 597 53 497 560 442 
273 11 67 295 566 255 407 461 641 2 198 82 27 
274 11 373 430 630 575 245 320 416 248 323 296 361 
275 11 303 629 206 348 62 142 163 406 158 418 267 
276 11 52 470 73 582 116 260 519 95 190 139 356 
277 11 149 192 632 31 581 13 405 172 112 118 446 
278 11 498 165 54 203 423 178 292 83 217 384 329 
279 11 138 370 316 258 84 10 17 600 195 214 578 
280 11 238 242 389 565 61 425 39 239 369 117 364 
281 11 294 49 376 396 103 212 492 608 305 312 557 
282 11 147 352 259 605 84 258 70 502 214 536 528 
283 11 543 145 349 65 115 564 327 106 522 120 455 
284 11 236 325 76 547 286 378 63 141 387 365 8 
285 11 55 120 106 205 648 7 80 290 382 522 327 
286 11 547 141 284 8 236 76 325 378 572 208 386 
287 11 81 371 479 569 322 587 5 445 499 168 649 
288 11 328 253 232 472 360 36 63 434 484 296 365 
289 11 552 510 389 646 239 260 425 61 238 95 242 
290 11 516 120 122 43 285 30 455 321 55 148 327 
291 11 559 617 441 606 444 619 366 539 622 153 436 
292 11 217 178 301 633 165 181 83 74 498 374 574 
293 11 78 306 252 103 212 299 49 557 196 524 268 
294 11 281 492 305 608 103 212 49 3 262 256 396 
295 11 255 27 273 343 82 461 398 176 641 591 160 
296 11 36 416 288 546 253 430 328 245 320 323 309 
297 11 367 462 186 272 481 426 560 33 618 431 497 
298 11 174 379 215 123 392 28 611 50 151 589 524 
299 11 196 293 306 96 458 252 78 524 478 268 341 
300 11 653 596 184 104 92 647 204 87 637 475 197 
301 11 633 292 217 178 74 181 419 574 374 83 165 
302 11 263 346 34 517 566 469 198 67 643 2 641 
303 11 275 348 142 629 163 206 158 418 62 4 406 
304 11 269 436 518 191 342 617 354 100 329 606 574 
305 11 608 3 492 7 294 80 262 205 515 512 465 
306 11 293 268 351 256 299 103 212 594 78 196 252 
307 11 213 21 344 112 66 271 199 155 172 581 9 
308 11 561 644 568 104 47 107 475 545 18 548 233 
309 11 546 140 535 253 159 314 42 645 102 592 36 
310 11 41 333 45 135 413 419 448 74 100 354 537 
311 11 190 116 411 139 211 189 142 496 146 356 171 
312 11 336 598 114 32 555 127 376 557 49 589 281 
313 11 499 616 445 487 569 19 230 287 322 357 649 
314 11 159 645 42 612 219 237 68 309 535 187 391 
315 11 587 5 452 634 97 111 577 412 508 81 371 
316 11 138 370 279 10 195 424 17 578 258 266 84 
317 11 440 610 101 520 156 494 326 226 355 450 246 
318 11 143 219 323 645 612 314 320 245 159 42 309 
319 11 530 553 88 161 473 243 77 509 48 453 457 
320 11 245 323 416 296 36 318 546 430 309 314 645 
321 11 30 43 148 651 396 185 516 521 290 376 122 
322 11 357 569 22 603 445 508 616 371 487 144 287 
323 11 320 245 318 416 296 546 36 309 645 314 159 
324 11 438 374 526 181 173 585 217 292 301 143 178 
325 11 236 284 76 547 63 286 378 365 141 387 8 
326 11 494 246 156 440 388 226 317 23 610 101 182 
327 11 349 115 120 106 543 145 283 564 65 455 285 
328 11 288 472 360 232 434 484 253 63 91 365 36 
329 11 342 83 194 269 518 304 191 436 129 574 354 
330 11 155 199 213 344 21 307 66 460 112 9 456 
331 11 251 207 218 167 223 339 368 500 105 113 459 
332 11 544 372 358 573 345 509 77 48 586 563 88 
333 11 310 41 135 448 626 413 100 45 354 254 539 
334 11 179 579 152 513 46 229 71 200 590 128 471 
335 11 89 250 65 635 115 455 125 449 145 349 122 
336 11 312 555 114 598 376 32 127 396 60 589 49 
337 11 403 182 33 426 23 433 533 297 246 388 481 
338 11 550 410 563 643 452 247 469 634 263 315 5 
339 11 218 105 459 113 207 251 331 223 160 167 368 
340 11 375 166 551 59 435 264 401 640 154 86 20 
341 11 96 220 478 177 150 196 299 458 240 306 35 
342 11 329 269 304 518 191 83 436 574 354 194 617 
343 11 160 398 27 295 176 428 255 113 591 82 368 
344 11 21 213 307 199 66 112 155 172 9 581 31 
345 11 358 627 544 332 372 563 247 410 395 338 573 
346 11 34 517 302 169 263 350 198 2 457 466 566 
347 11 578 316 138 279 370 10 424 195 266 258 84 
348 11 158 163 303 4 142 275 639 44 25 171 206 
349 11 115 145 283 543 327 65 564 106 120 455 522 
350 11 457 169 517 466 493 34 553 346 381 77 473 
351 11 268 256 594 306 512 262 492 103 212 240 541 
352 11 70 147 536 525 282 502 489 40 259 528 474 
353 11 454 523 102 128 200 488 592 513 590 24 137 
354 11 100 436 269 574 333 448 304 310 626 617 41 
355 11 101 317 130 405 99 440 415 610 119 632 494 
356 11 496 139 411 189 190 146 225 6 116 171 25 
357 11 322 603 487 569 445 22 616 144 508 499 371 
358 11 345 544 332 372 627 563 573 247 410 395 509 
359 11 168 5 428 398 479 81 643 469 550 287 315 
360 11 484 434 328 91 132 288 380 472 232 365 108 
361 11 209 443 630 394 474 248 502 373 575 274 536 
362 11 164 483 533 595 162 69 265 403 486 503 14 
363 11 98 118 29 487 13 261 616 357 445 603 322 
364 11 369 582 95 211 239 260 61 425 311 116 276 
365 11 108 232 63 472 387 325 236 284 76 378 434 
366 11 606 619 631 617 85 221 291 400 417 527 153 
367 11 186 560 462 481 497 431 597 297 618 272 426 
368 11 167 500 207 176 591 331 27 113 160 251 602 
369 11 364 95 239 582 61 425 211 260 39 276 311 
370 11 138 279 316 10 17 258 84 195 214 424 605 
371 11 81 287 479 569 322 587 5 22 315 508 168 
372 11 332 544 358 573 345 509 48 586 77 90 576 
373 11 274 630 430 575 245 320 323 416 361 248 296 
374 11 181 526 301 324 217 292 633 438 74 419 178 
375 11 340 166 59 401 551 435 264 640 86 154 20 
376 11 396 651 336 555 281 312 148 598 294 321 114 
377 11 527 625 15 400 221 129 193 631 267 408 62 
378 11 284 387 236 286 325 511 26 76 547 141 652 
379 11 151 298 123 174 50 215 524 28 383 252 589 
380 11 132 20 551 91 360 264 484 434 79 157 328 
381 11 493 466 473 457 402 169 350 553 161 476 636 
382 11 648 615 465 554 522 55 515 80 285 588 580 
383 11 79 174 28 379 151 157 458 20 35 298 524 
384 11 54 565 234 194 117 39 423 280 506 242 238 
385 11 133 126 423 280 238 414 242 389 54 384 278 
386 11 24 208 8 572 141 137 353 140 523 454 547 
387 11 108 378 365 284 26 325 236 511 76 63 286 
388 11 433 494 246 326 182 337 23 101 403 440 119 
389 11 238 242 61 425 239 280 369 95 510 260 364 
390 11 409 642 624 647 184 468 542 92 222 596 75 
391 11 237 68 46 556 229 531 187 579 439 334 128 
392 11 611 298 215 174 28 379 575 123 50 248 650 
393 11 18 548 197 637 422 475 545 467 576 110 233 
394 11 443 209 11 502 361 474 70 536 282 352 630 
395 11 627 247 111 410 634 452 577 345 412 358 97 
396 11 376 651 148 281 321 43 30 336 555 294 312 
397 11 235 183 56 444 622 464 495 175 602 124 441 
398 11 641 343 295 428 359 469 160 643 168 255 27 
399 11 417 249 231 85 571 404 201 619 58 221 366 
400 11 221 625 377 527 631 193 267 408 15 85 129 
401 11 150 35 157 264 177 220 20 79 341 458 96 
402 11 476 473 381 161 228 652 493 529 466 553 511 
403 11 337 182 533 33 433 162 483 164 297 426 388 
404 11 201 58 567 571 534 538 227 485 249 399 417 
405 11 632 130 149 99 355 415 277 192 271 101 13 
406 11 206 408 58 267 629 201 538 275 303 193 163 
407 11 137 488 273 471 590 523 67 461 200 2 566 
408 11 267 206 406 193 629 400 625 62 58 221 275 
409 11 624 647 390 92 222 131 184 596 642 558 75 
410 11 247 338 452 563 345 395 634 550 627 111 358 
411 11 139 190 496 356 116 189 311 146 171 25 225 
412 11 97 577 111 508 634 22 144 587 315 452 603 
413 11 135 41 254 333 310 45 448 626 439 537 187 
414 11 203 173 278 498 133 165 423 438 385 178 217 
415 11 99 549 130 119 355 405 101 271 632 505 388 
416 11 296 36 245 320 430 546 323 253 288 328 309 
417 11 399 249 85 231 571 404 201 58 619 221 366 
418 11 142 303 583 275 348 62 311 506 629 211 206 
419 11 74 45 310 537 41 574 333 633 135 301 413 
420 11 223 105 421 459 218 251 339 153 37 331 207 
421 11 37 459 105 420 490 218 339 223 230 532 113 
422 11 110 447 12 393 210 576 609 109 548 467 586 
423 11 54 384 278 498 565 280 133 165 234 203 238 
424 11 266 195 449 638 10 125 17 316 335 370 89 
425 11 61 239 369 95 242 389 364 260 582 238 510 
426 11 33 481 431 367 297 560 186 337 482 182 23 
427 11 618 442 272 136 188 16 462 597 53 186 6 
428 11 532 359 160 343 398 113 168 649 19 230 339 
429 11 593 432 621 501 110 447 446 202 261 463 467 
430 11 274 416 296 373 36 245 320 575 323 392 28 
431 11 481 560 367 497 186 426 597 462 482 618 297 
432 11 501 446 437 593 429 463 613 456 9 31 467 
433 11 388 162 265 182 403 337 246 494 503 14 326 
434 11 484 91 360 472 328 108 232 365 288 132 380 
435 11 59 154 166 640 86 204 87 642 184 653 390 
436 11 304 617 269 354 518 100 191 342 606 291 366 
437 11 613 456 446 501 432 9 463 460 581 31 172 
438 11 324 173 374 181 526 585 217 292 203 301 178 
439 11 187 556 531 237 391 413 254 42 68 46 229 
440 11 317 610 520 101 156 326 494 226 450 355 246 
441 11 559 495 622 56 444 251 223 331 397 183 235 
442 11 188 427 618 597 25 136 225 497 44 462 6 
443 11 209 394 361 502 474 630 11 248 536 70 352 
444 11 622 183 397 495 56 235 441 464 539 559 602 
445 11 616 569 499 487 322 357 313 287 371 603 22 
446 11 432 437 9 501 456 613 31 581 172 429 463 
447 11 110 210 109 12 609 422 576 627 593 395 429 
448 11 626 333 100 539 135 254 41 310 354 413 464 
449 11 638 125 266 195 424 335 65 89 10 145 115 
450 11 520 226 156 610 623 440 317 57 514 313 326 
451 11 134 646 121 519 607 73 224 244 52 470 584 
452 11 634 111 247 577 315 410 338 412 587 97 395 
453 11 558 243 222 75 131 88 480 319 530 624 161 
454 11 353 523 200 128 488 102 513 592 590 229 46 
455 11 122 250 635 516 89 115 120 327 290 349 335 
456 11 437 613 9 446 460 501 199 432 463 581 172 
457 11 350 466 493 169 553 381 517 473 34 77 346 
458 11 196 299 96 524 151 220 252 341 35 150 293 
459 11 105 339 218 113 223 421 251 207 420 37 331 
460 11 613 456 107 437 463 47 501 199 9 446 432 
461 11 82 255 27 295 176 471 491 591 273 407 343 
462 11 186 618 272 367 597 497 560 297 427 481 431 
463 11 501 613 432 437 233 456 446 467 460 107 593 
464 11 183 235 397 175 444 539 254 622 56 495 626 
465 11 515 80 3 580 382 588 7 55 205 554 262 
466 11 169 493 381 457 350 636 517 473 34 346 553 
467 11 233 545 548 110 422 393 18 447 463 593 501 
468 11 542 26 75 390 222 624 642 409 511 529 558 
469 11 643 263 641 550 302 338 398 359 168 5 563 
470 11 52 276 73 116 519 356 139 190 582 411 496 
471 11 590 71 488 461 179 513 200 82 152 407 491 
472 11 232 365 63 328 434 108 288 484 91 325 387 
473 11 161 381 553 402 476 493 319 457 530 350 466 
474 11 502 536 70 248 525 352 40 443 489 209 147 
475 11 18 197 104 637 548 393 545 300 644 653 596 
476 11 402 228 161 473 652 529 381 511 493 553 319 
477 11 482 599 540 655 93 241 570 23 485 227 534 
478 11 341 96 220 177 240 299 196 306 594 458 351 
479 11 81 287 371 5 168 587 315 359 569 649 19 
480 11 90 243 131 586 48 88 453 576 558 509 573 
481 11 431 367 426 560 186 497 297 462 33 597 618 
482 11 599 477 655 227 540 534 485 93 431 567 570 
483 11 164 362 162 265 533 403 503 14 69 595 486 
484 11 434 91 360 328 472 132 380 232 288 108 365 
485 11 540 570 227 534 599 655 567 241 482 93 477 
486 11 170 14 503 69 265 162 164 483 362 94 433 
487 11 616 357 445 322 569 499 603 363 22 144 313 
488 11 200 523 590 454 353 513 471 137 407 128 179 
489 11 40 525 650 64 60 536 70 528 555 185 352 
490 11 562 270 57 37 51 421 604 230 420 459 105 
491 11 124 602 82 591 500 176 461 27 71 368 471 
492 11 305 294 262 608 256 3 512 103 212 268 281 
493 11 381 466 169 457 350 473 636 553 402 517 161 
494 11 326 246 388 440 317 101 156 610 226 23 433 
495 11 56 622 444 441 397 235 183 602 559 331 124 
496 11 356 139 411 189 146 190 171 225 6 116 25 
497 11 560 597 186 367 431 462 618 481 272 442 188 
498 11 278 165 178 203 54 292 217 83 423 301 384 
499 11 445 616 313 569 322 487 287 357 371 81 19 
500 11 167 368 591 176 207 602 331 27 124 491 82 
501 11 432 463 613 437 446 456 593 429 9 233 467 
502 11 474 70 536 352 394 525 147 443 282 248 209 
503 11 14 265 162 486 164 433 483 170 119 69 362 
504 11 507 94 38 614 69 170 486 628 180 654 362 
505 11 549 654 271 415 99 119 130 170 14 486 503 
506 11 583 117 39 418 234 62 211 565 275 303 629 
507 11 504 94 170 38 69 486 654 614 14 503 628 
508 11 22 97 412 144 603 587 322 577 111 315 357 
509 11 573 48 77 88 332 530 372 544 90 319 586 
510 11 260 239 95 425 61 519 646 276 389 582 369 
511 11 26 652 529 228 378 476 75 542 402 468 387 
512 11 262 580 256 588 3 492 268 305 351 515 541 
513 11 200 334 179 579 590 229 46 128 488 454 152 
514 11 604 270 241 570 57 93 562 623 540 485 51 
515 11 465 3 80 580 7 588 55 205 262 382 305 
516 11 122 290 455 30 43 521 120 321 148 635 250 
517 11 34 346 350 169 457 302 466 636 493 77 263 
518 11 191 304 436 342 617 269 129 527 606 329 631 
519 11 73 52 646 470 276 260 451 510 134 582 116 
520 11 610 317 440 450 156 226 101 326 623 494 355 
521 11 185 528 30 516 321 43 148 122 651 635 259 
522 11 648 564 106 382 615 285 554 55 543 327 283 
523 11 454 353 488 200 128 590 102 513 137 592 407 
524 11 252 151 78 293 589 50 196 123 299 557 127 
525 11 40 536 489 70 352 650 64 60 474 528 248 
526 11 374 181 324 301 438 537 143 217 74 419 292 
527 11 377 15 631 221 400 625 129 193 191 267 518 
528 11 185 521 259 30 321 651 148 43 64 489 516 
529 11 652 228 511 26 75 476 161 402 222 558 473 
530 11 319 88 553 161 243 509 77 473 48 573 453 
531 11 556 187 439 391 237 46 229 579 152 175 334 
532 11 230 19 428 649 113 459 37 105 160 339 421 
533 11 595 403 164 362 483 297 337 620 33 162 272 
534 11 227 567 655 599 485 482 404 540 477 538 570 
535 11 140 102 592 128 68 353 454 523 24 200 46 
536 11 70 525 352 40 474 489 502 248 147 650 64 
537 11 45 41 419 310 135 413 74 333 439 254 448 
538 11 58 201 404 406 158 163 567 639 534 4 44 
539 11 626 448 464 444 183 254 397 622 235 100 291 
540 11 570 241 93 485 477 599 655 482 227 534 567 
541 11 588 512 580 594 262 554 351 256 465 515 240 
542 11 468 26 75 222 511 624 390 529 652 409 642 
543 11 283 349 145 564 327 115 106 65 522 120 648 
544 11 332 372 358 345 573 77 509 563 48 586 627 
545 11 233 467 548 18 393 475 197 110 422 463 637 
546 11 309 253 36 296 140 288 416 63 535 232 76 
547 11 286 141 76 236 284 8 325 378 386 63 208 
548 11 18 393 545 233 197 467 475 422 637 110 447 
549 11 415 99 119 130 505 271 355 405 14 503 101 
550 11 338 643 469 410 452 5 563 263 315 168 247 
551 11 380 132 91 264 484 20 434 360 340 157 166 
552 11 289 510 646 451 519 389 260 239 73 95 425 
553 11 319 457 473 530 161 77 350 381 493 88 509 
554 11 615 382 588 465 648 515 580 522 541 80 3 
555 11 336 312 114 376 598 60 64 396 32 651 650 
556 11 187 439 531 237 391 46 68 229 579 42 334 
557 11 49 127 32 589 78 598 212 103 312 252 114 
558 11 453 222 75 624 131 243 409 529 480 88 228 
559 11 441 153 291 495 622 444 56 223 251 420 331 
560 11 497 367 186 431 597 481 462 618 272 297 426 
561 11 308 644 47 107 568 104 545 475 233 18 548 
562 11 57 270 604 490 51 514 37 421 313 230 450 
563 11 410 338 345 247 358 544 550 332 34 263 452 
564 11 106 543 522 283 327 349 648 145 120 115 285 
565 11 39 117 234 384 280 506 242 583 238 61 425 
566 11 67 198 2 273 302 263 346 636 641 34 169 
567 11 534 227 655 485 599 404 482 538 201 540 58 
568 11 644 104 308 653 300 561 475 86 204 640 18 
569 11 322 445 357 616 287 371 499 22 81 487 603 
570 11 241 540 93 485 477 599 514 655 482 227 623 
571 11 249 417 399 201 85 404 58 231 406 538 408 
572 11 208 386 24 8 141 137 636 286 2 466 493 
573 11 509 48 332 372 77 88 544 586 90 530 358 
574 11 354 74 269 310 419 100 633 333 342 83 304 
575 11 248 392 611 630 274 430 373 215 298 28 474 
576 11 586 90 12 48 609 372 480 210 422 573 109 
577 11 111 412 634 97 452 508 315 587 22 247 395 
578 11 347 316 138 279 370 424 10 266 195 17 449 
579 11 334 46 229 179 152 513 71 128 200 391 590 
580 11 588 512 515 262 465 3 80 541 305 554 7 
581 11 31 172 66 112 9 277 446 149 456 21 437 
582 11 95 364 260 369 211 276 116 311 52 239 470 
583 11 506 117 418 39 211 62 142 275 303 311 364 
584 11 257 224 121 607 601 620 244 216 134 595 53 
585 11 324 438 526 143 374 173 181 318 72 219 301 
586 11 90 48 576 573 480 88 372 509 243 332 544 
587 11 315 5 97 508 81 371 412 577 634 22 111 
588 11 580 465 512 515 541 262 3 554 615 80 382 
589 11 32 127 50 557 598 114 49 78 123 252 312 
590 11 488 200 471 513 179 523 71 454 334 152 353 
591 11 176 27 500 368 82 167 491 255 461 160 207 
592 11 102 128 68 353 454 535 229 46 200 523 513 
593 11 429 432 501 110 447 446 621 463 467 202 109 
594 11 351 268 256 240 512 541 262 306 580 588 492 
595 11 620 533 362 164 216 483 257 601 53 584 297 
596 11 184 300 92 647 653 409 390 87 204 624 642 
597 11 497 186 560 618 462 367 431 442 188 272 427 
598 11 32 114 312 127 336 589 557 49 555 50 376 
599 11 655 482 227 477 534 485 540 567 570 93 241 
600 11 84 258 279 138 11 370 282 316 10 147 17 
601 11 628 584 257 620 595 614 180 121 224 216 607 
602 11 124 491 500 56 235 167 368 397 591 495 183 
603 11 144 22 357 322 508 97 569 412 487 445 202 
604 11 270 562 57 514 51 490 570 37 241 421 623 
605 11 214 259 17 635 147 250 89 282 521 335 528 
606 11 366 617 631 619 191 291 221 518 527 436 400 
607 11 224 121 244 134 584 257 216 73 451 601 16 
608 11 305 3 7 492 205 294 80 262 281 515 465 
609 11 12 210 109 447 576 372 627 358 422 110 345 
610 11 317 440 520 156 101 226 450 326 494 355 623 
611 11 392 215 298 650 60 123 575 174 248 379 28 
612 11 219 645 314 159 42 237 187 439 556 391 68 
613 11 437 501 456 463 432 446 460 9 107 593 429 
614 11 628 601 69 38 180 94 362 595 164 483 584 
615 11 554 382 648 522 465 588 515 580 55 80 3 
616 11 445 487 499 569 357 322 313 603 287 371 22 
617 11 436 606 304 191 518 291 366 269 100 631 354 
618 11 462 597 186 272 427 497 367 442 560 188 297 
619 11 366 153 606 85 231 291 399 417 559 249 631 
620 11 595 216 257 53 584 533 601 16 272 297 224 
621 11 261 202 13 118 144 192 98 603 363 429 357 
622 11 444 495 56 397 183 235 441 464 559 602 539 
623 11 226 93 156 241 450 570 514 540 23 477 326 
624 11 409 222 647 390 75 558 92 131 453 542 468 
625 11 377 193 400 221 267 15 527 408 129 62 631 
626 11 448 539 254 333 100 135 413 464 41 310 183 
627 11 395 247 345 358 410 109 210 609 634 111 452 
628 11 614 601 180 584 595 38 69 362 620 257 121 
629 11 206 62 275 267 408 193 303 406 348 625 418 
630 11 361 274 373 575 248 209 443 474 430 502 536 
631 11 221 527 400 377 606 366 625 15 191 129 85 
632 11 405 149 130 277 192 99 355 13 415 271 29 
633 11 301 74 292 217 574 178 419 83 310 45 181 
634 11 111 452 577 412 315 97 247 587 395 410 508 
635 11 250 89 455 122 516 335 521 290 115 214 259 
636 11 169 466 2 198 493 350 381 517 346 457 67 
637 11 197 393 18 475 92 131 548 480 647 300 596 
638 11 449 125 266 424 195 65 335 145 283 115 89 
639 11 4 44 158 163 348 25 538 188 171 442 142 
640 11 86 59 435 166 204 154 87 653 184 300 642 
641 11 398 469 643 263 295 273 302 343 566 67 359 
642 11 390 87 409 184 468 542 624 596 154 647 204 
643 11 469 550 263 338 641 302 5 168 359 398 563 
644 11 568 104 308 475 561 653 18 300 197 545 548 
645 11 314 159 612 219 42 237 187 68 439 391 309 
646 11 519 451 73 510 52 470 134 276 260 607 244 
647 11 92 409 624 131 596 184 390 222 558 300 453 
648 11 522 382 615 106 285 55 554 564 465 515 80 
649 11 19 230 532 479 287 81 428 371 37 168 359 
650 11 60 64 489 40 555 114 336 525 312 215 598 
651 11 148 396 321 376 30 43 185 555 336 281 312 
652 11 228 529 511 476 26 402 75 161 473 222 542 
653 11 300 596 184 104 204 87 92 647 475 86 197 
654 11 505 170 507 549 271 486 307 14 94 415 503 
655 11 599 227 482 534 477 485 567 540 570 93 241 
DEPOT_SECTION
   1
   -1
EOF
