NAME :  X-n655-kX-w65-c7.cctp
COMMENT : 	Adapted by Maziero, Usberti and Cavellucci from the Uchoa, Pecin, Pessoa, Poggi, Subramanian, and Vidal (2013)
TYPE :  CCTP
DIMENSION :    399
EDGE_WEIGHT_TYPE : 	EUC_2D	
CAPACITY : 	5
VERTICES_WITHIN_COVERAGE :  7
VERTICES_WITH_DEMAND : 	65
NODE_COORD_SECTION
1 500 500
2 346 793
3 692 966
4 171 666
5 287 795
6 133 668
7 704 959
8 400 795
9 195 897
10 845 931
11 829 724
12 300 860
13 218 829
14 116 780
15 237 631
16 126 681
17 825 922
18 315 913
19 271 769
20 530 917
21 156 900
22 265 808
23 171 742
24 388 776
25 153 664
26 393 855
27 320 751
28 594 862
29 213 810
30 723 924
31 192 877
32 661 910
33 153 729
34 334 812
35 558 944
36 502 783
37 266 747
38 23 753
39 180 584
40 702 854
41 354 649
42 412 709
43 721 928
44 168 674
45 364 640
46 375 727
47 247 977
48 332 853
49 664 929
50 646 901
51 248 723
52 116 628
53 123 690
54 247 539
55 715 966
56 314 712
57 237 747
58 202 679
59 409 946
60 684 879
61 142 576
62 204 636
63 440 817
64 697 882
65 772 977
66 177 889
67 341 787
68 391 725
69 734 834
70 102 631
71 354 612
72 421 812
73 646 931
74 560 910
75 702 965
76 273 790
77 329 750
78 393 953
79 341 851
80 781 946
81 329 862
82 53 777
83 133 596
84 273 812
85 223 812
86 663 944
87 336 940
88 249 956
89 433 852
90 294 856
91 285 879
92 175 885
93 669 902
94 763 969
95 138 632
96 193 593
97 220 818
98 739 960
99 639 894
100 329 726
101 799 987
102 660 917
103 242 626
104 509 886
105 190 416
106 353 659
107 132 677
108 364 771
109 893 900
110 411 757
111 397 805
112 171 644
113 260 816
114 764 980
115 149 657
116 716 925
117 191 843
118 566 966
119 620 908
120 358 727
121 268 705
122 406 927
123 139 943
124 549 931
125 177 664
126 433 707
127 120 764
128 178 664
129 419 952
130 289 787
131 88 794
132 151 658
133 185 883
134 603 872
135 317 747
136 579 988
137 361 731
138 37 706
139 154 745
140 324 703
141 727 900
142 383 694
143 151 679
144 149 654
145 212 842
146 217 644
147 250 597
148 835 953
149 324 910
150 344 793
151 176 922
152 204 682
153 262 830
154 706 957
155 201 655
156 379 791
157 296 858
158 663 942
159 135 908
160 805 910
161 646 872
162 113 692
163 430 668
164 136 667
165 377 846
166 375 728
167 269 763
168 452 826
169 281 909
170 215 585
171 325 707
172 419 817
173 392 704
174 152 544
175 136 580
176 155 556
177 345 859
178 519 722
179 168 757
180 676 800
181 464 795
182 327 758
183 98 690
184 852 860
185 235 831
186 680 969
187 323 800
188 525 931
189 120 772
190 839 978
191 236 738
192 190 648
193 119 620
194 198 853
195 288 514
196 888 888
197 165 542
198 682 934
199 759 985
200 416 819
201 724 966
202 403 812
203 270 789
204 482 818
205 734 946
206 644 943
207 681 943
208 323 765
209 514 782
210 624 870
211 328 801
212 689 956
213 137 895
214 299 975
215 448 752
216 348 642
217 675 910
218 245 776
219 434 705
220 283 804
221 889 924
222 519 720
223 720 924
224 259 800
225 514 712
226 421 818
227 141 959
228 341 651
229 365 730
230 789 953
231 680 906
232 145 740
233 467 973
234 309 761
235 153 907
236 335 809
237 989 940
238 176 655
239 759 975
240 345 821
241 254 803
242 293 782
243 226 806
244 147 600
245 437 837
246 310 738
247 146 594
248 864 905
249 271 792
250 317 845
251 469 986
252 235 641
253 405 833
254 617 890
255 508 893
256 712 984
257 577 895
258 225 550
259 391 780
260 418 845
261 155 768
262 135 553
263 383 713
264 631 842
265 313 899
266 777 738
267 699 923
268 323 706
269 540 966
270 137 742
271 205 693
272 203 663
273 274 816
274 358 665
275 522 768
276 179 630
277 359 620
278 269 741
279 300 881
280 234 495
281 848 971
282 141 576
283 158 722
284 140 687
285 571 769
286 409 941
287 219 907
288 298 706
289 149 681
290 745 731
291 314 700
292 218 889
293 286 867
294 331 662
295 817 976
296 209 914
297 219 943
298 334 754
299 700 975
300 281 903
301 393 876
302 116 629
303 457 836
304 723 793
305 322 922
306 276 788
307 337 871
308 97 782
309 705 860
310 251 740
311 678 955
312 310 710
313 299 520
314 116 779
315 25 788
316 191 605
317 39 803
318 269 809
319 333 845
320 103 581
321 390 849
322 678 973
323 368 739
324 218 733
325 698 973
326 742 935
327 338 814
328 96 621
329 741 911
330 628 922
331 713 842
332 243 643
333 736 891
334 379 850
335 370 701
336 281 761
337 722 827
338 380 638
339 192 679
340 391 872
341 289 917
342 466 764
343 409 807
344 302 908
345 303 803
346 479 913
347 686 901
348 379 698
349 659 924
350 290 701
351 289 978
352 239 744
353 195 565
354 339 789
355 219 685
356 378 793
357 329 846
358 317 866
359 942 960
360 369 728
361 688 978
362 190 881
363 184 611
364 326 860
365 279 803
366 688 984
367 653 911
368 319 744
369 667 910
370 896 805
371 324 725
372 258 810
373 233 734
374 794 896
375 692 953
376 299 858
377 647 844
378 427 680
379 57 738
380 105 706
381 241 837
382 312 704
383 227 644
384 59 723
385 201 647
386 354 804
387 331 901
388 817 995
389 172 670
390 397 950
391 309 797
392 324 959
393 437 695
394 77 613
395 721 986
396 272 770
397 688 871
398 708 917
399 380 847
DEMAND_SECTION
2 1
3 1
4 1
5 1
6 1
7 1
8 1
9 1
10 1
11 1
12 1
13 1
14 1
15 1
16 1
17 1
18 1
19 1
20 1
21 1
22 1
23 1
24 1
25 1
26 1
27 1
28 1
29 1
30 1
31 1
32 1
33 1
34 1
35 1
36 1
37 1
38 1
39 1
40 1
41 1
42 1
43 1
44 1
45 1
46 1
47 1
48 1
49 1
50 1
51 1
52 1
53 1
54 1
55 1
56 1
57 1
58 1
59 1
60 1
61 1
62 1
63 1
64 1
65 1
66 1
COVERAGE_SECTION
2 6 150 67 354 386 236 211 
3 7 325 75 212 186 299 361 375 
4 7 389 125 128 44 238 25 112 
5 7 130 220 365 306 242 76 249 
6 5 164 107 16 115 25 
7 7 154 75 55 375 3 212 325 
8 7 111 343 202 259 156 24 356 
9 7 133 362 31 66 296 92 292 
10 7 17 148 248 281 160 221 190 
11 3 266 290 370 
12 7 376 157 90 293 358 279 250 
13 7 97 145 185 85 29 243 381 
14 4 314 189 127 308 
15 5 103 252 332 383 146 
16 6 107 53 6 284 162 164 
17 7 10 160 148 374 248 230 80 
18 7 149 305 265 344 387 341 87 
19 6 396 167 336 203 306 76 
20 7 188 124 74 255 104 35 269 
21 7 235 213 159 66 92 151 133 
22 7 318 372 84 113 224 241 273 
23 4 179 139 33 283 
24 5 259 156 356 8 108 
25 7 132 115 144 143 164 289 4 
26 6 321 334 399 340 165 301 
27 7 135 368 77 182 208 298 234 
28 7 134 210 254 257 264 119 161 
29 6 85 97 243 13 185 145 
30 7 223 43 116 398 326 329 141 
31 7 362 133 66 92 9 194 292 
32 7 369 102 367 93 217 349 50 
33 5 283 232 139 270 23 
34 5 236 327 211 240 187 
35 6 124 118 269 74 188 20 
36 6 209 275 181 204 342 215 
37 5 278 167 310 336 19 
38 6 315 379 82 384 138 317 
39 7 96 316 353 363 170 247 244 
40 7 309 331 397 64 60 337 69 
41 7 216 106 45 228 274 294 338 
42 7 126 173 219 68 263 393 142 
43 7 30 223 116 398 205 326 267 
44 7 389 4 125 128 25 143 289 
45 7 41 216 338 277 106 228 274 
46 6 166 360 229 323 137 68 
47 5 88 351 297 214 341 
48 7 319 357 79 81 364 177 250 
49 7 349 102 158 86 73 32 198 
50 7 99 367 32 102 93 369 349 
51 6 310 191 373 352 57 121 
52 5 302 193 70 328 95 
53 5 16 162 107 284 6 
54 7 258 280 195 313 170 147 353 
55 7 201 7 75 154 299 256 325 
56 7 312 382 268 171 291 140 371 
57 7 352 191 373 310 324 51 37 
58 6 152 339 271 272 355 155 
59 5 286 129 390 78 122 
60 7 397 64 347 93 231 309 40 
61 7 282 175 247 83 176 262 244 
62 4 385 146 192 155 
63 7 168 226 72 245 172 200 303 
64 7 60 397 347 309 40 231 93 
65 5 114 94 239 199 101 
66 7 92 133 362 31 9 21 235 
67 6 354 150 2 211 386 187 
68 4 263 46 166 173 
69 5 337 331 40 309 304 
70 6 328 52 302 193 394 95 
71 4 277 45 216 41 
72 7 172 226 200 343 202 63 111 
73 6 206 349 49 102 158 330 
74 6 257 124 20 35 188 255 
75 7 7 154 325 3 299 55 212 
76 6 203 249 306 365 5 130 
77 6 298 182 27 135 368 208 
78 5 390 59 286 129 122 
79 5 48 177 319 357 81 
80 3 230 94 65 
81 7 364 48 307 358 79 177 357 
82 6 315 317 38 131 379 308 
83 5 247 244 175 61 282 
84 5 273 318 22 365 220 
85 6 97 243 29 13 185 381 
86 7 158 49 207 206 311 349 73 
87 4 392 305 149 18 
88 4 47 297 351 214 
89 7 245 260 303 168 253 63 226 
90 5 157 376 12 293 91 
91 7 293 279 12 157 300 90 376 
92 7 66 133 362 31 9 21 235 
93 7 369 217 32 231 102 347 367 
94 4 239 114 65 199 
95 1 52 
96 7 316 39 363 170 353 276 62 
97 7 85 13 29 243 185 145 381 
98 3 205 201 55 
99 7 50 254 367 161 119 32 210 
100 5 371 171 56 268 368 
101 7 388 295 65 230 114 94 199 
102 7 32 349 367 369 49 93 217 
103 5 15 252 332 383 147 
104 3 255 20 346 
105 5 280 197 174 54 258 
106 6 274 41 228 216 45 294 
107 7 16 6 164 284 53 289 143 
108 1 24 
109 6 196 221 248 10 184 17 
110 2 24 259 
111 7 202 8 343 356 156 200 72 
112 6 238 276 192 125 128 4 
113 7 372 22 318 84 153 241 273 
114 4 199 239 65 94 
115 4 132 144 25 164 
116 6 223 43 30 398 267 141 
117 4 194 145 13 31 
118 4 35 136 269 124 
119 6 330 254 99 50 367 73 
120 6 137 229 360 323 46 166 
121 3 350 51 288 
122 5 286 59 390 129 78 
123 7 227 159 235 151 21 213 66 
124 7 35 20 74 188 269 118 257 
125 6 128 4 389 238 44 112 
126 7 219 393 42 378 163 173 68 
127 3 189 14 314 
128 6 125 4 389 238 44 192 
129 5 59 286 390 78 122 
130 7 242 5 306 76 220 203 249 
131 6 308 14 314 82 189 127 
132 4 115 144 25 164 
133 7 362 31 66 92 9 194 21 
134 7 28 210 254 257 119 264 99 
135 5 368 27 246 77 182 
136 3 118 269 35 
137 6 229 120 360 323 166 46 
138 3 384 379 38 
139 7 232 33 23 270 179 261 283 
140 6 268 171 291 382 56 312 
141 7 333 329 30 223 398 116 43 
142 6 348 173 335 263 68 42 
143 5 289 284 25 44 107 
144 3 115 132 25 
145 6 13 194 117 97 185 381 
146 4 383 62 385 252 
147 3 103 15 170 
148 7 281 10 190 295 17 230 388 
149 6 18 387 305 265 344 87 
150 6 2 354 67 386 211 236 
151 7 235 21 9 66 296 92 133 
152 5 58 271 339 355 272 
153 5 113 273 372 84 22 
154 7 7 75 55 375 3 212 325 
155 4 272 385 192 62 
156 7 356 259 24 8 111 108 386 
157 6 90 376 12 293 358 279 
158 7 86 49 207 349 206 73 311 
159 7 213 235 21 123 151 66 92 
160 4 374 17 80 10 
161 7 210 99 377 50 254 264 93 
162 6 53 183 380 16 107 284 
163 6 378 393 219 126 42 173 
164 6 6 107 115 16 25 132 
165 4 399 334 321 26 
166 6 46 360 229 323 137 68 
167 6 19 396 336 37 278 203 
168 6 303 63 245 204 89 226 
169 7 300 341 344 91 18 265 279 
170 7 96 353 316 39 258 147 363 
171 6 268 140 56 291 382 312 
172 7 226 200 72 343 202 63 253 
173 6 142 263 348 42 68 335 
174 7 176 197 262 61 282 175 353 
175 6 282 61 83 247 244 262 
176 7 174 197 262 61 282 175 39 
177 4 79 48 307 81 
178 6 222 225 275 209 36 342 
179 3 23 261 139 
180 6 304 337 377 331 40 264 
181 6 204 342 63 168 36 303 
182 6 77 208 298 27 135 368 
183 3 162 380 53 
184 5 196 248 109 17 374 
185 7 381 13 97 85 145 153 243 
186 6 322 3 361 311 212 366 
187 5 211 391 236 34 354 
188 7 20 124 35 269 74 255 104 
189 4 127 314 14 308 
190 7 281 295 148 388 101 10 230 
191 7 373 352 57 310 51 324 37 
192 6 385 155 238 62 112 128 
193 5 52 302 70 95 328 
194 5 117 145 31 362 13 
195 3 313 54 280 
196 6 109 248 221 184 10 17 
197 7 174 176 262 353 61 282 39 
198 6 207 49 267 86 158 311 
199 4 114 239 65 94 
200 7 172 226 72 343 202 253 63 
201 6 55 98 154 395 7 75 
202 7 343 111 200 8 172 72 226 
203 6 76 249 306 224 365 5 
204 5 181 168 303 36 63 
205 5 326 98 43 201 30 
206 4 73 86 158 49 
207 7 198 311 212 375 86 158 49 
208 5 182 27 234 77 298 
209 6 36 275 204 342 181 285 
210 7 134 254 161 99 264 28 377 
211 6 187 236 34 327 354 150 
212 7 375 3 311 7 207 75 186 
213 6 159 21 235 92 66 151 
214 6 351 392 87 47 88 305 
215 6 342 110 181 126 219 42 
216 7 41 228 45 106 274 277 294 
217 6 231 369 93 32 347 102 
218 2 19 167 
219 7 126 393 42 378 163 173 68 
220 3 365 5 84 
221 7 109 248 196 10 148 281 17 
222 6 178 225 275 209 36 342 
223 7 30 43 116 398 267 141 326 
224 4 241 22 372 318 
225 6 222 178 275 209 342 36 
226 7 172 200 72 343 63 202 253 
227 7 123 151 159 235 21 213 66 
228 5 216 41 106 294 274 
229 6 137 360 120 323 46 166 
230 4 80 65 94 101 
231 6 217 347 93 369 32 102 
232 5 270 139 33 283 23 
233 7 251 129 346 59 286 188 269 
234 4 27 208 135 182 
235 7 21 159 213 151 66 92 123 
236 6 34 327 211 187 240 150 
237 7 359 221 109 196 248 10 281 
238 6 125 128 4 112 192 389 
239 4 94 114 199 65 
240 2 327 34 
241 3 224 372 22 
242 5 130 5 306 76 391 
243 5 85 97 29 13 185 
244 4 247 83 175 61 
245 7 89 168 63 303 260 226 172 
246 3 135 368 27 
247 5 244 83 175 61 282 
248 6 109 196 221 10 17 184 
249 6 76 203 306 224 365 5 
250 3 357 319 48 
251 7 233 129 59 269 346 286 188 
252 5 332 383 15 103 146 
253 7 200 260 172 202 226 321 26 
254 7 119 210 99 134 50 161 330 
255 4 104 20 346 188 
256 4 395 299 55 325 
257 6 74 134 28 254 119 124 
258 7 54 353 170 147 96 39 280 
259 6 24 156 8 356 111 108 
260 7 89 253 245 200 26 226 172 
261 4 179 139 232 23 
262 7 174 176 61 282 175 197 247 
263 7 173 68 46 348 166 335 142 
264 6 377 210 161 134 28 254 
265 7 18 344 149 387 279 305 341 
266 4 290 11 304 69 
267 6 398 116 198 223 43 30 
268 6 171 140 56 291 382 312 
269 6 118 35 124 188 136 20 
270 4 232 139 33 127 
271 4 152 58 355 339 
272 5 155 58 385 152 339 
273 4 84 318 22 113 
274 6 106 41 228 216 45 294 
275 7 209 36 178 222 285 342 225 
276 5 112 363 192 238 62 
277 6 71 45 216 338 41 228 
278 2 37 310 
279 7 91 293 12 265 157 358 376 
280 7 54 258 195 313 353 197 105 
281 7 190 148 295 388 10 101 17 
282 7 61 175 247 83 176 262 244 
283 1 33 
284 4 289 107 143 16 
285 5 275 209 36 178 222 
286 5 59 122 129 390 78 
287 3 296 292 9 
288 5 350 312 382 56 291 
289 5 143 284 25 107 164 
290 3 266 304 11 
291 7 382 140 268 312 56 171 288 
292 4 287 9 296 31 
293 7 91 157 90 12 376 279 358 
294 3 228 106 41 
295 7 388 101 190 148 281 230 65 
296 5 287 9 292 297 151 
297 4 296 88 287 47 
298 5 77 182 27 208 135 
299 7 325 75 3 361 256 366 7 
300 7 169 341 344 91 279 265 18 
301 2 340 26 
302 5 52 193 70 95 328 
303 5 168 245 63 89 204 
304 5 337 69 180 331 40 
305 7 18 149 87 387 344 265 341 
306 7 76 203 249 5 130 365 220 
307 5 81 177 364 48 79 
308 5 131 14 314 189 127 
309 7 40 331 397 64 60 337 69 
310 7 352 191 57 37 51 278 373 
311 6 212 207 186 375 3 322 
312 7 56 382 291 288 268 171 140 
313 2 195 54 
314 4 14 189 127 308 
315 6 317 82 38 379 131 308 
316 6 363 96 39 276 170 62 
317 5 315 82 131 38 308 
318 7 22 84 273 113 372 365 224 
319 4 357 48 79 250 
320 6 175 83 282 61 328 394 
321 5 26 399 334 165 253 
322 5 186 361 366 3 311 
323 5 229 137 360 166 46 
324 4 373 191 57 352 
325 7 299 3 75 361 7 366 55 
326 5 205 30 43 329 98 
327 4 34 236 240 211 
328 5 70 52 394 302 193 
329 7 141 333 30 326 223 43 116 
330 5 119 73 206 367 50 
331 6 40 337 309 69 397 64 
332 4 252 15 383 103 
333 6 141 329 30 223 398 116 
334 4 399 165 321 26 
335 6 348 142 263 173 46 166 
336 4 167 19 396 37 
337 5 69 331 40 304 309 
338 7 45 41 277 216 106 274 71 
339 6 58 152 271 272 125 128 
340 3 301 26 321 
341 7 169 300 344 18 265 305 149 
342 7 215 181 36 209 110 204 275 
343 7 202 111 72 172 200 8 226 
344 7 18 265 341 169 149 300 305 
345 2 391 5 
346 4 255 104 188 20 
347 6 231 217 93 369 60 64 
348 6 142 335 173 263 46 68 
349 7 49 102 32 367 73 369 158 
350 6 288 121 312 382 291 56 
351 6 214 392 47 88 87 341 
352 7 57 191 373 310 51 324 37 
353 7 39 96 170 258 197 316 176 
354 6 67 150 2 211 187 236 
355 3 152 271 58 
356 7 156 259 24 8 111 108 386 
357 4 319 48 250 79 
358 7 364 81 12 48 376 250 307 
359 7 237 221 109 196 248 281 10 
360 6 229 46 166 137 120 323 
361 7 366 322 325 186 299 3 75 
362 7 31 133 66 92 9 194 292 
363 6 316 96 276 39 62 112 
364 7 81 48 358 357 307 79 250 
365 7 220 5 84 318 76 249 273 
366 6 361 299 322 325 186 3 
367 7 32 102 50 349 369 93 49 
368 4 135 27 246 77 
369 7 32 93 217 102 231 367 349 
370 5 184 196 109 11 248 
371 4 100 56 171 246 
372 6 113 22 241 224 318 84 
373 6 191 352 57 324 51 310 
374 3 160 17 80 
375 7 212 3 7 311 154 207 75 
376 6 12 157 90 293 358 250 
377 6 264 161 210 397 60 99 
378 7 163 393 219 126 42 173 142 
379 4 384 38 138 82 
380 3 162 183 53 
381 7 185 153 13 97 113 145 85 
382 7 291 312 56 268 140 171 288 
383 4 252 146 15 332 
384 3 379 138 38 
385 4 155 62 192 146 
386 3 2 150 240 
387 5 149 265 18 305 344 
388 7 295 101 190 281 148 65 230 
389 7 4 44 125 128 238 25 339 
390 5 78 59 286 129 122 
391 4 345 187 211 5 
392 5 87 214 305 351 18 
393 7 219 126 378 163 42 173 142 
394 5 328 70 320 52 302 
395 3 256 201 55 
396 6 19 167 336 306 203 76 
397 7 60 64 309 40 347 93 231 
398 6 116 267 223 30 43 141 
399 4 165 334 321 26 
DEPOT_SECTION
   1
   -1
EOF
