NAME :  X-n613-kX-w244-c11.cctp
COMMENT : 	Adapted by Maziero, Usberti and Cavellucci from the Uchoa, Pecin, Pessoa, Poggi, Subramanian, and Vidal (2013)
TYPE :  CCTP
DIMENSION :    612
EDGE_WEIGHT_TYPE : 	EUC_2D	
CAPACITY : 	523
VERTICES_WITHIN_COVERAGE :  11
VERTICES_WITH_DEMAND : 	244
NODE_COORD_SECTION
1 500 500
2 550 574
3 177 24
4 448 476
5 934 619
6 323 122
7 430 76
8 364 9
9 988 994
10 91 636
11 926 977
12 2 579
13 326 342
14 455 822
15 48 74
16 814 334
17 997 22
18 838 899
19 634 360
20 324 191
21 750 283
22 996 106
23 473 967
24 642 334
25 539 764
26 510 194
27 807 664
28 949 710
29 21 994
30 293 934
31 832 366
32 8 531
33 56 893
34 82 605
35 197 626
36 661 777
37 207 272
38 945 510
39 505 137
40 325 693
41 240 335
42 776 462
43 810 235
44 496 288
45 624 171
46 799 293
47 120 393
48 250 839
49 31 266
50 64 349
51 898 729
52 740 387
53 838 992
54 952 991
55 558 497
56 695 240
57 622 113
58 670 95
59 967 595
60 926 470
61 665 284
62 753 558
63 946 61
64 820 415
65 453 551
66 565 786
67 768 573
68 841 180
69 172 849
70 799 203
71 663 950
72 33 134
73 215 505
74 973 751
75 308 651
76 519 412
77 677 737
78 937 383
79 338 276
80 997 416
81 852 151
82 366 573
83 839 66
84 245 311
85 743 248
86 265 806
87 851 403
88 621 530
89 553 917
90 467 83
91 866 308
92 556 270
93 189 936
94 131 426
95 329 945
96 64 997
97 761 475
98 248 366
99 141 114
100 235 937
101 80 598
102 133 453
103 153 763
104 739 585
105 165 754
106 933 751
107 670 474
108 319 201
109 734 286
110 118 342
111 951 973
112 303 313
113 709 929
114 993 822
115 707 624
116 92 212
117 716 302
118 184 802
119 601 936
120 668 454
121 583 424
122 151 409
123 754 53
124 89 361
125 843 196
126 679 788
127 233 266
128 994 524
129 229 917
130 381 596
131 566 501
132 96 294
133 180 770
134 199 508
135 226 827
136 691 293
137 338 332
138 905 714
139 146 954
140 148 907
141 46 71
142 594 419
143 209 732
144 419 783
145 852 847
146 194 344
147 751 651
148 530 340
149 6 405
150 961 227
151 60 343
152 87 261
153 962 886
154 974 321
155 882 81
156 777 993
157 877 318
158 645 892
159 909 276
160 859 247
161 109 124
162 214 725
163 292 982
164 674 506
165 724 614
166 247 618
167 133 392
168 140 512
169 986 490
170 139 888
171 988 341
172 255 776
173 864 343
174 614 864
175 363 805
176 594 73
177 531 156
178 221 392
179 221 398
180 809 947
181 864 805
182 843 335
183 477 878
184 129 202
185 940 551
186 183 69
187 498 641
188 867 413
189 540 551
190 281 990
191 604 224
192 907 417
193 650 349
194 998 2
195 570 808
196 216 820
197 959 382
198 527 34
199 123 708
200 337 488
201 355 476
202 887 524
203 443 886
204 892 60
205 436 349
206 427 927
207 663 441
208 78 435
209 997 108
210 324 213
211 369 115
212 177 280
213 539 753
214 81 372
215 102 788
216 43 527
217 765 671
218 31 906
219 854 983
220 610 874
221 83 143
222 835 330
223 570 361
224 390 283
225 102 840
226 982 681
227 650 227
228 975 485
229 135 322
230 287 6
231 446 24
232 530 474
233 700 542
234 397 872
235 763 838
236 305 9
237 12 340
238 285 858
239 358 892
240 123 118
241 498 952
242 752 59
243 444 51
244 888 591
245 281 498
246 927 591
247 185 324
248 79 486
249 690 495
250 767 78
251 199 357
252 257 625
253 757 346
254 559 164
255 56 937
256 559 96
257 716 848
258 415 7
259 782 493
260 198 754
261 506 686
262 780 784
263 351 593
264 972 719
265 267 937
266 921 181
267 196 447
268 748 875
269 845 567
270 437 907
271 699 405
272 978 373
273 286 936
274 755 180
275 696 458
276 188 130
277 341 291
278 628 240
279 977 737
280 487 328
281 963 272
282 640 838
283 784 13
284 57 916
285 810 409
286 701 741
287 314 201
288 661 104
289 740 622
290 550 234
291 215 853
292 138 876
293 318 722
294 253 617
295 90 662
296 909 472
297 308 910
298 706 703
299 994 964
300 468 904
301 181 279
302 132 324
303 935 232
304 891 448
305 610 312
306 582 826
307 373 584
308 330 146
309 968 383
310 436 570
311 725 274
312 517 304
313 835 254
314 901 434
315 858 202
316 261 997
317 493 583
318 512 311
319 592 403
320 949 560
321 426 413
322 634 611
323 200 557
324 44 99
325 823 681
326 958 756
327 913 482
328 594 984
329 73 713
330 4 687
331 406 637
332 717 349
333 273 727
334 622 359
335 316 622
336 114 595
337 720 330
338 485 245
339 728 679
340 563 890
341 412 21
342 600 831
343 682 188
344 419 665
345 555 691
346 799 117
347 671 173
348 117 117
349 55 117
350 242 124
351 139 795
352 670 711
353 22 470
354 919 386
355 988 857
356 166 675
357 269 813
358 144 450
359 66 302
360 275 504
361 812 595
362 65 382
363 683 718
364 744 458
365 370 159
366 155 263
367 93 827
368 897 63
369 866 240
370 714 689
371 9 995
372 136 611
373 925 459
374 371 271
375 97 729
376 443 659
377 374 831
378 585 137
379 473 176
380 878 528
381 748 261
382 141 431
383 208 624
384 76 809
385 780 44
386 653 811
387 827 0
388 754 854
389 909 367
390 62 951
391 805 374
392 204 284
393 774 806
394 139 39
395 73 455
396 800 483
397 722 828
398 983 285
399 516 93
400 489 103
401 297 291
402 517 407
403 468 780
404 300 560
405 754 944
406 999 143
407 220 145
408 840 536
409 542 926
410 509 745
411 515 461
412 791 479
413 821 266
414 459 481
415 47 141
416 417 102
417 950 385
418 87 135
419 967 239
420 57 886
421 991 595
422 962 506
423 375 948
424 631 572
425 210 596
426 476 910
427 829 100
428 133 673
429 578 982
430 353 675
431 834 675
432 141 964
433 266 734
434 146 650
435 353 284
436 305 987
437 150 727
438 733 696
439 301 687
440 858 548
441 308 224
442 821 189
443 45 279
444 108 220
445 523 381
446 446 524
447 907 598
448 943 843
449 780 743
450 473 609
451 659 823
452 326 19
453 92 368
454 29 271
455 804 619
456 369 215
457 325 240
458 197 903
459 996 278
460 189 871
461 519 684
462 297 819
463 102 896
464 20 818
465 850 667
466 916 759
467 401 140
468 364 57
469 823 178
470 590 605
471 749 943
472 924 977
473 770 720
474 315 879
475 78 1
476 105 857
477 352 810
478 36 243
479 903 279
480 521 366
481 58 482
482 153 0
483 812 506
484 481 68
485 705 785
486 16 596
487 974 675
488 503 914
489 937 284
490 431 112
491 636 548
492 805 745
493 728 560
494 156 777
495 623 149
496 811 794
497 879 709
498 404 453
499 838 272
500 646 185
501 520 843
502 337 149
503 761 972
504 637 433
505 607 588
506 575 511
507 952 72
508 818 942
509 427 589
510 688 326
511 547 662
512 423 507
513 93 4
514 699 23
515 762 595
516 389 815
517 48 7
518 586 171
519 391 990
520 860 942
521 562 289
522 779 980
523 305 733
524 676 855
525 231 555
526 661 798
527 954 975
528 888 912
529 483 24
530 69 618
531 866 631
532 244 362
533 72 937
534 793 569
535 145 885
536 700 844
537 582 43
538 73 425
539 979 684
540 911 888
541 921 111
542 108 98
543 126 241
544 737 414
545 830 426
546 546 141
547 429 536
548 741 233
549 373 286
550 989 248
551 305 814
552 690 548
553 449 506
554 491 754
555 252 82
556 52 449
557 278 918
558 61 132
559 344 620
560 500 421
561 913 865
562 161 501
563 734 467
564 410 836
565 733 712
566 205 115
567 152 932
568 360 459
569 945 335
570 61 872
571 408 85
572 633 945
573 83 627
574 550 809
575 890 266
576 711 338
577 515 998
578 946 604
579 61 580
580 785 575
581 931 871
582 474 76
583 967 395
584 243 984
585 849 185
586 817 685
587 728 848
588 182 780
589 119 898
590 607 31
591 43 337
592 900 572
593 417 480
594 931 355
595 693 31
596 394 858
597 749 418
598 827 37
599 30 362
600 870 528
601 945 714
602 789 100
603 492 526
604 234 361
605 165 386
606 262 707
607 87 989
608 597 528
609 401 969
610 146 661
611 910 977
612 771 90
DEMAND_SECTION
2 97
3 2
4 30
5 91
6 63
7 99
8 78
9 50
10 2
11 58
12 1
13 3
14 99
15 28
16 32
17 10
18 1
19 75
20 55
21 75
22 31
23 38
24 34
25 62
26 25
27 12
28 63
29 43
30 100
31 58
32 45
33 68
34 38
35 31
36 91
37 59
38 4
39 43
40 48
41 31
42 84
43 43
44 51
45 37
46 48
47 26
48 97
49 39
50 42
51 64
52 50
53 5
54 98
55 66
56 65
57 24
58 74
59 59
60 40
61 57
62 23
63 98
64 95
65 3
66 74
67 96
68 70
69 99
70 54
71 84
72 53
73 35
74 19
75 93
76 32
77 2
78 27
79 63
80 71
81 65
82 19
83 72
84 14
85 52
86 38
87 99
88 6
89 80
90 66
91 4
92 50
93 98
94 89
95 35
96 82
97 55
98 85
99 63
100 70
101 1
102 41
103 38
104 44
105 3
106 86
107 74
108 47
109 91
110 62
111 53
112 8
113 28
114 9
115 64
116 50
117 8
118 79
119 53
120 11
121 71
122 78
123 11
124 96
125 56
126 26
127 83
128 57
129 64
130 49
131 96
132 93
133 57
134 94
135 20
136 75
137 77
138 63
139 50
140 99
141 93
142 83
143 14
144 61
145 69
146 91
147 5
148 62
149 61
150 51
151 42
152 32
153 38
154 89
155 48
156 80
157 24
158 62
159 59
160 75
161 72
162 44
163 62
164 44
165 56
166 40
167 46
168 100
169 96
170 28
171 88
172 91
173 98
174 17
175 60
176 82
177 28
178 43
179 63
180 53
181 4
182 79
183 84
184 23
185 20
186 77
187 78
188 7
189 91
190 25
191 79
192 89
193 18
194 48
195 27
196 25
197 90
198 9
199 32
200 70
201 2
202 58
203 53
204 27
205 99
206 92
207 6
208 26
209 46
210 43
211 1
212 25
213 26
214 94
215 92
216 36
217 60
218 19
219 69
220 78
221 47
222 44
223 57
224 51
225 43
226 38
227 55
228 40
229 49
230 27
231 93
232 40
233 35
234 33
235 10
236 9
237 84
238 36
239 70
240 45
241 64
242 69
243 86
244 82
245 19
COVERAGE_SECTION
2 11 189 470 317 505 608 506 131 603 55 424 88 
3 11 482 394 186 513 555 566 99 542 475 276 240 
4 11 414 553 593 512 446 498 547 321 603 411 65 
5 11 578 246 447 59 244 592 320 421 185 487 531 
6 11 308 502 211 365 20 468 108 287 467 350 555 
7 11 571 243 416 490 90 582 484 231 341 400 468 
8 11 452 468 341 258 236 230 231 571 243 7 211 
9 11 299 54 527 111 11 472 611 153 528 540 219 
10 11 573 295 530 34 101 336 372 428 434 610 579 
11 11 472 611 111 527 54 9 299 219 520 528 53 
12 11 486 32 579 216 530 101 34 573 10 330 353 
13 11 137 112 277 401 435 79 549 98 374 532 41 
14 11 403 564 144 183 203 516 501 596 234 554 377 
15 11 141 324 349 558 72 542 415 517 418 221 161 
16 11 222 182 31 391 46 173 91 253 157 499 413 
17 11 194 63 507 22 209 368 204 541 406 155 83 
18 11 508 520 528 145 180 540 561 219 53 268 388 
19 11 334 193 24 305 319 223 510 142 504 271 576 
20 11 108 287 210 441 502 308 457 456 365 6 79 
21 11 109 381 311 85 117 46 548 337 136 253 576 
22 11 209 406 507 63 541 17 194 266 368 204 155 
23 11 241 577 426 206 488 300 270 609 409 519 203 
24 11 193 19 334 305 510 61 136 576 332 223 337 
25 11 213 66 410 574 554 195 403 306 345 501 461 
26 11 379 177 39 254 290 338 546 518 92 400 378 
27 11 325 586 431 217 465 455 147 473 531 361 289 
28 11 601 264 279 539 487 106 138 226 326 74 51 
29 11 371 96 390 607 255 533 284 218 33 420 432 
30 11 273 557 265 297 95 163 436 190 100 474 129 
31 11 391 182 222 16 173 87 285 64 188 545 157 
32 11 216 12 353 486 481 579 248 556 101 395 34 
33 11 420 570 284 218 255 463 533 390 476 589 225 
34 11 101 530 573 10 579 336 372 295 486 434 12 
35 11 383 425 166 434 294 356 252 610 372 323 428 
36 11 126 526 386 77 485 451 286 363 282 352 536 
37 11 392 127 301 212 366 84 247 41 146 251 543 
38 11 422 228 185 327 60 169 320 128 296 373 202 
39 11 177 400 546 399 379 26 254 90 256 582 484 
40 11 439 293 430 75 523 333 606 335 433 559 252 
41 11 84 532 604 98 146 251 247 178 392 179 112 
42 11 97 412 259 364 396 563 597 483 544 285 64 
43 11 313 413 70 499 442 160 125 369 315 469 46 
44 11 312 318 280 338 148 92 521 290 480 205 26 
45 11 495 500 518 347 378 191 57 343 227 254 278 
46 11 413 16 499 21 222 313 43 381 182 109 253 
47 11 167 94 122 453 382 214 124 605 110 362 538 
48 11 135 357 86 291 196 238 462 551 172 460 118 
49 11 454 443 478 359 152 132 591 237 116 151 50 
50 11 151 591 124 214 362 453 599 359 237 110 132 
51 11 138 497 466 106 601 28 326 264 74 465 279 
52 11 544 597 253 332 271 576 337 391 364 285 510 
53 11 219 180 508 520 522 156 611 503 472 11 18 
54 11 527 111 11 472 9 611 299 219 528 520 153 
55 11 131 506 232 608 411 189 88 603 2 121 142 
56 11 311 227 548 85 61 136 343 381 109 117 278 
57 11 495 288 378 176 58 45 256 518 500 347 254 
58 11 288 57 595 495 347 514 176 45 242 590 500 
59 11 578 421 320 246 5 185 447 592 128 244 487 
60 11 373 296 327 304 38 314 228 422 192 169 202 
61 11 136 510 56 117 24 278 227 311 305 193 109 
62 11 67 493 104 580 515 534 233 165 552 289 361 
63 11 507 368 204 541 17 22 155 209 194 406 83 
64 11 285 545 87 391 188 31 42 412 396 597 304 
65 11 310 446 547 553 509 603 317 512 450 414 4 
66 11 195 574 25 213 306 342 410 501 554 282 386 
67 11 580 62 515 534 104 493 361 289 455 165 233 
68 11 585 125 469 442 315 81 70 43 369 160 313 
69 11 460 291 292 535 118 170 196 135 458 140 351 
70 11 442 43 469 125 68 274 585 315 313 548 413 
71 11 572 113 158 119 328 471 405 429 220 524 174 
72 11 415 349 558 324 221 418 15 141 161 542 348 
73 11 134 525 323 562 360 267 245 168 358 425 102 
74 11 279 326 264 106 601 28 466 539 226 114 487 
75 11 335 439 40 559 430 252 294 166 263 293 606 
76 11 402 560 445 480 411 232 121 223 148 319 142 
77 11 363 286 352 36 298 126 485 370 565 526 438 
78 11 417 354 197 594 309 389 583 272 192 569 314 
79 11 277 435 374 549 457 401 112 224 137 441 210 
80 11 583 309 272 197 417 78 228 169 171 354 373 
81 11 68 585 469 125 442 315 427 346 70 266 155 
82 11 307 263 130 559 509 404 310 335 547 331 512 
83 11 598 427 155 204 368 602 385 346 387 612 250 
84 11 41 127 392 532 604 37 98 401 112 146 247 
85 11 381 548 311 21 109 56 117 43 136 274 46 
86 11 357 172 462 48 551 135 196 238 291 433 333 
87 11 188 545 64 285 31 391 192 314 304 173 182 
88 11 491 608 424 506 164 505 131 55 552 107 249 
89 11 409 340 488 119 241 429 220 426 328 174 501 
90 11 582 484 400 7 243 490 399 416 571 529 231 
91 11 157 173 182 222 499 479 575 159 16 160 313 
92 11 521 290 312 318 44 191 305 148 338 278 26 
93 11 458 567 129 100 139 140 432 460 535 170 584 
94 11 382 122 102 358 167 47 605 208 538 395 267 
95 11 30 297 273 423 436 163 557 239 265 190 474 
96 11 607 29 390 371 255 533 284 432 139 218 33 
97 11 42 364 259 563 412 396 597 483 544 275 249 
98 11 532 604 41 178 179 251 84 146 112 247 13 
99 11 240 348 161 542 276 418 186 566 221 394 558 
100 11 129 265 93 557 584 273 458 30 316 190 163 
101 11 34 530 579 573 336 10 372 486 295 12 216 
102 11 358 382 94 122 562 208 168 395 47 167 248 
103 11 494 105 133 588 351 437 260 118 215 199 143 
104 11 515 493 62 67 165 289 580 115 534 233 552 
105 11 103 133 494 437 588 260 143 351 118 162 199 
106 11 466 326 601 74 51 28 138 279 264 497 539 
107 11 120 249 275 164 207 504 563 88 233 271 364 
108 11 287 20 210 441 457 456 502 308 365 79 6 
109 11 311 21 117 381 85 136 337 548 576 56 510 
110 11 302 229 124 453 214 47 167 132 50 151 605 
111 11 527 54 11 472 611 9 299 153 528 540 520 
112 11 401 13 137 277 79 84 435 41 549 98 457 
113 11 471 405 71 268 503 158 572 257 524 587 536 
114 11 355 448 153 74 326 581 279 561 106 466 264 
115 11 165 289 104 147 339 515 370 493 322 217 438 
116 11 444 184 543 152 478 221 418 49 366 132 443 
117 11 109 136 337 311 576 510 21 332 381 61 85 
118 11 588 133 196 494 351 69 135 103 260 105 291 
119 11 572 328 429 89 340 409 158 220 71 174 488 
120 11 207 107 275 504 249 164 271 563 364 544 142 
121 11 142 319 504 223 76 402 232 445 334 55 411 
122 11 382 167 94 605 47 358 102 267 179 251 178 
123 11 242 250 385 612 283 602 514 595 598 346 83 
124 11 453 214 50 362 151 110 47 591 167 302 599 
125 11 585 68 315 442 469 70 81 369 43 160 313 
126 11 36 526 485 386 451 77 286 397 536 282 524 
127 11 37 392 84 301 212 41 401 247 366 112 441 
128 11 169 422 228 38 320 185 421 59 60 327 578 
129 11 100 458 265 93 557 273 460 30 291 584 567 
130 11 307 82 263 559 509 331 310 335 547 344 430 
131 11 55 506 608 232 189 88 411 2 603 121 491 
132 11 359 152 302 229 110 443 151 543 50 124 366 
133 11 588 105 260 494 103 118 143 351 437 162 196 
134 11 73 562 323 525 168 267 360 358 245 102 425 
135 11 196 48 291 86 357 118 460 69 172 588 238 
136 11 117 61 510 311 109 337 576 56 21 332 24 
137 11 13 112 277 435 79 401 549 374 224 457 84 
138 11 51 497 601 28 106 466 264 326 465 279 74 
139 11 432 567 93 140 589 170 535 607 458 463 533 
140 11 170 535 567 589 292 139 463 458 93 460 432 
141 11 15 324 349 558 72 517 542 415 418 475 221 
142 11 121 319 504 223 334 19 207 76 402 445 120 
143 11 162 260 133 105 588 433 437 606 103 172 333 
144 11 516 403 14 564 175 377 477 554 596 234 410 
145 11 181 18 561 496 540 528 581 393 235 448 520 
146 11 251 247 604 41 605 532 178 98 179 84 392 
147 11 217 289 339 165 438 115 370 27 515 455 565 
148 11 480 318 312 445 223 280 521 44 402 76 92 
149 11 599 362 556 237 353 538 591 208 50 151 214 
150 11 419 303 550 281 266 398 459 489 159 479 575 
151 11 50 591 124 214 599 362 359 453 237 110 132 
152 11 132 543 359 443 444 116 478 49 454 366 184 
153 11 581 355 448 540 561 114 528 299 111 527 11 
154 11 171 569 398 459 281 272 489 594 309 197 417 
155 11 204 368 83 541 427 63 598 507 81 346 602 
156 11 522 503 405 180 471 53 508 219 113 520 18 
157 11 91 173 182 222 479 159 575 389 499 16 594 
158 11 220 174 524 282 572 71 119 451 536 113 342 
159 11 479 575 489 303 157 91 281 369 160 419 569 
160 11 369 313 499 575 413 315 43 125 479 159 91 
161 11 348 240 418 542 221 99 558 349 415 324 72 
162 11 143 260 606 433 133 105 333 437 588 172 356 
163 11 190 436 316 273 30 584 265 95 557 100 297 
164 11 249 107 233 552 120 275 491 88 207 563 493 
165 11 289 115 104 515 147 493 67 62 339 217 580 
166 11 294 252 383 425 35 525 75 335 323 404 439 
167 11 47 122 605 94 382 453 110 124 214 358 102 
168 11 562 102 134 358 248 73 323 382 94 267 336 
169 11 228 422 128 38 60 373 327 80 185 296 320 
170 11 535 292 140 589 463 476 567 69 460 458 225 
171 11 154 272 569 309 197 398 417 583 594 459 78 
172 11 86 357 433 333 135 196 462 260 48 551 143 
173 11 182 157 222 91 31 16 389 87 391 594 188 
174 11 220 342 282 158 306 340 451 524 386 195 119 
175 11 477 377 516 564 551 144 596 462 234 239 474 
176 11 537 256 590 57 378 288 198 58 399 495 546 
177 11 546 254 39 26 378 518 379 399 256 400 290 
178 11 179 604 98 532 251 146 605 41 267 122 247 
179 11 178 604 98 532 251 267 605 146 41 122 247 
180 11 508 522 520 53 503 405 18 156 219 471 528 
181 11 145 496 466 561 51 492 262 106 448 393 581 
182 11 222 173 16 31 91 157 391 46 499 87 413 
183 11 300 426 203 488 270 501 14 206 241 564 234 
184 11 444 116 543 366 152 221 418 161 240 348 99 
185 11 320 38 246 592 422 59 578 447 202 128 244 
186 11 3 566 394 276 99 555 482 240 542 350 348 
187 11 450 261 461 511 317 376 345 344 2 509 331 
188 11 87 545 192 314 304 64 285 31 354 389 173 
189 11 2 506 603 131 55 317 608 470 505 232 88 
190 11 163 316 436 584 273 265 30 95 100 557 297 
191 11 278 227 290 518 45 500 92 254 495 521 347 
192 11 314 354 304 188 78 373 389 417 296 60 87 
193 11 24 19 334 510 305 576 61 332 136 337 271 
194 11 17 63 507 22 209 368 204 541 155 406 83 
195 11 574 306 66 342 25 501 213 174 282 220 340 
196 11 135 291 118 48 86 588 69 357 460 172 133 
197 11 309 417 583 272 78 594 354 569 171 80 389 
198 11 529 537 484 399 582 256 90 176 400 590 231 
199 11 375 437 428 329 610 356 295 105 434 103 494 
200 11 201 568 245 360 498 593 404 512 82 307 547 
201 11 568 200 498 593 512 245 360 4 321 547 82 
202 11 380 600 440 327 408 592 296 185 38 269 60 
203 11 270 300 183 426 206 234 596 564 14 488 239 
204 11 368 155 83 63 541 507 598 427 387 81 346 
205 11 280 321 224 318 44 480 549 312 445 148 560 
206 11 270 203 300 609 426 423 23 234 183 519 241 
207 11 120 504 107 275 271 249 164 142 563 544 319 
208 11 538 395 556 248 481 94 362 102 47 214 382 
209 11 22 406 507 63 541 17 266 194 368 204 155 
210 11 108 287 441 20 457 456 79 502 308 365 374 
211 11 467 365 6 502 571 308 416 468 490 7 20 
212 11 301 392 366 37 247 127 229 302 543 146 84 
213 11 25 410 66 554 574 195 345 461 261 403 306 
214 11 453 124 362 50 151 47 110 591 599 538 167 
215 11 384 351 367 225 494 103 375 476 105 437 133 
216 11 32 481 248 579 353 12 486 395 556 101 34 
217 11 147 339 438 27 473 565 370 586 289 325 455 
218 11 33 284 420 255 570 533 390 463 589 29 464 
219 11 53 520 508 611 180 472 11 522 156 528 18 
220 11 174 158 342 282 340 306 119 524 89 451 572 
221 11 418 558 161 415 349 348 240 72 542 324 99 
222 11 182 16 173 31 91 157 46 391 499 413 87 
223 11 148 319 480 445 334 142 305 19 121 402 76 
224 11 549 374 435 277 79 137 456 457 205 13 112 
225 11 367 476 384 292 215 570 463 351 589 170 535 
226 11 539 487 264 28 601 279 74 5 326 138 106 
227 11 278 500 191 56 343 347 61 45 136 495 518 
228 11 169 422 38 128 60 373 327 296 80 185 320 
229 11 302 110 132 247 212 124 366 146 301 453 167 
230 11 236 452 8 555 468 3 6 186 341 350 258 
231 11 243 341 258 529 7 484 582 90 571 198 8 
232 11 411 55 131 506 560 76 603 402 414 121 189 
233 11 552 493 164 249 62 104 491 107 67 424 165 
234 11 596 564 239 377 203 270 516 206 175 14 477 
235 11 388 393 587 268 397 257 262 536 496 485 145 
236 11 230 452 8 468 555 341 258 6 211 571 3 
237 11 599 591 151 50 149 359 362 443 454 49 214 
238 11 474 48 462 357 551 86 297 557 135 291 30 
239 11 234 474 596 297 423 95 377 564 30 206 270 
240 11 348 161 99 542 418 221 558 276 349 186 415 
241 11 23 488 426 577 409 300 89 206 270 183 429 
242 11 123 250 385 612 602 283 514 595 346 598 83 
243 11 231 7 90 582 484 341 529 571 258 416 490 
244 11 447 592 246 531 269 440 5 578 380 185 600 
245 11 360 200 404 73 525 201 134 568 267 323 82 
246 11 447 578 5 592 320 244 59 185 421 531 202 
247 11 146 251 392 212 301 229 302 37 41 84 604 
248 11 481 395 556 208 216 353 538 102 168 358 94 
249 11 164 107 275 120 233 563 552 207 364 97 493 
250 11 612 242 123 602 385 346 427 283 83 598 514 
251 11 146 604 247 178 532 605 41 179 98 84 122 
252 11 294 166 383 425 75 335 35 525 439 404 606 
253 11 332 337 52 576 391 16 117 21 109 46 544 
254 11 546 518 177 378 26 39 45 495 256 290 191 
255 11 390 533 284 218 33 420 96 607 463 570 29 
256 11 176 399 546 378 537 57 177 39 254 198 400 
257 11 587 536 397 388 524 268 235 451 485 126 393 
258 11 341 231 8 243 529 7 468 571 452 484 582 
259 11 412 396 97 42 483 364 563 62 408 534 67 
260 11 133 143 588 105 162 103 494 118 437 172 196 
261 11 461 187 511 345 410 376 554 213 450 25 344 
262 10 393 496 449 492 235 473 397 388 485 587 
263 11 307 82 559 130 335 404 331 75 509 430 310 
264 11 279 28 601 74 539 226 326 487 106 138 466 
265 11 273 557 30 100 129 297 163 584 190 316 95 
266 11 303 150 315 541 585 419 81 125 68 369 406 
267 11 358 179 382 122 178 73 134 102 562 94 605 
268 11 388 587 235 257 397 536 113 471 405 393 524 
269 11 440 408 361 600 244 380 534 592 202 580 455 
270 11 203 206 300 426 183 234 596 488 23 609 423 
271 11 544 52 207 597 275 120 332 504 576 364 563 
272 11 309 197 583 417 171 78 80 569 594 154 354 
273 11 30 265 557 297 95 163 100 190 436 129 474 
274 11 70 548 442 469 85 343 346 43 381 347 56 
275 11 120 107 207 249 563 364 164 271 544 504 597 
276 11 566 407 99 350 186 240 348 161 555 542 184 
277 11 435 79 549 374 137 112 401 224 13 457 441 
278 11 227 191 61 500 56 45 305 343 92 290 347 
279 11 74 264 326 28 601 106 539 226 487 466 138 
280 11 318 312 44 148 480 205 445 338 402 521 223 
281 11 398 489 419 459 550 150 303 154 159 479 569 
282 11 451 386 174 524 342 526 220 158 306 536 126 
283 11 385 387 598 123 242 250 83 612 514 602 595 
284 11 255 33 533 218 420 390 570 463 589 476 607 
285 11 64 545 391 87 31 188 597 42 52 412 544 
286 10 77 363 298 352 565 485 126 36 370 438 
287 11 108 20 210 441 457 308 456 502 365 79 6 
288 11 58 57 495 347 176 45 595 500 378 343 514 
289 11 165 147 115 515 104 217 67 339 493 455 62 
290 11 92 191 521 26 338 254 518 44 312 278 177 
291 11 135 460 196 48 69 458 118 129 357 86 238 
292 11 535 170 589 140 476 463 69 225 460 567 458 
293 11 523 40 439 333 433 606 430 75 172 551 175 
294 11 166 252 383 425 35 335 75 525 404 323 439 
295 11 10 573 428 530 329 610 199 434 34 101 375 
296 11 327 60 373 304 314 38 192 202 422 380 228 
297 11 30 557 474 273 95 265 239 238 163 423 436 
298 11 370 363 438 565 339 352 286 77 473 217 147 
299 11 9 527 111 54 11 472 153 611 355 581 540 
300 11 426 183 203 270 488 206 241 23 409 234 501 
301 11 212 392 37 366 247 127 229 146 302 543 84 
302 11 229 110 132 247 124 453 212 146 366 301 167 
303 11 150 419 281 159 489 266 550 575 479 369 398 
304 11 314 296 192 373 327 60 188 87 545 354 202 
305 11 24 334 521 19 193 61 223 92 278 510 136 
306 11 342 195 574 66 174 220 282 501 340 386 25 
307 11 82 130 263 559 509 331 310 335 547 404 65 
308 11 502 6 365 20 211 108 287 210 467 456 441 
309 11 197 583 272 417 78 80 594 171 354 569 389 
310 11 509 65 547 446 450 317 130 512 307 553 82 
311 11 109 381 21 117 85 136 548 56 337 61 510 
312 11 318 44 148 280 521 92 480 338 290 445 223 
313 11 413 499 160 43 369 46 575 315 125 70 91 
314 11 304 192 373 296 188 60 327 354 87 78 389 
315 11 125 585 68 369 442 469 160 81 313 43 70 
316 11 190 584 163 436 265 100 273 30 557 95 129 
317 11 450 65 189 603 2 187 310 509 446 547 553 
318 11 312 44 280 148 521 480 92 338 445 223 205 
319 11 142 121 223 334 504 19 445 76 402 193 480 
320 11 185 246 59 578 38 592 421 422 447 128 5 
321 11 498 205 4 593 560 414 568 402 76 512 201 
322 11 505 424 470 491 115 88 552 165 608 2 233 
323 11 525 425 134 73 383 562 35 168 166 294 372 
324 11 349 15 141 72 558 415 418 221 542 161 348 
325 11 586 431 27 465 217 497 455 473 492 531 449 
326 11 74 106 279 264 466 601 28 51 138 114 539 
327 11 296 60 373 304 38 202 314 422 380 228 600 
328 11 429 119 572 71 409 89 577 340 241 158 220 
329 11 375 199 295 428 330 437 10 215 573 610 103 
330 11 329 295 486 530 573 10 375 12 34 101 199 
331 11 344 376 130 509 307 559 430 263 310 450 82 
332 11 576 337 510 253 52 117 271 136 109 193 544 
333 11 433 606 523 293 439 172 162 40 143 86 260 
334 11 19 193 24 305 223 319 142 510 121 504 61 
335 11 559 75 263 252 294 404 430 439 166 307 82 
336 11 372 34 101 573 10 530 579 434 295 610 428 
337 11 576 332 117 510 253 109 136 21 311 52 61 
338 11 44 26 290 312 379 318 92 280 521 177 224 
339 11 370 438 298 565 147 217 289 115 473 363 165 
340 11 89 409 220 174 119 501 488 306 342 158 195 
341 11 258 231 243 8 7 468 571 529 416 90 484 
342 11 306 174 195 282 220 574 66 386 451 526 340 
343 11 347 500 227 56 45 495 274 548 278 85 191 
344 11 376 331 430 509 450 130 187 559 261 307 310 
345 11 511 461 261 213 410 25 187 554 470 66 322 
346 11 602 427 612 250 81 83 469 242 385 442 68 
347 11 343 500 45 495 227 288 56 57 58 278 191 
348 11 240 161 542 99 418 221 558 349 276 415 324 
349 11 558 324 415 72 418 221 15 141 161 542 348 
350 11 407 566 555 276 6 186 308 502 99 287 20 
351 11 494 103 215 118 588 133 105 367 225 69 384 
352 11 363 77 298 286 370 565 438 339 36 126 485 
353 11 556 481 395 248 216 32 208 149 538 362 599 
354 11 78 389 417 192 594 197 309 583 314 569 188 
355 11 114 153 448 581 561 540 326 74 299 528 106 
356 11 610 434 428 199 437 35 383 162 143 372 295 
357 11 86 462 48 551 172 135 238 196 291 433 474 
358 11 102 382 94 122 267 562 167 47 168 605 208 
359 11 132 443 151 591 152 50 454 49 124 110 237 
360 11 245 73 404 200 525 134 201 323 568 267 425 
361 11 455 534 580 269 67 515 408 531 440 27 62 
362 11 214 453 124 50 151 599 538 591 208 47 149 
363 11 352 77 298 286 370 565 438 339 36 126 485 
364 11 563 97 42 597 544 275 412 259 396 249 271 
365 11 502 467 308 211 20 456 6 108 287 210 416 
366 11 212 301 543 37 392 229 444 302 184 132 152 
367 11 225 384 476 215 570 351 292 420 463 464 33 
368 11 204 155 63 541 507 83 598 427 387 81 17 
369 11 160 313 575 315 499 125 413 479 43 159 585 
370 11 298 339 438 565 363 352 147 217 286 77 473 
371 11 29 96 390 255 607 533 218 284 33 420 570 
372 11 336 434 10 610 34 573 101 428 35 530 295 
373 11 60 296 327 314 304 192 38 228 422 169 354 
374 11 549 224 435 79 277 457 456 137 210 401 441 
375 11 329 199 437 215 103 295 428 105 494 351 384 
376 11 344 331 187 450 261 509 461 130 310 317 430 
377 11 516 175 477 596 564 234 239 144 551 474 462 
378 11 518 254 546 495 57 256 45 177 176 500 39 
379 11 26 39 177 338 400 490 467 546 254 90 399 
380 11 600 202 440 408 592 269 327 244 296 185 38 
381 11 85 21 311 109 548 117 56 46 136 43 413 
382 11 94 358 102 122 167 47 605 267 208 538 395 
383 11 35 425 166 294 252 356 323 434 610 372 525 
384 11 367 215 225 476 464 351 570 420 375 33 494 
385 11 123 283 242 250 612 598 602 83 387 427 346 
386 11 451 526 282 36 126 524 342 536 485 174 397 
387 11 598 283 385 83 204 123 368 242 155 250 427 
388 11 235 268 587 257 397 393 536 262 524 496 485 
389 11 354 594 78 417 569 192 173 197 157 309 188 
390 11 255 533 284 607 96 218 33 29 420 463 371 
391 11 31 285 16 64 222 87 182 253 545 52 173 
392 11 37 301 212 127 247 84 366 146 41 251 229 
393 10 262 235 496 388 397 587 449 492 257 485 
394 11 3 482 186 513 542 475 99 240 348 161 517 
395 11 208 556 538 481 248 353 102 94 358 382 362 
396 11 412 259 483 42 97 364 545 408 563 64 285 
397 11 257 587 536 388 235 485 524 268 393 126 451 
398 11 459 281 154 550 489 419 171 150 569 303 159 
399 11 400 256 484 39 582 90 546 198 177 529 176 
400 11 399 90 582 484 39 490 7 177 243 546 256 
401 11 112 79 277 84 435 137 457 13 441 127 41 
402 11 76 560 445 480 411 121 148 232 223 319 142 
403 11 554 14 144 410 25 213 564 501 516 574 66 
404 11 263 360 335 245 82 525 294 559 307 252 166 
405 11 471 503 522 113 156 180 508 268 388 71 18 
406 11 209 22 541 507 266 150 63 419 550 303 17 
407 11 350 566 276 555 99 186 240 6 184 348 287 
408 11 440 269 600 380 483 202 534 361 396 580 592 
409 11 89 488 340 241 119 429 426 300 577 328 23 
410 11 554 213 25 403 261 461 66 345 574 195 511 
411 11 232 560 76 402 55 414 131 4 603 121 506 
412 11 396 259 42 97 483 364 563 545 64 285 597 
413 11 313 499 43 46 160 369 91 222 70 16 575 
414 11 4 553 593 512 446 603 411 498 547 65 232 
415 11 72 558 349 221 418 324 161 15 141 348 542 
416 11 490 571 7 467 211 90 243 582 468 400 484 
417 11 197 78 309 583 272 354 594 389 569 192 80 
418 11 221 161 558 348 349 240 415 542 72 324 99 
419 11 150 550 281 303 398 459 489 159 266 479 154 
420 11 33 570 284 218 463 255 533 476 589 225 390 
421 11 59 578 320 5 246 185 128 487 447 226 539 
422 11 38 228 169 128 185 60 327 320 373 296 202 
423 11 609 519 95 206 239 270 297 234 436 30 163 
424 11 491 505 322 88 470 608 552 233 164 2 506 
425 11 383 35 323 166 525 294 252 372 434 134 356 
426 11 300 488 183 270 203 241 206 23 409 89 501 
427 11 346 83 602 81 155 612 598 250 385 204 368 
428 11 610 434 356 199 295 10 437 372 375 573 329 
429 11 328 119 577 572 409 89 241 71 340 488 23 
430 11 40 75 439 559 293 331 335 344 523 263 130 
431 11 325 465 586 27 531 497 455 217 492 473 138 
432 11 139 567 93 140 607 589 533 170 463 535 390 
433 11 333 606 523 172 162 293 143 439 260 40 86 
434 11 610 428 356 372 35 10 295 199 336 383 573 
435 11 277 79 549 374 224 137 457 401 112 13 456 
436 11 163 190 316 95 30 273 584 265 557 297 423 
437 11 105 199 103 494 133 375 356 260 428 143 588 
438 10 565 339 370 298 217 473 147 286 363 352 
439 11 40 75 293 606 523 333 430 433 335 252 559 
440 11 408 269 600 380 202 592 244 483 361 534 447 
441 11 210 457 287 108 20 79 456 401 277 435 374 
442 11 469 68 125 70 585 315 43 81 313 274 369 
443 11 454 49 359 478 152 132 591 151 237 50 116 
444 11 116 184 543 152 366 132 478 221 443 418 49 
445 11 480 402 76 148 560 223 280 318 319 121 312 
446 11 553 547 65 512 414 603 310 4 593 509 317 
447 11 244 246 592 5 578 531 185 320 59 269 440 
448 11 581 561 153 355 114 540 181 326 466 528 145 
449 10 473 492 262 565 496 393 438 586 217 325 
450 11 317 187 509 310 376 65 331 344 261 2 547 
451 11 386 282 526 524 126 36 536 342 485 174 257 
452 11 236 8 230 468 341 258 555 6 211 571 7 
453 11 124 214 362 50 110 47 151 167 591 302 538 
454 11 49 443 478 359 152 591 132 237 151 50 116 
455 11 361 27 515 580 534 67 147 531 289 431 217 
456 11 210 20 457 108 365 374 287 441 79 224 435 
457 11 441 210 79 108 287 20 456 435 277 374 401 
458 11 460 93 129 140 100 291 567 535 69 170 292 
459 11 398 550 281 154 419 489 150 171 303 569 159 
460 11 69 291 458 535 292 170 140 135 196 129 93 
461 11 261 511 345 187 410 213 554 376 25 450 344 
462 11 551 357 86 238 48 477 172 474 175 135 377 
463 11 589 170 476 292 535 33 420 140 570 284 533 
464 11 384 570 367 420 33 225 215 218 476 284 463 
465 11 431 325 586 531 27 497 455 138 51 361 217 
466 11 106 51 326 138 601 74 28 497 279 181 264 
467 11 365 211 416 490 571 502 7 308 6 379 456 
468 11 8 571 452 211 341 7 416 258 236 6 243 
469 11 442 68 125 585 70 81 315 43 346 274 369 
470 11 505 322 2 424 511 491 189 608 88 345 506 
471 11 405 503 113 522 156 180 268 508 71 388 587 
472 11 11 611 111 527 54 9 219 299 520 528 53 
473 10 449 565 492 438 217 339 586 370 262 298 
474 11 297 238 239 557 30 462 273 551 95 265 48 
475 11 513 517 394 482 141 15 3 542 324 349 348 
476 11 225 367 292 463 589 170 570 535 384 420 33 
477 11 175 377 516 551 462 564 596 144 234 474 238 
478 11 49 454 443 152 116 359 444 132 543 591 237 
479 11 159 575 489 91 157 160 369 303 281 499 569 
480 11 445 148 402 76 223 280 318 560 312 319 44 
481 11 248 395 556 353 216 208 538 32 102 168 94 
482 11 3 394 513 186 475 517 542 99 240 348 566 
483 11 396 259 412 408 42 97 440 600 534 269 380 
484 11 582 90 400 243 399 529 7 231 198 490 416 
485 11 126 286 36 397 526 77 386 536 451 257 587 
486 11 12 579 530 101 32 34 216 573 10 330 336 
487 11 226 539 28 264 601 279 5 74 578 138 59 
488 11 426 300 241 409 183 89 23 340 203 270 501 
489 11 159 281 479 398 575 154 303 569 419 459 150 
490 11 416 571 7 467 90 582 400 211 243 484 365 
491 11 88 424 608 505 552 164 322 233 506 470 249 
492 10 449 473 262 496 586 325 393 431 565 27 
493 11 62 104 233 552 67 515 165 580 289 534 115 
494 11 103 105 133 351 588 118 260 437 215 143 69 
495 11 45 57 378 500 518 347 288 254 343 58 191 
496 10 262 393 492 181 449 235 145 388 473 397 
497 11 138 51 465 431 466 325 586 601 106 28 531 
498 11 593 568 321 4 201 512 414 553 200 446 547 
499 11 313 413 160 369 46 43 91 575 222 157 182 
500 11 45 347 343 227 495 191 278 518 56 57 378 
501 11 574 183 195 306 340 14 66 488 300 426 25 
502 11 308 6 365 20 211 108 287 210 467 456 441 
503 11 522 156 405 471 180 508 113 53 219 268 71 
504 11 207 120 142 107 319 121 275 271 19 334 164 
505 11 470 424 322 491 2 88 608 189 506 552 511 
506 11 131 55 608 88 189 232 2 491 411 424 505 
507 11 63 541 22 368 209 204 17 155 194 406 83 
508 11 180 520 18 53 522 219 405 503 156 471 528 
509 11 310 65 130 450 331 547 307 82 317 446 376 
510 11 576 337 136 117 332 193 24 61 109 19 311 
511 11 345 461 261 187 470 2 213 410 450 505 317 
512 11 553 593 446 547 4 414 65 498 310 603 201 
513 11 475 517 394 482 141 15 3 542 324 186 348 
514 11 595 123 242 58 385 283 250 288 590 612 176 
515 11 67 104 580 289 62 534 165 455 493 361 147 
516 11 377 175 564 477 596 144 234 14 239 551 403 
517 11 475 513 141 15 324 394 482 542 349 558 72 
518 11 254 378 45 495 546 191 177 500 57 290 26 
519 11 609 423 206 95 23 436 270 163 239 190 30 
520 11 219 528 508 18 180 53 611 472 540 11 522 
521 11 92 312 305 318 290 148 44 223 191 278 280 
522 11 156 503 405 180 471 508 53 219 113 520 18 
523 11 293 333 433 40 439 606 172 430 551 75 86 
524 11 536 451 282 257 158 386 587 397 526 174 126 
525 11 323 425 73 134 166 294 360 404 383 252 245 
526 11 386 36 126 451 282 485 524 536 77 397 342 
527 11 111 54 11 472 9 299 611 153 528 540 219 
528 11 540 520 18 561 581 611 145 472 11 508 153 
529 11 231 484 198 243 582 90 258 341 7 399 400 
530 11 573 34 101 10 579 295 336 486 372 12 434 
531 11 465 244 447 431 455 361 325 269 27 592 5 
532 11 98 604 41 178 179 251 84 146 247 112 605 
533 11 255 390 284 33 218 463 420 607 96 589 570 
534 11 580 67 361 515 62 455 269 104 408 483 493 
535 11 170 292 140 589 463 69 460 567 476 458 225 
536 11 257 524 397 587 451 388 268 386 485 126 282 
537 11 590 176 198 256 57 399 378 288 529 58 484 
538 11 208 395 556 362 214 47 94 481 453 248 102 
539 11 226 487 264 28 601 279 74 326 5 138 106 
540 11 561 581 528 153 448 145 18 520 355 611 11 
541 11 155 507 368 63 204 266 22 209 81 406 427 
542 11 348 240 161 99 418 221 349 558 324 15 394 
543 11 444 366 184 152 116 132 212 301 229 302 359 
544 11 597 52 271 364 563 275 42 97 332 253 285 
545 11 64 285 87 188 391 31 396 42 304 412 314 
546 11 177 254 378 39 256 518 399 26 400 495 57 
547 11 446 65 512 310 553 509 593 4 414 603 82 
548 11 85 381 311 56 21 109 274 70 43 117 343 
549 11 374 224 435 277 79 137 457 456 13 112 401 
550 11 419 459 150 281 398 303 489 154 159 479 171 
551 11 462 357 86 477 238 175 48 172 474 377 135 
552 11 233 493 164 249 491 104 62 424 88 165 107 
553 11 446 512 414 4 547 593 65 603 310 498 411 
554 11 410 403 213 25 261 461 14 144 66 574 345 
555 11 350 566 186 407 276 6 230 236 3 452 308 
556 11 395 208 538 481 353 248 149 362 216 102 94 
557 11 273 30 265 297 100 129 474 95 238 163 190 
558 11 349 415 221 418 72 324 161 348 542 15 141 
559 11 263 335 130 307 75 82 430 331 404 40 439 
560 11 76 402 411 445 480 232 414 321 4 121 148 
561 11 581 540 448 153 528 145 355 181 18 114 520 
562 11 168 134 73 358 102 267 323 382 94 248 525 
563 11 364 97 275 42 597 249 544 259 412 107 120 
564 11 596 516 377 234 14 144 175 203 477 239 270 
565 10 438 298 370 339 473 286 363 217 449 77 
566 11 276 407 350 186 555 99 240 348 3 161 542 
567 11 139 140 432 93 170 589 535 458 292 463 460 
568 11 201 200 498 593 512 321 245 4 360 414 553 
569 11 594 154 171 389 78 197 272 417 489 309 354 
570 11 420 33 284 218 476 463 225 367 589 255 384 
571 11 416 7 490 211 243 468 467 90 341 582 231 
572 11 71 119 158 328 429 220 113 174 89 340 409 
573 11 10 530 34 101 295 336 579 372 434 428 610 
574 11 195 66 306 501 25 342 213 410 554 340 174 
575 11 479 159 369 160 91 489 499 157 303 313 413 
576 11 337 332 510 117 253 136 52 109 193 311 21 
577 11 241 23 429 409 328 488 89 426 300 119 206 
578 11 5 59 246 447 320 421 185 592 244 487 531 
579 11 101 34 530 486 573 336 216 12 10 32 372 
580 11 534 67 515 361 62 104 455 493 269 289 408 
581 11 561 540 448 153 355 528 114 145 181 18 520 
582 11 90 484 400 243 7 399 529 490 231 416 571 
583 11 309 197 417 272 78 80 354 594 171 192 389 
584 11 316 190 100 163 265 436 273 129 30 93 557 
585 11 68 125 315 469 442 81 70 369 43 160 313 
586 11 325 431 27 465 217 473 492 497 455 449 531 
587 11 257 397 388 536 268 235 524 393 485 451 126 
588 11 133 118 494 105 260 103 351 196 143 437 135 
589 11 463 170 292 535 140 476 567 225 533 139 33 
590 11 537 176 198 256 57 595 58 288 514 378 399 
591 11 151 50 599 237 359 362 124 214 443 453 454 
592 11 244 447 246 185 440 380 202 320 600 269 578 
593 11 512 498 4 553 414 446 547 568 201 321 65 
594 11 569 389 78 354 417 197 309 272 583 154 171 
595 11 514 123 242 58 288 590 250 385 283 612 57 
596 11 234 564 377 516 239 203 175 477 270 14 206 
597 11 544 52 364 563 42 271 97 285 275 64 391 
598 11 83 387 385 283 427 204 155 250 602 123 368 
599 11 237 591 50 151 362 149 214 124 453 359 538 
600 11 380 202 440 408 269 592 483 327 244 296 185 
601 11 28 264 106 279 138 326 539 74 51 487 226 
602 11 346 612 250 427 242 385 123 83 598 81 469 
603 11 65 446 553 189 414 317 232 547 4 411 310 
604 11 532 98 41 178 251 179 146 84 247 605 392 
605 11 122 167 251 47 146 382 94 178 179 110 247 
606 11 333 433 439 523 162 293 143 40 172 75 260 
607 11 96 390 533 432 255 29 139 371 284 567 463 
608 11 88 506 131 491 55 424 189 505 2 470 164 
609 11 519 423 206 23 270 95 239 203 300 426 234 
610 11 434 428 356 372 199 295 10 35 437 383 573 
611 11 472 11 111 54 527 219 520 528 53 9 299 
612 11 250 602 242 346 123 385 427 83 598 283 274 
DEPOT_SECTION
   1
   -1
EOF
