NAME :  X-n670-kX-w66-c7.cctp
COMMENT : 	Adapted by Maziero, Usberti and Cavellucci from the Uchoa, Pecin, Pessoa, Poggi, Subramanian, and Vidal (2013)
TYPE :  CCTP
DIMENSION :    410
EDGE_WEIGHT_TYPE : 	EUC_2D	
CAPACITY : 	129
VERTICES_WITHIN_COVERAGE :  7
VERTICES_WITH_DEMAND : 	66
NODE_COORD_SECTION
1 612 199
2 864 279
3 746 395
4 738 519
5 684 851
6 806 263
7 867 314
8 637 357
9 64 531
10 803 657
11 22 330
12 634 731
13 351 945
14 240 812
15 664 595
16 775 1000
17 971 313
18 953 717
19 317 25
20 812 410
21 677 874
22 731 504
23 89 803
24 697 604
25 53 379
26 817 947
27 164 875
28 86 108
29 9 596
30 406 956
31 304 456
32 843 846
33 285 809
34 148 84
35 349 524
36 527 626
37 947 317
38 646 27
39 718 325
40 906 651
41 889 936
42 953 118
43 908 868
44 447 13
45 335 495
46 77 834
47 992 428
48 826 196
49 337 341
50 482 288
51 123 49
52 415 572
53 274 837
54 581 738
55 33 36
56 795 906
57 353 858
58 242 80
59 532 464
60 246 853
61 109 299
62 285 353
63 5 669
64 255 457
65 909 568
66 986 234
67 920 756
68 7 655
69 317 94
70 897 775
71 226 802
72 320 820
73 15 31
74 60 419
75 629 333
76 662 34
77 689 829
78 836 281
79 640 347
80 850 655
81 290 424
82 407 997
83 286 957
84 129 245
85 435 940
86 705 340
87 913 873
88 862 977
89 326 380
90 512 437
91 589 34
92 937 700
93 535 764
94 822 590
95 788 804
96 788 907
97 115 327
98 477 11
99 962 433
100 314 568
101 47 482
102 665 826
103 756 911
104 50 508
105 439 921
106 731 971
107 417 273
108 52 855
109 463 281
110 832 357
111 693 636
112 131 820
113 130 344
114 98 41
115 78 818
116 954 175
117 555 470
118 925 867
119 546 678
120 717 485
121 980 240
122 925 566
123 105 781
124 337 94
125 713 619
126 815 673
127 193 37
128 750 998
129 713 377
130 383 57
131 898 976
132 388 899
133 57 697
134 869 771
135 755 921
136 727 494
137 30 311
138 175 156
139 836 939
140 35 719
141 183 932
142 200 42
143 6 329
144 904 97
145 850 281
146 92 113
147 703 888
148 914 786
149 255 781
150 838 456
151 869 804
152 300 97
153 694 598
154 606 610
155 835 965
156 418 558
157 169 8
158 28 353
159 195 905
160 132 282
161 180 133
162 267 75
163 459 577
164 354 814
165 59 558
166 909 551
167 386 600
168 869 521
169 953 797
170 803 785
171 762 251
172 294 309
173 68 61
174 760 373
175 991 448
176 88 318
177 593 372
178 265 137
179 852 404
180 17 702
181 893 251
182 953 259
183 359 900
184 60 422
185 919 921
186 0 149
187 13 415
188 292 936
189 952 248
190 380 49
191 98 852
192 945 802
193 262 472
194 3 108
195 794 150
196 16 297
197 757 663
198 981 443
199 82 768
200 839 433
201 670 588
202 981 726
203 709 822
204 258 312
205 199 777
206 995 677
207 56 320
208 259 438
209 353 945
210 102 17
211 248 300
212 726 266
213 944 700
214 2 569
215 880 608
216 383 363
217 940 348
218 644 381
219 655 838
220 24 441
221 703 67
222 462 4
223 630 680
224 688 380
225 597 758
226 774 414
227 337 487
228 277 764
229 365 569
230 872 918
231 595 345
232 864 223
233 575 418
234 482 633
235 350 533
236 98 246
237 707 298
238 816 701
239 426 554
240 658 570
241 689 736
242 905 954
243 204 948
244 739 482
245 900 705
246 367 999
247 395 526
248 611 607
249 800 873
250 895 268
251 26 302
252 981 331
253 368 849
254 888 203
255 740 867
256 695 582
257 74 819
258 810 168
259 400 966
260 924 776
261 979 276
262 105 134
263 433 571
264 704 274
265 62 350
266 276 320
267 569 491
268 247 101
269 125 281
270 376 586
271 915 744
272 742 479
273 885 281
274 191 889
275 509 202
276 292 387
277 434 328
278 504 328
279 92 533
280 787 990
281 123 301
282 775 517
283 794 427
284 485 623
285 716 603
286 384 901
287 208 400
288 17 138
289 952 175
290 863 568
291 645 528
292 473 40
293 665 5
294 44 4
295 390 315
296 37 567
297 667 799
298 526 664
299 230 780
300 824 302
301 969 848
302 876 329
303 836 902
304 386 574
305 18 851
306 292 841
307 848 931
308 233 856
309 833 332
310 121 796
311 707 857
312 690 527
313 79 234
314 29 570
315 259 444
316 26 660
317 618 855
318 753 424
319 444 966
320 759 555
321 784 434
322 906 911
323 575 734
324 234 493
325 377 928
326 102 786
327 54 485
328 917 138
329 866 690
330 556 739
331 300 357
332 844 603
333 374 477
334 334 958
335 773 618
336 282 880
337 367 534
338 310 838
339 625 343
340 949 696
341 605 114
342 812 229
343 884 888
344 914 913
345 65 369
346 268 824
347 335 460
348 545 601
349 996 311
350 367 379
351 304 808
352 479 607
353 741 978
354 784 502
355 878 347
356 264 329
357 691 618
358 140 350
359 763 494
360 108 29
361 870 632
362 631 919
363 501 606
364 352 487
365 476 22
366 780 505
367 772 324
368 547 428
369 960 705
370 81 301
371 30 367
372 962 592
373 866 231
374 309 524
375 18 304
376 580 38
377 739 598
378 665 638
379 880 775
380 371 600
381 501 223
382 215 451
383 49 525
384 718 972
385 932 564
386 72 355
387 286 840
388 75 872
389 51 518
390 303 414
391 711 483
392 46 598
393 562 503
394 115 157
395 304 785
396 188 816
397 727 298
398 612 777
399 398 880
400 334 458
401 972 386
402 639 318
403 147 837
404 598 9
405 689 739
406 344 952
407 665 405
408 906 931
409 212 478
410 784 249
DEMAND_SECTION
2 50
3 86
4 94
5 54
6 57
7 52
8 66
9 76
10 69
11 57
12 77
13 94
14 64
15 79
16 91
17 55
18 79
19 68
20 51
21 93
22 91
23 68
24 51
25 93
26 91
27 91
28 59
29 76
30 57
31 96
32 97
33 69
34 83
35 58
36 56
37 81
38 96
39 52
40 86
41 78
42 92
43 67
44 56
45 56
46 51
47 91
48 93
49 73
50 70
51 77
52 91
53 64
54 81
55 76
56 51
57 75
58 81
59 57
60 50
61 80
62 53
63 86
64 61
65 62
66 100
67 94
COVERAGE_SECTION
2 7 145 273 78 250 7 181 300 
3 7 174 318 226 129 321 283 224 
4 7 22 136 359 244 282 120 272 
5 7 77 21 311 102 219 203 147 
6 7 410 78 342 300 171 145 2 
7 7 302 2 355 145 273 309 78 
8 7 79 339 75 218 402 231 177 
9 6 383 389 104 165 279 296 
10 5 126 197 238 80 335 
11 7 143 137 158 375 251 196 207 
12 7 225 223 398 54 241 405 323 
13 7 209 406 334 325 183 259 286 
14 7 71 346 149 299 60 53 33 
15 7 201 240 153 24 256 357 378 
16 7 280 128 353 106 384 26 155 
17 6 252 37 349 261 217 182 
18 7 369 213 340 92 202 271 67 
19 6 190 69 162 124 130 152 
20 7 283 200 321 226 179 150 110 
21 7 5 147 311 219 77 102 203 
22 7 136 4 244 120 272 391 359 
23 7 115 326 257 123 46 310 199 
24 7 153 357 285 125 256 201 111 
25 7 345 371 265 386 158 74 184 
26 7 139 155 307 56 96 303 280 
27 6 274 403 159 141 112 396 
28 7 146 262 173 394 34 114 51 
29 6 214 314 392 296 68 165 
30 7 259 85 319 325 82 105 209 
31 7 400 347 81 390 193 227 315 
32 6 151 249 303 343 43 95 
33 7 351 346 53 387 395 306 72 
34 7 51 161 146 127 28 114 262 
35 7 235 337 45 364 227 374 247 
36 6 348 363 298 284 234 352 
37 6 17 217 252 349 261 182 
38 6 76 293 404 91 376 221 
39 7 86 397 237 129 264 367 212 
40 7 361 215 245 80 329 92 213 
41 7 408 242 230 322 185 344 131 
42 4 328 144 116 289 
43 6 87 118 343 322 344 185 
44 6 222 98 365 292 190 130 
45 7 227 364 35 347 400 374 235 
46 6 257 115 191 23 108 388 
47 6 198 175 99 401 217 252 
48 7 258 342 232 373 195 254 410 
49 7 331 89 350 216 62 172 295 
50 5 109 278 277 107 381 
51 7 360 114 210 34 173 157 28 
52 7 156 263 239 304 167 270 163 
53 7 387 346 306 33 60 338 14 
54 6 323 330 225 398 12 93 
55 7 73 294 173 114 210 360 194 
56 7 96 249 103 303 135 26 139 
57 7 253 183 164 338 72 399 286 
58 7 268 162 142 152 178 127 69 
59 6 117 90 368 267 393 233 
60 7 308 53 346 14 387 336 306 
61 7 281 269 176 370 97 160 113 
62 7 331 356 266 276 172 89 204 
63 6 68 316 180 140 133 29 
64 7 315 193 208 382 324 81 409 
65 6 122 166 385 290 215 372 
66 5 121 189 182 261 116 
67 7 271 260 70 148 379 18 192 
68 7 63 316 180 29 133 392 140 
69 5 152 124 162 178 19 
70 7 379 148 260 134 67 271 151 
71 7 14 299 149 205 396 346 308 
72 6 351 338 164 306 33 395 
73 7 55 294 173 194 114 210 360 
74 5 184 25 220 187 345 
75 6 339 79 402 8 231 218 
76 6 38 293 221 404 91 376 
77 7 203 5 102 311 219 297 21 
78 7 145 300 2 6 7 273 309 
79 7 8 339 75 402 218 231 177 
80 5 361 329 126 10 332 
81 7 390 208 31 276 315 64 193 
82 7 259 246 30 319 85 209 325 
83 4 188 334 406 13 
84 7 236 269 160 313 281 61 370 
85 7 105 319 30 259 325 132 82 
86 7 39 129 237 224 397 174 79 
87 5 43 118 343 322 344 
88 7 155 131 139 307 41 242 26 
89 6 276 331 49 350 390 62 
90 4 59 368 117 233 
91 3 376 404 38 
92 7 213 340 18 369 245 271 202 
93 3 330 323 54 
94 6 332 290 335 215 361 10 
95 3 170 32 249 
96 7 56 103 135 249 303 26 139 
97 7 113 281 176 61 358 370 269 
98 4 365 222 292 44 
99 4 198 47 175 401 
100 5 374 235 229 35 337 
101 6 327 104 389 383 220 9 
102 6 219 77 297 5 203 21 
103 6 135 96 56 255 147 249 
104 5 389 383 327 101 9 
105 6 85 319 30 132 399 286 
106 7 353 384 128 16 135 280 103 
107 4 109 295 277 50 
108 6 388 46 305 257 115 191 
109 6 50 107 277 278 381 295 
110 7 309 355 179 302 7 300 20 
111 6 357 125 378 24 153 285 
112 7 403 310 23 326 191 123 115 
113 5 358 97 281 176 61 
114 7 360 210 51 173 55 294 34 
115 6 257 46 23 191 326 108 
116 7 289 328 42 66 121 254 189 
117 6 59 267 393 368 90 233 
118 5 87 43 343 344 301 
119 3 298 36 330 
120 6 391 136 244 22 272 4 
121 4 66 189 182 261 
122 4 385 65 166 372 
123 6 326 310 199 23 115 112 
124 5 69 152 130 190 19 
125 6 285 24 357 111 153 377 
126 4 10 238 80 329 
127 7 142 157 34 58 51 162 268 
128 7 353 16 106 280 384 135 26 
129 6 224 3 86 174 39 407 
130 3 190 124 19 
131 5 242 88 41 408 185 
132 6 286 399 183 325 57 253 
133 4 140 180 316 63 
134 7 379 70 151 148 67 271 260 
135 7 103 96 56 106 255 353 147 
136 7 22 120 244 391 272 4 359 
137 6 251 375 196 11 207 143 
138 6 161 394 262 34 268 178 
139 7 307 26 155 303 230 88 41 
140 4 180 133 63 316 
141 4 243 159 274 27 
142 7 127 157 58 34 162 268 51 
143 7 11 375 137 158 196 251 371 
144 2 328 42 
145 7 2 78 300 273 7 250 6 
146 7 28 262 394 173 34 51 114 
147 6 21 311 5 255 103 77 
148 7 260 70 67 192 379 169 271 
149 6 299 228 14 71 33 346 
150 7 200 20 283 179 321 354 168 
151 6 379 134 70 148 32 260 
152 6 69 124 162 178 268 58 
153 7 24 256 357 285 201 125 15 
154 2 248 15 
155 7 26 139 88 307 280 230 41 
156 6 239 52 263 304 247 163 
157 7 127 142 51 360 210 114 34 
158 7 371 11 143 265 25 345 137 
159 6 274 141 27 243 308 60 
160 7 269 281 61 84 97 236 370 
161 6 138 34 394 268 262 58 
162 6 58 268 152 69 178 19 
163 7 263 352 239 52 156 363 284 
164 5 72 253 57 338 351 
165 6 296 9 314 383 279 389 
166 5 65 122 385 290 168 
167 7 380 270 304 229 52 156 263 
168 5 290 166 65 122 150 
169 7 192 260 148 67 301 70 271 
170 4 95 134 151 32 
171 6 410 212 6 342 397 264 
172 7 266 204 356 62 211 331 49 
173 7 114 55 28 360 51 210 146 
174 7 3 226 129 367 318 20 39 
175 4 198 47 99 401 
176 6 370 61 97 207 281 386 
177 4 231 339 8 233 
178 5 268 152 58 162 69 
179 6 200 20 110 150 283 355 
180 5 140 63 133 316 68 
181 5 250 273 373 2 232 
182 4 189 261 121 66 
183 7 286 132 325 57 399 209 13 
184 5 74 220 25 187 345 
185 5 344 322 408 41 242 
186 3 288 194 28 
187 7 220 74 184 371 25 158 345 
188 6 83 334 406 336 13 209 
189 4 182 121 66 261 
190 4 130 124 19 44 
191 6 46 388 115 257 108 112 
192 7 169 260 148 67 301 70 271 
193 7 64 315 208 324 31 409 382 
194 6 288 186 55 73 173 28 
195 2 258 48 
196 6 375 251 137 11 143 207 
197 2 10 335 
198 4 175 47 99 401 
199 6 123 326 23 310 115 257 
200 6 150 179 20 283 321 226 
201 7 15 240 153 256 24 357 285 
202 7 18 369 340 213 92 206 67 
203 5 77 311 5 102 297 
204 6 211 356 266 172 62 331 
205 4 299 71 396 14 
206 6 369 340 202 213 18 92 
207 6 137 265 370 176 11 251 
208 7 315 64 81 193 382 31 390 
209 7 13 406 334 325 183 259 30 
210 7 360 114 51 173 294 157 55 
211 5 204 356 266 172 62 
212 6 264 397 237 171 39 410 
213 7 340 92 369 18 245 202 271 
214 5 314 29 296 392 165 
215 7 361 332 290 65 40 80 94 
216 3 350 295 49 
217 7 37 252 17 401 355 302 349 
218 6 8 407 79 339 224 75 
219 6 102 5 77 297 317 21 
220 6 187 184 74 101 327 25 
221 3 76 38 293 
222 4 44 98 365 292 
223 2 12 378 
224 6 129 407 86 218 8 79 
225 6 398 54 323 330 12 93 
226 6 321 318 283 3 20 174 
227 7 45 364 347 400 333 35 31 
228 4 149 395 33 299 
229 7 270 304 380 337 167 235 35 
230 7 41 307 343 322 408 303 139 
231 4 177 339 75 8 
232 6 373 254 181 48 342 250 
233 4 368 177 117 59 
234 4 284 352 363 36 
235 7 35 337 229 45 374 247 364 
236 7 313 84 269 160 61 370 281 
237 6 397 264 39 212 86 367 
238 3 126 10 329 
239 6 156 263 52 163 247 304 
240 5 201 15 256 291 153 
241 2 405 12 
242 6 131 408 41 185 344 322 
243 5 141 159 274 83 27 
244 6 272 136 120 22 359 391 
245 6 92 329 271 213 340 18 
246 7 82 259 406 334 13 209 30 
247 6 337 156 239 35 235 304 
248 2 154 15 
249 6 56 96 303 32 103 255 
250 4 273 181 2 145 
251 6 375 137 196 11 143 207 
252 7 17 349 37 217 261 401 182 
253 5 57 164 399 183 132 
254 5 232 373 181 48 250 
255 6 311 147 103 203 135 5 
256 7 153 24 201 285 15 357 240 
257 6 115 46 23 191 108 326 
258 3 195 48 342 
259 7 30 82 85 319 325 246 209 
260 7 148 67 70 192 271 169 379 
261 7 182 121 17 189 349 66 37 
262 7 146 394 28 34 138 161 173 
263 7 52 239 156 163 304 167 352 
264 4 212 237 397 39 
265 6 386 345 25 207 158 371 
266 7 356 204 172 62 211 331 49 
267 4 393 117 59 368 
268 7 58 162 178 152 69 161 142 
269 7 160 281 61 84 236 97 370 
270 7 380 304 167 229 52 156 337 
271 7 67 260 70 148 245 18 379 
272 6 244 136 120 359 22 391 
273 5 250 2 181 145 7 
274 6 159 27 141 308 243 60 
275 2 381 50 
276 7 390 331 62 89 81 208 49 
277 5 295 109 107 50 216 
278 2 50 109 
279 4 9 165 383 389 
280 7 16 128 353 26 155 106 139 
281 7 61 269 160 97 176 370 113 
282 7 366 354 359 4 320 22 244 
283 7 321 226 20 318 200 150 3 
284 5 234 352 363 36 163 
285 7 125 24 153 377 357 256 111 
286 6 132 183 399 325 57 209 
287 4 382 208 315 64 
288 4 186 194 28 146 
289 7 116 328 42 66 254 121 189 
290 6 332 215 65 94 168 166 
291 4 240 312 201 15 
292 4 365 98 44 222 
293 6 38 76 404 221 91 376 
294 7 55 73 210 173 114 360 51 
295 5 277 216 107 49 350 
296 7 314 165 392 214 29 383 9 
297 5 102 77 219 203 5 
298 5 119 36 234 284 363 
299 4 71 149 205 14 
300 7 78 309 145 6 7 2 110 
301 5 118 192 169 87 43 
302 7 7 355 309 273 2 110 145 
303 7 307 139 230 56 249 96 26 
304 7 270 229 167 52 380 156 337 
305 5 108 46 388 257 115 
306 7 387 53 338 346 33 72 351 
307 7 139 230 303 26 155 41 88 
308 7 60 14 53 346 274 71 336 
309 7 110 300 7 302 355 78 145 
310 7 326 123 112 23 115 199 403 
311 6 5 147 77 21 255 203 
312 6 291 22 4 391 120 136 
313 5 236 84 269 370 61 
314 6 296 214 165 29 392 383 
315 7 208 64 193 81 382 31 390 
316 6 68 63 180 133 140 392 
317 3 219 102 21 
318 6 226 3 321 283 174 272 
319 6 85 30 259 105 82 325 
320 7 282 4 377 366 22 354 359 
321 6 283 226 318 20 3 200 
322 6 344 185 408 41 343 230 
323 6 54 330 225 93 398 12 
324 5 409 193 64 382 315 
325 7 286 209 13 132 183 30 406 
326 7 123 23 310 199 115 257 112 
327 5 101 104 389 383 9 
328 5 42 144 289 116 254 
329 5 245 80 238 126 40 
330 4 323 54 93 225 
331 7 62 276 89 49 266 356 172 
332 6 94 215 361 290 80 10 
333 5 364 227 45 347 400 
334 7 406 13 209 188 83 325 246 
335 5 377 197 10 94 285 
336 7 306 387 53 60 338 308 188 
337 7 235 35 247 229 304 364 45 
338 7 306 72 387 351 53 33 346 
339 7 75 79 8 402 231 218 177 
340 7 213 92 369 18 202 206 245 
341 3 376 91 38 
342 7 410 6 48 232 373 171 78 
343 7 43 230 322 87 344 118 41 
344 5 322 185 408 41 343 
345 7 25 386 265 371 158 74 207 
346 7 53 33 387 306 14 60 351 
347 7 400 227 31 364 45 333 390 
348 3 36 363 154 
349 7 17 252 261 37 182 217 121 
350 3 216 89 49 
351 6 33 72 395 338 306 387 
352 5 284 363 234 163 36 
353 7 106 128 384 16 280 135 103 
354 7 366 282 359 272 4 244 22 
355 6 302 7 110 309 217 179 
356 6 266 204 62 211 172 331 
357 7 24 111 153 125 285 378 15 
358 4 113 97 281 61 
359 7 366 354 272 282 244 22 4 
360 7 210 114 51 173 157 34 294 
361 7 215 80 332 40 329 94 290 
362 2 21 317 
363 7 352 284 36 234 348 163 298 
364 7 227 45 333 347 400 35 235 
365 4 98 292 222 44 
366 7 354 282 359 4 272 244 22 
367 7 174 397 39 300 309 110 86 
368 4 233 90 59 117 
369 7 18 340 213 92 202 206 245 
370 6 176 61 207 281 97 269 
371 7 158 25 345 265 11 386 143 
372 3 385 122 65 
373 6 232 181 254 250 2 145 
374 6 45 35 235 100 227 364 
375 6 196 251 137 11 143 207 
376 3 91 404 38 
377 7 285 125 335 24 153 256 320 
378 5 111 357 15 24 153 
379 7 134 70 151 148 67 260 271 
380 7 167 270 304 229 52 156 100 
381 3 275 50 109 
382 7 409 64 315 208 324 193 287 
383 7 389 9 104 165 327 101 279 
384 5 106 353 128 135 16 
385 4 122 65 166 372 
386 6 265 345 25 207 176 158 
387 7 306 53 338 346 33 351 72 
388 4 108 191 46 257 
389 7 383 104 9 327 101 165 279 
390 7 81 276 89 31 208 315 400 
391 6 120 136 244 22 272 4 
392 6 296 314 29 165 214 316 
393 4 267 117 59 368 
394 7 262 146 28 138 161 34 313 
395 4 351 33 228 72 
396 6 71 205 403 14 299 112 
397 7 237 39 212 264 86 367 171 
398 5 225 54 12 323 297 
399 5 132 286 253 183 57 
400 7 347 227 31 364 45 333 390 
401 7 47 99 217 252 198 175 17 
402 5 75 79 339 8 231 
403 7 112 27 396 310 191 23 274 
404 5 91 376 38 293 76 
405 2 241 12 
406 7 13 209 334 325 246 183 188 
407 3 218 224 8 
408 6 185 41 322 344 242 230 
409 5 324 382 64 193 315 
410 6 171 6 342 212 78 300 
DEPOT_SECTION
   1
   -1
EOF
