NAME :  X-n613-kX-w61-c11.cctp
COMMENT : 	Adapted by Maziero, Usberti and Cavellucci from the Uchoa, Pecin, Pessoa, Poggi, Subramanian, and Vidal (2013)
TYPE :  CCTP
DIMENSION :    456
EDGE_WEIGHT_TYPE : 	EUC_2D	
CAPACITY : 	523
VERTICES_WITHIN_COVERAGE :  11
VERTICES_WITH_DEMAND : 	61
NODE_COORD_SECTION
1 500 500
2 550 574
3 177 24
4 448 476
5 934 619
6 323 122
7 430 76
8 364 9
9 988 994
10 91 636
11 926 977
12 2 579
13 326 342
14 455 822
15 48 74
16 814 334
17 997 22
18 838 899
19 634 360
20 324 191
21 750 283
22 996 106
23 473 967
24 642 334
25 539 764
26 510 194
27 807 664
28 949 710
29 21 994
30 293 934
31 832 366
32 8 531
33 56 893
34 82 605
35 197 626
36 661 777
37 207 272
38 945 510
39 505 137
40 325 693
41 240 335
42 776 462
43 810 235
44 496 288
45 624 171
46 799 293
47 120 393
48 250 839
49 31 266
50 64 349
51 898 729
52 740 387
53 838 992
54 952 991
55 558 497
56 695 240
57 622 113
58 670 95
59 967 595
60 926 470
61 665 284
62 753 558
63 946 61
64 820 415
65 453 551
66 565 786
67 768 573
68 841 180
69 799 203
70 33 134
71 973 751
72 308 651
73 677 737
74 245 311
75 743 248
76 265 806
77 851 403
78 621 530
79 467 83
80 866 308
81 556 270
82 131 426
83 329 945
84 64 997
85 761 475
86 248 366
87 235 937
88 80 598
89 133 453
90 739 585
91 933 751
92 319 201
93 734 286
94 118 342
95 951 973
96 303 313
97 92 212
98 716 302
99 583 424
100 151 409
101 89 361
102 843 196
103 679 788
104 233 266
105 994 524
106 229 917
107 566 501
108 96 294
109 226 827
110 691 293
111 338 332
112 905 714
113 46 71
114 594 419
115 419 783
116 852 847
117 194 344
118 751 651
119 530 340
120 6 405
121 60 343
122 87 261
123 962 886
124 777 993
125 877 318
126 859 247
127 292 982
128 724 614
129 247 618
130 133 392
131 986 490
132 255 776
133 864 343
134 594 73
135 531 156
136 221 392
137 221 398
138 809 947
139 864 805
140 843 335
141 477 878
142 940 551
143 183 69
144 498 641
145 867 413
146 540 551
147 281 990
148 604 224
149 907 417
150 650 349
151 998 2
152 570 808
153 216 820
154 355 476
155 887 524
156 443 886
157 436 349
158 427 927
159 78 435
160 997 108
161 324 213
162 369 115
163 177 280
164 539 753
165 81 372
166 43 527
167 765 671
168 31 906
169 854 983
170 835 330
171 570 361
172 390 283
173 982 681
174 650 227
175 975 485
176 287 6
177 446 24
178 530 474
179 700 542
180 397 872
181 305 9
182 12 340
183 285 858
184 358 892
185 498 952
186 444 51
187 888 591
188 927 591
189 185 324
190 199 357
191 257 625
192 757 346
193 559 164
194 56 937
195 559 96
196 415 7
197 782 493
198 506 686
199 972 719
200 267 937
201 437 907
202 699 405
203 286 936
204 755 180
205 341 291
206 628 240
207 977 737
208 487 328
209 57 916
210 810 409
211 701 741
212 314 201
213 661 104
214 740 622
215 550 234
216 215 853
217 318 722
218 253 617
219 90 662
220 909 472
221 308 910
222 994 964
223 468 904
224 181 279
225 891 448
226 610 312
227 582 826
228 330 146
229 725 274
230 517 304
231 835 254
232 901 434
233 858 202
234 261 997
235 493 583
236 512 311
237 592 403
238 949 560
239 426 413
240 634 611
241 200 557
242 44 99
243 823 681
244 958 756
245 913 482
246 73 713
247 4 687
248 717 349
249 273 727
250 622 359
251 114 595
252 720 330
253 485 245
254 412 21
255 682 188
256 555 691
257 671 173
258 55 117
259 242 124
260 670 711
261 22 470
262 166 675
263 269 813
264 144 450
265 66 302
266 812 595
267 65 382
268 683 718
269 744 458
270 370 159
271 155 263
272 93 827
273 897 63
274 866 240
275 9 995
276 136 611
277 925 459
278 585 137
279 473 176
280 878 528
281 748 261
282 141 431
283 208 624
284 76 809
285 653 811
286 62 951
287 805 374
288 204 284
289 139 39
290 800 483
291 516 93
292 489 103
293 297 291
294 468 780
295 754 944
296 999 143
297 220 145
298 542 926
299 509 745
300 515 461
301 791 479
302 821 266
303 459 481
304 47 141
305 417 102
306 57 886
307 991 595
308 962 506
309 375 948
310 631 572
311 210 596
312 476 910
313 133 673
314 578 982
315 353 675
316 834 675
317 266 734
318 146 650
319 353 284
320 305 987
321 301 687
322 308 224
323 821 189
324 45 279
325 108 220
326 446 524
327 907 598
328 473 609
329 659 823
330 326 19
331 92 368
332 29 271
333 804 619
334 369 215
335 325 240
336 519 684
337 297 819
338 102 896
339 20 818
340 850 667
341 916 759
342 401 140
343 364 57
344 823 178
345 590 605
346 924 977
347 315 879
348 78 1
349 105 857
350 36 243
351 521 366
352 58 482
353 153 0
354 812 506
355 481 68
356 705 785
357 16 596
358 974 675
359 503 914
360 431 112
361 805 745
362 728 560
363 623 149
364 879 709
365 404 453
366 838 272
367 646 185
368 520 843
369 337 149
370 761 972
371 637 433
372 607 588
373 575 511
374 952 72
375 818 942
376 688 326
377 547 662
378 423 507
379 93 4
380 699 23
381 762 595
382 389 815
383 48 7
384 586 171
385 391 990
386 860 942
387 562 289
388 779 980
389 305 733
390 661 798
391 954 975
392 888 912
393 483 24
394 69 618
395 866 631
396 244 362
397 72 937
398 793 569
399 582 43
400 73 425
401 979 684
402 911 888
403 921 111
404 108 98
405 737 414
406 830 426
407 546 141
408 429 536
409 741 233
410 373 286
411 305 814
412 690 548
413 449 506
414 491 754
415 252 82
416 278 918
417 61 132
418 344 620
419 500 421
420 913 865
421 734 467
422 410 836
423 205 115
424 360 459
425 61 872
426 408 85
427 83 627
428 550 809
429 711 338
430 515 998
431 946 604
432 61 580
433 785 575
434 931 871
435 474 76
436 243 984
437 849 185
438 817 685
439 119 898
440 607 31
441 43 337
442 417 480
443 693 31
444 394 858
445 749 418
446 30 362
447 945 714
448 492 526
449 234 361
450 165 386
451 262 707
452 87 989
453 597 528
454 401 969
455 146 661
456 910 977
DEMAND_SECTION
2 97
3 2
4 30
5 91
6 63
7 99
8 78
9 50
10 2
11 58
12 1
13 3
14 99
15 28
16 32
17 10
18 1
19 75
20 55
21 75
22 31
23 38
24 34
25 62
26 25
27 12
28 63
29 43
30 100
31 58
32 45
33 68
34 38
35 31
36 91
37 59
38 4
39 43
40 48
41 31
42 84
43 43
44 51
45 37
46 48
47 26
48 97
49 39
50 42
51 64
52 50
53 5
54 98
55 66
56 65
57 24
58 74
59 59
60 40
61 57
62 23
COVERAGE_SECTION
2 11 146 345 235 372 453 373 107 448 55 310 78 
3 8 353 289 143 379 415 423 404 348 
4 11 303 413 442 378 326 365 408 239 448 300 65 
5 10 431 188 327 59 187 238 307 142 358 395 
6 11 228 369 162 270 20 343 92 212 342 259 415 
7 11 426 186 305 360 79 435 355 177 254 292 343 
8 11 330 343 254 196 181 176 177 426 186 7 162 
9 11 222 54 391 95 11 346 456 123 392 402 169 
10 11 427 219 394 34 88 251 276 313 318 455 432 
11 11 346 456 95 391 54 9 222 169 386 392 53 
12 11 357 32 432 166 394 88 34 427 10 247 261 
13 9 111 96 205 293 319 410 86 396 41 
14 10 294 422 115 141 156 382 368 444 180 414 
15 8 113 242 258 417 70 404 304 383 
16 11 170 140 31 287 46 133 80 192 125 366 302 
17 8 151 63 374 22 160 273 403 296 
18 9 375 386 392 116 138 402 420 169 53 
19 11 250 150 24 226 237 171 376 114 371 202 429 
20 10 92 212 161 322 369 228 335 334 270 6 
21 11 93 281 229 75 98 46 409 252 110 192 429 
22 8 160 296 374 63 403 17 151 273 
23 11 185 430 312 158 359 223 201 454 298 385 156 
24 11 150 19 250 226 376 61 110 429 248 171 252 
25 11 164 66 299 428 414 152 294 227 256 368 336 
26 11 279 135 39 193 215 253 407 384 81 292 278 
27 10 243 438 316 167 340 333 118 395 266 214 
28 11 447 199 207 401 358 91 112 173 244 71 51 
29 10 275 84 286 452 194 397 209 168 33 306 
30 11 203 416 200 221 83 127 320 147 87 347 106 
31 11 287 140 170 16 133 77 210 64 145 406 125 
32 8 166 12 261 357 352 432 88 34 
33 10 306 425 209 168 194 338 397 286 349 439 
34 11 88 394 427 10 432 251 276 219 357 318 12 
35 11 283 311 129 318 218 262 191 455 276 241 313 
36 9 103 390 285 73 356 329 211 268 260 
37 10 288 104 224 163 271 74 189 41 117 190 
38 11 308 175 142 245 60 131 238 105 220 277 155 
39 11 135 292 407 291 279 26 193 79 195 435 355 
40 10 321 217 315 72 389 249 451 317 418 191 
41 11 74 396 449 86 117 190 189 136 288 137 96 
42 11 85 301 197 269 290 421 445 354 405 210 64 
43 11 231 302 69 366 323 126 102 274 233 344 46 
44 11 230 236 208 253 119 81 387 215 351 157 26 
45 11 363 367 384 257 278 148 57 255 174 193 206 
46 11 302 16 366 21 170 231 43 281 140 93 192 
47 11 130 82 100 331 282 165 101 450 94 267 400 
48 9 109 263 76 216 153 183 337 411 132 
49 11 332 324 350 265 122 108 441 182 97 121 50 
50 11 121 441 101 165 267 331 446 265 182 94 108 
51 11 112 364 341 91 447 28 244 199 71 340 207 
52 11 405 445 192 248 202 429 252 287 269 210 376 
53 11 169 138 375 386 388 124 456 370 346 11 18 
54 11 391 95 11 346 9 456 222 169 392 386 123 
55 11 107 373 178 453 300 146 78 448 2 99 114 
56 11 229 174 409 75 61 110 255 281 93 98 206 
57 11 363 213 278 134 58 45 195 384 367 257 193 
58 10 213 57 443 363 257 380 134 45 440 367 
59 10 431 307 238 188 5 142 327 105 187 358 
60 11 277 220 245 225 38 232 175 308 149 131 155 
61 11 110 376 56 98 24 206 174 229 226 150 93 
62 11 67 362 90 433 381 398 179 128 412 214 266 
63 8 374 273 403 17 22 160 151 296 
64 11 210 406 77 287 145 31 42 301 290 445 225 
65 9 326 408 413 448 235 378 328 303 4 
66 9 152 428 25 164 227 299 368 414 285 
67 11 433 62 381 398 90 362 266 214 333 128 179 
68 10 437 102 344 323 233 69 43 274 126 231 
69 11 323 43 344 102 68 204 437 233 231 409 302 
70 7 304 258 417 242 15 113 404 
71 10 207 244 199 91 447 28 341 401 173 358 
72 9 321 40 418 315 191 218 129 217 451 
73 7 268 211 260 36 103 356 390 
74 11 41 104 288 396 449 37 86 293 96 117 189 
75 11 281 409 229 21 93 56 98 43 110 204 46 
76 11 263 132 337 48 411 109 153 183 216 317 249 
77 11 145 406 64 210 31 287 149 232 225 133 140 
78 7 453 310 373 372 107 55 412 
79 11 435 355 292 7 186 360 291 305 426 393 177 
80 8 125 133 140 170 366 16 126 231 
81 11 387 215 230 236 44 148 226 119 253 206 26 
82 9 282 100 89 264 130 47 450 159 400 
83 11 30 221 203 309 320 127 416 184 200 147 347 
84 9 452 29 286 275 194 397 209 168 33 
85 9 42 269 197 421 301 290 445 354 405 
86 11 396 449 41 136 137 190 74 117 96 189 13 
87 9 106 200 416 436 203 30 234 147 127 
88 11 34 394 432 427 251 10 276 357 219 12 166 
89 7 264 282 82 100 159 47 130 
90 10 381 362 62 67 128 214 433 398 179 412 
91 11 341 244 447 71 51 28 112 207 199 364 401 
92 10 212 20 161 322 335 334 369 228 270 6 
93 11 229 21 98 281 75 110 252 409 429 56 376 
94 9 101 331 165 47 130 108 50 121 450 
95 11 391 54 11 346 456 9 222 123 392 402 386 
96 10 293 13 111 205 74 319 41 410 86 335 
97 7 325 122 350 49 271 108 324 
98 11 93 110 252 229 429 376 21 248 281 61 75 
99 8 114 237 371 171 178 250 55 300 
100 10 282 130 82 450 47 264 89 137 190 136 
101 10 331 165 50 267 121 94 47 441 130 446 
102 10 437 68 233 323 344 69 274 43 126 231 
103 7 36 390 356 285 329 73 211 
104 11 37 288 74 224 163 41 293 189 271 96 322 
105 11 131 308 175 38 238 142 307 59 60 245 431 
106 7 87 200 416 203 30 216 436 
107 10 55 373 453 178 146 78 300 2 448 99 
108 8 265 122 94 324 121 50 101 271 
109 7 153 48 216 76 263 132 183 
110 11 98 61 376 229 93 252 429 56 21 248 24 
111 9 13 96 205 319 293 410 172 335 74 
112 11 51 364 447 28 91 341 199 244 340 207 71 
113 9 15 242 258 417 70 383 404 304 348 
114 6 99 237 371 171 250 19 
115 8 382 294 14 422 414 444 180 299 
116 7 139 18 420 402 392 434 386 
117 11 190 189 449 41 450 396 136 86 137 74 288 
118 6 167 214 128 27 381 333 
119 8 351 236 230 171 208 387 44 81 
120 10 446 267 182 261 400 441 159 50 121 165 
121 11 50 441 101 165 446 267 265 331 182 94 108 
122 9 108 265 324 325 97 350 49 332 271 
123 8 434 402 420 392 222 95 391 11 
124 9 388 370 295 138 53 375 169 386 18 
125 6 80 133 140 170 366 16 
126 8 274 231 366 302 233 43 102 80 
127 11 147 320 234 203 30 436 200 83 416 87 221 
128 9 214 90 381 118 362 67 62 167 433 
129 8 218 191 283 311 35 72 241 321 
130 11 47 100 450 82 282 331 94 101 165 264 89 
131 10 175 308 105 38 60 277 245 142 220 238 
132 9 76 263 317 249 109 153 337 48 411 
133 9 140 125 170 80 31 16 77 287 145 
134 10 399 195 440 57 278 213 58 291 363 407 
135 11 407 193 39 26 278 384 279 291 195 292 215 
136 10 137 449 86 396 190 117 450 41 100 189 
137 10 136 449 86 396 190 450 117 41 100 189 
138 10 375 388 386 53 370 295 18 124 169 392 
139 7 116 341 420 51 361 91 434 
140 11 170 133 16 31 80 125 287 46 366 77 302 
141 11 223 312 156 359 201 368 14 158 185 422 180 
142 10 238 38 188 308 59 431 327 155 105 187 
143 7 3 423 289 415 353 404 259 
144 7 328 198 336 377 235 256 2 
145 9 77 406 149 232 225 64 210 31 133 
146 11 2 373 448 107 55 235 453 345 372 178 78 
147 11 127 234 320 436 203 200 30 83 87 416 221 
148 11 206 174 215 384 45 367 81 193 363 387 257 
149 7 232 225 145 277 220 60 77 
150 11 24 19 250 376 226 429 61 248 110 252 202 
151 8 17 63 374 22 160 273 403 296 
152 6 428 227 66 25 368 164 
153 6 109 216 48 76 263 132 
154 7 424 365 442 378 4 239 408 
155 6 280 245 220 142 38 60 
156 11 201 223 141 312 158 180 444 422 14 359 184 
157 10 208 239 172 236 44 351 410 230 119 419 
158 11 201 156 223 454 312 309 23 180 141 385 185 
159 8 400 352 82 267 89 47 165 282 
160 8 22 296 374 63 403 17 151 273 
161 9 92 212 322 20 335 334 369 228 270 
162 11 342 270 6 369 426 228 305 343 360 7 20 
163 8 224 288 271 37 189 104 117 74 
164 11 25 299 66 414 428 152 256 336 198 294 227 
165 11 331 101 267 50 121 47 94 441 446 400 130 
166 8 32 352 432 261 12 357 88 34 
167 6 118 27 438 214 243 333 
168 11 33 209 306 194 425 397 286 338 439 29 339 
169 11 53 386 375 456 138 346 11 388 124 392 18 
170 11 140 16 133 31 80 125 46 287 366 302 77 
171 8 119 237 351 250 114 226 19 99 
172 9 410 319 205 111 334 335 157 13 96 
173 11 401 358 199 28 447 207 71 5 244 112 91 
174 11 206 367 148 56 255 257 61 45 110 363 384 
175 10 131 308 38 105 60 277 245 220 142 238 
176 11 181 330 8 415 343 3 6 143 254 259 196 
177 10 186 254 196 393 7 355 435 79 426 8 
178 9 300 55 107 373 419 448 303 99 146 
179 7 412 362 62 90 67 310 128 
180 8 444 422 184 156 201 382 158 14 
181 11 176 330 8 343 415 254 196 6 162 426 3 
182 11 446 441 121 50 120 265 267 324 332 49 165 
183 11 347 48 337 263 411 76 221 416 109 216 30 
184 10 180 347 444 221 309 83 422 30 158 201 
185 10 23 359 312 430 298 223 158 201 141 314 
186 11 177 7 79 435 355 254 393 426 196 305 360 
187 7 327 188 395 5 431 280 142 
188 10 327 431 5 238 187 59 142 307 395 155 
189 9 117 190 288 163 224 37 41 74 449 
190 11 117 449 189 136 396 450 41 137 86 74 100 
191 8 218 129 283 311 72 35 321 451 
192 11 248 252 52 429 287 16 98 21 93 46 405 
193 11 407 384 135 278 26 39 45 363 195 215 148 
194 11 286 397 209 168 33 306 84 452 338 425 29 
195 10 134 291 407 278 399 57 135 39 193 292 
196 11 254 177 8 186 393 7 343 426 330 355 435 
197 10 301 290 85 42 354 269 421 62 398 67 
198 9 336 144 377 256 299 414 164 328 25 
199 11 207 28 447 71 401 173 244 358 91 112 341 
200 11 203 416 30 87 106 221 127 436 147 234 83 
201 11 156 158 223 312 141 180 444 359 23 454 309 
202 8 405 52 445 248 371 429 269 421 
203 11 30 200 416 221 83 127 87 147 320 106 347 
204 10 69 409 323 344 75 255 43 281 257 56 
205 9 319 410 111 96 293 172 13 335 322 
206 11 174 148 61 367 56 45 226 255 81 215 257 
207 11 71 199 244 28 447 91 401 173 358 341 112 
208 9 236 230 44 119 351 157 253 387 171 
209 11 194 33 397 168 306 286 425 338 439 349 452 
210 11 64 406 287 77 31 145 445 42 52 301 405 
211 6 73 268 260 356 103 36 
212 10 92 20 161 322 335 228 334 369 270 6 
213 11 58 57 363 257 134 45 443 367 278 255 380 
214 9 128 118 381 90 167 67 362 333 62 
215 11 81 148 387 26 253 193 384 44 230 206 135 
216 7 109 153 48 106 263 76 183 
217 10 389 40 321 249 317 451 315 72 132 411 
218 8 129 191 283 311 35 72 241 321 
219 9 10 427 313 394 246 455 318 34 88 
220 11 245 60 277 225 232 38 149 155 308 280 175 
221 11 30 416 347 203 83 200 184 183 127 309 320 
222 10 9 391 95 54 11 346 123 456 434 402 
223 11 312 141 156 201 359 158 185 23 298 180 368 
224 8 163 288 37 271 189 104 117 74 
225 10 232 220 149 277 245 60 145 77 406 155 
226 11 24 250 387 19 150 61 171 81 206 376 110 
227 6 152 428 66 368 285 25 
228 11 369 6 270 20 162 92 212 161 342 334 322 
229 11 93 281 21 98 75 110 409 56 252 61 376 
230 10 236 44 119 208 387 81 351 253 215 171 
231 10 302 366 126 43 274 46 233 102 69 80 
232 8 225 149 277 220 145 60 245 77 
233 10 102 437 68 274 323 344 126 231 43 69 
234 11 147 436 127 320 200 87 203 30 416 83 106 
235 9 328 65 146 448 2 144 326 408 413 
236 10 230 44 208 119 387 351 81 253 171 157 
237 8 114 99 171 250 371 19 150 351 
238 10 142 188 59 431 38 307 308 327 105 5 
239 9 365 157 4 442 419 303 424 378 154 
240 9 372 310 345 78 412 128 453 2 179 
241 6 311 283 35 129 218 276 
242 7 258 15 113 70 417 304 404 
243 9 438 316 27 340 167 364 333 361 395 
244 10 71 91 207 199 341 447 28 51 112 401 
245 10 220 60 277 225 38 155 232 308 280 175 
246 6 219 313 247 10 427 455 
247 9 246 219 357 394 427 10 12 34 88 
248 11 429 252 376 192 52 98 202 110 93 150 405 
249 8 317 451 389 217 321 132 40 76 
250 11 19 150 24 226 171 237 114 376 99 371 61 
251 11 276 34 88 427 10 394 432 318 219 455 313 
252 11 429 248 98 376 192 93 110 21 229 52 61 
253 11 44 26 215 230 279 236 81 208 387 135 172 
254 11 196 177 186 8 7 343 426 393 305 79 355 
255 11 257 367 174 56 45 363 204 409 206 75 148 
256 11 377 336 198 164 299 25 144 414 345 66 240 
257 11 255 367 45 363 174 213 56 57 58 206 148 
258 7 417 242 304 70 15 113 404 
259 9 297 423 415 6 143 228 369 212 20 
260 6 268 73 211 36 103 356 
261 8 352 166 32 159 120 400 267 446 
262 7 455 318 313 35 283 276 219 
263 11 76 337 48 411 132 109 183 153 216 317 347 
264 8 89 282 82 100 130 47 450 159 
265 11 108 324 121 441 122 50 332 49 101 94 182 
266 8 333 398 433 67 381 395 27 62 
267 11 165 331 101 50 121 446 400 441 159 47 120 
268 6 260 73 211 36 103 356 
269 9 421 85 42 445 405 301 197 290 202 
270 11 369 342 228 162 20 334 6 92 212 161 305 
271 7 163 224 37 288 325 108 122 
272 7 284 349 425 306 338 339 33 
273 4 63 403 374 17 
274 8 126 231 233 366 102 302 43 437 
275 11 29 84 286 194 452 397 168 209 33 306 425 
276 11 251 318 10 455 34 427 88 313 35 394 219 
277 10 60 220 245 232 225 149 38 175 308 131 
278 11 384 193 407 363 57 195 45 135 134 367 39 
279 11 26 39 135 253 292 360 342 407 193 79 291 
280 6 155 245 187 220 142 38 
281 11 75 21 229 93 409 98 56 46 110 43 302 
282 9 82 264 89 100 130 47 450 159 400 
283 10 35 311 129 218 191 262 241 318 455 276 
284 6 272 349 339 425 306 33 
285 5 329 390 36 103 356 
286 11 194 397 209 452 84 168 33 29 306 338 275 
287 11 31 210 16 64 170 77 140 192 406 52 133 
288 10 37 224 163 104 189 74 271 117 41 190 
289 7 3 353 143 379 404 348 383 
290 10 301 197 354 42 85 269 406 421 64 210 
291 10 292 195 355 39 435 79 407 135 393 134 
292 11 291 79 435 355 39 360 7 135 186 407 195 
293 10 96 205 74 319 111 335 13 322 104 41 
294 11 414 14 115 299 25 164 422 368 382 428 66 
295 6 370 388 124 138 375 18 
296 6 160 22 403 374 63 17 
297 6 259 423 415 143 6 212 
298 7 359 185 314 312 223 430 23 
299 11 414 164 25 294 198 336 66 256 428 152 377 
300 9 178 419 55 303 107 4 448 99 373 
301 11 290 197 42 85 354 269 421 406 64 210 445 
302 10 231 366 43 46 126 274 80 170 69 16 
303 11 4 413 442 378 326 448 300 365 408 65 178 
304 7 70 417 258 242 15 113 404 
305 11 360 426 7 342 162 79 186 435 343 292 355 
306 10 33 425 209 168 338 194 397 349 439 286 
307 11 59 431 238 5 188 142 105 358 327 173 401 
308 11 38 175 131 105 142 60 245 238 277 220 155 
309 11 454 385 83 158 184 201 221 180 320 30 127 
310 9 372 240 78 345 453 412 179 2 373 
311 9 283 35 241 129 218 191 276 318 262 
312 10 223 359 141 201 156 185 158 23 298 368 
313 8 455 318 262 219 10 276 427 246 
314 5 430 298 185 359 23 
315 6 40 72 321 418 217 389 
316 10 243 340 438 27 395 364 333 167 361 112 
317 8 249 451 389 132 217 321 40 76 
318 10 455 313 262 276 35 10 219 251 283 427 
319 9 205 410 172 111 335 293 96 13 334 
320 11 127 147 234 83 30 203 436 200 416 221 309 
321 10 40 72 217 451 389 249 315 317 191 418 
322 9 161 335 212 92 20 334 293 205 319 
323 10 344 68 102 69 437 233 43 231 204 274 
324 11 332 49 265 350 122 108 441 121 182 50 97 
325 7 97 122 271 108 350 324 49 
326 9 413 408 65 378 303 448 4 442 235 
327 8 187 188 5 431 395 142 238 59 
328 6 235 144 65 198 2 408 
329 5 285 390 103 36 356 
330 11 181 8 176 343 254 196 415 6 162 426 7 
331 10 101 165 267 50 94 47 121 130 441 400 
332 11 49 324 350 265 122 441 108 182 121 50 97 
333 11 266 27 381 433 398 67 118 395 214 316 167 
334 9 161 20 335 92 270 212 322 172 319 
335 9 322 161 92 212 20 334 319 205 293 
336 9 198 377 256 144 299 164 414 25 328 
337 8 411 263 76 183 48 132 347 109 
338 7 439 349 33 306 425 209 397 
339 9 284 425 272 306 33 168 349 209 338 
340 11 316 243 438 395 27 364 333 112 51 266 167 
341 11 91 51 244 112 447 71 28 364 207 139 199 
342 11 270 162 305 360 426 369 7 228 6 279 334 
343 11 8 426 330 162 254 7 305 196 181 6 186 
344 9 323 68 102 437 69 233 43 204 274 
345 10 372 240 2 310 377 146 453 78 256 373 
346 11 11 456 95 391 54 9 169 222 386 392 53 
347 11 221 183 184 416 30 337 203 411 83 200 48 
348 10 379 383 289 353 113 15 3 404 242 258 
349 7 272 338 439 425 284 306 33 
350 10 49 332 324 122 97 265 325 108 441 182 
351 8 119 171 208 236 419 230 237 44 
352 7 261 166 159 400 32 89 82 
353 8 3 289 379 143 348 383 404 423 
354 7 290 197 301 42 85 398 280 
355 10 435 79 292 186 291 393 7 177 360 305 
356 7 103 211 36 390 73 285 329 
357 11 12 432 394 88 32 34 166 427 10 247 251 
358 11 173 401 28 199 447 207 5 71 431 112 59 
359 9 312 223 185 298 141 23 156 201 368 
360 11 305 426 7 342 79 435 292 162 186 355 270 
361 4 438 243 316 27 
362 10 62 90 179 412 67 381 128 433 214 398 
363 11 45 57 278 367 384 257 213 193 255 58 148 
364 11 112 51 340 316 341 243 438 447 91 28 395 
365 10 442 424 239 4 154 378 303 413 326 408 
366 10 231 302 126 274 46 43 80 170 125 140 
367 11 45 257 255 174 363 148 206 384 56 57 278 
368 10 428 141 152 227 14 66 359 223 312 25 
369 11 228 6 270 20 162 92 212 161 342 334 322 
370 7 388 124 295 138 375 53 169 
371 6 114 237 99 202 19 250 
372 10 345 310 240 2 78 453 146 373 412 377 
373 10 107 55 453 78 146 178 2 300 310 372 
374 8 63 403 22 273 160 17 151 296 
375 10 138 386 18 53 388 169 295 370 124 392 
376 11 429 252 110 98 248 150 24 61 93 19 229 
377 11 256 336 198 144 345 2 164 299 328 372 235 
378 10 413 442 326 408 4 303 65 365 448 154 
379 10 348 383 289 353 113 15 3 404 242 143 
380 5 443 58 213 440 134 
381 11 67 90 433 214 62 398 128 333 362 266 118 
382 8 422 444 115 180 14 184 411 294 
383 11 348 379 113 15 242 289 353 404 258 417 70 
384 11 193 278 45 363 407 148 135 367 57 215 26 
385 11 454 309 158 83 23 320 201 127 184 147 30 
386 11 169 392 375 18 138 53 456 346 402 11 388 
387 11 81 230 226 236 215 119 44 171 148 206 208 
388 9 124 370 295 138 375 53 169 386 18 
389 11 217 249 317 40 321 451 132 315 411 72 76 
390 6 285 36 103 329 356 73 
391 11 95 54 11 346 9 222 456 123 392 402 169 
392 11 402 386 18 420 434 456 116 346 11 375 123 
393 10 177 355 186 435 79 196 254 7 291 292 
394 11 427 34 88 10 432 219 251 357 276 12 318 
395 9 340 187 327 316 333 266 243 27 5 
396 11 86 449 41 136 137 190 74 117 189 96 450 
397 11 194 286 209 33 168 338 306 452 84 439 425 
398 9 433 67 266 381 62 333 90 354 362 
399 10 440 134 195 57 291 278 213 393 58 355 
400 8 159 267 165 47 82 352 331 89 
401 11 173 358 199 28 447 207 71 244 5 112 91 
402 9 420 434 392 123 116 18 386 456 11 
403 6 374 273 63 22 160 296 
404 5 258 417 242 15 289 
405 10 445 52 202 269 421 42 85 248 192 210 
406 11 64 210 77 145 287 31 290 42 225 301 232 
407 11 135 193 278 39 195 384 291 26 292 363 57 
408 8 326 65 378 413 442 4 303 448 
409 11 75 281 229 56 21 93 204 69 43 98 255 
410 9 172 319 205 111 335 334 13 96 293 
411 8 337 263 76 183 48 132 347 109 
412 7 179 362 90 62 310 78 128 
413 10 326 378 303 4 408 442 65 448 365 300 
414 11 299 294 164 25 198 336 14 115 66 428 256 
415 10 259 423 143 297 6 176 181 3 330 228 
416 11 203 30 200 221 87 106 347 83 183 127 147 
417 7 258 304 70 242 404 15 113 
418 4 72 315 40 321 
419 8 300 351 178 303 239 4 99 119 
420 8 434 402 123 392 116 139 18 386 
421 7 269 85 42 445 405 197 301 
422 8 444 382 180 14 115 156 184 201 
423 6 297 259 143 415 3 404 
424 8 154 365 442 378 239 4 303 413 
425 10 306 33 209 168 349 338 272 439 194 284 
426 11 305 7 360 162 186 343 342 79 254 435 177 
427 11 10 394 34 88 219 251 432 276 318 313 455 
428 8 152 66 227 368 25 164 299 414 
429 11 252 248 376 98 192 110 52 93 150 229 21 
430 8 185 23 314 298 359 312 223 158 
431 10 5 59 188 327 238 307 142 187 358 395 
432 11 88 34 394 357 427 251 166 12 10 32 276 
433 9 398 67 381 266 62 90 333 362 214 
434 8 420 402 123 392 116 139 18 386 
435 11 79 355 292 186 7 291 393 360 177 305 426 
436 10 234 147 87 127 200 320 203 106 30 416 
437 10 68 102 233 344 323 69 274 43 126 231 
438 9 243 316 27 340 167 361 364 333 395 
439 4 338 349 397 33 
440 10 399 134 195 57 443 58 213 380 278 291 
441 11 121 50 446 182 265 267 101 165 324 331 332 
442 11 378 365 4 413 303 326 408 424 154 239 65 
443 5 380 58 213 440 57 
444 8 180 422 382 184 156 201 14 158 
445 10 405 52 269 421 42 202 85 210 64 287 
446 11 182 441 50 121 267 120 165 101 331 265 400 
447 11 28 199 91 207 112 244 401 71 51 358 173 
448 10 65 326 413 146 303 235 178 408 4 300 
449 11 396 86 41 136 190 137 117 74 189 450 288 
450 11 100 130 190 47 117 282 82 136 137 94 189 
451 8 249 317 321 389 217 40 132 72 
452 8 84 286 397 194 29 275 209 338 
453 9 78 373 107 55 310 146 372 2 345 
454 11 385 309 158 23 201 83 184 156 223 312 180 
455 9 318 313 262 276 219 10 35 283 427 
456 11 346 11 95 54 391 169 386 392 53 9 222 
DEPOT_SECTION
   1
   -1
EOF
