NAME :  X-n627-kX-w62-c9.cctp
COMMENT : 	Adapted by Maziero, Usberti and Cavellucci from the Uchoa, Pecin, Pessoa, Poggi, Subramanian, and Vidal (2013)
TYPE :  CCTP
DIMENSION :    421
EDGE_WEIGHT_TYPE : 	EUC_2D	
CAPACITY : 	110
VERTICES_WITHIN_COVERAGE :  9
VERTICES_WITH_DEMAND : 	62
NODE_COORD_SECTION
1 0 0
2 816 981
3 349 338
4 22 205
5 385 344
6 913 54
7 410 410
8 108 298
9 280 512
10 335 312
11 155 336
12 64 98
13 64 184
14 874 922
15 513 345
16 516 316
17 403 276
18 407 310
19 161 312
20 931 13
21 371 380
22 460 357
23 455 345
24 796 940
25 811 111
26 360 338
27 932 60
28 803 989
29 882 959
30 2 58
31 740 917
32 939 22
33 53 202
34 360 409
35 802 863
36 326 268
37 565 473
38 828 21
39 311 537
40 868 36
41 2 246
42 243 431
43 58 191
44 756 985
45 900 104
46 281 633
47 42 237
48 771 961
49 290 453
50 289 346
51 27 123
52 16 181
53 960 960
54 457 383
55 759 856
56 10 179
57 62 165
58 297 197
59 2 151
60 491 292
61 124 102
62 536 441
63 374 246
64 778 976
65 854 959
66 740 836
67 26 238
68 935 116
69 255 411
70 313 340
71 91 159
72 369 362
73 341 352
74 366 242
75 832 961
76 443 397
77 866 933
78 644 495
79 59 233
80 890 960
81 73 84
82 467 337
83 657 858
84 394 290
85 273 161
86 354 274
87 421 275
88 476 325
89 320 282
90 768 854
91 941 48
92 432 303
93 834 982
94 814 93
95 930 930
96 562 465
97 25 204
98 260 351
99 957 1
100 837 881
101 921 27
102 781 931
103 308 258
104 354 393
105 879 40
106 272 230
107 361 273
108 392 255
109 53 201
110 330 293
111 353 383
112 603 555
113 134 280
114 865 985
115 110 159
116 355 341
117 26 137
118 801 157
119 369 319
120 749 958
121 298 337
122 799 21
123 430 307
124 273 556
125 805 824
126 906 80
127 513 397
128 350 280
129 954 4
130 926 68
131 407 307
132 5 137
133 793 990
134 26 198
135 34 187
136 134 405
137 371 329
138 44 181
139 918 112
140 916 33
141 789 126
142 391 378
143 760 921
144 120 308
145 86 28
146 63 146
147 258 514
148 677 899
149 881 94
150 724 977
151 405 288
152 461 318
153 311 501
154 574 343
155 943 0
156 690 419
157 309 266
158 836 977
159 22 201
160 543 274
161 348 311
162 267 320
163 53 262
164 215 420
165 648 516
166 111 262
167 366 374
168 355 614
169 890 41
170 97 418
171 125 26
172 419 399
173 239 411
174 842 116
175 496 310
176 140 371
177 502 399
178 811 953
179 374 380
180 809 959
181 285 434
182 47 224
183 858 950
184 8 298
185 380 340
186 977 994
187 400 343
188 375 245
189 882 1
190 819 990
191 2 162
192 13 130
193 44 243
194 372 329
195 382 359
196 407 321
197 27 222
198 406 421
199 122 147
200 850 64
201 31 228
202 591 348
203 306 365
204 410 335
205 103 110
206 207 95
207 838 999
208 19 168
209 75 177
210 996 984
211 924 883
212 337 321
213 828 893
214 935 73
215 343 300
216 388 223
217 829 993
218 953 97
219 498 325
220 485 428
221 322 244
222 52 206
223 342 397
224 826 808
225 318 307
226 302 337
227 50 202
228 536 328
229 895 57
230 360 244
231 652 883
232 49 173
233 118 114
234 189 460
235 313 138
236 299 252
237 998 981
238 402 396
239 895 90
240 780 109
241 476 361
242 348 349
243 35 140
244 784 14
245 71 185
246 633 953
247 124 396
248 396 304
249 32 168
250 677 971
251 529 293
252 46 150
253 351 250
254 288 195
255 897 61
256 85 90
257 272 364
258 385 398
259 909 58
260 777 868
261 515 327
262 798 946
263 722 954
264 863 67
265 429 362
266 347 427
267 813 906
268 963 76
269 305 467
270 136 630
271 351 404
272 823 36
273 441 411
274 445 649
275 347 348
276 323 299
277 419 416
278 398 349
279 70 197
280 96 330
281 392 351
282 26 151
283 346 321
284 848 43
285 874 98
286 213 413
287 385 360
288 309 171
289 865 920
290 405 304
291 766 965
292 850 830
293 952 43
294 47 217
295 270 427
296 779 916
297 331 528
298 487 494
299 3 275
300 0 105
301 884 90
302 868 958
303 389 384
304 94 142
305 46 121
306 318 448
307 403 257
308 6 148
309 781 928
310 768 997
311 561 419
312 280 374
313 787 222
314 353 232
315 953 32
316 895 967
317 424 409
318 344 276
319 700 832
320 877 107
321 283 201
322 766 889
323 810 943
324 398 280
325 834 128
326 358 396
327 815 72
328 395 280
329 784 936
330 328 253
331 787 920
332 379 331
333 53 234
334 956 44
335 195 21
336 227 387
337 794 979
338 884 38
339 902 49
340 893 98
341 189 50
342 878 892
343 344 428
344 386 307
345 29 101
346 376 335
347 361 337
348 931 30
349 792 925
350 393 357
351 256 360
352 136 317
353 525 338
354 883 917
355 488 237
356 712 837
357 384 238
358 926 69
359 431 283
360 378 355
361 24 200
362 387 230
363 718 776
364 685 118
365 862 957
366 812 961
367 50 182
368 748 837
369 356 228
370 272 370
371 329 300
372 491 312
373 868 921
374 415 429
375 322 188
376 28 250
377 141 6
378 95 42
379 872 967
380 551 270
381 432 301
382 776 954
383 291 587
384 407 322
385 396 397
386 748 95
387 299 475
388 890 96
389 376 371
390 71 182
391 416 322
392 389 357
393 363 340
394 29 117
395 820 993
396 819 22
397 900 36
398 11 250
399 460 406
400 944 25
401 577 500
402 900 107
403 34 159
404 944 17
405 399 309
406 88 63
407 790 931
408 859 799
409 889 46
410 946 41
411 747 992
412 651 874
413 317 336
414 668 404
415 354 332
416 547 464
417 909 137
418 467 326
419 22 204
420 272 446
421 157 302
DEMAND_SECTION
2 5
3 8
4 8
5 7
6 5
7 9
8 5
9 5
10 9
11 9
12 7
13 5
14 10
15 8
16 10
17 5
18 5
19 8
20 7
21 10
22 9
23 9
24 8
25 6
26 9
27 7
28 10
29 6
30 9
31 9
32 10
33 7
34 7
35 6
36 7
37 6
38 5
39 9
40 7
41 6
42 7
43 7
44 9
45 7
46 6
47 6
48 6
49 6
50 9
51 7
52 6
53 7
54 6
55 5
56 10
57 5
58 8
59 8
60 5
61 5
62 9
63 10
COVERAGE_SECTION
2 9 190 395 28 93 217 158 366 337 180 
3 8 116 415 275 26 242 347 393 73 
4 9 419 97 159 361 134 197 135 52 201 
5 9 185 281 346 360 278 332 392 187 195 
6 9 259 339 255 229 130 27 358 140 397 
7 7 277 198 172 317 238 385 374 
8 7 144 113 280 352 166 421 19 
9 8 147 153 39 387 124 269 297 49 
10 9 212 161 371 215 283 225 276 110 415 
11 8 19 352 421 176 144 280 8 113 
12 9 81 256 305 345 394 205 406 51 146 
13 9 245 390 43 209 279 367 57 232 109 
14 8 373 289 354 77 342 183 302 365 
15 9 353 261 219 16 228 175 241 372 88 
16 9 261 219 175 228 353 372 251 15 60 
17 8 324 328 151 84 87 307 108 290 
18 9 131 290 405 196 384 248 391 344 151 
19 7 421 11 352 144 113 8 176 
20 9 32 404 101 348 155 400 129 140 99 
21 8 179 167 389 72 111 303 142 104 
22 8 23 241 82 54 265 418 88 152 
23 7 22 82 418 241 152 88 265 
24 9 262 407 329 323 349 102 309 178 331 
25 7 94 141 325 174 240 327 118 
26 9 347 393 116 415 3 137 194 242 275 
27 9 130 358 214 91 6 259 410 293 334 
28 9 133 337 2 190 395 217 64 366 180 
29 8 80 379 302 316 365 183 65 77 
30 9 300 345 394 51 192 12 81 305 132 
31 9 143 322 296 263 120 309 102 331 329 
32 9 400 404 348 20 315 101 410 155 129 
33 9 109 227 222 43 294 279 367 13 138 
34 8 271 326 104 223 266 343 111 258 
35 9 260 90 100 125 213 55 267 322 292 
36 9 89 330 157 318 103 221 110 128 86 
37 9 96 416 401 62 311 298 78 112 127 
38 9 396 272 122 284 40 244 200 327 105 
39 8 297 153 9 124 383 147 387 269 
40 8 105 338 284 169 409 264 397 200 
41 8 398 67 376 299 201 197 47 193 
42 8 173 69 295 164 420 286 181 336 
43 9 13 109 33 367 279 227 245 222 390 
44 9 411 310 291 64 48 120 150 133 382 
45 9 402 340 388 239 139 149 301 320 126 
46 9 383 168 124 39 297 9 147 153 270 
47 9 193 333 182 201 67 79 376 197 294 
48 9 291 382 64 120 44 329 337 262 102 
49 6 420 181 269 387 306 295 
50 9 121 226 70 203 257 98 312 370 413 
51 9 394 117 192 243 305 345 132 282 300 
52 9 56 208 135 134 159 249 361 191 419 
53 9 186 95 210 237 316 80 29 211 354 
54 6 76 399 22 241 273 265 
55 9 90 260 368 66 322 35 356 125 296 
56 9 52 208 191 134 135 159 249 361 419 
57 9 232 209 13 146 390 367 245 252 138 
58 6 254 321 375 288 106 85 
59 9 308 191 132 192 208 282 117 56 52 
60 9 175 372 219 16 88 251 152 261 418 
61 9 233 205 256 199 304 406 81 115 12 
62 9 416 311 96 37 127 220 177 298 401 
63 8 188 74 357 230 108 362 253 314 
64 9 291 337 48 133 382 310 44 28 120 
65 7 365 183 302 379 75 158 29 
66 9 368 55 356 90 319 260 322 363 125 
67 9 201 376 47 197 193 398 41 182 333 
68 6 139 218 417 402 45 214 
69 7 173 295 42 336 181 420 164 
70 6 413 226 121 50 203 73 
71 9 304 115 209 57 390 146 199 245 13 
72 6 360 389 167 195 287 21 
73 3 275 242 3 
74 9 230 63 188 314 253 369 357 362 108 
75 7 158 366 93 65 178 180 2 
76 6 273 399 54 317 172 277 
77 7 373 289 14 183 354 365 302 
78 9 165 401 112 37 96 156 414 416 311 
79 5 333 182 47 193 294 
80 9 29 316 379 302 365 183 114 65 77 
81 9 256 12 406 205 305 345 378 61 233 
82 8 418 23 88 152 22 241 219 372 
83 9 412 231 148 319 356 66 368 246 31 
84 7 328 151 324 248 17 290 344 
85 6 254 288 321 58 235 375 
86 8 107 128 318 253 215 36 110 230 
87 7 359 17 151 324 307 328 381 
88 9 418 82 152 372 219 175 23 22 60 
89 5 36 110 276 157 371 
90 9 55 260 368 66 35 322 125 356 296 
91 8 410 293 27 334 315 348 400 130 
92 6 381 123 359 131 391 18 
93 8 158 217 190 207 2 395 75 65 
94 7 25 327 174 240 325 141 200 
95 9 53 211 354 80 316 29 14 373 77 
96 9 37 416 62 401 311 298 127 220 78 
97 9 4 419 159 361 134 197 135 52 201 
98 5 351 257 370 50 312 
99 8 129 155 404 400 32 20 315 348 
100 7 213 267 35 342 289 373 292 
101 8 140 348 20 32 397 400 404 6 
102 9 309 329 407 331 349 296 24 143 262 
103 6 157 236 221 36 330 89 
104 7 326 111 271 223 34 21 167 
105 8 338 169 40 409 397 229 339 255 
106 6 321 236 254 58 103 157 
107 7 86 128 318 253 230 63 74 
108 6 307 357 63 188 17 328 
109 9 33 227 222 43 279 294 367 13 138 
110 8 371 276 89 215 225 10 318 128 
111 4 104 326 167 21 
112 7 165 401 78 37 96 416 298 
113 7 166 144 8 421 352 19 11 
114 7 379 302 65 365 158 207 29 
115 8 199 71 304 209 390 233 245 57 
116 7 26 3 347 393 415 242 275 
117 9 243 51 282 192 394 132 308 403 252 
118 7 141 325 25 240 174 94 313 
119 7 137 194 332 346 347 415 26 
120 9 291 48 263 382 44 150 64 411 143 
121 6 226 50 70 413 203 162 
122 9 244 396 272 38 327 284 200 40 94 
123 6 92 381 391 18 131 359 
124 9 383 39 9 147 297 153 46 387 269 
125 9 224 35 292 90 260 55 368 408 100 
126 9 239 255 259 340 130 358 388 301 45 
127 9 177 220 62 15 241 311 399 54 353 
128 8 86 318 107 215 110 36 371 89 
129 8 99 155 404 32 400 20 315 348 
130 9 358 27 214 6 259 126 91 255 339 
131 9 18 290 405 248 196 384 391 151 84 
132 9 192 308 59 117 191 282 51 243 394 
133 9 28 337 64 2 190 310 395 180 366 
134 9 361 159 97 419 4 135 52 197 227 
135 9 138 134 361 367 159 52 97 249 232 
136 8 247 176 170 11 234 286 164 280 
137 8 194 332 346 119 347 26 185 393 
138 9 367 232 135 43 249 13 109 227 33 
139 7 68 402 45 417 340 239 388 
140 8 101 348 397 6 339 20 32 259 
141 8 240 25 118 94 325 386 174 327 
142 5 303 179 389 287 21 
143 9 31 296 309 102 331 329 349 407 322 
144 8 8 352 113 280 421 19 11 166 
145 9 378 406 171 81 377 256 12 61 205 
146 9 252 57 243 232 305 71 304 403 209 
147 9 9 124 153 387 39 269 49 420 297 
148 9 231 412 83 31 246 263 319 356 250 
149 8 301 285 388 340 320 239 45 402 
150 9 263 411 120 44 291 250 310 48 64 
151 9 84 324 17 328 290 248 131 87 18 
152 6 418 88 82 23 372 92 
153 7 387 9 297 269 39 49 306 
154 9 202 228 353 15 261 16 251 160 311 
155 9 129 99 404 20 32 400 348 315 101 
156 7 414 78 165 202 311 37 96 
157 6 103 36 236 89 330 221 
158 8 93 75 217 2 190 207 395 65 
159 9 361 419 4 97 134 135 52 197 56 
160 8 380 251 16 228 60 175 261 372 
161 8 283 215 10 212 119 371 415 110 
162 3 98 50 121 
163 2 193 47 
164 8 286 173 42 336 69 234 295 420 
165 9 78 112 401 37 96 156 414 416 311 
166 2 113 8 
167 5 21 179 389 72 111 
168 7 383 46 39 297 274 124 153 
169 8 409 338 105 397 339 229 255 40 
170 6 247 136 176 280 11 234 
171 9 377 378 145 406 341 335 256 61 81 
172 5 317 7 238 277 385 
173 8 69 42 164 286 336 295 420 181 
174 3 325 25 94 
175 9 372 219 60 16 88 261 418 152 251 
176 9 247 136 11 352 280 19 170 144 421 
177 9 127 220 399 241 54 62 15 22 76 
178 8 180 366 323 262 24 75 2 407 
179 8 21 389 167 303 142 72 111 258 
180 8 366 178 323 262 2 24 75 337 
181 5 295 420 49 306 69 
182 9 294 333 47 79 201 193 222 197 227 
183 6 365 65 302 77 379 29 
184 4 299 398 41 376 
185 9 5 346 332 137 194 360 281 393 195 
186 9 210 237 53 95 316 80 29 379 114 
187 9 278 281 204 5 350 392 185 384 196 
188 7 63 74 357 230 362 108 253 
189 8 338 40 105 397 169 409 101 140 
190 8 395 2 217 28 93 158 207 133 
191 9 59 308 208 56 52 132 282 249 403 
192 9 132 117 51 308 394 59 243 282 300 
193 8 47 333 376 79 67 182 201 163 
194 8 137 332 346 119 185 347 393 26 
195 9 287 360 392 350 72 281 389 5 185 
196 8 384 391 18 131 204 405 290 248 
197 9 201 67 4 97 419 182 47 294 159 
198 8 7 374 277 317 238 172 385 258 
199 8 115 304 71 233 205 61 209 146 
200 7 264 284 40 327 105 272 285 
201 9 197 67 47 182 294 193 376 333 4 
202 8 154 228 353 311 15 261 16 251 
203 2 50 70 
204 7 187 384 196 391 278 281 18 
205 9 233 61 256 304 81 12 199 115 406 
206 4 341 335 61 233 
207 7 217 93 395 190 158 2 114 
208 9 52 249 56 403 191 282 59 135 308 
209 9 390 245 13 57 279 43 71 367 232 
210 9 237 186 53 95 316 80 29 211 379 
211 7 95 342 354 14 373 289 77 
212 9 10 283 161 415 3 215 371 225 413 
213 8 100 267 35 289 349 331 373 342 
214 9 130 358 27 91 268 6 126 218 259 
215 8 161 10 371 110 276 128 283 212 
216 4 362 357 188 63 
217 8 395 190 207 93 158 2 28 75 
218 7 268 68 214 139 358 130 27 
219 9 175 372 261 16 88 15 353 418 82 
220 7 399 177 127 273 76 54 62 
221 9 330 103 36 236 157 253 314 89 230 
222 9 33 227 109 294 43 182 279 367 13 
223 5 271 104 326 111 34 
224 7 125 292 408 35 90 100 260 
225 6 276 371 10 110 212 89 
226 6 121 70 413 50 203 225 
227 9 33 109 222 43 294 367 279 135 138 
228 9 353 261 16 15 251 219 154 175 372 
229 9 255 339 409 259 169 6 338 397 105 
230 9 74 253 63 314 188 369 357 107 362 
231 9 412 83 148 319 246 356 250 31 66 
232 9 138 367 57 249 13 43 135 403 252 
233 9 61 205 199 304 256 115 71 81 12 
234 9 164 286 42 173 136 69 336 420 295 
235 5 288 85 375 58 254 
236 5 103 157 221 330 36 
237 9 210 186 53 95 316 80 29 211 379 
238 5 385 7 172 258 303 
239 9 340 388 301 45 126 149 402 285 320 
240 8 141 25 386 94 327 118 325 174 
241 9 22 23 82 54 88 418 15 219 152 
242 5 275 73 3 116 26 
243 9 117 282 252 51 403 305 192 394 249 
244 9 122 396 38 272 327 284 200 94 40 
245 9 390 13 209 279 43 367 57 109 33 
246 9 250 148 231 412 263 150 83 31 120 
247 7 136 176 170 11 280 352 144 
248 8 405 290 344 131 18 84 151 196 
249 9 403 208 138 232 282 135 52 252 367 
250 9 150 246 263 148 120 411 44 31 291 
251 9 160 16 380 228 175 261 60 372 219 
252 9 243 403 146 282 57 232 249 117 305 
253 9 230 74 314 63 330 369 86 107 188 
254 6 321 58 288 375 85 106 
255 9 229 259 339 6 409 126 169 397 338 
256 9 81 12 205 406 61 233 378 305 304 
257 6 370 312 351 98 50 203 
258 7 385 303 238 142 179 21 34 
259 9 6 339 255 229 130 358 126 27 409 
260 9 90 55 322 35 368 296 66 125 267 
261 9 16 353 219 15 228 175 372 251 88 
262 9 24 323 178 180 329 407 366 349 102 
263 9 150 120 31 291 411 44 250 48 143 
264 8 200 284 40 105 301 149 285 409 
265 1 22 
266 4 343 34 271 223 
267 8 213 349 331 407 100 296 323 24 
268 6 218 214 334 27 293 91 
269 4 387 49 306 153 
270 7 46 124 383 147 234 9 39 
271 7 34 104 223 326 111 266 343 
272 9 396 38 284 122 327 200 40 244 264 
273 8 76 317 399 277 172 7 54 374 
274 3 168 298 46 
275 5 242 73 3 116 26 
276 6 371 110 225 89 10 215 
277 8 317 7 198 374 172 273 238 385 
278 8 187 281 350 392 5 287 204 195 
279 9 245 43 13 390 109 33 222 209 227 
280 6 144 8 352 11 176 113 
281 9 278 350 392 5 187 287 195 360 185 
282 9 403 117 243 208 249 252 308 59 132 
283 9 212 161 10 415 3 215 26 116 347 
284 9 40 200 272 264 38 105 338 396 409 
285 7 149 320 301 388 340 239 45 
286 7 164 173 336 42 69 234 295 
287 9 195 392 350 360 281 389 5 72 278 
288 6 375 58 254 235 85 321 
289 7 373 14 77 354 183 342 365 
290 9 131 18 405 248 151 196 84 384 344 
291 9 48 382 64 120 44 337 310 411 329 
292 7 408 224 125 100 35 213 342 
293 8 334 410 315 91 400 32 348 27 
294 9 182 222 227 33 109 333 201 79 47 
295 6 181 420 69 42 49 173 
296 9 331 309 102 349 407 143 329 24 322 
297 6 39 153 9 387 124 269 
298 3 220 416 62 
299 5 184 398 41 376 67 
300 9 192 345 394 51 132 117 308 59 30 
301 9 149 388 239 340 285 320 45 402 126 
302 8 365 379 183 29 65 80 77 114 
303 6 142 258 385 179 21 238 
304 9 71 115 199 146 205 233 57 209 390 
305 9 394 51 243 117 345 12 252 146 192 
306 2 269 49 
307 5 108 17 324 328 87 
308 9 59 132 191 192 282 117 208 243 403 
309 9 102 329 407 331 349 296 24 143 262 
310 9 44 411 64 133 291 337 28 48 120 
311 9 62 96 416 127 37 177 154 202 220 
312 6 370 257 203 351 50 98 
313 6 118 141 325 240 25 174 
314 7 369 230 74 253 63 188 357 
315 8 293 400 410 334 32 404 91 348 
316 8 80 29 379 302 365 114 183 65 
317 8 277 172 7 273 76 198 374 238 
318 8 128 86 107 36 110 215 89 253 
319 9 356 66 368 83 363 55 412 231 90 
320 7 285 149 388 301 340 45 402 
321 7 254 58 106 288 85 375 236 
322 9 260 296 143 55 90 331 31 309 35 
323 8 178 262 24 180 366 407 349 329 
324 8 328 17 84 151 87 248 307 290 
325 4 174 25 94 118 
326 7 104 271 34 111 223 21 167 
327 7 94 200 272 25 284 264 396 
328 8 324 17 84 151 248 307 108 87 
329 9 102 407 309 24 349 331 262 382 296 
330 9 221 36 103 157 253 318 236 89 86 
331 9 349 296 309 407 102 329 24 143 262 
332 8 346 194 137 185 5 119 393 347 
333 5 79 47 182 193 294 
334 6 293 410 315 91 400 32 
335 7 341 377 171 206 378 61 145 
336 7 173 286 164 69 351 42 370 
337 9 133 28 64 2 180 366 190 48 395 
338 8 105 169 409 40 397 339 229 255 
339 9 229 259 6 255 397 409 169 140 338 
340 9 388 239 45 402 301 149 320 285 126 
341 8 335 206 377 171 61 378 233 406 
342 8 354 14 289 373 100 77 211 213 
343 3 266 34 271 
344 5 248 405 84 290 18 
345 9 394 51 305 300 192 12 117 243 132 
346 8 332 185 194 137 5 393 347 26 
347 8 26 393 116 415 3 137 194 346 
348 9 101 32 400 140 20 404 410 91 315 
349 9 407 331 309 102 329 24 296 262 323 
350 8 392 281 278 287 195 5 360 187 
351 5 98 257 370 312 50 
352 9 144 19 421 11 8 113 280 176 166 
353 9 15 228 261 16 219 175 372 251 154 
354 9 14 373 289 77 342 183 29 80 302 
355 1 60 
356 9 319 66 368 55 83 90 363 148 412 
357 6 362 188 63 216 74 108 
358 9 130 214 27 6 259 126 91 255 339 
359 6 87 381 92 123 151 17 
360 9 195 287 72 392 5 185 281 350 389 
361 9 159 134 97 419 4 135 52 197 56 
362 4 216 357 188 63 
363 8 319 356 66 368 55 90 125 83 
364 5 386 240 141 118 25 
365 8 302 65 183 379 29 77 80 114 
366 8 180 178 323 2 75 262 337 24 
367 9 138 232 43 13 135 109 33 227 57 
368 9 66 55 90 356 260 319 322 125 35 
369 6 314 230 74 253 63 188 
370 6 257 312 351 98 50 203 
371 8 276 110 10 225 215 89 161 212 
372 9 175 219 60 88 16 261 418 152 82 
373 8 289 14 77 354 183 342 365 302 
374 6 198 277 7 317 172 273 
375 4 288 58 254 321 
376 8 67 193 398 47 201 41 163 197 
377 9 171 335 378 145 341 406 61 256 81 
378 9 145 406 171 81 256 377 12 61 205 
379 8 302 29 365 80 114 65 183 316 
380 8 160 251 16 228 60 261 175 355 
381 6 92 123 359 131 391 18 
382 9 48 291 329 64 262 24 102 309 120 
383 9 124 46 39 168 297 9 147 153 387 
384 9 196 391 18 204 131 405 290 248 187 
385 5 238 258 303 7 142 
386 8 240 141 25 94 364 327 118 244 
387 6 269 49 153 306 420 9 
388 9 340 239 301 149 45 402 285 320 126 
389 9 179 21 167 72 195 287 360 142 303 
390 9 245 209 13 279 43 57 367 232 109 
391 8 196 384 204 18 131 123 290 405 
392 9 350 287 195 281 360 278 5 187 185 
393 8 26 347 116 415 3 137 194 346 
394 9 51 345 305 117 192 243 132 300 282 
395 8 190 217 2 28 93 207 158 133 
396 9 38 272 122 244 284 327 40 200 105 
397 8 169 339 409 140 338 105 6 229 
398 8 41 376 67 299 201 197 47 193 
399 8 76 273 54 220 317 172 277 177 
400 9 32 404 315 348 410 20 293 334 91 
401 9 37 96 416 112 78 62 165 311 298 
402 8 45 340 388 239 139 149 301 320 
403 9 249 282 252 208 243 232 117 138 52 
404 9 32 400 20 129 155 315 348 99 410 
405 8 248 18 131 290 344 196 384 84 
406 9 378 81 256 145 12 205 171 61 233 
407 9 349 329 102 309 24 331 262 296 323 
408 6 292 224 125 100 35 342 
409 9 169 338 105 229 339 397 255 40 259 
410 8 293 91 334 315 400 348 32 27 
411 9 44 310 150 291 120 64 48 263 133 
412 9 231 83 148 319 356 246 66 31 250 
413 8 70 226 121 212 73 225 10 50 
414 8 156 78 202 311 154 165 96 37 
415 9 3 26 116 347 393 283 137 275 194 
416 9 96 37 62 311 401 298 220 127 177 
417 4 139 402 68 45 
418 8 88 152 82 23 372 219 22 175 
419 9 4 97 159 361 134 197 135 52 201 
420 7 181 49 295 42 69 269 387 
421 8 19 352 113 11 144 8 166 280 
DEPOT_SECTION
   1
   -1
EOF
