NAME :  X-n613-kX-w244-c7.cctp
COMMENT : 	Adapted by Maziero, Usberti and Cavellucci from the Uchoa, Pecin, Pessoa, Poggi, Subramanian, and Vidal (2013)
TYPE :  CCTP
DIMENSION :    607
EDGE_WEIGHT_TYPE : 	EUC_2D	
CAPACITY : 	523
VERTICES_WITHIN_COVERAGE :  7
VERTICES_WITH_DEMAND : 	244
NODE_COORD_SECTION
1 500 500
2 550 574
3 177 24
4 448 476
5 934 619
6 323 122
7 430 76
8 364 9
9 988 994
10 91 636
11 926 977
12 2 579
13 326 342
14 455 822
15 48 74
16 814 334
17 997 22
18 838 899
19 634 360
20 324 191
21 750 283
22 996 106
23 473 967
24 642 334
25 539 764
26 510 194
27 807 664
28 949 710
29 21 994
30 293 934
31 832 366
32 8 531
33 56 893
34 82 605
35 197 626
36 661 777
37 207 272
38 945 510
39 505 137
40 325 693
41 240 335
42 776 462
43 810 235
44 496 288
45 624 171
46 799 293
47 120 393
48 250 839
49 31 266
50 64 349
51 898 729
52 740 387
53 838 992
54 952 991
55 558 497
56 695 240
57 622 113
58 670 95
59 967 595
60 926 470
61 665 284
62 753 558
63 946 61
64 820 415
65 453 551
66 565 786
67 768 573
68 841 180
69 172 849
70 799 203
71 663 950
72 33 134
73 215 505
74 973 751
75 308 651
76 519 412
77 677 737
78 937 383
79 338 276
80 997 416
81 852 151
82 366 573
83 839 66
84 245 311
85 743 248
86 265 806
87 851 403
88 621 530
89 553 917
90 467 83
91 866 308
92 556 270
93 189 936
94 131 426
95 329 945
96 64 997
97 761 475
98 248 366
99 141 114
100 235 937
101 80 598
102 133 453
103 153 763
104 739 585
105 165 754
106 933 751
107 670 474
108 319 201
109 734 286
110 118 342
111 951 973
112 303 313
113 709 929
114 993 822
115 707 624
116 92 212
117 716 302
118 184 802
119 601 936
120 668 454
121 583 424
122 151 409
123 754 53
124 89 361
125 843 196
126 679 788
127 233 266
128 994 524
129 229 917
130 381 596
131 566 501
132 96 294
133 180 770
134 199 508
135 226 827
136 691 293
137 338 332
138 905 714
139 146 954
140 148 907
141 46 71
142 594 419
143 209 732
144 419 783
145 852 847
146 194 344
147 751 651
148 530 340
149 6 405
150 961 227
151 60 343
152 87 261
153 962 886
154 974 321
155 882 81
156 777 993
157 877 318
158 645 892
159 909 276
160 859 247
161 109 124
162 214 725
163 292 982
164 674 506
165 724 614
166 247 618
167 133 392
168 140 512
169 986 490
170 139 888
171 988 341
172 255 776
173 864 343
174 614 864
175 363 805
176 594 73
177 531 156
178 221 392
179 221 398
180 809 947
181 864 805
182 843 335
183 477 878
184 129 202
185 940 551
186 183 69
187 498 641
188 867 413
189 540 551
190 281 990
191 604 224
192 907 417
193 650 349
194 998 2
195 570 808
196 216 820
197 959 382
198 527 34
199 123 708
200 337 488
201 355 476
202 887 524
203 443 886
204 892 60
205 436 349
206 427 927
207 663 441
208 78 435
209 997 108
210 324 213
211 369 115
212 177 280
213 539 753
214 81 372
215 102 788
216 43 527
217 765 671
218 31 906
219 854 983
220 610 874
221 83 143
222 835 330
223 570 361
224 390 283
225 102 840
226 982 681
227 650 227
228 975 485
229 135 322
230 287 6
231 446 24
232 530 474
233 700 542
234 397 872
235 763 838
236 305 9
237 12 340
238 285 858
239 358 892
240 123 118
241 498 952
242 752 59
243 444 51
244 888 591
245 281 498
246 927 591
247 185 324
248 79 486
249 690 495
250 767 78
251 199 357
252 257 625
253 757 346
254 559 164
255 56 937
256 559 96
257 716 848
258 415 7
259 782 493
260 198 754
261 506 686
262 780 784
263 351 593
264 972 719
265 267 937
266 921 181
267 196 447
268 748 875
269 845 567
270 437 907
271 699 405
272 978 373
273 286 936
274 755 180
275 696 458
276 188 130
277 341 291
278 628 240
279 977 737
280 487 328
281 963 272
282 640 838
283 784 13
284 57 916
285 810 409
286 701 741
287 314 201
288 661 104
289 740 622
290 550 234
291 215 853
292 138 876
293 318 722
294 253 617
295 90 662
296 909 472
297 308 910
298 994 964
299 468 904
300 181 279
301 132 324
302 935 232
303 891 448
304 610 312
305 582 826
306 373 584
307 330 146
308 968 383
309 436 570
310 725 274
311 517 304
312 835 254
313 901 434
314 858 202
315 261 997
316 493 583
317 512 311
318 592 403
319 949 560
320 426 413
321 634 611
322 200 557
323 44 99
324 823 681
325 958 756
326 913 482
327 594 984
328 73 713
329 4 687
330 406 637
331 717 349
332 273 727
333 622 359
334 316 622
335 114 595
336 720 330
337 485 245
338 728 679
339 563 890
340 412 21
341 600 831
342 682 188
343 419 665
344 555 691
345 799 117
346 671 173
347 117 117
348 55 117
349 242 124
350 139 795
351 670 711
352 22 470
353 919 386
354 988 857
355 166 675
356 269 813
357 144 450
358 66 302
359 275 504
360 812 595
361 65 382
362 683 718
363 744 458
364 370 159
365 155 263
366 93 827
367 897 63
368 866 240
369 714 689
370 9 995
371 136 611
372 925 459
373 371 271
374 97 729
375 443 659
376 374 831
377 585 137
378 473 176
379 878 528
380 748 261
381 141 431
382 208 624
383 76 809
384 780 44
385 653 811
386 827 0
387 754 854
388 909 367
389 62 951
390 805 374
391 204 284
392 774 806
393 139 39
394 73 455
395 800 483
396 722 828
397 983 285
398 516 93
399 489 103
400 297 291
401 517 407
402 468 780
403 300 560
404 754 944
405 999 143
406 220 145
407 840 536
408 542 926
409 509 745
410 515 461
411 791 479
412 821 266
413 459 481
414 47 141
415 417 102
416 950 385
417 87 135
418 967 239
419 57 886
420 991 595
421 962 506
422 375 948
423 631 572
424 210 596
425 476 910
426 829 100
427 133 673
428 578 982
429 353 675
430 834 675
431 141 964
432 266 734
433 146 650
434 353 284
435 305 987
436 150 727
437 733 696
438 301 687
439 858 548
440 308 224
441 821 189
442 45 279
443 108 220
444 523 381
445 446 524
446 907 598
447 943 843
448 473 609
449 659 823
450 326 19
451 92 368
452 29 271
453 804 619
454 369 215
455 325 240
456 197 903
457 996 278
458 189 871
459 519 684
460 297 819
461 102 896
462 20 818
463 850 667
464 916 759
465 401 140
466 364 57
467 823 178
468 590 605
469 749 943
470 924 977
471 770 720
472 315 879
473 78 1
474 105 857
475 352 810
476 36 243
477 903 279
478 521 366
479 58 482
480 153 0
481 812 506
482 481 68
483 705 785
484 16 596
485 974 675
486 503 914
487 937 284
488 431 112
489 636 548
490 728 560
491 156 777
492 623 149
493 811 794
494 879 709
495 404 453
496 838 272
497 646 185
498 520 843
499 337 149
500 761 972
501 637 433
502 607 588
503 575 511
504 952 72
505 818 942
506 427 589
507 688 326
508 547 662
509 423 507
510 93 4
511 699 23
512 762 595
513 389 815
514 48 7
515 586 171
516 391 990
517 860 942
518 562 289
519 779 980
520 305 733
521 676 855
522 231 555
523 661 798
524 954 975
525 888 912
526 483 24
527 69 618
528 866 631
529 244 362
530 72 937
531 793 569
532 145 885
533 582 43
534 73 425
535 979 684
536 911 888
537 921 111
538 108 98
539 126 241
540 737 414
541 830 426
542 546 141
543 429 536
544 741 233
545 373 286
546 989 248
547 305 814
548 690 548
549 449 506
550 491 754
551 252 82
552 52 449
553 278 918
554 61 132
555 344 620
556 500 421
557 913 865
558 161 501
559 734 467
560 410 836
561 205 115
562 152 932
563 360 459
564 945 335
565 61 872
566 408 85
567 633 945
568 83 627
569 550 809
570 890 266
571 711 338
572 515 998
573 946 604
574 61 580
575 785 575
576 931 871
577 474 76
578 967 395
579 243 984
580 849 185
581 817 685
582 728 848
583 182 780
584 119 898
585 607 31
586 43 337
587 900 572
588 417 480
589 931 355
590 693 31
591 394 858
592 749 418
593 827 37
594 30 362
595 870 528
596 945 714
597 789 100
598 492 526
599 234 361
600 165 386
601 262 707
602 87 989
603 597 528
604 401 969
605 146 661
606 910 977
607 771 90
DEMAND_SECTION
2 97
3 2
4 30
5 91
6 63
7 99
8 78
9 50
10 2
11 58
12 1
13 3
14 99
15 28
16 32
17 10
18 1
19 75
20 55
21 75
22 31
23 38
24 34
25 62
26 25
27 12
28 63
29 43
30 100
31 58
32 45
33 68
34 38
35 31
36 91
37 59
38 4
39 43
40 48
41 31
42 84
43 43
44 51
45 37
46 48
47 26
48 97
49 39
50 42
51 64
52 50
53 5
54 98
55 66
56 65
57 24
58 74
59 59
60 40
61 57
62 23
63 98
64 95
65 3
66 74
67 96
68 70
69 99
70 54
71 84
72 53
73 35
74 19
75 93
76 32
77 2
78 27
79 63
80 71
81 65
82 19
83 72
84 14
85 52
86 38
87 99
88 6
89 80
90 66
91 4
92 50
93 98
94 89
95 35
96 82
97 55
98 85
99 63
100 70
101 1
102 41
103 38
104 44
105 3
106 86
107 74
108 47
109 91
110 62
111 53
112 8
113 28
114 9
115 64
116 50
117 8
118 79
119 53
120 11
121 71
122 78
123 11
124 96
125 56
126 26
127 83
128 57
129 64
130 49
131 96
132 93
133 57
134 94
135 20
136 75
137 77
138 63
139 50
140 99
141 93
142 83
143 14
144 61
145 69
146 91
147 5
148 62
149 61
150 51
151 42
152 32
153 38
154 89
155 48
156 80
157 24
158 62
159 59
160 75
161 72
162 44
163 62
164 44
165 56
166 40
167 46
168 100
169 96
170 28
171 88
172 91
173 98
174 17
175 60
176 82
177 28
178 43
179 63
180 53
181 4
182 79
183 84
184 23
185 20
186 77
187 78
188 7
189 91
190 25
191 79
192 89
193 18
194 48
195 27
196 25
197 90
198 9
199 32
200 70
201 2
202 58
203 53
204 27
205 99
206 92
207 6
208 26
209 46
210 43
211 1
212 25
213 26
214 94
215 92
216 36
217 60
218 19
219 69
220 78
221 47
222 44
223 57
224 51
225 43
226 38
227 55
228 40
229 49
230 27
231 93
232 40
233 35
234 33
235 10
236 9
237 84
238 36
239 70
240 45
241 64
242 69
243 86
244 82
245 19
COVERAGE_SECTION
2 7 189 468 316 502 603 503 131 
3 7 480 393 186 510 551 561 99 
4 7 413 549 588 509 445 495 543 
5 7 573 246 446 59 244 587 319 
6 7 307 499 211 364 20 466 108 
7 7 566 243 415 488 90 577 482 
8 7 450 466 340 258 236 230 231 
9 7 298 54 524 111 11 470 606 
10 7 568 295 527 34 101 335 371 
11 7 470 606 111 524 54 9 298 
12 7 484 32 574 216 527 101 34 
13 7 137 112 277 400 434 79 545 
14 7 402 560 144 183 203 513 498 
15 7 141 323 348 554 72 538 414 
16 7 222 182 31 390 46 173 91 
17 7 194 63 504 22 209 367 204 
18 7 505 517 525 145 180 536 557 
19 7 333 193 24 304 318 223 507 
20 7 108 287 210 440 499 307 455 
21 7 109 380 310 85 117 46 544 
22 7 209 405 504 63 537 17 194 
23 7 241 572 425 206 486 299 270 
24 7 193 19 333 304 507 61 136 
25 7 213 66 409 569 550 195 402 
26 7 378 177 39 254 290 337 542 
27 7 324 581 430 217 463 453 147 
28 7 596 264 279 535 485 106 138 
29 7 370 96 389 602 255 530 284 
30 7 273 553 265 297 95 163 435 
31 7 390 182 222 16 173 87 285 
32 7 216 12 352 484 479 574 248 
33 7 419 565 284 218 255 461 530 
34 7 101 527 568 10 574 335 371 
35 7 382 424 166 433 294 355 252 
36 7 126 523 385 77 483 449 286 
37 7 391 127 300 212 365 84 247 
38 7 421 228 185 326 60 169 319 
39 7 177 399 542 398 378 26 254 
40 7 438 293 429 75 520 332 601 
41 7 84 529 599 98 146 251 247 
42 7 97 411 259 363 395 559 592 
43 7 312 412 70 496 441 160 125 
44 7 311 317 280 337 148 92 518 
45 7 492 497 515 346 377 191 57 
46 7 412 16 496 21 222 312 43 
47 7 167 94 122 451 381 214 124 
48 7 135 356 86 291 196 238 460 
49 7 452 442 476 358 152 132 586 
50 7 151 586 124 214 361 451 594 
51 7 138 494 464 106 596 28 325 
52 7 540 592 253 331 271 571 336 
53 7 219 180 505 517 519 156 606 
54 7 524 111 11 470 9 606 298 
55 7 131 503 232 603 410 189 88 
56 7 310 227 544 85 61 136 342 
57 7 492 288 377 176 58 45 256 
58 7 288 57 590 492 346 511 176 
59 7 573 420 319 246 5 185 446 
60 7 372 296 326 303 38 313 228 
61 7 136 507 56 117 24 278 227 
62 7 67 490 104 575 512 531 233 
63 7 504 367 204 537 17 22 155 
64 7 285 541 87 390 188 31 42 
65 7 309 445 543 549 506 598 316 
66 7 195 569 25 213 305 341 409 
67 7 575 62 512 531 104 490 360 
68 7 580 125 467 441 314 81 70 
69 7 458 291 292 532 118 170 196 
70 7 441 43 467 125 68 274 580 
71 7 567 113 158 119 327 469 404 
72 7 414 348 554 323 221 417 15 
73 7 134 522 322 558 359 267 245 
74 7 279 325 264 106 596 28 464 
75 7 334 438 40 555 429 252 294 
76 7 401 556 444 478 410 232 121 
77 6 362 286 351 36 126 483 
78 7 416 353 197 589 308 388 578 
79 7 277 434 373 545 455 400 112 
80 7 578 308 272 197 416 78 228 
81 7 68 580 467 125 441 314 426 
82 7 306 263 130 555 506 403 309 
83 7 593 426 155 204 367 597 384 
84 7 41 127 391 529 599 37 98 
85 7 380 544 310 21 109 56 117 
86 7 356 172 460 48 547 135 196 
87 7 188 541 64 285 31 390 192 
88 7 489 603 423 503 164 502 131 
89 7 408 339 486 119 241 428 220 
90 7 577 482 399 7 243 488 398 
91 7 157 173 182 222 496 477 570 
92 7 518 290 311 317 44 191 304 
93 7 456 562 129 100 139 140 431 
94 7 381 122 102 357 167 47 600 
95 7 30 297 273 422 435 163 553 
96 7 602 29 389 370 255 530 284 
97 7 42 363 259 559 411 395 592 
98 7 529 599 41 178 179 251 84 
99 7 240 347 161 538 276 417 186 
100 7 129 265 93 553 579 273 456 
101 7 34 527 574 568 335 10 371 
102 7 357 381 94 122 558 208 168 
103 7 491 105 133 583 350 436 260 
104 7 512 490 62 67 165 289 575 
105 7 103 133 491 436 583 260 143 
106 7 464 325 596 74 51 28 138 
107 7 120 249 275 164 207 501 559 
108 7 287 20 210 440 455 454 499 
109 7 310 21 117 380 85 136 336 
110 7 301 229 124 451 214 47 167 
111 7 524 54 11 470 606 9 298 
112 7 400 13 137 277 79 84 434 
113 7 469 404 71 268 500 158 567 
114 7 354 447 153 74 325 576 279 
115 7 165 289 104 147 338 512 369 
116 7 443 184 539 152 476 221 417 
117 7 109 136 336 310 571 507 21 
118 7 583 133 196 491 350 69 135 
119 7 567 327 428 89 339 408 158 
120 7 207 107 275 501 249 164 271 
121 7 142 318 501 223 76 401 232 
122 7 381 167 94 600 47 357 102 
123 7 242 250 384 607 283 597 511 
124 7 451 214 50 361 151 110 47 
125 7 580 68 314 441 467 70 81 
126 7 36 523 483 385 449 77 286 
127 7 37 391 84 300 212 41 400 
128 7 169 421 228 38 319 185 420 
129 7 100 456 265 93 553 273 458 
130 7 306 82 263 555 506 330 309 
131 7 55 503 603 232 189 88 410 
132 7 358 152 301 229 110 442 151 
133 7 583 105 260 491 103 118 143 
134 7 73 558 322 522 168 267 359 
135 7 196 48 291 86 356 118 458 
136 7 117 61 507 310 109 336 571 
137 7 13 112 277 434 79 400 545 
138 7 51 494 596 28 106 464 264 
139 7 431 562 93 140 584 170 532 
140 7 170 532 562 584 292 139 461 
141 7 15 323 348 554 72 514 538 
142 7 121 318 501 223 333 19 207 
143 7 162 260 133 105 583 432 436 
144 7 513 402 14 560 175 376 475 
145 7 181 18 557 493 536 525 576 
146 7 251 247 599 41 600 529 178 
147 7 217 289 338 165 437 115 369 
148 7 478 317 311 444 223 280 518 
149 7 594 361 552 237 352 534 586 
150 7 418 302 546 281 266 397 457 
151 7 50 586 124 214 594 361 358 
152 7 132 539 358 442 443 116 476 
153 7 576 354 447 536 557 114 525 
154 7 171 564 397 457 281 272 487 
155 7 204 367 83 537 426 63 593 
156 7 519 500 404 180 469 53 505 
157 7 91 173 182 222 477 159 570 
158 7 220 174 521 282 567 71 119 
159 7 477 570 487 302 157 91 281 
160 7 368 312 496 570 412 314 43 
161 7 347 240 417 538 221 99 554 
162 7 143 260 601 432 133 105 332 
163 7 190 435 315 273 30 579 265 
164 7 249 107 233 548 120 275 489 
165 7 289 115 104 512 147 490 67 
166 7 294 252 382 424 35 522 75 
167 7 47 122 600 94 381 451 110 
168 7 558 102 134 357 248 73 322 
169 7 228 421 128 38 60 372 326 
170 7 532 292 140 584 461 474 562 
171 7 154 272 564 308 197 397 416 
172 7 86 356 432 332 135 196 460 
173 7 182 157 222 91 31 16 388 
174 7 220 341 282 158 305 339 449 
175 7 475 376 513 560 547 144 591 
176 7 533 256 585 57 377 288 198 
177 7 542 254 39 26 377 515 378 
178 7 179 599 98 529 251 146 600 
179 7 178 599 98 529 251 267 600 
180 7 505 519 517 53 500 404 18 
181 6 145 493 464 557 51 262 
182 7 222 173 16 31 91 157 390 
183 7 299 425 203 486 270 498 14 
184 7 443 116 539 365 152 221 417 
185 7 319 38 246 587 421 59 573 
186 7 3 561 393 276 99 551 480 
187 7 448 261 459 508 316 375 344 
188 7 87 541 192 313 303 64 285 
189 7 2 503 598 131 55 316 603 
190 7 163 315 435 579 273 265 30 
191 7 278 227 290 515 45 497 92 
192 7 313 353 303 188 78 372 388 
193 7 24 19 333 507 304 571 61 
194 7 17 63 504 22 209 367 204 
195 7 569 305 66 341 25 498 213 
196 7 135 291 118 48 86 583 69 
197 7 308 416 578 272 78 589 353 
198 7 526 533 482 398 577 256 90 
199 7 374 436 427 328 605 355 295 
200 7 201 563 245 359 495 588 403 
201 7 563 200 495 588 509 245 359 
202 7 379 595 439 326 407 587 296 
203 7 270 299 183 425 206 234 591 
204 7 367 155 83 63 537 504 593 
205 7 280 320 224 317 44 478 545 
206 7 270 203 299 604 425 422 23 
207 7 120 501 107 275 271 249 164 
208 7 534 394 552 248 479 94 361 
209 7 22 405 504 63 537 17 266 
210 7 108 287 440 20 455 454 79 
211 7 465 364 6 499 566 307 415 
212 7 300 391 365 37 247 127 229 
213 7 25 409 66 550 569 195 344 
214 7 451 124 361 50 151 47 110 
215 7 383 350 366 225 491 103 374 
216 7 32 479 248 574 352 12 484 
217 6 147 338 437 27 471 369 
218 7 33 284 419 255 565 530 389 
219 7 53 517 505 606 180 470 11 
220 7 174 158 341 282 339 305 119 
221 7 417 554 161 414 348 347 240 
222 7 182 16 173 31 91 157 46 
223 7 148 318 478 444 333 142 304 
224 7 545 373 434 277 79 137 454 
225 7 366 474 383 292 215 565 461 
226 7 535 485 264 28 596 279 74 
227 7 278 497 191 56 342 346 61 
228 7 169 421 38 128 60 372 326 
229 7 301 110 132 247 212 124 365 
230 7 236 450 8 551 466 3 6 
231 7 243 340 258 526 7 482 577 
232 7 410 55 131 503 556 76 598 
233 7 548 490 164 249 62 104 489 
234 7 591 560 239 376 203 270 513 
235 7 387 392 582 268 396 257 262 
236 7 230 450 8 466 551 340 258 
237 7 594 586 151 50 149 358 361 
238 7 472 48 460 356 547 86 297 
239 7 234 472 591 297 422 95 376 
240 7 347 161 99 538 417 221 554 
241 7 23 486 425 572 408 299 89 
242 7 123 250 384 607 597 283 511 
243 7 231 7 90 577 482 340 526 
244 7 446 587 246 528 269 439 5 
245 7 359 200 403 73 522 201 134 
246 7 446 573 5 587 319 244 59 
247 7 146 251 391 212 300 229 301 
248 7 479 394 552 208 216 352 534 
249 7 164 107 275 120 233 559 548 
250 7 607 242 123 597 384 345 426 
251 7 146 599 247 178 529 600 41 
252 7 294 166 382 424 75 334 35 
253 7 331 336 52 571 390 16 117 
254 7 542 515 177 377 26 39 45 
255 7 389 530 284 218 33 419 96 
256 7 176 398 542 377 533 57 177 
257 6 582 396 387 521 268 235 
258 7 340 231 8 243 526 7 466 
259 7 411 395 97 42 481 363 559 
260 7 133 143 583 105 162 103 491 
261 7 459 187 508 344 409 375 550 
262 4 392 493 235 471 
263 7 306 82 555 130 334 403 330 
264 7 279 28 596 74 535 226 325 
265 7 273 553 30 100 129 297 163 
266 7 302 150 314 537 580 418 81 
267 7 357 179 381 122 178 73 134 
268 6 387 582 235 257 396 113 
269 7 439 407 360 595 244 379 531 
270 7 203 206 299 425 183 234 591 
271 7 540 52 207 592 275 120 331 
272 7 308 197 578 416 171 78 80 
273 7 30 265 553 297 95 163 100 
274 7 70 544 441 467 85 342 345 
275 7 120 107 207 249 559 363 164 
276 7 561 406 99 349 186 240 347 
277 7 434 79 545 373 137 112 400 
278 7 227 191 61 497 56 45 304 
279 7 74 264 325 28 596 106 535 
280 7 317 311 44 148 478 205 444 
281 7 397 487 418 457 546 150 302 
282 7 449 385 174 521 341 523 220 
283 7 384 386 593 123 242 250 83 
284 7 255 33 530 218 419 389 565 
285 7 64 541 390 87 31 188 592 
286 5 77 362 351 483 126 
287 7 108 20 210 440 455 307 454 
288 7 58 57 492 346 176 45 590 
289 7 165 147 115 512 104 217 67 
290 7 92 191 518 26 337 254 515 
291 7 135 458 196 48 69 456 118 
292 7 532 170 584 140 474 461 69 
293 7 520 40 438 332 432 601 429 
294 7 166 252 382 424 35 334 75 
295 7 10 568 427 527 328 605 199 
296 7 326 60 372 303 313 38 192 
297 7 30 553 472 273 95 265 239 
298 7 9 524 111 54 11 470 153 
299 7 425 183 203 270 486 206 241 
300 7 212 391 37 365 247 127 229 
301 7 229 110 132 247 124 451 212 
302 7 150 418 281 159 487 266 546 
303 7 313 296 192 372 326 60 188 
304 7 24 333 518 19 193 61 223 
305 7 341 195 569 66 174 220 282 
306 7 82 130 263 555 506 330 309 
307 7 499 6 364 20 211 108 287 
308 7 197 578 272 416 78 80 589 
309 7 506 65 543 445 448 316 130 
310 7 109 380 21 117 85 136 544 
311 7 317 44 148 280 518 92 478 
312 7 412 496 160 43 368 46 570 
313 7 303 192 372 296 188 60 326 
314 7 125 580 68 368 441 467 160 
315 7 190 579 163 435 265 100 273 
316 7 448 65 189 598 2 187 309 
317 7 311 44 280 148 518 478 92 
318 7 142 121 223 333 501 19 444 
319 7 185 246 59 573 38 587 420 
320 7 495 205 4 588 556 413 563 
321 7 502 423 468 489 115 88 548 
322 7 522 424 134 73 382 558 35 
323 7 348 15 141 72 554 414 417 
324 7 581 430 27 463 217 494 453 
325 7 74 106 279 264 464 596 28 
326 7 296 60 372 303 38 202 313 
327 7 428 119 567 71 408 89 572 
328 7 374 199 295 427 329 436 10 
329 7 328 295 484 527 568 10 374 
330 7 343 375 130 506 306 555 429 
331 7 571 336 507 253 52 117 271 
332 7 432 601 520 293 438 172 162 
333 7 19 193 24 304 223 318 142 
334 7 555 75 263 252 294 403 429 
335 7 371 34 101 568 10 527 574 
336 7 571 331 117 507 253 109 136 
337 7 44 26 290 311 378 317 92 
338 5 369 437 147 217 289 
339 7 89 408 220 174 119 498 486 
340 7 258 231 243 8 7 466 566 
341 7 305 174 195 282 220 569 66 
342 7 346 497 227 56 45 492 274 
343 7 375 330 429 506 448 130 187 
344 7 508 459 261 213 409 25 187 
345 7 597 426 607 250 81 83 467 
346 7 342 497 45 492 227 288 56 
347 7 240 161 538 99 417 221 554 
348 7 554 323 414 72 417 221 15 
349 7 406 561 551 276 6 186 307 
350 7 491 103 215 118 583 133 105 
351 5 362 77 286 369 437 
352 7 552 479 394 248 216 32 208 
353 7 78 388 416 192 589 197 308 
354 7 114 153 447 576 557 536 325 
355 7 605 433 427 199 436 35 382 
356 7 86 460 48 547 172 135 238 
357 7 102 381 94 122 267 558 167 
358 7 132 442 151 586 152 50 452 
359 7 245 73 403 200 522 134 201 
360 7 453 531 575 269 67 512 407 
361 7 214 451 124 50 151 594 534 
362 5 351 77 286 369 437 
363 7 559 97 42 592 540 275 411 
364 7 499 465 307 211 20 454 6 
365 7 212 300 539 37 391 229 443 
366 7 225 383 474 215 565 350 292 
367 7 204 155 63 537 504 83 593 
368 7 160 312 570 314 496 125 412 
369 5 338 437 362 351 147 
370 7 29 96 389 255 602 530 218 
371 7 335 433 10 605 34 568 101 
372 7 60 296 326 313 303 192 38 
373 7 545 224 434 79 277 455 454 
374 7 328 199 436 215 103 295 427 
375 7 343 330 187 448 261 506 459 
376 7 513 175 475 591 560 234 239 
377 7 515 254 542 492 57 256 45 
378 7 26 39 177 337 399 488 465 
379 7 595 202 439 407 587 269 326 
380 7 85 21 310 109 544 117 56 
381 7 94 357 102 122 167 47 600 
382 7 35 424 166 294 252 355 322 
383 7 366 215 225 474 462 350 565 
384 7 123 283 242 250 607 593 597 
385 7 449 523 282 36 126 521 341 
386 7 593 283 384 83 204 123 367 
387 6 235 268 582 257 396 392 
388 7 353 589 78 416 564 192 173 
389 7 255 530 284 602 96 218 33 
390 7 31 285 16 64 222 87 182 
391 7 37 300 212 127 247 84 365 
392 6 262 235 493 387 396 582 
393 7 3 480 186 510 538 473 99 
394 7 208 552 534 479 248 352 102 
395 7 411 259 481 42 97 363 541 
396 6 257 582 387 235 483 521 
397 7 457 281 154 546 487 418 171 
398 7 399 256 482 39 577 90 542 
399 7 398 90 577 482 39 488 7 
400 7 112 79 277 84 434 137 455 
401 7 76 556 444 478 410 121 148 
402 7 550 14 144 409 25 213 560 
403 7 263 359 334 245 82 522 294 
404 7 469 500 519 113 156 180 505 
405 7 209 22 537 504 266 150 63 
406 7 349 561 276 551 99 186 240 
407 7 439 269 595 379 481 202 531 
408 7 89 486 339 241 119 428 425 
409 7 550 213 25 402 261 459 66 
410 7 232 556 76 401 55 413 131 
411 7 395 259 42 97 481 363 559 
412 7 312 496 43 46 160 368 91 
413 7 4 549 588 509 445 598 410 
414 7 72 554 348 221 417 323 161 
415 7 488 566 7 465 211 90 243 
416 7 197 78 308 578 272 353 589 
417 7 221 161 554 347 348 240 414 
418 7 150 546 281 302 397 457 487 
419 7 33 565 284 218 461 255 530 
420 7 59 573 319 5 246 185 128 
421 7 38 228 169 128 185 60 326 
422 7 604 516 95 206 239 270 297 
423 7 489 502 321 88 468 603 548 
424 7 382 35 322 166 522 294 252 
425 7 299 486 183 270 203 241 206 
426 7 345 83 597 81 155 607 593 
427 7 605 433 355 199 295 10 436 
428 7 327 119 572 567 408 89 241 
429 7 40 75 438 555 293 330 334 
430 7 324 463 581 27 528 494 453 
431 7 139 562 93 140 602 584 530 
432 7 332 601 520 172 162 293 143 
433 7 605 427 355 371 35 10 295 
434 7 277 79 545 373 224 137 455 
435 7 163 190 315 95 30 273 579 
436 7 105 199 103 491 133 374 355 
437 5 338 369 217 471 147 
438 7 40 75 293 601 520 332 429 
439 7 407 269 595 379 202 587 244 
440 7 210 455 287 108 20 79 454 
441 7 467 68 125 70 580 314 43 
442 7 452 49 358 476 152 132 586 
443 7 116 184 539 152 365 132 476 
444 7 478 401 76 148 556 223 280 
445 7 549 543 65 509 413 598 309 
446 7 244 246 587 5 573 528 185 
447 7 576 557 153 354 114 536 181 
448 7 316 187 506 309 375 65 330 
449 6 385 282 523 521 126 36 
450 7 236 8 230 466 340 258 551 
451 7 124 214 361 50 110 47 151 
452 7 49 442 476 358 152 586 132 
453 7 360 27 512 575 531 67 147 
454 7 210 20 455 108 364 373 287 
455 7 440 210 79 108 287 20 454 
456 7 458 93 129 140 100 291 562 
457 7 397 546 281 154 418 487 150 
458 7 69 291 456 532 292 170 140 
459 7 261 508 344 187 409 213 550 
460 7 547 356 86 238 48 475 172 
461 7 584 170 474 292 532 33 419 
462 7 383 565 366 419 33 225 215 
463 7 430 324 581 528 27 494 453 
464 7 106 51 325 138 596 74 28 
465 7 364 211 415 488 566 499 7 
466 7 8 566 450 211 340 7 415 
467 7 441 68 125 580 70 81 314 
468 7 502 321 2 423 508 489 189 
469 7 404 500 113 519 156 180 268 
470 7 11 606 111 524 54 9 219 
471 3 437 217 338 
472 7 297 238 239 553 30 460 273 
473 7 510 514 393 480 141 15 3 
474 7 225 366 292 461 584 170 565 
475 7 175 376 513 547 460 560 591 
476 7 49 452 442 152 116 358 443 
477 7 159 570 487 91 157 160 368 
478 7 444 148 401 76 223 280 317 
479 7 248 394 552 352 216 208 534 
480 7 3 393 510 186 473 514 538 
481 7 395 259 411 407 42 97 439 
482 7 577 90 399 243 398 526 7 
483 7 126 286 36 396 523 77 385 
484 7 12 574 527 101 32 34 216 
485 7 226 535 28 264 596 279 5 
486 7 425 299 241 408 183 89 23 
487 7 159 281 477 397 570 154 302 
488 7 415 566 7 465 90 577 399 
489 7 88 423 603 502 548 164 321 
490 7 62 104 233 548 67 512 165 
491 7 103 105 133 350 583 118 260 
492 7 45 57 377 497 515 346 288 
493 4 262 392 181 235 
494 7 138 51 463 430 464 324 581 
495 7 588 563 320 4 201 509 413 
496 7 312 412 160 368 46 43 91 
497 7 45 346 342 227 492 191 278 
498 7 569 183 195 305 339 14 66 
499 7 307 6 364 20 211 108 287 
500 7 519 156 404 469 180 505 113 
501 7 207 120 142 107 318 121 275 
502 7 468 423 321 489 2 88 603 
503 7 131 55 603 88 189 232 2 
504 7 63 537 22 367 209 204 17 
505 7 180 517 18 53 519 219 404 
506 7 309 65 130 448 330 543 306 
507 7 571 336 136 117 331 193 24 
508 7 344 459 261 187 468 2 213 
509 7 549 588 445 543 4 413 65 
510 7 473 514 393 480 141 15 3 
511 7 590 123 242 58 384 283 250 
512 7 67 104 575 289 62 531 165 
513 7 376 175 560 475 591 144 234 
514 7 473 510 141 15 323 393 480 
515 7 254 377 45 492 542 191 177 
516 7 604 422 206 95 23 435 270 
517 7 219 525 505 18 180 53 606 
518 7 92 311 304 317 290 148 44 
519 7 156 500 404 180 469 505 53 
520 7 293 332 432 40 438 601 172 
521 6 449 282 257 158 385 582 
522 7 322 424 73 134 166 294 359 
523 7 385 36 126 449 282 483 521 
524 7 111 54 11 470 9 298 606 
525 7 536 517 18 557 576 606 145 
526 7 231 482 198 243 577 90 258 
527 7 568 34 101 10 574 295 335 
528 7 463 244 446 430 453 360 324 
529 7 98 599 41 178 179 251 84 
530 7 255 389 284 33 218 461 419 
531 7 575 67 360 512 62 453 269 
532 7 170 292 140 584 461 69 458 
533 7 585 176 198 256 57 398 377 
534 7 208 394 552 361 214 47 94 
535 7 226 485 264 28 596 279 74 
536 7 557 576 525 153 447 145 18 
537 7 155 504 367 63 204 266 22 
538 7 347 240 161 99 417 221 348 
539 7 443 365 184 152 116 132 212 
540 7 592 52 271 363 559 275 42 
541 7 64 285 87 188 390 31 395 
542 7 177 254 377 39 256 515 398 
543 7 445 65 509 309 549 506 588 
544 7 85 380 310 56 21 109 274 
545 7 373 224 434 277 79 137 455 
546 7 418 457 150 281 397 302 487 
547 7 460 356 86 475 238 175 48 
548 7 233 490 164 249 489 104 62 
549 7 445 509 413 4 543 588 65 
550 7 409 402 213 25 261 459 14 
551 7 349 561 186 406 276 6 230 
552 7 394 208 534 479 352 248 149 
553 7 273 30 265 297 100 129 472 
554 7 348 414 221 417 72 323 161 
555 7 263 334 130 306 75 82 429 
556 7 76 401 410 444 478 232 413 
557 7 576 536 447 153 525 145 354 
558 7 168 134 73 357 102 267 322 
559 7 363 97 275 42 592 249 540 
560 7 591 513 376 234 14 144 175 
561 7 276 406 349 186 551 99 240 
562 7 139 140 431 93 170 584 532 
563 7 201 200 495 588 509 320 245 
564 7 589 154 171 388 78 197 272 
565 7 419 33 284 218 474 461 225 
566 7 415 7 488 211 243 466 465 
567 7 71 119 158 327 428 220 113 
568 7 10 527 34 101 295 335 574 
569 7 195 66 305 498 25 341 213 
570 7 477 159 368 160 91 487 496 
571 7 336 331 507 117 253 136 52 
572 7 241 23 428 408 327 486 89 
573 7 5 59 246 446 319 420 185 
574 7 101 34 527 484 568 335 216 
575 7 531 67 512 360 62 104 453 
576 7 557 536 447 153 354 525 114 
577 7 90 482 399 243 7 398 526 
578 7 308 197 416 272 78 80 353 
579 7 315 190 100 163 265 435 273 
580 7 68 125 314 467 441 81 70 
581 6 324 430 27 463 217 471 
582 6 257 396 387 268 235 521 
583 7 133 118 491 105 260 103 350 
584 7 461 170 292 532 140 474 562 
585 7 533 176 198 256 57 590 58 
586 7 151 50 594 237 358 361 124 
587 7 244 446 246 185 439 379 202 
588 7 509 495 4 549 413 445 543 
589 7 564 388 78 353 416 197 308 
590 7 511 123 242 58 288 585 250 
591 7 234 560 376 513 239 203 175 
592 7 540 52 363 559 42 271 97 
593 7 83 386 384 283 426 204 155 
594 7 237 586 50 151 361 149 214 
595 7 379 202 439 407 269 587 481 
596 7 28 264 106 279 138 325 535 
597 7 345 607 250 426 242 384 123 
598 7 65 445 549 189 413 316 232 
599 7 529 98 41 178 251 179 146 
600 7 122 167 251 47 146 381 94 
601 7 332 432 438 520 162 293 143 
602 7 96 389 530 431 255 29 139 
603 7 88 503 131 489 55 423 189 
604 7 516 422 206 23 270 95 239 
605 7 433 427 355 371 199 295 10 
606 7 470 11 111 54 524 219 517 
607 7 250 597 242 345 123 384 426 
DEPOT_SECTION
   1
   -1
EOF
