NAME :  X-n685-kX-w68-c7.cctp
COMMENT : 	Adapted by Maziero, Usberti and Cavellucci from the Uchoa, Pecin, Pessoa, Poggi, Subramanian, and Vidal (2013)
TYPE :  CCTP
DIMENSION :    380
EDGE_WEIGHT_TYPE : 	EUC_2D	
CAPACITY : 	408
VERTICES_WITHIN_COVERAGE :  7
VERTICES_WITH_DEMAND : 	68
NODE_COORD_SECTION
1 500 500
2 112 700
3 363 779
4 245 896
5 238 19
6 184 351
7 305 763
8 366 814
9 137 857
10 564 31
11 303 157
12 523 830
13 134 231
14 851 445
15 740 311
16 163 95
17 275 499
18 470 814
19 453 217
20 818 525
21 311 911
22 177 374
23 230 4
24 590 302
25 196 103
26 553 879
27 316 446
28 665 375
29 587 609
30 510 95
31 907 455
32 805 956
33 342 345
34 785 309
35 649 584
36 850 24
37 26 126
38 447 817
39 145 527
40 218 825
41 405 151
42 389 436
43 452 619
44 407 367
45 948 514
46 836 996
47 578 334
48 491 929
49 325 696
50 838 842
51 983 788
52 623 549
53 915 72
54 774 336
55 81 238
56 534 537
57 295 406
58 853 358
59 742 581
60 32 964
61 747 352
62 610 799
63 786 853
64 506 168
65 755 957
66 408 67
67 485 734
68 419 256
69 508 155
70 941 589
71 68 42
72 817 595
73 397 274
74 727 302
75 216 237
76 821 320
77 516 531
78 561 920
79 128 834
80 162 534
81 188 329
82 520 301
83 336 782
84 139 848
85 350 154
86 242 162
87 791 925
88 907 497
89 786 457
90 629 745
91 935 439
92 78 835
93 123 479
94 205 840
95 932 357
96 413 373
97 827 881
98 11 938
99 88 535
100 436 200
101 940 319
102 325 59
103 34 264
104 322 89
105 287 304
106 288 406
107 616 828
108 978 511
109 605 464
110 462 934
111 506 33
112 457 26
113 164 326
114 256 410
115 551 8
116 940 421
117 231 470
118 917 773
119 553 355
120 964 782
121 193 135
122 632 320
123 631 844
124 598 542
125 579 317
126 454 676
127 54 971
128 504 747
129 424 367
130 45 177
131 458 390
132 480 741
133 424 65
134 606 280
135 837 594
136 213 118
137 315 173
138 693 538
139 249 497
140 213 878
141 884 558
142 888 399
143 557 197
144 368 270
145 254 421
146 3 697
147 531 811
148 675 657
149 336 439
150 536 219
151 684 432
152 701 543
153 507 829
154 156 483
155 350 781
156 357 207
157 592 613
158 599 58
159 203 387
160 414 285
161 756 280
162 369 303
163 801 597
164 194 98
165 106 109
166 454 45
167 335 464
168 516 730
169 918 58
170 670 508
171 530 678
172 528 853
173 696 404
174 506 702
175 49 895
176 633 782
177 681 633
178 768 575
179 959 76
180 855 313
181 999 440
182 560 58
183 430 401
184 165 27
185 409 50
186 887 99
187 368 21
188 122 330
189 115 722
190 452 297
191 592 406
192 303 284
193 261 751
194 794 809
195 569 561
196 932 133
197 259 874
198 491 948
199 589 818
200 111 973
201 102 759
202 92 873
203 121 799
204 935 711
205 766 638
206 98 147
207 542 425
208 518 201
209 393 751
210 453 759
211 512 720
212 860 400
213 560 922
214 419 421
215 500 650
216 513 915
217 582 155
218 151 700
219 792 436
220 452 748
221 262 200
222 880 549
223 599 351
224 444 301
225 762 972
226 504 609
227 517 798
228 257 162
229 480 944
230 583 268
231 170 87
232 481 226
233 209 321
234 759 813
235 492 115
236 494 177
237 557 821
238 760 939
239 853 444
240 602 517
241 42 343
242 749 800
243 225 766
244 444 199
245 503 69
246 379 107
247 884 863
248 440 849
249 143 882
250 237 146
251 424 765
252 154 338
253 524 941
254 963 505
255 130 180
256 96 258
257 837 987
258 184 529
259 825 387
260 128 660
261 825 977
262 288 488
263 512 612
264 190 391
265 856 988
266 228 916
267 586 852
268 797 290
269 813 941
270 264 482
271 786 959
272 156 554
273 381 778
274 315 370
275 839 874
276 903 37
277 863 385
278 241 911
279 185 809
280 295 900
281 277 404
282 262 911
283 252 887
284 847 375
285 278 420
286 845 993
287 827 859
288 823 980
289 840 868
290 306 690
291 723 320
292 747 321
293 811 977
294 772 392
295 483 560
296 788 903
297 188 843
298 442 876
299 68 1000
300 824 38
301 245 799
302 413 463
303 387 439
304 740 294
305 374 838
306 415 801
307 697 421
308 869 423
309 986 838
310 835 34
311 262 908
312 266 522
313 814 34
314 797 997
315 733 971
316 167 491
317 762 878
318 280 739
319 822 1000
320 734 329
321 70 952
322 961 844
323 801 980
324 315 467
325 499 911
326 291 915
327 593 339
328 138 580
329 427 451
330 860 376
331 294 897
332 103 513
333 771 328
334 943 828
335 833 937
336 465 621
337 725 297
338 183 524
339 518 488
340 182 831
341 424 586
342 445 943
343 787 940
344 437 355
345 530 783
346 445 763
347 288 920
348 288 497
349 509 815
350 182 265
351 124 883
352 296 879
353 318 880
354 407 239
355 468 291
356 254 877
357 802 826
358 467 574
359 333 669
360 327 923
361 331 793
362 336 448
363 585 724
364 604 298
365 685 972
366 264 508
367 336 899
368 256 885
369 312 500
370 631 790
371 820 968
372 488 589
373 880 307
374 482 587
375 220 822
376 284 735
377 281 701
378 349 734
379 130 755
380 792 823
DEMAND_SECTION
2 8
3 25
4 36
5 83
6 63
7 3
8 15
9 47
10 21
11 54
12 87
13 94
14 22
15 31
16 78
17 71
18 32
19 60
20 87
21 31
22 53
23 76
24 23
25 93
26 56
27 72
28 44
29 92
30 23
31 48
32 87
33 70
34 27
35 72
36 9
37 64
38 6
39 40
40 19
41 68
42 52
43 41
44 57
45 94
46 73
47 10
48 6
49 31
50 87
51 70
52 71
53 32
54 3
55 94
56 67
57 98
58 3
59 97
60 31
61 25
62 94
63 87
64 9
65 66
66 56
67 13
68 65
69 1
COVERAGE_SECTION
2 5 189 218 260 379 201 
3 7 155 273 83 8 361 209 378 
4 6 283 278 368 311 356 282 
5 7 23 184 164 25 102 231 136 
6 7 81 22 113 252 233 264 159 
7 7 318 376 83 361 193 155 378 
8 6 305 3 155 273 361 83 
9 6 84 79 249 351 202 340 
10 5 115 182 158 111 245 
11 7 137 228 85 221 86 250 104 
12 7 153 147 349 172 227 237 345 
13 6 256 255 55 350 75 206 
14 7 239 308 212 31 142 219 277 
15 7 292 74 304 291 320 337 161 
16 7 231 164 25 121 136 165 184 
17 7 348 366 262 270 312 139 369 
18 7 38 349 153 248 227 12 306 
19 7 244 100 232 354 68 236 208 
20 7 222 72 178 135 141 163 89 
21 7 280 326 360 331 347 367 353 
22 6 264 6 159 252 81 113 
23 7 5 184 164 231 25 102 16 
24 7 364 125 134 47 230 327 122 
25 7 164 136 231 121 16 250 86 
26 7 172 78 267 213 216 12 237 
27 7 362 149 324 167 57 285 106 
28 7 173 307 151 122 223 191 291 
29 7 157 195 35 124 52 263 226 
30 7 235 245 69 111 182 64 166 
31 7 91 88 116 308 239 14 142 
32 7 269 271 371 293 323 343 261 
33 7 274 162 44 105 192 96 57 
34 3 268 333 54 
35 7 52 177 138 157 124 152 29 
36 4 310 300 313 276 
37 7 130 206 165 71 255 55 103 
38 7 18 248 306 346 251 210 298 
39 7 80 272 338 258 316 332 154 
40 7 375 94 297 340 279 301 140 
41 7 246 85 100 244 156 19 66 
42 4 303 214 302 329 
43 5 336 341 374 358 372 
44 7 96 129 344 183 214 131 33 
45 7 254 108 88 31 70 91 222 
46 7 257 286 319 288 261 265 293 
47 7 327 125 223 119 24 364 122 
48 7 198 229 325 216 110 253 342 
49 4 290 359 377 378 
50 7 287 289 275 357 97 380 247 
51 6 120 309 334 322 118 204 
52 7 124 240 35 195 170 29 138 
53 5 169 276 186 179 196 
54 7 333 34 61 292 320 15 76 
55 7 256 13 103 130 255 206 188 
56 7 77 195 339 295 124 372 240 
57 7 106 281 285 114 274 145 27 
58 7 284 330 277 259 212 180 76 
59 7 178 152 163 205 138 72 177 
60 6 127 98 321 299 175 200 
61 7 320 54 292 333 291 15 294 
62 7 370 199 176 107 123 90 237 
63 7 357 380 317 287 194 234 97 
64 7 69 236 208 235 143 150 232 
65 7 225 238 315 271 343 87 32 
66 7 133 185 246 166 187 112 102 
67 7 132 128 211 168 220 174 210 
68 7 354 73 160 224 19 144 190 
69 7 64 236 235 208 30 143 150 
70 6 141 222 45 108 254 88 
71 7 165 37 184 16 206 231 130 
72 6 163 135 178 205 20 59 
73 7 160 68 144 354 162 224 190 
74 7 337 304 15 291 292 320 161 
75 5 350 221 86 13 233 
76 2 180 34 
77 6 56 339 295 195 372 358 
78 5 213 26 253 216 325 
79 6 84 9 203 351 92 249 
80 7 39 272 258 338 316 154 328 
81 7 6 233 113 252 22 159 264 
82 6 355 125 119 47 190 24 
83 7 361 155 3 7 8 273 378 
84 7 9 79 249 351 340 297 203 
85 6 137 11 156 41 246 104 
86 6 228 250 221 136 121 11 
87 7 343 296 269 32 238 271 335 
88 7 31 45 254 222 91 141 108 
89 6 219 14 294 239 20 259 
90 7 176 370 363 62 199 107 123 
91 7 116 31 142 88 181 308 254 
92 6 202 79 203 84 9 351 
93 4 154 332 316 39 
94 6 297 40 375 340 279 140 
95 7 101 142 116 373 277 330 58 
96 7 44 129 344 183 131 214 42 
97 6 275 289 287 50 296 63 
98 6 60 127 175 321 299 202 
99 3 332 39 93 
100 7 244 19 354 232 41 68 236 
101 4 95 373 180 58 
102 7 104 187 246 66 185 5 85 
103 6 55 256 241 130 13 188 
104 7 102 246 11 85 187 137 66 
105 5 192 33 274 233 162 
106 6 57 281 285 114 145 274 
107 7 123 199 62 267 370 176 237 
108 7 254 45 88 181 91 70 31 
109 7 240 191 207 124 170 151 52 
110 7 342 229 48 198 325 216 298 
111 6 245 112 115 166 10 182 
112 6 166 111 133 185 245 66 
113 7 252 81 6 188 233 22 350 
114 5 145 281 285 106 57 
115 5 10 111 182 158 245 
116 7 91 31 142 181 95 308 88 
117 4 139 270 366 17 
118 6 120 334 204 51 322 309 
119 7 47 327 125 223 82 191 24 
120 7 51 118 334 309 322 204 247 
121 7 136 25 164 250 16 231 86 
122 7 364 327 223 24 134 125 47 
123 5 107 267 199 62 370 
124 7 240 52 195 56 35 29 157 
125 7 47 24 327 364 223 119 134 
126 5 215 336 43 174 67 
127 6 60 321 299 98 200 175 
128 7 168 67 132 211 345 174 210 
129 7 96 44 344 183 131 214 224 
130 7 37 206 55 255 103 165 256 
131 7 183 129 344 96 214 44 329 
132 7 67 128 220 210 168 211 346 
133 6 66 185 166 112 246 187 
134 5 364 230 24 125 122 
135 6 72 163 141 222 20 178 
136 7 25 121 164 250 86 231 16 
137 6 11 85 156 221 228 86 
138 6 152 170 35 59 52 178 
139 7 366 270 17 312 117 348 262 
140 3 4 94 283 
141 7 222 135 70 88 20 72 45 
142 7 212 277 308 330 284 58 116 
143 5 150 208 217 64 69 
144 6 73 162 160 354 68 156 
145 5 114 285 281 106 57 
146 3 2 189 201 
147 7 227 12 349 237 345 153 172 
148 7 177 35 205 157 90 29 59 
149 6 362 27 167 324 303 42 
150 5 208 143 232 64 236 
151 6 307 173 28 170 109 191 
152 6 138 170 59 35 178 52 
153 7 349 12 147 172 227 18 237 
154 3 316 93 39 
155 7 3 83 361 273 8 378 7 
156 6 85 137 354 144 11 41 
157 7 29 195 35 52 124 263 226 
158 2 182 10 
159 4 264 22 6 114 
160 7 73 68 224 190 354 144 162 
161 2 304 15 
162 7 144 73 160 33 68 192 44 
163 6 72 135 178 205 59 20 
164 7 25 231 136 16 121 250 184 
165 7 206 16 231 255 71 37 164 
166 6 112 133 185 66 111 245 
167 4 362 324 149 27 
168 7 211 128 174 67 132 171 345 
169 6 53 276 179 186 36 196 
170 7 138 152 52 240 151 109 35 
171 7 174 215 211 168 263 67 363 
172 7 12 153 26 147 349 237 227 
173 6 307 151 28 61 294 320 
174 7 211 168 171 67 128 132 215 
175 6 202 98 321 92 60 127 
176 7 370 62 90 107 199 123 363 
177 7 148 35 59 205 157 152 138 
178 7 59 163 72 205 20 135 152 
179 5 53 169 196 276 186 
180 3 373 76 58 
181 7 116 91 108 254 45 31 95 
182 6 10 158 115 245 111 30 
183 7 214 131 96 129 44 344 329 
184 7 231 16 23 5 164 25 71 
185 6 66 133 166 187 112 246 
186 4 53 169 196 276 
187 7 185 102 66 133 104 246 112 
188 7 252 113 6 81 22 256 241 
189 5 2 379 201 218 260 
190 7 224 355 160 68 73 344 82 
191 7 207 223 109 119 327 47 28 
192 5 105 144 162 33 274 
193 5 318 376 243 7 301 
194 6 380 357 234 63 242 50 
195 7 124 56 29 52 240 157 77 
196 2 186 53 
197 6 356 368 283 4 311 282 
198 7 229 48 110 253 325 216 342 
199 7 62 107 237 267 123 370 176 
200 5 321 299 127 60 351 
201 6 379 189 203 2 218 79 
202 6 351 92 9 175 249 79 
203 6 79 201 379 84 92 9 
204 4 118 120 51 334 
205 6 163 59 178 72 135 177 
206 7 165 255 130 37 16 13 55 
207 7 191 339 119 109 131 223 47 
208 6 150 236 64 143 232 69 
209 7 273 251 3 378 155 346 306 
210 7 346 220 251 132 67 128 306 
211 7 168 174 128 67 132 171 220 
212 7 277 330 308 142 284 259 58 
213 4 78 253 26 216 
214 7 183 329 42 303 302 96 131 
215 7 263 171 226 336 174 126 43 
216 7 325 48 253 198 229 78 213 
217 2 143 69 
218 4 2 189 260 379 
219 6 89 294 259 14 239 212 
220 7 210 346 132 251 67 128 209 
221 5 228 86 11 75 137 
222 7 141 88 135 20 70 45 72 
223 7 327 47 125 122 119 24 364 
224 7 190 355 160 68 73 344 129 
225 7 65 271 315 238 323 343 314 
226 7 263 372 374 215 336 358 43 
227 7 147 349 345 12 153 237 18 
228 6 86 250 221 11 137 136 
229 7 198 48 110 342 325 216 253 
230 5 134 24 364 125 47 
231 7 16 164 25 121 136 184 165 
232 6 19 208 244 236 100 150 
233 7 81 6 113 252 22 350 159 
234 6 242 380 194 357 63 317 
235 7 30 69 245 64 236 166 111 
236 7 64 69 208 232 244 19 150 
237 7 147 199 12 267 172 227 345 
238 7 65 343 225 271 87 315 296 
239 7 14 308 212 31 142 277 219 
240 7 124 52 109 195 170 56 35 
241 4 103 188 256 55 
242 5 234 194 380 357 63 
243 4 193 301 375 40 
244 7 100 19 232 354 236 41 68 
245 6 30 111 235 166 182 112 
246 7 66 41 85 104 133 185 102 
247 5 289 275 50 287 97 
248 7 298 38 18 306 305 153 349 
249 4 351 9 84 79 
250 7 86 228 136 121 25 221 164 
251 7 346 210 220 209 306 273 38 
252 7 113 6 188 81 22 233 264 
253 7 216 198 48 325 213 78 229 
254 7 108 45 88 91 181 31 70 
255 7 206 13 165 55 121 130 256 
256 7 55 13 103 188 255 350 113 
257 7 46 286 261 288 265 319 371 
258 5 338 80 272 39 316 
259 7 284 212 330 277 58 294 308 
260 3 2 218 189 
261 6 288 371 293 257 46 319 
262 6 348 17 270 369 366 324 
263 7 226 372 374 215 336 358 43 
264 3 159 22 6 
265 4 286 257 46 261 
266 3 278 4 282 
267 7 199 107 237 26 123 62 172 
268 1 34 
269 5 32 335 343 87 371 
270 7 17 139 262 366 348 117 312 
271 7 32 343 323 225 65 293 269 
272 5 80 39 328 258 338 
273 7 3 209 155 8 306 83 251 
274 7 33 57 106 281 285 114 105 
275 6 289 97 287 50 247 63 
276 7 169 53 36 186 179 310 300 
277 7 330 212 284 58 142 259 308 
278 5 266 4 282 311 283 
279 5 340 297 40 94 375 
280 6 331 326 21 347 352 353 
281 5 106 285 57 114 145 
282 4 311 278 4 283 
283 7 368 356 4 197 311 278 282 
284 7 330 58 277 259 212 142 308 
285 6 281 106 57 114 145 27 
286 6 46 257 265 319 261 288 
287 7 289 275 50 97 63 357 380 
288 7 261 293 371 257 319 46 323 
289 6 275 287 97 50 247 63 
290 3 49 377 359 
291 7 320 74 15 337 292 304 61 
292 7 15 320 291 333 74 304 54 
293 7 323 288 371 261 32 314 319 
294 7 61 219 259 54 333 89 320 
295 6 358 374 372 77 226 56 
296 7 87 317 343 97 269 238 63 
297 5 340 94 279 40 375 
298 7 248 38 110 325 342 18 48 
299 6 127 321 60 200 98 175 
300 3 313 310 36 
301 5 375 40 243 193 94 
302 4 329 303 42 214 
303 4 42 302 214 329 
304 7 74 337 15 161 292 291 320 
305 3 8 306 3 
306 7 38 251 273 346 8 248 209 
307 6 151 173 28 294 61 170 
308 7 212 239 14 142 277 330 31 
309 5 322 334 51 120 118 
310 3 300 36 313 
311 5 282 4 278 283 368 
312 5 366 17 139 348 262 
313 3 300 310 36 
314 7 323 293 319 288 261 371 46 
315 7 65 225 238 365 271 343 314 
316 5 154 338 39 258 80 
317 6 63 296 87 238 380 97 
318 5 376 193 7 377 290 
319 7 46 257 288 261 286 293 314 
320 7 291 292 15 61 74 337 304 
321 7 127 60 200 299 98 175 202 
322 6 334 309 51 120 247 118 
323 7 293 314 288 371 32 261 271 
324 7 167 27 362 369 262 149 348 
325 7 216 48 198 229 253 110 213 
326 6 347 280 331 21 282 311 
327 7 223 47 125 24 364 119 122 
328 3 272 80 39 
329 4 302 214 42 303 
330 7 277 284 58 212 142 259 308 
331 6 280 326 352 21 347 353 
332 5 99 93 39 154 80 
333 7 54 34 292 61 15 320 268 
334 6 322 309 120 51 118 247 
335 3 269 32 371 
336 7 43 374 372 226 215 358 263 
337 6 74 304 15 291 292 320 
338 5 258 80 316 39 272 
339 5 77 56 207 295 195 
340 6 297 279 94 40 375 84 
341 1 43 
342 7 110 229 198 48 325 298 216 
343 7 87 271 32 269 238 65 296 
344 7 129 96 44 131 183 224 190 
345 7 227 147 349 128 237 12 153 
346 7 210 220 251 132 306 67 209 
347 6 326 280 331 21 282 311 
348 6 262 17 369 366 270 312 
349 7 153 227 12 147 345 18 172 
350 6 75 13 233 81 113 252 
351 5 249 9 202 84 79 
352 5 331 280 353 21 326 
353 5 352 367 331 280 21 
354 7 68 73 160 100 144 19 244 
355 6 190 224 82 160 68 232 
356 7 197 368 283 4 311 282 278 
357 7 380 194 63 50 287 234 289 
358 6 374 295 372 341 43 336 
359 2 49 290 
360 2 21 367 
361 5 83 155 3 7 8 
362 6 149 167 27 324 303 42 
363 7 90 168 171 211 176 62 370 
364 7 24 134 125 122 230 327 47 
365 4 315 65 225 238 
366 6 17 312 139 270 348 262 
367 3 353 360 21 
368 7 283 356 197 4 311 282 278 
369 4 348 262 324 17 
370 6 176 62 107 90 199 123 
371 6 261 288 293 32 323 257 
372 7 374 226 358 295 263 336 43 
373 3 180 58 76 
374 7 372 358 295 226 336 263 43 
375 7 40 94 301 279 297 340 140 
376 5 318 193 377 7 290 
377 4 290 376 318 49 
378 7 49 3 155 209 83 7 273 
379 5 201 189 203 2 218 
380 7 357 194 63 234 242 50 287 
DEPOT_SECTION
   1
   -1
EOF
