NAME :  X-n655-kX-w261-c7.cctp
COMMENT : 	Adapted by Maziero, Usberti and Cavellucci from the Uchoa, Pecin, Pessoa, Poggi, Subramanian, and Vidal (2013)
TYPE :  CCTP
DIMENSION :    641
EDGE_WEIGHT_TYPE : 	EUC_2D	
CAPACITY : 	5
VERTICES_WITHIN_COVERAGE :  7
VERTICES_WITH_DEMAND : 	261
NODE_COORD_SECTION
1 500 500
2 346 793
3 692 966
4 171 666
5 287 795
6 133 668
7 704 959
8 400 795
9 195 897
10 845 931
11 829 724
12 300 860
13 218 829
14 116 780
15 237 631
16 126 681
17 825 922
18 315 913
19 271 769
20 530 917
21 156 900
22 265 808
23 171 742
24 388 776
25 153 664
26 393 855
27 320 751
28 594 862
29 213 810
30 723 924
31 192 877
32 661 910
33 153 729
34 334 812
35 558 944
36 502 783
37 266 747
38 23 753
39 180 584
40 702 854
41 354 649
42 412 709
43 721 928
44 168 674
45 364 640
46 375 727
47 247 977
48 332 853
49 664 929
50 646 901
51 248 723
52 116 628
53 123 690
54 247 539
55 715 966
56 314 712
57 237 747
58 202 679
59 409 946
60 684 879
61 142 576
62 204 636
63 440 817
64 697 882
65 772 977
66 177 889
67 341 787
68 391 725
69 82 764
70 734 834
71 352 732
72 646 553
73 102 631
74 354 612
75 374 865
76 421 812
77 335 835
78 646 931
79 560 910
80 702 965
81 273 790
82 329 750
83 300 586
84 850 855
85 235 683
86 393 953
87 389 923
88 341 851
89 781 946
90 329 862
91 472 873
92 356 895
93 194 733
94 53 777
95 133 596
96 606 971
97 273 812
98 223 812
99 156 820
100 317 650
101 177 790
102 389 747
103 663 944
104 336 940
105 284 739
106 737 977
107 249 956
108 433 852
109 294 856
110 285 879
111 280 818
112 175 885
113 295 747
114 669 902
115 763 969
116 138 632
117 193 593
118 220 818
119 145 800
120 739 960
121 72 672
122 752 940
123 639 894
124 329 726
125 799 987
126 118 343
127 660 917
128 382 741
129 242 626
130 164 824
131 350 881
132 509 886
133 190 416
134 72 656
135 353 659
136 132 677
137 364 771
138 893 900
139 140 645
140 411 757
141 397 805
142 171 644
143 488 625
144 260 816
145 764 980
146 149 657
147 769 855
148 716 925
149 191 843
150 566 966
151 620 908
152 358 727
153 268 705
154 406 927
155 139 943
156 192 762
157 549 931
158 177 664
159 433 707
160 301 753
161 361 840
162 120 764
163 178 664
164 109 751
165 318 529
166 419 952
167 309 737
168 289 787
169 350 812
170 88 794
171 151 658
172 185 883
173 411 467
174 603 872
175 342 708
176 317 747
177 579 988
178 329 555
179 361 731
180 37 706
181 394 558
182 154 745
183 324 703
184 370 912
185 727 900
186 150 702
187 383 694
188 151 679
189 149 654
190 144 638
191 269 635
192 212 842
193 217 644
194 250 597
195 835 953
196 620 949
197 324 910
198 344 793
199 176 922
200 370 746
201 204 682
202 262 830
203 328 484
204 385 931
205 706 957
206 201 655
207 300 737
208 379 791
209 728 720
210 296 858
211 154 613
212 663 942
213 135 908
214 805 910
215 646 872
216 113 692
217 349 554
218 290 737
219 430 668
220 588 977
221 236 656
222 370 871
223 286 727
224 89 671
225 136 667
226 195 761
227 188 705
228 377 846
229 375 728
230 269 763
231 235 694
232 452 826
233 281 909
234 215 585
235 325 707
236 419 817
237 392 704
238 152 544
239 136 580
240 643 996
241 198 731
242 155 556
243 345 859
244 99 666
245 519 722
246 168 757
247 295 824
248 676 800
249 229 686
250 772 941
251 294 729
252 637 926
253 464 795
254 346 681
255 327 758
256 665 965
257 98 690
258 852 860
259 770 889
260 124 598
261 235 831
262 680 969
263 323 800
264 525 931
265 120 772
266 839 978
267 214 652
268 660 965
269 297 626
270 236 738
271 148 850
272 138 699
273 336 773
274 605 738
275 190 648
276 119 620
277 198 853
278 288 514
279 888 888
280 165 542
281 682 934
282 794 844
283 759 985
284 416 819
285 724 966
286 403 812
287 270 789
288 482 818
289 69 537
290 734 946
291 346 556
292 644 943
293 681 943
294 323 765
295 514 782
296 141 713
297 624 870
298 625 952
299 356 923
300 356 576
301 328 801
302 185 648
303 287 633
304 689 956
305 645 958
306 137 895
307 299 975
308 448 752
309 348 642
310 151 631
311 675 910
312 245 776
313 434 705
314 283 804
315 889 924
316 187 781
317 486 662
318 350 844
319 519 720
320 720 924
321 259 800
322 514 712
323 443 521
324 421 818
325 174 765
326 750 969
327 481 831
328 281 600
329 141 959
330 299 730
331 320 840
332 341 651
333 365 730
334 789 953
335 680 906
336 145 740
337 304 810
338 290 741
339 467 973
340 600 980
341 288 613
342 309 761
343 153 907
344 307 834
345 335 809
346 989 940
347 176 655
348 759 975
349 345 821
350 658 971
351 749 841
352 380 754
353 316 640
354 177 803
355 133 650
356 254 803
357 293 782
358 493 855
359 704 715
360 102 745
361 226 806
362 147 600
363 437 837
364 262 671
365 152 706
366 310 738
367 146 594
368 864 905
369 271 792
370 317 845
371 607 724
372 407 563
373 469 986
374 693 918
375 235 641
376 405 833
377 617 890
378 508 893
379 361 822
380 712 984
381 577 895
382 225 550
383 171 397
384 391 780
385 418 845
386 155 768
387 135 553
388 381 894
389 383 713
390 631 842
391 313 899
392 777 738
393 289 831
394 699 923
395 323 706
396 309 774
397 232 689
398 232 654
399 540 966
400 373 830
401 137 742
402 205 693
403 178 829
404 203 663
405 354 767
406 212 657
407 370 890
408 300 820
409 142 643
410 274 816
411 358 665
412 330 387
413 152 815
414 522 768
415 232 688
416 179 630
417 359 620
418 276 725
419 269 741
420 300 881
421 234 495
422 848 971
423 141 576
424 158 722
425 140 687
426 293 767
427 250 870
428 571 769
429 162 708
430 142 766
431 470 860
432 409 941
433 293 643
434 219 907
435 438 500
436 381 689
437 186 778
438 298 706
439 149 681
440 745 731
441 314 700
442 218 889
443 286 867
444 331 662
445 817 976
446 210 767
447 60 635
448 290 814
449 356 864
450 377 751
451 759 947
452 209 914
453 348 823
454 600 940
455 283 741
456 219 943
457 334 754
458 146 701
459 245 914
460 333 697
461 700 975
462 354 815
463 281 903
464 393 876
465 116 629
466 350 746
467 457 836
468 360 833
469 723 793
470 322 922
471 373 835
472 182 725
473 612 984
474 276 788
475 337 871
476 157 712
477 180 718
478 110 751
479 478 864
480 198 713
481 97 782
482 366 753
483 705 860
484 251 740
485 331 736
486 678 955
487 357 819
488 170 770
489 310 710
490 138 651
491 157 698
492 299 520
493 314 735
494 753 794
495 116 779
496 25 788
497 115 837
498 191 605
499 39 803
500 269 809
501 333 845
502 103 581
503 390 849
504 678 973
505 368 739
506 218 733
507 698 973
508 742 935
509 338 814
510 272 632
511 96 621
512 200 778
513 741 911
514 728 990
515 374 755
516 628 922
517 713 842
518 426 574
519 243 643
520 736 891
521 379 850
522 348 845
523 370 701
524 281 761
525 121 730
526 189 703
527 405 747
528 722 827
529 380 638
530 192 679
531 323 680
532 194 723
533 675 994
534 391 872
535 754 984
536 319 838
537 289 917
538 466 764
539 409 807
540 302 908
541 140 817
542 303 803
543 479 913
544 42 548
545 349 834
546 686 901
547 379 698
548 659 924
549 362 867
550 290 701
551 157 702
552 289 978
553 239 744
554 312 820
555 742 986
556 195 565
557 339 789
558 191 700
559 341 972
560 200 725
561 219 685
562 378 793
563 329 846
564 326 617
565 640 793
566 317 866
567 279 817
568 942 960
569 369 728
570 688 978
571 190 881
572 136 608
573 184 611
574 85 689
575 507 533
576 326 860
577 279 803
578 688 984
579 653 911
580 360 747
581 319 744
582 390 741
583 252 873
584 657 981
585 104 721
586 363 911
587 154 695
588 667 910
589 185 714
590 896 805
591 73 709
592 324 725
593 258 810
594 233 734
595 794 896
596 267 664
597 84 667
598 692 953
599 299 858
600 193 780
601 647 844
602 427 680
603 57 738
604 283 655
605 146 694
606 263 686
607 105 706
608 241 837
609 312 704
610 199 748
611 370 882
612 227 644
613 331 670
614 295 836
615 59 723
616 201 647
617 662 737
618 249 655
619 183 835
620 343 587
621 285 816
622 770 930
623 354 804
624 331 901
625 817 995
626 172 670
627 397 950
628 391 900
629 309 797
630 324 959
631 437 695
632 77 613
633 361 894
634 721 986
635 272 770
636 688 871
637 708 917
638 380 847
639 359 931
640 83 847
641 185 712
DEMAND_SECTION
2 1
3 1
4 1
5 1
6 1
7 1
8 1
9 1
10 1
11 1
12 1
13 1
14 1
15 1
16 1
17 1
18 1
19 1
20 1
21 1
22 1
23 1
24 1
25 1
26 1
27 1
28 1
29 1
30 1
31 1
32 1
33 1
34 1
35 1
36 1
37 1
38 1
39 1
40 1
41 1
42 1
43 1
44 1
45 1
46 1
47 1
48 1
49 1
50 1
51 1
52 1
53 1
54 1
55 1
56 1
57 1
58 1
59 1
60 1
61 1
62 1
63 1
64 1
65 1
66 1
67 1
68 1
69 1
70 1
71 1
72 1
73 1
74 1
75 1
76 1
77 1
78 1
79 1
80 1
81 1
82 1
83 1
84 1
85 1
86 1
87 1
88 1
89 1
90 1
91 1
92 1
93 1
94 1
95 1
96 1
97 1
98 1
99 1
100 1
101 1
102 1
103 1
104 1
105 1
106 1
107 1
108 1
109 1
110 1
111 1
112 1
113 1
114 1
115 1
116 1
117 1
118 1
119 1
120 1
121 1
122 1
123 1
124 1
125 1
126 1
127 1
128 1
129 1
130 1
131 1
132 1
133 1
134 1
135 1
136 1
137 1
138 1
139 1
140 1
141 1
142 1
143 1
144 1
145 1
146 1
147 1
148 1
149 1
150 1
151 1
152 1
153 1
154 1
155 1
156 1
157 1
158 1
159 1
160 1
161 1
162 1
163 1
164 1
165 1
166 1
167 1
168 1
169 1
170 1
171 1
172 1
173 1
174 1
175 1
176 1
177 1
178 1
179 1
180 1
181 1
182 1
183 1
184 1
185 1
186 1
187 1
188 1
189 1
190 1
191 1
192 1
193 1
194 1
195 1
196 1
197 1
198 1
199 1
200 1
201 1
202 1
203 1
204 1
205 1
206 1
207 1
208 1
209 1
210 1
211 1
212 1
213 1
214 1
215 1
216 1
217 1
218 1
219 1
220 1
221 1
222 1
223 1
224 1
225 1
226 1
227 1
228 1
229 1
230 1
231 1
232 1
233 1
234 1
235 1
236 1
237 1
238 1
239 1
240 1
241 1
242 1
243 1
244 1
245 1
246 1
247 1
248 1
249 1
250 1
251 1
252 1
253 1
254 1
255 1
256 1
257 1
258 1
259 1
260 1
261 1
262 1
COVERAGE_SECTION
2 7 198 67 557 623 169 345 301 
3 7 507 80 304 262 461 570 598 
4 7 626 158 163 44 347 25 142 
5 7 168 314 577 474 357 81 369 
6 7 225 136 16 355 490 146 25 
7 7 205 80 55 598 3 304 507 
8 7 141 539 286 384 208 24 562 
9 7 172 571 31 66 452 112 442 
10 7 17 195 368 422 214 315 266 
11 7 392 440 209 494 590 282 359 
12 7 599 210 109 443 566 420 370 
13 7 118 192 261 98 29 361 608 
14 7 495 265 162 481 164 430 478 
15 7 129 375 519 612 193 398 221 
16 7 136 53 6 425 216 225 272 
17 7 10 214 195 595 368 334 89 
18 7 197 470 391 540 624 537 104 
19 7 635 230 524 287 474 81 426 
20 7 264 157 79 378 132 35 399 
21 7 343 306 213 66 112 199 172 
22 7 500 593 97 144 321 356 410 
23 7 246 182 472 33 325 424 93 
24 7 384 208 562 8 352 137 515 
25 7 171 146 189 188 225 439 4 
26 7 503 521 638 534 228 75 464 
27 7 176 581 82 255 294 457 342 
28 7 174 297 377 381 390 151 215 
29 6 98 118 361 13 261 192 
30 7 320 43 148 637 508 513 185 
31 7 571 172 66 112 9 277 442 
32 7 588 127 579 114 311 548 50 
33 7 424 336 182 476 296 401 23 
34 7 345 509 301 349 169 263 453 
35 7 157 150 399 79 264 20 454 
36 7 295 414 253 288 538 327 308 
37 7 419 230 484 455 105 524 19 
38 7 496 603 94 615 180 499 69 
39 7 117 498 556 573 234 367 362 
40 7 483 517 636 64 60 528 70 
41 7 309 135 45 332 411 444 529 
42 7 159 237 313 68 389 631 187 
43 7 30 320 148 637 290 508 394 
44 7 626 4 158 163 25 188 439 
45 7 41 309 529 417 135 332 411 
46 7 229 569 333 505 179 68 128 
47 6 107 552 456 307 459 537 
48 7 501 563 88 90 576 243 370 
49 7 548 127 212 103 78 32 281 
50 7 123 579 32 127 114 588 548 
51 7 484 270 594 553 57 153 418 
52 7 465 276 73 511 116 355 572 
53 7 16 216 136 272 425 605 6 
54 7 382 421 278 492 234 194 556 
55 7 285 7 80 205 461 380 507 
56 7 489 609 395 235 441 183 592 
57 7 553 270 594 484 506 51 37 
58 7 201 530 402 404 561 206 406 
59 7 432 166 627 86 154 204 87 
60 7 636 64 546 114 335 483 40 
61 7 423 239 367 95 242 387 362 
62 7 616 193 275 206 267 302 406 
63 7 232 324 76 363 236 284 467 
64 7 60 636 546 483 40 335 114 
65 7 145 115 348 283 535 326 125 
66 7 112 172 571 31 9 21 343 
67 7 557 198 2 273 301 623 263 
68 7 389 46 229 582 128 237 102 
69 7 481 360 164 170 478 94 603 
70 7 528 351 517 40 483 147 469 
71 7 152 179 333 466 505 569 580 
72 7 575 359 143 371 617 209 274 
73 7 511 52 465 276 632 244 116 
74 7 417 620 564 45 309 300 41 
75 7 222 549 521 611 449 534 228 
76 7 236 324 284 539 286 63 141 
77 7 501 563 545 331 522 536 88 
78 7 252 292 548 49 127 212 516 
79 7 381 157 20 35 264 454 378 
80 7 7 205 507 3 461 55 304 
81 6 287 369 474 577 5 168 
82 7 457 255 27 176 581 485 294 
83 7 328 341 269 564 178 620 303 
84 7 258 279 368 282 138 590 595 
85 7 415 249 397 231 561 221 606 
86 7 627 59 432 204 166 154 87 
87 7 204 154 184 628 432 627 586 
88 7 48 243 522 501 318 563 90 
89 7 250 334 622 451 115 122 65 
90 7 576 48 475 566 88 243 563 
91 7 479 431 358 132 467 378 543 
92 7 633 131 407 586 611 184 388 
93 7 241 532 560 472 610 480 477 
94 7 496 499 69 38 170 603 481 
95 7 260 572 367 362 239 61 423 
96 7 340 473 220 196 298 177 454 
97 7 410 500 567 22 111 577 314 
98 6 118 361 29 13 261 608 
99 7 413 130 541 119 403 354 271 
100 7 353 444 332 613 433 269 531 
101 7 316 354 437 600 488 325 512 
102 7 582 128 352 450 527 515 200 
103 7 212 49 293 292 486 548 78 
104 7 630 470 639 299 197 559 18 
105 7 455 218 338 223 113 251 419 
106 7 555 326 514 120 285 535 634 
107 5 47 456 459 552 307 
108 7 363 385 467 232 376 63 324 
109 6 210 599 12 443 614 110 
110 7 443 420 12 210 463 109 599 
111 7 567 621 410 97 448 314 500 
112 7 66 172 571 31 9 21 343 
113 7 160 338 207 218 455 105 167 
114 7 588 311 32 335 127 546 579 
115 7 348 145 65 326 283 535 451 
116 7 190 409 139 310 355 490 52 
117 7 498 39 573 234 556 416 62 
118 7 98 13 29 361 261 192 608 
119 7 413 541 99 130 354 101 386 
120 7 326 290 285 106 122 451 55 
121 7 597 134 224 574 244 257 591 
122 7 451 508 290 250 622 120 326 
123 7 50 377 579 215 151 32 297 
124 7 592 485 493 235 56 395 581 
125 7 625 445 65 334 145 115 283 
126 7 383 133 421 289 238 280 387 
127 7 32 548 579 588 49 114 311 
128 7 582 102 450 200 352 505 229 
129 7 15 375 519 612 191 194 398 
130 7 99 403 413 619 354 541 119 
131 7 92 475 633 449 549 611 222 
132 7 378 358 20 479 91 543 431 
133 7 383 421 126 280 238 54 382 
134 7 121 597 224 447 244 574 73 
135 7 411 41 332 309 45 444 254 
136 7 16 6 225 425 53 439 188 
137 7 405 482 515 352 450 580 24 
138 7 279 315 368 10 258 84 17 
139 7 409 490 190 355 116 189 146 
140 7 527 102 582 24 384 352 128 
141 7 286 8 539 562 208 284 76 
142 7 347 302 416 275 158 163 4 
143 7 317 219 518 602 631 322 575 
144 7 593 22 500 97 202 356 410 
145 7 283 348 65 115 535 326 555 
146 7 171 189 25 490 139 225 409 
147 7 351 282 259 70 595 520 528 
148 7 320 43 30 637 394 374 185 
149 7 619 277 403 192 13 130 31 
150 7 35 220 177 399 340 157 96 
151 7 516 377 123 252 50 579 78 
152 7 179 71 333 569 505 46 229 
153 7 606 418 550 51 223 438 231 
154 7 432 87 59 204 627 166 86 
155 7 329 213 343 199 21 306 66 
156 7 226 610 437 325 512 600 446 
157 7 35 20 79 264 399 150 381 
158 7 163 4 626 347 44 302 142 
159 7 313 631 42 602 219 237 68 
160 7 113 342 207 338 426 176 366 
161 7 468 318 471 545 522 400 228 
162 7 265 14 478 495 164 430 360 
163 7 158 4 626 347 44 302 275 
164 7 478 360 162 265 525 401 495 
165 7 492 178 278 291 217 203 83 
166 7 59 432 627 86 154 204 87 
167 7 366 493 207 330 581 176 113 
168 7 357 5 474 81 314 287 369 
169 7 462 623 349 487 453 509 345 
170 7 481 14 69 495 94 265 162 
171 7 146 189 25 490 139 225 409 
172 7 571 31 66 112 9 277 21 
173 7 435 323 203 181 372 217 518 
174 7 28 297 377 381 151 390 123 
175 7 460 235 183 395 124 152 592 
176 7 581 27 366 82 493 167 255 
177 7 220 340 150 96 473 399 35 
178 7 291 217 165 300 620 83 492 
179 7 333 152 71 569 505 229 46 
180 7 615 591 603 38 121 574 134 
181 7 372 518 300 217 291 620 323 
182 7 336 33 23 401 246 386 424 
183 7 395 235 441 460 609 56 489 
184 7 586 299 633 388 87 92 407 
185 7 520 513 30 320 637 148 43 
186 7 365 458 551 491 587 605 272 
187 7 436 547 237 523 389 68 42 
188 7 439 425 25 587 605 44 136 
189 7 146 171 25 490 139 409 355 
190 7 409 116 139 310 490 355 189 
191 7 510 303 604 433 519 129 618 
192 7 13 277 149 118 261 608 619 
193 7 267 612 406 62 616 375 398 
194 7 129 328 15 234 341 510 191 
195 7 422 10 266 445 17 334 625 
196 7 298 454 292 96 305 516 252 
197 7 18 624 470 391 540 104 92 
198 7 2 557 67 623 301 345 169 
199 7 343 21 9 66 452 112 172 
200 7 505 482 450 515 580 128 352 
201 7 58 402 530 561 404 558 249 
202 7 144 410 593 97 567 22 111 
203 7 165 492 278 178 217 291 173 
204 7 87 154 627 86 184 432 639 
205 7 7 80 55 598 3 304 507 
206 7 404 616 406 267 275 302 62 
207 7 330 167 218 251 366 113 338 
208 7 562 384 24 8 141 137 623 
209 7 440 359 392 617 469 494 248 
210 7 109 599 12 443 566 614 420 
211 7 362 310 572 367 116 95 190 
212 7 103 49 293 548 292 78 486 
213 7 306 343 21 155 199 66 112 
214 7 595 17 622 259 89 10 250 
215 7 297 123 601 50 377 390 114 
216 7 53 257 607 16 136 272 425 
217 7 291 178 300 620 165 181 74 
218 7 338 105 455 251 207 113 223 
219 7 602 631 313 159 42 237 436 
220 7 340 177 96 150 473 454 196 
221 7 398 618 375 519 612 193 267 
222 7 75 549 611 449 407 534 131 
223 7 251 418 218 105 330 455 338 
224 7 597 244 121 574 257 134 216 
225 7 6 136 146 490 16 25 171 
226 7 156 610 446 512 437 600 325 
227 7 526 558 641 589 480 477 532 
228 7 638 521 471 503 400 161 26 
229 7 46 569 333 505 179 128 68 
230 7 19 635 524 37 419 426 287 
231 7 397 415 249 85 561 606 402 
232 7 467 63 363 327 288 108 324 
233 7 463 537 540 110 18 391 420 
234 7 117 556 498 39 382 194 573 
235 7 395 183 56 441 460 609 489 
236 7 324 284 76 539 286 63 376 
237 7 187 389 547 436 42 68 523 
238 7 242 280 387 61 423 239 556 
239 7 423 61 95 367 260 362 387 
240 7 584 350 533 473 268 256 305 
241 7 93 560 532 472 610 480 506 
242 7 238 280 387 61 423 239 39 
243 7 88 449 48 475 522 90 318 
244 7 224 597 257 574 121 134 216 
245 7 319 322 414 295 36 317 538 
246 7 325 488 23 386 182 156 226 
247 7 408 393 448 614 621 111 344 
248 7 565 469 528 601 517 40 390 
249 7 397 415 85 231 561 201 402 
250 7 89 622 451 122 334 115 508 
251 7 330 223 218 207 338 105 455 
252 7 78 516 292 548 579 127 151 
253 7 288 538 63 232 36 327 467 
254 7 613 411 460 135 531 444 175 
255 7 82 294 457 27 176 581 273 
256 7 268 350 504 262 486 584 103 
257 7 574 216 607 224 244 53 597 
258 7 84 279 368 138 282 17 595 
259 7 595 147 520 513 214 622 185 
260 7 95 572 239 367 276 362 502 
261 7 608 13 118 98 192 202 361 
262 7 504 3 570 486 256 304 578 
263 5 301 629 345 34 557 
264 7 20 157 35 399 79 378 132 
265 7 162 495 14 430 478 164 481 
266 7 422 445 195 625 125 10 334 
267 7 406 193 206 616 612 404 398 
268 7 256 350 584 305 262 504 103 
269 7 303 341 433 353 510 191 564 
270 7 594 553 57 484 51 506 37 
271 7 99 130 541 413 497 403 619 
272 7 458 605 186 425 296 365 587 
273 6 67 294 557 255 405 457 
274 7 371 428 617 565 245 319 414 
275 7 302 616 206 347 62 142 163 
276 7 52 465 73 572 116 260 511 
277 7 149 192 619 31 571 13 403 
278 7 492 165 54 203 421 178 291 
279 7 138 368 315 258 84 10 17 
280 7 238 242 387 556 61 423 39 
281 7 293 49 374 394 103 212 486 
282 7 147 351 259 595 84 258 70 
283 7 535 145 348 65 115 555 326 
284 7 236 324 76 539 286 376 63 
285 7 55 120 106 205 634 7 80 
286 7 539 141 284 8 236 76 324 
287 6 81 369 474 321 577 5 
288 7 327 253 232 467 358 36 63 
289 7 544 502 387 632 239 260 423 
290 7 508 120 122 43 285 30 451 
291 7 217 178 300 620 165 181 83 
292 7 78 305 252 103 212 298 49 
293 7 281 486 304 598 103 212 49 
294 7 255 27 273 342 82 457 396 
295 7 36 414 288 538 253 428 327 
296 7 365 458 186 272 476 424 551 
297 7 174 377 215 123 390 28 601 
298 7 196 292 305 96 454 252 78 
299 7 639 586 184 104 92 633 204 
300 7 620 291 217 178 74 181 417 
301 6 263 345 34 509 557 198 
302 7 275 347 142 616 163 206 158 
303 7 269 433 510 191 341 604 353 
304 7 598 3 486 7 293 80 262 
305 7 292 268 350 256 298 103 212 
306 7 213 21 343 112 66 271 199 
307 7 552 630 559 104 47 107 470 
308 7 538 140 527 253 159 313 42 
309 7 41 332 45 135 411 417 444 
310 7 190 116 409 139 211 189 142 
311 7 335 588 114 32 546 127 374 
312 2 19 230 
313 7 159 631 42 602 219 237 68 
314 7 577 5 448 621 97 111 567 
315 7 138 368 279 10 195 422 17 
316 7 437 600 101 512 156 488 325 
317 7 143 219 322 631 602 313 319 
318 7 522 545 88 161 468 243 77 
319 7 245 322 414 295 36 317 538 
320 7 30 43 148 637 394 185 508 
321 4 356 22 593 500 
322 7 319 245 317 414 295 538 36 
323 7 435 372 518 181 173 575 217 
324 7 236 284 76 539 63 286 376 
325 7 488 246 156 437 386 226 316 
326 7 348 115 120 106 535 145 283 
327 7 288 467 358 232 431 479 253 
328 7 341 83 194 269 510 303 191 
329 7 155 199 213 343 21 306 66 
330 7 251 207 218 167 223 338 366 
331 6 536 370 563 344 501 77 
332 7 309 41 135 444 613 411 100 
333 7 179 569 152 505 46 229 71 
334 7 89 250 65 622 115 451 125 
335 7 311 546 114 588 374 32 127 
336 7 401 182 33 424 23 430 525 
337 6 542 408 554 629 448 247 
338 7 218 105 455 113 207 251 330 
339 7 373 166 543 59 432 264 399 
340 7 96 220 473 177 150 196 298 
341 7 328 269 303 510 191 83 433 
342 7 160 396 27 294 176 426 255 
343 7 21 213 306 199 66 112 155 
344 6 614 536 331 370 554 247 
345 7 34 509 301 169 263 349 198 
346 7 568 315 138 279 368 10 422 
347 7 158 163 302 4 142 275 626 
348 7 115 145 283 535 326 65 555 
349 7 453 169 509 462 487 34 545 
350 7 268 256 584 305 504 262 486 
351 7 70 147 528 517 282 494 483 
352 7 450 515 102 128 200 482 582 
353 7 100 433 269 564 332 444 303 
354 7 101 316 130 403 99 437 413 
355 7 490 139 409 189 190 146 225 
356 3 321 593 22 
357 7 168 5 426 396 474 81 629 
358 7 479 431 327 91 132 288 378 
359 7 209 440 617 392 469 248 494 
360 7 164 478 525 585 162 69 265 
361 5 98 118 29 13 261 
362 7 367 572 95 211 239 260 61 
363 7 108 232 63 467 385 324 236 
364 6 596 606 618 604 85 221 
365 7 186 551 458 476 491 429 587 
366 7 167 493 207 176 581 330 27 
367 7 362 95 239 572 61 423 211 
368 7 138 279 315 10 17 258 84 
369 6 81 287 474 321 577 5 
370 6 331 536 563 344 501 48 
371 7 274 617 428 565 245 319 322 
372 7 181 518 300 323 217 291 620 
373 7 339 166 59 399 543 432 264 
374 7 394 637 335 546 281 311 148 
375 7 519 612 15 398 221 129 193 
376 7 284 385 236 286 324 503 26 
377 7 151 297 123 174 50 215 516 
378 7 132 20 543 91 358 264 479 
379 7 487 462 468 453 400 169 349 
380 5 634 461 514 55 507 
381 7 79 174 28 377 151 157 454 
382 7 54 556 234 194 117 39 421 
383 7 133 126 421 280 238 412 242 
384 7 24 208 8 562 141 137 352 
385 7 108 376 363 284 26 324 236 
386 7 430 488 246 325 182 336 23 
387 7 238 242 61 423 239 280 367 
388 7 407 628 611 633 184 464 534 
389 7 237 68 46 547 229 523 187 
390 7 601 297 215 174 28 377 565 
391 7 18 540 197 624 420 470 537 
392 7 440 209 11 494 359 469 70 
393 7 614 247 111 408 621 448 567 
394 7 374 637 148 281 320 43 30 
395 7 235 183 56 441 609 460 489 
396 5 342 294 426 357 160 
397 7 415 249 231 85 561 402 201 
398 7 221 612 375 519 618 193 267 
399 7 150 35 157 264 177 220 20 
400 7 471 468 379 161 228 638 487 
401 7 336 182 525 33 430 162 478 
402 7 201 58 558 561 526 530 227 
403 7 619 130 149 99 354 413 277 
404 7 206 406 58 267 616 201 530 
405 7 137 482 273 466 580 515 67 
406 7 267 206 404 193 616 398 612 
407 7 611 633 388 92 222 131 184 
408 7 247 337 448 554 344 393 621 
409 7 139 190 490 355 116 189 310 
410 7 97 567 111 500 621 22 144 
411 7 135 41 254 332 309 45 444 
412 7 203 173 278 492 133 165 421 
413 7 99 541 130 119 354 403 101 
414 7 295 36 245 319 428 538 322 
415 7 397 249 85 231 561 402 201 
416 7 142 302 573 275 347 62 310 
417 7 74 45 309 529 41 564 332 
418 7 223 105 419 455 218 251 338 
419 7 37 455 105 418 484 218 338 
420 7 110 443 12 391 210 566 599 
421 7 54 382 278 492 556 280 133 
422 7 266 195 445 625 10 125 17 
423 7 61 239 367 95 242 387 362 
424 7 33 476 429 365 296 551 186 
425 7 605 439 272 136 188 16 458 
426 7 524 357 160 342 396 113 168 
427 5 583 608 110 443 442 
428 7 274 414 295 371 36 245 319 
429 7 476 551 365 491 186 424 587 
430 7 386 162 265 182 401 336 246 
431 7 479 91 358 467 327 108 232 
432 7 59 154 166 627 86 204 87 
433 7 303 604 269 353 510 100 191 
434 4 452 442 9 459 
435 7 323 173 372 181 518 575 217 
436 7 187 547 523 237 389 411 254 
437 7 316 600 512 101 156 325 488 
438 7 550 489 609 56 441 251 223 
439 7 188 425 605 587 25 136 225 
440 7 209 392 359 494 469 617 11 
441 7 609 183 395 489 56 235 438 
442 4 434 9 452 31 
443 7 110 210 109 12 599 420 566 
444 7 613 332 100 531 135 254 41 
445 7 625 125 266 195 422 334 65 
446 7 512 226 156 600 610 437 316 
447 7 134 632 121 511 597 73 224 
448 7 621 111 247 567 314 408 337 
449 7 549 243 222 75 131 88 475 
450 7 352 515 200 128 482 102 505 
451 7 122 250 622 508 89 115 120 
452 5 434 9 442 456 199 
453 7 349 462 487 169 545 379 509 
454 7 196 298 96 516 151 220 252 
455 7 105 338 218 113 223 419 251 
456 5 452 107 434 459 47 
457 7 82 255 27 294 176 466 485 
458 7 186 605 272 365 587 491 551 
459 4 434 233 452 442 
460 7 183 235 395 175 441 531 254 
461 7 507 80 3 570 380 578 7 
462 7 169 487 379 453 349 623 509 
463 7 233 537 540 110 420 391 18 
464 7 534 26 75 388 222 611 628 
465 7 52 276 73 116 511 355 139 
466 7 580 71 482 457 179 505 200 
467 7 232 363 63 327 431 108 288 
468 7 161 379 545 400 471 487 318 
469 7 494 528 70 248 517 351 40 
470 7 18 197 104 624 540 391 537 
471 7 400 228 161 468 638 521 379 
472 7 477 589 532 641 93 241 560 
473 7 340 96 220 177 240 298 196 
474 7 81 287 369 5 168 577 314 
475 7 90 243 131 576 48 88 449 
476 7 429 365 424 551 186 491 296 
477 7 589 472 641 227 532 526 480 
478 7 164 360 162 265 525 401 495 
479 7 431 91 358 327 467 132 378 
480 7 532 560 227 526 589 641 558 
481 7 170 14 495 69 265 162 164 
482 7 200 515 580 450 352 505 466 
483 7 40 517 636 64 60 528 70 
484 7 553 270 57 37 51 419 594 
485 7 124 592 82 581 493 176 457 
486 7 304 293 262 598 256 3 504 
487 7 379 462 169 453 349 468 623 
488 7 325 246 386 437 316 101 156 
489 7 56 609 441 438 395 235 183 
490 7 355 139 409 189 146 190 171 
491 7 551 587 186 365 429 458 605 
492 7 278 165 178 203 54 291 217 
493 7 167 366 581 176 207 592 330 
494 7 469 70 528 351 392 517 147 
495 7 14 265 162 481 164 430 478 
496 7 499 94 38 603 69 170 481 
497 7 541 640 271 413 99 119 130 
498 7 573 117 39 416 234 62 211 
499 7 496 94 170 38 69 481 640 
500 7 22 97 410 144 593 577 321 
501 7 563 48 77 88 331 522 370 
502 7 260 239 95 423 61 511 632 
503 7 26 638 521 228 376 471 75 
504 7 262 570 256 578 3 486 268 
505 7 200 333 179 569 580 229 46 
506 7 594 270 241 560 57 93 553 
507 7 461 3 80 570 7 578 55 
508 7 122 290 451 30 43 513 120 
509 7 34 345 349 169 453 301 462 
510 7 191 303 433 341 604 269 129 
511 7 73 52 632 465 276 260 447 
512 7 600 316 437 446 156 226 101 
513 7 185 520 30 508 320 43 148 
514 5 634 555 106 380 285 
515 7 450 352 482 200 128 580 102 
516 7 252 151 78 292 579 50 196 
517 7 40 528 483 70 351 636 64 
518 7 372 181 323 300 435 529 143 
519 7 375 15 618 221 398 612 129 
520 7 185 513 259 30 320 637 148 
521 7 638 228 503 26 75 471 161 
522 7 318 88 545 161 243 501 77 
523 7 547 187 436 389 237 46 229 
524 7 230 19 426 635 113 455 37 
525 7 585 401 164 360 478 296 336 
526 7 227 558 641 589 480 477 402 
527 7 140 102 582 128 68 352 450 
528 7 70 517 351 40 469 483 494 
529 7 45 41 417 309 135 411 74 
530 7 58 201 402 404 158 163 558 
531 7 613 444 460 441 183 254 395 
532 7 560 241 93 480 472 589 641 
533 6 578 504 570 584 262 350 
534 7 464 26 75 222 503 611 388 
535 7 283 348 145 555 326 115 106 
536 6 331 370 344 563 77 501 
537 7 233 463 540 18 391 470 197 
538 7 308 253 36 295 140 288 414 
539 7 286 141 76 236 284 8 324 
540 7 18 391 537 233 197 463 470 
541 7 413 99 119 130 497 271 354 
542 6 337 629 408 448 5 554 
543 7 378 132 91 264 479 20 431 
544 7 289 502 632 447 511 387 260 
545 7 318 453 468 522 161 77 349 
546 7 335 311 114 374 588 60 64 
547 7 187 436 523 237 389 46 68 
548 7 49 127 32 579 78 588 212 
549 7 449 222 75 611 131 243 407 
550 6 438 153 489 609 441 56 
551 7 491 365 186 429 587 476 458 
552 7 307 630 47 107 559 104 537 
553 7 57 270 594 484 51 506 37 
554 6 408 337 344 247 536 542 
555 7 106 535 514 283 326 348 634 
556 7 39 117 234 382 280 498 242 
557 7 67 198 2 273 301 263 345 
558 7 526 227 641 480 589 402 477 
559 7 630 104 307 639 299 552 470 
560 7 241 532 93 480 472 589 506 
561 7 249 415 397 201 85 402 58 
562 7 208 384 24 8 141 137 623 
563 7 501 48 331 370 77 88 536 
564 7 353 74 269 309 417 100 620 
565 7 248 390 601 617 274 428 371 
566 7 576 90 12 48 599 370 475 
567 7 111 410 621 97 448 500 314 
568 7 346 315 138 279 368 422 10 
569 7 333 46 229 179 152 505 71 
570 7 578 504 507 262 461 3 80 
571 7 31 172 66 112 9 277 442 
572 7 95 362 260 367 211 276 116 
573 7 498 117 416 39 211 62 142 
574 7 257 224 121 597 591 607 244 
575 7 323 435 518 143 372 173 181 
576 7 90 48 566 563 475 88 370 
577 7 314 5 97 500 81 369 410 
578 7 570 461 504 507 533 262 3 
579 7 32 127 50 548 588 114 49 
580 7 482 200 466 505 179 515 71 
581 7 176 27 493 366 82 167 485 
582 7 102 128 68 352 450 527 229 
583 5 427 110 443 442 608 
584 7 350 268 256 240 504 533 262 
585 7 607 525 360 164 216 478 257 
586 7 184 299 92 633 639 407 388 
587 7 491 186 551 605 458 365 429 
588 7 32 114 311 127 335 579 548 
589 7 641 477 227 472 526 480 532 
590 7 84 258 279 138 11 368 282 
591 7 615 574 257 607 585 603 180 
592 7 124 485 493 56 235 167 366 
593 6 144 22 356 321 500 97 
594 7 270 553 57 506 51 484 560 
595 7 214 259 17 622 147 250 89 
596 6 364 604 618 606 191 221 
597 7 224 121 244 134 574 257 216 
598 7 304 3 7 486 205 293 80 
599 7 12 210 109 443 566 370 614 
600 7 316 437 512 156 101 226 446 
601 7 390 215 297 636 60 123 565 
602 7 219 631 313 159 42 237 187 
603 7 615 591 69 38 180 94 360 
604 6 433 596 303 191 510 364 
605 7 458 587 186 272 425 491 365 
606 6 364 153 596 85 231 397 
607 7 585 216 257 53 574 525 591 
608 7 261 202 13 118 144 192 98 
609 7 441 489 56 395 183 235 438 
610 7 226 93 156 241 446 560 506 
611 7 407 222 633 388 75 549 92 
612 7 375 193 398 221 267 15 519 
613 7 444 531 254 332 100 135 411 
614 6 393 247 344 408 109 210 
615 7 603 591 180 574 585 38 69 
616 7 206 62 275 267 406 193 302 
617 7 359 274 371 565 248 209 440 
618 7 221 519 398 375 596 364 612 
619 7 403 149 130 277 192 99 354 
620 7 300 74 291 217 564 178 417 
621 7 111 448 567 410 314 97 247 
622 7 250 89 451 122 508 334 513 
623 7 169 462 2 198 487 349 379 
624 7 197 391 18 470 92 131 540 
625 7 445 125 266 422 195 65 334 
626 7 4 44 158 163 347 25 530 
627 7 86 59 432 166 204 154 87 
628 7 388 87 407 184 464 534 611 
629 5 542 263 337 301 5 
630 7 559 104 307 470 552 639 18 
631 7 313 159 602 219 42 237 187 
632 7 511 447 73 502 52 465 134 
633 7 92 407 611 131 586 184 388 
634 5 514 380 106 285 55 
635 7 19 230 524 474 287 81 426 
636 7 60 64 483 40 546 114 335 
637 7 148 394 320 374 30 43 185 
638 7 228 521 503 471 26 400 75 
639 7 299 586 184 104 204 87 92 
640 7 497 170 499 541 271 481 306 
641 7 589 227 477 526 472 480 558 
DEPOT_SECTION
   1
   -1
EOF
