NAME :  X-n655-kX-w130-c7.cctp
COMMENT : 	Adapted by Maziero, Usberti and Cavellucci from the Uchoa, Pecin, Pessoa, Poggi, Subramanian, and Vidal (2013)
TYPE :  CCTP
DIMENSION :    551
EDGE_WEIGHT_TYPE : 	EUC_2D	
CAPACITY : 	5
VERTICES_WITHIN_COVERAGE :  7
VERTICES_WITH_DEMAND : 	130
NODE_COORD_SECTION
1 500 500
2 346 793
3 692 966
4 171 666
5 287 795
6 133 668
7 704 959
8 400 795
9 195 897
10 845 931
11 829 724
12 300 860
13 218 829
14 116 780
15 237 631
16 126 681
17 825 922
18 315 913
19 271 769
20 530 917
21 156 900
22 265 808
23 171 742
24 388 776
25 153 664
26 393 855
27 320 751
28 594 862
29 213 810
30 723 924
31 192 877
32 661 910
33 153 729
34 334 812
35 558 944
36 502 783
37 266 747
38 23 753
39 180 584
40 702 854
41 354 649
42 412 709
43 721 928
44 168 674
45 364 640
46 375 727
47 247 977
48 332 853
49 664 929
50 646 901
51 248 723
52 116 628
53 123 690
54 247 539
55 715 966
56 314 712
57 237 747
58 202 679
59 409 946
60 684 879
61 142 576
62 204 636
63 440 817
64 697 882
65 772 977
66 177 889
67 341 787
68 391 725
69 82 764
70 734 834
71 352 732
72 646 553
73 102 631
74 354 612
75 374 865
76 421 812
77 335 835
78 646 931
79 560 910
80 702 965
81 273 790
82 329 750
83 300 586
84 850 855
85 235 683
86 393 953
87 389 923
88 341 851
89 781 946
90 329 862
91 472 873
92 356 895
93 194 733
94 53 777
95 133 596
96 606 971
97 273 812
98 223 812
99 156 820
100 317 650
101 177 790
102 389 747
103 663 944
104 336 940
105 284 739
106 737 977
107 249 956
108 433 852
109 294 856
110 285 879
111 280 818
112 175 885
113 295 747
114 669 902
115 763 969
116 138 632
117 193 593
118 220 818
119 145 800
120 739 960
121 72 672
122 752 940
123 639 894
124 329 726
125 799 987
126 118 343
127 660 917
128 382 741
129 242 626
130 164 824
131 350 881
132 509 886
133 190 416
134 72 656
135 353 659
136 132 677
137 364 771
138 893 900
139 140 645
140 411 757
141 397 805
142 171 644
143 260 816
144 764 980
145 149 657
146 769 855
147 716 925
148 191 843
149 566 966
150 620 908
151 358 727
152 268 705
153 406 927
154 139 943
155 549 931
156 177 664
157 433 707
158 301 753
159 120 764
160 178 664
161 318 529
162 419 952
163 309 737
164 289 787
165 88 794
166 151 658
167 185 883
168 603 872
169 342 708
170 317 747
171 579 988
172 329 555
173 361 731
174 37 706
175 154 745
176 324 703
177 370 912
178 727 900
179 383 694
180 151 679
181 149 654
182 144 638
183 269 635
184 212 842
185 217 644
186 250 597
187 835 953
188 620 949
189 324 910
190 344 793
191 176 922
192 370 746
193 204 682
194 262 830
195 385 931
196 706 957
197 201 655
198 300 737
199 379 791
200 296 858
201 154 613
202 663 942
203 135 908
204 805 910
205 646 872
206 113 692
207 349 554
208 290 737
209 430 668
210 588 977
211 370 871
212 286 727
213 89 671
214 136 667
215 377 846
216 375 728
217 269 763
218 235 694
219 452 826
220 281 909
221 215 585
222 325 707
223 419 817
224 392 704
225 152 544
226 136 580
227 198 731
228 155 556
229 345 859
230 99 666
231 519 722
232 168 757
233 295 824
234 676 800
235 229 686
236 772 941
237 294 729
238 637 926
239 464 795
240 327 758
241 665 965
242 98 690
243 852 860
244 124 598
245 235 831
246 680 969
247 323 800
248 525 931
249 120 772
250 839 978
251 660 965
252 236 738
253 148 850
254 336 773
255 190 648
256 119 620
257 198 853
258 288 514
259 888 888
260 165 542
261 682 934
262 794 844
263 759 985
264 416 819
265 724 966
266 403 812
267 270 789
268 482 818
269 734 946
270 346 556
271 644 943
272 681 943
273 323 765
274 514 782
275 624 870
276 625 952
277 356 923
278 356 576
279 328 801
280 689 956
281 645 958
282 137 895
283 299 975
284 448 752
285 348 642
286 151 631
287 675 910
288 245 776
289 434 705
290 283 804
291 889 924
292 187 781
293 350 844
294 519 720
295 720 924
296 259 800
297 514 712
298 421 818
299 750 969
300 281 600
301 141 959
302 320 840
303 341 651
304 365 730
305 789 953
306 680 906
307 145 740
308 290 741
309 467 973
310 600 980
311 288 613
312 309 761
313 153 907
314 335 809
315 989 940
316 176 655
317 759 975
318 345 821
319 749 841
320 380 754
321 316 640
322 177 803
323 254 803
324 293 782
325 493 855
326 102 745
327 226 806
328 147 600
329 437 837
330 262 671
331 310 738
332 146 594
333 864 905
334 271 792
335 317 845
336 469 986
337 235 641
338 405 833
339 617 890
340 508 893
341 712 984
342 577 895
343 225 550
344 171 397
345 391 780
346 418 845
347 155 768
348 135 553
349 383 713
350 631 842
351 313 899
352 777 738
353 289 831
354 699 923
355 323 706
356 232 689
357 540 966
358 137 742
359 205 693
360 178 829
361 203 663
362 354 767
363 370 890
364 142 643
365 274 816
366 358 665
367 152 815
368 522 768
369 232 688
370 179 630
371 359 620
372 276 725
373 269 741
374 300 881
375 234 495
376 848 971
377 141 576
378 158 722
379 140 687
380 293 767
381 250 870
382 571 769
383 470 860
384 409 941
385 293 643
386 219 907
387 186 778
388 298 706
389 149 681
390 745 731
391 314 700
392 218 889
393 286 867
394 331 662
395 817 976
396 60 635
397 290 814
398 356 864
399 377 751
400 759 947
401 209 914
402 600 940
403 283 741
404 219 943
405 334 754
406 700 975
407 281 903
408 393 876
409 116 629
410 350 746
411 457 836
412 723 793
413 322 922
414 182 725
415 612 984
416 276 788
417 337 871
418 478 864
419 97 782
420 705 860
421 251 740
422 331 736
423 678 955
424 170 770
425 310 710
426 299 520
427 753 794
428 116 779
429 25 788
430 115 837
431 191 605
432 39 803
433 269 809
434 333 845
435 103 581
436 390 849
437 678 973
438 368 739
439 218 733
440 698 973
441 742 935
442 338 814
443 272 632
444 96 621
445 200 778
446 741 911
447 728 990
448 374 755
449 628 922
450 713 842
451 243 643
452 736 891
453 379 850
454 348 845
455 370 701
456 281 761
457 405 747
458 722 827
459 380 638
460 192 679
461 194 723
462 391 872
463 754 984
464 319 838
465 289 917
466 466 764
467 409 807
468 302 908
469 140 817
470 303 803
471 479 913
472 349 834
473 686 901
474 379 698
475 659 924
476 362 867
477 290 701
478 289 978
479 239 744
480 742 986
481 195 565
482 339 789
483 341 972
484 200 725
485 219 685
486 378 793
487 329 846
488 326 617
489 317 866
490 279 817
491 942 960
492 369 728
493 688 978
494 190 881
495 136 608
496 184 611
497 85 689
498 326 860
499 279 803
500 688 984
501 653 911
502 360 747
503 319 744
504 390 741
505 252 873
506 363 911
507 667 910
508 896 805
509 324 725
510 258 810
511 233 734
512 794 896
513 84 667
514 692 953
515 299 858
516 193 780
517 647 844
518 427 680
519 57 738
520 263 686
521 105 706
522 241 837
523 312 704
524 199 748
525 370 882
526 227 644
527 331 670
528 295 836
529 59 723
530 201 647
531 183 835
532 343 587
533 285 816
534 770 930
535 354 804
536 331 901
537 817 995
538 172 670
539 397 950
540 391 900
541 309 797
542 324 959
543 437 695
544 77 613
545 361 894
546 721 986
547 272 770
548 688 871
549 708 917
550 380 847
551 359 931
DEMAND_SECTION
2 1
3 1
4 1
5 1
6 1
7 1
8 1
9 1
10 1
11 1
12 1
13 1
14 1
15 1
16 1
17 1
18 1
19 1
20 1
21 1
22 1
23 1
24 1
25 1
26 1
27 1
28 1
29 1
30 1
31 1
32 1
33 1
34 1
35 1
36 1
37 1
38 1
39 1
40 1
41 1
42 1
43 1
44 1
45 1
46 1
47 1
48 1
49 1
50 1
51 1
52 1
53 1
54 1
55 1
56 1
57 1
58 1
59 1
60 1
61 1
62 1
63 1
64 1
65 1
66 1
67 1
68 1
69 1
70 1
71 1
72 1
73 1
74 1
75 1
76 1
77 1
78 1
79 1
80 1
81 1
82 1
83 1
84 1
85 1
86 1
87 1
88 1
89 1
90 1
91 1
92 1
93 1
94 1
95 1
96 1
97 1
98 1
99 1
100 1
101 1
102 1
103 1
104 1
105 1
106 1
107 1
108 1
109 1
110 1
111 1
112 1
113 1
114 1
115 1
116 1
117 1
118 1
119 1
120 1
121 1
122 1
123 1
124 1
125 1
126 1
127 1
128 1
129 1
130 1
131 1
COVERAGE_SECTION
2 6 190 67 482 535 314 279 
3 7 440 80 280 246 406 493 514 
4 7 538 156 160 44 316 25 142 
5 7 164 290 499 416 324 81 334 
6 5 214 136 16 145 25 
7 7 196 80 55 514 3 280 440 
8 7 141 467 266 345 199 24 486 
9 7 167 494 31 66 401 112 392 
10 7 17 187 333 376 204 291 250 
11 5 352 390 427 508 262 
12 7 515 200 109 393 489 374 335 
13 7 118 184 245 98 29 327 522 
14 4 428 249 159 419 
15 5 129 337 451 526 185 
16 6 136 53 6 379 206 214 
17 7 10 204 187 512 333 305 89 
18 7 189 413 351 468 536 465 104 
19 7 547 217 456 267 416 81 380 
20 7 248 155 79 340 132 35 357 
21 7 313 282 203 66 112 191 167 
22 7 433 510 97 143 296 323 365 
23 6 232 175 414 33 378 93 
24 7 345 199 486 8 320 137 448 
25 7 166 145 181 180 214 389 4 
26 7 436 453 550 462 215 75 408 
27 7 170 503 82 240 273 405 312 
28 7 168 275 339 342 350 150 205 
29 6 98 118 327 13 245 184 
30 7 295 43 147 549 441 446 178 
31 7 494 167 66 112 9 257 392 
32 7 507 127 501 114 287 475 50 
33 5 378 307 175 358 23 
34 5 314 442 279 318 247 
35 7 155 149 357 79 248 20 402 
36 6 274 368 239 268 466 284 
37 7 373 217 421 403 105 456 19 
38 7 429 519 94 529 174 432 69 
39 7 117 431 481 496 221 332 328 
40 7 420 450 548 64 60 458 70 
41 7 285 135 45 303 366 394 459 
42 7 157 224 289 68 349 543 179 
43 7 30 295 147 549 269 441 354 
44 7 538 4 156 160 25 180 389 
45 7 41 285 459 371 135 303 366 
46 7 216 492 304 438 173 68 128 
47 5 107 478 404 283 465 
48 7 434 487 88 90 498 229 335 
49 7 475 127 202 103 78 32 261 
50 7 123 501 32 127 114 507 475 
51 7 421 252 511 479 57 152 372 
52 6 409 256 73 444 116 495 
53 5 16 206 136 379 6 
54 7 343 375 258 426 221 186 481 
55 7 265 7 80 196 406 341 440 
56 7 425 523 355 222 391 176 509 
57 7 479 252 511 421 439 51 37 
58 6 193 460 359 361 485 197 
59 7 384 162 539 86 153 195 87 
60 7 548 64 473 114 306 420 40 
61 7 377 226 332 95 228 348 328 
62 4 530 185 255 197 
63 7 219 298 76 329 223 264 411 
64 7 60 548 473 420 40 306 114 
65 7 144 115 317 263 463 299 125 
66 7 112 167 494 31 9 21 313 
67 7 482 190 2 254 279 535 247 
68 7 349 46 216 504 128 224 102 
69 5 419 326 165 94 519 
70 7 458 319 450 40 420 146 412 
71 7 151 173 304 410 438 492 502 
72 0 
73 7 444 52 409 256 544 230 116 
74 7 371 532 488 45 285 278 41 
75 7 211 476 453 525 398 462 215 
76 7 223 298 264 467 266 63 141 
77 7 434 487 472 302 454 464 88 
78 7 238 271 475 49 127 202 449 
79 7 342 155 20 35 248 402 340 
80 7 7 196 440 3 406 55 280 
81 6 267 334 416 499 5 164 
82 7 405 240 27 170 503 422 273 
83 5 300 311 488 172 532 
84 7 243 259 333 262 138 508 512 
85 6 369 235 356 218 485 520 
86 7 539 59 384 195 162 153 87 
87 7 195 153 177 540 384 539 506 
88 7 48 229 454 434 293 487 90 
89 7 236 305 534 400 115 122 65 
90 7 498 48 417 489 88 229 487 
91 7 418 383 325 132 411 340 471 
92 6 545 131 363 506 525 177 
93 5 227 461 484 414 524 
94 7 429 432 69 38 165 519 419 
95 7 244 495 332 328 226 61 377 
96 7 310 415 210 188 276 171 402 
97 7 365 433 490 22 111 499 290 
98 6 118 327 29 13 245 522 
99 7 367 130 469 119 360 322 253 
100 5 321 394 303 527 385 
101 6 292 322 387 516 424 445 
102 7 504 128 320 399 457 448 192 
103 7 202 49 272 271 423 475 78 
104 7 542 413 551 277 189 483 18 
105 7 403 208 308 212 113 237 373 
106 7 480 299 447 120 265 463 546 
107 4 47 404 478 283 
108 7 329 346 411 219 338 63 298 
109 6 200 515 12 393 528 110 
110 7 393 374 12 200 407 109 515 
111 7 490 533 365 97 397 290 433 
112 7 66 167 494 31 9 21 313 
113 7 158 308 198 208 403 105 163 
114 7 507 287 32 306 127 473 501 
115 7 317 144 65 299 263 463 400 
116 5 182 364 139 286 52 
117 7 431 39 496 221 481 370 62 
118 7 98 13 29 327 245 184 522 
119 7 367 469 99 130 322 101 347 
120 7 299 269 265 106 122 400 55 
121 6 513 134 213 497 230 242 
122 7 400 441 269 236 534 120 299 
123 7 50 339 501 205 150 32 275 
124 6 509 422 222 56 355 503 
125 7 537 395 65 305 144 115 263 
126 6 344 133 375 225 260 348 
127 7 32 475 501 507 49 114 287 
128 7 504 102 399 192 320 438 216 
129 6 15 337 451 526 183 186 
130 7 99 360 367 531 322 469 119 
131 7 92 417 545 398 476 525 211 
132 7 340 325 20 418 91 471 383 
133 7 344 375 126 260 225 54 343 
134 7 121 513 213 396 230 497 73 
135 6 366 41 303 285 45 394 
136 7 16 6 214 379 53 389 180 
137 6 362 448 320 399 502 24 
138 7 259 291 333 10 243 84 17 
139 5 364 182 116 181 145 
140 7 457 102 504 24 345 320 128 
141 7 266 8 467 486 199 264 76 
142 6 316 370 255 156 160 4 
143 7 510 22 433 97 194 323 365 
144 7 263 317 65 115 463 299 480 
145 6 166 181 25 139 214 364 
146 6 319 262 70 512 452 458 
147 6 295 43 30 549 354 178 
148 7 531 257 360 184 13 130 31 
149 7 35 210 171 357 310 155 96 
150 7 449 339 123 238 50 501 78 
151 7 173 71 304 492 438 46 216 
152 7 520 372 477 51 212 388 218 
153 7 384 87 59 195 539 162 86 
154 7 301 203 313 191 21 282 66 
155 7 35 20 79 248 357 149 342 
156 6 160 4 538 316 44 142 
157 7 289 543 42 518 209 224 68 
158 7 113 312 198 308 380 170 331 
159 4 249 14 428 326 
160 6 156 4 538 316 44 255 
161 6 426 172 258 270 207 83 
162 7 59 384 539 86 153 195 87 
163 5 331 198 503 170 113 
164 7 324 5 416 81 290 267 334 
165 7 419 14 69 428 94 249 159 
166 6 145 181 25 139 214 364 
167 7 494 31 66 112 9 257 21 
168 7 28 275 339 342 150 350 123 
169 6 222 176 355 124 151 509 
170 6 503 27 331 82 163 240 
171 7 210 310 149 96 415 357 35 
172 7 270 207 161 278 532 83 426 
173 7 304 151 71 492 438 216 46 
174 6 529 519 38 121 497 134 
175 7 307 33 23 358 232 347 378 
176 6 355 222 391 523 56 425 
177 6 506 277 545 87 92 363 
178 7 452 446 30 295 549 147 43 
179 6 474 224 455 349 68 42 
180 5 389 379 25 44 136 
181 5 145 166 25 139 364 
182 5 364 116 139 286 181 
183 4 443 385 451 129 
184 7 13 257 148 118 245 522 531 
185 4 526 62 530 337 
186 7 129 300 15 221 311 443 183 
187 7 376 10 250 395 17 305 537 
188 7 276 402 271 96 281 449 238 
189 7 18 536 413 351 468 104 92 
190 6 2 482 67 535 279 314 
191 7 313 21 9 66 401 112 167 
192 6 438 399 448 502 128 320 
193 6 58 359 460 485 361 235 
194 7 143 365 510 97 490 22 111 
195 7 87 153 539 86 177 384 551 
196 7 7 80 55 514 3 280 440 
197 4 361 530 255 62 
198 6 163 208 237 331 113 308 
199 7 486 345 24 8 141 137 535 
200 7 109 515 12 393 489 528 374 
201 7 328 286 495 332 116 95 182 
202 7 103 49 272 475 271 78 423 
203 7 282 313 21 154 191 66 112 
204 6 512 17 534 89 10 236 
205 7 275 123 517 50 339 350 114 
206 6 53 242 521 16 136 379 
207 6 270 172 278 532 161 74 
208 7 308 105 403 237 198 113 212 
209 6 518 543 289 157 42 224 
210 7 310 171 96 149 415 402 188 
211 7 75 476 525 398 363 462 131 
212 6 237 372 208 105 403 308 
213 7 513 230 121 497 242 134 206 
214 6 6 136 145 16 25 166 
215 4 550 453 436 26 
216 7 46 492 304 438 173 128 68 
217 7 19 547 456 37 373 380 267 
218 7 356 369 235 85 485 520 359 
219 6 411 63 329 268 108 298 
220 7 407 465 468 110 18 351 374 
221 7 117 481 431 39 343 186 496 
222 6 355 176 56 391 523 425 
223 7 298 264 76 467 266 63 338 
224 6 179 349 474 42 68 455 
225 7 228 260 348 61 377 226 481 
226 7 377 61 95 332 244 328 348 
227 6 93 484 461 414 524 439 
228 7 225 260 348 61 377 226 39 
229 7 88 398 48 417 454 90 293 
230 7 213 513 242 497 121 134 206 
231 6 294 297 368 274 36 466 
232 4 424 23 347 175 
233 5 353 397 528 533 111 
234 6 412 458 517 450 40 350 
235 7 356 369 85 218 485 193 359 
236 7 89 534 400 122 305 115 441 
237 6 212 208 198 308 105 403 
238 7 78 449 271 475 501 127 150 
239 6 268 466 63 219 36 411 
240 7 82 273 405 27 170 503 254 
241 5 251 437 246 423 103 
242 7 497 206 521 213 230 53 513 
243 7 84 259 333 138 262 17 512 
244 7 95 495 226 332 256 328 435 
245 7 522 13 118 98 184 194 327 
246 7 437 3 493 423 241 280 500 
247 5 279 541 314 34 482 
248 7 20 155 35 357 79 340 132 
249 4 159 428 14 419 
250 7 376 395 187 537 125 10 305 
251 5 241 281 246 437 103 
252 7 511 479 57 421 51 439 37 
253 7 99 130 469 367 430 360 531 
254 6 67 273 482 240 362 405 
255 6 530 197 316 62 142 160 
256 7 52 409 73 495 116 244 444 
257 7 148 184 531 31 494 13 360 
258 6 426 161 54 375 172 270 
259 7 138 333 291 243 84 10 17 
260 7 225 228 348 481 61 377 39 
261 6 272 49 354 103 202 423 
262 6 146 319 512 84 243 70 
263 7 463 144 317 65 115 480 299 
264 7 223 298 76 467 266 338 63 
265 7 55 120 106 196 546 7 80 
266 7 467 141 264 8 223 76 298 
267 6 81 334 416 296 499 5 
268 6 239 219 411 325 36 63 
269 7 441 120 122 43 265 30 400 
270 6 207 172 278 532 161 83 
271 7 78 281 238 103 202 276 49 
272 7 261 423 280 514 103 202 49 
273 6 240 27 254 312 82 405 
274 6 36 368 268 466 239 382 
275 7 168 339 205 123 350 28 517 
276 7 188 271 281 96 402 238 78 
277 7 551 506 177 104 92 545 195 
278 6 532 270 207 172 74 371 
279 6 247 314 34 442 482 190 
280 7 514 3 423 7 272 80 246 
281 6 271 251 241 276 103 202 
282 7 203 21 313 112 66 253 191 
283 7 478 542 483 104 47 107 413 
284 7 466 140 457 239 157 289 42 
285 7 41 303 45 135 366 371 394 
286 7 182 116 364 139 201 181 142 
287 6 306 507 114 32 473 127 
288 2 19 217 
289 7 157 543 42 518 209 224 68 
290 7 499 5 397 533 97 111 490 
291 7 138 333 259 10 187 376 17 
292 5 387 516 101 445 424 
293 5 454 472 88 229 77 
294 6 231 297 368 274 36 466 
295 7 30 43 147 549 354 178 441 
296 4 323 22 510 433 
297 6 294 231 368 274 466 36 
298 7 223 264 76 467 63 266 338 
299 7 317 115 120 106 463 144 263 
300 5 311 83 186 443 183 
301 7 154 191 203 313 21 282 66 
302 5 464 335 487 434 77 
303 7 285 41 135 394 527 366 100 
304 7 173 492 151 438 46 216 71 
305 7 89 236 65 534 115 400 125 
306 6 287 473 114 507 32 127 
307 5 358 175 33 378 23 
308 6 208 105 403 113 198 237 
309 7 336 162 471 59 384 248 357 
310 7 96 210 415 171 149 188 276 
311 5 300 443 183 83 385 
312 6 158 27 273 170 380 240 
313 7 21 203 282 191 66 112 154 
314 6 34 442 279 247 318 190 
315 7 491 291 138 259 333 10 376 
316 6 156 160 4 142 255 538 
317 7 115 144 263 463 299 65 480 
318 3 442 34 472 
319 7 70 146 458 450 262 427 420 
320 6 399 448 102 128 192 504 
321 5 100 385 488 303 394 
322 7 101 292 130 360 99 387 367 
323 3 296 510 22 
324 6 164 5 380 416 81 541 
325 6 418 383 91 132 268 340 
326 3 159 69 249 
327 5 98 118 29 13 245 
328 7 332 495 95 201 226 244 61 
329 7 108 219 63 411 346 298 223 
330 2 520 85 
331 5 163 198 170 503 27 
332 7 328 95 226 495 61 377 201 
333 7 138 259 291 10 17 243 84 
334 6 81 267 416 296 499 5 
335 5 302 464 487 434 48 
336 7 309 162 59 357 471 384 248 
337 5 451 526 15 129 185 
338 7 264 346 223 266 298 436 26 
339 7 150 275 123 168 50 205 449 
340 7 132 20 471 91 325 248 418 
341 5 546 406 447 55 440 
342 7 79 168 28 339 150 155 402 
343 7 54 481 221 186 117 39 375 
344 6 133 126 375 260 225 228 
345 7 24 199 8 486 141 137 320 
346 7 108 338 329 264 26 298 223 
347 5 424 232 175 307 23 
348 7 225 228 61 377 226 260 332 
349 7 224 68 46 474 216 455 179 
350 6 517 275 205 168 28 339 
351 7 18 468 189 536 374 413 465 
352 5 390 11 427 412 70 
353 6 528 233 111 533 397 490 
354 6 549 147 261 295 43 30 
355 6 222 176 56 391 523 425 
356 7 369 235 218 85 485 359 193 
357 7 149 35 155 248 171 210 20 
358 4 307 175 33 159 
359 4 193 58 485 460 
360 7 531 130 148 99 322 367 257 
361 5 197 58 530 193 460 
362 6 137 254 410 502 448 67 
363 6 525 545 92 211 131 177 
364 5 139 182 116 181 286 
365 7 97 490 111 433 533 22 143 
366 6 135 41 303 285 45 394 
367 7 99 469 130 119 322 360 101 
368 7 274 36 231 294 382 466 297 
369 7 356 235 85 218 485 359 193 
370 6 142 496 255 316 62 286 
371 7 74 45 285 459 41 488 303 
372 7 212 105 373 403 208 237 308 
373 7 37 403 105 372 421 208 308 
374 7 110 393 12 351 200 489 515 
375 7 54 343 258 426 481 260 133 
376 7 250 187 395 537 10 125 17 
377 7 61 226 332 95 228 348 328 
378 1 33 
379 4 389 136 180 16 
380 6 456 324 158 312 113 164 
381 5 505 522 110 393 392 
382 5 368 274 36 231 294 
383 6 418 91 325 411 108 219 
384 7 59 153 162 539 86 195 87 
385 4 321 443 100 183 
386 3 401 392 9 
387 5 292 516 445 101 424 
388 7 477 425 523 56 391 237 212 
389 5 180 379 25 136 214 
390 4 352 427 412 11 
391 7 523 176 355 425 56 222 388 
392 4 386 9 401 31 
393 7 110 200 109 12 515 374 489 
394 5 527 303 100 135 41 
395 7 537 125 250 187 376 305 65 
396 7 134 544 121 444 513 73 213 
397 5 533 111 233 490 290 
398 7 476 229 211 75 131 88 417 
399 6 320 448 192 128 102 438 
400 7 122 236 534 441 89 115 120 
401 5 386 9 392 404 191 
402 7 188 276 96 449 150 210 238 
403 7 105 308 208 113 212 373 237 
404 4 401 107 386 47 
405 7 82 240 27 273 170 410 422 
406 7 440 80 3 493 341 500 7 
407 7 220 465 468 110 374 351 18 
408 6 462 26 75 211 525 540 
409 6 52 256 73 116 444 139 
410 6 502 71 405 173 438 192 
411 6 219 329 63 383 108 268 
412 7 427 458 70 234 450 319 40 
413 7 18 189 104 536 468 351 465 
414 4 461 93 227 484 
415 6 310 96 210 171 276 188 
416 7 81 267 334 5 164 499 290 
417 7 90 229 131 498 48 88 398 
418 6 383 91 325 411 132 340 
419 6 165 14 428 69 249 159 
420 7 40 450 548 64 60 458 70 
421 7 479 252 57 37 51 373 511 
422 6 124 509 82 503 170 405 
423 7 280 272 246 514 241 3 437 
424 5 232 347 387 292 101 
425 7 56 523 391 388 355 222 176 
426 6 258 161 172 54 270 207 
427 7 412 70 458 319 352 450 146 
428 4 14 249 159 419 
429 7 432 94 38 519 69 165 419 
430 6 469 253 367 99 119 130 
431 7 496 117 39 370 221 62 201 
432 6 429 94 165 38 69 419 
433 7 22 97 365 143 510 499 296 
434 7 487 48 77 88 302 454 335 
435 7 244 226 95 377 61 444 544 
436 6 26 550 453 215 338 75 
437 7 246 493 241 500 3 423 251 
438 7 192 304 173 492 502 216 46 
439 7 511 252 227 484 57 93 479 
440 7 406 3 80 493 7 500 55 
441 7 122 269 400 30 43 446 120 
442 4 34 314 318 279 
443 4 183 385 311 129 
444 7 73 52 544 409 256 244 396 
445 4 516 292 387 101 
446 7 178 452 30 441 295 43 147 
447 5 546 480 106 341 265 
448 6 399 320 192 128 502 102 
449 7 238 150 78 271 501 50 188 
450 7 40 458 420 70 319 548 64 
451 4 337 15 526 129 
452 6 178 446 30 295 549 147 
453 5 550 215 436 26 75 
454 6 293 88 472 229 434 77 
455 6 474 179 349 224 46 216 
456 7 217 19 380 547 113 403 37 
457 7 140 102 504 128 68 320 399 
458 7 70 450 319 40 412 420 427 
459 7 45 41 371 285 135 366 74 
460 6 58 193 359 361 156 160 
461 4 484 227 93 414 
462 6 408 26 75 211 436 525 
463 7 263 317 144 480 299 115 106 
464 5 302 335 487 77 434 
465 7 220 407 468 18 351 413 189 
466 7 284 239 36 274 140 268 368 
467 7 266 141 76 223 264 8 298 
468 7 18 351 465 220 189 407 413 
469 7 367 99 119 130 430 253 322 
470 3 541 397 5 
471 7 340 132 91 248 418 20 383 
472 4 293 454 77 318 
473 6 306 287 114 507 60 64 
474 6 179 455 224 349 46 68 
475 7 49 127 32 501 78 507 202 
476 7 398 211 75 525 131 229 363 
477 6 388 152 425 523 391 56 
478 7 283 542 47 107 483 104 465 
479 7 57 252 511 421 51 439 37 
480 7 106 463 447 263 299 317 546 
481 7 39 117 221 343 260 431 228 
482 7 67 190 2 254 279 247 314 
483 7 542 104 283 551 277 478 413 
484 5 227 461 93 414 439 
485 7 235 369 356 193 85 359 58 
486 7 199 345 24 8 141 137 535 
487 7 434 48 302 335 77 88 464 
488 6 321 74 285 371 100 532 
489 7 498 90 12 48 515 335 417 
490 7 111 365 533 97 397 433 290 
491 7 315 291 138 259 333 376 10 
492 7 304 46 216 173 151 438 71 
493 7 500 437 440 246 406 3 80 
494 7 31 167 66 112 9 257 392 
495 7 95 328 244 332 201 256 116 
496 7 431 117 370 39 201 62 142 
497 6 242 213 121 513 521 230 
498 7 90 48 489 487 417 88 335 
499 7 290 5 97 433 81 334 365 
500 6 493 406 437 440 246 3 
501 7 32 127 50 475 507 114 49 
502 6 192 410 438 173 448 71 
503 6 170 27 331 82 163 422 
504 7 102 128 68 320 399 457 216 
505 5 381 110 393 392 522 
506 6 177 277 92 545 551 363 
507 7 32 114 287 127 306 501 475 
508 7 84 243 259 138 11 333 262 
509 6 124 422 56 222 163 331 
510 6 143 22 323 296 433 97 
511 7 252 479 57 439 51 421 484 
512 6 204 17 534 146 236 89 
513 7 213 121 230 134 497 242 206 
514 7 280 3 7 423 196 272 80 
515 7 12 200 109 393 489 335 528 
516 4 292 387 445 101 
517 6 350 205 275 548 60 123 
518 7 209 543 289 157 42 224 179 
519 6 529 69 38 174 94 326 
520 5 330 152 85 218 356 
521 4 206 242 53 497 
522 7 245 194 13 118 143 184 98 
523 7 391 425 56 355 176 222 388 
524 4 93 227 484 439 
525 6 363 211 545 75 476 92 
526 4 337 185 15 451 
527 5 394 303 100 135 366 
528 4 353 233 109 200 
529 5 519 174 497 38 69 
530 4 197 62 255 185 
531 7 360 148 130 257 184 99 322 
532 7 278 74 270 207 488 172 371 
533 7 111 397 490 365 290 97 233 
534 7 236 89 400 122 441 305 446 
535 3 2 190 318 
536 7 189 351 18 413 92 131 468 
537 7 395 125 250 376 187 65 305 
538 7 4 44 156 160 316 25 460 
539 7 86 59 384 162 195 153 87 
540 6 87 363 177 408 462 525 
541 4 470 247 279 5 
542 7 483 104 283 413 478 551 18 
543 7 289 157 518 209 42 224 179 
544 7 444 396 73 435 52 409 134 
545 6 92 363 525 131 506 177 
546 5 447 341 106 265 55 
547 7 19 217 456 416 267 81 380 
548 7 60 64 420 40 473 114 306 
549 6 147 354 295 30 43 178 
550 5 215 453 436 26 75 
551 7 277 506 177 104 195 87 92 
DEPOT_SECTION
   1
   -1
EOF
