NAME :  X-n685-kX-w68-c11.cctp
COMMENT : 	Adapted by Maziero, Usberti and Cavellucci from the Uchoa, Pecin, Pessoa, Poggi, Subramanian, and Vidal (2013)
TYPE :  CCTP
DIMENSION :    444
EDGE_WEIGHT_TYPE : 	EUC_2D	
CAPACITY : 	408
VERTICES_WITHIN_COVERAGE :  11
VERTICES_WITH_DEMAND : 	68
NODE_COORD_SECTION
1 500 500
2 112 700
3 363 779
4 245 896
5 238 19
6 184 351
7 305 763
8 366 814
9 137 857
10 564 31
11 303 157
12 523 830
13 134 231
14 851 445
15 740 311
16 163 95
17 275 499
18 470 814
19 453 217
20 818 525
21 311 911
22 177 374
23 230 4
24 590 302
25 196 103
26 553 879
27 316 446
28 665 375
29 587 609
30 510 95
31 907 455
32 805 956
33 342 345
34 785 309
35 649 584
36 850 24
37 26 126
38 447 817
39 145 527
40 218 825
41 405 151
42 389 436
43 452 619
44 407 367
45 948 514
46 836 996
47 578 334
48 491 929
49 325 696
50 838 842
51 983 788
52 623 549
53 915 72
54 774 336
55 81 238
56 534 537
57 295 406
58 853 358
59 742 581
60 32 964
61 747 352
62 610 799
63 786 853
64 506 168
65 755 957
66 408 67
67 485 734
68 419 256
69 508 155
70 941 589
71 68 42
72 817 595
73 397 274
74 727 302
75 216 237
76 821 320
77 516 531
78 561 920
79 128 834
80 162 534
81 188 329
82 520 301
83 336 782
84 139 848
85 350 154
86 242 162
87 791 925
88 907 497
89 786 457
90 629 745
91 935 439
92 78 835
93 232 226
94 123 479
95 205 840
96 932 357
97 413 373
98 827 881
99 11 938
100 88 535
101 436 200
102 940 319
103 325 59
104 34 264
105 322 89
106 287 304
107 288 406
108 616 828
109 978 511
110 605 464
111 462 934
112 563 229
113 506 33
114 457 26
115 547 983
116 623 49
117 164 326
118 256 410
119 551 8
120 940 421
121 587 947
122 231 470
123 917 773
124 553 355
125 964 782
126 193 135
127 632 320
128 585 987
129 631 844
130 598 542
131 579 317
132 454 676
133 54 971
134 504 747
135 424 367
136 45 177
137 458 390
138 480 741
139 806 752
140 424 65
141 606 280
142 311 237
143 837 594
144 596 957
145 213 118
146 315 173
147 693 538
148 249 497
149 213 878
150 884 558
151 397 475
152 888 399
153 557 197
154 368 270
155 254 421
156 3 697
157 531 811
158 675 657
159 930 645
160 336 439
161 536 219
162 684 432
163 701 543
164 507 829
165 156 483
166 350 781
167 357 207
168 592 613
169 599 58
170 203 387
171 414 285
172 756 280
173 337 957
174 369 303
175 801 597
176 194 98
177 106 109
178 454 45
179 335 464
180 516 730
181 918 58
182 670 508
183 743 477
184 530 678
185 482 11
186 528 853
187 696 404
188 506 702
189 49 895
190 633 782
191 681 633
192 768 575
193 959 76
194 855 313
195 999 440
196 560 58
197 430 401
198 165 27
199 409 50
200 887 99
201 368 21
202 122 330
203 115 722
204 452 297
205 592 406
206 303 284
207 261 751
208 794 809
209 569 561
210 932 133
211 259 874
212 491 948
213 589 818
214 111 973
215 102 759
216 92 873
217 121 799
218 935 711
219 766 638
220 352 905
221 98 147
222 542 425
223 518 201
224 393 751
225 958 155
226 515 267
227 453 759
228 512 720
229 935 133
230 860 400
231 560 922
232 419 421
233 500 650
234 513 915
235 582 155
236 151 700
237 792 436
238 452 748
239 262 200
240 880 549
241 599 351
242 444 301
243 762 972
244 504 609
245 517 798
246 257 162
247 28 367
248 480 944
249 583 268
250 339 933
251 170 87
252 481 226
253 209 321
254 759 813
255 492 115
256 494 177
257 557 821
258 760 939
259 853 444
260 602 517
261 42 343
262 749 800
263 225 766
264 444 199
265 503 69
266 379 107
267 884 863
268 440 849
269 143 882
270 237 146
271 424 765
272 154 338
273 524 941
274 963 505
275 130 180
276 96 258
277 273 915
278 837 987
279 184 529
280 825 387
281 854 308
282 128 660
283 825 977
284 205 897
285 811 299
286 288 488
287 167 434
288 512 612
289 340 895
290 190 391
291 856 988
292 228 916
293 586 852
294 797 290
295 813 941
296 138 787
297 264 482
298 786 959
299 156 554
300 381 778
301 315 370
302 839 874
303 903 37
304 863 385
305 241 911
306 185 809
307 295 900
308 277 404
309 262 911
310 249 921
311 252 887
312 847 375
313 837 937
314 363 917
315 278 420
316 845 993
317 827 859
318 675 855
319 219 927
320 823 980
321 840 868
322 124 627
323 306 690
324 188 772
325 64 633
326 723 320
327 747 321
328 240 382
329 181 742
330 811 977
331 772 392
332 483 560
333 788 903
334 188 843
335 803 661
336 442 876
337 68 1000
338 824 38
339 245 799
340 413 463
341 387 439
342 353 910
343 740 294
344 620 52
345 311 662
346 404 633
347 374 838
348 295 539
349 415 801
350 697 421
351 869 423
352 986 838
353 835 34
354 262 908
355 775 275
356 266 522
357 814 34
358 776 274
359 797 997
360 733 971
361 167 491
362 762 878
363 369 946
364 280 739
365 822 1000
366 734 329
367 70 952
368 835 735
369 961 844
370 801 980
371 315 467
372 499 911
373 291 915
374 41 868
375 593 339
376 138 580
377 427 451
378 860 376
379 788 276
380 294 897
381 103 513
382 771 328
383 943 828
384 268 242
385 211 414
386 833 937
387 465 621
388 700 879
389 725 297
390 399 635
391 183 524
392 518 488
393 182 831
394 424 586
395 445 943
396 787 940
397 437 355
398 530 783
399 445 763
400 288 920
401 288 497
402 837 960
403 795 278
404 509 815
405 182 265
406 246 405
407 306 521
408 124 883
409 296 879
410 318 880
411 407 239
412 468 291
413 254 877
414 802 826
415 361 923
416 467 574
417 333 669
418 327 923
419 99 484
420 331 793
421 336 448
422 323 834
423 585 724
424 804 283
425 604 298
426 685 972
427 264 508
428 336 899
429 256 885
430 312 500
431 631 790
432 183 877
433 820 968
434 488 589
435 880 307
436 327 842
437 482 587
438 220 822
439 284 735
440 281 701
441 74 628
442 349 734
443 130 755
444 792 823
DEMAND_SECTION
2 8
3 25
4 36
5 83
6 63
7 3
8 15
9 47
10 21
11 54
12 87
13 94
14 22
15 31
16 78
17 71
18 32
19 60
20 87
21 31
22 53
23 76
24 23
25 93
26 56
27 72
28 44
29 92
30 23
31 48
32 87
33 70
34 27
35 72
36 9
37 64
38 6
39 40
40 19
41 68
42 52
43 41
44 57
45 94
46 73
47 10
48 6
49 31
50 87
51 70
52 71
53 32
54 3
55 94
56 67
57 98
58 3
59 97
60 31
61 25
62 94
63 87
64 9
65 66
66 56
67 13
68 65
69 1
COVERAGE_SECTION
2 9 203 236 282 443 215 322 329 441 325 
3 11 166 300 83 8 420 224 442 349 7 347 271 
4 11 311 305 429 354 413 309 310 211 292 277 149 
5 11 23 198 176 25 103 251 145 16 105 126 270 
6 11 81 22 117 272 253 290 170 328 202 385 406 
7 10 364 439 83 420 207 166 442 3 440 49 
8 9 347 3 166 300 420 83 422 436 349 
9 9 84 79 269 408 216 432 393 334 217 
10 9 119 196 169 113 344 116 265 30 185 
11 11 146 246 85 239 86 270 105 167 142 266 384 
12 11 164 157 404 186 245 257 398 18 26 213 293 
13 11 276 275 55 405 75 221 93 117 202 136 104 
14 11 259 351 230 31 152 237 304 280 89 312 378 
15 11 327 74 343 326 366 389 172 382 54 61 34 
16 11 251 176 25 126 145 177 198 221 270 275 86 
17 10 401 427 286 297 356 148 430 407 348 371 
18 11 38 404 164 268 245 12 349 399 227 157 271 
19 11 264 101 252 411 68 256 223 64 412 171 73 
20 11 240 72 192 143 150 175 89 14 259 183 88 
21 11 307 373 418 380 400 428 410 289 409 250 277 
22 11 290 6 170 272 81 117 385 287 253 328 202 
23 11 5 198 176 251 25 103 16 145 105 126 201 
24 10 425 131 141 47 249 375 127 241 124 82 
25 11 176 145 251 126 16 270 86 198 246 177 5 
26 11 186 78 293 231 234 12 257 372 164 273 157 
27 10 421 160 371 179 57 315 107 286 430 308 
28 10 187 350 162 127 241 205 326 375 366 61 
29 11 168 209 35 130 52 288 244 56 184 260 233 
30 11 255 265 69 113 196 64 178 10 256 114 185 
31 11 91 88 120 351 259 14 152 45 230 274 304 
32 11 295 298 433 330 370 396 283 320 402 87 386 
33 11 301 174 44 106 206 97 57 154 107 135 308 
34 11 294 382 285 54 424 379 403 355 358 76 327 
35 11 52 191 147 168 130 163 29 158 182 260 209 
36 5 353 338 357 303 181 
37 11 136 221 177 71 275 55 104 16 251 276 13 
38 11 18 268 349 399 271 227 336 164 404 238 245 
39 11 80 299 391 279 361 381 165 94 376 100 419 
40 9 438 95 334 393 306 339 149 263 324 
41 11 266 85 101 264 167 19 66 140 411 146 256 
42 9 341 232 340 151 377 160 197 421 179 
43 10 387 394 437 416 434 346 244 390 132 233 
44 11 97 135 397 197 232 137 33 42 174 341 242 
45 11 274 109 88 31 70 91 240 150 195 120 259 
46 11 278 316 365 320 283 291 330 433 402 370 359 
47 11 375 131 241 124 24 425 127 141 249 82 205 
48 11 212 248 372 234 111 273 395 231 78 336 115 
49 6 323 417 345 440 442 439 
50 10 317 321 302 414 98 444 267 63 208 333 
51 9 125 352 383 369 123 218 267 159 50 
52 11 130 260 35 209 182 29 147 168 163 110 56 
53 9 181 303 200 193 210 229 36 353 225 
54 11 382 34 61 327 366 15 76 294 285 326 343 
55 11 276 13 104 136 275 221 202 405 261 117 272 
56 11 77 209 392 332 130 434 260 437 416 244 288 
57 11 107 308 315 118 301 155 27 406 160 421 328 
58 10 312 378 304 280 230 194 76 281 152 435 
59 11 192 163 175 219 147 72 191 35 20 143 158 
60 11 133 99 367 337 189 214 374 216 408 92 269 
61 11 366 54 327 382 326 15 331 74 34 343 389 
62 11 431 213 190 108 129 90 257 293 423 157 398 
63 11 414 444 362 317 208 254 98 333 50 321 302 
64 11 69 256 223 255 153 161 252 264 19 30 101 
65 11 243 258 360 298 396 87 32 370 359 330 295 
66 11 140 199 266 178 201 114 103 41 105 185 265 
67 11 138 134 228 180 238 188 227 399 132 398 271 
68 11 411 73 171 242 19 154 204 101 412 264 174 
69 11 64 256 255 223 30 153 161 235 252 264 19 
70 10 159 150 240 45 109 274 88 143 218 72 
71 11 177 37 198 16 221 251 136 176 25 275 126 
72 10 175 143 192 219 335 20 59 150 240 70 
73 11 171 68 154 411 174 242 204 412 167 19 101 
74 9 389 343 15 326 327 366 172 382 61 
75 11 93 405 384 239 86 13 253 246 270 142 81 
76 8 285 194 281 34 294 424 403 54 
77 10 56 392 332 209 434 416 437 244 288 130 
78 11 231 121 26 273 234 144 372 115 48 128 293 
79 11 84 9 217 296 408 92 269 216 393 334 306 
80 8 39 299 279 391 361 165 376 381 
81 11 6 253 117 272 22 170 290 405 202 328 385 
82 11 226 412 131 124 47 204 24 249 242 375 112 
83 11 420 166 3 7 8 300 442 422 436 224 347 
84 10 9 79 269 408 393 334 217 216 432 306 
85 11 146 11 167 41 266 105 142 246 101 103 239 
86 11 246 270 239 145 126 11 93 146 25 75 176 
87 11 396 333 295 32 258 298 386 65 313 433 243 
88 11 31 45 274 240 91 150 109 14 259 120 351 
89 11 237 183 14 331 259 20 280 351 230 350 312 
90 10 190 431 423 62 213 108 129 158 257 398 
91 11 120 31 152 88 195 351 274 45 96 259 14 
92 11 216 79 374 217 84 9 408 189 296 215 269 
93 11 75 384 239 405 86 246 142 270 206 106 13 
94 8 419 165 381 361 39 287 100 80 
95 9 334 40 438 393 306 149 432 284 339 
96 11 102 152 120 435 304 378 58 91 230 312 194 
97 11 44 135 397 197 137 232 42 341 33 242 377 
98 10 302 321 317 50 333 63 386 87 313 267 
99 11 60 133 189 367 374 337 216 214 92 408 269 
100 7 381 419 39 94 376 299 80 
101 11 264 19 411 252 41 68 256 64 167 223 73 
102 9 96 435 194 281 58 152 378 304 120 
103 11 105 201 266 66 199 5 85 140 11 23 146 
104 11 55 276 261 136 247 13 202 275 221 37 272 
105 11 103 266 11 85 201 146 66 199 246 270 41 
106 11 206 384 33 142 301 253 174 154 328 93 75 
107 11 57 308 315 118 155 406 301 27 328 160 421 
108 10 129 213 62 293 431 190 257 318 26 90 
109 11 274 45 88 195 91 70 31 120 150 240 351 
110 11 260 205 222 130 182 162 52 392 56 350 209 
111 11 395 248 48 212 372 234 336 273 268 363 115 
112 8 161 153 249 223 226 141 235 24 
113 11 185 265 114 119 178 10 196 30 255 140 169 
114 11 178 185 113 140 199 265 66 30 201 119 255 
115 11 128 273 121 144 231 78 212 234 48 248 372 
116 4 344 169 10 196 
117 11 272 81 6 202 253 22 405 290 170 328 276 
118 10 155 406 308 315 107 328 57 385 170 122 
119 11 10 113 196 169 185 265 344 116 30 114 178 
120 11 91 31 152 195 96 351 88 230 304 274 259 
121 9 144 78 231 128 115 273 26 234 293 
122 8 148 297 427 17 155 385 286 356 
123 10 125 383 218 51 369 368 352 267 50 139 
124 11 47 375 131 241 82 205 24 222 425 127 141 
125 10 51 123 383 352 369 218 267 368 50 159 
126 11 145 25 176 270 16 251 86 246 275 177 239 
127 9 425 375 241 24 141 131 47 28 249 
128 10 144 115 121 231 78 273 426 212 234 48 
129 9 108 318 293 213 62 431 190 257 388 
130 11 260 52 209 56 35 29 168 110 182 77 147 
131 11 47 24 375 425 241 124 141 249 127 82 226 
132 11 233 387 43 188 67 346 390 138 238 228 184 
133 10 60 367 337 99 214 189 374 216 408 269 
134 11 180 67 138 228 398 188 227 238 245 399 404 
135 11 97 44 397 197 137 232 242 204 42 341 171 
136 11 37 221 55 275 104 177 276 13 71 16 126 
137 11 197 135 397 97 232 44 377 42 340 341 242 
138 11 67 134 238 227 180 228 399 188 271 398 245 
139 10 368 208 444 414 262 254 335 50 63 317 
140 11 66 199 178 114 266 201 185 265 255 41 113 
141 8 425 249 24 131 127 375 47 112 
142 11 384 206 167 239 146 154 106 11 93 174 85 
143 10 72 175 150 240 20 192 335 219 59 70 
144 9 121 128 231 78 115 273 26 426 234 
145 11 25 126 176 270 86 251 16 246 239 11 5 
146 11 11 85 167 239 246 142 86 270 384 105 266 
147 11 163 182 35 59 52 183 192 260 130 191 162 
148 7 427 297 17 356 122 401 286 
149 9 284 432 4 95 311 292 413 305 334 
150 11 240 143 70 88 20 72 45 175 274 159 109 
151 4 340 341 377 42 
152 11 230 304 351 378 312 58 120 259 14 31 96 
153 8 161 112 223 235 64 69 256 249 
154 11 73 174 171 411 68 167 142 206 33 242 106 
155 10 118 406 315 308 107 328 57 385 122 170 
156 7 325 441 2 203 215 282 322 
157 11 245 12 404 257 398 164 186 213 18 134 293 
158 11 191 35 219 168 90 29 59 423 163 52 147 
159 10 70 218 150 143 240 72 335 123 368 45 
160 9 421 27 179 371 341 42 57 107 315 
161 10 223 112 153 226 252 64 256 249 69 235 
162 11 350 187 28 183 182 110 205 331 61 89 147 
163 11 147 182 59 35 192 52 183 191 260 130 162 
164 11 404 12 157 186 245 18 257 398 38 26 268 
165 7 361 94 39 391 287 80 279 
166 11 3 83 420 300 8 442 7 224 422 347 436 
167 11 85 146 142 411 154 11 41 73 68 101 264 
168 11 29 209 35 52 130 288 244 184 191 158 56 
169 5 344 116 196 10 119 
170 10 290 385 22 328 6 406 118 287 81 155 
171 11 73 68 242 204 411 154 174 412 397 19 44 
172 9 355 343 358 379 15 389 74 403 34 
173 9 250 363 418 415 314 342 21 220 428 
174 11 154 73 171 33 68 206 44 411 242 106 97 
175 10 72 143 192 219 59 335 20 150 240 163 
176 11 25 251 145 16 126 270 198 86 177 5 246 
177 11 221 16 251 275 71 37 176 25 126 136 198 
178 11 114 140 185 199 66 113 265 30 255 201 266 
179 7 421 371 160 27 430 286 401 
180 11 228 134 188 67 138 184 398 238 245 227 423 
181 9 53 303 193 200 36 210 229 353 338 
182 11 147 163 52 260 162 110 35 183 130 350 59 
183 11 89 237 350 162 163 147 182 187 20 331 192 
184 11 188 233 228 180 288 67 423 134 244 132 138 
185 11 114 113 178 265 119 140 199 10 30 196 66 
186 11 12 164 26 157 404 257 245 293 234 372 18 
187 11 350 162 28 61 331 366 183 326 327 237 15 
188 11 228 180 184 67 134 138 233 132 238 227 423 
189 11 374 216 99 367 92 60 133 408 269 9 79 
190 10 431 62 90 108 213 129 423 293 318 257 
191 11 158 35 59 219 168 163 147 29 52 192 90 
192 11 59 175 72 219 20 143 163 147 335 183 191 
193 7 53 181 229 210 303 200 225 
194 7 281 435 76 58 285 424 294 
195 11 120 91 109 274 45 31 96 88 152 351 102 
196 10 10 169 119 265 113 344 30 116 255 185 
197 11 232 137 97 135 44 397 377 42 341 340 151 
198 11 251 16 23 5 176 25 71 177 145 126 221 
199 11 66 140 178 201 114 266 185 103 105 265 113 
200 6 53 181 210 229 303 193 
201 11 199 103 66 140 105 266 114 178 185 5 85 
202 11 272 117 6 81 22 276 261 253 405 290 170 
203 10 2 443 215 236 282 296 329 217 324 322 
204 11 242 412 171 68 73 397 82 226 411 135 252 
205 11 222 241 110 124 375 47 28 131 127 162 24 
206 11 106 142 384 154 174 33 301 93 239 167 73 
207 8 364 439 263 7 339 440 323 324 
208 11 444 414 254 63 262 50 139 317 321 362 98 
209 11 130 56 29 52 260 168 77 288 244 35 332 
210 6 229 225 200 53 193 181 
211 9 413 429 311 4 354 309 409 305 380 
212 11 248 48 111 273 372 234 395 115 231 78 336 
213 11 62 108 257 293 129 431 190 157 12 398 186 
214 8 367 337 133 60 408 269 189 216 
215 11 443 203 217 296 2 236 79 92 329 324 84 
216 11 408 92 9 189 374 269 79 84 217 367 432 
217 11 296 79 215 443 84 92 9 306 393 324 203 
218 10 123 159 125 51 368 383 70 139 369 352 
219 10 335 175 59 192 72 143 191 158 163 368 
220 10 342 289 314 428 415 250 418 21 410 363 
221 11 177 275 136 37 16 13 55 251 126 25 176 
222 11 205 392 124 110 137 241 47 375 77 260 56 
223 10 161 256 64 153 252 69 112 226 19 264 
224 11 300 271 3 442 166 399 349 238 227 83 8 
225 5 229 210 193 200 53 
226 11 82 161 252 412 112 223 249 204 242 19 131 
227 11 399 238 271 138 67 134 349 18 38 224 180 
228 11 180 188 134 67 138 184 238 398 227 233 132 
229 6 210 225 200 193 53 181 
230 11 304 378 351 152 312 280 58 259 14 31 237 
231 11 78 121 273 26 234 144 115 372 48 128 212 
232 10 197 377 42 341 340 97 137 135 44 151 
233 11 288 184 244 387 188 132 43 434 437 228 180 
234 11 372 48 273 212 248 78 231 26 111 186 395 
235 6 153 69 112 64 161 223 
236 8 2 203 282 329 443 215 322 324 
237 11 89 331 280 14 259 183 230 351 312 304 378 
238 11 227 399 138 271 67 134 224 349 180 228 18 
239 11 246 93 384 86 11 75 146 270 142 206 126 
240 11 150 88 143 20 70 45 72 175 274 31 109 
241 11 375 47 131 127 124 24 425 205 28 141 249 
242 11 204 412 171 68 73 397 135 411 174 44 82 
243 11 65 298 360 258 370 396 359 32 330 87 433 
244 11 288 434 437 233 387 416 43 332 184 56 77 
245 11 157 404 398 12 164 257 18 134 186 138 180 
246 11 86 270 239 11 146 145 93 126 384 25 75 
247 7 261 202 104 276 272 419 55 
248 11 212 48 111 395 372 234 273 115 336 231 78 
249 9 141 24 425 112 131 47 161 226 82 
250 11 418 173 415 342 314 220 363 428 21 289 373 
251 11 16 176 25 126 145 198 177 270 221 5 275 
252 11 19 223 264 256 101 226 161 64 412 68 411 
253 11 81 6 117 272 22 405 170 328 290 106 75 
254 10 262 444 208 414 63 362 139 317 50 388 
255 11 30 69 265 64 256 178 113 140 196 223 41 
256 11 64 69 223 252 264 19 161 101 255 153 30 
257 11 157 213 12 293 186 245 398 404 164 62 26 
258 11 65 396 243 298 87 360 333 32 295 370 362 
259 11 14 351 230 31 152 304 237 280 89 378 312 
260 11 130 52 110 209 182 56 35 77 392 29 147 
261 7 247 104 202 276 55 272 117 
262 10 254 208 444 414 63 139 362 318 388 50 
263 8 324 207 339 329 438 40 306 364 
264 11 101 19 252 411 256 41 68 64 223 69 167 
265 11 30 113 255 178 196 185 114 10 119 140 69 
266 11 66 41 85 105 140 199 103 201 11 146 178 
267 7 321 302 50 317 98 383 369 
268 11 336 38 18 349 347 164 404 8 12 271 372 
269 7 408 9 84 432 79 216 334 
270 11 86 246 145 126 25 239 176 11 93 146 251 
271 11 399 227 238 224 349 300 38 138 3 18 67 
272 11 117 6 202 81 22 253 290 170 405 385 287 
273 11 234 212 48 372 231 78 248 115 111 121 26 
274 11 109 45 88 91 195 31 70 120 240 150 351 
275 11 221 13 177 55 126 136 276 16 405 25 251 
276 11 55 13 104 202 275 405 117 136 272 261 221 
277 9 309 354 400 373 310 307 380 305 4 
278 10 46 316 283 320 291 365 433 402 330 370 
279 6 391 80 299 39 361 165 
280 11 312 230 378 304 58 331 351 237 14 152 259 
281 7 194 435 76 285 58 424 294 
282 7 322 2 236 203 441 325 376 
283 11 320 433 330 278 402 46 365 370 316 32 291 
284 7 149 292 432 319 305 4 311 
285 8 294 424 76 403 34 379 355 358 
286 10 401 17 297 430 427 371 407 148 356 27 
287 6 385 290 165 361 170 22 
288 11 244 434 437 233 387 416 43 332 184 29 209 
289 9 428 220 342 410 418 314 21 415 250 
290 9 170 22 385 6 287 328 406 81 272 
291 7 316 278 46 283 320 402 365 
292 8 305 319 310 4 284 309 354 311 
293 11 213 108 257 26 129 62 186 12 157 78 231 
294 8 424 403 285 379 34 358 355 76 
295 11 32 386 313 396 87 433 402 298 330 283 320 
296 11 217 443 215 79 306 324 84 329 393 203 9 
297 11 17 148 286 427 401 122 356 430 371 407 155 
298 11 32 396 370 243 65 330 295 258 87 433 359 
299 7 80 39 376 279 391 361 381 
300 11 3 224 166 8 349 83 271 420 442 347 399 
301 11 33 57 107 308 315 118 106 160 27 328 406 
302 10 321 98 317 50 267 63 333 414 313 386 
303 8 181 53 36 200 193 353 338 357 
304 11 378 230 312 58 152 280 351 259 14 194 96 
305 9 310 292 4 309 354 311 319 429 277 
306 11 393 334 40 95 324 438 296 263 84 339 79 
307 11 380 373 21 400 409 277 410 354 309 418 428 
308 11 107 315 57 118 155 406 328 301 27 385 160 
309 9 354 277 310 305 4 311 429 400 373 
310 7 305 309 354 292 4 277 319 
311 11 429 413 4 211 354 305 309 310 277 292 149 
312 11 378 58 304 280 230 152 351 76 194 281 259 
313 6 386 402 295 433 32 283 
314 10 415 342 220 250 363 289 428 418 173 21 
315 11 308 107 57 118 155 406 27 328 371 160 301 
316 9 46 278 291 365 283 320 402 433 330 
317 10 321 302 50 98 63 414 444 267 333 208 
318 8 388 129 108 431 190 62 293 362 
319 5 292 305 310 284 4 
320 11 283 330 433 278 365 46 370 402 316 32 359 
321 10 302 317 98 50 267 63 414 333 444 313 
322 6 282 376 441 325 2 236 
323 5 49 440 345 417 439 
324 9 329 263 306 296 393 438 443 40 339 
325 6 441 322 282 2 156 376 
326 9 366 74 15 389 327 343 61 382 172 
327 11 15 366 326 382 74 343 54 61 389 34 172 
328 11 406 118 170 155 308 385 290 107 315 57 6 
329 8 324 263 236 443 296 306 203 2 
330 11 370 320 433 283 32 359 365 278 46 298 402 
331 11 61 237 280 54 382 89 366 327 187 312 350 
332 9 416 437 434 77 244 56 288 387 394 
333 11 87 362 396 98 295 258 63 32 298 386 302 
334 9 393 95 306 432 40 438 149 84 9 
335 10 219 175 72 143 368 139 192 59 191 158 
336 11 268 38 111 372 395 18 48 248 347 164 349 
337 9 133 367 60 214 99 189 216 408 374 
338 3 357 353 36 
339 8 438 40 263 207 95 306 324 364 
340 5 377 151 341 42 232 
341 9 42 340 151 232 377 160 421 197 179 
342 10 220 314 415 289 428 250 418 363 21 410 
343 9 74 389 15 172 327 326 366 355 358 
344 4 116 169 10 196 
345 3 417 323 49 
346 2 390 43 
347 9 8 436 422 349 3 300 166 420 289 
348 6 407 356 401 430 427 17 
349 11 38 271 300 399 8 268 224 347 3 18 227 
350 11 162 187 28 183 331 61 182 89 237 366 110 
351 11 230 259 14 152 304 378 31 312 280 58 91 
352 7 369 383 51 125 123 267 218 
353 3 338 36 357 
354 10 309 277 310 4 305 311 429 400 373 413 
355 8 358 379 172 403 294 424 34 343 
356 8 427 17 148 401 348 286 297 407 
357 3 338 353 36 
358 8 355 379 403 172 294 424 34 343 
359 11 370 330 365 320 283 433 46 298 278 32 243 
360 11 65 243 258 426 298 396 359 370 32 87 330 
361 7 165 391 39 279 80 94 287 
362 11 63 333 87 258 388 444 98 254 414 396 317 
363 10 415 314 250 173 342 220 418 428 289 21 
364 9 439 207 7 440 323 263 49 339 442 
365 11 46 278 320 283 316 330 359 370 433 291 402 
366 11 326 327 15 61 74 389 343 382 54 172 34 
367 11 133 60 214 337 99 189 216 408 374 269 9 
368 10 139 335 208 123 414 444 218 50 262 254 
369 7 383 352 51 125 267 123 50 
370 11 330 359 320 433 32 283 298 365 278 46 243 
371 8 179 27 421 430 286 160 401 17 
372 11 234 48 212 248 273 111 231 26 78 395 186 
373 9 400 307 277 380 21 309 354 409 418 
374 11 189 92 216 99 408 367 79 60 9 84 269 
375 11 241 47 131 24 425 124 127 141 205 249 28 
376 5 299 322 80 39 100 
377 6 340 232 151 42 341 197 
378 11 304 312 58 230 152 280 351 194 76 259 281 
379 8 403 358 355 294 424 172 34 285 
380 10 307 373 409 21 400 277 410 354 309 429 
381 8 100 419 94 39 165 80 299 361 
382 11 54 34 327 61 15 366 294 343 285 326 172 
383 9 369 352 125 51 123 267 50 321 302 
384 11 93 239 142 75 206 106 246 146 86 405 11 
385 8 170 290 406 328 155 118 287 22 
386 8 313 295 402 32 433 283 87 320 
387 11 43 437 434 244 233 416 288 394 132 346 332 
388 8 318 362 129 258 254 63 333 262 
389 7 74 343 15 326 327 366 172 
390 2 346 43 
391 6 279 80 361 39 299 165 
392 9 77 56 222 332 209 260 110 130 377 
393 10 334 306 95 40 438 84 432 9 79 149 
394 3 43 416 346 
395 11 111 248 212 48 372 336 234 363 273 314 415 
396 11 87 298 32 295 258 65 333 243 370 433 330 
397 11 135 97 44 137 197 242 204 232 412 171 174 
398 11 245 157 404 134 257 12 164 180 138 228 67 
399 11 227 238 271 138 349 67 224 38 18 134 300 
400 8 373 277 307 380 21 309 354 310 
401 10 286 17 430 427 297 407 356 148 371 348 
402 9 433 283 313 386 320 278 295 330 32 
403 7 379 424 294 358 355 285 34 
404 11 164 245 12 157 398 18 186 257 38 134 268 
405 11 75 13 253 93 81 117 272 6 276 202 384 
406 10 118 155 328 308 315 385 107 170 57 290 
407 6 348 430 401 17 286 356 
408 8 269 9 216 84 79 432 92 334 
409 7 380 307 410 21 373 211 429 
410 7 409 428 289 380 307 21 436 
411 11 68 73 171 101 154 19 264 167 242 204 174 
412 11 204 242 82 226 171 68 252 397 73 19 411 
413 10 211 429 311 4 354 309 305 149 277 409 
414 11 444 208 63 50 317 254 321 262 98 302 362 
415 10 314 342 220 250 363 418 289 428 173 21 
416 9 437 332 434 394 43 387 244 288 77 
417 3 345 49 323 
418 11 250 21 428 342 220 289 415 173 314 373 307 
419 6 94 381 100 165 39 361 
420 10 83 166 3 7 8 422 436 300 347 442 
421 8 160 179 27 371 341 42 430 57 
422 6 436 420 410 8 347 409 
423 11 90 180 184 228 190 62 431 398 188 134 213 
424 7 294 403 285 379 358 355 34 
425 8 24 141 131 127 249 375 47 241 
426 9 360 65 243 258 144 388 121 128 298 
427 10 17 356 148 297 401 286 348 407 430 122 
428 10 289 220 342 410 418 21 314 250 415 307 
429 11 311 413 211 4 354 309 305 277 310 380 409 
430 7 407 401 286 371 17 179 348 
431 10 190 62 108 90 213 129 293 318 257 423 
432 7 149 284 334 269 95 393 9 
433 11 283 320 330 32 402 370 278 295 46 365 386 
434 10 437 244 416 332 288 387 43 233 77 394 
435 7 194 281 58 76 102 285 96 
436 5 422 410 347 8 409 
437 10 434 416 332 244 387 288 43 394 77 233 
438 10 40 95 339 306 334 393 149 263 324 211 
439 9 364 207 440 7 323 49 442 263 83 
440 6 323 439 364 49 345 207 
441 6 325 322 282 376 2 100 
442 11 49 3 166 224 83 7 300 323 420 439 417 
443 10 215 296 203 217 329 2 236 324 306 79 
444 11 414 208 63 254 262 50 317 362 321 98 302 
DEPOT_SECTION
   1
   -1
EOF
