NAME :  X-n613-kX-w122-c7.cctp
COMMENT : 	Adapted by Maziero, Usberti and Cavellucci from the Uchoa, Pecin, Pessoa, Poggi, Subramanian, and Vidal (2013)
TYPE :  CCTP
DIMENSION :    533
EDGE_WEIGHT_TYPE : 	EUC_2D	
CAPACITY : 	523
VERTICES_WITHIN_COVERAGE :  7
VERTICES_WITH_DEMAND : 	122
NODE_COORD_SECTION
1 500 500
2 550 574
3 177 24
4 448 476
5 934 619
6 323 122
7 430 76
8 364 9
9 988 994
10 91 636
11 926 977
12 2 579
13 326 342
14 455 822
15 48 74
16 814 334
17 997 22
18 838 899
19 634 360
20 324 191
21 750 283
22 996 106
23 473 967
24 642 334
25 539 764
26 510 194
27 807 664
28 949 710
29 21 994
30 293 934
31 832 366
32 8 531
33 56 893
34 82 605
35 197 626
36 661 777
37 207 272
38 945 510
39 505 137
40 325 693
41 240 335
42 776 462
43 810 235
44 496 288
45 624 171
46 799 293
47 120 393
48 250 839
49 31 266
50 64 349
51 898 729
52 740 387
53 838 992
54 952 991
55 558 497
56 695 240
57 622 113
58 670 95
59 967 595
60 926 470
61 665 284
62 753 558
63 946 61
64 820 415
65 453 551
66 565 786
67 768 573
68 841 180
69 172 849
70 799 203
71 663 950
72 33 134
73 215 505
74 973 751
75 308 651
76 519 412
77 677 737
78 937 383
79 338 276
80 997 416
81 852 151
82 366 573
83 839 66
84 245 311
85 743 248
86 265 806
87 851 403
88 621 530
89 553 917
90 467 83
91 866 308
92 556 270
93 189 936
94 131 426
95 329 945
96 64 997
97 761 475
98 248 366
99 141 114
100 235 937
101 80 598
102 133 453
103 153 763
104 739 585
105 165 754
106 933 751
107 670 474
108 319 201
109 734 286
110 118 342
111 951 973
112 303 313
113 709 929
114 993 822
115 707 624
116 92 212
117 716 302
118 184 802
119 601 936
120 668 454
121 583 424
122 151 409
123 754 53
124 89 361
125 843 196
126 679 788
127 233 266
128 994 524
129 229 917
130 381 596
131 566 501
132 96 294
133 180 770
134 199 508
135 226 827
136 691 293
137 338 332
138 905 714
139 146 954
140 46 71
141 594 419
142 209 732
143 419 783
144 852 847
145 194 344
146 751 651
147 60 343
148 87 261
149 962 886
150 882 81
151 777 993
152 877 318
153 645 892
154 909 276
155 859 247
156 109 124
157 214 725
158 292 982
159 674 506
160 724 614
161 247 618
162 133 392
163 140 512
164 986 490
165 255 776
166 864 343
167 594 73
168 531 156
169 221 392
170 221 398
171 809 947
172 864 805
173 843 335
174 477 878
175 129 202
176 940 551
177 183 69
178 867 413
179 540 551
180 281 990
181 604 224
182 907 417
183 650 349
184 998 2
185 570 808
186 216 820
187 959 382
188 527 34
189 892 60
190 436 349
191 427 927
192 663 441
193 78 435
194 997 108
195 324 213
196 369 115
197 177 280
198 539 753
199 81 372
200 102 788
201 43 527
202 765 671
203 31 906
204 854 983
205 610 874
206 835 330
207 390 283
208 982 681
209 650 227
210 975 485
211 135 322
212 287 6
213 446 24
214 530 474
215 700 542
216 305 9
217 12 340
218 285 858
219 358 892
220 123 118
221 498 952
222 752 59
223 444 51
224 888 591
225 281 498
226 927 591
227 690 495
228 767 78
229 199 357
230 257 625
231 757 346
232 559 164
233 56 937
234 559 96
235 415 7
236 782 493
237 198 754
238 351 593
239 972 719
240 267 937
241 921 181
242 196 447
243 748 875
244 699 405
245 978 373
246 286 936
247 755 180
248 696 458
249 188 130
250 341 291
251 628 240
252 977 737
253 487 328
254 784 13
255 57 916
256 810 409
257 701 741
258 314 201
259 661 104
260 740 622
261 550 234
262 215 853
263 138 876
264 318 722
265 253 617
266 90 662
267 909 472
268 308 910
269 994 964
270 181 279
271 132 324
272 891 448
273 610 312
274 582 826
275 373 584
276 330 146
277 968 383
278 436 570
279 725 274
280 517 304
281 835 254
282 901 434
283 858 202
284 261 997
285 493 583
286 512 311
287 592 403
288 949 560
289 426 413
290 634 611
291 200 557
292 44 99
293 823 681
294 958 756
295 913 482
296 594 984
297 73 713
298 4 687
299 717 349
300 622 359
301 316 622
302 114 595
303 720 330
304 485 245
305 563 890
306 412 21
307 600 831
308 682 188
309 555 691
310 799 117
311 671 173
312 117 117
313 55 117
314 242 124
315 139 795
316 670 711
317 22 470
318 919 386
319 988 857
320 166 675
321 269 813
322 144 450
323 66 302
324 275 504
325 812 595
326 65 382
327 683 718
328 744 458
329 370 159
330 155 263
331 897 63
332 9 995
333 136 611
334 925 459
335 371 271
336 97 729
337 585 137
338 473 176
339 748 261
340 141 431
341 208 624
342 780 44
343 653 811
344 827 0
345 909 367
346 62 951
347 805 374
348 204 284
349 139 39
350 73 455
351 800 483
352 516 93
353 489 103
354 297 291
355 517 407
356 468 780
357 300 560
358 754 944
359 999 143
360 220 145
361 542 926
362 509 745
363 515 461
364 791 479
365 821 266
366 459 481
367 47 141
368 417 102
369 950 385
370 57 886
371 991 595
372 962 506
373 375 948
374 631 572
375 210 596
376 829 100
377 133 673
378 578 982
379 353 675
380 834 675
381 141 964
382 146 650
383 353 284
384 305 987
385 150 727
386 301 687
387 308 224
388 821 189
389 45 279
390 108 220
391 523 381
392 446 524
393 907 598
394 943 843
395 473 609
396 659 823
397 326 19
398 92 368
399 29 271
400 804 619
401 369 215
402 325 240
403 197 903
404 189 871
405 297 819
406 102 896
407 20 818
408 850 667
409 916 759
410 401 140
411 364 57
412 823 178
413 590 605
414 749 943
415 924 977
416 315 879
417 78 1
418 36 243
419 903 279
420 521 366
421 153 0
422 812 506
423 481 68
424 705 785
425 16 596
426 974 675
427 503 914
428 431 112
429 636 548
430 728 560
431 156 777
432 623 149
433 879 709
434 404 453
435 838 272
436 646 185
437 520 843
438 337 149
439 761 972
440 637 433
441 607 588
442 575 511
443 952 72
444 818 942
445 427 589
446 688 326
447 547 662
448 423 507
449 93 4
450 699 23
451 762 595
452 48 7
453 586 171
454 391 990
455 860 942
456 562 289
457 779 980
458 305 733
459 231 555
460 661 798
461 954 975
462 888 912
463 483 24
464 69 618
465 244 362
466 72 937
467 793 569
468 145 885
469 582 43
470 73 425
471 979 684
472 911 888
473 921 111
474 108 98
475 126 241
476 737 414
477 830 426
478 546 141
479 429 536
480 741 233
481 373 286
482 305 814
483 690 548
484 449 506
485 491 754
486 252 82
487 278 918
488 61 132
489 344 620
490 500 421
491 161 501
492 734 467
493 410 836
494 205 115
495 152 932
496 945 335
497 61 872
498 408 85
499 633 945
500 83 627
501 550 809
502 890 266
503 711 338
504 515 998
505 946 604
506 61 580
507 785 575
508 931 871
509 474 76
510 967 395
511 243 984
512 849 185
513 817 685
514 182 780
515 607 31
516 43 337
517 417 480
518 931 355
519 693 31
520 749 418
521 827 37
522 30 362
523 945 714
524 789 100
525 492 526
526 234 361
527 165 386
528 87 989
529 597 528
530 401 969
531 146 661
532 910 977
533 771 90
DEMAND_SECTION
2 97
3 2
4 30
5 91
6 63
7 99
8 78
9 50
10 2
11 58
12 1
13 3
14 99
15 28
16 32
17 10
18 1
19 75
20 55
21 75
22 31
23 38
24 34
25 62
26 25
27 12
28 63
29 43
30 100
31 58
32 45
33 68
34 38
35 31
36 91
37 59
38 4
39 43
40 48
41 31
42 84
43 43
44 51
45 37
46 48
47 26
48 97
49 39
50 42
51 64
52 50
53 5
54 98
55 66
56 65
57 24
58 74
59 59
60 40
61 57
62 23
63 98
64 95
65 3
66 74
67 96
68 70
69 99
70 54
71 84
72 53
73 35
74 19
75 93
76 32
77 2
78 27
79 63
80 71
81 65
82 19
83 72
84 14
85 52
86 38
87 99
88 6
89 80
90 66
91 4
92 50
93 98
94 89
95 35
96 82
97 55
98 85
99 63
100 70
101 1
102 41
103 38
104 44
105 3
106 86
107 74
108 47
109 91
110 62
111 53
112 8
113 28
114 9
115 64
116 50
117 8
118 79
119 53
120 11
121 71
122 78
123 11
COVERAGE_SECTION
2 7 179 413 285 441 529 442 131 
3 7 421 349 177 449 486 494 99 
4 7 366 484 517 448 392 434 479 
5 6 505 226 393 59 224 288 
6 7 276 438 196 329 20 411 108 
7 7 498 223 368 428 90 509 423 
8 7 397 411 306 235 216 212 213 
9 7 269 54 461 111 11 415 532 
10 7 500 266 464 34 101 302 333 
11 7 415 532 111 461 54 9 269 
12 7 425 32 506 201 464 101 34 
13 7 137 112 250 354 383 79 481 
14 5 356 493 143 174 437 
15 7 140 292 313 488 72 474 367 
16 7 206 173 31 347 46 166 91 
17 7 184 63 443 22 194 331 189 
18 6 444 455 462 144 171 472 
19 6 300 183 24 273 287 446 
20 7 108 258 195 387 438 276 402 
21 7 109 339 279 85 117 46 480 
22 7 194 359 443 63 473 17 184 
23 4 221 504 191 427 
24 7 183 19 300 273 446 61 136 
25 7 198 66 362 501 485 185 356 
26 7 338 168 39 232 261 304 478 
27 7 293 513 380 202 408 400 146 
28 7 523 239 252 471 426 106 138 
29 7 332 96 346 528 233 466 255 
30 7 246 487 240 268 95 158 384 
31 7 347 173 206 16 166 87 256 
32 5 201 12 317 425 506 
33 7 370 497 255 203 233 406 466 
34 7 101 464 500 10 506 302 333 
35 7 341 375 161 382 265 320 230 
36 7 126 460 343 77 424 396 257 
37 6 348 127 270 197 330 84 
38 7 372 210 176 295 60 164 288 
39 7 168 353 478 352 338 26 232 
40 5 386 264 379 75 458 
41 6 84 465 526 98 145 229 
42 7 97 364 236 328 351 492 520 
43 7 281 365 70 435 388 155 125 
44 6 280 286 253 304 92 456 
45 7 432 436 453 311 337 181 57 
46 7 365 16 435 21 206 281 43 
47 7 162 94 122 398 340 199 124 
48 7 135 321 86 262 186 218 405 
49 7 399 389 418 323 148 132 516 
50 7 147 516 124 199 326 398 522 
51 7 138 433 409 106 523 28 294 
52 7 476 520 231 299 244 503 303 
53 7 204 171 444 455 457 151 532 
54 7 461 111 11 415 9 532 269 
55 7 131 442 214 529 363 179 88 
56 7 279 209 480 85 61 136 308 
57 7 432 259 337 167 58 45 234 
58 7 259 57 519 432 311 450 167 
59 7 505 371 288 226 5 176 393 
60 7 334 267 295 272 38 282 210 
61 7 136 446 56 117 24 251 209 
62 7 67 430 104 507 451 467 215 
63 7 443 331 189 473 17 22 150 
64 7 256 477 87 347 178 31 42 
65 7 278 392 479 484 445 525 285 
66 7 185 501 25 198 274 307 362 
67 7 507 62 451 467 104 430 325 
68 7 512 125 412 388 283 81 70 
69 6 404 262 263 468 118 186 
70 7 388 43 412 125 68 247 512 
71 7 499 113 153 119 296 414 358 
72 5 367 313 488 292 15 
73 7 134 459 291 491 324 242 225 
74 7 252 294 239 106 523 28 409 
75 7 301 386 40 489 379 230 265 
76 7 355 490 391 420 363 214 121 
77 6 327 257 316 36 126 424 
78 7 369 318 187 518 277 345 510 
79 7 250 383 335 481 402 354 112 
80 7 510 277 245 187 369 78 210 
81 7 68 512 412 125 388 283 376 
82 7 275 238 130 489 445 357 278 
83 7 521 376 150 189 331 524 342 
84 7 41 127 348 465 526 37 98 
85 7 339 480 279 21 109 56 117 
86 7 321 165 405 48 482 135 186 
87 7 178 477 64 256 31 347 182 
88 7 429 529 374 442 159 441 131 
89 7 361 305 427 119 221 378 205 
90 7 509 423 353 7 223 428 352 
91 7 152 166 173 206 435 419 502 
92 7 456 261 280 286 44 181 273 
93 6 403 495 129 100 139 381 
94 7 340 122 102 322 162 47 527 
95 7 30 268 246 373 384 158 487 
96 7 528 29 346 332 233 466 255 
97 7 42 328 236 492 364 351 520 
98 7 465 526 41 169 170 229 84 
99 6 220 312 156 474 249 177 
100 7 129 240 93 487 511 246 403 
101 7 34 464 506 500 302 10 333 
102 7 322 340 94 122 491 193 163 
103 7 431 105 133 514 315 385 237 
104 7 451 430 62 67 160 260 507 
105 7 103 133 431 385 514 237 142 
106 7 409 294 523 74 51 28 138 
107 7 120 227 248 159 192 440 492 
108 7 258 20 195 387 402 401 438 
109 7 279 21 117 339 85 136 303 
110 7 271 211 124 398 199 47 162 
111 7 461 54 11 415 532 9 269 
112 7 354 13 137 250 79 84 383 
113 7 414 358 71 243 439 153 499 
114 7 319 394 149 74 294 508 252 
115 5 160 260 104 146 451 
116 5 390 175 475 148 418 
117 7 109 136 303 279 503 446 21 
118 7 514 133 186 431 315 69 135 
119 7 499 296 378 89 305 361 153 
120 7 192 107 248 440 227 159 244 
121 6 141 287 440 76 355 214 
122 7 340 162 94 527 47 322 102 
123 7 222 228 342 533 254 524 450 
124 7 398 199 50 326 147 110 47 
125 7 512 68 283 388 412 70 81 
126 7 36 460 424 343 396 77 257 
127 7 37 348 84 270 197 41 354 
128 7 164 372 210 38 288 176 371 
129 7 100 403 240 93 487 246 404 
130 6 275 82 238 489 445 278 
131 7 55 442 529 214 179 88 363 
132 7 323 148 271 211 110 389 147 
133 7 514 105 237 431 103 118 142 
134 7 73 491 291 459 163 242 324 
135 7 186 48 262 86 321 118 404 
136 7 117 61 446 279 109 303 503 
137 7 13 112 250 383 79 354 481 
138 7 51 433 523 28 106 409 239 
139 4 381 495 93 468 
140 7 15 292 313 488 72 452 474 
141 6 121 287 440 300 19 192 
142 6 157 237 133 105 514 385 
143 3 356 14 493 
144 5 172 18 472 462 508 
145 6 229 526 41 527 465 169 
146 4 202 260 160 115 
147 7 50 516 124 199 522 326 323 
148 7 132 475 323 389 390 116 418 
149 6 508 319 394 472 114 462 
150 7 189 331 83 473 376 63 521 
151 7 457 439 358 171 414 53 444 
152 7 91 166 173 206 419 154 502 
153 4 205 499 71 119 
154 4 419 502 152 91 
155 6 281 435 502 365 283 43 
156 5 312 220 474 99 488 
157 4 142 237 133 105 
158 7 180 384 284 246 30 511 240 
159 7 227 107 215 483 120 248 429 
160 7 260 115 104 451 146 430 67 
161 7 265 230 341 375 35 459 75 
162 7 47 122 527 94 340 398 110 
163 6 491 102 134 322 73 291 
164 7 210 372 128 38 60 334 295 
165 5 86 321 135 186 405 
166 7 173 152 206 91 31 16 345 
167 7 469 234 515 57 337 259 188 
168 7 478 232 39 26 337 453 338 
169 7 170 526 98 465 229 145 527 
170 7 169 526 98 465 229 242 527 
171 7 444 457 455 53 439 358 18 
172 3 144 409 51 
173 7 206 166 16 31 91 152 347 
174 3 427 437 14 
175 5 390 116 475 330 148 
176 6 288 38 226 372 59 505 
177 7 3 494 349 249 99 486 421 
178 7 87 477 182 282 272 64 256 
179 7 2 442 525 131 55 285 529 
180 7 158 284 384 511 246 240 30 
181 7 251 209 261 453 45 436 92 
182 7 282 318 272 178 78 334 345 
183 7 24 19 300 446 273 503 61 
184 7 17 63 443 22 194 331 189 
185 7 501 274 66 307 25 437 198 
186 7 135 262 118 48 86 514 69 
187 7 277 369 510 245 78 518 318 
188 7 463 469 423 352 509 234 90 
189 7 331 150 83 63 473 443 521 
190 7 253 289 207 286 44 420 481 
191 3 530 373 23 
192 7 120 440 107 248 244 227 159 
193 4 470 350 94 326 
194 7 22 359 443 63 473 17 241 
195 7 108 258 387 20 402 401 79 
196 7 410 329 6 438 498 276 368 
197 6 270 348 330 37 127 211 
198 7 25 362 66 485 501 185 309 
199 7 398 124 326 50 147 47 110 
200 4 315 431 103 336 
201 5 32 506 317 12 425 
202 2 146 27 
203 7 33 255 370 233 497 466 346 
204 7 53 455 444 532 171 415 11 
205 5 153 307 305 274 119 
206 7 173 16 166 31 91 152 46 
207 7 481 335 383 250 79 137 401 
208 7 471 426 239 28 523 252 74 
209 7 251 436 181 56 308 311 61 
210 7 164 372 38 128 60 334 295 
211 6 271 110 132 197 124 330 
212 7 216 397 8 486 411 3 6 
213 7 223 306 235 463 7 423 509 
214 7 363 55 131 442 490 76 525 
215 7 483 430 159 227 62 104 429 
216 7 212 397 8 411 486 306 235 
217 6 522 516 147 50 323 326 
218 7 416 48 405 321 482 86 268 
219 4 416 268 373 95 
220 5 312 156 99 474 488 
221 5 23 427 504 361 89 
222 7 123 228 342 533 524 254 450 
223 7 213 7 90 509 423 306 463 
224 3 393 226 5 
225 5 324 357 73 459 134 
226 6 393 505 5 288 224 59 
227 7 159 107 248 120 215 492 483 
228 7 533 222 123 524 342 310 376 
229 6 145 526 169 465 527 41 
230 7 265 161 341 375 75 301 35 
231 7 299 303 52 503 347 16 117 
232 7 478 453 168 337 26 39 45 
233 7 346 466 255 203 33 370 96 
234 7 167 352 478 337 469 57 168 
235 7 306 213 8 223 463 7 411 
236 7 364 351 97 42 422 328 492 
237 7 133 142 514 105 157 103 431 
238 6 275 82 489 130 301 357 
239 7 252 28 523 74 471 208 294 
240 7 246 487 30 100 129 268 158 
241 4 283 473 512 81 
242 7 322 170 340 122 169 73 134 
243 1 113 
244 7 476 52 192 520 248 120 299 
245 6 277 187 510 369 78 80 
246 7 30 240 487 268 95 158 100 
247 7 70 480 388 412 85 308 310 
248 7 120 107 192 227 492 328 159 
249 7 494 360 99 314 177 220 312 
250 7 383 79 481 335 137 112 354 
251 7 209 181 61 436 56 45 273 
252 7 74 239 294 28 523 106 471 
253 6 286 280 44 420 190 391 
254 7 342 344 521 123 222 228 83 
255 7 233 33 466 203 370 346 497 
256 7 64 477 347 87 31 178 520 
257 5 77 327 316 424 126 
258 7 108 20 195 387 402 276 401 
259 7 58 57 432 311 167 45 519 
260 7 160 146 115 451 104 202 67 
261 7 92 181 456 26 304 232 453 
262 7 135 404 186 48 69 403 118 
263 3 468 406 69 
264 4 458 40 386 379 
265 7 161 230 341 375 35 301 75 
266 6 10 500 377 464 297 531 
267 7 295 60 334 272 282 38 182 
268 7 30 487 416 246 95 240 219 
269 7 9 461 111 54 11 415 149 
270 6 197 348 37 330 127 211 
271 6 211 110 132 124 398 197 
272 7 282 267 182 334 295 60 178 
273 6 24 300 456 19 183 61 
274 5 307 185 501 66 205 
275 6 82 130 238 489 445 278 
276 7 438 6 329 20 196 108 258 
277 7 187 510 245 369 78 80 518 
278 7 445 65 479 392 395 285 130 
279 7 109 339 21 117 85 136 480 
280 6 286 44 253 456 92 420 
281 6 365 435 155 43 46 502 
282 7 272 182 334 267 178 60 295 
283 6 125 512 68 388 412 155 
284 7 180 511 158 384 240 100 246 
285 6 395 65 179 525 2 278 
286 6 280 44 253 456 420 92 
287 6 141 121 300 440 19 391 
288 6 176 226 59 505 38 371 
289 6 434 190 4 517 490 366 
290 7 441 374 413 429 115 88 483 
291 7 459 375 134 73 341 491 35 
292 6 313 15 140 72 488 367 
293 7 513 380 27 408 202 433 400 
294 7 74 106 252 239 409 523 28 
295 6 267 60 334 272 38 282 
296 7 378 119 499 71 361 89 504 
297 6 336 266 377 298 385 10 
298 7 297 266 425 464 500 10 336 
299 7 503 303 446 231 52 117 244 
300 6 19 183 24 273 287 141 
301 7 489 75 238 230 265 357 379 
302 7 333 34 101 500 10 464 506 
303 7 503 299 117 446 231 109 136 
304 7 44 26 261 280 338 286 92 
305 6 89 361 205 119 437 427 
306 7 235 213 223 8 7 411 498 
307 5 274 185 205 501 66 
308 7 311 436 209 56 45 432 247 
309 4 447 198 362 25 
310 7 524 376 533 228 81 83 412 
311 7 308 436 45 432 209 259 56 
312 5 220 156 474 99 488 
313 5 488 292 367 72 15 
314 7 360 494 486 249 6 177 276 
315 7 431 103 200 118 514 133 105 
316 3 327 77 257 
317 4 350 201 32 193 
318 7 78 345 369 182 518 187 277 
319 6 114 149 394 508 472 294 
320 6 531 382 377 385 35 341 
321 7 86 405 48 482 165 135 218 
322 7 102 340 94 122 242 491 162 
323 7 132 389 147 516 148 50 399 
324 5 225 73 357 459 134 
325 5 400 467 507 67 451 
326 7 199 398 124 50 147 522 470 
327 3 316 77 257 
328 7 492 97 42 520 476 248 364 
329 7 438 410 276 196 20 401 6 
330 7 197 270 475 37 348 211 390 
331 7 189 150 63 473 443 83 521 
332 7 29 96 346 233 528 466 203 
333 7 302 382 10 531 34 500 101 
334 7 60 267 295 282 272 182 38 
335 7 481 207 383 79 250 402 401 
336 6 297 385 200 103 266 377 
337 7 453 232 478 432 57 234 45 
338 7 26 39 168 304 353 428 410 
339 7 85 21 279 109 480 117 56 
340 7 94 322 102 122 162 47 527 
341 7 35 375 161 265 230 320 291 
342 7 123 254 222 228 533 521 524 
343 5 396 460 36 126 307 
344 7 521 254 342 83 189 123 331 
345 7 318 518 78 369 496 182 166 
346 7 233 466 255 528 96 203 33 
347 7 31 256 16 64 206 87 173 
348 6 37 270 197 127 84 330 
349 7 3 421 177 449 474 417 99 
350 4 193 470 317 102 
351 7 364 236 422 42 97 328 477 
352 7 353 234 423 39 509 90 478 
353 7 352 90 509 423 39 428 7 
354 7 112 79 250 84 383 137 402 
355 6 76 490 391 420 363 121 
356 7 485 14 143 362 25 198 493 
357 7 238 324 301 225 82 459 265 
358 7 414 439 457 113 151 171 444 
359 6 194 22 473 443 241 63 
360 7 314 494 249 486 99 177 220 
361 6 89 427 305 221 119 378 
362 5 485 198 25 356 66 
363 7 214 490 76 355 55 366 131 
364 7 351 236 42 97 422 328 492 
365 6 281 435 43 46 155 91 
366 7 4 484 517 448 392 525 363 
367 5 72 488 313 292 156 
368 7 428 498 7 410 196 90 223 
369 7 187 78 277 510 245 318 518 
370 7 33 497 255 203 406 233 466 
371 7 59 505 288 5 226 176 128 
372 7 38 210 164 128 176 60 295 
373 6 530 454 95 191 219 268 
374 7 429 441 290 88 413 529 483 
375 7 341 35 291 161 459 265 230 
376 7 310 83 524 81 150 533 521 
377 6 531 382 320 266 10 385 
378 7 296 119 504 499 361 89 221 
379 6 40 75 386 489 264 301 
380 6 293 408 513 27 433 400 
381 5 139 495 93 528 466 
382 7 531 377 320 333 35 10 266 
383 7 250 79 481 335 207 137 402 
384 7 158 180 284 95 30 246 511 
385 6 105 103 431 133 336 320 
386 5 40 75 264 458 379 
387 7 195 402 258 108 20 79 401 
388 7 412 68 125 70 512 283 43 
389 7 399 49 323 418 148 132 516 
390 7 116 175 475 148 330 132 418 
391 5 420 355 76 490 253 
392 7 484 479 65 448 366 525 278 
393 5 224 226 5 505 176 
394 6 508 149 319 114 472 172 
395 4 285 445 278 65 
396 4 343 460 126 36 
397 7 216 8 212 411 306 235 486 
398 7 124 199 326 50 110 47 147 
399 7 49 389 418 323 148 516 132 
400 7 325 27 451 507 467 67 146 
401 7 195 20 402 108 329 335 258 
402 7 387 195 79 108 258 20 401 
403 6 404 93 129 100 262 495 
404 5 69 262 403 468 263 
405 6 482 321 86 218 48 165 
406 4 263 468 33 370 
407 4 497 370 33 200 
408 6 380 293 513 27 433 400 
409 7 106 51 294 138 523 74 28 
410 7 329 196 368 428 498 438 7 
411 7 8 498 397 196 306 7 368 
412 7 388 68 125 512 70 81 283 
413 7 441 290 2 374 447 429 179 
414 7 358 439 113 457 151 171 243 
415 7 11 532 111 461 54 9 204 
416 7 268 218 219 487 30 405 246 
417 7 449 452 349 421 140 15 3 
418 7 49 399 389 148 116 323 390 
419 5 154 502 91 152 155 
420 5 391 355 76 253 286 
421 7 3 349 449 177 417 452 474 
422 5 351 236 364 42 97 
423 7 509 90 353 223 352 463 7 
424 6 126 257 36 460 77 343 
425 7 12 506 464 101 32 34 201 
426 7 208 471 28 239 523 252 5 
427 5 221 361 174 89 23 
428 7 368 498 7 410 90 509 353 
429 7 88 374 529 441 483 159 290 
430 7 62 104 215 483 67 451 160 
431 7 103 105 133 315 514 118 237 
432 7 45 57 337 436 453 311 259 
433 7 138 51 408 380 409 293 513 
434 5 517 289 4 448 366 
435 6 281 365 155 46 43 91 
436 7 45 311 308 209 432 181 251 
437 7 501 174 185 274 305 14 66 
438 7 276 6 329 20 196 108 258 
439 7 457 151 358 414 171 444 113 
440 7 192 120 141 107 287 121 248 
441 7 413 374 290 429 2 88 529 
442 7 131 55 529 88 179 214 2 
443 7 63 473 22 331 194 189 17 
444 7 171 455 18 53 457 204 358 
445 6 278 65 130 395 479 275 
446 7 503 303 136 117 299 183 24 
447 4 309 413 2 198 
448 7 484 517 392 479 4 366 65 
449 7 417 452 349 421 140 15 3 
450 7 519 123 222 58 342 254 228 
451 7 67 104 507 260 62 467 160 
452 7 417 449 140 15 292 349 421 
453 7 232 337 45 432 478 181 168 
454 6 530 373 191 95 23 384 
455 7 204 462 444 18 171 53 532 
456 6 92 280 273 286 261 44 
457 7 151 439 358 171 414 444 53 
458 4 264 40 386 165 
459 7 291 375 73 134 161 265 324 
460 5 343 36 126 396 424 
461 7 111 54 11 415 9 269 532 
462 6 472 455 18 508 532 144 
463 7 213 423 188 223 509 90 235 
464 7 500 34 101 10 506 266 302 
465 7 98 526 41 169 170 229 84 
466 7 233 346 255 33 203 406 370 
467 6 507 67 325 451 62 400 
468 4 263 406 69 404 
469 7 515 167 188 234 57 352 337 
470 6 193 350 326 199 47 94 
471 7 208 426 239 28 523 252 74 
472 6 508 462 149 394 144 18 
473 7 150 443 331 63 189 241 22 
474 5 312 220 156 99 313 
475 7 390 330 175 148 116 132 197 
476 7 520 52 244 328 492 248 42 
477 7 64 256 87 178 347 31 351 
478 7 168 232 337 39 234 453 352 
479 7 392 65 448 278 484 445 517 
480 7 85 339 279 56 21 109 247 
481 7 335 207 383 250 79 137 402 
482 5 405 321 86 218 48 
483 7 215 430 159 227 429 104 62 
484 7 392 448 366 4 479 517 65 
485 5 362 356 198 25 14 
486 7 314 494 177 360 249 6 212 
487 7 246 30 240 268 100 129 416 
488 5 313 367 72 292 156 
489 7 238 301 130 275 75 82 379 
490 7 76 355 363 391 420 214 366 
491 7 163 134 73 322 102 242 291 
492 7 328 97 248 42 520 227 476 
493 2 14 143 
494 7 249 360 314 177 486 99 220 
495 4 139 381 93 468 
496 5 518 345 78 187 245 
497 5 370 33 255 203 406 
498 7 368 7 428 196 223 411 410 
499 7 71 119 153 296 378 205 113 
500 7 10 464 34 101 266 302 506 
501 7 185 66 274 437 25 307 198 
502 5 419 154 155 91 435 
503 7 303 299 446 117 231 136 52 
504 7 221 23 378 361 296 427 89 
505 7 5 59 226 393 288 371 176 
506 7 101 34 464 425 500 302 201 
507 7 467 67 451 325 62 104 400 
508 6 472 394 149 319 462 114 
509 7 90 423 353 223 7 352 463 
510 7 277 187 369 245 78 80 318 
511 7 284 180 100 158 240 384 246 
512 7 68 125 283 412 388 81 70 
513 5 293 380 27 408 202 
514 7 133 118 431 105 237 103 315 
515 7 469 167 188 234 57 519 58 
516 7 147 50 522 217 323 326 124 
517 7 448 434 4 484 366 392 479 
518 7 496 345 78 318 369 187 277 
519 7 450 123 222 58 259 515 228 
520 7 476 52 328 492 42 244 97 
521 7 83 344 342 254 376 189 150 
522 6 217 516 50 147 326 199 
523 7 28 239 106 252 138 294 471 
524 7 310 533 228 376 222 342 123 
525 7 65 392 484 179 366 285 214 
526 7 465 98 41 169 229 170 145 
527 7 122 162 229 47 145 340 94 
528 7 96 346 466 381 233 29 139 
529 7 88 442 131 429 55 374 179 
530 6 454 373 191 23 95 219 
531 6 382 377 320 333 266 10 
532 7 415 11 111 54 461 204 455 
533 7 228 524 222 310 123 342 376 
DEPOT_SECTION
   1
   -1
EOF
