NAME :  X-n627-kX-w250-c7.cctp
COMMENT : 	Adapted by Maziero, Usberti and Cavellucci from the Uchoa, Pecin, Pessoa, Poggi, Subramanian, and Vidal (2013)
TYPE :  CCTP
DIMENSION :    620
EDGE_WEIGHT_TYPE : 	EUC_2D	
CAPACITY : 	110
VERTICES_WITHIN_COVERAGE :  7
VERTICES_WITH_DEMAND : 	250
NODE_COORD_SECTION
1 0 0
2 816 981
3 349 338
4 22 205
5 385 344
6 913 54
7 410 410
8 108 298
9 280 512
10 335 312
11 155 336
12 64 98
13 64 184
14 874 922
15 513 345
16 516 316
17 403 276
18 407 310
19 161 312
20 931 13
21 371 380
22 460 357
23 455 345
24 796 940
25 811 111
26 360 338
27 932 60
28 803 989
29 882 959
30 2 58
31 740 917
32 939 22
33 53 202
34 360 409
35 802 863
36 326 268
37 565 473
38 828 21
39 311 537
40 868 36
41 2 246
42 243 431
43 58 191
44 756 985
45 900 104
46 281 633
47 42 237
48 771 961
49 290 453
50 289 346
51 27 123
52 16 181
53 960 960
54 457 383
55 759 856
56 10 179
57 62 165
58 297 197
59 2 151
60 491 292
61 124 102
62 536 441
63 374 246
64 778 976
65 854 959
66 740 836
67 26 238
68 875 125
69 935 116
70 255 411
71 313 340
72 91 159
73 369 362
74 341 352
75 363 286
76 366 242
77 832 961
78 443 397
79 863 999
80 944 188
81 866 933
82 644 495
83 59 233
84 890 960
85 373 308
86 73 84
87 467 337
88 291 307
89 657 858
90 394 290
91 273 161
92 288 89
93 354 274
94 456 206
95 421 275
96 476 325
97 447 183
98 320 282
99 768 854
100 355 447
101 415 250
102 941 48
103 432 303
104 834 982
105 814 93
106 930 930
107 562 465
108 430 495
109 450 472
110 417 234
111 25 204
112 260 351
113 441 312
114 957 1
115 837 881
116 921 27
117 452 219
118 781 931
119 308 258
120 354 393
121 879 40
122 272 230
123 162 158
124 19 284
125 361 273
126 392 255
127 53 201
128 395 97
129 468 176
130 330 293
131 353 383
132 318 435
133 252 364
134 603 555
135 134 280
136 865 985
137 343 194
138 110 159
139 355 341
140 437 439
141 26 137
142 801 157
143 547 92
144 369 319
145 749 958
146 298 337
147 799 21
148 430 307
149 273 556
150 246 342
151 805 824
152 324 354
153 906 80
154 513 397
155 321 107
156 350 280
157 957 194
158 954 4
159 36 314
160 293 397
161 227 279
162 926 68
163 407 307
164 5 137
165 793 990
166 26 198
167 34 187
168 134 405
169 371 329
170 44 181
171 79 470
172 869 855
173 918 112
174 916 33
175 789 126
176 391 378
177 427 333
178 760 921
179 384 472
180 229 348
181 120 223
182 120 308
183 86 28
184 933 368
185 63 146
186 897 138
187 258 514
188 677 899
189 881 94
190 724 977
191 405 288
192 852 955
193 461 318
194 311 501
195 574 343
196 911 215
197 943 0
198 690 419
199 328 441
200 448 250
201 309 266
202 907 187
203 336 466
204 836 977
205 22 201
206 543 274
207 336 367
208 316 400
209 348 311
210 404 378
211 378 494
212 267 320
213 53 262
214 215 420
215 329 385
216 219 291
217 648 516
218 111 262
219 366 374
220 355 614
221 890 41
222 344 440
223 393 390
224 97 418
225 125 26
226 419 399
227 348 354
228 370 191
229 446 504
230 319 378
231 984 34
232 76 237
233 239 411
234 842 116
235 496 310
236 866 137
237 140 371
238 502 399
239 381 451
240 811 953
241 374 380
242 809 959
243 285 434
244 47 224
245 858 950
246 8 298
247 380 340
248 931 185
249 977 994
250 400 343
251 375 245
252 882 1
253 819 990
254 443 296
255 2 162
256 13 130
257 44 243
258 869 131
259 150 210
260 937 139
261 372 329
262 408 231
263 65 244
264 440 468
265 382 359
266 937 219
267 407 321
268 351 381
269 27 222
270 406 421
271 122 147
272 850 64
273 31 228
274 591 348
275 356 366
276 107 207
277 252 334
278 306 365
279 410 335
280 103 110
281 303 286
282 207 95
283 838 999
284 421 235
285 348 366
286 19 168
287 75 177
288 377 321
289 577 203
290 352 210
291 417 359
292 896 18
293 302 396
294 996 984
295 505 582
296 924 883
297 337 321
298 382 299
299 407 366
300 828 893
301 399 477
302 935 73
303 360 355
304 343 300
305 388 223
306 346 202
307 364 182
308 829 993
309 953 97
310 498 325
311 435 300
312 485 428
313 846 988
314 322 244
315 52 206
316 841 933
317 363 131
318 342 397
319 826 808
320 318 307
321 278 284
322 302 337
323 50 202
324 536 328
325 895 57
326 360 244
327 652 883
328 49 173
329 118 114
330 399 248
331 189 460
332 409 509
333 322 430
334 446 249
335 313 138
336 299 252
337 998 981
338 856 102
339 402 396
340 895 90
341 780 109
342 476 361
343 348 349
344 916 243
345 35 140
346 784 14
347 71 185
348 633 953
349 124 396
350 396 304
351 32 168
352 677 971
353 304 292
354 529 293
355 46 150
356 351 250
357 288 195
358 897 61
359 85 90
360 272 364
361 941 143
362 67 257
363 854 89
364 385 398
365 909 58
366 777 868
367 243 125
368 515 327
369 798 946
370 290 418
371 722 954
372 289 296
373 863 67
374 429 362
375 347 427
376 813 906
377 963 76
378 305 467
379 136 630
380 920 788
381 351 404
382 823 36
383 645 99
384 311 377
385 441 411
386 445 649
387 347 348
388 323 299
389 423 376
390 834 952
391 419 416
392 398 349
393 70 197
394 96 330
395 43 363
396 875 131
397 392 351
398 778 723
399 26 151
400 485 222
401 346 321
402 848 43
403 874 98
404 213 413
405 887 131
406 988 37
407 385 360
408 309 171
409 49 285
410 220 333
411 865 920
412 403 458
413 405 304
414 766 965
415 850 830
416 952 43
417 256 299
418 640 291
419 47 217
420 270 427
421 779 916
422 355 366
423 331 528
424 430 373
425 487 494
426 327 382
427 3 275
428 344 355
429 0 105
430 170 217
431 884 90
432 868 958
433 389 384
434 94 520
435 94 142
436 46 121
437 318 448
438 403 257
439 438 261
440 6 148
441 781 928
442 457 450
443 311 368
444 149 200
445 768 997
446 561 419
447 280 374
448 69 250
449 787 222
450 330 372
451 353 232
452 425 377
453 953 32
454 110 233
455 895 967
456 424 409
457 499 588
458 344 276
459 700 832
460 877 107
461 782 509
462 149 217
463 283 201
464 766 889
465 889 134
466 810 943
467 398 280
468 834 128
469 358 396
470 294 288
471 264 261
472 346 378
473 815 72
474 205 175
475 395 280
476 784 936
477 328 253
478 787 920
479 379 331
480 53 234
481 956 44
482 195 21
483 337 167
484 227 387
485 400 74
486 794 979
487 884 38
488 902 49
489 893 98
490 189 50
491 309 370
492 991 62
493 878 892
494 606 192
495 574 221
496 344 428
497 386 307
498 29 101
499 325 448
500 376 335
501 361 337
502 931 30
503 792 925
504 950 153
505 436 505
506 393 357
507 256 360
508 427 189
509 136 317
510 980 141
511 326 470
512 525 338
513 883 917
514 966 45
515 32 278
516 488 237
517 712 837
518 384 238
519 926 69
520 235 266
521 431 283
522 378 355
523 410 382
524 24 200
525 387 230
526 718 776
527 51 285
528 685 118
529 862 957
530 812 961
531 398 241
532 753 310
533 73 228
534 296 416
535 448 182
536 50 182
537 376 299
538 321 412
539 381 217
540 748 837
541 991 52
542 356 228
543 272 370
544 443 185
545 67 270
546 329 300
547 19 390
548 491 312
549 868 921
550 415 429
551 134 208
552 322 188
553 28 250
554 435 250
555 395 457
556 141 6
557 95 42
558 872 967
559 339 194
560 551 270
561 432 301
562 776 954
563 291 587
564 407 322
565 396 397
566 748 95
567 299 475
568 890 96
569 376 371
570 976 29
571 350 359
572 71 182
573 387 212
574 211 225
575 260 316
576 416 322
577 389 357
578 363 340
579 29 117
580 820 993
581 819 22
582 402 389
583 900 36
584 11 250
585 431 139
586 69 240
587 460 406
588 944 25
589 577 500
590 900 107
591 34 159
592 308 302
593 944 17
594 399 309
595 88 63
596 790 931
597 859 799
598 243 279
599 216 170
600 273 257
601 425 192
602 889 46
603 946 41
604 747 992
605 898 841
606 651 874
607 317 336
608 668 404
609 985 734
610 354 332
611 547 464
612 909 137
613 467 326
614 82 238
615 22 204
616 382 468
617 272 446
618 691 77
619 157 302
620 579 173
DEMAND_SECTION
2 5
3 8
4 8
5 7
6 5
7 9
8 5
9 5
10 9
11 9
12 7
13 5
14 10
15 8
16 10
17 5
18 5
19 8
20 7
21 10
22 9
23 9
24 8
25 6
26 9
27 7
28 10
29 6
30 9
31 9
32 10
33 7
34 7
35 6
36 7
37 6
38 5
39 9
40 7
41 6
42 7
43 7
44 9
45 7
46 6
47 6
48 6
49 6
50 9
51 7
52 6
53 7
54 6
55 5
56 10
57 5
58 8
59 8
60 5
61 5
62 9
63 10
64 6
65 7
66 6
67 8
68 10
69 7
70 6
71 7
72 6
73 8
74 8
75 9
76 10
77 10
78 10
79 6
80 9
81 10
82 5
83 6
84 10
85 9
86 8
87 8
88 7
89 5
90 8
91 7
92 7
93 10
94 10
95 8
96 7
97 5
98 5
99 7
100 6
101 10
102 7
103 5
104 8
105 8
106 8
107 10
108 7
109 6
110 10
111 10
112 8
113 8
114 7
115 5
116 10
117 5
118 6
119 9
120 9
121 7
122 5
123 10
124 8
125 9
126 6
127 5
128 8
129 6
130 5
131 8
132 9
133 10
134 9
135 10
136 7
137 5
138 10
139 7
140 10
141 9
142 10
143 8
144 5
145 10
146 7
147 8
148 5
149 6
150 8
151 9
152 8
153 10
154 9
155 8
156 10
157 8
158 9
159 7
160 10
161 5
162 9
163 10
164 6
165 7
166 10
167 5
168 5
169 6
170 10
171 10
172 6
173 7
174 10
175 6
176 6
177 6
178 7
179 8
180 5
181 6
182 5
183 10
184 7
185 5
186 9
187 6
188 8
189 8
190 5
191 6
192 8
193 7
194 8
195 5
196 7
197 6
198 10
199 5
200 9
201 10
202 10
203 8
204 10
205 5
206 10
207 7
208 6
209 7
210 8
211 10
212 7
213 7
214 5
215 7
216 6
217 7
218 8
219 10
220 9
221 8
222 7
223 8
224 8
225 8
226 5
227 10
228 9
229 8
230 8
231 6
232 8
233 8
234 8
235 10
236 8
237 9
238 9
239 6
240 7
241 8
242 7
243 6
244 10
245 8
246 5
247 8
248 6
249 7
250 8
251 5
COVERAGE_SECTION
2 7 253 580 28 104 308 204 530 
3 7 139 610 387 26 343 501 578 
4 7 615 111 205 524 166 269 167 
5 7 247 397 500 522 392 479 577 
6 7 365 488 358 325 162 27 519 
7 7 391 270 226 456 339 565 550 
8 7 182 135 394 509 218 619 545 
9 7 187 194 39 567 149 378 423 
10 7 297 209 546 304 401 320 388 
11 7 19 509 619 237 182 394 8 
12 7 86 359 436 498 579 280 595 
13 7 347 572 43 287 393 536 57 
14 7 549 411 513 81 493 245 316 
15 7 512 368 310 16 324 235 342 
16 7 368 310 235 324 512 548 354 
17 7 467 475 191 90 95 438 126 
18 7 163 413 594 267 564 350 576 
19 7 619 11 509 182 135 8 216 
20 7 32 593 116 502 197 588 158 
21 7 241 219 569 73 131 433 176 
22 7 23 342 87 54 374 613 424 
23 7 22 87 613 342 193 96 177 
24 7 369 596 476 466 503 118 441 
25 7 105 175 468 234 341 473 338 
26 7 501 578 139 610 3 169 261 
27 7 162 519 302 102 6 365 603 
28 7 165 486 2 253 580 308 64 
29 7 84 558 432 455 529 245 65 
30 7 429 498 579 51 256 12 86 
31 7 178 464 421 371 145 441 118 
32 7 588 593 502 20 453 116 603 
33 7 127 323 315 43 419 393 536 
34 7 381 469 120 318 375 496 131 
35 7 366 99 115 151 300 55 376 
36 7 98 477 201 458 119 314 130 
37 7 107 611 589 62 446 425 82 
38 7 581 382 147 402 40 346 272 
39 7 423 194 9 149 563 187 567 
40 7 121 487 402 221 602 373 583 
41 7 584 67 553 427 273 269 47 
42 7 233 70 420 214 617 404 243 
43 7 13 127 33 536 393 323 347 
44 7 604 445 414 64 48 145 190 
45 7 590 489 568 340 173 189 431 
46 7 563 220 149 39 423 9 187 
47 7 257 480 244 273 67 83 553 
48 7 414 562 64 145 44 476 486 
49 7 617 243 378 567 437 132 420 
50 7 146 322 71 278 360 112 447 
51 7 579 141 256 345 436 498 164 
52 7 56 286 167 166 205 351 524 
53 7 249 106 294 337 455 84 29 
54 7 78 587 22 342 424 385 452 
55 7 99 366 540 66 464 35 517 
56 7 52 286 255 166 167 205 351 
57 7 328 287 13 185 572 536 347 
58 7 357 463 552 408 122 559 91 
59 7 440 255 164 256 286 399 141 
60 7 235 548 310 16 96 354 193 
61 7 329 280 359 271 435 595 86 
62 7 611 446 107 37 154 312 238 
63 7 251 76 518 326 126 525 356 
64 7 414 486 48 165 562 445 44 
65 7 192 529 245 432 558 390 77 
66 7 540 55 517 99 459 366 464 
67 7 273 553 47 269 257 584 41 
68 7 396 258 405 236 465 460 186 
69 7 173 260 309 361 612 590 45 
70 7 233 420 42 370 484 243 617 
71 7 607 322 146 152 50 278 443 
72 7 435 138 287 57 572 185 271 
73 7 303 522 569 219 265 275 422 
74 7 428 227 387 343 571 3 207 
75 7 125 156 93 537 458 298 85 
76 7 326 63 251 451 356 542 518 
77 7 390 204 530 104 192 65 240 
78 7 385 587 54 456 226 424 452 
79 7 136 313 283 558 104 204 308 
80 7 248 157 266 504 202 196 361 
81 7 549 411 14 245 513 529 316 
82 7 217 589 134 37 107 198 608 
83 7 480 586 263 244 533 47 232 
84 7 29 455 558 432 529 245 136 
85 7 537 144 298 497 288 169 261 
86 7 359 12 595 280 436 498 557 
87 7 613 23 96 193 22 342 310 
88 6 372 592 470 353 281 321 
89 7 606 327 188 459 517 66 540 
90 7 475 191 467 350 298 17 413 
91 7 357 408 463 58 335 367 552 
92 7 155 335 367 91 282 408 317 
93 7 125 156 458 75 356 304 36 
94 7 117 97 535 544 129 400 508 
95 7 521 17 191 439 467 438 101 
96 7 613 87 193 548 310 235 23 
97 7 535 544 508 129 601 94 117 
98 7 36 130 281 388 201 353 546 
99 7 55 366 540 66 35 464 151 
100 7 222 375 496 239 203 199 499 
101 7 438 110 284 330 531 262 554 
102 7 603 416 27 481 453 502 588 
103 7 561 148 311 113 254 521 163 
104 7 204 308 313 253 283 2 580 
105 7 25 473 234 341 363 468 175 
106 7 53 296 513 84 455 29 14 
107 7 37 611 62 589 446 425 154 
108 7 505 229 332 264 109 301 412 
109 7 264 442 108 229 140 505 425 
110 7 284 262 101 531 330 554 438 
111 7 4 615 205 524 166 269 167 
112 7 507 133 150 360 277 543 50 
113 7 148 103 311 561 254 193 177 
114 7 158 197 593 588 32 20 453 
115 7 300 376 35 172 493 411 549 
116 7 174 502 20 32 583 588 593 
117 7 94 200 334 400 284 544 554 
118 7 441 476 596 478 503 421 24 
119 7 201 336 314 36 477 98 281 
120 7 469 131 381 268 318 34 472 
121 7 487 221 40 602 583 325 488 
122 7 600 463 471 336 357 58 119 
123 7 271 444 474 138 259 599 551 
124 7 515 246 427 409 527 159 553 
125 7 93 75 156 458 356 326 63 
126 7 330 438 531 518 63 251 17 
127 7 33 323 315 43 393 419 536 
128 7 485 317 585 155 307 483 335 
129 7 535 97 544 94 508 117 601 
130 7 546 388 98 304 320 10 458 
131 7 268 472 120 469 219 275 422 
132 7 333 199 437 499 538 222 496 
133 7 507 112 360 543 150 180 277 
134 7 217 589 82 37 107 295 611 
135 7 218 182 8 619 509 19 454 
136 7 79 313 558 432 65 529 204 
137 7 559 306 290 552 307 228 483 
138 7 271 72 435 287 572 329 347 
139 7 26 3 501 578 610 343 387 
140 7 442 550 385 264 391 456 109 
141 7 345 51 399 256 579 164 440 
142 7 175 468 25 341 234 105 449 
143 7 620 383 129 289 494 585 495 
144 7 288 169 261 85 479 500 501 
145 7 414 48 371 562 44 190 64 
146 7 322 50 71 607 278 88 152 
147 7 346 581 382 38 473 402 272 
148 7 103 561 311 113 254 576 18 
149 7 563 39 9 187 423 194 46 
150 7 277 112 180 507 133 410 212 
151 7 319 35 415 99 366 55 540 
152 7 74 71 207 443 450 607 428 
153 7 340 358 365 489 162 519 568 
154 7 238 312 62 15 342 446 587 
155 7 335 92 317 483 408 91 128 
156 7 93 458 125 75 304 130 36 
157 7 80 248 266 504 202 196 361 
158 7 114 197 593 32 588 20 453 
159 7 246 409 527 124 515 395 427 
160 7 293 534 370 208 447 384 491 
161 6 216 520 598 417 471 575 
162 7 519 27 302 6 365 153 102 
163 7 18 413 594 350 267 564 576 
164 7 256 440 59 141 255 399 51 
165 7 28 486 64 2 253 445 580 
166 7 524 205 111 615 4 167 52 
167 7 170 166 524 536 205 52 111 
168 7 349 237 224 11 331 404 214 
169 7 261 479 500 144 288 501 26 
170 7 536 328 167 43 351 13 127 
171 7 434 224 168 349 547 331 395 
172 7 415 605 493 115 300 597 296 
173 7 69 590 45 612 489 340 568 
174 7 116 502 583 6 488 20 32 
175 7 341 25 142 105 468 566 234 
176 7 433 223 210 582 241 569 407 
177 7 576 279 267 564 113 148 291 
178 7 31 421 441 118 478 476 503 
179 7 616 301 555 239 211 412 100 
180 7 410 150 277 133 507 112 484 
181 7 454 276 551 462 259 444 218 
182 7 8 509 135 394 619 19 11 
183 7 557 595 225 86 556 359 12 
184 7 344 266 196 157 80 202 248 
185 7 355 57 345 328 436 72 435 
186 7 465 405 612 396 68 258 236 
187 7 9 149 194 567 39 378 49 
188 7 327 606 89 31 348 371 459 
189 7 431 403 568 489 460 340 45 
190 7 371 604 145 44 414 352 445 
191 7 90 467 17 475 413 350 163 
192 7 65 245 529 432 390 77 558 
193 7 613 96 87 113 23 254 548 
194 7 567 9 423 511 378 39 203 
195 7 274 324 512 15 368 16 354 
196 7 266 202 344 248 80 157 504 
197 7 158 114 593 20 32 588 502 
198 7 608 82 217 274 532 446 461 
199 7 499 132 437 333 222 496 375 
200 7 334 554 439 117 284 101 110 
201 6 119 36 336 98 281 477 
202 7 248 196 80 266 157 186 612 
203 7 511 499 437 199 100 222 378 
204 7 104 313 77 308 2 253 283 
205 7 524 615 4 111 166 167 52 
206 7 560 354 16 324 60 235 368 
207 7 450 285 428 472 74 571 426 
208 7 538 293 215 426 230 160 384 
209 7 401 304 10 297 144 546 610 
210 7 523 582 299 176 223 433 339 
211 7 179 616 301 332 555 239 412 
212 7 575 277 417 88 150 112 372 
213 7 362 545 448 257 263 409 527 
214 7 404 233 42 484 70 331 420 
215 7 426 230 450 318 472 207 208 
216 6 161 598 520 417 410 575 
217 7 82 134 589 37 107 198 608 
218 7 135 454 8 614 181 232 362 
219 7 21 241 569 73 275 422 131 
220 7 563 46 39 423 386 149 332 
221 7 602 487 121 583 488 325 358 
222 7 496 100 375 199 499 333 132 
223 7 433 565 582 339 364 176 210 
224 7 349 168 171 237 395 547 394 
225 7 556 557 183 595 490 482 359 
226 7 456 7 339 391 523 582 389 
227 7 428 343 571 387 74 285 303 
228 7 307 290 306 137 573 539 559 
229 7 505 108 109 264 332 425 301 
230 7 384 426 215 443 450 491 278 
231 7 406 570 541 514 492 481 453 
232 7 614 586 533 263 448 83 362 
233 7 70 42 214 404 484 420 617 
234 7 468 338 363 25 258 236 68 
235 7 548 310 60 16 96 368 613 
236 7 258 396 68 405 465 186 234 
237 7 349 168 11 509 394 19 224 
238 7 154 312 587 342 54 62 15 
239 7 555 616 179 412 100 301 222 
240 7 242 530 466 369 24 77 390 
241 7 21 569 219 433 176 73 131 
242 7 530 240 466 369 2 24 77 
243 7 370 420 617 49 534 132 437 
244 7 419 480 47 83 273 257 315 
245 7 192 529 65 432 81 558 316 
246 7 124 427 515 159 409 527 584 
247 7 5 500 479 169 261 522 397 
248 7 80 202 157 266 196 504 361 
249 7 294 337 53 106 455 84 29 
250 7 392 397 279 5 506 577 247 
251 7 63 76 518 326 525 126 531 
252 7 292 487 40 121 583 221 602 
253 7 580 2 308 28 104 204 283 
254 7 311 561 103 113 148 521 193 
255 7 59 440 286 56 52 164 399 
256 7 164 141 51 440 579 59 345 
257 7 47 480 553 83 67 244 273 
258 7 396 236 68 405 465 460 186 
259 7 462 444 551 430 181 276 454 
260 7 361 504 69 612 173 186 510 
261 7 169 479 500 288 144 247 501 
262 7 110 284 531 330 101 525 305 
263 7 586 448 83 232 362 480 533 
264 7 109 442 108 140 229 505 412 
265 7 407 522 577 506 73 397 569 
266 7 196 80 157 344 248 202 504 
267 7 564 576 18 163 279 594 413 
268 7 131 472 120 285 275 422 219 
269 7 273 67 4 111 615 244 47 
270 7 7 550 391 456 339 226 565 
271 7 138 435 72 329 123 280 61 
272 7 373 402 363 40 473 121 338 
273 7 269 67 47 244 419 257 553 
274 7 195 324 512 418 446 15 368 
275 7 422 285 571 303 219 73 227 
276 7 181 454 551 393 533 614 347 
277 7 150 112 575 212 507 180 133 
278 7 443 491 384 230 152 50 450 
279 7 250 564 267 576 177 392 397 
280 7 329 61 359 435 86 12 271 
281 6 353 470 98 372 592 201 
282 7 367 490 482 599 123 474 92 
283 7 308 313 104 580 253 204 79 
284 7 110 262 101 554 531 330 438 
285 7 422 571 275 207 227 428 472 
286 7 52 351 56 591 255 399 59 
287 7 572 347 13 57 393 43 72 
288 7 144 261 169 479 85 500 497 
289 7 495 620 494 560 206 400 516 
290 7 306 137 542 559 451 228 307 
291 7 299 374 389 424 452 392 210 
292 7 583 252 487 221 174 116 121 
293 7 160 208 384 534 230 370 538 
294 7 337 249 53 106 455 84 29 
295 7 457 386 425 229 134 505 589 
296 7 106 493 605 513 172 14 549 
297 7 10 401 209 610 3 304 546 
298 7 537 497 85 90 350 594 75 
299 7 210 291 523 506 389 392 176 
300 7 115 376 35 316 411 503 478 
301 7 179 412 616 555 211 239 332 
302 7 162 519 27 102 377 6 153 
303 7 73 571 227 275 422 343 139 
304 7 209 10 546 130 388 156 401 
305 7 525 539 573 518 531 262 251 
306 7 137 290 559 228 307 542 552 
307 7 228 137 306 559 290 483 573 
308 7 580 253 283 104 204 2 313 
309 6 377 69 302 173 519 162 
310 7 235 548 368 16 96 15 512 
311 7 561 103 148 254 113 521 95 
312 7 587 238 442 154 385 140 78 
313 7 104 283 204 308 136 79 580 
314 7 477 119 36 336 201 356 451 
315 7 33 323 127 419 43 244 393 
316 7 390 245 81 192 411 65 77 
317 7 483 128 155 335 307 228 137 
318 7 381 120 469 131 215 268 472 
319 7 151 415 597 35 172 99 115 
320 7 388 592 546 10 130 353 297 
321 4 372 470 281 88 
322 7 146 71 607 50 152 278 88 
323 7 33 127 315 43 419 536 393 
324 7 512 368 16 15 354 310 195 
325 7 358 488 602 365 221 6 487 
326 7 76 356 63 451 251 542 518 
327 7 606 89 188 459 348 517 352 
328 7 170 536 57 351 13 43 167 
329 7 61 280 271 435 359 138 72 
330 7 531 126 438 101 518 262 525 
331 7 214 404 42 233 168 70 484 
332 7 108 505 211 301 229 179 616 
333 7 132 199 437 499 538 496 222 
334 7 200 554 439 284 101 117 110 
335 7 155 408 483 91 317 552 92 
336 6 119 201 314 600 477 36 
337 7 294 249 53 106 455 84 29 
338 7 363 403 234 460 189 68 431 
339 7 565 582 223 7 523 226 364 
340 7 489 568 431 45 153 189 590 
341 7 175 25 566 105 473 142 468 
342 7 22 23 87 54 96 613 15 
343 7 387 227 428 74 571 3 139 
344 7 196 266 202 248 80 157 504 
345 7 141 399 355 51 591 436 256 
346 7 147 581 38 382 473 402 272 
347 7 572 13 287 393 43 536 57 
348 7 352 188 327 606 371 190 89 
349 7 168 237 224 11 394 509 171 
350 7 594 413 497 163 18 90 298 
351 7 591 286 170 328 399 167 52 
352 7 190 348 371 188 145 604 44 
353 6 281 470 592 372 98 88 
354 7 206 16 560 324 235 368 60 
355 7 345 591 185 399 57 328 351 
356 7 326 76 451 63 477 542 93 
357 7 463 58 408 552 91 122 559 
358 7 325 365 488 6 602 153 221 
359 7 86 12 280 595 61 329 557 
360 7 543 447 507 112 133 50 150 
361 7 260 504 69 612 173 510 248 
362 7 448 263 545 213 586 232 614 
363 7 338 403 373 272 189 460 234 
364 7 223 565 433 339 582 176 241 
365 7 6 488 358 325 162 519 153 
366 7 99 55 464 35 540 421 66 
367 7 91 282 599 92 474 335 155 
368 7 16 512 310 15 324 235 548 
369 7 24 466 240 242 476 596 530 
370 7 534 243 160 420 293 208 538 
371 7 190 145 31 414 604 44 352 
372 6 470 88 321 353 281 592 
373 7 272 363 402 40 121 431 189 
374 7 424 291 389 452 299 523 177 
375 7 496 222 34 100 381 199 333 
376 7 300 503 478 596 115 421 466 
377 6 309 302 492 514 481 27 
378 7 567 49 511 437 499 203 132 
379 7 434 46 149 563 187 171 331 
380 7 605 597 415 172 609 296 319 
381 7 34 120 318 469 131 268 375 
382 7 581 38 402 147 473 272 40 
383 7 528 618 143 620 494 566 289 
384 7 491 230 443 278 426 215 450 
385 7 78 456 587 391 226 140 7 
386 7 457 295 220 505 229 332 108 
387 7 343 227 74 428 3 139 571 
388 7 546 130 320 592 98 10 304 
389 7 452 424 523 374 291 210 299 
390 7 77 192 316 65 240 245 530 
391 7 456 7 270 550 226 385 339 
392 7 250 397 506 577 5 407 279 
393 7 347 43 13 572 127 33 315 
394 7 182 8 509 11 237 159 395 
395 7 547 159 394 246 224 409 527 
396 7 68 258 236 405 465 186 460 
397 7 392 506 577 5 250 407 265 
398 7 526 319 151 597 540 66 415 
399 7 591 141 345 286 351 355 440 
400 7 516 94 117 200 334 129 97 
401 7 297 209 10 610 3 304 26 
402 7 40 272 382 373 38 121 487 
403 7 189 460 431 568 338 489 340 
404 7 214 233 484 42 70 331 420 
405 7 465 186 396 68 258 236 612 
406 7 231 570 541 514 492 481 453 
407 7 265 577 506 522 397 569 5 
408 7 552 483 58 357 335 91 559 
409 7 527 515 213 545 124 159 362 
410 7 180 150 277 216 575 112 133 
411 7 549 14 81 513 316 245 493 
412 7 555 301 239 616 179 550 270 
413 7 163 18 594 350 191 267 90 
414 7 48 562 64 145 44 486 445 
415 7 172 597 319 151 605 115 35 
416 7 481 603 453 102 514 588 32 
417 6 575 212 598 321 372 161 
418 7 274 195 560 495 206 494 289 
419 7 244 315 323 33 127 480 273 
420 7 243 617 70 370 42 534 49 
421 7 478 441 118 503 596 178 476 
422 7 275 285 571 303 219 227 73 
423 7 39 194 9 211 511 203 567 
424 7 452 389 374 291 523 299 210 
425 7 229 109 505 442 264 108 312 
426 7 215 230 450 207 384 472 208 
427 7 124 246 584 41 515 553 67 
428 7 74 227 343 571 387 285 207 
429 7 256 498 579 51 164 141 440 
430 6 259 462 444 551 574 181 
431 7 189 568 340 489 403 460 45 
432 7 529 558 245 29 65 192 84 
433 7 176 223 582 364 565 210 241 
434 7 171 224 331 379 168 349 547 
435 7 72 138 271 185 280 329 57 
436 7 579 51 345 141 498 12 355 
437 7 499 199 132 333 378 511 203 
438 7 330 126 101 531 17 467 475 
439 7 554 334 200 95 521 101 284 
440 7 59 164 255 256 399 141 286 
441 7 118 476 596 478 503 421 24 
442 7 109 140 264 312 385 587 550 
443 7 491 278 384 230 152 450 426 
444 7 259 462 551 430 181 276 123 
445 7 44 604 64 165 414 486 28 
446 7 62 107 611 154 37 238 195 
447 7 543 360 160 278 507 50 491 
448 7 263 362 586 232 614 83 213 
449 7 142 532 175 468 341 25 236 
450 7 207 426 215 230 472 152 285 
451 7 542 326 76 356 290 63 251 
452 7 389 424 374 523 291 210 299 
453 7 416 588 603 481 32 593 514 
454 7 181 276 614 218 232 551 533 
455 7 84 29 558 432 529 136 245 
456 7 391 226 7 385 78 270 550 
457 7 295 386 425 229 505 134 108 
458 7 156 93 125 36 75 130 304 
459 7 517 66 540 89 526 55 606 
460 7 403 189 568 68 431 489 338 
461 7 198 217 82 608 134 532 589 
462 7 259 444 551 430 181 454 276 
463 7 357 58 122 408 91 552 336 
464 7 366 421 178 55 99 478 31 
465 7 405 186 396 68 258 612 236 
466 7 240 369 24 242 530 596 503 
467 7 475 17 90 191 95 350 438 
468 7 234 25 236 338 258 105 68 
469 7 120 381 34 131 318 268 21 
470 5 281 372 353 321 88 
471 5 600 321 598 520 122 
472 7 268 131 285 207 422 275 120 
473 7 105 272 382 25 363 402 373 
474 6 599 123 574 430 444 367 
475 7 467 17 90 191 298 350 438 
476 7 118 596 441 24 503 478 369 
477 7 314 36 119 201 356 458 336 
478 7 503 421 441 596 118 476 24 
479 7 500 261 169 247 288 5 144 
480 7 83 47 244 257 263 586 419 
481 7 416 514 603 453 102 588 570 
482 7 490 556 225 282 557 61 183 
483 7 552 559 137 408 307 306 335 
484 7 233 404 133 214 70 180 507 
485 7 128 317 585 155 335 483 92 
486 7 165 28 64 2 242 530 253 
487 7 121 221 602 40 583 488 325 
488 7 325 365 6 358 583 602 221 
489 7 568 340 45 590 431 189 460 
490 7 482 282 556 225 61 367 557 
491 7 443 278 384 230 450 152 426 
492 4 541 406 231 514 
493 7 513 14 411 549 172 115 81 
494 7 289 620 495 560 383 206 418 
495 7 289 494 620 560 206 354 516 
496 7 375 222 199 100 333 34 381 
497 7 298 350 85 537 594 288 90 
498 7 579 51 436 429 256 12 141 
499 7 437 199 132 333 203 222 511 
500 7 479 247 261 169 5 288 578 
501 7 26 578 139 610 3 169 261 
502 7 116 32 588 174 20 593 603 
503 7 596 478 441 118 476 24 421 
504 7 361 260 510 80 248 69 157 
505 7 229 108 332 109 264 301 425 
506 7 577 397 392 407 265 5 522 
507 7 133 112 360 543 150 277 447 
508 7 601 544 97 535 94 117 129 
509 7 182 19 619 11 8 135 394 
510 5 504 361 260 69 309 
511 7 203 378 499 437 567 199 194 
512 7 15 324 368 16 310 235 548 
513 7 14 549 411 81 493 245 29 
514 7 481 416 453 570 603 231 406 
515 7 124 409 527 213 553 427 246 
516 7 400 117 200 334 94 60 439 
517 7 459 66 540 55 89 99 526 
518 7 525 251 63 531 305 76 330 
519 7 162 302 27 6 365 153 102 
520 6 161 598 471 216 417 600 
521 7 95 311 254 561 103 439 148 
522 7 265 407 73 577 5 247 397 
523 7 210 582 389 299 339 452 176 
524 7 205 166 111 615 4 167 52 
525 7 305 518 539 531 573 251 63 
526 7 459 517 66 540 398 55 99 
527 7 409 515 545 213 124 362 159 
528 7 618 383 566 341 175 494 620 
529 7 432 65 245 192 558 29 81 
530 7 242 240 466 2 77 369 390 
531 7 330 262 518 126 525 438 101 
532 7 449 418 198 608 142 274 344 
533 7 232 586 614 83 263 480 448 
534 7 370 160 243 293 538 208 420 
535 7 97 544 129 508 94 601 117 
536 7 170 328 43 13 167 127 33 
537 7 298 85 497 75 90 144 350 
538 7 208 333 132 293 534 318 215 
539 7 573 305 525 518 542 228 76 
540 7 66 55 99 517 366 459 464 
541 6 492 406 231 514 570 481 
542 7 451 326 76 290 356 63 251 
543 7 360 447 507 133 112 50 160 
544 7 97 535 508 601 94 129 117 
545 7 362 213 448 527 409 263 586 
546 7 388 130 10 320 304 98 592 
547 7 395 159 224 246 394 171 349 
548 7 235 310 60 96 16 368 613 
549 7 411 14 81 513 316 245 493 
550 7 270 391 7 456 140 226 412 
551 7 259 444 462 181 276 454 430 
552 7 559 408 137 483 58 306 357 
553 7 67 257 584 47 273 41 213 
554 7 334 439 200 101 284 110 95 
555 7 412 239 616 179 301 550 270 
556 7 225 482 557 183 490 595 61 
557 7 183 595 225 86 359 556 12 
558 7 432 29 529 84 136 65 245 
559 7 137 306 552 290 483 307 228 
560 7 206 354 495 16 324 60 368 
561 7 103 311 148 254 113 521 163 
562 7 48 414 476 64 369 24 118 
563 7 149 46 39 220 423 9 187 
564 7 267 576 18 279 163 594 413 
565 7 339 223 582 364 433 7 176 
566 7 341 175 618 25 105 528 473 
567 7 378 49 511 194 437 499 203 
568 7 489 340 431 189 45 590 403 
569 7 241 21 219 73 265 407 522 
570 7 231 406 514 453 481 541 416 
571 7 227 285 428 275 422 343 74 
572 7 347 287 13 393 43 57 536 
573 7 539 305 525 518 228 262 531 
574 6 430 520 474 599 161 122 
575 6 212 417 277 150 88 112 
576 7 267 564 279 18 177 163 148 
577 7 506 407 265 397 522 392 5 
578 7 26 501 139 610 3 169 261 
579 7 51 498 436 141 256 345 164 
580 7 253 308 2 28 104 283 204 
581 7 38 382 147 346 402 473 40 
582 7 339 223 565 210 523 433 176 
583 7 221 488 602 174 487 292 121 
584 7 41 553 67 427 273 269 47 
585 7 535 97 544 508 129 601 128 
586 7 263 232 448 83 533 614 362 
587 7 78 385 54 312 456 140 226 
588 7 32 593 453 502 603 20 416 
589 7 37 107 611 134 82 62 217 
590 7 45 489 568 340 173 189 431 
591 7 351 399 355 286 345 328 141 
592 7 320 353 388 281 88 372 470 
593 7 32 588 20 158 197 453 502 
594 7 350 18 163 413 497 267 564 
595 7 557 86 359 183 12 280 225 
596 7 503 476 118 441 24 478 369 
597 7 415 319 172 605 151 380 115 
598 6 520 161 417 216 471 321 
599 6 474 367 123 574 91 430 
600 5 471 336 122 321 119 
601 7 508 544 97 535 94 117 110 
602 7 221 487 121 325 488 583 358 
603 7 416 102 481 453 588 502 32 
604 7 44 445 190 414 145 64 48 
605 7 172 296 415 493 380 597 115 
606 7 327 89 188 459 517 348 66 
607 7 71 322 146 152 297 74 320 
608 7 198 82 274 446 195 217 418 
609 7 380 605 597 296 415 172 319 
610 7 3 26 139 501 578 401 169 
611 7 107 37 62 446 589 425 312 
612 7 186 465 405 173 260 590 69 
613 7 96 193 87 23 548 113 310 
614 7 232 533 586 263 448 83 362 
615 7 4 111 205 524 166 269 167 
616 7 179 239 555 301 412 211 100 
617 7 243 49 420 42 370 534 70 
618 7 528 383 566 341 175 346 147 
619 7 19 509 135 11 182 8 218 
620 7 289 494 495 143 383 560 400 
DEPOT_SECTION
   1
   -1
EOF
