NAME :  X-n655-kX-w65-c11.cctp
COMMENT : 	Adapted by Maziero, Usberti and Cavellucci from the Uchoa, Pecin, Pessoa, Poggi, Subramanian, and Vidal (2013)
TYPE :  CCTP
DIMENSION :    520
EDGE_WEIGHT_TYPE : 	EUC_2D	
CAPACITY : 	5
VERTICES_WITHIN_COVERAGE :  11
VERTICES_WITH_DEMAND : 	65
NODE_COORD_SECTION
1 500 500
2 346 793
3 692 966
4 171 666
5 287 795
6 133 668
7 704 959
8 400 795
9 195 897
10 845 931
11 829 724
12 300 860
13 218 829
14 116 780
15 237 631
16 126 681
17 825 922
18 315 913
19 271 769
20 530 917
21 156 900
22 265 808
23 171 742
24 388 776
25 153 664
26 393 855
27 320 751
28 594 862
29 213 810
30 723 924
31 192 877
32 661 910
33 153 729
34 334 812
35 558 944
36 502 783
37 266 747
38 23 753
39 180 584
40 702 854
41 354 649
42 412 709
43 721 928
44 168 674
45 364 640
46 375 727
47 247 977
48 332 853
49 664 929
50 646 901
51 248 723
52 116 628
53 123 690
54 247 539
55 715 966
56 314 712
57 237 747
58 202 679
59 409 946
60 684 879
61 142 576
62 204 636
63 440 817
64 697 882
65 772 977
66 177 889
67 341 787
68 391 725
69 82 764
70 734 834
71 352 732
72 102 631
73 354 612
74 374 865
75 421 812
76 335 835
77 646 931
78 560 910
79 702 965
80 273 790
81 329 750
82 850 855
83 393 953
84 389 923
85 341 851
86 781 946
87 329 862
88 194 733
89 53 777
90 133 596
91 273 812
92 223 812
93 389 747
94 663 944
95 336 940
96 284 739
97 737 977
98 249 956
99 433 852
100 294 856
101 285 879
102 280 818
103 175 885
104 669 902
105 763 969
106 138 632
107 193 593
108 220 818
109 145 800
110 739 960
111 752 940
112 639 894
113 329 726
114 799 987
115 660 917
116 382 741
117 242 626
118 509 886
119 190 416
120 72 656
121 353 659
122 132 677
123 364 771
124 893 900
125 140 645
126 411 757
127 397 805
128 171 644
129 260 816
130 764 980
131 149 657
132 716 925
133 191 843
134 566 966
135 620 908
136 358 727
137 268 705
138 406 927
139 139 943
140 192 762
141 549 931
142 177 664
143 433 707
144 301 753
145 120 764
146 178 664
147 109 751
148 318 529
149 419 952
150 309 737
151 289 787
152 350 812
153 88 794
154 151 658
155 185 883
156 603 872
157 342 708
158 317 747
159 579 988
160 361 731
161 37 706
162 154 745
163 324 703
164 727 900
165 383 694
166 151 679
167 149 654
168 144 638
169 269 635
170 212 842
171 217 644
172 250 597
173 835 953
174 324 910
175 344 793
176 176 922
177 204 682
178 262 830
179 328 484
180 385 931
181 706 957
182 201 655
183 379 791
184 728 720
185 296 858
186 663 942
187 135 908
188 805 910
189 646 872
190 113 692
191 430 668
192 588 977
193 236 656
194 89 671
195 136 667
196 377 846
197 375 728
198 269 763
199 235 694
200 452 826
201 281 909
202 215 585
203 325 707
204 419 817
205 392 704
206 152 544
207 136 580
208 155 556
209 345 859
210 99 666
211 519 722
212 168 757
213 676 800
214 229 686
215 772 941
216 637 926
217 464 795
218 346 681
219 327 758
220 98 690
221 852 860
222 124 598
223 235 831
224 680 969
225 323 800
226 525 931
227 120 772
228 839 978
229 214 652
230 236 738
231 148 850
232 138 699
233 336 773
234 190 648
235 119 620
236 198 853
237 288 514
238 888 888
239 165 542
240 682 934
241 759 985
242 416 819
243 724 966
244 403 812
245 270 789
246 482 818
247 69 537
248 734 946
249 644 943
250 681 943
251 323 765
252 514 782
253 141 713
254 624 870
255 328 801
256 185 648
257 689 956
258 137 895
259 299 975
260 448 752
261 348 642
262 675 910
263 245 776
264 434 705
265 283 804
266 889 924
267 486 662
268 350 844
269 519 720
270 720 924
271 259 800
272 514 712
273 421 818
274 174 765
275 750 969
276 481 831
277 141 959
278 320 840
279 341 651
280 365 730
281 789 953
282 680 906
283 145 740
284 304 810
285 467 973
286 600 980
287 309 761
288 153 907
289 335 809
290 989 940
291 176 655
292 759 975
293 345 821
294 749 841
295 380 754
296 316 640
297 133 650
298 254 803
299 293 782
300 102 745
301 226 806
302 147 600
303 437 837
304 310 738
305 146 594
306 864 905
307 271 792
308 317 845
309 469 986
310 235 641
311 405 833
312 617 890
313 508 893
314 712 984
315 577 895
316 225 550
317 171 397
318 391 780
319 418 845
320 155 768
321 135 553
322 383 713
323 631 842
324 313 899
325 777 738
326 699 923
327 323 706
328 309 774
329 232 689
330 232 654
331 540 966
332 137 742
333 205 693
334 178 829
335 203 663
336 354 767
337 212 657
338 142 643
339 274 816
340 358 665
341 522 768
342 232 688
343 179 630
344 359 620
345 276 725
346 269 741
347 300 881
348 234 495
349 848 971
350 141 576
351 158 722
352 140 687
353 293 767
354 571 769
355 236 891
356 142 766
357 409 941
358 219 907
359 381 689
360 298 706
361 149 681
362 745 731
363 314 700
364 252 792
365 218 889
366 286 867
367 331 662
368 817 976
369 210 767
370 60 635
371 377 751
372 209 914
373 348 823
374 600 940
375 283 741
376 219 943
377 334 754
378 333 697
379 700 975
380 354 815
381 281 903
382 393 876
383 313 794
384 116 629
385 457 836
386 723 793
387 322 922
388 182 725
389 276 788
390 337 871
391 157 712
392 110 751
393 97 782
394 245 799
395 705 860
396 251 740
397 331 736
398 678 955
399 170 770
400 310 710
401 138 651
402 299 520
403 253 784
404 314 735
405 238 903
406 116 779
407 25 788
408 115 837
409 191 605
410 39 803
411 269 809
412 333 845
413 103 581
414 390 849
415 678 973
416 368 739
417 218 733
418 698 973
419 742 935
420 338 814
421 96 621
422 741 911
423 728 990
424 628 922
425 713 842
426 243 643
427 736 891
428 379 850
429 348 845
430 370 701
431 281 761
432 121 730
433 405 747
434 722 827
435 380 638
436 192 679
437 391 872
438 754 984
439 319 838
440 289 917
441 466 764
442 409 807
443 302 908
444 140 817
445 303 803
446 479 913
447 702 995
448 686 901
449 379 698
450 659 924
451 290 701
452 289 978
453 239 744
454 312 820
455 195 565
456 339 789
457 191 700
458 341 972
459 259 794
460 219 685
461 378 793
462 329 846
463 640 793
464 317 866
465 279 817
466 942 960
467 369 728
468 688 978
469 190 881
470 136 608
471 184 611
472 85 689
473 326 860
474 279 803
475 688 984
476 653 911
477 319 744
478 390 741
479 104 721
480 667 910
481 896 805
482 324 725
483 258 810
484 233 734
485 794 896
486 84 667
487 692 953
488 299 858
489 647 844
490 427 680
491 227 914
492 57 738
493 708 994
494 249 792
495 105 706
496 241 837
497 312 704
498 199 748
499 227 644
500 331 670
501 59 723
502 201 647
503 249 655
504 183 835
505 343 587
506 354 804
507 331 901
508 817 995
509 172 670
510 397 950
511 309 797
512 324 959
513 437 695
514 77 613
515 721 986
516 272 770
517 688 871
518 708 917
519 380 847
520 83 847
DEMAND_SECTION
2 1
3 1
4 1
5 1
6 1
7 1
8 1
9 1
10 1
11 1
12 1
13 1
14 1
15 1
16 1
17 1
18 1
19 1
20 1
21 1
22 1
23 1
24 1
25 1
26 1
27 1
28 1
29 1
30 1
31 1
32 1
33 1
34 1
35 1
36 1
37 1
38 1
39 1
40 1
41 1
42 1
43 1
44 1
45 1
46 1
47 1
48 1
49 1
50 1
51 1
52 1
53 1
54 1
55 1
56 1
57 1
58 1
59 1
60 1
61 1
62 1
63 1
64 1
65 1
66 1
COVERAGE_SECTION
2 11 175 67 456 506 152 289 255 34 233 420 380 
3 11 418 79 257 224 379 468 487 7 415 181 398 
4 11 509 142 146 44 291 25 128 154 256 131 166 
5 9 151 265 474 389 299 80 307 245 445 
6 11 195 122 16 297 401 131 25 352 154 166 167 
7 11 181 79 55 487 3 257 418 379 243 468 224 
8 11 127 442 244 318 183 24 461 75 204 242 273 
9 11 155 469 31 66 372 103 365 358 176 491 21 
10 11 17 173 306 349 188 266 228 368 124 281 238 
11 8 325 362 184 481 386 82 221 294 
12 9 488 185 100 366 464 347 308 101 473 
13 11 108 170 223 92 29 301 496 133 236 504 334 
14 11 406 227 145 393 147 356 392 153 109 69 300 
15 11 117 310 426 499 171 330 193 503 229 169 62 
16 9 122 53 6 352 190 195 232 361 166 
17 10 10 188 173 485 306 281 86 349 368 215 
18 10 174 387 324 443 507 440 95 201 347 381 
19 11 516 198 431 245 389 80 353 37 307 403 151 
20 10 226 141 78 313 118 35 331 446 315 134 
21 11 288 258 187 66 103 176 155 9 469 31 139 
22 11 411 483 91 129 271 298 339 459 474 307 465 
23 10 212 162 388 33 274 351 88 283 399 140 
24 10 318 183 461 8 295 123 371 93 126 127 
25 11 154 131 167 166 195 361 4 44 6 401 509 
26 9 414 428 519 437 196 74 382 311 319 
27 11 158 477 81 219 251 377 287 304 404 150 144 
28 11 156 254 312 315 323 135 189 112 489 78 50 
29 7 92 108 301 13 223 170 394 
30 10 270 43 132 518 419 422 164 326 248 111 
31 11 469 155 66 103 9 236 365 133 170 358 372 
32 11 480 115 476 104 262 450 50 49 282 77 112 
33 7 351 283 162 391 253 332 23 
34 11 289 420 255 293 152 225 373 380 175 2 506 
35 10 141 134 331 78 226 20 374 192 159 315 
36 11 252 341 217 246 441 276 260 211 269 200 354 
37 9 346 198 396 375 96 431 19 345 516 
38 10 407 492 89 501 161 410 69 153 300 393 
39 10 107 409 455 471 202 305 302 208 61 350 
40 11 395 425 517 64 60 434 70 294 427 448 164 
41 11 261 121 45 279 340 367 435 344 500 218 73 
42 11 143 205 264 68 322 513 165 490 449 359 433 
43 10 30 270 132 518 248 419 326 422 164 111 
44 11 509 4 142 146 25 166 361 291 154 131 436 
45 10 41 261 435 344 121 279 340 73 367 218 
46 10 197 467 280 416 160 68 116 322 136 478 
47 10 98 452 376 259 491 440 372 358 405 201 
48 11 412 462 85 87 473 209 308 76 278 429 390 
49 11 450 115 186 94 77 32 240 480 476 250 262 
50 11 112 476 32 115 104 480 450 135 216 424 189 
51 11 396 230 484 453 57 137 345 346 37 199 417 
52 11 384 235 72 421 106 297 470 125 168 338 222 
53 9 16 190 122 232 352 6 495 220 195 
54 9 316 348 237 402 202 172 455 148 107 
55 11 243 7 79 181 379 314 418 515 3 97 110 
56 10 400 497 327 203 363 163 482 360 113 404 
57 11 453 230 484 396 417 51 37 263 346 369 198 
58 10 177 436 333 335 460 182 337 457 146 214 
59 7 357 149 510 83 138 180 84 
60 11 517 64 448 104 282 395 40 262 480 32 189 
61 11 350 207 305 90 208 321 302 222 470 206 39 
62 11 502 171 234 182 229 256 337 499 343 335 310 
63 11 200 273 75 303 204 242 385 217 442 99 319 
64 10 60 517 448 395 40 282 104 164 262 518 
65 9 130 105 292 241 438 275 114 281 86 
66 11 103 155 469 31 9 21 288 176 258 365 372 
67 10 456 175 2 233 255 506 225 289 336 34 
68 11 322 46 197 478 116 205 93 467 42 280 433 
69 11 393 300 147 153 392 89 492 406 14 145 227 
70 9 434 294 425 40 395 386 427 517 64 
71 8 136 160 280 416 467 397 197 46 
72 11 421 52 384 235 514 210 106 297 120 125 222 
73 9 344 505 45 261 41 435 279 121 296 
74 7 428 437 196 519 26 382 414 
75 11 204 273 242 442 244 63 127 311 8 303 319 
76 10 412 462 278 429 439 85 268 293 48 373 
77 10 216 249 450 49 115 186 424 94 476 32 
78 11 315 141 20 35 226 374 313 118 134 156 28 
79 11 7 181 418 3 379 55 257 487 468 314 224 
80 11 245 307 389 474 5 459 151 265 271 411 22 
81 10 377 219 27 158 477 397 251 404 304 287 
82 10 221 238 306 124 481 485 188 17 10 266 
83 7 510 59 357 180 149 138 84 
84 6 180 138 357 510 59 83 
85 9 48 209 429 412 268 462 87 76 473 
86 9 215 281 105 111 65 292 130 275 419 
87 11 473 48 390 464 85 209 462 412 308 278 429 
88 4 388 498 417 23 
89 11 407 410 69 38 153 492 393 501 300 147 14 
90 10 222 470 305 302 207 61 350 235 413 52 
91 9 339 411 465 22 102 474 265 129 483 
92 11 108 301 29 13 223 394 496 170 298 494 364 
93 9 478 116 295 371 433 68 416 46 126 
94 8 186 49 250 249 398 450 77 240 
95 7 512 387 174 458 18 507 324 
96 4 375 346 345 37 
97 10 275 423 110 243 438 515 292 241 55 314 
98 10 47 376 452 491 259 405 440 201 358 372 
99 10 303 319 385 200 311 63 273 242 204 26 
100 7 185 488 12 366 101 308 464 
101 10 366 347 12 185 381 100 488 201 324 443 
102 7 465 339 91 265 411 474 22 
103 11 66 155 469 31 9 21 288 176 236 258 365 
104 11 480 262 32 282 115 448 476 50 450 49 60 
105 9 292 130 65 275 241 438 110 97 86 
106 10 168 338 125 297 401 52 235 384 470 167 
107 10 409 39 471 202 455 343 62 302 305 208 
108 11 92 13 29 301 223 170 496 394 298 133 483 
109 6 444 320 356 14 406 227 
110 9 275 248 243 97 111 55 292 419 105 
111 9 419 248 215 110 275 86 105 422 30 
112 11 50 312 476 189 135 32 254 424 104 115 216 
113 11 482 397 404 203 56 327 477 157 304 150 71 
114 11 508 368 65 281 130 105 241 228 292 86 438 
115 11 32 450 476 480 49 104 262 77 50 282 186 
116 9 478 93 371 295 416 197 46 68 467 
117 10 15 310 426 499 169 172 330 503 171 193 
118 7 313 20 446 226 78 141 276 
119 9 317 348 239 206 54 316 237 208 321 
120 10 486 194 370 210 472 72 421 220 514 52 
121 9 340 41 279 261 45 367 218 500 435 
122 10 16 6 195 352 53 361 166 232 190 25 
123 7 336 295 371 24 183 461 2 
124 11 238 266 306 10 221 82 17 466 173 349 188 
125 10 338 401 168 297 106 167 131 154 195 25 
126 10 433 93 478 24 318 295 116 371 260 68 
127 11 244 8 442 461 183 242 75 204 318 273 311 
128 10 291 256 343 234 142 146 4 154 167 131 
129 11 483 22 411 91 178 298 339 271 465 102 459 
130 9 241 292 65 105 438 275 97 110 114 
131 11 154 167 25 401 125 195 338 297 6 168 166 
132 10 270 43 30 518 326 164 248 419 422 181 
133 10 504 236 334 170 13 31 108 469 29 155 
134 9 35 192 159 331 286 141 374 226 78 
135 11 424 312 112 216 50 476 77 254 374 156 32 
136 8 160 71 280 467 416 46 197 157 
137 6 345 451 51 360 199 346 
138 7 357 84 59 180 510 149 83 
139 11 277 187 288 176 21 258 66 103 9 155 372 
140 6 498 274 369 399 212 23 
141 11 35 20 78 226 331 134 315 374 313 118 192 
142 11 146 4 509 291 44 256 128 234 436 25 182 
143 11 264 513 42 490 191 205 68 260 433 322 165 
144 7 287 353 158 304 150 27 477 
145 11 227 14 392 406 147 356 300 332 393 432 283 
146 11 142 4 509 291 44 256 234 128 436 25 182 
147 11 392 300 145 227 432 332 406 14 69 479 393 
148 5 402 237 179 505 54 
149 9 59 357 510 83 138 180 84 285 309 
150 6 304 404 477 158 27 144 
151 11 299 5 389 80 265 245 307 474 353 445 511 
152 9 380 506 293 373 420 289 34 2 175 
153 11 393 14 69 406 89 227 145 147 392 410 300 
154 11 131 167 25 401 125 195 338 297 6 166 168 
155 11 469 31 66 103 9 236 21 365 372 133 176 
156 11 28 254 312 315 135 323 112 189 50 489 424 
157 11 378 203 163 327 113 136 482 71 218 56 363 
158 11 477 27 304 81 404 150 219 287 144 377 397 
159 7 192 286 134 331 35 374 141 
160 8 280 136 71 467 416 197 46 116 
161 9 501 492 38 472 120 486 194 220 495 
162 11 283 33 23 332 212 320 351 356 274 399 391 
163 10 327 203 363 378 497 56 400 157 482 113 
164 10 427 422 30 270 518 132 43 64 326 419 
165 11 359 449 205 430 322 68 42 46 197 467 340 
166 8 361 352 25 44 122 195 6 154 
167 10 131 154 25 401 125 338 297 168 195 6 
168 9 338 106 125 401 297 167 131 154 25 
169 4 426 117 503 15 
170 11 13 236 133 108 223 496 504 29 92 334 301 
171 11 229 499 337 62 502 310 330 182 193 15 335 
172 6 117 15 202 169 310 426 
173 11 349 10 228 368 17 281 508 114 188 86 306 
174 8 18 507 387 324 443 95 440 347 
175 11 2 456 67 506 255 289 152 34 225 233 420 
176 11 288 21 9 66 372 103 155 139 187 469 358 
177 9 58 333 436 460 335 457 214 337 182 
178 10 129 339 483 91 465 22 102 411 496 223 
179 5 148 402 237 348 54 
180 6 84 138 510 83 357 59 
181 11 7 79 55 487 3 257 418 379 243 314 398 
182 11 335 502 337 229 234 256 62 171 58 146 291 
183 11 461 318 24 8 127 123 506 244 2 442 175 
184 8 362 325 386 213 11 434 70 463 
185 8 100 488 12 366 464 347 101 308 
186 8 94 49 250 450 249 77 398 240 
187 11 258 288 21 139 176 66 103 277 155 231 9 
188 8 485 17 86 10 215 281 173 306 
189 11 254 112 489 50 312 323 104 60 476 32 517 
190 11 53 220 495 16 122 232 352 472 210 479 6 
191 11 490 513 264 143 42 205 359 165 267 435 449 
192 6 286 159 134 374 35 331 
193 9 330 503 310 426 499 171 229 337 15 
194 9 486 210 472 220 120 190 16 495 53 
195 11 6 122 131 401 16 25 154 297 167 166 361 
196 5 519 428 414 26 74 
197 10 46 467 280 416 160 116 68 136 322 478 
198 11 19 516 431 37 346 353 245 375 389 403 80 
199 8 329 342 214 460 333 51 177 137 
200 11 385 63 303 276 246 99 273 217 75 204 242 
201 10 381 440 443 101 18 324 347 366 174 387 
202 11 107 455 409 39 316 172 471 117 15 62 54 
203 11 327 163 56 363 378 497 400 157 482 113 360 
204 11 273 242 75 442 244 63 311 127 303 319 8 
205 11 165 322 449 359 42 68 430 46 197 467 280 
206 11 208 239 321 61 350 207 455 39 305 90 302 
207 10 350 61 90 305 222 302 321 470 208 413 
208 11 206 239 321 61 350 207 39 305 455 302 90 
209 9 85 48 390 429 87 268 412 473 462 
210 10 194 486 220 472 120 190 16 6 53 72 
211 11 269 272 341 252 36 267 441 354 260 513 143 
212 8 274 399 23 320 162 140 356 283 
213 10 463 386 434 489 425 40 323 70 395 517 
214 10 329 342 199 460 177 333 58 193 330 337 
215 9 86 111 281 105 419 65 275 292 110 
216 10 77 424 249 450 476 115 135 49 50 32 
217 11 246 441 63 200 36 276 385 75 260 273 204 
218 10 500 340 378 121 367 157 279 163 430 41 
219 11 81 251 377 27 158 477 233 287 397 328 144 
220 9 472 190 495 194 210 53 486 16 479 
221 10 82 238 306 124 17 485 188 481 10 266 
222 11 90 470 207 305 235 302 413 61 350 52 384 
223 11 496 13 108 92 170 178 301 129 29 483 298 
224 9 415 3 468 398 257 475 418 487 379 
225 10 255 383 511 289 34 456 445 284 420 67 
226 11 20 141 35 331 78 313 118 446 134 315 285 
227 11 145 406 14 356 392 147 393 300 332 320 109 
228 11 349 368 173 508 114 10 281 17 86 65 266 
229 11 337 171 182 502 499 335 330 62 193 234 310 
230 9 484 453 57 396 51 417 37 346 498 
231 8 444 408 334 504 103 133 258 66 
232 4 352 253 53 361 
233 10 67 251 456 219 336 377 2 175 81 27 
234 11 256 502 182 291 62 128 146 335 142 343 229 
235 11 52 384 72 470 106 222 421 90 168 125 297 
236 11 133 170 504 31 469 13 334 155 103 108 365 
237 6 402 148 54 179 348 316 
238 11 124 306 266 221 82 10 17 481 173 188 466 
239 11 206 208 321 455 61 350 39 207 305 107 302 
240 10 250 49 326 94 186 398 487 257 262 450 
241 9 438 130 292 65 105 275 97 423 110 
242 11 204 273 75 442 244 311 63 127 319 303 8 
243 11 55 110 97 181 515 7 79 248 314 423 275 
244 11 442 127 242 8 204 75 273 311 461 183 318 
245 11 80 307 389 459 271 474 5 364 403 151 516 
246 8 276 217 200 385 36 63 252 303 
247 10 413 321 514 207 222 350 61 206 90 208 
248 10 419 110 111 43 243 30 270 55 132 275 
249 7 77 216 94 186 49 450 424 
250 10 240 398 257 487 94 186 49 3 224 326 
251 10 219 27 233 287 81 377 328 158 477 144 
252 11 36 341 246 441 217 354 276 211 269 272 260 
253 4 232 391 351 33 
254 11 156 312 189 112 323 28 489 50 135 476 424 
255 10 225 289 34 420 456 383 175 67 511 2 
256 11 234 291 128 502 146 182 142 343 62 4 335 
257 11 487 3 398 7 250 79 224 181 418 415 379 
258 11 187 21 288 103 66 231 176 139 155 469 9 
259 11 452 512 458 95 47 98 387 440 18 443 201 
260 11 441 126 433 217 143 264 42 513 93 478 36 
261 10 41 279 45 121 340 344 367 73 296 435 
262 10 282 480 104 32 448 115 450 49 476 240 
263 11 403 494 364 394 459 19 198 245 271 298 516 
264 11 143 513 42 490 191 205 68 260 433 165 322 
265 9 474 5 91 102 465 339 411 80 307 
266 11 124 306 238 10 173 349 17 466 221 228 82 
267 10 191 272 513 490 264 269 211 143 42 260 
268 7 429 85 209 76 412 48 373 
269 11 211 272 341 252 36 267 441 354 260 264 513 
270 10 30 43 132 518 326 164 419 422 248 111 
271 11 298 459 22 483 364 411 494 307 394 129 245 
272 11 269 211 267 341 252 441 36 260 513 264 143 
273 11 204 242 75 442 63 244 311 303 127 319 8 
274 6 399 212 140 320 23 162 
275 9 292 105 110 97 438 130 241 65 243 
276 7 246 385 200 217 63 303 36 
277 11 139 176 187 288 21 258 66 376 103 9 372 
278 9 439 308 462 412 76 48 473 454 85 
279 9 261 41 121 367 500 340 45 296 218 
280 8 160 467 136 416 46 197 71 116 
281 9 86 215 65 105 114 368 130 292 111 
282 10 262 448 104 480 32 115 326 60 476 49 
283 11 332 162 33 351 23 356 432 253 212 320 391 
284 7 445 454 511 383 225 265 5 
285 11 309 149 446 59 357 226 331 510 138 83 20 
286 5 192 159 134 374 35 
287 10 144 328 27 251 158 353 219 477 81 304 
288 11 21 187 258 176 66 103 139 155 9 469 31 
289 11 34 420 255 152 225 293 175 2 373 380 456 
290 11 466 266 124 238 306 10 349 173 228 221 82 
291 11 142 146 256 4 128 234 509 44 25 154 182 
292 9 105 130 241 438 275 65 97 110 423 
293 7 373 152 420 380 34 289 76 
294 7 70 434 425 395 40 427 386 
295 7 371 93 116 478 416 24 123 
296 5 279 367 261 500 41 
297 11 401 125 338 167 168 131 195 6 106 154 25 
298 11 271 483 394 459 364 22 494 129 411 403 307 
299 11 151 5 353 328 389 80 511 383 445 245 265 
300 11 147 392 432 479 145 69 227 332 393 406 14 
301 11 92 108 29 394 13 223 494 298 364 483 271 
302 9 305 470 90 207 222 61 350 106 235 
303 10 99 200 63 385 319 273 204 242 75 311 
304 7 150 404 158 477 27 144 482 
305 9 302 90 207 470 61 350 222 39 235 
306 11 124 238 266 10 17 221 82 173 188 349 485 
307 11 80 245 389 459 271 474 5 22 265 411 151 
308 9 278 439 462 412 48 473 76 87 464 
309 11 285 149 59 331 446 357 226 510 83 138 20 
310 11 426 499 15 330 193 117 171 503 229 337 62 
311 11 242 319 204 244 273 414 26 75 442 127 519 
312 11 135 254 112 156 50 189 424 28 315 216 476 
313 7 118 20 446 226 78 141 276 
314 11 515 493 379 447 423 55 418 79 243 475 468 
315 11 78 156 28 312 135 141 374 20 35 254 424 
316 11 54 455 202 172 107 39 348 239 409 208 206 
317 9 119 348 239 206 208 321 54 316 237 
318 10 24 183 8 461 127 123 295 126 371 442 
319 11 99 311 303 242 26 273 204 414 75 63 244 
320 9 356 399 212 274 162 283 23 332 109 
321 11 206 208 61 350 207 239 305 90 413 222 302 
322 11 205 68 46 449 197 430 165 467 359 280 116 
323 11 489 254 189 156 28 312 463 112 50 213 517 
324 11 18 443 174 507 347 387 440 381 464 101 201 
325 7 362 184 11 386 70 434 294 
326 10 518 132 240 270 43 30 282 448 250 262 
327 11 203 163 56 363 497 378 400 157 482 113 360 
328 10 287 251 353 299 383 144 511 151 219 27 
329 8 342 214 199 460 333 177 58 193 
330 10 193 499 310 426 503 171 229 337 15 117 
331 10 134 35 141 226 159 192 20 78 286 374 
332 11 283 162 432 33 356 145 392 147 253 351 320 
333 8 177 58 457 460 436 214 329 342 
334 6 504 133 236 170 231 13 
335 11 182 337 58 229 502 177 436 234 256 171 146 
336 6 123 233 67 377 2 456 
337 11 229 182 335 171 502 330 499 62 58 193 234 
338 10 125 168 401 297 106 167 131 154 25 195 
339 9 91 465 102 411 22 129 474 265 483 
340 11 121 41 218 279 261 45 367 500 359 435 165 
341 11 252 36 211 269 354 441 272 217 246 276 260 
342 8 329 214 199 460 333 177 58 193 
343 9 128 256 471 234 291 62 409 502 182 
344 9 73 45 261 435 41 279 505 121 340 
345 5 96 346 375 137 37 
346 7 37 375 96 345 396 198 431 
347 11 101 366 12 324 185 464 488 100 443 381 473 
348 11 54 316 237 402 455 239 119 148 202 179 206 
349 11 228 173 368 508 10 114 17 266 281 306 86 
350 11 61 207 305 90 208 321 302 222 470 206 413 
351 6 33 391 253 283 162 23 
352 7 361 232 122 166 16 53 6 
353 9 431 299 144 287 328 151 516 19 198 
354 9 341 252 36 211 269 463 272 323 28 
355 8 405 365 358 491 372 9 31 381 
356 11 320 145 227 162 332 283 212 399 406 14 274 
357 7 59 138 149 510 83 180 84 
358 10 491 372 365 405 355 9 376 469 31 155 
359 11 165 449 430 205 322 340 218 42 68 46 197 
360 8 451 400 497 56 363 327 163 203 
361 7 166 352 25 122 195 44 6 
362 8 184 325 386 11 213 434 70 294 
363 10 497 163 327 400 56 203 360 378 451 482 
364 11 494 459 403 394 271 298 263 245 307 483 22 
365 9 355 358 9 405 372 491 31 469 155 
366 7 101 185 100 12 488 347 464 
367 9 500 279 121 218 41 261 296 340 378 
368 11 508 114 228 173 349 281 65 86 10 130 105 
369 6 140 498 57 417 263 274 
370 10 120 514 421 486 72 194 210 52 384 472 
371 7 295 116 93 416 478 197 46 
372 10 358 491 9 365 376 405 176 355 469 155 
373 7 293 380 152 420 34 76 289 
374 8 424 135 192 216 286 35 134 249 
375 4 96 346 345 37 
376 10 491 372 98 358 47 405 176 9 365 355 
377 10 81 219 27 251 158 397 477 233 336 287 
378 10 163 203 327 157 363 218 497 56 400 500 
379 11 418 79 3 468 314 475 7 55 181 447 224 
380 7 152 373 293 506 420 34 289 
381 9 201 440 443 101 347 324 18 366 405 
382 5 437 26 74 414 428 
383 10 511 225 445 255 284 328 299 151 5 454 
384 11 52 235 72 106 421 297 125 168 470 338 401 
385 8 200 303 63 276 99 246 273 319 
386 9 434 70 213 425 294 40 362 395 184 
387 8 18 174 95 507 443 324 440 512 
388 2 88 23 
389 11 80 245 307 5 151 474 265 299 459 516 19 
390 8 87 209 473 48 85 464 412 462 
391 3 351 253 33 
392 11 147 300 145 227 432 332 406 14 69 479 393 
393 11 153 14 406 69 227 145 147 392 300 89 356 
394 11 494 298 364 271 459 403 483 301 22 129 263 
395 11 40 425 517 64 60 434 70 427 448 164 294 
396 11 453 230 57 37 51 346 484 198 345 375 96 
397 10 113 482 81 477 404 158 377 27 71 304 
398 9 257 250 224 487 3 415 94 186 240 
399 6 274 212 320 140 23 356 
400 10 56 497 363 360 327 203 163 482 451 113 
401 11 297 125 338 167 131 168 154 195 6 106 25 
402 6 237 148 179 54 348 316 
403 11 364 494 263 459 271 394 245 298 307 80 19 
404 9 150 304 477 158 482 27 113 397 81 
405 8 355 491 358 365 372 9 201 381 
406 11 14 227 145 393 147 356 392 153 109 69 300 
407 11 410 89 38 492 69 153 393 501 161 520 300 
408 8 444 520 231 109 153 14 393 406 
409 10 471 107 39 343 202 62 455 234 256 502 
410 11 407 89 153 38 69 393 520 492 14 406 501 
411 11 22 91 339 129 483 474 271 465 102 265 298 
412 11 462 48 76 85 278 429 308 439 87 268 473 
413 11 222 207 90 350 61 421 514 235 321 470 305 
414 9 26 519 428 196 311 74 437 382 319 
415 7 224 468 475 3 398 257 418 
416 8 280 160 467 197 46 116 371 136 
417 7 484 230 57 88 453 498 51 
418 11 379 3 79 468 7 475 55 181 224 314 257 
419 9 111 248 30 43 422 110 270 132 215 
420 10 34 289 293 152 373 255 380 506 76 225 
421 11 72 52 514 384 235 222 370 413 120 470 106 
422 9 164 427 30 419 270 43 132 111 518 
423 10 515 97 314 493 243 447 55 438 275 241 
424 9 216 135 77 249 476 50 112 450 115 
425 11 40 434 395 70 294 517 64 60 386 427 213 
426 10 310 15 503 193 330 499 117 171 169 229 
427 10 164 422 30 270 518 132 43 64 395 419 
428 5 519 196 414 26 74 
429 7 268 85 209 412 76 48 462 
430 11 449 165 359 322 205 46 197 467 136 157 280 
431 9 198 19 353 516 375 37 96 144 346 
432 11 479 332 147 300 392 253 283 495 33 145 232 
433 9 126 93 478 116 68 295 371 24 46 
434 9 70 425 294 40 386 395 213 517 64 
435 11 45 41 344 261 121 340 73 279 359 218 367 
436 10 58 177 333 335 142 146 457 509 4 44 
437 6 382 26 74 414 428 519 
438 10 241 292 130 275 105 97 65 423 110 515 
439 8 278 308 462 76 412 454 48 473 
440 10 201 381 443 18 324 387 174 101 347 507 
441 11 260 217 36 252 126 246 341 63 433 200 75 
442 11 244 127 75 204 242 8 273 311 318 63 183 
443 11 18 324 440 201 174 381 387 347 507 101 366 
444 6 109 408 231 334 14 406 
445 8 284 511 383 5 454 225 265 151 
446 7 313 118 226 20 285 141 149 
447 10 493 314 475 379 515 418 468 423 79 3 
448 10 282 262 104 480 60 64 326 32 518 517 
449 11 165 359 430 205 322 46 68 197 467 42 280 
450 11 49 115 32 476 77 480 186 94 262 216 104 
451 7 360 137 400 497 363 56 345 
452 11 259 512 47 98 458 95 440 387 201 18 443 
453 11 57 230 484 396 51 417 37 346 263 198 369 
454 6 284 439 445 278 34 225 
455 11 39 107 202 316 239 409 208 471 206 61 350 
456 10 67 175 2 233 255 225 289 506 34 152 
457 4 333 436 177 58 
458 9 512 95 259 452 387 83 180 510 18 
459 11 271 364 298 494 245 307 403 22 80 394 483 
460 10 214 342 329 177 333 58 199 335 436 337 
461 10 183 318 24 8 127 123 506 244 2 380 
462 10 412 48 278 308 76 85 439 473 87 429 
463 8 213 323 489 354 189 254 28 386 
464 11 473 87 12 48 488 308 390 185 347 462 100 
465 7 102 339 91 411 265 474 22 
466 11 290 266 124 238 306 349 10 228 173 17 368 
467 9 280 46 197 160 136 416 71 116 322 
468 10 475 415 418 224 379 3 79 257 447 7 
469 11 31 155 66 103 9 236 365 133 372 21 358 
470 9 90 302 222 305 235 106 52 207 384 
471 9 409 107 343 39 62 128 234 256 302 
472 9 220 194 486 495 210 190 120 479 53 
473 11 87 48 464 462 390 85 308 412 209 278 439 
474 10 265 5 91 411 80 307 339 465 22 102 
475 10 468 379 415 418 224 3 447 493 79 314 
476 11 32 115 50 450 480 104 49 77 112 216 262 
477 10 158 27 404 304 81 150 397 219 377 144 
478 9 93 116 68 295 371 433 197 46 416 
479 10 495 432 300 147 190 392 220 53 472 253 
480 10 32 104 262 115 282 476 450 49 448 50 
481 9 82 221 238 124 11 306 266 10 17 
482 11 113 397 404 56 203 150 304 327 477 400 163 
483 11 129 22 298 271 411 91 459 339 394 364 178 
484 9 230 453 57 417 51 396 37 346 498 
485 7 188 17 215 86 422 281 427 
486 9 194 210 120 472 220 190 72 370 16 
487 11 257 3 7 398 181 250 79 224 240 418 379 
488 8 12 185 100 366 464 308 347 101 
489 11 323 189 254 517 60 112 463 156 213 312 28 
490 11 191 513 264 143 42 205 165 359 449 322 68 
491 8 358 405 372 355 365 376 9 98 
492 10 501 69 38 161 89 300 479 147 392 472 
493 11 447 314 515 423 379 475 418 468 55 79 3 
494 11 364 394 403 459 298 271 263 483 245 307 22 
495 10 479 190 220 53 472 432 16 232 253 194 
496 10 223 178 13 108 129 170 92 483 301 298 
497 10 363 400 56 327 163 203 360 378 451 482 
498 7 88 140 369 417 23 388 274 
499 11 310 171 330 193 229 15 426 337 117 62 503 
500 9 367 218 279 121 340 378 41 261 163 
501 9 492 161 472 479 38 69 300 495 220 
502 11 182 62 234 229 337 171 256 335 291 499 343 
503 8 193 426 330 310 499 15 169 117 
504 7 334 133 236 170 13 231 29 
505 4 73 344 261 45 
506 9 152 380 2 175 293 420 289 373 67 
507 6 174 324 18 387 443 390 
508 11 368 114 228 349 173 65 281 130 241 105 86 
509 11 4 44 142 146 291 25 436 166 154 361 128 
510 7 83 59 357 149 180 138 84 
511 10 383 445 225 284 255 5 151 299 328 454 
512 9 458 95 259 387 452 18 174 440 443 
513 11 264 143 490 191 42 205 165 68 359 322 260 
514 11 421 370 72 413 52 384 120 235 222 486 210 
515 10 423 314 493 97 243 55 447 379 418 79 
516 11 19 198 431 389 245 80 353 307 37 151 299 
517 11 60 64 395 40 448 104 282 425 262 189 480 
518 10 132 326 270 30 43 164 448 282 240 262 
519 6 196 428 414 26 74 437 
520 10 408 153 410 444 231 393 258 14 89 406 
DEPOT_SECTION
   1
   -1
EOF
