NAME :  X-n627-kX-w125-c7.cctp
COMMENT : 	Adapted by Maziero, Usberti and Cavellucci from the Uchoa, Pecin, Pessoa, Poggi, Subramanian, and Vidal (2013)
TYPE :  CCTP
DIMENSION :    525
EDGE_WEIGHT_TYPE : 	EUC_2D	
CAPACITY : 	110
VERTICES_WITHIN_COVERAGE :  7
VERTICES_WITH_DEMAND : 	125
NODE_COORD_SECTION
1 0 0
2 816 981
3 349 338
4 22 205
5 385 344
6 913 54
7 410 410
8 108 298
9 280 512
10 335 312
11 155 336
12 64 98
13 64 184
14 874 922
15 513 345
16 516 316
17 403 276
18 407 310
19 161 312
20 931 13
21 371 380
22 460 357
23 455 345
24 796 940
25 811 111
26 360 338
27 932 60
28 803 989
29 882 959
30 2 58
31 740 917
32 939 22
33 53 202
34 360 409
35 802 863
36 326 268
37 565 473
38 828 21
39 311 537
40 868 36
41 2 246
42 243 431
43 58 191
44 756 985
45 900 104
46 281 633
47 42 237
48 771 961
49 290 453
50 289 346
51 27 123
52 16 181
53 960 960
54 457 383
55 759 856
56 10 179
57 62 165
58 297 197
59 2 151
60 491 292
61 124 102
62 536 441
63 374 246
64 778 976
65 854 959
66 740 836
67 26 238
68 875 125
69 935 116
70 255 411
71 313 340
72 91 159
73 369 362
74 341 352
75 363 286
76 366 242
77 832 961
78 443 397
79 863 999
80 944 188
81 866 933
82 644 495
83 59 233
84 890 960
85 373 308
86 73 84
87 467 337
88 291 307
89 657 858
90 394 290
91 273 161
92 288 89
93 354 274
94 456 206
95 421 275
96 476 325
97 447 183
98 320 282
99 768 854
100 355 447
101 415 250
102 941 48
103 432 303
104 834 982
105 814 93
106 930 930
107 562 465
108 430 495
109 450 472
110 417 234
111 25 204
112 260 351
113 441 312
114 957 1
115 837 881
116 921 27
117 452 219
118 781 931
119 308 258
120 354 393
121 879 40
122 272 230
123 162 158
124 19 284
125 361 273
126 392 255
127 53 201
128 468 176
129 330 293
130 353 383
131 252 364
132 603 555
133 134 280
134 865 985
135 110 159
136 355 341
137 437 439
138 26 137
139 801 157
140 369 319
141 749 958
142 298 337
143 799 21
144 430 307
145 273 556
146 246 342
147 805 824
148 324 354
149 513 397
150 321 107
151 350 280
152 957 194
153 954 4
154 36 314
155 926 68
156 407 307
157 5 137
158 793 990
159 26 198
160 34 187
161 134 405
162 371 329
163 44 181
164 869 855
165 918 112
166 916 33
167 789 126
168 427 333
169 760 921
170 384 472
171 229 348
172 120 308
173 86 28
174 933 368
175 63 146
176 897 138
177 258 514
178 677 899
179 881 94
180 724 977
181 405 288
182 852 955
183 461 318
184 311 501
185 574 343
186 911 215
187 943 0
188 690 419
189 448 250
190 309 266
191 907 187
192 336 466
193 836 977
194 22 201
195 543 274
196 336 367
197 348 311
198 267 320
199 215 420
200 648 516
201 111 262
202 366 374
203 355 614
204 890 41
205 344 440
206 419 399
207 348 354
208 446 504
209 76 237
210 239 411
211 842 116
212 496 310
213 866 137
214 140 371
215 502 399
216 381 451
217 811 953
218 374 380
219 809 959
220 285 434
221 47 224
222 858 950
223 8 298
224 380 340
225 931 185
226 977 994
227 400 343
228 375 245
229 882 1
230 819 990
231 443 296
232 2 162
233 13 130
234 44 243
235 869 131
236 937 139
237 408 231
238 65 244
239 440 468
240 382 359
241 937 219
242 407 321
243 351 381
244 27 222
245 406 421
246 122 147
247 850 64
248 31 228
249 591 348
250 356 366
251 252 334
252 306 365
253 103 110
254 303 286
255 207 95
256 838 999
257 421 235
258 19 168
259 75 177
260 377 321
261 896 18
262 996 984
263 924 883
264 337 321
265 382 299
266 828 893
267 935 73
268 360 355
269 343 300
270 829 993
271 953 97
272 498 325
273 435 300
274 485 428
275 846 988
276 322 244
277 52 206
278 841 933
279 342 397
280 826 808
281 318 307
282 278 284
283 302 337
284 50 202
285 536 328
286 895 57
287 360 244
288 652 883
289 49 173
290 118 114
291 399 248
292 189 460
293 409 509
294 446 249
295 313 138
296 299 252
297 998 981
298 856 102
299 402 396
300 895 90
301 780 109
302 476 361
303 348 349
304 916 243
305 35 140
306 784 14
307 71 185
308 633 953
309 124 396
310 396 304
311 32 168
312 677 971
313 304 292
314 529 293
315 46 150
316 351 250
317 288 195
318 897 61
319 85 90
320 272 364
321 941 143
322 909 58
323 777 868
324 243 125
325 515 327
326 798 946
327 722 954
328 289 296
329 863 67
330 347 427
331 813 906
332 963 76
333 305 467
334 136 630
335 351 404
336 823 36
337 441 411
338 445 649
339 347 348
340 323 299
341 834 952
342 419 416
343 398 349
344 70 197
345 96 330
346 875 131
347 392 351
348 778 723
349 485 222
350 346 321
351 848 43
352 213 413
353 887 131
354 385 360
355 309 171
356 49 285
357 220 333
358 865 920
359 405 304
360 766 965
361 850 830
362 952 43
363 47 217
364 270 427
365 779 916
366 355 366
367 331 528
368 487 494
369 3 275
370 344 355
371 0 105
372 884 90
373 868 958
374 94 142
375 46 121
376 403 257
377 438 261
378 6 148
379 781 928
380 457 450
381 149 200
382 768 997
383 561 419
384 280 374
385 69 250
386 787 222
387 353 232
388 953 32
389 895 967
390 424 409
391 499 588
392 344 276
393 700 832
394 877 107
395 782 509
396 283 201
397 766 889
398 889 134
399 810 943
400 398 280
401 834 128
402 358 396
403 294 288
404 264 261
405 346 378
406 815 72
407 205 175
408 395 280
409 784 936
410 328 253
411 787 920
412 379 331
413 53 234
414 956 44
415 195 21
416 227 387
417 400 74
418 794 979
419 884 38
420 902 49
421 893 98
422 189 50
423 878 892
424 344 428
425 386 307
426 29 101
427 376 335
428 361 337
429 931 30
430 792 925
431 950 153
432 436 505
433 393 357
434 256 360
435 427 189
436 136 317
437 980 141
438 525 338
439 883 917
440 32 278
441 488 237
442 712 837
443 384 238
444 926 69
445 431 283
446 378 355
447 24 200
448 387 230
449 718 776
450 51 285
451 862 957
452 812 961
453 398 241
454 73 228
455 448 182
456 50 182
457 376 299
458 381 217
459 748 837
460 356 228
461 272 370
462 443 185
463 329 300
464 491 312
465 868 921
466 415 429
467 322 188
468 28 250
469 435 250
470 141 6
471 95 42
472 872 967
473 551 270
474 432 301
475 776 954
476 291 587
477 407 322
478 396 397
479 748 95
480 299 475
481 890 96
482 376 371
483 350 359
484 71 182
485 211 225
486 260 316
487 416 322
488 389 357
489 363 340
490 29 117
491 820 993
492 819 22
493 900 36
494 11 250
495 431 139
496 69 240
497 460 406
498 944 25
499 577 500
500 900 107
501 308 302
502 944 17
503 399 309
504 88 63
505 790 931
506 859 799
507 216 170
508 273 257
509 425 192
510 889 46
511 946 41
512 747 992
513 898 841
514 651 874
515 317 336
516 668 404
517 354 332
518 547 464
519 909 137
520 467 326
521 82 238
522 22 204
523 382 468
524 272 446
525 157 302
DEMAND_SECTION
2 5
3 8
4 8
5 7
6 5
7 9
8 5
9 5
10 9
11 9
12 7
13 5
14 10
15 8
16 10
17 5
18 5
19 8
20 7
21 10
22 9
23 9
24 8
25 6
26 9
27 7
28 10
29 6
30 9
31 9
32 10
33 7
34 7
35 6
36 7
37 6
38 5
39 9
40 7
41 6
42 7
43 7
44 9
45 7
46 6
47 6
48 6
49 6
50 9
51 7
52 6
53 7
54 6
55 5
56 10
57 5
58 8
59 8
60 5
61 5
62 9
63 10
64 6
65 7
66 6
67 8
68 10
69 7
70 6
71 7
72 6
73 8
74 8
75 9
76 10
77 10
78 10
79 6
80 9
81 10
82 5
83 6
84 10
85 9
86 8
87 8
88 7
89 5
90 8
91 7
92 7
93 10
94 10
95 8
96 7
97 5
98 5
99 7
100 6
101 10
102 7
103 5
104 8
105 8
106 8
107 10
108 7
109 6
110 10
111 10
112 8
113 8
114 7
115 5
116 10
117 5
118 6
119 9
120 9
121 7
122 5
123 10
124 8
125 9
126 6
COVERAGE_SECTION
2 7 230 491 28 104 270 193 452 
3 7 136 517 339 26 303 428 489 
4 7 522 111 194 447 159 244 160 
5 7 224 347 427 446 343 412 488 
6 7 322 420 318 286 155 27 444 
7 7 342 245 206 390 299 478 466 
8 6 172 133 345 436 201 525 
9 7 177 184 39 480 145 333 367 
10 7 264 197 463 269 350 281 340 
11 7 19 436 525 214 172 345 8 
12 7 86 319 375 426 490 253 504 
13 7 307 484 43 259 344 456 57 
14 7 465 358 439 81 423 222 278 
15 7 438 325 272 16 285 212 302 
16 7 325 272 212 285 438 464 314 
17 7 400 408 181 90 95 376 126 
18 7 156 359 503 242 477 310 487 
19 6 525 11 436 172 133 8 
20 7 32 502 116 429 187 498 153 
21 5 218 202 482 73 130 
22 5 23 302 87 54 520 
23 7 22 87 520 302 183 96 168 
24 7 326 505 409 399 430 118 379 
25 7 105 167 401 211 301 406 298 
26 6 428 489 136 517 3 162 
27 7 155 444 267 102 6 322 511 
28 7 158 418 2 230 491 270 64 
29 7 84 472 373 389 451 222 65 
30 7 371 426 490 51 233 12 86 
31 7 169 397 365 327 141 379 118 
32 7 498 502 429 20 388 116 511 
33 7 127 284 277 43 363 344 456 
34 7 335 402 120 279 330 424 130 
35 7 323 99 115 147 266 55 331 
36 7 98 410 190 392 119 276 129 
37 7 107 518 499 62 383 368 82 
38 7 492 336 143 351 40 306 247 
39 7 367 184 9 145 476 177 480 
40 7 121 419 351 204 510 329 493 
41 7 494 67 468 369 248 244 47 
42 7 210 70 364 199 524 352 220 
43 7 13 127 33 456 344 284 307 
44 7 512 382 360 64 48 141 180 
45 7 500 421 481 300 165 179 372 
46 7 476 203 145 39 367 9 177 
47 7 234 413 221 248 67 83 468 
48 7 360 475 64 141 44 409 418 
49 5 524 220 333 480 364 
50 7 142 283 71 252 320 112 384 
51 7 490 138 233 305 375 426 157 
52 7 56 258 160 159 194 311 447 
53 7 226 106 262 297 389 84 29 
54 5 78 497 22 302 337 
55 7 99 323 459 66 397 35 442 
56 7 52 258 232 159 160 194 311 
57 7 289 259 13 175 484 456 307 
58 6 317 396 467 355 122 91 
59 6 378 232 157 233 258 138 
60 7 212 464 272 16 96 314 183 
61 7 290 253 319 246 374 504 86 
62 7 518 383 107 37 149 274 215 
63 7 228 76 443 287 126 448 316 
64 7 360 418 48 158 475 382 44 
65 7 182 451 222 373 472 341 77 
66 7 459 55 442 99 393 323 397 
67 7 248 468 47 244 234 494 41 
68 7 346 235 353 213 398 394 176 
69 7 165 236 271 321 519 500 45 
70 6 210 364 42 416 220 524 
71 6 515 283 142 148 50 252 
72 7 374 135 259 57 484 175 246 
73 7 268 446 482 202 240 250 366 
74 7 370 207 339 303 483 3 196 
75 7 125 151 93 457 392 265 85 
76 7 287 63 228 387 316 460 443 
77 7 341 193 452 104 182 65 217 
78 5 337 497 54 390 206 
79 7 134 275 256 472 104 193 270 
80 7 225 152 241 431 191 186 321 
81 7 465 358 14 222 439 451 278 
82 7 200 499 132 37 107 188 516 
83 7 413 496 238 221 454 47 209 
84 7 29 389 472 373 451 222 134 
85 6 457 140 265 425 260 162 
86 7 319 12 504 253 375 426 471 
87 7 520 23 96 183 22 302 272 
88 6 328 501 403 313 254 282 
89 7 514 288 178 393 442 66 459 
90 7 408 181 400 310 265 17 359 
91 7 317 355 396 58 295 324 467 
92 6 150 295 324 91 255 355 
93 7 125 151 392 75 316 269 36 
94 7 117 97 455 462 128 349 435 
95 7 445 17 181 377 400 376 101 
96 7 520 87 183 464 272 212 23 
97 7 455 462 435 128 509 94 117 
98 7 36 129 254 340 190 313 463 
99 7 55 323 459 66 35 397 147 
100 5 205 330 424 216 192 
101 7 376 110 257 291 453 237 469 
102 7 511 362 27 414 388 429 498 
103 7 474 144 273 113 231 445 156 
104 7 193 270 275 230 256 2 491 
105 6 25 406 211 301 401 167 
106 7 53 263 439 84 389 29 14 
107 7 37 518 62 499 383 368 149 
108 5 432 208 293 239 109 
109 7 239 380 108 208 137 432 368 
110 7 257 237 101 453 291 469 376 
111 7 4 522 194 447 159 244 160 
112 7 434 131 146 320 251 461 50 
113 7 144 103 273 474 231 183 168 
114 7 153 187 502 498 32 20 388 
115 7 266 331 35 164 423 358 465 
116 7 166 429 20 32 493 498 502 
117 7 94 189 294 349 257 462 469 
118 7 379 409 505 411 430 365 24 
119 7 190 296 276 36 410 98 254 
120 7 402 130 335 243 279 34 405 
121 7 419 204 40 510 493 286 420 
122 7 508 396 404 296 317 58 119 
123 5 246 381 407 135 507 
124 7 440 223 369 356 450 154 468 
125 7 93 75 151 392 316 287 63 
126 7 291 376 453 443 63 228 17 
127 7 33 284 277 43 344 363 456 
128 7 455 97 462 94 435 117 509 
129 7 463 340 98 269 281 10 392 
130 7 243 405 120 402 202 250 366 
131 7 434 112 320 461 146 171 251 
132 6 200 499 82 37 107 518 
133 6 201 172 8 525 436 19 
134 7 79 275 472 373 65 451 193 
135 7 246 72 374 259 484 290 307 
136 7 26 3 428 489 517 303 339 
137 7 380 466 337 239 342 390 109 
138 6 305 51 233 490 157 378 
139 7 167 401 25 301 211 105 386 
140 6 260 162 85 412 427 428 
141 7 360 48 327 475 44 180 64 
142 7 283 50 71 515 252 88 148 
143 7 306 492 336 38 406 351 247 
144 7 103 474 273 113 231 487 18 
145 7 476 39 9 177 367 184 46 
146 7 251 112 171 434 131 357 198 
147 7 280 35 361 99 323 55 459 
148 5 74 71 196 515 370 
149 7 215 274 62 15 302 383 497 
150 4 295 92 355 91 
151 7 93 392 125 75 269 129 36 
152 7 80 225 241 431 191 186 321 
153 7 114 187 502 32 498 20 388 
154 6 223 356 450 124 440 369 
155 6 444 27 267 6 322 102 
156 7 18 359 503 310 242 477 487 
157 6 233 378 59 138 232 51 
158 7 28 418 64 2 230 382 491 
159 7 447 194 111 522 4 160 52 
160 7 163 159 447 456 194 52 111 
161 6 309 214 11 292 352 199 
162 6 412 427 140 260 428 26 
163 7 456 289 160 43 311 13 127 
164 7 361 513 423 115 266 506 263 
165 7 69 500 45 519 421 300 481 
166 7 116 429 493 6 420 20 32 
167 7 301 25 139 105 401 479 211 
168 5 487 242 477 113 144 
169 7 31 365 379 118 411 409 430 
170 3 523 216 100 
171 7 357 146 251 131 434 112 416 
172 7 8 436 133 345 525 19 11 
173 6 471 504 86 470 319 12 
174 7 304 241 186 152 80 191 225 
175 7 315 57 305 289 375 72 374 
176 7 398 353 519 346 68 235 213 
177 7 9 145 184 480 39 333 49 
178 7 288 514 89 31 308 327 393 
179 6 372 481 421 394 300 45 
180 7 327 512 141 44 360 312 382 
181 7 90 400 17 408 359 310 156 
182 7 65 222 451 373 341 77 472 
183 7 520 96 87 113 23 231 464 
184 6 480 9 367 333 39 192 
185 7 249 285 438 15 325 16 314 
186 7 241 191 304 225 80 152 431 
187 7 153 114 502 20 32 498 429 
188 6 516 82 200 249 383 395 
189 7 294 469 377 117 257 101 110 
190 6 119 36 296 98 254 410 
191 7 225 186 80 241 152 176 519 
192 3 100 205 333 
193 7 104 275 77 270 2 230 256 
194 7 447 522 4 111 159 160 52 
195 7 473 314 16 285 60 212 325 
196 4 370 405 74 483 
197 7 350 269 10 264 140 463 517 
198 6 486 251 88 146 112 328 
199 7 352 210 42 416 70 292 364 
200 7 82 132 499 37 107 188 516 
201 4 133 8 521 209 
202 7 21 218 482 73 250 366 130 
203 7 476 46 39 367 338 145 293 
204 7 510 419 121 493 420 286 318 
205 3 424 100 330 
206 4 390 7 299 342 
207 6 370 303 483 339 74 268 
208 6 432 108 109 239 293 368 
209 6 521 496 454 238 385 83 
210 7 70 42 199 352 416 364 524 
211 6 401 298 25 235 213 68 
212 7 464 272 60 16 96 325 520 
213 7 235 346 68 353 398 176 211 
214 6 309 161 11 436 345 19 
215 7 149 274 497 302 54 62 15 
216 4 523 170 100 205 
217 7 219 452 399 326 24 77 341 
218 5 21 482 202 73 130 
219 7 452 217 399 326 2 24 77 
220 3 364 524 49 
221 7 363 413 47 83 248 234 277 
222 7 182 451 65 373 81 472 278 
223 7 124 369 440 154 356 450 494 
224 6 5 427 412 162 446 347 
225 7 80 191 152 241 186 431 321 
226 7 262 297 53 106 389 84 29 
227 6 343 347 5 433 488 224 
228 7 63 76 443 287 448 126 453 
229 7 261 419 40 121 493 204 510 
230 7 491 2 270 28 104 193 256 
231 7 273 474 103 113 144 445 183 
232 6 59 378 258 56 52 157 
233 7 157 138 51 378 490 59 305 
234 7 47 413 468 83 67 221 248 
235 7 346 213 68 353 398 394 176 
236 7 321 431 69 519 165 176 437 
237 6 110 257 453 291 101 448 
238 6 496 385 83 209 413 454 
239 6 109 380 108 137 208 432 
240 7 354 446 488 433 73 347 482 
241 7 186 80 152 304 225 191 431 
242 6 477 487 18 156 503 359 
243 6 130 405 120 250 366 202 
244 7 248 67 4 111 522 221 47 
245 7 7 466 342 390 299 206 478 
246 7 135 374 72 290 123 253 61 
247 6 329 351 40 406 121 298 
248 7 244 67 47 221 363 234 468 
249 6 185 285 438 383 15 325 
250 6 366 483 268 202 73 207 
251 7 146 112 486 198 434 171 131 
252 2 148 50 
253 7 290 61 319 374 86 12 246 
254 6 313 403 98 328 501 190 
255 7 324 422 415 507 123 407 92 
256 7 270 275 104 491 230 193 79 
257 7 110 237 101 469 453 291 376 
258 5 52 311 56 232 59 
259 7 484 307 13 57 344 43 72 
260 6 140 162 412 85 427 425 
261 7 493 229 419 204 166 116 121 
262 7 297 226 53 106 389 84 29 
263 7 106 423 513 439 164 14 465 
264 7 10 350 197 517 3 269 463 
265 7 457 425 85 90 310 503 75 
266 7 115 331 35 278 358 430 411 
267 6 155 444 27 102 332 6 
268 7 73 483 207 250 366 303 136 
269 7 197 10 463 129 340 151 350 
270 7 491 230 256 104 193 2 275 
271 6 332 69 267 165 444 155 
272 7 212 464 325 16 96 15 438 
273 7 474 103 144 231 113 445 95 
274 7 497 215 380 149 337 137 78 
275 7 104 256 193 270 134 79 491 
276 7 410 119 36 296 190 316 387 
277 7 33 284 127 363 43 221 344 
278 7 341 222 81 182 358 65 77 
279 6 335 120 402 130 243 405 
280 7 147 361 506 35 164 99 115 
281 7 340 501 463 10 129 313 264 
282 4 328 403 254 88 
283 7 142 71 515 50 148 252 88 
284 7 33 127 277 43 363 456 344 
285 7 438 325 16 15 314 272 185 
286 7 318 420 510 322 204 6 419 
287 7 76 316 63 387 228 460 443 
288 7 514 89 178 393 308 442 312 
289 7 163 456 57 311 13 43 160 
290 7 61 253 246 374 319 135 72 
291 7 453 126 376 101 443 237 448 
292 7 199 352 42 210 161 70 416 
293 5 108 432 208 170 523 
294 7 189 469 377 257 101 117 110 
295 5 150 355 91 467 92 
296 6 119 190 276 508 410 36 
297 7 262 226 53 106 389 84 29 
298 5 211 394 179 68 372 
299 3 478 7 206 
300 6 421 481 372 45 179 500 
301 7 167 25 479 105 406 139 401 
302 7 22 23 87 54 96 520 15 
303 7 339 207 370 74 483 3 136 
304 7 186 241 191 225 80 152 431 
305 5 138 315 51 375 233 
306 7 143 492 38 336 406 351 247 
307 7 484 13 259 344 43 456 57 
308 7 312 178 288 514 327 180 89 
309 5 161 214 11 345 436 
310 7 503 359 425 156 18 90 265 
311 5 258 163 289 160 52 
312 7 180 308 327 178 141 512 44 
313 6 254 403 501 328 98 88 
314 7 195 16 473 285 212 325 60 
315 5 305 175 57 289 311 
316 7 287 76 387 63 410 460 93 
317 6 396 58 355 467 91 122 
318 6 286 322 420 6 510 204 
319 7 86 12 253 504 61 290 471 
320 7 461 384 434 112 131 50 146 
321 7 236 431 69 519 165 437 225 
322 6 6 420 318 286 155 444 
323 7 99 55 397 35 459 365 66 
324 7 91 255 507 92 407 295 150 
325 7 16 438 272 15 285 212 464 
326 7 24 399 217 219 409 505 452 
327 7 180 141 31 360 512 44 312 
328 6 403 88 282 313 254 501 
329 6 247 351 40 121 372 179 
330 5 424 205 34 100 335 
331 7 266 430 411 505 115 365 399 
332 4 271 267 414 27 
333 3 480 49 192 
334 5 46 145 476 177 292 
335 7 34 120 279 402 130 243 330 
336 7 492 38 351 143 406 247 40 
337 7 78 390 497 342 206 137 7 
338 6 391 203 432 208 293 108 
339 7 303 207 74 370 3 136 483 
340 7 463 129 281 501 98 10 269 
341 7 77 182 278 65 217 222 452 
342 7 390 7 245 466 206 337 299 
343 6 227 347 433 488 5 354 
344 7 307 43 13 484 127 33 277 
345 6 172 8 436 11 214 154 
346 7 68 235 213 353 398 176 394 
347 7 343 433 488 5 227 354 240 
348 7 449 280 147 506 459 66 361 
349 7 441 94 117 189 294 128 97 
350 7 264 197 10 517 3 269 26 
351 7 40 247 336 329 38 121 419 
352 7 199 210 416 42 70 292 364 
353 7 398 176 346 68 235 213 519 
354 7 240 488 433 446 347 482 5 
355 5 467 58 317 295 91 
356 4 450 440 124 154 
357 6 171 146 251 486 112 131 
358 7 465 14 81 439 278 222 423 
359 7 156 18 503 310 181 242 90 
360 7 48 475 64 141 44 418 382 
361 7 164 506 280 147 513 115 35 
362 6 414 511 388 102 498 32 
363 7 221 277 284 33 127 413 248 
364 5 220 524 70 42 49 
365 7 411 379 118 430 505 169 409 
366 6 250 483 268 202 207 73 
367 5 39 184 9 192 480 
368 7 208 109 432 380 239 108 274 
369 7 124 223 494 41 440 468 67 
370 6 74 207 303 483 339 196 
371 7 233 426 490 51 157 138 378 
372 6 179 481 300 421 394 45 
373 7 451 472 222 29 65 182 84 
374 7 72 135 246 175 253 290 57 
375 7 490 51 305 138 426 12 315 
376 7 291 126 101 453 17 400 408 
377 7 469 294 189 95 445 101 257 
378 6 59 157 232 233 138 258 
379 7 118 409 505 411 430 365 24 
380 7 109 137 239 274 337 497 466 
381 1 123 
382 7 44 512 64 158 360 418 28 
383 7 62 107 518 149 37 215 185 
384 5 461 320 252 434 50 
385 5 238 496 209 521 83 
386 6 139 167 401 301 25 213 
387 6 460 287 76 316 63 228 
388 6 362 498 511 414 32 502 
389 7 84 29 472 373 451 134 222 
390 7 342 206 7 337 78 245 466 
391 6 338 368 208 432 132 108 
392 7 151 93 125 36 75 129 269 
393 7 442 66 459 89 449 55 514 
394 6 179 481 68 372 421 298 
395 6 188 200 82 516 132 499 
396 7 317 58 122 355 91 467 296 
397 7 323 365 169 55 99 411 31 
398 7 353 176 346 68 235 519 213 
399 7 217 326 24 219 452 505 430 
400 7 408 17 90 181 95 310 376 
401 7 211 25 213 298 235 105 68 
402 7 120 335 34 130 279 243 21 
403 5 254 328 313 282 88 
404 3 508 282 122 
405 6 243 130 196 366 250 120 
406 6 105 247 336 25 351 329 
407 5 507 123 485 381 324 
408 7 400 17 90 181 265 310 376 
409 7 118 505 379 24 430 411 326 
410 7 276 36 119 190 316 392 296 
411 7 430 365 379 505 118 409 24 
412 6 427 162 224 260 5 140 
413 7 83 47 221 234 238 496 363 
414 5 362 511 388 102 498 
415 6 422 470 255 471 61 173 
416 7 210 352 131 199 70 171 434 
417 4 495 150 295 92 
418 7 158 28 64 2 219 452 230 
419 7 121 204 510 40 493 420 286 
420 7 286 322 6 318 493 510 204 
421 7 481 300 45 500 372 179 394 
422 6 415 255 470 61 324 471 
423 7 439 14 358 465 164 115 81 
424 5 330 205 100 34 335 
425 7 265 310 85 457 503 260 90 
426 7 490 51 375 371 233 12 138 
427 6 412 224 162 5 260 489 
428 6 26 489 136 517 3 162 
429 7 116 32 498 166 20 502 511 
430 7 505 411 379 118 409 24 365 
431 7 321 236 437 80 225 69 152 
432 6 208 108 293 109 239 368 
433 7 488 347 343 354 240 5 446 
434 7 131 112 320 461 146 251 384 
435 7 509 462 97 455 94 117 128 
436 7 172 19 525 11 8 133 345 
437 5 431 321 236 69 271 
438 7 15 285 325 16 272 212 464 
439 7 14 465 358 81 423 222 29 
440 6 124 356 450 468 369 223 
441 7 349 117 189 294 94 60 377 
442 7 393 66 459 55 89 99 449 
443 6 448 228 63 453 76 291 
444 6 155 267 27 6 322 102 
445 7 95 273 231 474 103 377 144 
446 7 240 354 73 488 5 224 347 
447 7 194 159 111 522 4 160 52 
448 5 443 458 453 228 63 
449 7 393 442 66 459 348 55 99 
450 4 356 440 124 154 
451 7 373 65 222 182 472 29 81 
452 7 219 217 399 2 77 326 341 
453 7 291 237 443 126 448 376 101 
454 7 209 496 521 83 238 413 385 
455 7 97 462 128 435 94 509 117 
456 7 163 289 43 13 160 127 33 
457 7 265 85 425 75 90 140 310 
458 4 448 443 460 76 
459 7 66 55 99 442 323 393 397 
460 6 387 287 76 316 63 228 
461 6 320 384 434 131 112 50 
462 7 97 455 435 509 94 128 117 
463 7 340 129 10 281 269 98 501 
464 7 212 272 60 96 16 325 520 
465 7 358 14 81 439 278 222 423 
466 6 245 342 7 390 137 206 
467 3 355 58 317 
468 6 67 234 494 47 248 41 
469 7 294 377 189 101 257 110 95 
470 6 415 471 173 422 504 61 
471 6 173 504 86 319 470 12 
472 7 373 29 451 84 134 65 222 
473 6 195 314 16 285 60 325 
474 7 103 273 144 231 113 445 156 
475 7 48 360 409 64 326 24 118 
476 7 145 46 39 203 367 9 177 
477 6 242 487 18 156 503 359 
478 2 299 7 
479 5 301 167 25 105 406 
480 4 333 49 184 192 
481 6 421 300 372 179 45 500 
482 7 218 21 202 73 240 354 446 
483 6 207 370 250 366 303 74 
484 7 307 259 13 344 43 57 456 
485 3 407 507 122 
486 5 198 251 146 88 112 
487 6 242 477 18 168 156 144 
488 7 433 354 240 347 446 343 5 
489 6 26 428 136 517 3 162 
490 7 51 426 375 138 233 305 157 
491 7 230 270 2 28 104 256 193 
492 7 38 336 143 306 351 406 40 
493 7 204 420 510 166 419 261 121 
494 7 41 468 67 369 248 244 47 
495 6 455 97 462 435 128 509 
496 6 238 209 385 83 454 521 
497 7 78 337 54 274 390 137 206 
498 7 32 502 388 429 511 20 362 
499 7 37 107 518 132 82 62 200 
500 7 45 421 481 300 165 179 372 
501 7 281 313 340 254 88 328 403 
502 7 32 498 20 153 187 388 429 
503 7 310 18 156 359 425 242 477 
504 6 471 86 319 173 12 253 
505 7 430 409 118 379 24 411 326 
506 6 361 280 164 513 147 115 
507 5 407 324 123 485 91 
508 5 404 296 122 282 119 
509 7 435 462 97 455 94 117 110 
510 7 204 419 121 286 420 493 318 
511 7 362 102 414 388 498 429 32 
512 7 44 382 180 360 141 64 48 
513 6 164 263 361 423 506 115 
514 7 288 89 178 393 442 308 66 
515 7 71 283 142 148 264 74 281 
516 6 188 82 249 383 185 200 
517 7 3 26 136 428 489 350 162 
518 7 107 37 62 383 499 368 274 
519 7 176 398 353 165 236 500 69 
520 7 96 183 87 23 464 113 272 
521 6 209 454 496 238 385 83 
522 7 4 111 194 447 159 244 160 
523 3 170 216 100 
524 5 220 49 364 42 70 
525 7 19 436 133 11 172 8 201 
DEPOT_SECTION
   1
   -1
EOF
