NAME :  X-n685-kX-w136-c9.cctp
COMMENT : 	Adapted by Maziero, Usberti and Cavellucci from the Uchoa, Pecin, Pessoa, Poggi, Subramanian, and Vidal (2013)
TYPE :  CCTP
DIMENSION :    551
EDGE_WEIGHT_TYPE : 	EUC_2D	
CAPACITY : 	408
VERTICES_WITHIN_COVERAGE :  9
VERTICES_WITH_DEMAND : 	136
NODE_COORD_SECTION
1 500 500
2 112 700
3 363 779
4 245 896
5 238 19
6 184 351
7 305 763
8 366 814
9 137 857
10 564 31
11 303 157
12 523 830
13 134 231
14 851 445
15 740 311
16 163 95
17 275 499
18 470 814
19 453 217
20 818 525
21 311 911
22 177 374
23 230 4
24 590 302
25 196 103
26 553 879
27 316 446
28 665 375
29 587 609
30 510 95
31 907 455
32 805 956
33 342 345
34 785 309
35 649 584
36 850 24
37 26 126
38 447 817
39 145 527
40 218 825
41 405 151
42 389 436
43 452 619
44 407 367
45 948 514
46 836 996
47 578 334
48 491 929
49 325 696
50 838 842
51 983 788
52 623 549
53 915 72
54 774 336
55 81 238
56 534 537
57 295 406
58 853 358
59 742 581
60 32 964
61 747 352
62 610 799
63 786 853
64 506 168
65 755 957
66 408 67
67 485 734
68 419 256
69 508 155
70 941 589
71 68 42
72 817 595
73 397 274
74 727 302
75 216 237
76 821 320
77 516 531
78 614 163
79 561 920
80 128 834
81 162 534
82 279 644
83 188 329
84 520 301
85 336 782
86 728 230
87 139 848
88 350 154
89 242 162
90 791 925
91 907 497
92 52 593
93 786 457
94 629 745
95 935 439
96 641 78
97 78 835
98 232 226
99 123 479
100 205 840
101 932 357
102 917 917
103 325 559
104 413 373
105 362 477
106 827 881
107 845 263
108 11 938
109 88 535
110 436 200
111 940 319
112 325 59
113 34 264
114 47 470
115 322 89
116 757 29
117 825 289
118 287 304
119 657 82
120 288 406
121 287 623
122 616 828
123 60 445
124 978 511
125 956 171
126 818 184
127 605 464
128 462 934
129 563 229
130 506 33
131 814 68
132 457 26
133 547 983
134 623 49
135 164 326
136 256 410
137 551 8
138 940 421
139 587 947
140 231 470
141 917 773
142 553 355
143 964 782
144 193 135
145 632 320
146 585 987
147 631 844
148 704 809
149 881 194
150 598 542
151 682 37
152 579 317
153 454 676
154 54 971
155 504 747
156 424 367
157 45 177
158 458 390
159 480 741
160 806 752
161 424 65
162 606 280
163 311 237
164 837 594
165 596 957
166 213 118
167 315 173
168 693 538
169 249 497
170 213 878
171 884 558
172 397 475
173 888 399
174 557 197
175 368 270
176 254 421
177 3 697
178 63 432
179 531 811
180 675 657
181 930 645
182 336 439
183 536 219
184 684 432
185 701 543
186 507 829
187 156 483
188 14 568
189 350 781
190 357 207
191 356 501
192 592 613
193 599 58
194 203 387
195 414 285
196 756 280
197 337 957
198 668 18
199 949 898
200 773 165
201 369 303
202 801 597
203 782 190
204 14 583
205 194 98
206 106 109
207 454 45
208 335 464
209 516 730
210 918 58
211 958 984
212 670 508
213 743 477
214 238 669
215 530 678
216 482 11
217 528 853
218 696 404
219 506 702
220 49 895
221 633 782
222 681 633
223 768 575
224 959 76
225 855 313
226 999 440
227 560 58
228 430 401
229 165 27
230 409 50
231 708 176
232 887 99
233 368 21
234 122 330
235 115 722
236 452 297
237 592 406
238 303 284
239 261 751
240 794 809
241 569 561
242 932 133
243 259 874
244 491 948
245 589 818
246 111 973
247 102 759
248 92 873
249 121 799
250 935 711
251 766 638
252 352 905
253 98 147
254 542 425
255 518 201
256 698 252
257 393 751
258 958 155
259 515 267
260 453 759
261 512 720
262 639 940
263 807 88
264 27 543
265 935 133
266 860 400
267 560 922
268 746 237
269 808 146
270 419 421
271 898 206
272 500 650
273 42 529
274 513 915
275 582 155
276 151 700
277 792 436
278 452 748
279 262 200
280 880 549
281 857 677
282 928 229
283 599 351
284 444 301
285 762 972
286 504 609
287 294 651
288 517 798
289 257 162
290 28 367
291 480 944
292 583 268
293 339 933
294 170 87
295 481 226
296 633 172
297 209 321
298 759 813
299 492 115
300 699 276
301 494 177
302 557 821
303 760 939
304 853 444
305 602 517
306 42 343
307 749 800
308 282 613
309 225 766
310 444 199
311 503 69
312 379 107
313 884 863
314 440 849
315 143 882
316 237 146
317 424 765
318 664 891
319 154 338
320 524 941
321 963 505
322 130 180
323 188 880
324 96 258
325 837 987
326 822 285
327 184 529
328 825 387
329 854 308
330 345 503
331 128 660
332 825 977
333 811 299
334 288 488
335 512 612
336 340 895
337 751 32
338 190 391
339 856 988
340 878 929
341 936 255
342 228 916
343 586 852
344 797 290
345 813 941
346 138 787
347 264 482
348 786 959
349 156 554
350 381 778
351 315 370
352 261 635
353 839 874
354 903 37
355 863 385
356 169 450
357 241 911
358 185 809
359 295 900
360 277 404
361 262 911
362 249 921
363 252 887
364 847 375
365 837 937
366 308 645
367 946 162
368 820 95
369 395 485
370 741 220
371 721 248
372 810 241
373 278 420
374 937 191
375 845 993
376 827 859
377 361 517
378 263 616
379 675 855
380 823 980
381 840 868
382 124 627
383 306 690
384 700 251
385 188 772
386 64 633
387 723 320
388 747 321
389 240 382
390 811 977
391 772 392
392 483 560
393 788 903
394 263 601
395 807 47
396 287 642
397 188 843
398 803 661
399 442 876
400 68 1000
401 824 38
402 332 592
403 245 799
404 413 463
405 387 439
406 740 294
407 278 634
408 342 556
409 266 662
410 729 35
411 620 52
412 316 598
413 634 209
414 311 662
415 844 135
416 374 838
417 295 539
418 415 801
419 670 38
420 697 421
421 869 423
422 986 838
423 835 34
424 764 176
425 262 908
426 775 275
427 266 522
428 703 239
429 591 199
430 814 34
431 797 997
432 860 167
433 733 971
434 314 547
435 167 491
436 184 887
437 960 984
438 762 878
439 664 132
440 671 69
441 689 296
442 829 220
443 280 739
444 87 600
445 822 1000
446 779 40
447 734 329
448 70 952
449 845 210
450 710 202
451 835 735
452 961 844
453 801 980
454 315 467
455 499 911
456 291 915
457 643 190
458 41 868
459 802 69
460 593 339
461 653 82
462 138 580
463 300 641
464 427 451
465 860 376
466 734 50
467 788 276
468 294 897
469 103 513
470 771 328
471 754 25
472 943 828
473 268 242
474 211 414
475 833 937
476 844 92
477 465 621
478 700 879
479 725 297
480 340 536
481 183 524
482 918 954
483 518 488
484 182 831
485 424 586
486 445 943
487 787 940
488 779 24
489 437 355
490 530 783
491 445 763
492 288 920
493 288 497
494 509 815
495 182 265
496 803 160
497 246 405
498 306 521
499 124 883
500 244 637
501 296 879
502 318 880
503 789 89
504 407 239
505 468 291
506 290 615
507 254 877
508 347 563
509 802 826
510 325 620
511 835 304
512 467 574
513 333 669
514 784 209
515 327 923
516 99 484
517 270 602
518 331 793
519 756 28
520 336 448
521 323 834
522 585 724
523 804 283
524 604 298
525 685 972
526 304 652
527 264 508
528 336 899
529 256 885
530 128 449
531 674 90
532 312 500
533 298 554
534 631 790
535 183 877
536 820 968
537 488 589
538 768 176
539 880 307
540 327 842
541 482 587
542 220 822
543 335 579
544 284 735
545 281 701
546 74 628
547 286 610
548 848 166
549 349 734
550 130 755
551 792 823
DEMAND_SECTION
2 8
3 25
4 36
5 83
6 63
7 3
8 15
9 47
10 21
11 54
12 87
13 94
14 22
15 31
16 78
17 71
18 32
19 60
20 87
21 31
22 53
23 76
24 23
25 93
26 56
27 72
28 44
29 92
30 23
31 48
32 87
33 70
34 27
35 72
36 9
37 64
38 6
39 40
40 19
41 68
42 52
43 41
44 57
45 94
46 73
47 10
48 6
49 31
50 87
51 70
52 71
53 32
54 3
55 94
56 67
57 98
58 3
59 97
60 31
61 25
62 94
63 87
64 9
65 66
66 56
67 13
68 65
69 1
70 93
71 56
72 92
73 64
74 10
75 83
76 43
77 64
78 14
79 81
80 27
81 46
82 1
83 96
84 19
85 7
86 17
87 26
88 71
89 56
90 51
91 43
92 50
93 49
94 64
95 1
96 14
97 42
98 97
99 97
100 22
101 1
102 61
103 30
104 77
105 61
106 62
107 33
108 24
109 5
110 87
111 1
112 91
113 76
114 55
115 62
116 5
117 5
118 96
119 48
120 73
121 46
122 59
123 82
124 69
125 14
126 7
127 7
128 44
129 5
130 1
131 37
132 98
133 52
134 11
135 58
136 72
137 4
COVERAGE_SECTION
2 7 235 276 331 550 247 382 546 
3 9 189 350 85 8 518 257 549 418 7 
4 9 363 357 529 425 507 361 362 243 342 
5 9 23 229 205 25 112 294 166 16 115 
6 9 83 22 135 319 297 338 194 389 234 
7 9 443 544 85 518 239 189 549 3 545 
8 9 416 3 189 350 518 85 521 540 418 
9 9 87 80 315 499 248 535 484 397 323 
10 9 137 227 193 130 411 134 311 30 216 
11 9 167 289 88 279 89 316 115 190 163 
12 9 186 179 494 217 288 302 490 18 26 
13 9 324 322 55 495 75 253 98 135 234 
14 9 304 421 266 31 173 277 355 328 93 
15 9 388 74 406 387 447 479 196 470 54 
16 9 294 205 25 144 166 206 229 253 316 
17 9 493 527 334 347 427 169 532 498 417 
18 9 38 494 186 314 288 12 418 491 260 
19 9 310 110 295 504 68 301 255 64 505 
20 9 280 72 223 164 171 202 93 14 304 
21 9 359 456 515 468 492 528 502 336 501 
22 8 338 6 194 319 83 135 474 297 
23 9 5 229 205 294 25 112 16 166 115 
24 9 524 152 162 47 292 460 145 283 142 
25 9 205 166 294 144 16 316 89 229 289 
26 9 217 79 343 267 274 12 302 455 186 
27 9 520 182 454 208 57 373 120 334 532 
28 9 218 420 184 145 283 237 387 460 441 
29 9 192 241 35 150 52 335 286 56 215 
30 9 299 311 69 130 227 64 207 10 301 
31 9 95 91 138 421 304 14 173 45 266 
32 8 345 348 536 390 453 487 332 380 
33 9 351 201 44 118 238 104 57 175 120 
34 7 344 470 333 54 523 467 426 
35 9 52 222 168 192 150 185 29 180 212 
36 9 423 401 430 395 354 131 459 476 488 
37 9 157 253 206 71 322 55 113 16 294 
38 9 18 314 418 491 317 260 399 186 494 
39 9 81 349 481 327 435 469 187 99 462 
40 9 542 100 397 484 358 403 170 309 385 
41 9 312 88 110 310 190 19 66 161 504 
42 9 405 270 404 172 464 105 369 182 228 
43 6 477 485 541 512 537 286 
44 9 104 156 489 228 270 158 33 42 201 
45 9 321 124 91 31 70 95 280 171 226 
46 8 325 375 445 380 332 339 390 536 
47 9 460 152 283 142 24 524 145 162 292 
48 9 244 291 455 274 128 320 486 267 79 
49 9 383 513 414 545 549 526 366 287 544 
50 9 376 381 353 509 106 551 313 63 240 
51 9 143 422 472 452 141 250 199 313 102 
52 9 150 305 35 241 212 29 168 192 185 
53 9 210 354 232 224 242 265 476 36 423 
54 9 470 34 61 388 447 15 76 344 333 
55 9 324 13 113 157 322 253 234 495 306 
56 9 77 241 483 392 150 537 305 541 512 
57 9 120 360 373 136 351 176 27 497 182 
58 9 364 465 355 328 266 225 76 329 173 
59 9 223 185 202 251 168 72 222 35 20 
60 9 154 108 448 400 220 246 458 248 499 
61 9 447 54 388 470 387 15 391 74 34 
62 9 534 245 221 122 147 94 302 343 522 
63 9 509 551 438 376 240 298 106 393 50 
64 9 69 301 255 299 174 183 295 310 19 
65 9 285 303 433 348 487 90 32 453 431 
66 9 161 230 312 207 233 132 112 41 115 
67 9 159 155 261 209 278 219 260 491 153 
68 9 504 73 195 284 19 175 236 110 505 
69 9 64 301 299 255 30 174 183 275 295 
70 9 181 171 280 45 124 321 91 164 250 
71 9 206 37 229 16 253 294 157 205 25 
72 9 202 164 223 251 398 20 59 171 280 
73 9 195 68 175 504 201 284 236 505 190 
74 9 479 406 15 387 388 447 196 300 441 
75 9 98 495 473 279 89 13 297 289 316 
76 9 511 333 117 225 326 329 34 344 523 
77 8 56 483 392 241 537 512 541 286 
78 8 296 275 457 429 413 439 174 129 
79 9 267 139 26 320 274 165 455 133 48 
80 9 87 9 249 346 499 97 315 248 484 
81 7 39 349 327 481 435 187 462 
82 9 396 407 287 352 463 121 409 526 366 
83 9 6 297 135 319 22 194 338 495 234 
84 9 259 505 152 142 47 236 24 292 284 
85 9 518 189 3 7 8 350 549 521 540 
86 7 370 268 371 428 450 384 256 
87 9 9 80 315 499 484 397 249 248 535 
88 9 167 11 190 41 312 115 163 289 110 
89 9 289 316 279 166 144 11 98 167 25 
90 9 487 393 345 32 303 348 475 65 365 
91 9 31 45 321 280 95 171 124 14 304 
92 9 444 204 546 386 188 264 273 109 382 
93 9 277 213 14 391 304 20 328 421 266 
94 9 221 534 522 62 245 122 147 148 180 
95 9 138 31 173 91 226 421 321 45 101 
96 9 461 119 440 411 134 531 193 419 151 
97 9 248 80 458 249 87 9 499 220 346 
98 9 75 473 279 495 89 289 163 316 238 
99 8 516 530 187 469 435 39 356 109 
100 9 397 40 542 484 358 170 323 535 436 
101 9 111 173 138 539 355 465 58 95 266 
102 3 199 482 340 
103 8 434 408 508 543 480 533 402 417 
104 9 44 156 489 228 158 270 42 405 33 
105 9 191 208 330 369 172 520 377 405 182 
106 8 353 381 376 50 393 63 475 90 
107 9 326 117 372 511 329 442 523 333 225 
108 9 60 154 220 448 458 400 248 246 97 
109 9 469 273 516 39 264 444 99 462 92 
110 9 310 19 504 295 41 68 301 64 190 
111 9 101 539 341 225 329 282 58 173 465 
112 9 115 233 312 66 230 5 88 161 11 
113 9 55 324 306 157 290 13 234 322 253 
114 9 123 178 516 273 469 264 99 109 530 
115 9 112 312 11 88 233 167 66 230 289 
116 7 519 471 337 488 446 410 466 
117 8 326 333 511 523 344 76 107 329 
118 9 238 473 33 163 351 297 201 175 389 
119 8 461 96 440 531 419 134 411 439 
120 9 57 360 373 136 176 497 351 27 389 
121 9 506 308 547 407 396 82 463 378 517 
122 9 147 245 62 343 534 221 302 379 318 
123 9 178 114 516 530 99 469 290 273 109 
124 9 321 45 91 226 95 70 31 138 171 
125 9 367 258 374 265 242 282 271 149 341 
126 9 496 548 203 449 442 269 514 432 200 
127 9 305 237 254 150 212 184 52 483 56 
128 9 486 291 48 244 455 274 399 320 314 
129 8 183 174 429 292 255 259 162 413 
130 9 216 311 132 137 207 10 227 30 299 
131 7 459 263 395 368 401 503 430 
132 9 207 216 130 161 230 311 66 30 233 
133 9 146 320 139 165 267 79 244 274 48 
134 9 411 193 96 461 119 419 440 198 151 
135 9 319 83 6 234 297 22 495 338 194 
136 9 176 497 360 373 120 389 57 474 194 
137 9 10 130 227 193 216 311 411 134 30 
138 9 95 31 173 226 101 421 91 266 355 
139 9 165 79 267 146 262 133 320 26 274 
140 6 169 347 527 17 176 474 
141 9 143 472 250 51 452 451 422 313 50 
142 9 47 460 152 283 84 237 24 254 524 
143 9 51 141 472 422 452 250 313 199 451 
144 9 166 25 205 316 16 294 89 289 322 
145 9 524 460 283 24 162 152 47 441 28 
146 9 165 133 139 267 79 262 320 525 244 
147 9 122 379 343 245 62 534 318 221 302 
148 9 307 379 298 478 534 221 147 551 122 
149 9 271 432 449 548 374 442 282 126 415 
150 9 305 52 241 56 35 29 192 127 212 
151 6 419 198 440 410 119 461 
152 9 47 24 460 524 283 142 162 292 145 
153 7 272 477 43 219 67 159 278 
154 9 60 448 400 108 246 220 458 248 499 
155 9 209 67 159 261 490 219 260 278 288 
156 9 104 44 489 228 158 270 284 236 42 
157 9 37 253 55 322 113 206 324 13 71 
158 9 228 156 489 104 270 44 464 42 404 
159 9 67 155 278 260 209 261 491 219 317 
160 9 451 240 551 509 307 298 281 398 50 
161 9 66 230 207 132 312 233 216 311 299 
162 7 524 292 24 152 145 460 47 
163 9 473 238 190 279 167 175 118 11 98 
164 9 72 202 171 280 20 223 398 251 281 
165 9 139 146 262 267 79 133 320 26 525 
166 9 25 144 205 316 89 294 16 289 279 
167 9 11 88 190 279 289 163 89 316 473 
168 9 185 212 35 59 52 213 223 305 150 
169 7 527 347 17 427 140 493 334 
170 8 323 436 535 4 100 363 342 507 
171 9 280 164 70 91 20 72 45 202 321 
172 6 369 404 105 405 464 42 
173 9 266 355 421 465 364 58 138 304 14 
174 9 183 129 429 255 275 64 69 78 301 
175 9 73 201 195 504 68 190 163 238 33 
176 9 136 497 373 360 120 389 57 474 140 
177 9 386 546 2 92 204 235 247 444 188 
178 9 123 114 516 530 290 99 469 306 273 
179 9 288 12 494 302 490 186 217 245 18 
180 9 222 35 251 192 94 29 59 522 185 
181 9 70 250 281 171 164 280 72 398 141 
182 9 520 27 208 454 105 405 42 57 120 
183 9 255 129 174 259 295 64 301 429 292 
184 9 420 218 28 213 212 127 237 391 61 
185 9 168 212 59 35 223 52 213 222 305 
186 9 494 12 179 217 288 18 302 490 38 
187 6 435 99 356 530 39 481 
188 9 204 264 92 273 444 109 386 546 114 
189 9 3 85 518 350 8 549 7 257 521 
190 9 88 167 163 504 175 11 41 73 68 
191 6 330 377 105 480 369 208 
192 9 29 241 35 52 150 335 286 215 222 
193 9 411 134 227 10 96 461 119 137 440 
194 8 338 474 22 389 6 497 136 83 
195 9 73 68 284 236 504 175 201 505 489 
196 6 426 406 467 15 479 74 
197 4 293 515 21 252 
198 6 419 151 440 134 411 410 
199 7 102 452 482 422 472 313 340 
200 7 538 424 203 496 269 514 126 
201 9 175 73 195 33 68 238 44 504 284 
202 9 72 164 223 251 59 398 20 171 280 
203 8 514 538 424 200 126 496 269 370 
204 9 188 92 264 273 386 444 546 109 469 
205 9 25 294 166 16 144 316 229 89 206 
206 9 253 16 294 322 71 37 205 25 144 
207 9 132 161 216 230 66 130 311 30 299 
208 9 520 454 182 27 105 330 191 532 334 
209 9 261 155 219 67 159 215 490 278 288 
210 9 53 354 224 232 36 242 265 476 423 
211 3 437 482 102 
212 9 168 185 52 305 184 127 35 213 150 
213 9 93 277 420 184 185 168 212 218 20 
214 4 409 500 352 82 
215 9 219 272 261 209 335 67 522 155 286 
216 9 132 130 207 311 137 161 230 10 30 
217 9 12 186 26 179 494 302 288 343 274 
218 9 420 184 28 61 391 447 213 387 388 
219 9 261 209 215 67 155 159 272 153 278 
220 9 458 248 108 448 97 60 154 499 315 
221 9 534 62 94 122 245 147 522 148 343 
222 9 180 35 59 251 192 185 168 29 52 
223 9 59 202 72 251 20 164 185 168 398 
224 9 53 210 265 242 354 232 258 367 125 
225 9 329 511 539 76 117 326 58 333 107 
226 9 138 95 124 321 45 31 101 91 173 
227 9 10 193 137 311 130 411 30 134 96 
228 9 270 158 104 156 44 489 464 42 405 
229 9 294 16 23 5 205 25 71 206 166 
230 9 66 161 207 233 132 312 216 112 115 
231 7 450 370 424 86 538 439 428 
232 9 53 476 210 242 415 265 354 368 432 
233 9 230 112 66 161 115 312 132 207 216 
234 9 319 135 6 83 22 324 306 297 495 
235 7 2 550 247 276 331 346 249 
236 9 284 505 195 68 73 489 84 259 504 
237 9 254 283 127 142 460 47 28 152 145 
238 9 118 163 473 175 201 33 351 98 279 
239 6 443 544 309 7 403 545 
240 9 551 509 298 63 307 50 160 376 381 
241 9 150 56 29 52 305 192 77 335 286 
242 9 265 367 258 125 232 374 53 224 210 
243 8 507 529 363 4 425 361 501 357 
244 9 291 48 128 320 455 274 486 133 267 
245 9 62 122 302 343 147 534 221 179 12 
246 6 448 400 154 60 499 315 
247 8 550 235 249 346 2 276 80 97 
248 9 499 97 9 220 458 315 80 87 249 
249 9 346 80 247 550 87 97 9 358 484 
250 9 141 181 143 281 51 451 472 70 160 
251 9 398 202 59 223 72 164 222 180 281 
252 5 336 528 293 515 21 
253 9 206 322 157 37 16 13 55 294 144 
254 9 237 483 142 127 158 283 47 460 77 
255 9 183 301 64 174 295 69 129 259 19 
256 5 384 428 371 300 86 
257 9 350 317 3 549 189 491 418 278 260 
258 9 367 125 265 242 374 224 271 282 149 
259 9 84 183 295 505 129 255 292 236 284 
260 9 491 278 317 159 67 155 418 18 38 
261 9 209 219 155 67 159 215 278 490 260 
262 9 165 139 318 525 146 79 267 478 379 
263 6 368 503 459 131 476 395 
264 9 273 188 204 92 109 114 469 444 516 
265 9 242 367 258 125 374 232 224 53 210 
266 9 355 465 421 173 364 328 58 304 14 
267 9 79 139 320 26 274 165 133 455 48 
268 6 370 86 371 428 196 514 
269 9 496 415 126 200 548 538 203 368 424 
270 9 228 464 42 405 404 104 158 156 44 
271 9 149 282 374 449 432 341 548 367 125 
272 9 335 215 286 477 219 153 43 537 541 
273 9 264 109 188 114 204 469 92 516 444 
274 9 455 48 320 244 291 79 267 26 128 
275 9 78 429 174 296 457 69 413 129 64 
276 5 2 235 331 550 247 
277 9 93 391 328 14 304 213 266 421 364 
278 9 260 491 159 317 67 155 257 418 209 
279 9 289 98 473 89 11 75 167 316 163 
280 9 171 91 164 20 70 45 72 202 321 
281 9 398 451 181 164 250 72 160 202 251 
282 9 341 271 374 149 125 367 258 449 107 
283 9 460 47 152 145 142 24 524 237 28 
284 9 236 505 195 68 73 489 156 504 201 
285 9 65 348 433 303 453 487 431 32 390 
286 9 335 537 541 272 477 512 43 392 215 
287 9 526 396 463 366 82 414 407 121 409 
288 9 179 494 490 12 186 302 18 155 217 
289 9 89 316 279 11 167 166 98 144 473 
290 9 306 178 123 234 113 114 324 319 530 
291 9 244 48 128 486 455 274 320 133 399 
292 8 162 24 524 129 152 47 183 259 
293 5 515 197 252 528 21 
294 9 16 205 25 144 166 229 206 316 253 
295 9 19 255 310 301 110 259 183 64 505 
296 8 78 457 413 429 439 275 231 174 
297 9 83 6 135 319 22 495 194 389 338 
298 9 307 551 240 509 63 148 438 160 376 
299 9 30 69 311 64 301 207 130 161 227 
300 7 441 256 384 479 371 428 74 
301 9 64 69 255 295 310 19 183 110 299 
302 9 179 245 12 343 217 288 490 494 186 
303 9 65 487 285 348 90 433 393 32 345 
304 9 14 421 266 31 173 355 277 328 93 
305 9 150 52 127 241 212 56 35 77 483 
306 9 290 113 234 178 324 123 55 319 135 
307 9 298 148 240 551 509 63 160 438 379 
308 9 547 506 121 517 378 407 394 396 352 
309 6 385 239 403 542 40 358 
310 9 110 19 295 504 301 41 68 64 255 
311 9 30 130 299 207 227 216 132 10 137 
312 9 66 41 88 115 161 230 112 233 11 
313 8 381 353 50 376 106 102 340 472 
314 9 399 38 18 418 416 186 494 8 12 
315 8 499 9 87 535 436 323 80 248 
316 9 89 289 166 144 25 279 205 11 98 
317 9 491 260 278 257 418 350 38 159 3 
318 9 379 478 262 147 122 525 343 148 139 
319 9 135 6 234 83 22 297 338 194 495 
320 9 274 244 48 455 267 79 291 133 128 
321 9 124 45 91 95 226 31 70 138 280 
322 9 253 13 206 55 144 157 324 16 495 
323 6 535 436 170 397 100 315 
324 9 55 13 113 234 322 495 135 157 319 
325 8 46 375 332 380 339 445 536 390 
326 8 117 333 523 511 344 107 76 467 
327 6 481 81 349 39 435 187 
328 9 364 266 465 355 58 391 421 277 14 
329 9 225 511 539 76 117 326 333 107 58 
330 6 191 377 105 480 532 208 
331 7 382 2 276 235 546 386 444 
332 8 380 536 390 325 46 445 453 375 
333 8 117 344 523 326 76 511 34 467 
334 9 493 17 347 532 527 454 498 169 427 
335 9 286 537 541 272 477 512 43 392 215 
336 5 528 252 502 515 21 
337 7 519 116 471 410 466 446 488 
338 7 194 22 474 6 389 497 83 
339 5 375 325 46 332 380 
340 2 102 365 
341 9 282 271 111 374 539 149 125 107 367 
342 5 357 362 4 361 425 
343 9 245 122 302 26 147 62 217 12 179 
344 7 523 333 467 34 326 426 117 
345 8 32 475 365 487 90 536 348 390 
346 8 249 550 247 80 358 385 87 484 
347 9 17 169 334 527 493 140 427 532 454 
348 9 32 487 453 285 65 390 345 303 90 
349 5 81 39 462 327 481 
350 9 3 257 189 8 418 85 317 518 549 
351 9 33 57 120 360 373 136 118 182 27 
352 8 407 500 378 82 396 409 121 308 
353 8 381 106 376 50 313 63 393 509 
354 9 210 53 36 232 224 423 401 476 430 
355 9 465 266 364 58 173 328 421 304 14 
356 5 187 435 530 99 474 
357 6 362 342 4 361 425 363 
358 9 484 397 40 100 385 542 346 309 87 
359 8 468 456 21 492 501 502 425 361 
360 9 120 373 57 136 176 497 389 351 27 
361 7 425 362 357 4 363 529 492 
362 5 357 361 425 342 4 
363 8 529 507 4 243 425 357 361 362 
364 9 465 58 355 328 266 173 421 76 225 
365 5 475 345 536 32 332 
366 8 526 463 287 414 396 82 121 510 
367 9 125 258 374 265 242 271 282 149 232 
368 7 263 476 131 459 503 415 395 
369 4 172 404 105 191 
370 7 86 268 371 450 428 514 424 
371 7 86 428 384 256 268 370 300 
372 5 442 107 467 514 523 
373 9 360 120 57 136 176 497 27 389 454 
374 9 125 367 282 258 271 149 242 265 341 
375 7 46 325 339 445 332 380 536 
376 9 381 353 50 106 63 509 551 313 393 
377 4 191 330 480 105 
378 8 394 517 308 352 407 547 121 506 
379 9 478 318 147 148 122 534 221 62 343 
380 8 332 390 536 325 445 46 453 375 
381 8 353 376 106 50 313 63 509 393 
382 6 331 444 462 546 386 2 
383 9 49 545 414 513 526 287 366 409 463 
384 5 256 428 371 300 86 
385 7 309 358 346 484 542 550 40 
386 8 546 444 92 382 331 204 2 188 
387 9 447 74 15 479 388 406 61 441 470 
388 9 15 447 387 470 74 406 54 61 479 
389 9 497 136 194 176 360 474 338 120 373 
390 9 453 380 536 332 32 431 445 325 46 
391 9 61 277 328 54 470 93 447 388 218 
392 7 512 541 537 77 286 56 335 
393 9 90 438 487 106 345 303 63 32 348 
394 6 517 378 308 547 506 121 
395 8 430 401 131 459 446 423 488 263 
396 9 82 287 407 463 121 526 366 352 506 
397 9 484 100 358 535 40 323 542 170 436 
398 9 251 281 202 72 164 451 160 223 59 
399 9 314 38 128 455 486 18 48 291 416 
400 8 154 448 60 246 108 220 248 499 
401 8 430 423 395 36 131 459 446 488 
402 6 543 412 510 508 103 408 
403 7 542 40 309 239 100 358 385 
404 6 464 172 369 405 42 270 
405 9 42 404 172 270 464 105 369 182 520 
406 8 74 479 15 196 388 387 447 426 
407 9 82 396 121 352 308 506 287 378 463 
408 5 508 103 480 543 434 
409 9 82 352 214 396 287 407 500 526 463 
410 5 466 337 471 519 116 
411 9 134 193 96 461 119 419 440 198 10 
412 8 402 510 543 506 547 308 121 103 
413 5 457 296 429 78 129 
414 8 526 366 287 513 463 383 396 49 
415 9 548 432 269 476 368 496 126 232 263 
416 7 8 540 521 418 3 350 189 
417 7 533 434 498 427 103 493 532 
418 9 38 317 350 491 8 314 257 416 3 
419 7 151 198 440 119 461 134 96 
420 9 184 218 28 213 391 61 212 93 277 
421 9 266 304 14 173 355 465 31 364 328 
422 9 452 472 51 143 199 141 102 313 482 
423 8 401 36 430 395 131 459 446 488 
424 8 538 200 203 514 496 370 269 126 
425 7 361 362 4 357 363 529 492 
426 5 467 196 344 523 34 
427 8 527 17 169 493 417 334 347 498 
428 7 384 256 371 86 300 450 370 
429 8 174 129 78 413 275 296 457 183 
430 8 401 395 423 131 446 488 36 459 
431 9 453 390 445 380 332 536 46 348 325 
432 9 548 149 415 126 449 271 269 496 442 
433 9 65 285 303 525 348 487 431 453 32 
434 8 103 533 417 498 480 408 508 543 
435 7 187 481 356 39 327 81 99 
436 6 323 535 170 315 397 100 
437 3 211 482 102 
438 9 63 393 90 303 478 551 106 298 509 
439 6 531 119 296 461 78 96 
440 6 119 531 461 96 419 151 
441 6 300 479 74 387 256 384 
442 8 449 372 126 107 514 203 548 149 
443 7 544 239 7 545 383 309 49 
444 8 546 92 386 382 462 109 331 204 
445 9 46 325 380 332 375 390 431 453 536 
446 6 488 116 519 337 395 471 
447 9 387 388 15 61 74 479 406 470 54 
448 9 154 60 246 400 108 220 248 499 458 
449 9 442 126 149 548 432 372 107 271 514 
450 8 231 86 370 428 371 268 384 256 
451 9 160 281 398 240 141 509 551 250 50 
452 9 472 422 199 51 143 313 141 102 482 
453 9 390 431 380 536 32 332 348 445 325 
454 9 208 27 520 532 334 182 493 330 105 
455 9 274 48 244 291 320 128 267 26 79 
456 8 492 359 468 21 361 425 501 515 
457 6 296 413 78 429 439 231 
458 9 220 97 248 108 499 448 80 60 9 
459 5 131 263 395 503 368 
460 9 283 47 152 24 524 142 145 162 237 
461 9 119 96 440 531 134 411 419 439 151 
462 5 349 382 81 39 444 
463 9 366 287 526 396 82 121 407 414 506 
464 7 404 270 172 42 405 369 228 
465 9 355 364 58 266 173 328 421 225 76 
466 3 410 337 116 
467 5 426 344 523 196 34 
468 8 359 456 501 21 492 502 425 361 
469 9 109 516 99 39 187 81 273 349 435 
470 9 54 34 388 61 15 447 344 406 333 
471 7 519 116 337 488 410 446 466 
472 9 452 422 143 51 141 313 199 102 50 
473 9 98 279 163 75 238 118 289 167 89 
474 6 194 338 497 389 176 136 
475 5 365 345 32 536 332 
476 9 368 263 131 415 232 459 503 395 401 
477 9 43 541 537 286 272 512 335 485 153 
478 9 379 318 438 148 147 303 262 298 63 
479 9 74 406 15 387 300 388 447 196 441 
480 6 408 103 377 434 508 330 
481 6 327 81 435 39 349 187 
482 2 102 340 
483 7 77 56 254 392 241 305 127 
484 9 397 358 100 40 542 87 535 323 9 
485 2 43 512 
486 8 128 291 244 48 455 399 274 320 
487 9 90 348 32 345 303 65 393 285 453 
488 7 446 116 519 471 337 395 430 
489 9 156 104 44 158 228 284 236 270 505 
490 9 288 179 494 155 302 12 186 209 159 
491 9 260 278 317 159 418 67 257 38 18 
492 6 456 359 468 21 361 425 
493 8 334 17 532 527 347 498 427 169 
494 9 186 288 12 179 490 18 217 302 38 
495 9 75 13 297 98 83 135 319 6 324 
496 9 269 126 200 203 538 424 548 415 514 
497 9 136 176 389 360 373 474 120 194 57 
498 8 417 532 434 493 533 480 17 334 
499 9 315 9 248 87 80 535 436 323 97 
500 6 352 378 214 409 407 82 
501 7 468 359 502 21 456 243 529 
502 6 501 528 336 468 359 21 
503 4 263 459 368 131 
504 9 68 73 195 110 175 19 310 190 284 
505 9 236 284 84 259 195 68 295 489 73 
506 9 547 308 121 407 517 378 396 463 394 
507 8 243 529 363 4 425 361 357 170 
508 5 408 543 103 480 402 
509 9 551 240 63 50 376 298 381 307 106 
510 6 412 402 366 463 506 121 
511 9 117 329 76 225 326 333 523 344 107 
512 8 541 392 537 485 43 477 286 335 
513 7 414 49 383 526 366 287 463 
514 8 203 538 424 372 126 370 200 442 
515 6 293 21 528 252 336 197 
516 9 99 469 530 109 114 123 187 39 178 
517 7 394 308 378 547 506 121 407 
518 9 85 189 3 7 8 521 540 350 416 
519 7 116 471 337 488 446 410 466 
520 9 182 208 27 454 105 405 42 330 191 
521 4 540 518 502 8 
522 9 94 209 215 261 221 62 534 490 219 
523 7 344 333 467 326 117 426 34 
524 8 24 162 152 145 292 460 47 283 
525 9 433 262 65 285 303 318 165 478 139 
526 8 366 287 414 463 396 82 407 121 
527 8 17 427 169 347 493 334 417 498 
528 6 336 252 502 515 21 293 
529 8 363 507 243 4 425 361 357 362 
530 7 99 356 187 516 435 178 123 
531 5 119 440 461 96 439 
532 8 498 493 334 330 454 17 208 417 
533 7 417 434 103 498 408 427 543 
534 9 221 62 122 94 245 147 148 343 379 
535 7 323 436 170 397 315 100 484 
536 8 332 380 390 32 453 325 345 46 
537 8 541 286 512 392 335 477 43 272 
538 8 424 200 203 514 496 269 126 370 
539 9 225 329 511 107 58 117 76 111 326 
540 4 521 502 416 8 
541 8 537 512 392 286 477 335 43 485 
542 9 40 100 403 358 397 484 170 309 385 
543 6 402 508 103 408 412 434 
544 7 443 239 545 7 383 49 549 
545 8 383 544 443 409 49 414 287 214 
546 8 386 444 92 382 331 204 462 2 
547 9 308 506 121 517 378 394 407 396 412 
548 9 432 415 126 149 449 269 496 442 271 
549 9 49 3 189 257 85 7 350 383 518 
550 8 247 346 235 249 2 276 385 358 
551 9 509 240 63 298 307 50 376 438 381 
DEPOT_SECTION
   1
   -1
EOF
