NAME :  X-n641-kX-w256-c11.cctp
COMMENT : 	Adapted by Maziero, Usberti and Cavellucci from the Uchoa, Pecin, Pessoa, Poggi, Subramanian, and Vidal (2013)
TYPE :  CCTP
DIMENSION :    612
EDGE_WEIGHT_TYPE : 	EUC_2D	
CAPACITY : 	1381
VERTICES_WITHIN_COVERAGE :  11
VERTICES_WITH_DEMAND : 	256
NODE_COORD_SECTION
1 0 0
2 80 386
3 521 652
4 597 936
5 836 69
6 503 987
7 618 169
8 115 662
9 312 175
10 78 83
11 364 317
12 12 454
13 980 537
14 403 383
15 144 443
16 739 464
17 886 511
18 904 106
19 794 539
20 821 608
21 781 347
22 336 490
23 101 736
24 365 68
25 618 684
26 282 286
27 311 806
28 557 793
29 54 50
30 651 264
31 619 661
32 156 994
33 950 369
34 183 707
35 673 856
36 5 651
37 867 449
38 946 914
39 75 82
40 522 8
41 573 493
42 833 699
43 881 677
44 201 77
45 536 593
46 67 895
47 99 113
48 120 133
49 428 231
50 701 845
51 190 508
52 431 218
53 626 782
54 113 914
55 569 117
56 865 639
57 708 9
58 511 977
59 104 838
60 229 467
61 956 568
62 431 929
63 615 707
64 913 42
65 854 504
66 236 176
67 377 404
68 380 468
69 590 752
70 620 146
71 616 746
72 675 114
73 556 640
74 99 777
75 12 194
76 920 116
77 846 384
78 525 23
79 199 348
80 813 875
81 757 593
82 573 358
83 264 448
84 132 556
85 289 765
86 246 267
87 245 876
88 235 592
89 648 790
90 378 754
91 636 653
92 555 181
93 738 446
94 130 836
95 882 942
96 102 787
97 669 905
98 490 45
99 883 547
100 971 638
101 256 227
102 775 935
103 489 411
104 826 228
105 514 866
106 129 566
107 7 118
108 415 820
109 161 160
110 27 21
111 695 395
112 64 937
113 121 847
114 770 896
115 264 607
116 174 871
117 20 546
118 986 803
119 379 259
120 728 180
121 686 273
122 133 869
123 157 499
124 784 186
125 649 934
126 999 236
127 670 615
128 978 479
129 646 823
130 193 565
131 440 534
132 26 411
133 114 126
134 661 528
135 946 326
136 223 602
137 695 420
138 172 317
139 116 701
140 940 438
141 732 172
142 824 136
143 837 507
144 125 570
145 773 241
146 542 708
147 441 235
148 808 413
149 68 374
150 582 768
151 220 519
152 593 651
153 71 712
154 26 569
155 918 629
156 165 731
157 941 282
158 285 379
159 227 977
160 788 366
161 33 507
162 597 983
163 299 617
164 799 35
165 414 697
166 529 178
167 235 743
168 118 484
169 349 554
170 477 280
171 591 189
172 743 221
173 807 670
174 163 621
175 874 932
176 245 24
177 960 27
178 139 44
179 45 584
180 281 434
181 684 501
182 284 414
183 20 905
184 80 256
185 57 354
186 306 107
187 167 289
188 952 66
189 862 741
190 240 516
191 806 277
192 782 700
193 82 208
194 951 550
195 710 44
196 537 764
197 407 191
198 629 133
199 608 911
200 760 125
201 727 517
202 295 706
203 679 836
204 73 420
205 637 903
206 297 723
207 55 920
208 676 550
209 933 456
210 812 155
211 326 903
212 846 181
213 116 175
214 344 992
215 28 667
216 439 245
217 891 450
218 224 732
219 156 734
220 390 441
221 663 560
222 115 896
223 655 766
224 210 731
225 42 176
226 505 517
227 923 66
228 490 844
229 342 859
230 210 644
231 313 79
232 399 775
233 79 559
234 876 843
235 631 889
236 182 284
237 471 120
238 475 693
239 634 721
240 666 397
241 943 776
242 810 290
243 533 441
244 752 907
245 617 648
246 9 749
247 494 54
248 921 869
249 824 250
250 30 694
251 134 209
252 732 105
253 594 990
254 159 769
255 23 693
256 323 707
257 163 660
258 509 133
259 187 933
260 910 526
261 470 949
262 522 961
263 602 499
264 285 683
265 655 931
266 469 942
267 697 600
268 320 62
269 561 574
270 948 781
271 857 586
272 465 816
273 237 237
274 383 701
275 918 448
276 247 860
277 434 167
278 531 937
279 668 318
280 774 375
281 104 5
282 974 242
283 351 968
284 227 311
285 905 279
286 622 385
287 163 308
288 371 880
289 696 912
290 213 649
291 754 894
292 45 61
293 40 711
294 817 333
295 724 419
296 668 100
297 704 881
298 325 252
299 128 217
300 736 6
301 156 513
302 964 237
303 976 765
304 324 55
305 69 89
306 782 635
307 728 176
308 585 289
309 819 986
310 159 806
311 800 708
312 249 15
313 984 964
314 305 628
315 58 257
316 126 305
317 846 680
318 753 995
319 324 862
320 604 499
321 146 700
322 302 396
323 341 10
324 928 90
325 798 276
326 476 660
327 829 244
328 82 705
329 256 442
330 991 305
331 822 278
332 422 596
333 639 197
334 269 436
335 865 183
336 368 469
337 311 688
338 642 479
339 598 732
340 424 158
341 825 660
342 763 320
343 322 598
344 399 34
345 293 447
346 909 324
347 52 693
348 510 68
349 74 921
350 407 511
351 226 284
352 779 228
353 220 690
354 552 210
355 773 211
356 107 524
357 838 205
358 434 690
359 337 6
360 176 182
361 634 388
362 385 440
363 821 317
364 396 558
365 815 247
366 501 475
367 878 162
368 779 37
369 334 614
370 882 390
371 993 28
372 838 268
373 843 194
374 436 695
375 873 112
376 176 798
377 533 719
378 827 224
379 644 148
380 322 862
381 404 634
382 315 24
383 537 103
384 861 100
385 529 695
386 299 21
387 675 210
388 651 310
389 156 759
390 258 426
391 461 838
392 447 704
393 897 59
394 793 157
395 322 547
396 135 711
397 297 252
398 999 191
399 396 594
400 969 151
401 125 723
402 150 672
403 795 214
404 762 246
405 350 425
406 665 129
407 849 63
408 764 250
409 944 384
410 905 477
411 139 781
412 831 152
413 714 36
414 601 599
415 210 25
416 946 53
417 494 646
418 214 534
419 815 93
420 787 203
421 78 693
422 274 414
423 835 254
424 790 285
425 150 697
426 326 92
427 861 177
428 88 487
429 167 677
430 861 91
431 897 123
432 316 406
433 343 723
434 925 281
435 709 256
436 161 685
437 344 459
438 765 159
439 825 305
440 357 567
441 925 425
442 274 687
443 835 260
444 968 213
445 958 32
446 182 410
447 58 665
448 236 454
449 383 370
450 543 638
451 851 253
452 865 349
453 372 21
454 285 385
455 822 586
456 858 405
457 283 74
458 342 363
459 616 158
460 486 681
461 158 353
462 297 721
463 260 277
464 222 118
465 950 162
466 912 123
467 266 332
468 995 300
469 504 663
470 213 291
471 311 101
472 839 250
473 745 198
474 203 441
475 363 40
476 784 472
477 885 406
478 852 185
479 700 166
480 951 282
481 111 581
482 812 307
483 342 570
484 487 673
485 809 201
486 928 16
487 705 463
488 944 90
489 760 297
490 97 553
491 835 126
492 102 636
493 825 382
494 853 193
495 592 743
496 436 714
497 714 307
498 187 755
499 254 453
500 902 75
501 798 382
502 551 296
503 434 531
504 785 320
505 602 101
506 265 711
507 491 528
508 762 360
509 199 695
510 537 609
511 853 163
512 784 464
513 411 680
514 302 386
515 858 232
516 476 651
517 792 611
518 786 74
519 311 127
520 344 152
521 396 677
522 870 351
523 96 627
524 308 365
525 849 350
526 162 623
527 927 85
528 691 398
529 429 14
530 931 162
531 588 689
532 893 374
533 641 165
534 713 335
535 867 100
536 851 184
537 268 664
538 927 256
539 967 508
540 420 424
541 254 301
542 532 657
543 498 805
544 337 176
545 473 672
546 987 16
547 541 973
548 904 81
549 909 104
550 288 561
551 338 491
552 338 376
553 424 749
554 867 374
555 756 316
556 346 454
557 872 168
558 749 172
559 143 251
560 354 322
561 848 346
562 608 213
563 814 327
564 851 125
565 953 337
566 516 661
567 309 323
568 954 164
569 186 520
570 328 22
571 379 303
572 69 822
573 976 260
574 923 303
575 935 103
576 942 295
577 416 97
578 796 236
579 410 550
580 23 550
581 351 602
582 805 226
583 186 633
584 758 423
585 354 509
586 835 303
587 972 238
588 188 816
589 749 230
590 690 234
591 903 72
592 822 239
593 503 89
594 479 604
595 913 323
596 160 694
597 276 471
598 826 274
599 266 428
600 526 710
601 345 206
602 106 676
603 684 391
604 665 384
605 225 747
606 795 250
607 586 399
608 807 230
609 918 94
610 259 751
611 855 222
612 476 548
DEMAND_SECTION
2 59
3 87
4 98
5 73
6 70
7 64
8 98
9 87
10 99
11 78
12 68
13 99
14 53
15 56
16 66
17 67
18 74
19 86
20 75
21 71
22 87
23 87
24 66
25 71
26 75
27 62
28 78
29 83
30 63
31 95
32 52
33 57
34 58
35 65
36 86
37 85
38 58
39 84
40 92
41 50
42 72
43 76
44 79
45 58
46 100
47 94
48 86
49 70
50 80
51 75
52 86
53 95
54 94
55 79
56 97
57 56
58 88
59 72
60 58
61 64
62 51
63 84
64 71
65 95
66 68
67 75
68 95
69 95
70 63
71 63
72 65
73 88
74 84
75 68
76 67
77 98
78 72
79 61
80 73
81 84
82 65
83 87
84 94
85 90
86 50
87 87
88 96
89 51
90 84
91 93
92 68
93 71
94 74
95 84
96 70
97 52
98 77
99 98
100 77
101 99
102 100
103 62
104 96
105 69
106 74
107 88
108 85
109 59
110 86
111 69
112 53
113 79
114 70
115 53
116 51
117 50
118 70
119 66
120 88
121 76
122 52
123 57
124 57
125 100
126 95
127 51
128 76
129 51
130 75
131 66
132 84
133 91
134 81
135 88
136 57
137 66
138 82
139 68
140 85
141 91
142 54
143 75
144 54
145 75
146 84
147 57
148 58
149 74
150 67
151 77
152 51
153 50
154 84
155 100
156 79
157 96
158 78
159 97
160 66
161 62
162 50
163 63
164 67
165 68
166 72
167 98
168 79
169 100
170 96
171 92
172 66
173 87
174 92
175 86
176 52
177 93
178 95
179 81
180 67
181 54
182 55
183 76
184 62
185 96
186 65
187 50
188 84
189 53
190 87
191 75
192 66
193 55
194 94
195 72
196 78
197 75
198 87
199 50
200 86
201 87
202 55
203 92
204 82
205 93
206 62
207 59
208 74
209 52
210 92
211 58
212 80
213 87
214 100
215 71
216 97
217 82
218 88
219 95
220 74
221 68
222 85
223 95
224 53
225 100
226 93
227 75
228 67
229 56
230 89
231 52
232 54
233 51
234 100
235 50
236 84
237 53
238 81
239 53
240 96
241 75
242 64
243 71
244 97
245 66
246 62
247 70
248 82
249 79
250 89
251 63
252 50
253 86
254 89
255 65
256 53
257 67
COVERAGE_SECTION
2 11 149 204 185 132 461 15 316 12 428 168 446 
3 11 566 542 469 450 417 73 484 385 460 516 326 
4 11 199 162 125 205 253 235 265 278 547 97 262 
5 11 407 419 430 384 535 164 518 375 491 564 393 
6 11 58 262 547 261 266 278 253 62 162 4 105 
7 11 459 70 533 379 171 333 198 562 406 92 387 
8 11 602 492 402 139 523 257 421 321 425 436 396 
9 11 544 520 601 519 186 471 66 101 298 397 426 
10 11 39 305 47 292 29 133 48 178 107 110 281 
11 11 560 571 458 567 449 119 552 524 298 14 26 
12 11 132 161 204 428 117 2 580 149 168 185 154 
13 11 194 539 61 128 260 209 410 17 99 100 140 
14 11 449 67 540 220 362 458 552 405 11 560 571 
15 11 168 446 123 474 301 428 204 51 2 60 569 
16 11 93 487 512 584 476 295 201 137 181 111 528 
17 11 260 65 99 410 143 217 37 275 209 194 271 
18 11 549 431 609 76 466 548 324 500 527 575 375 
19 11 143 455 81 476 65 201 517 20 512 271 99 
20 11 455 517 271 306 341 56 173 81 19 317 99 
21 11 160 508 504 280 342 294 501 563 555 363 482 
22 11 551 585 437 556 336 68 395 345 597 169 405 
23 11 401 328 139 153 74 396 421 96 219 321 411 
24 11 475 304 268 426 344 453 231 570 577 323 471 
25 11 31 63 531 91 245 239 152 339 71 495 69 
26 11 463 541 397 86 567 467 298 351 284 101 273 
27 11 85 319 380 229 610 206 276 90 462 433 232 
28 11 150 196 69 543 495 53 339 71 377 228 105 
29 11 292 39 110 10 305 281 47 107 178 133 48 
30 11 121 388 590 279 387 435 562 333 308 497 534 
31 11 245 91 25 152 531 63 239 414 73 127 339 
32 11 259 159 54 222 112 349 116 207 122 46 87 
33 11 409 565 135 532 595 346 441 140 370 574 576 
34 11 509 596 156 436 425 429 224 219 321 353 218 
35 11 203 50 297 129 97 235 205 289 89 265 125 
36 11 215 255 250 447 347 293 179 421 154 153 328 
37 11 217 456 410 477 275 65 370 441 17 143 209 
38 11 248 313 95 175 234 118 270 241 80 309 303 
39 11 10 305 292 29 47 133 48 178 107 110 281 
40 11 78 98 247 348 593 529 383 55 237 505 258 
41 11 263 320 243 338 226 366 269 507 134 607 45 
42 11 317 311 173 341 189 192 43 56 306 20 517 
43 11 317 56 42 341 155 189 173 311 20 271 100 
44 11 464 415 176 178 312 457 109 48 133 66 47 
45 11 510 269 450 73 594 3 542 414 417 566 612 
46 11 349 207 112 183 222 54 59 122 113 572 94 
47 11 133 48 10 305 39 213 292 29 109 178 225 
48 11 133 47 213 109 10 305 39 360 251 193 299 
49 11 52 147 216 197 119 277 170 340 571 601 298 
50 11 203 35 297 129 289 97 291 89 244 235 114 
51 11 569 151 123 301 418 190 60 130 474 448 84 
52 11 49 147 216 197 277 340 119 170 601 571 544 
53 11 89 223 71 129 150 69 495 339 239 28 63 
54 11 222 349 122 46 112 207 113 116 259 59 94 
55 11 383 505 70 198 258 459 92 7 593 166 171 
56 11 43 317 341 20 155 271 173 42 455 517 306 
57 11 300 413 195 368 164 252 296 518 72 200 406 
58 11 6 262 547 278 261 266 253 162 62 4 105 
59 11 113 94 572 122 96 222 74 310 411 46 54 
60 11 448 499 329 474 83 597 190 390 334 151 599 
61 11 194 13 539 260 100 155 99 17 128 271 410 
62 11 266 261 288 283 6 58 262 391 278 228 105 
63 11 25 239 339 531 71 495 31 69 91 245 152 
64 11 393 227 486 591 416 500 548 527 188 445 177 
65 11 143 17 99 37 410 260 217 19 476 512 271 
66 11 101 360 464 273 9 109 519 86 397 186 544 
67 11 14 405 449 362 220 540 552 458 556 432 68 
68 11 336 362 220 437 556 551 22 585 350 405 540 
69 11 495 150 339 71 53 63 28 196 239 531 146 
70 11 459 198 7 379 533 406 505 171 333 55 72 
71 11 339 495 69 239 53 63 150 223 89 25 531 
72 11 296 406 379 198 252 479 533 70 459 505 195 
73 11 450 542 510 3 152 566 45 469 531 385 414 
74 11 96 411 23 572 389 401 59 254 94 310 153 
75 11 225 193 107 315 184 213 299 47 305 133 251 
76 11 466 549 18 575 609 431 324 527 488 548 500 
77 11 493 554 456 525 370 561 452 522 477 148 501 
78 11 40 98 247 348 593 383 529 55 505 237 258 
79 11 138 461 284 287 470 446 236 187 351 467 541 
80 11 114 291 244 102 234 175 95 248 297 309 50 
81 11 517 306 267 19 455 20 201 127 173 208 341 
82 11 607 286 502 361 308 243 388 604 103 240 279 
83 11 329 499 334 599 180 390 597 345 448 422 182 
84 11 106 144 481 490 356 301 233 123 130 569 174 
85 11 610 206 462 27 167 202 506 605 256 433 218 
86 11 463 351 273 541 26 101 470 284 397 236 467 
87 11 276 116 380 319 259 588 211 27 229 159 376 
88 11 136 115 130 230 290 550 418 583 163 151 190 
89 11 53 223 129 71 203 69 150 239 35 495 50 
90 11 232 553 433 274 165 496 256 108 521 513 374 
91 11 31 245 25 152 127 63 531 414 239 73 267 
92 11 166 354 171 562 7 459 55 258 70 383 333 
93 11 16 295 584 487 512 137 476 111 528 201 148 
94 11 113 59 122 310 96 116 411 376 588 222 572 
95 11 175 38 309 248 80 234 313 102 114 244 291 
96 11 74 411 572 23 59 94 254 310 389 113 401 
97 11 289 265 205 125 235 297 35 199 50 203 4 
98 11 247 348 78 593 40 529 383 237 258 577 344 
99 11 260 17 271 65 143 194 455 410 61 20 19 
100 11 155 61 194 43 13 56 271 99 303 260 539 
101 11 273 86 397 463 66 26 351 298 541 9 470 
102 11 244 114 291 318 309 80 289 297 175 95 97 
103 11 243 366 540 14 607 82 220 226 362 67 449 
104 11 378 592 327 608 582 249 365 357 472 423 611 
105 11 228 391 543 272 278 28 266 261 262 62 199 
106 11 144 84 481 490 356 233 301 130 174 526 523 
107 11 225 305 292 75 39 10 29 47 110 133 48 
108 11 232 391 272 553 288 90 228 229 543 319 380 
109 11 360 213 48 251 133 299 464 66 47 44 193 
110 11 29 292 39 281 10 305 107 178 47 133 48 
111 11 528 603 137 240 604 295 361 534 93 487 584 
112 11 207 349 46 54 183 222 122 59 113 32 572 
113 11 94 59 122 222 310 116 572 96 54 411 46 
114 11 291 244 102 80 297 289 50 318 97 309 35 
115 11 88 163 136 314 550 537 343 230 290 369 264 
116 11 122 94 588 113 259 222 310 87 376 276 54 
117 11 580 154 161 179 233 490 356 428 12 481 36 
118 11 303 270 241 248 234 38 189 313 43 100 175 
119 11 571 298 49 11 216 601 52 147 560 197 397 
120 11 307 141 558 473 479 438 172 589 355 124 387 
121 11 435 30 590 497 279 388 387 534 589 172 489 
122 11 113 222 94 116 59 54 310 46 588 349 572 
123 11 301 51 569 168 356 15 84 151 418 428 106 
124 11 420 355 485 394 403 438 558 473 210 352 582 
125 11 265 205 97 199 235 4 289 162 297 253 35 
126 9 282 587 573 302 444 398 468 480 330 
127 11 267 91 221 245 208 31 414 152 25 134 81 
128 11 539 209 140 13 275 410 194 441 260 61 217 
129 11 89 203 35 53 223 50 235 205 297 71 150 
130 11 418 569 136 88 151 51 84 106 174 301 526 
131 11 503 579 612 350 364 507 332 226 399 594 366 
132 11 12 204 149 2 185 161 428 168 15 117 356 
133 11 48 47 213 10 109 305 39 360 251 178 193 
134 11 208 221 181 338 320 263 201 487 267 127 414 
135 11 565 576 574 595 346 33 157 480 330 434 468 
136 11 88 115 230 130 290 583 174 526 418 163 537 
137 11 528 111 295 603 240 487 604 93 16 584 361 
138 11 287 187 236 461 79 316 470 284 351 559 541 
139 11 396 401 602 321 328 425 23 8 421 402 596 
140 11 209 441 275 217 410 409 128 477 33 37 370 
141 11 307 120 558 473 479 438 172 124 200 355 589 
142 11 491 412 210 564 394 511 419 212 384 375 427 
143 11 65 17 19 99 476 37 512 410 260 217 455 
144 11 106 84 481 490 233 356 174 523 301 526 130 
145 11 404 408 352 578 606 589 355 403 582 172 608 
146 11 377 600 385 531 542 566 196 469 3 339 495 
147 11 216 49 52 197 170 119 277 340 571 601 166 
148 11 501 493 77 160 280 456 584 512 476 37 508 
149 11 2 185 204 132 316 461 12 15 428 287 315 
150 11 69 495 28 339 71 196 53 63 377 89 239 
151 11 418 190 51 569 60 130 301 123 448 499 597 
152 11 245 31 531 73 25 91 450 414 63 542 510 
153 11 328 421 347 293 23 250 139 447 602 255 401 
154 11 580 117 179 233 161 490 36 481 523 356 215 
155 11 56 100 43 61 271 194 317 99 341 20 260 
156 11 219 389 34 498 321 396 425 596 254 401 224 
157 11 480 576 434 574 538 285 573 135 595 302 282 
158 11 454 514 322 524 182 422 432 467 552 599 390 
159 11 259 32 87 214 116 276 211 283 54 222 122 
160 11 280 501 21 508 493 294 504 563 148 342 363 
161 11 117 580 12 428 154 233 356 179 490 168 132 
162 11 253 4 547 125 199 262 265 278 58 205 6 
163 11 314 343 369 115 581 537 550 483 264 88 337 
164 11 368 518 5 407 419 300 430 413 195 384 535 
165 11 513 358 374 521 496 274 392 553 238 381 545 
166 11 92 354 258 171 55 383 237 562 7 459 593 
167 11 605 218 610 224 506 498 353 85 509 34 206 
168 11 428 356 123 301 15 490 84 51 569 204 106 
169 11 440 483 395 585 364 581 343 550 579 369 399 
170 11 216 147 49 502 52 119 571 354 308 197 166 
171 11 562 7 92 459 354 333 70 533 166 379 198 
172 11 589 473 404 355 145 408 352 120 307 420 435 
173 11 341 42 192 311 317 306 517 20 56 43 455 
174 11 526 583 257 230 402 429 290 8 136 492 130 
175 11 95 38 309 248 80 234 102 114 313 244 291 
176 11 312 415 386 457 44 382 570 268 304 231 359 
177 11 445 546 416 371 486 188 64 227 488 527 324 
178 11 281 44 10 415 39 47 305 29 133 48 292 
179 11 154 580 233 117 490 481 523 492 36 161 144 
180 11 334 599 345 182 422 83 390 329 499 597 322 
181 11 134 487 201 338 208 221 16 93 320 137 263 
182 11 422 180 599 322 334 390 454 432 514 345 158 
183 11 207 46 112 349 54 222 572 59 113 122 94 
184 11 315 193 299 559 316 251 213 225 75 187 287 
185 11 149 2 132 204 316 315 184 461 12 287 138 
186 11 471 519 426 231 457 268 304 520 9 24 544 
187 11 236 287 138 316 559 470 351 284 461 79 86 
188 11 416 488 227 527 324 445 177 575 609 64 591 
189 11 42 317 43 311 241 341 173 192 270 56 234 
190 11 151 418 60 51 569 597 448 499 550 130 83 
191 11 325 242 331 424 598 606 365 482 249 372 439 
192 11 311 173 42 341 306 317 189 517 20 43 56 
193 11 213 299 184 225 251 315 75 559 48 133 109 
194 11 61 13 539 260 99 17 128 155 410 100 209 
195 11 413 57 300 252 368 296 72 518 164 200 406 
196 11 28 150 377 69 600 146 543 495 339 385 71 
197 11 52 277 340 49 147 216 601 544 119 520 577 
198 11 70 379 459 533 406 7 505 72 296 55 333 
199 11 4 205 235 125 265 97 162 253 278 35 289 
200 11 252 438 394 558 141 518 210 307 120 419 142 
201 11 181 16 487 208 134 19 93 476 221 512 81 
202 11 462 206 337 264 256 442 506 537 433 610 85 
203 11 35 50 129 297 89 97 235 223 53 289 205 
204 11 2 149 132 185 428 12 15 168 161 461 356 
205 11 235 199 97 125 265 4 35 289 297 203 129 
206 11 462 202 256 506 337 264 85 442 433 610 167 
207 11 112 349 46 183 54 222 122 59 113 572 94 
208 11 221 134 181 267 201 127 338 320 263 414 81 
209 11 275 140 441 410 217 128 539 37 477 17 409 
210 11 394 412 142 491 124 511 212 485 438 536 564 
211 11 319 380 229 288 283 87 276 214 27 62 108 
212 9 536 478 373 494 427 335 511 357 557 
213 11 251 48 299 109 193 133 360 47 225 559 184 
214 11 283 211 62 288 159 319 380 229 261 266 87 
215 11 255 250 36 447 347 293 421 153 328 523 602 
216 11 147 49 52 170 119 197 277 571 340 601 11 
217 11 37 275 410 209 441 477 140 456 17 370 65 
218 11 224 605 167 610 353 498 509 506 34 156 442 
219 11 156 389 396 401 254 321 425 498 34 596 436 
220 11 362 68 540 336 67 405 556 437 14 449 350 
221 11 208 134 267 127 181 414 201 338 320 263 91 
222 11 54 122 46 349 113 59 94 116 112 207 259 
223 11 89 53 71 239 129 69 339 495 63 150 203 
224 11 218 605 167 498 34 509 353 156 610 219 506 
225 11 75 193 107 213 315 47 133 48 184 305 299 
226 11 507 366 612 131 41 503 269 243 45 594 510 
227 11 527 591 500 548 324 64 416 393 609 188 488 
228 11 391 105 272 543 108 28 196 266 278 62 261 
229 11 319 380 288 211 27 108 276 87 232 85 283 
230 11 290 583 136 353 257 174 509 526 429 88 537 
231 11 268 426 471 304 186 457 519 24 382 570 386 
232 11 90 553 108 496 274 433 272 165 392 374 391 
233 11 490 481 179 356 144 106 84 154 580 117 161 
234 11 248 80 175 241 270 95 38 189 118 114 303 
235 11 205 199 97 125 265 35 4 129 289 203 297 
236 11 187 287 470 138 351 559 284 316 79 86 273 
237 11 258 593 277 340 577 348 383 247 98 166 197 
238 11 460 545 484 392 326 374 358 469 516 496 417 
239 11 63 71 339 25 495 223 69 531 31 53 91 
240 11 604 603 528 111 361 137 286 295 487 534 279 
241 11 270 303 118 189 234 248 43 42 317 38 100 
242 10 191 331 482 325 424 439 598 586 363 372 
243 11 366 103 41 607 226 263 82 320 507 286 361 
244 11 291 114 102 297 289 80 50 97 318 35 265 
245 11 31 91 152 25 531 414 63 73 127 239 450 
246 11 293 255 250 347 153 215 328 421 23 74 572 
247 11 98 348 593 78 40 383 237 529 258 577 344 
248 11 38 234 175 95 270 118 241 80 313 303 189 
249 11 327 365 592 423 443 472 104 372 598 378 608 
250 11 255 293 347 215 447 153 421 36 328 246 602 
251 11 299 213 559 360 193 109 184 48 133 187 236 
252 11 200 72 518 438 296 195 141 479 558 307 406 
253 11 162 4 547 125 262 199 278 58 265 6 205 
254 11 389 411 498 376 219 310 156 588 401 96 74 
255 11 250 293 215 347 447 36 153 421 246 328 602 
256 11 337 433 202 462 206 264 442 506 274 85 537 
257 11 429 402 436 596 583 526 174 425 321 8 230 
258 11 237 383 593 166 55 348 92 247 277 354 340 
259 11 159 116 32 54 87 222 122 276 113 94 349 
260 11 17 99 194 410 65 539 61 13 209 143 217 
261 11 266 62 6 58 262 278 547 105 228 391 283 
262 11 58 547 278 6 261 266 162 253 4 105 62 
263 11 320 41 338 134 181 269 221 208 243 226 414 
264 11 442 202 537 337 506 462 206 256 314 353 163 
265 11 125 97 205 289 235 199 4 297 35 162 253 
266 11 261 62 58 6 262 278 547 105 228 391 288 
267 11 127 221 208 81 134 91 201 306 245 414 517 
268 11 304 231 426 382 457 471 570 24 386 186 475 
269 11 45 510 414 73 450 226 41 152 507 263 320 
270 11 241 303 118 248 189 234 43 38 42 317 100 
271 11 455 20 99 56 517 155 19 17 260 143 341 
272 11 391 543 228 108 105 232 553 196 28 496 90 
273 11 101 86 463 351 470 66 397 541 26 236 284 
274 11 521 165 513 433 358 90 374 496 256 553 392 
275 11 209 140 441 217 410 37 477 128 370 409 17 
276 11 87 116 588 380 319 27 211 259 376 229 310 
277 11 340 197 52 237 49 147 577 216 258 520 166 
278 11 262 547 58 6 261 266 4 105 162 199 253 
279 11 388 497 121 534 30 604 435 603 361 240 286 
280 11 160 508 501 21 148 493 584 342 504 294 555 
281 11 178 29 110 292 10 39 305 47 415 44 133 
282 9 587 302 573 126 444 480 538 157 398 
283 11 214 211 62 288 229 319 380 261 266 159 87 
284 11 470 351 541 467 79 463 86 236 138 26 187 
285 8 434 574 538 157 576 346 595 480 
286 11 361 607 604 240 82 603 528 111 388 137 279 
287 11 138 187 236 316 461 470 79 559 284 351 541 
288 11 229 319 211 380 108 62 283 27 391 232 272 
289 11 97 297 265 125 244 205 35 291 50 235 114 
290 11 230 583 353 136 509 257 429 174 526 537 88 
291 11 244 114 102 297 289 80 50 97 35 203 318 
292 11 29 39 305 10 110 107 47 281 133 178 48 
293 11 250 347 255 153 328 421 215 246 447 23 36 
294 9 563 363 482 439 561 504 586 525 21 
295 11 137 93 584 111 528 16 487 603 240 280 604 
296 11 72 406 198 379 252 70 505 195 533 479 459 
297 11 289 50 35 97 203 291 244 114 265 205 235 
298 11 397 601 119 26 463 101 567 571 11 560 544 
299 11 251 559 213 193 360 184 109 315 187 48 236 
300 11 57 413 195 368 164 518 252 296 5 419 200 
301 11 123 569 51 168 84 356 106 418 130 151 144 
302 9 587 282 444 573 126 538 480 157 398 
303 11 270 241 118 189 248 100 234 43 155 38 317 
304 11 268 231 382 570 426 386 475 24 457 323 471 
305 11 39 10 292 47 29 133 48 107 110 178 225 
306 11 517 173 20 81 341 455 192 311 317 42 56 
307 11 120 141 558 473 479 438 172 124 355 589 200 
308 11 502 388 82 30 562 354 279 171 121 286 333 
309 11 102 318 95 175 114 244 80 291 289 38 234 
310 11 376 588 411 254 94 389 113 498 96 59 74 
311 11 192 42 173 317 341 189 306 43 56 517 20 
312 11 176 415 386 382 457 44 570 268 304 359 231 
313 11 38 95 248 175 118 234 309 270 241 80 303 
314 11 163 369 343 115 537 581 264 337 442 483 550 
315 11 184 193 75 299 225 316 559 251 185 213 187 
316 11 287 187 138 559 461 236 184 315 79 185 299 
317 11 42 341 43 173 56 311 189 192 20 306 155 
318 11 102 309 244 114 289 291 265 125 97 297 80 
319 11 380 229 211 288 27 276 87 108 85 283 232 
320 11 263 41 338 134 181 221 269 208 243 414 226 
321 11 425 596 396 436 402 139 401 429 219 156 34 
322 11 514 432 454 158 182 524 422 552 180 599 334 
323 11 359 570 382 453 475 386 304 268 24 344 231 
324 11 527 609 575 488 549 227 548 76 18 500 591 
325 11 191 424 242 331 606 598 365 482 249 439 443 
326 9 516 545 484 417 460 469 238 566 3 
327 11 249 592 423 472 365 104 443 378 451 372 608 
328 11 153 421 347 139 23 602 293 401 447 250 396 
329 11 83 499 334 390 599 448 180 422 597 60 345 
330 11 468 480 573 135 565 576 157 282 574 126 434 
331 10 598 191 242 372 443 325 423 439 249 586 
332 8 399 381 364 579 594 131 503 440 
333 11 533 7 562 387 459 171 379 70 590 198 30 
334 11 599 180 83 329 390 422 499 345 182 597 448 
335 8 427 478 536 494 557 212 511 367 
336 11 68 437 556 362 220 551 22 585 405 350 67 
337 11 256 202 264 462 442 206 433 537 506 314 163 
338 11 320 263 181 134 487 41 137 208 221 240 361 
339 11 495 69 71 63 239 150 531 25 53 146 223 
340 11 277 197 52 237 577 49 147 520 216 258 544 
341 11 173 317 42 56 306 20 311 43 192 517 455 
342 11 555 504 489 21 508 424 482 497 563 160 534 
343 11 369 581 163 314 483 440 550 395 169 115 399 
344 11 453 475 529 24 323 577 359 570 304 268 382 
345 11 180 334 83 597 599 182 329 422 499 390 432 
346 8 595 574 135 576 285 434 565 522 
347 11 250 293 421 153 255 447 328 215 602 36 139 
348 11 247 593 98 383 78 40 237 258 55 529 505 
349 11 112 207 46 54 222 183 122 59 113 572 94 
350 11 503 579 131 364 68 585 336 169 220 551 22 
351 11 470 86 284 541 463 236 273 26 187 467 138 
352 11 145 355 578 403 404 420 582 408 606 608 589 
353 11 509 34 218 224 290 230 506 442 167 429 537 
354 11 92 166 171 562 7 459 308 502 258 333 70 
355 11 420 352 403 124 145 473 589 172 578 582 404 
356 11 490 84 168 428 233 106 144 301 123 481 161 
357 9 373 494 378 478 611 212 536 104 485 
358 11 374 392 165 496 513 521 238 545 274 326 460 
359 11 323 570 382 453 386 475 304 268 24 344 231 
360 11 109 251 299 66 213 48 559 464 273 133 101 
361 11 286 604 240 607 603 528 111 82 137 279 388 
362 11 220 68 336 67 405 540 556 437 14 551 22 
363 8 563 439 482 294 586 242 504 331 
364 11 579 399 440 332 169 503 350 131 483 581 585 
365 11 249 592 327 608 606 423 104 578 582 443 472 
366 11 226 243 507 103 41 612 131 503 540 350 263 
367 7 557 427 335 511 478 536 212 
368 11 164 518 300 5 413 419 195 407 57 252 200 
369 11 343 581 314 163 483 440 169 399 395 115 550 
370 11 477 532 554 456 77 522 452 525 441 561 493 
371 11 546 177 445 416 188 486 488 227 64 527 324 
372 7 443 598 423 472 331 451 249 
373 9 494 357 212 478 536 335 427 611 511 
374 11 358 392 496 165 513 238 521 545 460 274 326 
375 11 535 384 430 431 564 18 549 491 466 548 76 
376 11 310 588 254 411 389 498 94 219 156 605 116 
377 11 600 146 385 196 460 566 542 469 531 238 495 
378 11 104 592 327 608 357 582 249 365 611 472 485 
379 11 533 198 70 406 459 7 72 333 296 479 505 
380 11 319 229 211 288 27 276 87 85 108 283 232 
381 8 399 332 521 513 581 165 358 374 
382 11 570 386 359 323 304 268 475 231 453 457 24 
383 11 55 593 258 348 247 505 237 98 166 92 78 
384 11 535 430 375 564 491 407 5 18 431 419 548 
385 11 600 146 377 566 542 469 3 460 484 238 450 
386 11 382 570 359 304 323 268 312 176 457 231 475 
387 11 590 333 479 533 435 30 120 307 121 562 141 
388 11 279 30 121 497 534 308 604 435 286 361 590 
389 11 254 219 411 156 498 376 310 401 396 34 23 
390 11 599 334 329 422 83 180 499 182 448 345 597 
391 11 272 228 108 543 105 232 62 553 288 266 28 
392 11 374 496 358 238 165 545 513 460 484 553 326 
393 11 591 500 64 548 227 527 609 324 549 18 407 
394 11 210 438 124 142 412 200 420 558 485 491 403 
395 11 169 483 550 440 585 343 551 22 581 369 163 
396 11 321 401 139 425 596 219 156 436 23 402 602 
397 11 298 26 463 101 86 273 541 601 567 9 351 
398 9 444 126 400 568 587 282 465 302 573 
399 9 332 364 381 579 581 440 483 169 369 
400 9 568 465 530 398 575 76 444 466 488 
401 11 396 139 23 321 219 425 156 596 328 389 602 
402 11 436 257 429 596 425 321 8 396 602 139 34 
403 11 420 582 485 608 352 355 578 124 104 378 145 
404 11 408 145 589 352 172 606 578 355 403 325 582 
405 11 556 67 437 362 432 220 336 552 68 322 345 
406 11 72 379 296 198 533 70 479 459 7 505 252 
407 11 5 430 384 535 419 393 500 375 591 164 548 
408 11 404 145 589 352 606 578 172 355 325 424 489 
409 11 33 441 565 532 140 135 370 477 595 275 346 
410 11 217 275 209 17 37 260 140 441 65 539 99 
411 11 254 389 310 96 74 376 219 498 94 156 23 
412 11 142 210 511 491 212 564 394 536 427 478 373 
413 11 195 57 300 368 252 296 518 164 72 200 406 
414 11 269 245 152 73 91 31 45 510 450 127 221 
415 11 176 312 44 178 457 386 464 382 281 231 268 
416 11 188 445 227 177 64 488 527 324 486 591 393 
417 10 516 469 326 566 3 484 545 460 542 594 
418 11 151 569 190 51 130 88 301 123 60 136 550 
419 11 5 518 491 142 407 430 384 564 535 164 375 
420 11 403 355 124 485 352 582 578 608 145 473 378 
421 11 328 153 347 602 447 139 293 8 250 23 255 
422 11 182 599 390 180 334 454 322 329 83 158 345 
423 10 443 472 249 327 372 451 592 365 598 331 
424 11 325 191 242 482 489 331 504 606 598 439 342 
425 11 321 596 436 396 402 429 34 139 401 156 219 
426 11 471 231 186 268 304 519 24 457 520 475 382 
427 9 335 478 536 557 212 511 494 367 373 
428 11 168 356 161 490 204 123 15 233 301 84 12 
429 11 436 257 402 596 425 321 34 509 396 583 8 
430 11 384 535 375 407 5 564 491 500 548 18 419 
431 10 466 18 549 76 375 609 535 367 384 548 
432 11 322 514 182 454 552 405 158 524 422 180 345 
433 11 256 206 274 462 90 337 202 85 264 521 165 
434 9 157 285 574 576 538 480 595 346 135 
435 11 121 590 589 172 497 404 408 387 30 489 145 
436 11 596 429 425 402 321 257 34 396 509 156 139 
437 11 556 336 22 551 405 68 362 220 585 345 432 
438 11 558 394 124 200 141 307 120 473 210 420 355 
439 8 586 363 482 242 563 331 294 598 
440 11 169 483 581 364 395 343 399 369 579 585 550 
441 11 140 275 209 217 477 409 370 410 532 33 37 
442 11 264 537 506 202 337 462 206 256 353 610 218 
443 10 423 372 472 249 327 451 598 331 365 592 
444 8 302 587 282 398 126 573 568 465 
445 11 177 416 546 486 188 371 64 227 488 527 324 
446 11 474 15 461 79 448 60 390 329 499 599 83 
447 11 347 215 421 250 255 328 153 293 602 492 523 
448 11 60 499 329 83 474 390 334 599 597 180 422 
449 11 14 67 458 552 11 560 405 540 571 362 220 
450 11 73 542 3 510 566 45 469 417 152 385 269 
451 7 472 423 443 372 515 327 249 
452 7 522 525 561 554 532 77 370 
453 11 475 344 323 359 570 24 382 529 304 268 386 
454 11 158 514 322 182 524 422 432 599 180 390 334 
455 11 20 271 517 19 306 81 56 99 341 143 173 
456 11 77 477 370 554 493 37 532 148 522 217 452 
457 11 231 268 471 186 304 426 386 382 519 176 312 
458 11 552 524 449 560 514 432 11 322 567 67 158 
459 11 7 70 533 198 379 171 333 562 406 505 55 
460 11 484 238 545 326 469 516 417 566 3 385 392 
461 11 138 79 287 316 446 187 236 284 470 2 15 
462 11 206 202 256 506 337 264 442 85 433 610 537 
463 11 86 26 541 351 397 273 284 470 101 467 567 
464 11 44 66 109 457 360 186 519 471 415 176 231 
465 6 568 530 400 444 466 76 
466 10 76 431 18 549 575 609 324 375 527 530 
467 11 541 284 567 26 158 524 463 454 351 514 470 
468 11 330 573 480 576 135 565 157 282 126 587 302 
469 11 566 3 417 484 460 326 542 516 545 385 238 
470 11 351 284 236 86 541 187 138 463 287 79 273 
471 11 186 426 231 519 457 268 304 520 24 9 382 
472 10 423 443 327 451 249 372 592 365 104 515 
473 11 172 120 558 307 141 355 589 124 420 438 352 
474 11 448 60 446 499 329 390 15 83 599 334 51 
475 11 453 24 344 323 570 304 359 268 382 231 426 
476 11 512 16 93 584 143 148 19 201 65 295 487 
477 11 370 456 532 554 217 441 77 37 275 522 452 
478 9 536 212 494 427 335 373 511 357 557 
479 11 307 120 141 558 387 406 473 72 379 533 438 
480 11 157 576 434 573 538 574 135 282 285 330 302 
481 11 144 106 490 84 233 523 492 356 174 179 526 
482 11 363 439 242 563 586 294 504 191 331 424 325 
483 11 440 169 395 581 343 369 364 550 399 585 163 
484 11 460 545 326 469 238 516 417 566 3 385 542 
485 11 403 420 582 124 357 378 608 104 373 355 578 
486 11 64 177 445 416 227 393 188 546 591 500 371 
487 11 16 93 181 137 295 201 338 528 584 111 603 
488 11 324 575 527 188 609 227 76 416 549 548 18 
489 11 555 342 424 504 325 408 497 191 242 404 482 
490 11 233 356 481 144 84 106 179 428 301 168 154 
491 11 142 564 412 210 384 419 375 511 535 430 394 
492 11 523 8 602 447 481 402 526 421 174 139 257 
493 11 77 501 148 160 456 525 554 561 294 280 452 
494 9 478 536 373 212 335 427 357 611 511 
495 11 69 339 71 150 63 239 53 531 196 28 146 
496 11 392 374 358 165 553 513 238 521 274 545 460 
497 11 534 555 121 279 489 342 435 388 504 508 30 
498 11 254 389 156 224 219 605 218 376 34 167 411 
499 11 83 329 448 334 390 597 599 60 180 345 422 
500 11 591 548 393 227 609 527 324 549 18 64 535 
501 11 160 280 493 148 21 508 77 294 563 584 525 
502 11 308 82 170 354 388 562 30 607 171 286 92 
503 11 131 579 350 612 364 507 332 226 399 68 585 
504 11 342 21 555 482 563 489 294 424 363 242 439 
505 11 55 198 70 459 379 383 296 406 7 72 533 
506 11 442 202 206 264 462 610 167 218 537 353 337 
507 11 226 612 131 366 503 594 45 269 579 350 41 
508 11 280 21 160 342 501 555 504 534 294 563 489 
509 11 34 353 429 224 436 596 218 290 425 156 257 
510 11 45 450 73 269 3 542 566 417 594 469 414 
511 10 427 212 557 536 478 335 367 412 494 373 
512 11 476 16 93 584 148 143 295 19 201 487 65 
513 10 521 165 358 374 274 496 392 381 545 238 
514 11 322 454 158 524 432 182 552 422 458 180 599 
515 6 611 451 472 327 104 378 
516 9 326 417 545 484 469 460 566 238 3 
517 11 306 20 81 455 341 173 271 19 56 317 192 
518 11 419 368 164 5 200 252 407 491 142 430 384 
519 11 186 471 426 520 9 231 544 457 268 304 24 
520 11 544 9 519 601 186 471 426 197 231 340 24 
521 9 513 165 274 358 374 381 496 392 433 
522 7 452 525 554 561 532 77 370 
523 11 492 8 481 602 447 144 526 174 179 421 106 
524 11 514 158 454 322 552 458 432 567 467 182 422 
525 7 561 452 522 554 77 294 493 
526 11 174 583 257 402 230 429 290 8 492 436 136 
527 11 324 609 488 227 575 548 549 500 591 18 188 
528 11 111 603 137 240 604 295 361 487 93 534 286 
529 11 344 453 98 475 247 24 577 323 359 40 78 
530 6 465 568 400 466 76 431 
531 11 25 63 152 31 339 146 245 495 239 73 385 
532 10 370 554 477 522 452 456 77 525 346 409 
533 11 379 7 459 70 333 198 406 171 387 562 479 
534 11 497 555 279 342 508 489 111 603 388 528 121 
535 11 384 430 375 564 18 431 407 491 548 549 500 
536 9 478 212 494 427 373 335 511 357 557 
537 11 442 264 506 337 202 314 353 163 115 290 230 
538 8 434 157 285 480 302 576 574 587 
539 11 128 13 194 260 61 209 410 140 275 17 99 
540 11 220 362 14 67 68 449 336 103 405 556 437 
541 11 463 284 26 351 467 86 470 567 397 273 79 
542 11 3 566 450 73 469 385 417 484 510 146 460 
543 11 272 228 391 196 28 105 108 150 377 553 600 
544 11 9 520 601 519 197 186 298 471 426 397 340 
545 11 326 484 460 238 516 469 417 392 358 374 566 
546 11 371 177 445 416 486 188 64 227 488 527 324 
547 11 262 58 278 6 253 162 4 261 266 199 105 
548 11 500 591 609 393 527 227 549 18 324 76 575 
549 11 18 609 76 466 431 324 548 527 575 500 591 
550 11 395 343 115 483 163 88 169 190 314 440 369 
551 11 22 585 437 336 556 68 395 345 169 597 405 
552 11 458 524 432 514 322 449 67 405 158 454 560 
553 11 232 496 90 392 165 374 358 274 513 108 238 
554 10 370 77 522 452 532 525 456 561 477 493 
555 11 342 489 504 21 497 508 424 534 482 325 160 
556 11 437 336 405 22 68 551 362 220 345 585 432 
557 8 367 427 335 511 478 536 212 494 
558 11 141 307 438 120 473 124 355 394 200 172 420 
559 11 299 251 187 236 316 287 184 138 193 360 213 
560 11 11 571 458 567 449 552 524 119 298 14 26 
561 7 525 452 522 294 554 77 563 
562 11 171 333 7 354 459 533 92 30 387 70 379 
563 9 294 363 482 439 504 586 242 21 561 
564 11 491 375 384 142 535 412 430 511 367 431 419 
565 11 135 33 595 576 574 346 409 330 480 157 468 
566 11 3 469 542 417 484 450 385 460 326 516 545 
567 11 524 467 560 26 458 11 541 552 158 514 454 
568 6 465 400 530 444 398 76 
569 11 51 301 418 151 123 130 190 84 60 106 168 
570 11 382 323 359 386 304 475 268 453 24 231 457 
571 11 11 560 119 449 458 567 298 216 14 552 49 
572 11 59 96 74 113 94 46 122 411 222 310 23 
573 11 282 587 302 126 480 157 468 330 444 538 576 
574 10 576 434 595 346 157 285 135 480 565 538 
575 11 324 488 609 76 527 549 466 18 548 227 188 
576 11 157 480 574 434 135 285 595 538 565 346 573 
577 11 24 237 340 344 277 475 529 593 453 247 98 
578 11 582 608 606 352 365 403 145 592 104 249 378 
579 11 364 503 131 350 399 332 440 169 612 585 483 
580 11 117 154 179 161 233 490 356 428 481 12 36 
581 11 369 343 483 440 399 169 314 163 381 395 364 
582 11 608 578 403 104 592 378 365 485 352 606 420 
583 11 174 230 526 290 257 136 429 402 436 509 88 
584 11 93 295 16 512 148 280 476 501 137 508 160 
585 11 551 22 336 169 68 395 437 350 556 440 483 
586 6 439 363 482 242 331 598 
587 9 282 302 573 444 126 538 480 157 398 
588 11 376 310 254 116 411 94 498 389 113 276 122 
589 11 172 404 408 145 352 355 473 420 578 435 403 
590 11 387 435 121 30 172 589 333 120 473 307 479 
591 11 500 548 393 227 527 609 324 64 549 18 488 
592 11 327 249 365 104 378 608 423 472 582 443 578 
593 11 348 247 383 258 237 98 78 55 40 577 166 
594 8 417 516 326 612 45 332 510 3 
595 9 346 574 135 576 565 434 285 157 522 
596 11 436 425 321 429 402 34 396 257 156 509 219 
597 11 83 499 345 329 334 180 448 599 60 390 422 
598 9 331 372 443 191 423 242 249 472 325 
599 11 390 334 180 422 329 83 182 499 345 448 597 
600 11 377 385 146 460 566 469 542 238 484 196 3 
601 11 544 9 298 520 119 197 397 519 49 52 101 
602 11 8 139 421 328 492 402 396 321 425 447 153 
603 11 528 111 240 604 137 295 361 286 534 279 487 
604 11 240 603 528 361 111 286 137 279 295 534 388 
605 11 167 218 224 610 498 506 353 34 509 156 85 
606 11 578 365 608 145 325 582 352 191 249 592 408 
607 11 286 82 361 243 240 604 41 103 338 603 263 
608 11 582 578 592 104 365 403 378 606 249 327 352 
609 11 324 527 549 18 548 575 76 500 488 591 227 
610 11 167 85 605 218 506 206 462 224 202 442 353 
611 6 515 357 378 494 104 373 
612 10 507 131 226 503 594 579 332 45 366 350 
DEPOT_SECTION
   1
   -1
EOF
