NAME :  X-n670-kX-w133-c7.cctp
COMMENT : 	Adapted by Maziero, Usberti and Cavellucci from the Uchoa, Pecin, Pessoa, Poggi, Subramanian, and Vidal (2013)
TYPE :  CCTP
DIMENSION :    582
EDGE_WEIGHT_TYPE : 	EUC_2D	
CAPACITY : 	129
VERTICES_WITHIN_COVERAGE :  7
VERTICES_WITH_DEMAND : 	133
NODE_COORD_SECTION
1 612 199
2 864 279
3 746 395
4 738 519
5 684 851
6 806 263
7 867 314
8 637 357
9 64 531
10 803 657
11 22 330
12 634 731
13 351 945
14 240 812
15 664 595
16 775 1000
17 971 313
18 953 717
19 317 25
20 812 410
21 677 874
22 731 504
23 89 803
24 697 604
25 53 379
26 817 947
27 164 875
28 86 108
29 9 596
30 406 956
31 304 456
32 843 846
33 285 809
34 148 84
35 349 524
36 527 626
37 947 317
38 646 27
39 718 325
40 906 651
41 889 936
42 953 118
43 908 868
44 447 13
45 335 495
46 77 834
47 992 428
48 826 196
49 337 341
50 482 288
51 123 49
52 415 572
53 274 837
54 581 738
55 33 36
56 795 906
57 353 858
58 242 80
59 532 464
60 246 853
61 109 299
62 285 353
63 5 669
64 255 457
65 909 568
66 986 234
67 920 756
68 7 655
69 441 88
70 569 543
71 317 94
72 897 775
73 226 802
74 716 738
75 320 820
76 15 31
77 114 664
78 60 419
79 629 333
80 662 34
81 780 143
82 689 829
83 19 801
84 836 281
85 227 730
86 640 347
87 850 655
88 742 663
89 290 424
90 407 997
91 553 92
92 286 957
93 129 245
94 435 940
95 141 578
96 578 334
97 732 726
98 624 979
99 705 340
100 431 858
101 416 416
102 826 58
103 913 873
104 862 977
105 326 380
106 344 764
107 512 437
108 589 34
109 937 700
110 439 819
111 826 559
112 535 764
113 547 971
114 822 590
115 257 530
116 324 789
117 788 804
118 156 583
119 788 907
120 788 123
121 115 327
122 561 946
123 477 11
124 455 671
125 317 685
126 105 965
127 962 433
128 62 729
129 5 534
130 314 568
131 957 527
132 47 482
133 123 549
134 665 826
135 756 911
136 50 508
137 439 921
138 86 447
139 731 971
140 417 273
141 52 855
142 463 281
143 832 357
144 693 636
145 131 820
146 85 486
147 130 344
148 381 694
149 98 41
150 182 538
151 78 818
152 954 175
153 555 470
154 925 867
155 546 678
156 717 485
157 958 891
158 980 240
159 925 566
160 105 781
161 337 94
162 96 457
163 713 619
164 815 673
165 193 37
166 229 668
167 750 998
168 713 377
169 383 57
170 898 976
171 388 899
172 57 697
173 869 771
174 755 921
175 727 494
176 564 932
177 30 311
178 175 156
179 836 939
180 35 719
181 183 932
182 200 42
183 6 329
184 656 984
185 515 67
186 904 97
187 850 281
188 858 708
189 856 1
190 92 113
191 183 762
192 99 558
193 703 888
194 914 786
195 255 781
196 838 456
197 167 519
198 448 397
199 273 665
200 869 804
201 300 97
202 282 690
203 514 82
204 694 598
205 606 610
206 955 545
207 835 965
208 418 558
209 458 484
210 169 8
211 242 978
212 395 462
213 739 169
214 983 512
215 28 353
216 195 905
217 132 282
218 180 133
219 267 75
220 459 577
221 354 814
222 499 941
223 59 558
224 931 901
225 909 551
226 208 677
227 386 600
228 869 521
229 622 830
230 953 797
231 803 785
232 762 251
233 294 309
234 68 61
235 207 587
236 431 633
237 760 373
238 991 448
239 88 318
240 593 372
241 621 298
242 265 137
243 852 404
244 17 702
245 198 753
246 893 251
247 278 581
248 458 655
249 15 767
250 953 259
251 306 589
252 528 43
253 434 633
254 359 900
255 60 422
256 245 738
257 307 647
258 919 921
259 0 149
260 542 28
261 13 415
262 81 655
263 292 936
264 952 248
265 763 701
266 380 49
267 98 852
268 945 802
269 262 472
270 3 108
271 794 150
272 16 297
273 757 663
274 529 867
275 981 443
276 82 768
277 839 433
278 670 588
279 981 726
280 133 673
281 709 822
282 258 312
283 199 777
284 995 677
285 56 320
286 259 438
287 353 945
288 102 17
289 543 844
290 248 300
291 783 112
292 726 266
293 944 700
294 2 569
295 880 608
296 383 363
297 940 348
298 644 381
299 738 647
300 655 838
301 24 441
302 703 67
303 462 4
304 630 680
305 688 380
306 597 758
307 774 414
308 869 62
309 748 82
310 337 487
311 239 564
312 277 764
313 365 569
314 370 415
315 872 918
316 595 345
317 761 704
318 745 698
319 552 38
320 864 223
321 575 418
322 482 633
323 350 533
324 98 246
325 707 298
326 544 935
327 816 701
328 393 463
329 250 586
330 426 554
331 658 570
332 778 1
333 689 736
334 704 155
335 405 693
336 390 804
337 905 954
338 204 948
339 168 343
340 739 482
341 403 374
342 700 693
343 739 711
344 900 705
345 111 617
346 367 999
347 395 526
348 611 607
349 800 873
350 138 574
351 566 346
352 895 268
353 26 302
354 264 705
355 337 760
356 975 574
357 981 331
358 2 508
359 368 849
360 888 203
361 740 867
362 695 582
363 74 819
364 864 81
365 810 168
366 400 966
367 924 776
368 979 276
369 105 134
370 433 571
371 497 386
372 704 274
373 712 142
374 62 350
375 276 320
376 589 261
377 979 553
378 569 491
379 247 101
380 106 580
381 125 281
382 376 586
383 915 744
384 742 479
385 885 281
386 191 889
387 509 202
388 292 387
389 434 328
390 816 33
391 769 86
392 504 328
393 63 922
394 92 533
395 787 990
396 123 301
397 775 517
398 238 923
399 794 427
400 485 623
401 716 603
402 384 901
403 208 400
404 17 138
405 952 175
406 863 568
407 645 528
408 473 40
409 567 988
410 665 5
411 300 160
412 281 999
413 44 4
414 763 761
415 390 315
416 37 567
417 330 676
418 667 799
419 526 664
420 230 780
421 824 302
422 969 848
423 19 766
424 876 329
425 836 902
426 386 574
427 18 851
428 292 841
429 516 721
430 848 931
431 233 856
432 833 61
433 833 332
434 824 67
435 121 796
436 707 857
437 690 527
438 442 109
439 811 783
440 79 234
441 568 362
442 29 570
443 259 444
444 26 660
445 618 855
446 753 424
447 444 757
448 406 880
449 635 529
450 310 765
451 444 966
452 660 987
453 211 608
454 143 544
455 759 555
456 784 434
457 906 911
458 575 734
459 234 493
460 377 928
461 102 786
462 54 485
463 917 138
464 866 690
465 108 715
466 556 739
467 4 955
468 300 357
469 844 603
470 107 934
471 374 477
472 334 958
473 444 99
474 773 618
475 282 880
476 748 850
477 367 534
478 310 838
479 625 343
480 379 388
481 949 696
482 605 114
483 812 229
484 884 888
485 914 913
486 125 541
487 65 369
488 268 824
489 335 460
490 545 601
491 436 107
492 996 311
493 367 379
494 304 808
495 479 607
496 741 978
497 784 502
498 878 347
499 264 329
500 691 618
501 140 350
502 326 770
503 763 494
504 108 29
505 390 406
506 870 632
507 823 5
508 631 919
509 501 606
510 352 487
511 476 22
512 780 505
513 772 324
514 547 428
515 926 505
516 960 705
517 81 301
518 30 367
519 717 772
520 737 141
521 962 592
522 866 231
523 510 737
524 309 524
525 18 304
526 580 38
527 739 598
528 413 455
529 618 953
530 415 820
531 665 638
532 135 578
533 880 775
534 371 600
535 501 223
536 215 451
537 49 525
538 718 972
539 932 564
540 424 764
541 423 93
542 72 355
543 286 840
544 75 872
545 410 700
546 51 518
547 303 414
548 224 557
549 711 483
550 46 598
551 562 503
552 115 157
553 829 113
554 304 785
555 617 993
556 188 816
557 727 298
558 612 777
559 398 880
560 334 458
561 65 991
562 846 703
563 485 768
564 972 386
565 502 763
566 96 937
567 329 97
568 892 400
569 639 318
570 34 810
571 147 837
572 598 9
573 129 390
574 689 739
575 187 735
576 344 952
577 665 405
578 906 931
579 212 478
580 784 249
581 456 454
582 615 858
DEMAND_SECTION
2 50
3 86
4 94
5 54
6 57
7 52
8 66
9 76
10 69
11 57
12 77
13 94
14 64
15 79
16 91
17 55
18 79
19 68
20 51
21 93
22 91
23 68
24 51
25 93
26 91
27 91
28 59
29 76
30 57
31 96
32 97
33 69
34 83
35 58
36 56
37 81
38 96
39 52
40 86
41 78
42 92
43 67
44 56
45 56
46 51
47 91
48 93
49 73
50 70
51 77
52 91
53 64
54 81
55 76
56 51
57 75
58 81
59 57
60 50
61 80
62 53
63 86
64 61
65 62
66 100
67 94
68 89
69 88
70 52
71 60
72 83
73 79
74 64
75 82
76 72
77 90
78 72
79 51
80 88
81 82
82 78
83 80
84 82
85 98
86 70
87 74
88 61
89 88
90 51
91 60
92 57
93 84
94 65
95 57
96 51
97 77
98 63
99 55
100 53
101 88
102 90
103 89
104 70
105 94
106 50
107 62
108 87
109 56
110 89
111 73
112 88
113 94
114 63
115 90
116 86
117 53
118 70
119 75
120 92
121 94
122 67
123 59
124 94
125 52
126 52
127 71
128 79
129 76
130 87
131 54
132 63
133 92
134 69
COVERAGE_SECTION
2 7 187 385 84 352 7 246 421 
3 7 237 446 307 168 456 399 305 
4 7 22 175 503 340 397 156 384 
5 7 82 21 436 134 300 281 193 
6 7 580 84 483 421 232 187 2 
7 7 424 2 498 187 385 433 84 
8 7 86 479 79 298 569 316 240 
9 7 537 546 136 223 394 192 416 
10 7 164 273 327 87 474 265 88 
11 7 183 177 215 525 353 272 285 
12 7 306 304 558 54 333 574 458 
13 7 287 576 472 460 254 366 402 
14 7 73 488 195 420 60 53 33 
15 7 278 331 204 24 362 500 531 
16 7 395 167 496 139 538 26 207 
17 6 357 37 492 368 297 250 
18 7 516 293 481 109 279 383 67 
19 7 266 71 219 161 169 567 201 
20 7 399 277 456 307 243 196 143 
21 7 5 193 436 300 82 134 281 
22 7 175 4 340 156 384 549 503 
23 7 151 461 363 160 46 435 276 
24 7 204 500 401 163 362 278 144 
25 7 487 518 374 542 215 78 255 
26 7 179 207 430 56 119 425 395 
27 6 386 571 216 181 145 556 
28 7 190 369 234 552 34 149 51 
29 7 294 442 550 416 68 129 223 
30 7 366 94 451 460 90 137 287 
31 7 560 489 89 547 269 310 443 
32 7 200 349 425 484 43 117 439 
33 7 494 488 53 543 554 428 75 
34 7 51 218 190 165 28 149 369 
35 7 323 477 45 510 310 524 347 
36 6 490 509 419 400 322 495 
37 6 17 297 357 492 368 250 
38 7 80 410 572 108 526 302 319 
39 7 99 557 325 168 372 513 292 
40 7 506 295 344 87 464 109 293 
41 7 578 337 315 457 258 485 170 
42 4 463 186 152 405 
43 7 103 154 484 224 457 485 258 
44 7 303 123 511 408 69 266 169 
45 7 310 510 35 489 560 524 323 
46 7 363 151 267 23 141 544 570 
47 7 275 238 127 564 214 297 357 
48 7 365 483 320 522 271 360 580 
49 7 468 105 493 296 62 233 415 
50 5 142 392 389 140 535 
51 7 504 149 288 34 234 210 28 
52 7 208 370 330 426 227 382 220 
53 7 543 488 428 33 60 478 14 
54 7 458 466 306 558 12 112 429 
55 7 76 413 234 149 288 504 270 
56 7 119 349 135 425 174 26 179 
57 7 359 254 221 478 75 559 402 
58 7 379 219 182 201 242 165 71 
59 6 153 107 514 378 551 321 
60 7 431 53 488 14 543 475 428 
61 7 396 381 239 517 121 217 147 
62 7 468 499 375 388 233 105 282 
63 7 68 444 244 180 172 29 262 
64 7 443 269 286 536 459 89 579 
65 7 159 225 539 406 295 206 521 
66 5 158 264 250 368 152 
67 7 383 367 72 194 533 18 268 
68 7 63 444 244 29 172 550 180 
69 5 473 541 491 438 408 
70 6 551 378 490 449 153 205 
71 7 567 201 161 219 242 411 19 
72 7 533 194 367 173 67 383 200 
73 7 14 420 195 283 556 488 431 
74 7 97 333 574 519 343 342 318 
75 7 494 478 116 221 428 33 554 
76 7 55 413 234 270 149 288 504 
77 6 280 262 345 465 172 128 
78 7 255 138 25 301 261 487 162 
79 7 479 86 569 8 241 316 298 
80 6 38 410 302 572 108 526 
81 7 271 120 291 365 520 213 553 
82 7 281 5 134 436 300 418 21 
83 7 570 249 423 427 363 151 141 
84 7 187 421 2 6 7 385 433 
85 7 256 245 575 354 420 191 283 
86 7 8 479 79 569 298 316 240 
87 7 506 464 164 10 562 469 188 
88 7 273 299 318 265 317 343 342 
89 7 547 286 31 388 443 64 269 
90 7 366 346 30 451 94 287 460 
91 7 203 185 319 252 482 526 260 
92 7 263 412 472 211 576 398 13 
93 7 324 381 217 440 396 61 517 
94 7 137 451 30 366 460 171 90 
95 7 350 532 118 133 454 380 486 
96 7 351 316 441 240 479 79 241 
97 7 343 74 318 317 265 333 574 
98 7 555 529 184 452 409 508 122 
99 7 39 168 325 305 557 237 86 
100 7 448 110 559 530 171 137 359 
101 7 505 198 528 341 314 480 212 
102 6 432 434 390 308 364 507 
103 7 43 154 224 484 457 485 157 
104 7 207 170 179 430 41 337 26 
105 7 388 468 49 493 547 62 480 
106 7 355 502 116 450 554 221 494 
107 6 59 514 371 153 581 321 
108 7 526 572 319 260 38 252 91 
109 7 293 481 18 516 344 383 279 
110 6 530 100 336 540 447 448 
111 7 114 406 469 228 397 455 497 
112 7 466 565 523 429 458 563 54 
113 7 409 122 326 176 222 529 555 
114 7 469 111 406 474 295 506 10 
115 7 311 548 459 524 247 329 269 
116 7 502 554 450 494 75 106 355 
117 6 231 439 414 476 32 349 
118 7 95 350 532 454 133 380 235 
119 7 56 135 174 349 425 26 179 
120 7 291 81 271 391 553 365 520 
121 7 147 396 239 61 501 517 381 
122 7 176 326 113 409 529 222 98 
123 7 511 303 408 44 252 260 185 
124 7 248 253 236 322 545 335 400 
125 6 417 202 257 199 354 148 
126 4 566 470 561 393 
127 7 275 47 238 564 568 515 214 
128 7 180 172 276 465 244 423 249 
129 7 358 294 442 537 416 546 136 
130 7 251 247 524 323 313 35 477 
131 7 206 214 377 515 539 159 356 
132 7 462 136 546 146 537 301 9 
133 7 486 454 192 350 532 95 380 
134 7 300 82 418 5 229 281 21 
135 7 174 119 56 361 193 349 476 
136 7 546 537 462 132 9 146 358 
137 7 94 451 30 448 171 559 402 
138 6 162 255 78 146 462 132 
139 7 496 538 167 16 174 395 135 
140 4 142 415 389 50 
141 7 544 46 427 363 151 267 570 
142 6 50 140 389 392 535 415 
143 7 433 498 243 424 7 421 20 
144 7 500 163 531 24 204 401 299 
145 7 571 435 23 461 267 160 151 
146 7 162 462 132 138 136 546 394 
147 7 501 121 339 396 573 239 61 
148 4 335 545 417 125 
149 7 504 288 51 234 55 413 34 
150 4 197 454 548 118 
151 7 363 46 23 267 461 141 570 
152 7 405 463 42 66 158 360 264 
153 6 59 378 551 514 107 321 
154 7 103 43 224 157 484 485 422 
155 4 419 429 36 466 
156 6 549 175 340 22 384 4 
157 6 224 154 422 103 258 485 
158 4 66 264 250 368 
159 7 539 65 225 206 521 131 356 
160 6 461 435 276 23 151 145 
161 6 567 71 201 169 266 19 
162 6 138 146 255 462 78 132 
163 7 401 24 500 144 204 527 299 
164 7 10 327 87 562 464 188 265 
165 7 182 210 34 58 51 219 379 
166 5 226 199 354 202 85 
167 7 496 16 139 395 538 174 26 
168 6 305 3 99 237 39 577 
169 7 266 541 161 69 567 19 491 
170 5 337 104 41 578 258 
171 7 402 559 448 254 460 57 359 
172 7 180 128 244 262 444 465 63 
173 7 533 72 200 194 67 383 367 
174 7 135 119 56 139 361 496 193 
175 7 22 156 340 549 384 4 503 
176 7 122 326 113 409 529 222 508 
177 6 353 525 272 11 285 183 
178 6 218 552 369 34 379 242 
179 7 430 26 207 425 315 104 41 
180 7 244 128 172 423 249 63 444 
181 7 338 216 386 398 27 211 470 
182 7 165 210 58 34 219 379 51 
183 7 11 525 177 215 272 353 518 
184 7 452 98 555 529 538 508 139 
185 7 203 252 91 260 319 408 511 
186 4 364 463 308 42 
187 7 2 84 421 385 7 352 6 
188 6 562 464 344 327 87 164 
189 5 507 390 308 102 432 
190 7 28 369 552 234 34 51 149 
191 6 245 283 575 420 85 556 
192 7 380 133 394 486 223 532 350 
193 7 21 436 5 361 135 476 82 
194 7 367 72 67 268 533 230 383 
195 7 420 312 14 73 33 256 488 
196 7 277 20 399 243 456 497 228 
197 4 150 454 486 133 
198 6 101 371 341 581 505 528 
199 5 202 257 354 166 125 
200 7 533 173 72 194 32 367 439 
201 7 71 567 161 219 242 379 58 
202 6 354 199 125 257 417 166 
203 7 185 91 252 319 408 260 511 
204 7 24 362 500 401 278 163 15 
205 2 348 15 
206 7 131 377 539 356 159 214 225 
207 7 26 179 104 430 395 315 41 
208 6 330 52 370 426 347 220 
209 6 581 528 212 328 107 347 
210 7 165 182 51 504 288 149 34 
211 7 412 338 92 398 263 181 216 
212 6 328 528 471 510 101 314 
213 5 520 334 373 81 271 
214 7 131 377 206 515 356 238 275 
215 7 518 11 183 374 25 487 177 
216 7 386 181 27 338 398 431 60 
217 7 381 396 61 93 121 324 517 
218 6 178 34 552 379 369 58 
219 7 58 379 201 71 242 567 19 
220 7 370 495 330 52 208 509 400 
221 7 75 336 359 116 57 478 494 
222 7 326 113 451 122 137 94 176 
223 7 416 9 442 537 192 394 546 
224 6 485 258 457 157 103 154 
225 7 65 159 539 206 406 515 228 
226 5 166 85 575 354 199 
227 7 534 382 426 313 52 208 370 
228 7 406 225 111 515 65 159 196 
229 5 445 582 300 134 558 
230 7 268 367 194 67 422 72 383 
231 6 439 117 414 173 200 32 
232 6 580 292 6 483 557 372 
233 7 375 282 499 62 290 468 49 
234 7 149 55 28 504 51 288 190 
235 6 453 548 311 329 118 150 
236 7 253 248 124 322 400 495 227 
237 7 3 307 168 513 446 20 39 
238 7 275 47 127 214 564 131 515 
239 6 517 61 121 285 396 542 
240 7 316 441 351 96 479 8 321 
241 5 569 79 479 376 86 
242 6 379 411 201 58 219 71 
243 7 277 20 568 143 196 399 498 
244 7 180 63 172 444 68 128 423 
245 7 191 575 283 85 420 256 73 
246 5 352 385 522 2 320 
247 6 329 251 130 311 115 548 
248 7 124 253 322 236 400 495 335 
249 7 423 83 570 180 128 244 276 
250 4 264 368 158 66 
251 6 130 247 329 257 313 524 
252 7 260 319 185 203 526 91 408 
253 7 236 248 124 322 400 495 227 
254 7 402 171 460 57 559 287 13 
255 7 78 138 301 25 261 162 487 
256 7 85 354 312 195 420 245 575 
257 6 417 199 125 202 251 247 
258 6 485 457 578 224 41 337 
259 3 404 270 28 
260 7 319 252 526 108 185 572 203 
261 7 301 78 255 518 25 215 487 
262 7 77 172 345 280 444 465 550 
263 7 92 472 576 398 475 13 287 
264 4 250 158 66 368 
265 7 317 318 343 273 97 88 327 
266 7 169 161 541 19 567 69 44 
267 6 46 544 151 363 141 145 
268 7 230 367 194 67 422 72 383 
269 7 64 443 286 459 31 579 536 
270 6 404 259 55 76 234 28 
271 7 81 365 120 291 553 48 213 
272 6 525 353 177 11 183 285 
273 7 88 299 318 265 317 10 474 
274 5 289 326 176 222 122 
275 7 238 47 127 564 214 515 131 
276 7 160 461 23 128 435 151 363 
277 7 196 243 20 399 456 568 307 
278 7 15 331 204 362 24 500 401 
279 7 18 516 481 293 109 284 67 
280 6 77 465 262 345 226 172 
281 7 82 436 5 134 418 476 519 
282 6 290 499 375 233 62 468 
283 7 191 245 420 73 556 575 14 
284 6 516 481 279 293 18 109 
285 6 177 374 517 239 11 353 
286 7 443 64 89 269 536 31 547 
287 7 13 576 472 460 254 366 30 
288 7 504 149 51 234 413 210 55 
289 5 274 582 445 112 229 
290 5 282 499 375 233 62 
291 7 120 391 81 271 309 553 520 
292 6 372 557 325 232 39 580 
293 7 481 109 516 18 344 279 383 
294 7 442 29 129 416 550 223 358 
295 7 506 469 406 65 40 87 114 
296 7 341 493 480 505 415 49 314 
297 7 37 357 17 564 498 424 492 
298 6 8 577 86 479 305 79 
299 7 88 273 163 474 144 401 527 
300 7 134 5 229 82 418 445 21 
301 7 261 255 78 132 462 138 25 
302 6 309 80 391 38 410 373 
303 7 44 123 511 408 252 185 260 
304 2 12 531 
305 6 168 577 99 298 8 86 
306 6 558 54 458 466 12 112 
307 6 456 446 399 3 20 237 
308 3 364 432 102 
309 7 391 291 302 120 520 81 373 
310 7 45 510 489 560 471 35 31 
311 6 548 329 115 235 247 453 
312 7 195 450 554 256 33 502 420 
313 7 382 426 534 477 227 323 35 
314 7 505 480 493 101 212 328 341 
315 7 41 430 484 457 578 425 179 
316 7 96 240 351 479 441 79 8 
317 7 265 318 343 97 273 88 327 
318 7 343 317 265 97 88 273 342 
319 7 260 252 526 108 185 91 572 
320 6 522 360 246 48 483 352 
321 5 514 240 153 441 59 
322 7 400 495 248 509 36 124 253 
323 7 35 477 313 45 524 347 510 
324 7 440 93 381 217 61 517 396 
325 6 557 372 39 292 99 513 
326 7 122 176 113 222 409 274 529 
327 6 164 562 188 10 464 265 
328 6 212 528 471 510 101 314 
329 6 311 247 548 235 453 115 
330 6 208 370 52 220 347 426 
331 6 278 15 362 407 204 449 
332 7 507 390 102 189 434 432 391 
333 6 574 74 97 342 519 12 
334 4 373 520 213 81 
335 3 545 148 124 
336 6 530 221 359 110 540 106 
337 6 170 578 41 258 485 457 
338 7 181 398 216 211 386 92 27 
339 5 501 147 121 573 396 
340 6 384 175 156 22 503 549 
341 7 296 480 505 493 101 198 314 
342 5 343 333 318 97 574 
343 7 318 97 317 265 74 342 88 
344 7 109 464 188 383 293 481 18 
345 7 380 532 77 262 95 350 118 
346 7 90 366 576 472 13 287 30 
347 6 477 208 330 35 323 426 
348 2 205 15 
349 7 56 119 425 32 476 135 361 
350 7 95 532 118 133 454 380 486 
351 4 441 96 316 240 
352 4 385 246 2 187 
353 6 525 177 272 11 183 285 
354 6 202 256 199 85 166 125 
355 7 106 502 450 116 554 221 494 
356 6 377 521 206 539 131 159 
357 7 17 492 37 297 368 564 250 
358 7 129 136 537 546 132 462 294 
359 7 57 221 559 448 336 254 171 
360 5 320 522 246 48 352 
361 7 476 436 193 135 281 174 5 
362 7 204 24 278 401 15 500 331 
363 7 151 46 23 267 570 141 461 
364 5 308 432 434 186 102 
365 7 271 48 81 120 553 483 291 
366 7 30 90 94 451 460 346 287 
367 7 194 67 72 268 383 230 533 
368 7 250 158 17 264 492 66 37 
369 7 190 552 28 34 178 218 234 
370 7 52 330 208 220 426 227 495 
371 3 198 107 392 
372 4 292 325 557 39 
373 5 334 520 213 81 309 
374 6 542 487 25 285 215 518 
375 7 499 282 233 62 290 468 49 
376 2 241 96 
377 7 356 206 131 214 521 539 159 
378 5 551 153 59 70 514 
379 7 58 219 242 201 71 218 182 
380 7 192 532 350 95 133 345 486 
381 7 217 396 61 93 324 121 517 
382 7 534 426 227 313 52 208 477 
383 7 67 367 72 194 344 18 533 
384 6 340 175 156 503 22 549 
385 5 352 2 246 187 7 
386 7 216 27 181 431 398 338 60 
387 2 535 50 
388 7 547 468 62 105 89 286 49 
389 6 415 142 341 140 50 296 
390 7 102 507 432 434 332 189 308 
391 7 309 291 120 81 434 102 520 
392 4 50 371 142 351 
393 4 566 470 544 126 
394 7 192 9 486 133 223 537 546 
395 7 16 167 496 26 207 139 179 
396 7 61 381 217 121 239 517 147 
397 7 512 497 503 4 455 22 340 
398 7 338 216 211 181 263 386 92 
399 7 456 307 20 446 277 196 3 
400 7 322 495 509 36 248 253 220 
401 7 163 24 204 527 500 362 144 
402 7 171 254 559 460 448 57 287 
403 5 536 286 443 339 64 
404 4 259 270 28 190 
405 7 152 463 42 66 360 158 264 
406 7 111 469 295 65 114 228 225 
407 5 449 331 437 278 15 
408 7 511 123 44 303 185 252 69 
409 7 113 122 555 176 98 326 529 
410 7 38 80 572 302 108 526 309 
411 5 242 201 71 567 161 
412 7 92 211 263 472 576 346 398 
413 7 55 76 288 234 149 504 51 
414 6 97 231 519 117 74 439 
415 7 389 296 140 49 341 493 480 
416 7 442 223 550 294 29 537 9 
417 6 125 257 202 148 199 354 
418 7 134 82 300 281 5 229 519 
419 6 155 36 322 400 429 509 
420 7 73 195 283 14 245 256 85 
421 7 84 433 187 6 7 2 143 
422 7 157 154 268 230 103 43 224 
423 7 249 83 570 180 128 276 244 
424 7 7 498 433 385 2 143 187 
425 7 430 179 315 56 349 119 26 
426 7 382 313 227 52 534 208 477 
427 7 141 570 83 46 544 363 151 
428 7 543 53 478 488 33 75 494 
429 7 523 466 565 112 155 563 419 
430 7 179 315 425 26 207 41 104 
431 7 60 14 53 488 386 73 475 
432 6 102 434 390 308 364 553 
433 7 143 421 7 424 498 84 187 
434 6 102 432 390 364 308 553 
435 7 461 160 145 23 151 276 571 
436 7 5 193 82 21 361 281 476 
437 6 407 22 4 549 156 175 
438 4 491 473 69 541 
439 6 231 117 414 173 200 533 
440 5 324 93 381 517 61 
441 4 351 240 96 316 
442 7 416 294 223 29 550 129 537 
443 7 286 64 269 89 536 31 547 
444 7 68 63 244 172 262 180 550 
445 5 582 229 300 134 21 
446 6 307 3 456 399 237 384 
447 4 540 563 565 110 
448 7 559 171 402 100 359 254 137 
449 5 407 331 437 70 278 
450 7 502 554 355 116 312 106 494 
451 7 94 30 366 137 90 222 460 
452 7 184 98 555 529 538 139 508 
453 5 235 329 311 548 118 
454 7 486 133 350 95 197 532 150 
455 7 397 4 527 512 22 497 503 
456 6 399 307 446 20 3 277 
457 7 485 258 578 224 41 484 315 
458 7 54 466 306 112 558 12 429 
459 6 579 269 64 115 536 443 
460 7 402 287 13 171 254 30 576 
461 7 160 23 435 276 151 363 145 
462 7 132 136 146 546 537 9 138 
463 5 42 186 405 152 360 
464 7 188 562 344 87 327 164 40 
465 6 128 280 77 172 276 160 
466 7 458 54 112 429 306 523 565 
467 5 393 561 566 126 427 
468 7 62 388 105 49 375 499 233 
469 7 114 295 506 406 111 87 10 
470 4 566 126 393 544 
471 7 328 510 212 310 45 489 560 
472 7 576 13 287 263 92 460 346 
473 4 438 69 491 541 
474 7 527 299 273 10 88 114 401 
475 7 428 543 53 60 478 431 263 
476 7 361 436 281 349 193 117 135 
477 7 323 35 347 313 426 510 45 
478 7 428 75 543 494 53 33 488 
479 7 79 86 8 569 316 298 240 
480 7 493 505 296 314 341 101 105 
481 7 293 109 516 18 279 284 344 
482 6 91 526 108 319 38 203 
483 7 580 6 48 320 522 232 84 
484 7 43 315 457 103 485 154 41 
485 6 457 258 578 224 41 484 
486 7 133 454 192 394 350 532 95 
487 7 25 542 374 518 215 78 285 
488 7 53 33 543 428 14 60 494 
489 7 560 310 31 510 45 471 547 
490 4 36 509 205 70 
491 4 438 473 541 69 
492 7 17 357 368 37 250 297 158 
493 7 480 296 505 314 341 105 49 
494 7 33 75 554 116 478 428 543 
495 7 400 509 322 220 36 248 253 
496 7 139 167 538 16 395 174 135 
497 7 512 397 503 384 4 340 22 
498 7 424 7 143 433 568 297 243 
499 6 375 282 62 290 233 468 
500 7 24 144 204 163 401 531 15 
501 6 147 339 121 573 396 61 
502 7 355 450 106 116 554 494 312 
503 7 512 497 384 397 340 22 4 
504 7 288 149 51 234 210 34 413 
505 7 480 314 101 341 493 296 528 
506 7 295 87 469 40 464 114 406 
507 6 390 189 332 102 432 434 
508 7 529 98 582 21 445 176 184 
509 7 495 400 36 322 490 220 419 
510 7 310 45 471 489 560 35 323 
511 7 123 408 303 44 252 185 260 
512 7 497 397 503 4 384 340 22 
513 7 237 557 39 421 433 143 99 
514 4 321 107 59 153 
515 7 131 206 225 214 228 539 159 
516 7 18 481 293 109 279 284 344 
517 6 239 61 285 396 121 381 
518 7 215 25 487 374 11 542 183 
519 7 74 574 333 414 97 281 418 
520 6 373 213 334 81 120 291 
521 6 356 539 377 159 206 65 
522 6 320 246 360 352 2 187 
523 6 429 565 112 563 466 458 
524 7 45 35 323 130 310 115 510 
525 6 272 353 177 11 183 285 
526 7 108 319 572 260 252 91 38 
527 7 401 163 474 24 204 362 455 
528 7 212 328 101 581 471 209 505 
529 7 98 508 555 184 452 122 176 
530 7 110 336 100 359 540 221 448 
531 5 144 500 15 24 204 
532 7 350 95 118 380 133 454 486 
533 7 173 72 200 194 67 367 383 
534 7 227 382 426 313 52 208 130 
535 3 387 50 142 
536 7 579 64 443 286 459 269 403 
537 7 546 9 136 223 462 132 394 
538 7 139 496 167 452 174 184 16 
539 7 159 65 225 206 521 356 131 
540 4 447 336 110 530 
541 4 69 491 473 438 
542 6 374 487 25 285 239 215 
543 7 428 53 478 488 33 494 75 
544 5 141 267 46 393 363 
545 3 335 148 124 
546 7 537 136 9 462 132 223 394 
547 7 89 388 105 31 286 443 560 
548 5 311 235 329 115 150 
549 6 156 175 340 22 384 4 
550 7 416 442 29 223 294 380 444 
551 6 378 153 70 59 514 449 
552 7 369 190 28 178 218 34 440 
553 6 120 291 434 364 271 432 
554 7 116 450 494 502 33 312 75 
555 7 98 184 529 452 409 113 122 
556 7 73 283 571 14 191 420 145 
557 7 325 39 292 372 99 513 232 
558 6 306 54 12 229 458 418 
559 7 448 171 402 100 359 254 57 
560 7 489 310 31 510 45 471 547 
561 5 126 566 393 467 470 
562 6 188 464 327 164 87 344 
563 6 565 523 447 112 429 540 
564 7 47 127 297 357 275 238 17 
565 6 563 523 112 429 447 466 
566 4 470 126 393 561 
567 7 161 71 201 219 169 411 266 
568 7 243 498 277 297 424 143 127 
569 6 79 241 86 479 8 316 
570 7 83 363 427 151 423 249 141 
571 7 145 27 556 435 267 23 386 
572 7 108 526 38 319 260 410 80 
573 4 501 147 339 121 
574 6 333 74 519 97 342 12 
575 6 245 191 85 283 256 226 
576 7 13 287 472 460 346 254 263 
577 3 298 305 8 
578 6 258 41 457 485 337 315 
579 5 459 536 64 269 443 
580 6 232 6 483 292 84 421 
581 7 209 528 101 198 107 212 328 
582 5 445 229 300 134 508 
DEPOT_SECTION
   1
   -1
EOF
