NAME :  X-n641-kX-w128-c11.cctp
COMMENT : 	Adapted by Maziero, Usberti and Cavellucci from the Uchoa, Pecin, Pessoa, Poggi, Subramanian, and Vidal (2013)
TYPE :  CCTP
DIMENSION :    533
EDGE_WEIGHT_TYPE : 	EUC_2D	
CAPACITY : 	1381
VERTICES_WITHIN_COVERAGE :  11
VERTICES_WITH_DEMAND : 	128
NODE_COORD_SECTION
1 0 0
2 80 386
3 521 652
4 597 936
5 836 69
6 503 987
7 618 169
8 115 662
9 312 175
10 78 83
11 364 317
12 12 454
13 980 537
14 403 383
15 144 443
16 739 464
17 886 511
18 904 106
19 794 539
20 821 608
21 781 347
22 336 490
23 101 736
24 365 68
25 618 684
26 282 286
27 311 806
28 557 793
29 54 50
30 651 264
31 619 661
32 156 994
33 950 369
34 183 707
35 673 856
36 5 651
37 867 449
38 946 914
39 75 82
40 522 8
41 573 493
42 833 699
43 881 677
44 201 77
45 536 593
46 67 895
47 99 113
48 120 133
49 428 231
50 701 845
51 190 508
52 431 218
53 626 782
54 113 914
55 569 117
56 865 639
57 708 9
58 511 977
59 104 838
60 229 467
61 956 568
62 431 929
63 615 707
64 913 42
65 854 504
66 236 176
67 377 404
68 380 468
69 590 752
70 620 146
71 616 746
72 675 114
73 556 640
74 99 777
75 12 194
76 920 116
77 846 384
78 525 23
79 199 348
80 813 875
81 757 593
82 573 358
83 264 448
84 132 556
85 289 765
86 246 267
87 245 876
88 235 592
89 648 790
90 378 754
91 636 653
92 555 181
93 738 446
94 130 836
95 882 942
96 102 787
97 669 905
98 490 45
99 883 547
100 971 638
101 256 227
102 775 935
103 489 411
104 826 228
105 514 866
106 129 566
107 7 118
108 415 820
109 161 160
110 27 21
111 695 395
112 64 937
113 121 847
114 770 896
115 264 607
116 174 871
117 20 546
118 986 803
119 379 259
120 728 180
121 686 273
122 133 869
123 157 499
124 784 186
125 649 934
126 999 236
127 670 615
128 978 479
129 646 823
130 193 565
131 26 411
132 114 126
133 661 528
134 946 326
135 223 602
136 695 420
137 172 317
138 116 701
139 940 438
140 732 172
141 837 507
142 125 570
143 542 708
144 441 235
145 808 413
146 68 374
147 582 768
148 220 519
149 593 651
150 71 712
151 26 569
152 918 629
153 165 731
154 227 977
155 788 366
156 33 507
157 597 983
158 299 617
159 799 35
160 529 178
161 235 743
162 118 484
163 477 280
164 591 189
165 743 221
166 807 670
167 163 621
168 874 932
169 245 24
170 960 27
171 139 44
172 45 584
173 281 434
174 684 501
175 20 905
176 80 256
177 57 354
178 306 107
179 167 289
180 952 66
181 862 741
182 240 516
183 782 700
184 82 208
185 951 550
186 710 44
187 537 764
188 407 191
189 629 133
190 608 911
191 760 125
192 727 517
193 295 706
194 679 836
195 73 420
196 637 903
197 297 723
198 55 920
199 676 550
200 933 456
201 812 155
202 326 903
203 116 175
204 344 992
205 28 667
206 439 245
207 891 450
208 224 732
209 156 734
210 390 441
211 663 560
212 115 896
213 655 766
214 210 731
215 42 176
216 505 517
217 923 66
218 490 844
219 342 859
220 210 644
221 313 79
222 399 775
223 79 559
224 876 843
225 631 889
226 182 284
227 471 120
228 634 721
229 666 397
230 943 776
231 533 441
232 752 907
233 617 648
234 9 749
235 494 54
236 921 869
237 824 250
238 30 694
239 134 209
240 732 105
241 594 990
242 159 769
243 23 693
244 323 707
245 163 660
246 509 133
247 187 933
248 910 526
249 470 949
250 522 961
251 602 499
252 655 931
253 469 942
254 697 600
255 320 62
256 561 574
257 948 781
258 857 586
259 465 816
260 237 237
261 383 701
262 918 448
263 247 860
264 434 167
265 531 937
266 668 318
267 774 375
268 104 5
269 974 242
270 351 968
271 227 311
272 622 385
273 163 308
274 371 880
275 696 912
276 213 649
277 754 894
278 45 61
279 40 711
280 817 333
281 724 419
282 668 100
283 704 881
284 325 252
285 128 217
286 736 6
287 156 513
288 964 237
289 976 765
290 324 55
291 69 89
292 782 635
293 728 176
294 585 289
295 819 986
296 159 806
297 800 708
298 249 15
299 984 964
300 305 628
301 58 257
302 126 305
303 846 680
304 753 995
305 324 862
306 604 499
307 146 700
308 341 10
309 928 90
310 476 660
311 829 244
312 82 705
313 256 442
314 991 305
315 639 197
316 269 436
317 368 469
318 642 479
319 598 732
320 424 158
321 825 660
322 763 320
323 322 598
324 399 34
325 293 447
326 52 693
327 510 68
328 74 921
329 407 511
330 226 284
331 220 690
332 552 210
333 773 211
334 107 524
335 838 205
336 337 6
337 176 182
338 634 388
339 385 440
340 815 247
341 501 475
342 779 37
343 334 614
344 882 390
345 993 28
346 873 112
347 176 798
348 827 224
349 644 148
350 322 862
351 315 24
352 537 103
353 861 100
354 529 695
355 675 210
356 651 310
357 156 759
358 258 426
359 461 838
360 897 59
361 793 157
362 322 547
363 135 711
364 297 252
365 999 191
366 969 151
367 125 723
368 150 672
369 795 214
370 350 425
371 665 129
372 849 63
373 944 384
374 905 477
375 139 781
376 714 36
377 601 599
378 210 25
379 946 53
380 494 646
381 214 534
382 815 93
383 787 203
384 78 693
385 274 414
386 150 697
387 326 92
388 88 487
389 167 677
390 861 91
391 897 123
392 343 723
393 709 256
394 161 685
395 344 459
396 765 159
397 925 425
398 968 213
399 958 32
400 182 410
401 236 454
402 383 370
403 543 638
404 865 349
405 372 21
406 822 586
407 858 405
408 342 363
409 616 158
410 486 681
411 158 353
412 297 721
413 260 277
414 222 118
415 950 162
416 912 123
417 266 332
418 995 300
419 504 663
420 213 291
421 311 101
422 839 250
423 745 198
424 203 441
425 363 40
426 784 472
427 885 406
428 700 166
429 111 581
430 487 673
431 809 201
432 928 16
433 705 463
434 944 90
435 97 553
436 102 636
437 825 382
438 592 743
439 714 307
440 187 755
441 254 453
442 902 75
443 798 382
444 551 296
445 434 531
446 785 320
447 602 101
448 491 528
449 762 360
450 199 695
451 537 609
452 784 464
453 858 232
454 476 651
455 792 611
456 786 74
457 311 127
458 344 152
459 870 351
460 96 627
461 849 350
462 162 623
463 927 85
464 691 398
465 429 14
466 931 162
467 588 689
468 893 374
469 641 165
470 713 335
471 867 100
472 268 664
473 967 508
474 420 424
475 254 301
476 532 657
477 498 805
478 337 176
479 987 16
480 541 973
481 904 81
482 909 104
483 288 561
484 338 491
485 338 376
486 424 749
487 867 374
488 756 316
489 346 454
490 749 172
491 354 322
492 848 346
493 608 213
494 814 327
495 953 337
496 516 661
497 309 323
498 954 164
499 186 520
500 328 22
501 379 303
502 69 822
503 976 260
504 935 103
505 416 97
506 796 236
507 23 550
508 805 226
509 186 633
510 758 423
511 354 509
512 972 238
513 188 816
514 690 234
515 903 72
516 822 239
517 503 89
518 479 604
519 160 694
520 276 471
521 266 428
522 526 710
523 345 206
524 106 676
525 684 391
526 665 384
527 225 747
528 586 399
529 807 230
530 918 94
531 259 751
532 855 222
533 476 548
DEMAND_SECTION
2 59
3 87
4 98
5 73
6 70
7 64
8 98
9 87
10 99
11 78
12 68
13 99
14 53
15 56
16 66
17 67
18 74
19 86
20 75
21 71
22 87
23 87
24 66
25 71
26 75
27 62
28 78
29 83
30 63
31 95
32 52
33 57
34 58
35 65
36 86
37 85
38 58
39 84
40 92
41 50
42 72
43 76
44 79
45 58
46 100
47 94
48 86
49 70
50 80
51 75
52 86
53 95
54 94
55 79
56 97
57 56
58 88
59 72
60 58
61 64
62 51
63 84
64 71
65 95
66 68
67 75
68 95
69 95
70 63
71 63
72 65
73 88
74 84
75 68
76 67
77 98
78 72
79 61
80 73
81 84
82 65
83 87
84 94
85 90
86 50
87 87
88 96
89 51
90 84
91 93
92 68
93 71
94 74
95 84
96 70
97 52
98 77
99 98
100 77
101 99
102 100
103 62
104 96
105 69
106 74
107 88
108 85
109 59
110 86
111 69
112 53
113 79
114 70
115 53
116 51
117 50
118 70
119 66
120 88
121 76
122 52
123 57
124 57
125 100
126 95
127 51
128 76
129 51
COVERAGE_SECTION
2 11 146 195 177 131 411 15 302 12 388 162 400 
3 11 496 476 419 403 380 73 430 354 410 454 310 
4 11 190 157 125 196 241 225 252 265 480 97 250 
5 9 372 382 390 353 471 159 456 346 360 
6 11 58 250 480 249 253 265 241 62 157 4 105 
7 11 409 70 469 349 164 315 189 493 371 92 355 
8 11 524 436 368 138 460 245 384 307 386 394 363 
9 11 478 458 523 457 178 421 66 101 284 364 387 
10 11 39 291 47 278 29 132 48 171 107 110 268 
11 10 491 501 408 497 402 119 485 284 14 26 
12 11 131 156 195 388 117 2 507 146 162 177 151 
13 11 185 473 61 128 248 200 374 17 99 100 139 
14 11 402 67 474 210 339 408 485 370 11 491 501 
15 11 162 400 123 424 287 388 195 51 2 60 499 
16 11 93 433 452 510 426 281 192 136 174 111 464 
17 11 248 65 99 374 141 207 37 262 200 185 258 
18 11 482 391 530 76 416 481 309 442 463 504 346 
19 11 141 406 81 426 65 192 455 20 452 258 99 
20 11 406 455 258 292 321 56 166 81 19 303 99 
21 9 155 449 446 267 322 280 443 494 488 
22 10 484 511 395 489 317 68 362 325 520 370 
23 11 367 312 138 150 74 363 384 96 209 307 375 
24 11 425 290 255 387 324 405 221 500 505 308 421 
25 11 31 63 467 91 233 228 149 319 71 438 69 
26 11 413 475 364 86 497 417 284 330 271 101 260 
27 11 85 305 350 219 531 197 263 90 412 392 222 
28 10 147 187 69 477 438 53 319 71 218 105 
29 11 278 39 110 10 291 268 47 107 171 132 48 
30 11 121 356 514 266 355 393 493 315 294 439 470 
31 11 233 91 25 149 467 63 228 377 73 127 319 
32 11 247 154 54 212 112 328 116 198 122 46 87 
33 7 373 495 134 468 397 139 344 
34 11 450 519 153 394 386 389 214 209 307 331 208 
35 11 194 50 283 129 97 225 196 275 89 252 125 
36 10 205 243 238 326 279 172 384 151 150 312 
37 11 207 407 374 427 262 65 344 397 17 141 200 
38 11 236 299 95 168 224 118 257 230 80 295 289 
39 11 10 291 278 29 47 132 48 171 107 110 268 
40 11 78 98 235 327 517 465 352 55 227 447 246 
41 11 251 306 231 318 216 341 256 448 133 528 45 
42 11 303 297 166 321 181 183 43 56 292 20 455 
43 11 303 56 42 321 152 181 166 297 20 258 100 
44 10 414 378 169 171 298 109 48 132 66 47 
45 11 451 256 403 73 518 3 476 377 380 496 533 
46 11 328 198 112 175 212 54 59 122 113 502 94 
47 11 132 48 10 291 39 203 278 29 109 171 215 
48 11 132 47 203 109 10 291 39 337 239 184 285 
49 11 52 144 206 188 119 264 163 320 501 523 284 
50 11 194 35 283 129 275 97 277 89 232 225 114 
51 11 499 148 123 287 381 182 60 130 424 401 84 
52 11 49 144 206 188 264 320 119 163 523 501 478 
53 11 89 213 71 129 147 69 438 319 228 28 63 
54 11 212 328 122 46 112 198 113 116 247 59 94 
55 11 352 447 70 189 246 409 92 7 517 160 164 
56 11 43 303 321 20 152 258 166 42 406 455 292 
57 11 286 376 186 342 159 240 282 456 72 191 371 
58 11 6 250 480 265 249 253 241 157 62 4 105 
59 11 113 94 502 122 96 212 74 296 375 46 54 
60 11 401 441 313 424 83 520 182 358 316 148 521 
61 11 185 13 473 248 100 152 99 17 128 258 374 
62 11 253 249 274 270 6 58 250 359 265 218 105 
63 11 25 228 319 467 71 438 31 69 91 233 149 
64 11 360 217 432 515 379 442 481 463 180 399 170 
65 11 141 17 99 37 374 248 207 19 426 452 258 
66 11 101 337 414 260 9 109 457 86 364 178 478 
67 10 14 370 402 339 210 474 485 408 489 68 
68 11 317 339 210 395 489 484 22 511 329 370 474 
69 11 438 147 319 71 53 63 28 187 228 467 143 
70 11 409 189 7 349 469 371 447 164 315 55 72 
71 11 319 438 69 228 53 63 147 213 89 25 467 
72 11 282 371 349 189 240 428 469 70 409 447 186 
73 11 403 476 451 3 149 496 45 419 467 354 377 
74 11 96 375 23 502 357 367 59 242 94 296 150 
75 11 215 184 107 301 176 203 285 47 291 132 239 
76 11 416 482 18 504 530 391 309 463 434 481 442 
77 11 437 487 407 461 344 492 404 459 427 145 443 
78 11 40 98 235 327 517 352 465 55 447 227 246 
79 11 137 411 271 273 420 400 226 179 330 417 475 
80 11 114 277 232 102 224 168 95 236 283 295 50 
81 11 455 292 254 19 406 20 192 127 166 199 321 
82 11 528 272 444 338 294 231 356 526 103 229 266 
83 10 313 441 316 521 173 358 520 325 401 385 
84 11 106 142 429 435 334 287 223 123 130 499 167 
85 10 531 197 412 27 161 193 527 244 392 208 
86 11 413 330 260 475 26 101 420 271 364 226 417 
87 11 263 116 350 305 247 513 202 27 219 154 347 
88 11 135 115 130 220 276 483 381 509 158 148 182 
89 11 53 213 129 71 194 69 147 228 35 438 50 
90 6 222 486 392 261 244 108 
91 11 31 233 25 149 127 63 467 377 228 73 254 
92 11 160 332 164 493 7 409 55 246 70 352 315 
93 11 16 281 510 433 452 136 426 111 464 192 145 
94 11 113 59 122 296 96 116 375 347 513 212 502 
95 11 168 38 295 236 80 224 299 102 114 232 277 
96 11 74 375 502 23 59 94 242 296 357 113 367 
97 11 275 252 196 125 225 283 35 190 50 194 4 
98 11 235 327 78 517 40 465 352 227 246 505 324 
99 11 248 17 258 65 141 185 406 374 61 20 19 
100 11 152 61 185 43 13 56 258 99 289 248 473 
101 11 260 86 364 413 66 26 330 284 475 9 420 
102 11 232 114 277 304 295 80 275 283 168 95 97 
103 11 231 341 474 14 528 82 210 216 339 67 402 
104 10 348 516 311 529 508 237 340 335 422 532 
105 11 218 359 477 259 265 28 253 249 250 62 190 
106 11 142 84 429 435 334 223 287 130 167 462 460 
107 11 215 291 278 75 39 10 29 47 110 132 48 
108 11 222 359 259 486 274 90 218 219 477 305 350 
109 11 337 203 48 239 132 285 414 66 47 44 184 
110 11 29 278 39 268 10 291 107 171 47 132 48 
111 11 464 525 136 229 526 281 338 470 93 433 510 
112 11 198 328 46 54 175 212 122 59 113 32 502 
113 11 94 59 122 212 296 116 502 96 54 375 46 
114 11 277 232 102 80 283 275 50 304 97 295 35 
115 10 88 158 135 300 483 472 323 220 276 343 
116 11 122 94 513 113 247 212 296 87 347 263 54 
117 11 507 151 156 172 223 435 334 388 12 429 36 
118 11 289 257 230 236 224 38 181 299 43 100 168 
119 11 501 284 49 11 206 523 52 144 491 188 364 
120 10 293 140 490 423 428 396 165 333 124 355 
121 9 393 30 514 439 266 356 355 470 165 
122 11 113 212 94 116 59 54 296 46 513 328 502 
123 11 287 51 499 162 334 15 84 148 381 388 106 
124 10 383 333 431 361 369 396 490 423 201 508 
125 11 252 196 97 190 225 4 275 157 283 241 35 
126 8 269 512 503 288 398 365 418 314 
127 11 254 91 211 233 199 31 377 149 25 133 81 
128 11 473 200 139 13 262 374 185 397 248 61 207 
129 11 89 194 35 53 213 50 225 196 283 71 147 
130 11 381 499 135 88 148 51 84 106 167 287 462 
131 11 12 195 146 2 177 156 388 162 15 117 334 
132 11 48 47 203 10 109 291 39 337 239 171 184 
133 11 199 211 174 318 306 251 192 433 254 127 377 
134 4 495 33 314 418 
135 11 88 115 220 130 276 509 167 462 381 158 472 
136 11 464 111 281 525 229 433 526 93 16 510 338 
137 10 273 179 226 411 79 302 420 271 330 475 
138 11 363 367 524 307 312 386 23 8 384 368 519 
139 11 200 397 262 207 374 373 128 427 33 37 344 
140 10 293 120 490 423 428 396 165 124 191 333 
141 11 65 17 19 99 426 37 452 374 248 207 406 
142 11 106 84 429 435 223 334 167 460 287 462 130 
143 10 522 354 467 476 496 187 419 3 319 438 
144 11 206 49 52 188 163 119 264 320 501 523 160 
145 11 443 437 77 155 267 407 510 452 426 37 449 
146 11 2 177 195 131 302 411 12 15 388 273 301 
147 10 69 438 28 319 71 187 53 63 89 228 
148 11 381 182 51 499 60 130 287 123 401 441 520 
149 11 233 31 467 73 25 91 403 377 63 476 451 
150 10 312 384 326 279 23 238 138 524 243 367 
151 11 507 117 172 223 156 435 36 429 460 334 205 
152 11 56 100 43 61 258 185 303 99 321 20 248 
153 11 209 357 34 440 307 363 386 519 242 367 214 
154 11 247 32 87 204 116 263 202 270 54 212 122 
155 10 267 443 21 449 437 280 446 494 145 322 
156 11 117 507 12 388 151 223 334 172 435 162 131 
157 11 241 4 480 125 190 250 252 265 58 196 6 
158 7 300 323 343 115 472 483 88 
159 11 342 456 5 372 382 286 390 376 186 353 471 
160 11 92 332 246 164 55 352 227 493 7 409 517 
161 10 527 208 531 214 440 331 85 450 34 197 
162 11 388 334 123 287 15 435 84 51 499 195 106 
163 11 206 144 49 444 52 119 501 332 294 188 160 
164 11 493 7 92 409 332 315 70 469 160 349 189 
165 6 423 333 120 293 383 393 
166 11 321 42 183 297 303 292 455 20 56 43 406 
167 11 462 509 245 220 368 389 276 8 135 436 130 
168 11 95 38 295 236 80 224 102 114 299 232 277 
169 9 298 378 44 351 500 255 290 221 336 
170 11 399 479 379 345 432 180 64 217 434 463 309 
171 11 268 44 10 378 39 47 291 29 132 48 278 
172 11 151 507 223 117 435 429 460 436 36 156 142 
173 9 316 521 325 385 83 358 313 441 520 
174 11 133 433 192 318 199 211 16 93 306 136 251 
175 11 198 46 112 328 54 212 502 59 113 122 94 
176 10 301 184 285 302 239 203 215 75 179 273 
177 11 146 2 131 195 302 301 176 411 12 273 137 
178 10 421 457 387 221 255 290 458 9 24 478 
179 10 226 273 137 302 420 330 271 411 79 86 
180 11 379 434 217 463 309 399 170 504 530 64 515 
181 11 42 303 43 297 230 321 166 183 257 56 224 
182 11 148 381 60 51 499 520 401 441 483 130 83 
183 11 297 166 42 321 292 303 181 455 20 43 56 
184 10 203 285 176 215 239 301 75 48 132 109 
185 11 61 13 473 248 99 17 128 152 374 100 200 
186 11 376 57 286 240 342 282 72 456 159 191 371 
187 10 28 147 69 522 143 477 438 319 354 71 
188 11 52 264 320 49 144 206 523 478 119 458 505 
189 11 70 349 409 469 371 7 447 72 282 55 315 
190 11 4 196 225 125 252 97 157 241 265 35 275 
191 10 240 396 361 490 140 456 201 293 120 382 
192 11 174 16 433 199 133 19 93 426 211 452 81 
193 7 412 197 244 472 392 531 85 
194 11 35 50 129 283 89 97 225 213 53 275 196 
195 11 2 146 131 177 388 12 15 162 156 411 334 
196 11 225 190 97 125 252 4 35 275 283 194 129 
197 7 412 193 244 85 392 531 161 
198 11 112 328 46 175 54 212 122 59 113 502 94 
199 11 211 133 174 254 192 127 318 306 251 377 81 
200 11 262 139 397 374 207 128 473 37 427 17 373 
201 4 361 124 431 396 
202 11 305 350 219 274 270 87 263 204 27 62 108 
203 10 239 48 285 109 184 132 337 47 215 176 
204 11 270 202 62 274 154 305 350 219 249 253 87 
205 10 243 238 36 326 279 384 150 312 460 524 
206 11 144 49 52 163 119 188 264 501 320 523 11 
207 11 37 262 374 200 397 427 139 407 17 344 65 
208 9 214 527 161 531 331 440 450 34 153 
209 11 153 357 363 367 242 307 386 440 34 519 394 
210 11 339 68 474 317 67 370 489 395 14 402 329 
211 11 199 133 254 127 174 377 192 318 306 251 91 
212 11 54 122 46 328 113 59 94 116 112 198 247 
213 11 89 53 71 228 129 69 319 438 63 147 194 
214 10 208 527 161 440 34 450 331 153 531 209 
215 11 75 184 107 203 301 47 132 48 176 291 285 
216 10 448 341 533 41 445 256 231 45 518 451 
217 11 463 515 442 481 309 64 379 360 530 180 434 
218 11 359 105 259 477 108 28 187 253 265 62 249 
219 11 305 350 274 202 27 108 263 87 222 85 270 
220 11 276 509 135 331 245 167 450 462 389 88 472 
221 9 255 387 421 290 178 457 24 351 500 
222 7 90 486 108 261 392 259 359 
223 11 435 429 172 334 142 106 84 151 507 117 156 
224 11 236 80 168 230 257 95 38 181 118 114 289 
225 11 196 190 97 125 252 35 4 129 275 194 283 
226 10 179 273 420 137 330 271 302 79 86 260 
227 11 246 517 264 320 505 327 352 235 98 160 188 
228 11 63 71 319 25 438 213 69 467 31 53 91 
229 11 526 525 464 111 338 136 272 281 433 470 266 
230 11 257 289 118 181 224 236 43 42 303 38 100 
231 11 341 103 41 528 216 251 82 306 448 272 338 
232 11 277 114 102 283 275 80 50 97 304 35 252 
233 11 31 91 149 25 467 377 63 73 127 228 403 
234 11 279 243 238 326 150 205 312 384 23 74 502 
235 11 98 327 517 78 40 352 227 465 246 505 324 
236 11 38 224 168 95 257 118 230 80 299 289 181 
237 7 311 340 516 422 104 348 529 
238 10 243 279 326 205 150 384 36 312 234 524 
239 10 285 203 337 184 109 176 48 132 179 226 
240 11 191 72 456 396 282 186 140 428 490 293 371 
241 11 157 4 480 125 250 190 265 58 252 6 196 
242 11 357 375 440 347 209 296 153 513 367 96 74 
243 10 238 279 205 326 36 150 384 234 312 524 
244 7 392 193 412 197 261 85 472 
245 11 389 368 394 519 509 462 167 386 307 8 220 
246 11 227 352 517 160 55 327 92 235 264 332 320 
247 11 154 116 32 54 87 212 122 263 113 94 328 
248 11 17 99 185 374 65 473 61 13 200 141 207 
249 11 253 62 6 58 250 265 480 105 218 359 270 
250 11 58 480 265 6 249 253 157 241 4 105 62 
251 11 306 41 318 133 174 256 211 199 231 216 377 
252 11 125 97 196 275 225 190 4 283 35 157 241 
253 11 249 62 58 6 250 265 480 105 218 359 274 
254 11 127 211 199 81 133 91 192 292 233 377 455 
255 9 290 221 387 351 421 500 24 178 425 
256 11 45 451 377 73 403 216 41 149 448 251 306 
257 11 230 289 118 236 181 224 43 38 42 303 100 
258 11 406 20 99 56 455 152 19 17 248 141 321 
259 10 359 477 218 108 105 222 486 187 28 90 
260 11 101 86 413 330 420 66 364 475 26 226 271 
261 4 392 90 244 486 
262 11 200 139 397 207 374 37 427 128 344 373 17 
263 11 87 116 513 350 305 27 202 247 347 219 296 
264 11 320 188 52 227 49 144 505 206 246 458 160 
265 11 250 480 58 6 249 253 4 105 157 190 241 
266 11 356 439 121 470 30 526 393 525 338 229 272 
267 11 155 449 443 21 145 437 510 322 446 280 488 
268 11 171 29 110 278 10 39 291 47 378 44 132 
269 6 512 288 503 126 398 365 
270 11 204 202 62 274 219 305 350 249 253 154 87 
271 11 420 330 475 417 79 413 86 226 137 26 179 
272 11 338 528 526 229 82 525 464 111 356 136 266 
273 10 137 179 226 302 411 420 79 271 330 475 
274 11 219 305 202 350 108 62 270 27 359 222 259 
275 11 97 283 252 125 232 196 35 277 50 225 114 
276 11 220 509 331 135 450 245 389 167 462 472 88 
277 11 232 114 102 283 275 80 50 97 35 194 304 
278 11 29 39 291 10 110 107 47 268 132 171 48 
279 10 238 326 243 150 312 384 205 234 23 36 
280 5 494 492 446 461 21 
281 11 136 93 510 111 464 16 433 525 229 267 526 
282 11 72 371 189 349 240 70 447 186 469 428 409 
283 11 275 50 35 97 194 277 232 114 252 196 225 
284 11 364 523 119 26 413 101 497 501 11 491 478 
285 10 239 203 184 337 176 109 301 179 48 226 
286 11 57 376 186 342 159 456 240 282 5 382 191 
287 11 123 499 51 162 84 334 106 381 130 148 142 
288 6 512 269 398 503 126 365 
289 11 257 230 118 181 236 100 224 43 152 38 303 
290 9 255 221 351 500 387 425 24 308 421 
291 11 39 10 278 47 29 132 48 107 110 171 215 
292 11 455 166 20 81 321 406 183 297 303 42 56 
293 10 120 140 490 423 428 396 165 124 333 191 
294 11 444 356 82 30 493 332 266 164 121 272 315 
295 11 102 304 95 168 114 232 80 277 275 38 224 
296 11 347 513 375 242 94 357 113 440 96 59 74 
297 11 183 42 166 303 321 181 292 43 56 455 20 
298 9 169 378 351 44 500 255 290 336 221 
299 11 38 95 236 168 118 224 295 257 230 80 289 
300 6 158 343 323 115 472 483 
301 10 176 184 75 285 215 302 239 177 203 179 
302 10 273 179 137 411 226 176 301 79 177 285 
303 11 42 321 43 166 56 297 181 183 20 292 152 
304 11 102 295 232 114 275 277 252 125 97 283 80 
305 11 350 219 202 274 27 263 87 108 85 270 222 
306 11 251 41 318 133 174 211 256 199 231 377 216 
307 11 386 519 363 394 368 138 367 389 209 153 34 
308 10 336 500 351 405 425 290 255 24 324 221 
309 11 463 530 504 434 482 217 481 76 18 442 515 
310 7 454 430 380 410 419 496 3 
311 7 237 516 422 340 104 348 529 
312 10 150 384 326 138 23 524 279 367 238 363 
313 11 83 441 316 358 521 401 173 385 520 60 325 
314 6 418 503 134 495 269 126 
315 11 469 7 493 355 409 164 349 70 514 189 30 
316 10 521 173 83 313 358 385 441 325 520 401 
317 11 68 395 489 339 210 484 22 511 370 329 67 
318 11 306 251 174 133 433 41 136 199 211 229 338 
319 11 438 69 71 63 228 147 467 25 53 143 213 
320 11 264 188 52 227 505 49 144 458 206 246 478 
321 11 166 303 42 56 292 20 297 43 183 455 406 
322 8 488 446 21 449 439 494 155 470 
323 6 343 158 300 483 362 115 
324 11 405 425 465 24 308 505 336 500 290 255 351 
325 9 173 316 83 520 521 313 385 441 358 
326 10 238 279 384 150 243 312 205 524 36 138 
327 11 235 517 98 352 78 40 227 246 55 465 447 
328 11 112 198 46 54 212 175 122 59 113 502 94 
329 7 445 68 511 317 210 484 22 
330 11 420 86 271 475 413 226 260 26 179 417 137 
331 9 450 34 208 214 276 220 161 389 472 
332 11 92 160 164 493 7 409 294 444 246 315 70 
333 7 383 369 124 423 165 506 508 
334 11 435 84 162 388 223 106 142 287 123 429 156 
335 4 348 532 104 431 
336 10 308 500 351 405 425 290 255 24 324 221 
337 10 109 239 285 66 203 48 414 260 132 101 
338 11 272 526 229 528 525 464 111 82 136 266 356 
339 11 210 68 317 67 370 474 489 395 14 484 22 
340 8 237 516 311 529 104 506 508 422 
341 10 216 231 448 103 41 533 445 474 329 251 
342 11 159 456 286 5 376 382 186 372 57 240 191 
343 6 323 300 158 362 115 483 
344 11 427 468 487 407 77 459 404 461 397 492 437 
345 11 479 170 399 379 180 432 434 217 64 463 309 
346 9 471 353 390 391 18 482 416 481 76 
347 11 296 513 242 375 357 440 94 209 153 527 116 
348 11 104 516 311 529 335 508 237 340 532 422 431 
349 11 469 189 70 371 409 7 72 315 282 428 447 
350 11 305 219 202 274 27 263 87 85 108 270 222 
351 9 500 336 308 290 255 425 221 405 24 
352 11 55 517 246 327 235 447 227 98 160 92 78 
353 9 471 390 346 372 5 18 391 382 481 
354 9 522 143 496 476 419 3 410 430 403 
355 11 514 315 428 469 393 30 120 293 121 493 140 
356 11 266 30 121 439 470 294 526 393 272 338 514 
357 11 242 209 375 153 440 347 296 367 363 34 23 
358 10 521 316 313 385 83 173 441 401 325 520 
359 11 259 218 108 477 105 222 62 486 274 253 28 
360 11 515 442 64 481 217 463 530 309 482 18 372 
361 8 201 396 124 191 383 490 431 369 
362 7 483 511 323 484 22 343 158 
363 11 307 367 138 386 519 209 153 394 23 368 524 
364 11 284 26 413 101 86 260 475 523 497 9 330 
365 9 398 126 366 498 512 269 415 288 503 
366 9 498 415 466 365 504 76 398 416 434 
367 11 363 138 23 307 209 386 153 519 312 357 524 
368 11 394 245 389 519 386 307 8 363 524 138 34 
369 9 383 508 431 529 333 506 124 104 348 
370 9 489 67 395 339 210 317 485 68 325 
371 11 72 349 282 189 469 70 428 409 7 447 240 
372 11 5 390 353 471 382 360 442 346 515 159 481 
373 9 33 397 495 468 139 134 344 427 262 
374 11 207 262 200 17 37 248 139 397 65 473 99 
375 11 242 357 296 96 74 347 209 440 94 153 23 
376 11 186 57 286 342 240 282 456 159 72 191 371 
377 11 256 233 149 73 91 31 45 451 403 127 211 
378 9 169 298 44 171 414 351 268 221 255 
379 11 180 399 217 170 64 434 463 309 432 515 360 
380 9 454 419 310 496 3 430 410 476 518 
381 11 148 499 182 51 130 88 287 123 60 135 483 
382 8 5 456 372 390 353 471 159 346 
383 9 369 333 124 431 508 506 529 423 348 
384 10 312 150 326 524 138 279 8 238 23 243 
385 7 521 358 173 316 313 83 325 
386 11 307 519 394 363 368 389 34 138 367 153 209 
387 10 421 221 178 255 290 457 24 458 425 351 
388 11 162 334 156 435 195 123 15 223 287 84 12 
389 11 394 245 368 519 386 307 34 450 363 509 8 
390 9 353 471 346 372 5 442 481 18 382 
391 9 416 18 482 76 346 530 471 353 481 
392 7 244 197 261 412 90 193 85 
393 6 121 514 165 439 355 30 
394 11 519 389 386 368 307 245 34 363 450 153 138 
395 10 489 317 22 484 370 68 339 210 511 325 
396 11 490 361 124 191 140 293 120 423 201 383 333 
397 11 139 262 200 207 427 373 344 374 468 33 37 
398 8 288 512 269 365 126 503 498 415 
399 11 170 379 479 432 180 345 64 217 434 463 309 
400 11 424 15 411 79 401 60 358 313 441 521 83 
401 11 60 441 313 83 424 358 316 521 520 173 385 
402 11 14 67 408 485 11 491 370 474 501 339 210 
403 11 73 476 3 451 496 45 419 380 149 354 256 
404 7 459 461 492 487 468 77 344 
405 10 425 324 308 336 500 24 351 465 290 255 
406 11 20 258 455 19 292 81 56 99 321 141 166 
407 11 77 427 344 487 437 37 468 145 459 207 404 
408 6 485 402 491 11 497 67 
409 11 7 70 469 189 349 164 315 493 371 447 55 
410 8 430 310 419 454 380 496 3 354 
411 11 137 79 273 302 400 179 226 271 420 2 15 
412 7 197 193 244 85 392 531 472 
413 11 86 26 475 330 364 260 271 420 101 417 497 
414 10 44 66 109 337 178 457 421 378 169 221 
415 6 498 466 366 398 416 76 
416 10 76 391 18 482 504 530 309 346 463 466 
417 7 475 271 497 26 413 330 420 
418 8 314 503 134 495 269 126 512 288 
419 9 496 3 380 430 410 310 476 454 354 
420 11 330 271 226 86 475 179 137 413 273 79 260 
421 10 178 387 221 457 255 290 458 24 9 351 
422 6 311 237 516 340 104 453 
423 9 165 120 490 293 140 333 124 383 396 
424 11 401 60 400 441 313 358 15 83 521 316 51 
425 11 405 24 324 308 500 290 336 255 351 221 387 
426 11 452 16 93 510 141 145 19 192 65 281 433 
427 11 344 407 468 487 207 397 77 37 262 459 404 
428 11 293 120 140 490 355 371 423 72 349 469 396 
429 11 142 106 435 84 223 460 436 334 167 172 462 
430 9 410 310 419 454 380 496 3 354 476 
431 10 369 383 508 124 335 348 529 104 333 506 
432 11 64 170 399 379 217 360 180 479 515 442 345 
433 11 16 93 174 136 281 192 318 464 510 111 525 
434 11 309 504 463 180 530 217 76 379 482 481 18 
435 11 223 334 429 142 84 106 172 388 287 162 151 
436 10 460 8 524 429 368 462 384 167 138 245 
437 11 77 443 145 155 407 461 487 492 280 267 404 
438 11 69 319 71 147 63 228 53 467 187 28 143 
439 10 470 488 121 266 322 393 356 446 449 30 
440 11 242 357 153 214 209 527 208 347 34 161 375 
441 11 83 313 401 316 358 520 521 60 173 325 385 
442 11 515 481 360 217 530 463 309 482 18 64 471 
443 11 155 267 437 145 21 449 77 280 494 510 461 
444 11 294 82 163 332 356 493 30 528 164 272 92 
445 6 329 533 448 216 68 511 
446 5 322 21 488 494 280 
447 11 55 189 70 409 349 352 282 371 7 72 469 
448 9 216 533 341 445 518 45 256 329 41 
449 10 267 21 155 322 443 488 446 470 280 494 
450 11 34 331 389 214 394 519 208 276 386 153 245 
451 11 45 403 73 256 3 476 496 380 518 419 377 
452 11 426 16 93 510 145 141 281 19 192 433 65 
453 5 532 422 311 104 348 
454 7 310 380 430 419 410 496 3 
455 11 292 20 81 406 321 166 258 19 56 303 183 
456 9 382 342 159 5 191 240 372 390 353 
457 10 178 421 387 458 9 221 478 255 290 24 
458 11 478 9 457 523 178 421 387 188 221 320 24 
459 7 404 461 487 492 468 77 344 
460 10 436 8 429 524 142 462 167 172 384 106 
461 7 492 404 459 487 77 280 437 
462 11 167 509 245 368 220 389 276 8 436 394 135 
463 11 309 530 434 217 504 481 482 442 515 18 180 
464 11 111 525 136 229 526 281 338 433 93 470 272 
465 11 324 405 98 425 235 24 505 308 336 40 78 
466 6 415 498 366 416 76 391 
467 11 25 63 149 31 319 143 233 438 228 73 354 
468 9 344 487 427 459 404 407 77 461 373 
469 11 349 7 409 70 315 189 371 164 355 493 428 
470 10 439 488 266 322 449 111 525 356 464 121 
471 9 353 390 346 18 391 372 481 482 442 
472 7 193 300 331 158 115 276 220 
473 11 128 13 185 248 61 200 374 139 262 17 99 
474 11 210 339 14 67 68 402 317 103 370 489 395 
475 11 413 271 26 330 417 86 420 497 364 260 79 
476 11 3 496 403 73 419 354 380 430 451 143 410 
477 10 259 218 359 187 28 105 108 147 486 522 
478 11 9 458 523 457 188 178 284 421 387 364 320 
479 11 345 170 399 379 432 180 64 217 434 463 309 
480 11 250 58 265 6 241 157 4 249 253 190 105 
481 11 442 515 530 360 463 217 482 18 309 76 504 
482 11 18 530 76 416 391 309 481 463 504 442 515 
483 8 362 323 115 158 88 182 300 343 
484 10 22 511 395 317 489 68 362 325 520 370 
485 5 408 402 67 370 491 
486 4 222 90 261 108 
487 10 344 77 459 404 468 461 407 492 427 437 
488 7 322 446 21 439 449 470 155 
489 10 395 317 370 22 68 484 339 210 325 511 
490 11 140 293 396 120 423 124 333 361 191 165 383 
491 10 11 501 408 497 402 485 119 284 14 26 
492 7 461 404 459 280 487 77 494 
493 11 164 315 7 332 409 469 92 30 355 70 349 
494 4 280 446 21 492 
495 5 134 33 373 314 418 
496 10 3 419 476 380 430 403 354 410 310 454 
497 7 417 491 26 408 11 475 485 
498 6 415 366 466 398 365 76 
499 11 51 287 381 148 123 130 182 84 60 106 162 
500 9 351 308 336 290 425 255 405 24 221 
501 11 11 491 119 402 408 497 284 206 14 485 49 
502 11 59 96 74 113 94 46 122 375 212 296 23 
503 7 269 512 288 126 418 314 398 
504 11 309 434 530 76 463 482 416 18 481 217 180 
505 11 24 227 320 324 264 425 465 517 405 235 98 
506 8 508 529 340 369 516 104 237 348 
507 11 117 151 172 156 223 435 334 388 429 12 36 
508 9 529 506 369 104 516 348 340 431 383 
509 11 167 220 462 276 245 135 389 368 394 450 88 
510 11 93 281 16 452 145 267 426 443 136 449 155 
511 8 484 22 317 68 362 395 329 489 
512 6 269 288 503 398 126 365 
513 11 347 296 242 116 375 94 440 357 113 263 122 
514 10 355 393 121 30 165 315 120 423 293 428 
515 11 442 481 360 217 463 530 309 64 482 18 434 
516 9 311 237 340 104 348 529 422 508 506 
517 11 327 235 352 246 227 98 78 55 40 505 160 
518 7 380 454 310 533 45 451 3 
519 11 394 386 307 389 368 34 363 245 153 450 209 
520 11 83 441 325 313 316 173 401 521 60 358 385 
521 10 358 316 173 385 313 83 441 325 401 520 
522 9 354 143 410 496 419 476 430 187 3 
523 11 478 9 284 458 119 188 364 457 49 52 101 
524 10 8 138 384 312 436 368 363 307 386 150 
525 11 464 111 229 526 136 281 338 272 470 266 433 
526 11 229 525 464 338 111 272 136 266 281 470 356 
527 10 161 208 214 531 440 331 34 450 153 85 
528 11 272 82 338 231 229 526 41 103 318 525 251 
529 9 508 506 516 104 340 369 348 237 311 
530 11 309 463 482 18 481 504 76 442 434 515 217 
531 9 161 85 527 208 197 412 214 193 331 
532 4 453 335 348 104 
533 7 448 216 445 518 45 341 329 
DEPOT_SECTION
   1
   -1
EOF
