NAME :  X-n613-kX-w122-c9.cctp
COMMENT : 	Adapted by Maziero, Usberti and Cavellucci from the Uchoa, Pecin, Pessoa, Poggi, Subramanian, and Vidal (2013)
TYPE :  CCTP
DIMENSION :    562
EDGE_WEIGHT_TYPE : 	EUC_2D	
CAPACITY : 	523
VERTICES_WITHIN_COVERAGE :  9
VERTICES_WITH_DEMAND : 	122
NODE_COORD_SECTION
1 500 500
2 550 574
3 177 24
4 448 476
5 934 619
6 323 122
7 430 76
8 364 9
9 988 994
10 91 636
11 926 977
12 2 579
13 326 342
14 455 822
15 48 74
16 814 334
17 997 22
18 838 899
19 634 360
20 324 191
21 750 283
22 996 106
23 473 967
24 642 334
25 539 764
26 510 194
27 807 664
28 949 710
29 21 994
30 293 934
31 832 366
32 8 531
33 56 893
34 82 605
35 197 626
36 661 777
37 207 272
38 945 510
39 505 137
40 325 693
41 240 335
42 776 462
43 810 235
44 496 288
45 624 171
46 799 293
47 120 393
48 250 839
49 31 266
50 64 349
51 898 729
52 740 387
53 838 992
54 952 991
55 558 497
56 695 240
57 622 113
58 670 95
59 967 595
60 926 470
61 665 284
62 753 558
63 946 61
64 820 415
65 453 551
66 565 786
67 768 573
68 841 180
69 172 849
70 799 203
71 663 950
72 33 134
73 215 505
74 973 751
75 308 651
76 519 412
77 677 737
78 937 383
79 338 276
80 997 416
81 852 151
82 366 573
83 839 66
84 245 311
85 743 248
86 265 806
87 851 403
88 621 530
89 553 917
90 467 83
91 866 308
92 556 270
93 189 936
94 131 426
95 329 945
96 64 997
97 761 475
98 248 366
99 141 114
100 235 937
101 80 598
102 133 453
103 153 763
104 739 585
105 165 754
106 933 751
107 670 474
108 319 201
109 734 286
110 118 342
111 951 973
112 303 313
113 709 929
114 993 822
115 707 624
116 92 212
117 716 302
118 184 802
119 601 936
120 668 454
121 583 424
122 151 409
123 754 53
124 89 361
125 843 196
126 679 788
127 233 266
128 994 524
129 229 917
130 381 596
131 566 501
132 96 294
133 180 770
134 199 508
135 226 827
136 691 293
137 338 332
138 905 714
139 146 954
140 148 907
141 46 71
142 594 419
143 209 732
144 419 783
145 852 847
146 194 344
147 751 651
148 530 340
149 6 405
150 60 343
151 87 261
152 962 886
153 882 81
154 777 993
155 877 318
156 645 892
157 909 276
158 859 247
159 109 124
160 214 725
161 292 982
162 674 506
163 724 614
164 247 618
165 133 392
166 140 512
167 986 490
168 139 888
169 255 776
170 864 343
171 594 73
172 531 156
173 221 392
174 221 398
175 809 947
176 864 805
177 843 335
178 477 878
179 129 202
180 940 551
181 183 69
182 498 641
183 867 413
184 540 551
185 281 990
186 604 224
187 907 417
188 650 349
189 998 2
190 570 808
191 216 820
192 959 382
193 527 34
194 123 708
195 337 488
196 355 476
197 887 524
198 443 886
199 892 60
200 436 349
201 427 927
202 663 441
203 78 435
204 997 108
205 324 213
206 369 115
207 177 280
208 539 753
209 81 372
210 102 788
211 43 527
212 765 671
213 31 906
214 854 983
215 610 874
216 83 143
217 835 330
218 570 361
219 390 283
220 982 681
221 650 227
222 975 485
223 135 322
224 287 6
225 446 24
226 530 474
227 700 542
228 305 9
229 12 340
230 285 858
231 358 892
232 123 118
233 498 952
234 752 59
235 444 51
236 888 591
237 281 498
238 927 591
239 185 324
240 79 486
241 690 495
242 767 78
243 199 357
244 257 625
245 757 346
246 559 164
247 56 937
248 559 96
249 415 7
250 782 493
251 198 754
252 351 593
253 972 719
254 267 937
255 921 181
256 196 447
257 748 875
258 437 907
259 699 405
260 978 373
261 286 936
262 755 180
263 696 458
264 188 130
265 341 291
266 628 240
267 977 737
268 487 328
269 784 13
270 57 916
271 810 409
272 701 741
273 314 201
274 661 104
275 740 622
276 550 234
277 215 853
278 138 876
279 318 722
280 253 617
281 90 662
282 909 472
283 308 910
284 706 703
285 994 964
286 468 904
287 181 279
288 132 324
289 891 448
290 610 312
291 582 826
292 373 584
293 330 146
294 968 383
295 436 570
296 725 274
297 517 304
298 835 254
299 901 434
300 858 202
301 261 997
302 493 583
303 512 311
304 592 403
305 949 560
306 426 413
307 634 611
308 200 557
309 44 99
310 823 681
311 958 756
312 913 482
313 594 984
314 73 713
315 4 687
316 717 349
317 273 727
318 622 359
319 316 622
320 114 595
321 720 330
322 485 245
323 728 679
324 563 890
325 412 21
326 600 831
327 682 188
328 555 691
329 799 117
330 671 173
331 117 117
332 55 117
333 242 124
334 139 795
335 670 711
336 22 470
337 919 386
338 988 857
339 166 675
340 269 813
341 144 450
342 66 302
343 275 504
344 812 595
345 65 382
346 683 718
347 744 458
348 370 159
349 155 263
350 897 63
351 866 240
352 9 995
353 136 611
354 925 459
355 371 271
356 97 729
357 585 137
358 473 176
359 748 261
360 141 431
361 208 624
362 780 44
363 653 811
364 827 0
365 909 367
366 62 951
367 805 374
368 204 284
369 139 39
370 73 455
371 800 483
372 516 93
373 489 103
374 297 291
375 517 407
376 468 780
377 300 560
378 754 944
379 999 143
380 220 145
381 542 926
382 509 745
383 515 461
384 791 479
385 821 266
386 459 481
387 47 141
388 417 102
389 950 385
390 87 135
391 57 886
392 991 595
393 962 506
394 375 948
395 631 572
396 210 596
397 476 910
398 829 100
399 133 673
400 578 982
401 353 675
402 834 675
403 141 964
404 146 650
405 353 284
406 305 987
407 150 727
408 301 687
409 308 224
410 821 189
411 45 279
412 108 220
413 523 381
414 446 524
415 907 598
416 943 843
417 473 609
418 659 823
419 326 19
420 92 368
421 29 271
422 804 619
423 369 215
424 325 240
425 197 903
426 189 871
427 519 684
428 297 819
429 102 896
430 20 818
431 850 667
432 916 759
433 401 140
434 364 57
435 823 178
436 590 605
437 749 943
438 924 977
439 315 879
440 78 1
441 36 243
442 903 279
443 521 366
444 58 482
445 153 0
446 812 506
447 481 68
448 705 785
449 16 596
450 974 675
451 503 914
452 431 112
453 636 548
454 728 560
455 156 777
456 623 149
457 879 709
458 404 453
459 838 272
460 646 185
461 520 843
462 337 149
463 761 972
464 637 433
465 607 588
466 575 511
467 952 72
468 818 942
469 427 589
470 688 326
471 547 662
472 423 507
473 93 4
474 699 23
475 762 595
476 389 815
477 48 7
478 586 171
479 391 990
480 860 942
481 562 289
482 779 980
483 305 733
484 231 555
485 661 798
486 954 975
487 888 912
488 483 24
489 69 618
490 866 631
491 244 362
492 72 937
493 793 569
494 145 885
495 582 43
496 73 425
497 979 684
498 911 888
499 921 111
500 108 98
501 126 241
502 737 414
503 830 426
504 546 141
505 429 536
506 741 233
507 373 286
508 305 814
509 690 548
510 449 506
511 491 754
512 252 82
513 278 918
514 61 132
515 344 620
516 500 421
517 913 865
518 161 501
519 734 467
520 410 836
521 205 115
522 152 932
523 360 459
524 945 335
525 61 872
526 408 85
527 633 945
528 83 627
529 550 809
530 890 266
531 711 338
532 515 998
533 946 604
534 61 580
535 785 575
536 931 871
537 474 76
538 967 395
539 243 984
540 849 185
541 817 685
542 182 780
543 607 31
544 43 337
545 417 480
546 931 355
547 693 31
548 749 418
549 827 37
550 30 362
551 945 714
552 789 100
553 492 526
554 234 361
555 165 386
556 262 707
557 87 989
558 597 528
559 401 969
560 146 661
561 910 977
562 771 90
DEMAND_SECTION
2 97
3 2
4 30
5 91
6 63
7 99
8 78
9 50
10 2
11 58
12 1
13 3
14 99
15 28
16 32
17 10
18 1
19 75
20 55
21 75
22 31
23 38
24 34
25 62
26 25
27 12
28 63
29 43
30 100
31 58
32 45
33 68
34 38
35 31
36 91
37 59
38 4
39 43
40 48
41 31
42 84
43 43
44 51
45 37
46 48
47 26
48 97
49 39
50 42
51 64
52 50
53 5
54 98
55 66
56 65
57 24
58 74
59 59
60 40
61 57
62 23
63 98
64 95
65 3
66 74
67 96
68 70
69 99
70 54
71 84
72 53
73 35
74 19
75 93
76 32
77 2
78 27
79 63
80 71
81 65
82 19
83 72
84 14
85 52
86 38
87 99
88 6
89 80
90 66
91 4
92 50
93 98
94 89
95 35
96 82
97 55
98 85
99 63
100 70
101 1
102 41
103 38
104 44
105 3
106 86
107 74
108 47
109 91
110 62
111 53
112 8
113 28
114 9
115 64
116 50
117 8
118 79
119 53
120 11
121 71
122 78
123 11
COVERAGE_SECTION
2 9 184 436 302 465 558 466 131 553 55 
3 9 445 369 181 473 512 521 99 500 440 
4 9 386 510 545 472 414 458 505 306 553 
5 8 533 238 415 59 236 305 392 180 
6 9 293 462 206 348 20 434 108 273 433 
7 9 526 235 388 452 90 537 447 225 325 
8 9 419 434 325 249 228 224 225 526 235 
9 9 285 54 486 111 11 438 561 152 487 
10 9 528 281 489 34 101 320 353 399 404 
11 9 438 561 111 486 54 9 285 214 480 
12 9 449 32 534 211 489 101 34 528 10 
13 9 137 112 265 374 405 79 507 98 355 
14 7 376 520 144 178 198 476 461 
15 9 141 309 332 514 72 500 387 477 390 
16 9 217 177 31 367 46 170 91 245 155 
17 9 189 63 467 22 204 350 199 499 379 
18 9 468 480 487 145 175 498 517 214 53 
19 9 318 188 24 290 304 218 470 142 464 
20 9 108 273 205 409 462 293 424 423 348 
21 9 109 359 296 85 117 46 506 321 136 
22 9 204 379 467 63 499 17 189 255 350 
23 9 233 532 397 201 451 286 258 559 381 
24 9 188 19 318 290 470 61 136 531 316 
25 9 208 66 382 529 511 190 376 291 328 
26 9 358 172 39 246 276 322 504 478 92 
27 8 310 541 402 212 431 422 147 490 
28 9 551 253 267 497 450 106 138 220 311 
29 9 352 96 366 557 247 492 270 213 33 
30 9 261 513 254 283 95 161 406 185 100 
31 9 367 177 217 16 170 87 271 64 183 
32 8 211 12 336 449 444 534 240 101 
33 8 391 525 270 213 247 429 492 366 
34 9 101 489 528 10 534 320 353 281 449 
35 9 361 396 164 404 280 339 244 560 353 
36 8 126 485 363 77 448 418 272 346 
37 9 368 127 287 207 349 84 239 41 146 
38 9 393 222 180 312 60 167 305 128 282 
39 9 172 373 504 372 358 26 246 90 248 
40 8 408 279 401 75 483 317 556 319 
41 9 84 491 554 98 146 243 239 173 368 
42 9 97 384 250 347 371 519 548 446 502 
43 9 298 385 70 459 410 158 125 351 300 
44 9 297 303 268 322 148 92 481 276 443 
45 9 456 460 478 330 357 186 57 327 221 
46 9 385 16 459 21 217 298 43 359 177 
47 9 165 94 122 420 360 209 124 555 110 
48 9 135 340 86 277 191 230 428 508 169 
49 9 421 411 441 342 151 132 544 229 116 
50 9 150 544 124 209 345 420 550 342 229 
51 9 138 457 432 106 551 28 311 253 74 
52 9 502 548 245 316 259 531 321 367 347 
53 9 214 175 468 480 482 154 561 463 438 
54 9 486 111 11 438 9 561 285 214 487 
55 9 131 466 226 558 383 184 88 553 2 
56 9 296 221 506 85 61 136 327 359 109 
57 9 456 274 357 171 58 45 248 478 460 
58 9 274 57 547 456 330 474 171 45 234 
59 8 533 392 305 238 5 180 415 128 
60 9 354 282 312 289 38 299 222 393 187 
61 9 136 470 56 117 24 266 221 296 290 
62 9 67 454 104 535 475 493 227 163 509 
63 9 467 350 199 499 17 22 153 204 189 
64 9 271 503 87 367 183 31 42 384 371 
65 9 295 414 505 510 469 553 302 472 417 
66 9 190 529 25 208 291 326 382 461 511 
67 9 535 62 475 493 104 454 344 275 422 
68 9 540 125 435 410 300 81 70 43 351 
69 9 426 277 278 494 118 168 191 135 425 
70 9 410 43 435 125 68 262 540 300 298 
71 9 527 113 156 119 313 437 378 400 215 
72 9 387 332 514 309 216 390 15 141 159 
73 9 134 484 308 518 343 256 237 166 341 
74 9 267 311 253 106 551 28 432 497 220 
75 9 319 408 40 515 401 244 280 164 252 
76 9 375 516 413 443 383 226 121 218 148 
77 7 346 272 335 36 284 126 448 
78 9 389 337 192 546 294 365 538 260 187 
79 9 265 405 355 507 424 374 112 219 137 
80 8 538 294 260 192 389 78 222 167 
81 9 68 540 435 125 410 300 398 329 70 
82 9 292 252 130 515 469 377 295 319 505 
83 9 549 398 153 199 350 552 362 329 364 
84 9 41 127 368 491 554 37 98 374 112 
85 9 359 506 296 21 109 56 117 43 136 
86 9 340 169 428 48 508 135 191 230 277 
87 9 183 503 64 271 31 367 187 299 289 
88 9 453 558 395 466 162 465 131 55 509 
89 9 381 324 451 119 233 400 215 397 313 
90 9 537 447 373 7 235 452 372 388 526 
91 9 155 170 177 217 459 442 530 157 16 
92 9 481 276 297 303 44 186 290 148 322 
93 9 425 522 129 100 139 140 403 426 494 
94 9 360 122 102 341 165 47 555 203 496 
95 9 30 283 261 394 406 161 513 231 254 
96 9 557 29 366 352 247 492 270 403 139 
97 9 42 347 250 519 384 371 548 446 502 
98 9 491 554 41 173 174 243 84 146 112 
99 9 232 331 159 500 264 390 181 521 216 
100 9 129 254 93 513 539 261 425 30 301 
101 9 34 489 534 528 320 10 353 449 281 
102 9 341 360 94 122 518 203 166 370 47 
103 9 455 105 133 542 334 407 251 118 210 
104 9 475 454 62 67 163 275 535 115 493 
105 9 103 133 455 407 542 251 143 334 118 
106 9 432 311 551 74 51 28 138 267 253 
107 9 120 241 263 162 202 464 519 88 227 
108 9 273 20 205 409 424 423 462 293 348 
109 9 296 21 117 359 85 136 321 506 531 
110 9 288 223 124 420 209 47 165 132 50 
111 9 486 54 11 438 561 9 285 152 487 
112 9 374 13 137 265 79 84 405 41 507 
113 7 437 378 71 257 463 156 527 
114 9 338 416 152 74 311 536 267 517 106 
115 8 163 275 104 147 323 475 454 307 
116 9 412 179 501 151 441 216 390 49 349 
117 9 109 136 321 296 531 470 21 316 359 
118 9 542 133 191 455 334 69 135 103 251 
119 9 527 313 400 89 324 381 156 215 71 
120 9 202 107 263 464 241 162 259 519 347 
121 9 142 304 464 218 76 375 226 413 318 
122 9 360 165 94 555 47 341 102 256 174 
123 9 234 242 362 562 269 552 474 547 549 
124 9 420 209 50 345 150 110 47 544 165 
125 9 540 68 300 410 435 70 81 351 43 
126 7 36 485 448 363 418 77 272 
127 9 37 368 84 287 207 41 374 239 349 
128 9 167 393 222 38 305 180 392 59 60 
129 9 100 425 254 93 513 261 426 30 277 
130 8 292 82 252 515 469 295 319 505 
131 9 55 466 558 226 184 88 383 2 553 
132 9 342 151 288 223 110 411 150 501 50 
133 9 542 105 251 455 103 118 143 334 407 
134 9 73 518 308 484 166 256 343 341 237 
135 9 191 48 277 86 340 118 426 69 169 
136 9 117 61 470 296 109 321 531 56 21 
137 9 13 112 265 405 79 374 507 355 219 
138 9 51 457 551 28 106 432 253 311 431 
139 8 403 522 93 140 168 494 557 425 
140 8 168 494 522 278 139 429 425 93 
141 9 15 309 332 514 72 477 500 387 390 
142 9 121 304 464 218 318 19 202 76 375 
143 8 160 251 133 105 542 407 556 103 
144 5 476 376 14 520 511 
145 6 176 18 517 498 487 536 
146 9 243 239 554 41 555 491 173 98 174 
147 7 212 275 323 163 115 27 475 
148 9 443 303 297 413 218 268 481 44 375 
149 8 550 345 229 336 496 544 203 50 
150 9 50 544 124 209 550 345 342 420 229 
151 9 132 501 342 411 412 116 441 49 421 
152 9 536 338 416 498 517 114 487 285 111 
153 9 199 350 83 499 398 63 549 467 81 
154 9 482 463 378 175 437 53 468 214 113 
155 9 91 170 177 217 442 157 530 365 459 
156 5 215 527 71 119 418 
157 6 442 530 155 91 351 158 
158 9 351 298 459 530 385 300 43 125 442 
159 9 331 232 390 500 216 99 514 332 387 
160 8 143 251 556 133 105 317 407 542 
161 9 185 406 301 261 30 539 254 95 513 
162 9 241 107 227 509 120 263 453 88 202 
163 9 275 115 104 475 147 454 67 62 323 
164 9 280 244 361 396 35 484 75 319 308 
165 9 47 122 555 94 360 420 110 124 209 
166 9 518 102 134 341 240 73 308 360 94 
167 9 222 393 128 38 60 354 312 80 180 
168 7 494 278 140 429 522 69 426 
169 8 86 340 317 135 191 428 251 48 
170 9 177 155 217 91 31 16 365 87 367 
171 9 495 248 543 57 357 274 193 58 372 
172 9 504 246 39 26 357 478 358 372 248 
173 9 174 554 98 491 243 146 555 41 256 
174 9 173 554 98 491 243 256 555 146 41 
175 9 468 482 480 53 463 378 18 154 214 
176 6 145 432 517 51 106 416 
177 9 217 170 16 31 91 155 367 46 459 
178 9 286 397 198 451 258 461 14 201 233 
179 9 412 116 501 349 151 216 390 159 232 
180 8 305 38 238 393 59 533 415 197 
181 9 3 521 369 264 99 512 445 232 500 
182 6 417 427 471 302 328 2 
183 9 87 503 187 299 289 64 271 31 337 
184 9 2 466 553 131 55 302 558 436 465 
185 9 161 301 406 539 261 254 30 95 100 
186 9 266 221 276 478 45 460 92 246 456 
187 9 299 337 289 183 78 354 365 389 282 
188 9 24 19 318 470 290 531 61 316 136 
189 9 17 63 467 22 204 350 199 499 153 
190 7 529 291 66 326 25 461 208 
191 9 135 277 118 48 86 542 69 340 426 
192 8 294 389 538 260 78 546 337 524 
193 9 488 495 447 372 537 248 90 171 373 
194 9 356 407 399 314 560 339 281 105 404 
195 9 196 523 237 343 458 545 377 472 82 
196 9 523 195 458 545 472 237 343 4 306 
197 4 312 282 180 38 
198 7 258 286 178 397 201 520 14 
199 9 350 153 83 63 499 467 549 398 364 
200 9 268 306 219 303 44 443 507 297 413 
201 8 258 198 286 559 397 394 23 178 
202 9 120 464 107 263 259 241 162 142 519 
203 8 496 370 240 444 94 345 102 47 
204 9 22 379 467 63 499 17 255 189 350 
205 9 108 273 409 20 424 423 79 462 293 
206 9 433 348 6 462 526 293 388 434 452 
207 9 287 368 349 37 239 127 223 288 501 
208 8 25 382 66 511 529 190 328 427 
209 9 420 124 345 50 150 47 110 544 550 
210 5 334 455 103 356 105 
211 8 32 444 240 534 336 12 449 370 
212 5 147 323 27 541 275 
213 8 33 270 391 247 525 492 366 429 
214 9 53 480 468 561 175 438 11 482 154 
215 6 156 326 324 291 119 89 
216 9 390 514 159 387 332 331 232 72 500 
217 9 177 16 170 31 91 155 46 367 459 
218 9 148 304 443 413 318 142 290 19 121 
219 9 507 355 405 265 79 137 423 424 200 
220 9 497 450 253 28 551 267 74 5 311 
221 9 266 460 186 56 327 330 61 45 136 
222 9 167 393 38 128 60 354 312 282 80 
223 9 288 110 132 239 207 124 349 146 287 
224 9 228 419 8 512 434 3 6 181 325 
225 9 235 325 249 488 7 447 537 90 526 
226 9 383 55 131 466 516 76 553 375 386 
227 9 509 454 162 241 62 104 453 107 67 
228 9 224 419 8 434 512 325 249 6 206 
229 9 550 544 150 50 149 342 345 411 421 
230 9 439 48 428 340 508 86 283 513 135 
231 6 439 283 394 95 520 30 
232 9 331 159 99 500 390 216 514 264 332 
233 9 23 451 397 532 381 286 89 201 258 
234 9 123 242 362 562 552 269 474 547 329 
235 9 225 7 90 537 447 325 488 526 249 
236 5 415 238 490 5 533 
237 9 343 195 377 73 484 196 134 523 256 
238 8 415 533 5 305 236 59 180 392 
239 9 146 243 368 207 287 223 288 37 41 
240 8 444 370 203 211 336 496 102 166 
241 9 162 107 263 120 227 519 509 202 347 
242 9 562 234 123 552 362 329 398 269 83 
243 9 146 554 239 173 491 555 41 174 98 
244 9 280 164 361 396 75 319 35 484 408 
245 9 316 321 52 531 367 16 117 21 109 
246 9 504 478 172 357 26 39 45 456 248 
247 9 366 492 270 213 33 391 96 557 429 
248 9 171 372 504 357 495 57 172 39 246 
249 9 325 225 8 235 488 7 434 526 419 
250 8 384 371 97 42 446 347 519 62 
251 9 133 143 542 105 160 103 455 118 407 
252 8 292 82 515 130 319 377 75 469 
253 9 267 28 551 74 497 220 311 450 106 
254 9 261 513 30 100 129 283 161 539 185 
255 6 300 499 540 81 125 68 
256 9 341 174 360 122 173 73 134 102 518 
257 3 113 437 378 
258 7 198 201 286 397 178 451 23 
259 9 502 52 202 548 263 120 316 464 531 
260 8 294 192 538 389 78 80 524 546 
261 9 30 254 513 283 95 161 100 185 406 
262 9 70 506 410 435 85 327 329 43 359 
263 9 120 107 202 241 519 347 162 259 502 
264 9 521 380 99 333 181 232 331 159 512 
265 9 405 79 507 355 137 112 374 219 13 
266 9 221 186 61 460 56 45 290 327 92 
267 9 74 253 311 28 551 106 497 220 450 
268 9 303 297 44 148 443 200 413 322 375 
269 9 362 364 549 123 234 242 83 562 474 
270 8 247 33 492 213 391 366 525 429 
271 9 64 503 367 87 31 183 548 42 52 
272 7 77 346 284 335 448 126 36 
273 9 108 20 205 409 424 293 423 462 348 
274 9 58 57 456 330 171 45 547 460 357 
275 9 163 147 115 475 104 212 67 323 454 
276 9 92 186 481 26 322 246 478 44 297 
277 9 135 426 191 48 69 425 118 129 340 
278 6 494 168 140 429 69 426 
279 8 483 40 408 317 556 401 75 169 
280 9 164 244 361 396 35 319 75 484 377 
281 9 10 528 399 489 314 560 194 404 34 
282 9 312 60 354 289 299 38 187 197 393 
283 9 30 513 439 261 95 254 231 230 161 
284 5 346 323 335 272 77 
285 9 9 486 111 54 11 438 152 561 338 
286 9 397 178 198 258 451 201 233 23 381 
287 9 207 368 37 349 239 127 223 146 288 
288 9 223 110 132 239 124 420 207 146 349 
289 9 299 282 187 354 312 60 183 87 503 
290 9 24 318 481 19 188 61 218 92 266 
291 7 326 190 529 66 215 461 324 
292 8 82 130 252 515 469 295 319 505 
293 9 462 6 348 20 206 108 273 205 433 
294 8 192 538 260 389 78 80 546 337 
295 9 469 65 505 414 417 302 130 472 292 
296 9 109 359 21 117 85 136 506 56 321 
297 9 303 44 148 268 481 92 443 322 276 
298 9 385 459 158 43 351 46 530 300 125 
299 9 289 187 354 282 183 60 312 337 87 
300 9 125 540 68 351 410 435 158 81 298 
301 9 185 539 161 406 254 100 261 30 513 
302 9 417 65 184 553 2 182 295 469 414 
303 9 297 44 268 148 481 443 92 322 413 
304 9 142 121 218 318 464 19 413 76 375 
305 8 180 238 59 533 38 392 393 415 
306 9 458 200 4 545 516 386 523 375 76 
307 9 465 395 436 453 115 88 509 163 558 
308 9 484 396 134 73 361 518 35 166 164 
309 9 332 15 141 72 514 387 390 216 500 
310 7 541 402 27 431 212 457 422 
311 9 74 106 267 253 432 551 28 51 138 
312 8 282 60 354 289 38 197 299 393 
313 9 400 119 527 71 381 89 532 324 233 
314 9 356 194 281 399 315 407 10 210 528 
315 9 314 281 449 489 528 10 356 12 34 
316 9 531 321 470 245 52 117 259 136 109 
317 8 556 483 279 408 169 160 40 143 
318 9 19 188 24 290 218 304 142 470 121 
319 9 515 75 252 244 280 377 401 408 164 
320 9 353 34 101 528 10 489 534 404 281 
321 9 531 316 117 470 245 109 136 21 296 
322 9 44 26 276 297 358 303 92 268 481 
323 5 284 147 212 275 115 
324 8 89 381 215 119 461 451 291 326 
325 9 249 225 235 8 7 434 526 488 388 
326 7 291 190 215 529 66 363 418 
327 9 330 460 221 56 45 456 262 506 266 
328 8 471 427 208 382 25 182 511 436 
329 9 552 398 562 242 81 83 435 234 362 
330 9 327 460 45 456 221 274 56 57 58 
331 9 232 159 500 99 390 216 514 332 264 
332 9 514 309 387 72 390 216 15 141 159 
333 9 380 521 512 264 6 181 293 462 99 
334 7 455 103 210 118 542 133 105 
335 6 346 77 284 272 323 36 
336 8 444 370 240 211 32 203 149 496 
337 9 78 365 389 187 546 192 294 538 299 
338 9 114 152 416 536 517 498 311 74 285 
339 9 560 404 399 194 407 35 361 160 143 
340 9 86 428 48 508 169 135 230 191 277 
341 9 102 360 94 122 256 518 165 47 166 
342 9 132 411 150 544 151 50 421 49 124 
343 9 237 73 377 195 484 134 196 308 523 
344 6 422 493 535 67 475 490 
345 9 209 420 124 50 150 550 496 544 203 
346 6 335 77 284 272 323 36 
347 9 519 97 42 548 502 263 384 250 371 
348 9 462 433 293 206 20 423 6 108 273 
349 9 207 287 501 37 368 223 412 288 179 
350 9 199 153 63 499 467 83 549 398 364 
351 9 158 298 530 300 459 125 385 442 43 
352 9 29 96 366 247 557 492 213 270 33 
353 9 320 404 10 560 34 528 101 399 35 
354 9 60 282 312 299 289 187 38 222 393 
355 9 507 219 405 79 265 424 423 137 205 
356 9 314 194 407 210 103 281 399 105 455 
357 9 478 246 504 456 57 248 45 172 171 
358 9 26 39 172 322 373 452 433 504 246 
359 9 85 21 296 109 506 117 56 46 136 
360 9 94 341 102 122 165 47 555 256 203 
361 9 35 396 164 280 244 339 308 404 560 
362 9 123 269 234 242 562 549 552 83 364 
363 6 418 485 36 126 326 448 
364 9 549 269 362 83 199 123 350 234 153 
365 9 337 546 78 389 524 187 170 192 155 
366 9 247 492 270 557 96 213 33 29 391 
367 9 31 271 16 64 217 87 177 245 503 
368 9 37 287 207 127 239 84 349 146 41 
369 9 3 445 181 473 500 440 99 232 331 
370 8 203 496 444 240 336 102 94 341 
371 8 384 250 446 42 97 347 503 519 
372 9 373 248 447 39 537 90 504 193 172 
373 9 372 90 537 447 39 452 7 172 235 
374 9 112 79 265 84 405 137 424 13 409 
375 9 76 516 413 443 383 121 148 226 218 
376 9 511 14 144 382 25 208 520 461 476 
377 9 252 343 319 237 82 484 280 515 292 
378 8 437 463 482 113 154 175 468 257 
379 6 204 22 499 467 255 63 
380 9 333 521 264 512 99 181 232 6 179 
381 9 89 451 324 233 119 400 397 286 532 
382 8 511 208 25 376 427 66 328 529 
383 9 226 516 76 375 55 386 131 4 553 
384 9 371 250 42 97 446 347 519 503 64 
385 9 298 459 43 46 158 351 91 217 70 
386 9 4 510 545 472 414 553 383 458 505 
387 9 72 514 332 216 390 309 159 15 141 
388 9 452 526 7 433 206 90 235 537 434 
389 9 192 78 294 538 260 337 546 365 524 
390 9 216 159 514 331 332 232 387 500 72 
391 7 33 525 270 213 429 247 492 
392 9 59 533 305 5 238 180 128 450 415 
393 9 38 222 167 128 180 60 312 305 354 
394 8 559 479 95 201 231 258 283 406 
395 9 453 465 307 88 436 558 509 227 162 
396 9 361 35 308 164 484 280 244 353 404 
397 9 286 451 178 258 198 233 201 23 381 
398 9 329 83 552 81 153 562 549 242 362 
399 9 560 404 339 194 281 10 407 353 356 
400 9 313 119 532 527 381 89 233 71 324 
401 7 40 75 408 515 279 319 483 
402 8 310 431 541 27 490 457 422 212 
403 8 139 522 93 140 557 492 168 429 
404 9 560 399 339 353 35 10 281 194 320 
405 9 265 79 507 355 219 137 424 374 112 
406 9 161 185 301 95 30 261 539 254 513 
407 9 105 194 103 455 133 356 339 251 399 
408 8 40 75 279 556 483 317 401 319 
409 9 205 424 273 108 20 79 423 374 265 
410 9 435 68 125 70 540 300 43 81 298 
411 9 421 49 342 441 151 132 544 150 229 
412 9 116 179 501 151 349 132 441 216 411 
413 9 443 375 76 148 516 218 268 303 304 
414 9 510 505 65 472 386 553 295 4 545 
415 8 236 238 5 533 490 180 305 59 
416 9 536 517 152 338 114 498 176 311 432 
417 5 302 182 469 295 65 
418 6 363 485 126 36 326 448 
419 9 228 8 224 434 325 249 512 6 206 
420 9 124 209 345 50 110 47 150 165 544 
421 9 49 411 441 342 151 544 132 229 150 
422 9 344 27 475 535 493 67 147 490 275 
423 9 205 20 424 108 348 355 273 409 79 
424 9 409 205 79 108 273 20 423 405 265 
425 9 426 93 129 140 100 277 522 494 69 
426 9 69 277 425 494 278 168 140 135 191 
427 7 471 328 182 382 208 511 25 
428 7 508 340 86 230 48 169 439 
429 7 168 278 494 33 391 140 525 
430 5 525 391 33 210 213 
431 9 402 310 541 490 27 457 422 138 51 
432 9 106 51 311 138 551 74 28 457 267 
433 9 348 206 388 452 526 462 7 293 6 
434 9 8 526 419 206 325 7 388 249 228 
435 9 410 68 125 540 70 81 300 43 329 
436 9 465 307 2 395 471 453 184 558 88 
437 9 378 463 113 482 154 175 257 468 71 
438 9 11 561 111 486 54 9 214 285 480 
439 9 283 230 231 513 30 428 261 508 95 
440 9 473 477 369 445 141 15 3 500 309 
441 9 49 421 411 151 116 342 412 132 501 
442 6 157 530 91 155 158 351 
443 9 413 148 375 76 218 268 303 516 297 
444 8 240 370 336 211 203 496 32 102 
445 9 3 369 473 181 440 477 500 99 232 
446 6 371 250 384 42 97 493 
447 9 537 90 373 235 372 488 7 225 193 
448 7 126 272 36 485 77 363 418 
449 9 12 534 489 101 32 34 211 528 10 
450 9 220 497 28 253 551 267 5 74 533 
451 9 397 286 233 381 178 89 23 324 198 
452 9 388 526 7 433 90 537 373 206 235 
453 9 88 395 558 465 509 162 307 227 466 
454 9 62 104 227 509 67 475 163 535 275 
455 9 103 105 133 334 542 118 251 407 210 
456 9 45 57 357 460 478 330 274 246 327 
457 9 138 51 431 402 432 310 541 551 106 
458 9 545 523 306 4 196 472 386 510 195 
459 9 298 385 158 351 46 43 91 530 217 
460 9 45 330 327 221 456 186 266 478 56 
461 9 529 178 190 291 324 14 66 451 286 
462 9 293 6 348 20 206 108 273 205 433 
463 9 482 154 378 437 175 468 113 53 214 
464 9 202 120 142 107 304 121 263 259 19 
465 9 436 395 307 453 2 88 558 184 466 
466 9 131 55 558 88 184 226 2 453 383 
467 9 63 499 22 350 204 199 17 153 189 
468 9 175 480 18 53 482 214 378 463 154 
469 8 295 65 130 417 505 292 82 302 
470 9 531 321 136 117 316 188 24 61 109 
471 8 328 427 182 436 2 208 382 417 
472 9 510 545 414 505 4 386 65 458 295 
473 9 440 477 369 445 141 15 3 500 309 
474 9 547 123 234 58 362 269 242 274 543 
475 9 67 104 535 275 62 493 163 422 454 
476 4 520 144 14 231 
477 9 440 473 141 15 309 369 445 500 332 
478 9 246 357 45 456 504 186 172 460 57 
479 9 559 394 201 95 23 406 258 161 231 
480 9 214 487 468 18 175 53 561 438 498 
481 9 92 297 290 303 276 148 44 218 186 
482 9 154 463 378 175 437 468 53 214 113 
483 8 279 317 40 408 556 169 401 508 
484 9 308 396 73 134 164 280 343 377 361 
485 6 363 36 126 418 448 77 
486 9 111 54 11 438 9 285 561 152 487 
487 9 498 480 18 517 536 561 145 438 11 
488 9 225 447 193 235 537 90 249 325 7 
489 9 528 34 101 10 534 281 320 449 353 
490 8 431 236 415 402 422 344 310 27 
491 9 98 554 41 173 174 243 84 146 239 
492 9 247 366 270 33 213 429 391 557 96 
493 7 535 67 344 475 62 422 104 
494 7 168 278 140 429 69 426 522 
495 9 543 171 193 248 57 372 357 274 488 
496 8 203 370 345 209 47 94 444 420 
497 9 220 450 253 28 551 267 74 311 5 
498 9 517 536 487 152 416 145 18 480 338 
499 9 153 467 350 63 199 255 22 204 81 
500 9 331 232 159 99 390 216 332 514 309 
501 9 412 349 179 151 116 132 207 287 223 
502 9 548 52 259 347 519 263 42 97 316 
503 9 64 271 87 183 367 31 371 42 289 
504 9 172 246 357 39 248 478 372 26 373 
505 9 414 65 472 295 510 469 545 4 386 
506 9 85 359 296 56 21 109 262 70 43 
507 9 355 219 405 265 79 137 424 423 13 
508 7 428 340 86 230 48 169 439 
509 9 227 454 162 241 453 104 62 395 88 
510 9 414 472 386 4 505 545 65 553 295 
511 8 382 376 208 25 427 14 144 66 
512 9 333 521 181 380 264 6 224 228 3 
513 9 261 30 254 283 100 129 439 95 230 
514 9 332 387 216 390 72 309 159 331 500 
515 8 252 319 130 292 75 82 401 377 
516 9 76 375 383 413 443 226 386 306 4 
517 9 536 498 416 152 487 145 338 176 18 
518 9 166 134 73 341 102 256 308 360 94 
519 9 347 97 263 42 548 241 502 250 384 
520 4 476 14 144 198 
521 9 264 380 333 181 512 99 232 331 3 
522 8 139 140 403 93 168 494 425 278 
523 9 196 195 458 545 472 306 237 4 343 
524 6 546 365 78 192 260 389 
525 5 391 33 270 213 429 
526 9 388 7 452 206 235 434 433 90 325 
527 8 71 119 156 313 400 215 113 89 
528 9 10 489 34 101 281 320 534 353 404 
529 9 190 66 291 461 25 326 208 382 511 
530 7 442 157 351 158 91 459 155 
531 9 321 316 470 117 245 136 52 109 188 
532 9 233 23 400 381 313 451 89 397 286 
533 8 5 59 238 415 305 392 180 236 
534 9 101 34 489 449 528 320 211 12 10 
535 8 493 67 475 344 62 104 422 454 
536 9 517 498 416 152 338 487 114 145 176 
537 9 90 447 373 235 7 372 488 452 225 
538 8 294 192 389 260 78 80 337 546 
539 9 301 185 100 161 254 406 261 129 30 
540 9 68 125 300 435 410 81 70 351 43 
541 7 310 402 27 431 212 457 422 
542 9 133 118 455 105 251 103 334 191 143 
543 9 495 171 193 248 57 547 58 274 474 
544 9 150 50 550 229 342 345 124 209 411 
545 9 472 458 4 510 386 414 505 523 196 
546 9 524 365 78 337 389 192 294 260 538 
547 9 474 123 234 58 274 543 242 362 269 
548 9 502 52 347 519 42 259 97 271 263 
549 9 83 364 362 269 398 199 153 242 552 
550 9 229 544 50 150 345 149 209 124 420 
551 9 28 253 106 267 138 311 497 74 51 
552 9 329 562 242 398 234 362 123 83 549 
553 9 65 414 510 184 386 302 226 505 4 
554 9 491 98 41 173 243 174 146 84 239 
555 9 122 165 243 47 146 360 94 173 174 
556 8 317 408 483 160 279 143 40 169 
557 9 96 366 492 403 247 29 139 352 270 
558 9 88 466 131 453 55 395 184 465 2 
559 9 479 394 201 23 258 95 231 198 286 
560 9 404 399 339 353 194 281 10 35 407 
561 9 438 11 111 54 486 214 480 487 53 
562 9 242 552 234 329 123 362 398 83 549 
DEPOT_SECTION
   1
   -1
EOF
