NAME :  X-n670-kX-w66-c9.cctp
COMMENT : 	Adapted by Maziero, Usberti and Cavellucci from the Uchoa, Pecin, Pessoa, Poggi, Subramanian, and Vidal (2013)
TYPE :  CCTP
DIMENSION :    466
EDGE_WEIGHT_TYPE : 	EUC_2D	
CAPACITY : 	129
VERTICES_WITHIN_COVERAGE :  9
VERTICES_WITH_DEMAND : 	66
NODE_COORD_SECTION
1 612 199
2 864 279
3 746 395
4 738 519
5 684 851
6 806 263
7 867 314
8 637 357
9 64 531
10 803 657
11 22 330
12 634 731
13 351 945
14 240 812
15 664 595
16 775 1000
17 971 313
18 953 717
19 317 25
20 812 410
21 677 874
22 731 504
23 89 803
24 697 604
25 53 379
26 817 947
27 164 875
28 86 108
29 9 596
30 406 956
31 304 456
32 843 846
33 285 809
34 148 84
35 349 524
36 527 626
37 947 317
38 646 27
39 718 325
40 906 651
41 889 936
42 953 118
43 908 868
44 447 13
45 335 495
46 77 834
47 992 428
48 826 196
49 337 341
50 482 288
51 123 49
52 415 572
53 274 837
54 581 738
55 33 36
56 795 906
57 353 858
58 242 80
59 532 464
60 246 853
61 109 299
62 285 353
63 5 669
64 255 457
65 909 568
66 986 234
67 920 756
68 7 655
69 317 94
70 897 775
71 226 802
72 320 820
73 15 31
74 60 419
75 629 333
76 662 34
77 689 829
78 19 801
79 836 281
80 640 347
81 850 655
82 290 424
83 407 997
84 286 957
85 129 245
86 435 940
87 578 334
88 705 340
89 913 873
90 862 977
91 326 380
92 512 437
93 589 34
94 937 700
95 535 764
96 822 590
97 324 789
98 788 804
99 788 907
100 115 327
101 477 11
102 962 433
103 5 534
104 314 568
105 957 527
106 47 482
107 665 826
108 756 911
109 50 508
110 439 921
111 731 971
112 417 273
113 52 855
114 463 281
115 832 357
116 693 636
117 131 820
118 85 486
119 130 344
120 98 41
121 78 818
122 954 175
123 555 470
124 925 867
125 546 678
126 717 485
127 958 891
128 980 240
129 925 566
130 105 781
131 337 94
132 713 619
133 815 673
134 193 37
135 750 998
136 713 377
137 383 57
138 898 976
139 388 899
140 57 697
141 869 771
142 755 921
143 504 197
144 727 494
145 30 311
146 175 156
147 836 939
148 35 719
149 183 932
150 200 42
151 6 329
152 904 97
153 850 281
154 732 232
155 92 113
156 99 558
157 703 888
158 914 786
159 255 781
160 838 456
161 869 804
162 300 97
163 694 598
164 606 610
165 835 965
166 418 558
167 458 484
168 169 8
169 28 353
170 195 905
171 132 282
172 180 133
173 267 75
174 459 577
175 354 814
176 59 558
177 931 901
178 666 528
179 909 551
180 386 600
181 869 521
182 622 830
183 953 797
184 803 785
185 762 251
186 957 6
187 294 309
188 68 61
189 431 633
190 760 373
191 991 448
192 88 318
193 593 372
194 265 137
195 852 404
196 17 702
197 893 251
198 953 259
199 359 900
200 60 422
201 919 921
202 0 149
203 13 415
204 292 936
205 952 248
206 763 701
207 380 49
208 98 852
209 945 802
210 262 472
211 3 108
212 130 746
213 794 150
214 16 297
215 757 663
216 981 443
217 82 768
218 839 433
219 670 588
220 874 141
221 981 726
222 709 822
223 258 312
224 199 777
225 995 677
226 56 320
227 259 438
228 353 945
229 102 17
230 248 300
231 726 266
232 944 700
233 2 569
234 880 608
235 383 363
236 940 348
237 644 381
238 925 264
239 871 137
240 655 838
241 24 441
242 703 67
243 462 4
244 630 680
245 688 380
246 597 758
247 774 414
248 337 487
249 277 764
250 365 569
251 872 918
252 595 345
253 864 223
254 575 418
255 585 637
256 482 633
257 61 319
258 350 533
259 98 246
260 707 298
261 816 701
262 426 554
263 658 570
264 689 736
265 675 682
266 390 804
267 486 361
268 905 954
269 204 948
270 739 482
271 900 705
272 367 999
273 395 526
274 611 607
275 800 873
276 895 268
277 26 302
278 975 574
279 981 331
280 2 508
281 368 849
282 888 203
283 740 867
284 695 582
285 74 819
286 810 168
287 400 966
288 924 776
289 979 276
290 105 134
291 433 571
292 704 274
293 62 350
294 276 320
295 232 190
296 569 491
297 247 101
298 125 281
299 376 586
300 915 744
301 742 479
302 885 281
303 191 889
304 509 202
305 292 387
306 491 202
307 434 328
308 504 328
309 92 533
310 787 990
311 123 301
312 775 517
313 794 427
314 485 623
315 716 603
316 384 901
317 208 400
318 17 138
319 952 175
320 863 568
321 645 528
322 473 40
323 665 5
324 281 999
325 44 4
326 390 315
327 37 567
328 667 799
329 526 664
330 230 780
331 824 302
332 969 848
333 19 766
334 675 686
335 876 329
336 836 902
337 386 574
338 18 851
339 292 841
340 516 721
341 848 931
342 233 856
343 833 332
344 121 796
345 707 857
346 690 527
347 811 783
348 79 234
349 29 570
350 259 444
351 26 660
352 618 855
353 753 424
354 747 462
355 406 880
356 635 529
357 310 765
358 444 966
359 759 555
360 784 434
361 906 911
362 575 734
363 234 493
364 377 928
365 102 786
366 54 485
367 917 138
368 866 690
369 556 739
370 300 357
371 844 603
372 374 477
373 334 958
374 672 417
375 773 618
376 282 880
377 748 850
378 367 534
379 310 838
380 625 343
381 379 388
382 949 696
383 605 114
384 812 229
385 884 888
386 914 913
387 65 369
388 268 824
389 335 460
390 545 601
391 996 311
392 367 379
393 304 808
394 479 607
395 741 978
396 784 502
397 878 347
398 587 607
399 264 329
400 691 618
401 140 350
402 763 494
403 108 29
404 413 515
405 870 632
406 631 919
407 501 606
408 352 487
409 476 22
410 780 505
411 772 324
412 547 428
413 580 425
414 926 505
415 960 705
416 81 301
417 30 367
418 962 592
419 866 231
420 309 524
421 18 304
422 580 38
423 739 598
424 581 633
425 665 638
426 880 775
427 629 631
428 371 600
429 501 223
430 215 451
431 49 525
432 718 972
433 932 564
434 72 355
435 286 840
436 75 872
437 51 518
438 992 644
439 303 414
440 711 483
441 933 250
442 46 598
443 562 503
444 115 157
445 304 785
446 188 816
447 727 298
448 612 777
449 398 880
450 334 458
451 846 703
452 972 386
453 329 97
454 892 400
455 639 318
456 34 810
457 147 837
458 598 9
459 689 739
460 344 952
461 665 405
462 906 931
463 212 478
464 784 249
465 456 454
466 615 858
DEMAND_SECTION
2 50
3 86
4 94
5 54
6 57
7 52
8 66
9 76
10 69
11 57
12 77
13 94
14 64
15 79
16 91
17 55
18 79
19 68
20 51
21 93
22 91
23 68
24 51
25 93
26 91
27 91
28 59
29 76
30 57
31 96
32 97
33 69
34 83
35 58
36 56
37 81
38 96
39 52
40 86
41 78
42 92
43 67
44 56
45 56
46 51
47 91
48 93
49 73
50 70
51 77
52 91
53 64
54 81
55 76
56 51
57 75
58 81
59 57
60 50
61 80
62 53
63 86
64 61
65 62
66 100
67 94
COVERAGE_SECTION
2 9 153 302 79 276 7 197 331 419 335 
3 9 190 353 247 136 360 313 245 354 20 
4 9 22 144 402 270 312 126 301 359 410 
5 9 77 21 345 107 240 222 157 328 283 
6 9 464 79 384 331 185 153 2 419 48 
7 9 335 2 397 153 302 343 79 331 276 
8 9 80 380 75 237 455 252 193 245 461 
9 9 431 437 109 176 309 156 327 366 118 
10 7 133 215 261 81 375 206 451 
11 9 151 145 169 421 277 214 226 417 257 
12 9 246 244 448 54 264 459 362 334 265 
13 9 228 460 373 364 199 287 316 30 272 
14 9 71 388 159 330 60 53 33 342 446 
15 9 219 263 163 24 284 400 425 116 427 
16 9 310 135 395 111 432 26 165 142 147 
17 9 279 37 391 289 236 198 238 205 452 
18 9 415 232 382 94 221 300 67 271 225 
19 9 207 69 173 131 137 453 162 58 297 
20 9 313 218 360 247 195 160 115 353 190 
21 9 5 157 345 240 77 107 222 352 283 
22 9 144 4 270 126 301 440 402 354 312 
23 9 121 365 285 130 46 344 217 117 208 
24 9 163 400 315 132 284 219 116 15 423 
25 9 387 417 293 434 169 74 200 203 11 
26 9 147 165 341 56 99 336 310 90 251 
27 8 303 457 170 149 117 446 208 342 
28 9 155 290 188 444 34 120 51 318 403 
29 9 233 349 442 327 68 103 176 351 63 
30 9 287 86 358 364 83 110 228 13 272 
31 9 450 389 82 439 210 248 350 227 64 
32 9 161 275 336 385 43 98 347 184 89 
33 9 393 388 53 435 445 339 72 379 159 
34 9 51 172 155 134 28 120 290 150 403 
35 9 258 378 45 408 248 420 273 250 372 
36 9 390 407 329 314 256 394 424 125 255 
37 9 17 236 279 391 289 238 198 441 205 
38 7 76 323 458 93 422 242 383 
39 9 88 447 260 136 292 411 231 245 190 
40 8 405 234 271 81 368 94 232 382 
41 8 462 268 251 361 201 386 138 341 
42 6 367 152 122 319 220 239 
43 9 89 124 385 177 361 386 201 127 251 
44 6 243 101 409 322 207 137 
45 9 248 408 35 389 450 420 258 372 31 
46 9 285 121 208 23 113 436 456 365 117 
47 8 216 191 102 452 236 279 414 454 
48 8 286 384 253 419 213 282 464 6 
49 9 370 91 392 235 62 187 326 381 305 
50 8 114 308 307 112 429 267 306 304 
51 9 403 120 229 34 188 168 28 134 155 
52 9 166 291 262 337 180 299 174 250 273 
53 9 435 388 339 33 60 379 14 393 376 
54 8 362 369 246 448 12 95 340 125 
55 9 73 325 188 120 229 403 211 28 51 
56 9 99 275 108 336 142 26 147 341 283 
57 9 281 199 175 379 72 449 316 139 355 
58 9 297 173 150 162 194 134 69 172 453 
59 8 123 92 412 296 443 413 254 167 
60 9 342 53 388 14 435 376 339 71 33 
61 9 311 298 192 416 100 171 119 257 259 
62 9 370 399 294 305 187 91 223 49 439 
63 7 68 351 196 148 140 29 442 
64 9 350 210 227 430 363 82 463 31 439 
65 8 129 179 433 320 234 418 181 105 
66 8 128 205 198 289 441 122 238 319 
67 9 300 288 70 158 426 18 209 141 183 
68 8 63 351 196 29 140 442 148 233 
69 8 453 162 131 173 194 19 297 58 
70 9 426 158 288 141 67 300 161 209 183 
71 8 14 330 159 224 446 388 342 60 
72 9 393 379 97 175 339 33 445 435 53 
73 9 55 325 188 211 120 229 403 28 318 
74 7 200 25 241 203 387 417 106 
75 8 380 80 455 8 252 237 87 193 
76 7 38 323 242 458 93 422 383 
77 9 222 5 107 345 240 328 21 157 377 
78 8 456 333 338 285 121 113 46 23 
79 9 153 331 2 6 7 302 343 384 419 
80 8 8 380 75 455 237 252 193 245 
81 8 405 368 133 10 451 371 40 234 
82 9 439 227 31 305 350 64 210 450 91 
83 9 287 272 30 358 86 228 364 13 460 
84 7 204 324 373 460 13 228 376 
85 9 259 298 171 348 311 61 416 100 192 
86 8 110 358 30 287 364 139 83 316 
87 6 252 193 380 75 8 80 
88 9 39 136 260 245 447 190 80 292 3 
89 9 43 124 177 385 361 386 127 201 462 
90 9 165 138 147 341 41 268 26 251 462 
91 8 305 370 49 392 439 62 381 82 
92 6 59 412 123 465 254 413 
93 4 422 458 38 76 
94 9 232 382 18 415 271 300 221 40 67 
95 5 369 340 362 54 246 
96 8 371 320 375 234 405 10 81 359 
97 6 445 357 393 72 175 33 
98 6 184 347 377 32 275 283 
99 9 56 108 142 275 336 26 147 283 341 
100 9 119 311 192 61 401 416 298 171 434 
101 4 409 243 322 44 
102 8 216 47 191 452 454 414 236 105 
103 9 280 233 349 431 327 437 109 9 176 
104 7 420 258 250 35 378 299 428 
105 6 414 433 129 278 179 65 
106 8 366 109 437 118 431 241 9 280 
107 9 240 77 328 5 182 222 21 345 352 
108 9 142 99 56 283 157 275 377 111 395 
109 9 437 431 366 106 9 118 280 309 176 
110 9 86 358 30 355 139 449 316 287 364 
111 7 395 432 135 16 142 310 108 
112 6 114 326 307 50 235 429 
113 9 436 46 338 285 121 208 456 78 23 
114 8 50 112 307 308 429 326 267 306 
115 9 343 397 195 335 7 331 20 411 190 
116 8 400 132 425 24 163 315 265 15 
117 9 457 344 23 365 208 130 121 46 285 
118 7 366 106 109 437 309 9 431 
119 6 401 100 311 192 61 434 
120 9 403 229 51 188 55 325 34 28 155 
121 9 285 46 23 208 365 113 456 130 344 
122 8 319 367 42 66 128 282 205 441 
123 7 59 296 443 412 413 92 254 
124 9 89 43 177 127 385 386 332 361 201 
125 8 329 340 36 255 424 369 362 54 
126 9 440 144 270 22 301 354 4 402 346 
127 7 177 124 332 89 201 386 43 
128 8 66 205 198 289 441 238 122 319 
129 7 433 65 179 418 105 278 414 
130 9 365 344 217 23 212 121 117 285 46 
131 7 453 69 162 137 207 19 173 
132 8 315 24 400 116 163 423 284 425 
133 7 10 261 81 451 368 206 215 
134 9 150 168 34 58 51 173 297 403 229 
135 9 395 16 111 310 432 142 26 108 165 
136 9 245 3 88 190 39 461 374 353 237 
137 4 207 131 453 19 
138 7 268 90 41 462 201 165 251 
139 9 316 449 355 199 364 57 281 110 228 
140 5 148 196 351 63 68 
141 8 426 70 161 158 67 300 288 347 
142 9 108 99 56 111 283 395 157 432 275 
143 5 304 306 429 114 50 
144 9 22 126 270 440 301 4 402 354 346 
145 9 277 421 214 11 226 151 257 169 293 
146 9 172 444 295 290 34 297 194 155 85 
147 9 341 26 165 336 251 90 41 56 99 
148 7 196 140 333 63 351 217 68 
149 4 269 170 303 27 
150 9 134 168 58 34 173 297 51 172 403 
151 9 11 421 145 169 214 277 417 226 257 
152 4 367 239 42 220 
153 9 2 79 331 302 7 276 6 197 419 
154 7 231 185 292 464 447 260 6 
155 9 28 290 444 188 34 51 120 318 403 
156 3 309 176 9 
157 9 21 345 5 283 108 377 77 142 222 
158 9 288 70 67 209 426 183 300 141 161 
159 8 330 249 14 71 33 388 445 224 
160 9 218 20 313 195 360 396 181 410 247 
161 9 426 141 70 158 32 288 347 184 67 
162 8 69 453 131 173 194 297 58 19 
163 9 24 284 400 315 219 132 15 116 423 
164 8 274 398 427 255 424 15 390 425 
165 9 26 147 90 341 310 251 41 336 138 
166 9 262 52 291 337 273 404 174 299 180 
167 6 465 404 92 273 59 262 
168 9 134 150 51 403 229 120 34 58 188 
169 9 417 11 151 293 25 387 145 226 434 
170 7 303 149 27 269 342 60 457 
171 9 298 311 61 85 100 259 416 192 119 
172 9 146 34 444 297 290 295 58 194 155 
173 9 58 297 162 69 194 453 19 131 150 
174 8 291 394 262 52 166 407 314 256 
175 7 72 266 281 97 57 379 393 
176 9 327 9 349 431 156 309 437 442 109 
177 8 386 201 361 127 89 124 462 43 
178 9 321 346 356 263 219 284 440 15 126 
179 8 65 129 433 320 414 181 105 234 
180 8 428 299 337 250 52 166 291 189 
181 8 320 179 414 65 129 160 433 96 
182 7 352 466 240 107 448 328 5 
183 9 209 288 158 67 332 70 300 124 221 
184 7 347 98 141 161 32 426 261 
185 9 464 154 231 6 384 447 292 260 411 
186 2 152 42 
187 8 294 223 399 62 230 370 49 91 
188 9 120 55 28 403 51 229 155 73 325 
189 6 256 314 394 180 291 52 
190 9 3 247 136 411 353 20 39 88 313 
191 6 216 47 102 452 105 414 
192 9 416 257 61 100 226 311 434 293 119 
193 6 252 87 380 8 254 237 
194 8 297 162 58 173 295 69 453 131 
195 9 218 20 454 115 160 313 397 343 360 
196 6 148 63 140 351 68 333 
197 8 276 302 419 238 2 253 441 282 
198 8 205 441 238 289 128 66 17 37 
199 9 316 139 364 57 449 228 13 355 281 
200 7 74 241 25 203 387 106 366 
201 8 386 361 462 177 41 268 251 89 
202 4 318 211 28 155 
203 8 241 74 200 417 25 169 387 106 
204 7 84 373 460 376 13 228 324 
205 8 198 441 128 238 66 289 197 276 
206 4 215 261 10 133 
207 6 137 131 19 453 44 69 
208 8 46 436 121 285 113 117 23 457 
209 9 183 288 158 67 332 70 300 124 426 
210 8 64 350 227 363 31 463 430 82 
211 7 318 202 55 73 188 28 155 
212 5 130 365 344 217 23 
213 2 286 48 
214 8 421 277 145 11 151 226 257 169 
215 4 206 10 375 133 
216 8 191 47 102 452 414 105 454 236 
217 7 130 365 23 344 121 285 212 
218 9 160 195 20 313 360 454 247 115 353 
219 9 15 263 163 284 24 400 315 425 116 
220 6 239 367 152 282 286 48 
221 9 18 415 382 232 94 225 67 300 183 
222 8 77 345 5 107 328 377 283 240 
223 6 230 399 294 187 62 370 
224 5 330 71 446 14 159 
225 8 438 415 382 221 232 18 94 418 
226 9 257 145 293 416 192 11 277 434 421 
227 9 350 64 82 210 430 31 439 363 305 
228 9 13 460 373 364 199 287 30 316 272 
229 9 403 120 51 188 325 168 55 34 73 
230 5 223 399 294 187 62 
231 8 292 447 154 260 185 39 464 411 
232 9 382 94 415 18 271 221 300 225 67 
233 9 349 29 103 327 442 176 280 431 437 
234 9 405 371 320 65 40 81 96 129 179 
235 5 392 381 326 49 91 
236 9 37 279 17 452 397 335 391 454 7 
237 9 8 461 80 380 245 374 75 193 252 
238 8 441 198 276 205 197 302 289 37 
239 6 220 367 152 282 286 48 
240 9 107 5 182 77 328 352 21 466 345 
241 8 203 200 74 106 366 25 280 109 
242 3 76 38 323 
243 4 44 101 409 322 
244 7 265 334 427 12 425 255 424 
245 9 136 461 374 88 237 8 80 3 39 
246 8 448 54 362 369 12 95 182 328 
247 9 360 353 313 3 20 190 354 218 136 
248 9 45 408 389 450 372 35 31 420 258 
249 7 159 357 445 33 330 393 97 
250 9 299 337 428 378 180 258 35 52 104 
251 9 41 341 385 361 462 336 147 386 201 
252 7 87 193 380 75 8 80 455 
253 8 419 282 197 48 384 276 2 153 
254 6 413 412 193 123 59 92 
255 8 424 398 164 274 427 390 125 36 
256 6 314 394 407 36 189 329 
257 9 226 192 416 293 145 434 277 11 421 
258 9 35 378 250 45 420 273 408 248 104 
259 9 348 85 298 171 61 416 311 192 257 
260 9 447 292 39 231 88 411 154 455 185 
261 6 133 451 10 368 206 81 
262 9 166 291 52 174 404 273 337 299 180 
263 9 219 15 284 178 321 163 356 24 346 
264 4 459 334 12 265 
265 8 334 244 425 116 264 459 12 400 
266 3 175 281 57 
267 4 308 307 50 92 
268 7 138 462 41 201 386 361 90 
269 7 149 170 303 84 27 204 324 
270 9 301 144 126 354 22 402 440 4 410 
271 8 94 368 300 232 382 18 40 451 
272 9 83 287 460 373 13 228 30 364 358 
273 9 404 378 166 262 35 258 337 52 250 
274 8 164 398 427 255 424 15 263 219 
275 9 56 99 336 32 377 108 283 142 98 
276 8 302 197 238 2 441 153 419 7 
277 9 421 145 214 11 151 226 257 169 416 
278 5 418 433 105 129 65 
279 9 17 391 37 236 289 452 198 238 205 
280 9 103 109 431 437 106 366 233 9 349 
281 8 57 175 449 355 266 199 139 316 
282 8 253 419 197 48 220 276 441 239 
283 9 377 345 157 108 222 142 5 275 99 
284 9 163 24 219 315 15 400 263 132 423 
285 9 121 46 23 208 456 113 365 130 217 
286 5 213 48 384 239 220 
287 9 30 83 86 358 364 272 228 13 460 
288 9 158 67 70 209 300 183 426 141 161 
289 9 198 128 17 205 391 66 37 441 238 
290 8 155 444 28 34 146 172 188 51 
291 9 52 262 166 174 337 180 394 273 299 
292 7 231 260 447 154 39 185 88 
293 9 434 387 25 226 257 169 417 192 11 
294 8 399 223 187 62 230 370 49 305 
295 5 194 146 172 297 58 
296 7 443 123 59 412 413 254 356 
297 8 58 173 194 162 69 172 150 453 
298 9 171 311 61 85 259 100 416 192 119 
299 9 428 337 180 250 52 166 378 258 262 
300 9 67 288 70 158 271 18 426 94 141 
301 9 270 354 144 126 402 22 440 4 410 
302 8 276 2 197 153 7 238 79 335 
303 8 170 27 149 342 269 60 457 446 
304 5 143 306 429 50 114 
305 9 439 370 62 91 82 227 49 399 350 
306 5 143 304 429 114 50 
307 7 326 114 112 50 235 267 308 
308 4 267 50 114 307 
309 7 156 9 176 431 437 118 109 
310 9 16 135 395 26 165 111 147 432 90 
311 9 61 298 171 100 192 416 119 401 85 
312 9 410 396 402 4 359 22 270 301 144 
313 9 360 247 20 353 218 160 3 354 195 
314 6 256 394 407 36 174 189 
315 8 132 24 163 423 400 284 116 219 
316 9 139 199 449 364 355 57 228 281 13 
317 5 430 227 350 64 463 
318 5 202 211 28 155 290 
319 8 122 367 42 66 282 128 205 441 
320 8 371 234 65 96 181 179 129 405 
321 7 356 178 263 346 219 15 284 
322 4 409 101 44 243 
323 6 38 76 458 242 93 422 
324 7 84 204 373 460 272 13 228 
325 9 55 73 229 188 120 403 51 28 211 
326 7 307 235 112 49 392 381 114 
327 9 349 176 442 233 29 431 9 103 437 
328 8 107 77 240 222 5 182 448 459 
329 9 125 36 256 314 340 407 424 255 390 
330 5 71 159 224 14 249 
331 9 79 343 153 6 7 2 115 411 335 
332 9 127 124 209 183 89 43 177 158 288 
333 7 78 456 148 217 196 285 23 
334 7 265 244 425 264 116 459 12 
335 9 7 397 343 302 2 115 153 331 79 
336 9 341 147 251 56 275 99 26 385 32 
337 9 299 250 180 52 428 166 378 262 291 
338 8 113 456 78 46 436 285 121 208 
339 9 435 53 379 388 33 72 393 376 60 
340 6 369 95 125 329 362 54 
341 9 147 251 336 26 165 41 90 385 462 
342 9 60 14 53 388 303 71 376 435 446 
343 9 115 331 7 335 397 79 153 2 411 
344 9 365 130 117 23 121 217 457 212 285 
345 9 5 157 77 21 283 222 377 107 240 
346 9 178 321 22 4 440 126 144 263 284 
347 7 184 98 141 161 426 32 261 
348 6 259 85 298 416 61 171 
349 9 327 233 176 29 442 103 431 9 437 
350 9 227 64 210 82 430 31 439 363 463 
351 7 68 63 196 140 148 442 29 
352 7 466 182 240 107 21 406 5 
353 9 247 3 360 354 313 190 301 270 20 
354 9 301 270 402 126 144 353 440 22 360 
355 8 449 139 316 281 199 110 364 57 
356 7 321 178 263 346 219 15 296 
357 6 445 97 249 393 33 72 
358 8 86 30 287 110 83 364 272 139 
359 9 312 4 423 410 22 396 402 315 375 
360 9 313 247 353 20 354 3 218 160 301 
361 8 386 201 462 177 41 385 251 89 
362 8 54 369 246 95 448 12 340 125 
363 6 463 210 64 430 350 227 
364 9 316 228 13 139 199 30 460 287 373 
365 9 130 23 344 217 121 285 117 212 46 
366 7 106 109 118 437 431 9 241 
367 7 42 152 220 239 319 122 282 
368 8 451 271 81 261 133 40 405 10 
369 7 362 54 95 340 246 125 448 
370 9 62 305 91 49 294 399 187 439 223 
371 8 96 234 405 320 81 10 375 65 
372 6 408 248 45 389 450 35 
373 9 460 13 228 204 84 364 272 199 287 
374 6 461 245 237 136 8 3 
375 7 423 215 10 96 315 132 359 
376 8 339 435 53 60 379 342 204 388 
377 9 283 345 222 275 157 98 108 77 5 
378 9 258 35 273 250 337 408 45 404 299 
379 9 339 72 435 393 53 33 388 57 175 
380 8 75 80 8 455 252 237 193 87 
381 4 392 235 91 49 
382 9 232 94 415 18 221 225 271 300 40 
383 4 422 93 38 76 
384 9 464 6 48 253 419 185 79 286 153 
385 9 43 251 361 89 386 124 41 201 462 
386 8 361 201 462 177 41 385 89 251 
387 9 25 434 293 417 169 74 226 257 200 
388 9 53 33 435 339 14 60 393 379 159 
389 8 450 248 31 408 45 372 439 82 
390 8 36 398 407 424 255 164 314 274 
391 9 17 279 289 37 198 236 128 205 66 
392 5 381 235 91 49 326 
393 9 33 72 445 97 379 339 435 388 53 
394 7 314 407 256 174 36 189 291 
395 8 111 135 432 16 310 142 108 26 
396 9 410 312 402 301 4 270 22 354 144 
397 9 335 7 115 343 454 236 195 302 2 
398 7 164 274 424 255 390 427 36 
399 8 294 223 62 230 187 370 305 49 
400 9 24 116 163 132 315 425 15 284 219 
401 6 119 100 311 61 192 171 
402 9 410 396 301 312 270 22 4 144 354 
403 9 229 120 51 188 168 34 325 55 28 
404 7 273 262 166 378 372 167 52 
405 9 234 81 371 40 368 96 320 133 10 
406 3 466 21 352 
407 7 394 314 36 256 390 174 329 
408 8 248 45 372 389 450 35 258 378 
409 4 101 322 243 44 
410 9 396 312 402 4 301 270 22 144 354 
411 9 190 447 39 331 343 115 88 6 260 
412 6 254 413 92 59 123 296 
413 5 254 412 123 193 59 
414 6 105 179 181 433 129 65 
415 9 18 382 232 94 221 225 271 300 67 
416 9 192 257 61 226 311 100 298 145 293 
417 9 169 25 387 293 11 434 151 203 226 
418 6 278 433 129 65 438 105 
419 8 253 197 282 276 2 153 48 302 
420 7 45 35 258 104 248 408 378 
421 8 214 277 145 11 151 226 257 169 
422 3 93 458 38 
423 8 315 132 375 24 163 284 359 400 
424 8 255 398 164 274 390 427 36 125 
425 9 116 400 427 15 265 24 163 334 219 
426 9 141 70 161 158 67 288 300 347 209 
427 8 274 164 425 255 398 424 244 15 
428 8 180 299 337 250 52 166 104 378 
429 5 304 306 143 50 114 
430 7 463 64 350 227 363 210 317 
431 9 437 9 109 176 366 106 309 327 103 
432 7 111 395 135 142 16 310 108 
433 7 129 65 179 418 278 105 414 
434 9 293 387 25 226 257 192 169 417 100 
435 9 339 53 379 388 33 393 72 376 60 
436 6 113 208 46 285 121 338 
437 9 431 109 9 366 106 176 309 118 103 
438 8 225 418 382 415 278 232 94 18 
439 9 82 305 91 31 227 350 450 389 370 
440 8 126 144 270 22 301 354 4 346 
441 8 238 205 198 197 276 128 289 66 
442 7 327 349 29 176 233 351 156 
443 7 296 123 59 412 356 413 92 
444 8 290 155 28 146 172 34 348 85 
445 6 97 357 393 33 249 72 
446 8 71 224 457 14 330 117 342 27 
447 9 260 39 231 292 88 411 185 154 464 
448 8 246 54 12 182 362 328 369 107 
449 8 355 139 316 281 199 57 364 110 
450 8 389 248 31 408 45 372 439 82 
451 7 368 261 133 81 271 10 141 
452 9 47 102 236 279 216 191 17 37 391 
453 8 131 69 162 173 137 207 19 194 
454 9 195 397 218 236 335 115 102 160 20 
455 7 75 80 380 8 252 87 237 
456 8 78 285 338 121 333 113 46 23 
457 9 117 27 446 344 208 23 303 365 46 
458 5 93 422 38 323 76 
459 4 264 334 12 265 
460 9 13 228 373 364 272 199 204 84 287 
461 6 374 237 245 8 136 80 
462 8 201 41 361 386 268 251 177 138 
463 6 363 430 64 210 350 227 
464 9 185 6 384 154 231 79 331 48 153 
465 4 167 92 404 59 
466 7 352 182 240 107 406 21 5 
DEPOT_SECTION
   1
   -1
EOF
