NAME :  X-n670-kX-w267-c11.cctp
COMMENT : 	Adapted by Maziero, Usberti and Cavellucci from the Uchoa, Pecin, Pessoa, Poggi, Subramanian, and Vidal (2013)
TYPE :  CCTP
DIMENSION :    669
EDGE_WEIGHT_TYPE : 	EUC_2D	
CAPACITY : 	129
VERTICES_WITHIN_COVERAGE :  11
VERTICES_WITH_DEMAND : 	267
NODE_COORD_SECTION
1 612 199
2 864 279
3 746 395
4 738 519
5 684 851
6 806 263
7 867 314
8 637 357
9 64 531
10 803 657
11 22 330
12 634 731
13 351 945
14 240 812
15 664 595
16 775 1000
17 971 313
18 953 717
19 317 25
20 812 410
21 677 874
22 731 504
23 89 803
24 697 604
25 53 379
26 817 947
27 164 875
28 86 108
29 9 596
30 406 956
31 304 456
32 843 846
33 285 809
34 148 84
35 349 524
36 527 626
37 947 317
38 646 27
39 718 325
40 906 651
41 889 936
42 953 118
43 908 868
44 447 13
45 335 495
46 77 834
47 992 428
48 826 196
49 337 341
50 482 288
51 123 49
52 415 572
53 274 837
54 581 738
55 33 36
56 795 906
57 353 858
58 242 80
59 532 464
60 246 853
61 109 299
62 285 353
63 5 669
64 255 457
65 909 568
66 986 234
67 920 756
68 7 655
69 441 88
70 569 543
71 317 94
72 897 775
73 226 802
74 716 738
75 320 820
76 15 31
77 114 664
78 60 419
79 629 333
80 662 34
81 780 143
82 689 829
83 19 801
84 836 281
85 227 730
86 640 347
87 850 655
88 742 663
89 290 424
90 407 997
91 553 92
92 286 957
93 129 245
94 435 940
95 141 578
96 578 334
97 732 726
98 624 979
99 705 340
100 431 858
101 416 416
102 826 58
103 913 873
104 862 977
105 326 380
106 344 764
107 512 437
108 589 34
109 937 700
110 439 819
111 826 559
112 535 764
113 547 971
114 822 590
115 257 530
116 324 789
117 788 804
118 156 583
119 788 907
120 788 123
121 115 327
122 561 946
123 477 11
124 455 671
125 317 685
126 105 965
127 962 433
128 62 729
129 5 534
130 314 568
131 957 527
132 47 482
133 123 549
134 665 826
135 756 911
136 50 508
137 439 921
138 86 447
139 731 971
140 417 273
141 52 855
142 463 281
143 832 357
144 693 636
145 890 71
146 131 820
147 85 486
148 130 344
149 204 308
150 381 694
151 98 41
152 182 538
153 78 818
154 954 175
155 555 470
156 4 246
157 925 867
158 546 678
159 717 485
160 958 891
161 980 240
162 306 252
163 925 566
164 105 781
165 812 738
166 337 94
167 96 457
168 713 619
169 815 673
170 193 37
171 229 668
172 750 998
173 713 377
174 383 57
175 898 976
176 388 899
177 57 697
178 869 771
179 755 921
180 504 197
181 727 494
182 564 932
183 30 311
184 175 156
185 429 144
186 836 939
187 35 719
188 183 932
189 200 42
190 6 329
191 656 984
192 515 67
193 904 97
194 850 281
195 858 708
196 856 1
197 732 232
198 92 113
199 183 762
200 99 558
201 703 888
202 914 786
203 255 781
204 838 456
205 167 519
206 448 397
207 273 665
208 869 804
209 300 97
210 282 690
211 514 82
212 694 598
213 606 610
214 955 545
215 835 965
216 16 229
217 418 558
218 458 484
219 169 8
220 242 978
221 395 462
222 739 169
223 29 177
224 983 512
225 28 353
226 195 905
227 6 201
228 549 395
229 132 282
230 180 133
231 267 75
232 459 577
233 354 814
234 499 941
235 59 558
236 931 901
237 666 528
238 909 551
239 208 677
240 386 600
241 869 521
242 622 830
243 615 221
244 953 797
245 92 906
246 803 785
247 762 251
248 957 6
249 294 309
250 68 61
251 207 587
252 431 633
253 760 373
254 991 448
255 88 318
256 612 473
257 603 258
258 593 372
259 621 298
260 434 211
261 265 137
262 852 404
263 599 648
264 41 925
265 17 702
266 198 753
267 893 251
268 278 581
269 458 655
270 15 767
271 953 259
272 189 538
273 11 220
274 139 439
275 306 589
276 528 43
277 434 633
278 359 900
279 60 422
280 245 738
281 307 647
282 919 921
283 398 706
284 0 149
285 542 28
286 13 415
287 81 655
288 652 200
289 878 63
290 292 936
291 952 248
292 763 701
293 380 49
294 356 176
295 427 729
296 98 852
297 945 802
298 262 472
299 3 108
300 130 746
301 794 150
302 16 297
303 757 663
304 529 867
305 981 443
306 82 768
307 839 433
308 670 588
309 883 41
310 874 141
311 981 726
312 133 673
313 709 822
314 258 312
315 993 615
316 199 777
317 995 677
318 56 320
319 259 438
320 353 945
321 102 17
322 543 844
323 248 300
324 783 112
325 726 266
326 944 700
327 2 569
328 880 608
329 383 363
330 940 348
331 644 381
332 738 647
333 925 264
334 164 391
335 871 137
336 655 838
337 24 441
338 703 67
339 462 4
340 630 680
341 688 380
342 597 758
343 774 414
344 869 62
345 748 82
346 337 487
347 239 564
348 277 764
349 365 569
350 370 415
351 872 918
352 966 955
353 527 371
354 595 345
355 761 704
356 745 698
357 552 38
358 864 223
359 575 418
360 634 443
361 585 637
362 482 633
363 61 319
364 350 533
365 98 246
366 707 298
367 544 935
368 816 701
369 393 463
370 250 586
371 426 554
372 658 570
373 99 899
374 778 1
375 689 736
376 704 155
377 675 682
378 405 693
379 390 804
380 486 361
381 905 954
382 204 948
383 168 343
384 739 482
385 403 374
386 700 693
387 739 711
388 900 705
389 111 617
390 367 999
391 395 526
392 611 607
393 800 873
394 138 574
395 508 172
396 217 654
397 566 346
398 895 268
399 26 302
400 264 705
401 337 760
402 975 574
403 981 331
404 2 508
405 368 849
406 666 120
407 976 942
408 888 203
409 740 867
410 712 181
411 695 582
412 74 819
413 864 81
414 810 168
415 400 966
416 924 776
417 979 276
418 105 134
419 433 571
420 497 386
421 651 251
422 704 274
423 712 142
424 62 350
425 276 320
426 158 422
427 232 190
428 589 261
429 578 815
430 979 553
431 569 491
432 247 101
433 106 580
434 125 281
435 376 586
436 915 744
437 742 479
438 513 366
439 885 281
440 669 455
441 191 889
442 509 202
443 402 151
444 292 387
445 491 202
446 434 328
447 816 33
448 769 86
449 504 328
450 63 922
451 92 533
452 787 990
453 422 190
454 123 301
455 775 517
456 238 923
457 266 229
458 794 427
459 485 623
460 716 603
461 384 901
462 208 400
463 17 138
464 952 175
465 953 960
466 863 568
467 645 528
468 473 40
469 567 988
470 665 5
471 300 160
472 281 999
473 44 4
474 763 761
475 390 315
476 37 567
477 330 676
478 667 799
479 526 664
480 230 780
481 824 302
482 969 848
483 19 766
484 675 686
485 876 329
486 836 902
487 386 574
488 18 851
489 292 841
490 516 721
491 848 931
492 233 856
493 833 61
494 833 332
495 824 67
496 121 796
497 707 857
498 690 527
499 442 109
500 811 783
501 79 234
502 568 362
503 29 570
504 259 444
505 570 840
506 26 660
507 618 855
508 753 424
509 747 462
510 202 510
511 444 757
512 406 880
513 635 529
514 310 765
515 444 966
516 660 987
517 211 608
518 143 544
519 759 555
520 784 434
521 906 911
522 575 734
523 234 493
524 377 928
525 102 786
526 54 485
527 917 138
528 866 690
529 638 224
530 108 715
531 556 739
532 4 955
533 300 357
534 844 603
535 107 934
536 374 477
537 334 958
538 444 99
539 226 253
540 888 24
541 934 938
542 672 417
543 773 618
544 282 880
545 748 850
546 367 534
547 310 838
548 625 343
549 379 388
550 949 696
551 605 114
552 812 229
553 884 888
554 914 913
555 125 541
556 65 369
557 268 824
558 335 460
559 545 601
560 436 107
561 996 311
562 367 379
563 238 666
564 304 808
565 479 607
566 741 978
567 784 502
568 878 347
569 587 607
570 264 329
571 464 763
572 691 618
573 140 350
574 326 770
575 763 494
576 108 29
577 413 515
578 390 406
579 870 632
580 823 5
581 631 919
582 501 606
583 174 503
584 352 487
585 476 22
586 780 505
587 772 324
588 547 428
589 580 425
590 926 505
591 960 705
592 81 301
593 30 367
594 717 772
595 737 141
596 962 592
597 866 231
598 510 737
599 309 524
600 18 304
601 580 38
602 739 598
603 581 633
604 413 455
605 618 953
606 415 820
607 665 638
608 135 578
609 880 775
610 629 631
611 371 600
612 501 223
613 215 451
614 49 525
615 718 972
616 656 456
617 932 564
618 424 764
619 423 93
620 72 355
621 286 840
622 75 872
623 410 700
624 51 518
625 992 644
626 407 141
627 303 414
628 224 557
629 711 483
630 401 128
631 933 250
632 46 598
633 562 503
634 115 157
635 829 113
636 304 785
637 617 993
638 188 816
639 727 298
640 612 777
641 398 880
642 334 458
643 65 991
644 912 247
645 383 233
646 846 703
647 485 768
648 972 386
649 502 763
650 96 937
651 329 97
652 892 400
653 639 318
654 34 810
655 147 837
656 598 9
657 129 390
658 689 739
659 187 735
660 344 952
661 263 610
662 665 405
663 906 931
664 212 478
665 784 249
666 647 257
667 456 454
668 615 858
669 385 722
DEMAND_SECTION
2 50
3 86
4 94
5 54
6 57
7 52
8 66
9 76
10 69
11 57
12 77
13 94
14 64
15 79
16 91
17 55
18 79
19 68
20 51
21 93
22 91
23 68
24 51
25 93
26 91
27 91
28 59
29 76
30 57
31 96
32 97
33 69
34 83
35 58
36 56
37 81
38 96
39 52
40 86
41 78
42 92
43 67
44 56
45 56
46 51
47 91
48 93
49 73
50 70
51 77
52 91
53 64
54 81
55 76
56 51
57 75
58 81
59 57
60 50
61 80
62 53
63 86
64 61
65 62
66 100
67 94
68 89
69 88
70 52
71 60
72 83
73 79
74 64
75 82
76 72
77 90
78 72
79 51
80 88
81 82
82 78
83 80
84 82
85 98
86 70
87 74
88 61
89 88
90 51
91 60
92 57
93 84
94 65
95 57
96 51
97 77
98 63
99 55
100 53
101 88
102 90
103 89
104 70
105 94
106 50
107 62
108 87
109 56
110 89
111 73
112 88
113 94
114 63
115 90
116 86
117 53
118 70
119 75
120 92
121 94
122 67
123 59
124 94
125 52
126 52
127 71
128 79
129 76
130 87
131 54
132 63
133 92
134 69
135 51
136 60
137 83
138 61
139 72
140 61
141 68
142 64
143 70
144 57
145 71
146 91
147 70
148 67
149 96
150 95
151 91
152 57
153 56
154 90
155 70
156 72
157 99
158 80
159 91
160 56
161 72
162 83
163 55
164 80
165 62
166 53
167 60
168 65
169 60
170 60
171 73
172 58
173 88
174 59
175 53
176 57
177 76
178 72
179 82
180 86
181 87
182 55
183 83
184 68
185 89
186 81
187 52
188 54
189 83
190 2
191 6
192 10
193 6
194 3
195 4
196 4
197 3
198 2
199 6
200 10
201 8
202 2
203 6
204 9
205 6
206 8
207 8
208 1
209 5
210 4
211 8
212 2
213 8
214 3
215 4
216 8
217 1
218 1
219 5
220 1
221 4
222 1
223 10
224 2
225 2
226 9
227 2
228 8
229 2
230 8
231 4
232 5
233 6
234 5
235 10
236 5
237 1
238 3
239 7
240 1
241 5
242 9
243 1
244 9
245 3
246 8
247 1
248 7
249 2
250 5
251 8
252 7
253 4
254 5
255 2
256 2
257 4
258 7
259 8
260 1
261 1
262 3
263 8
264 10
265 9
266 3
267 1
268 4
COVERAGE_SECTION
2 11 194 439 84 398 7 267 481 597 485 358 644 
3 11 253 508 343 173 520 458 341 509 20 99 39 
4 11 22 181 575 384 455 159 437 519 586 629 498 
5 11 82 21 497 134 336 313 201 478 409 545 242 
6 11 665 84 552 481 247 194 2 597 48 358 587 
7 11 485 2 568 194 439 494 84 481 398 143 267 
8 11 86 548 79 331 653 354 258 341 662 259 96 
9 11 614 624 136 235 451 200 476 526 147 132 503 
10 11 169 303 368 87 543 292 88 355 646 332 534 
11 11 190 183 225 600 399 302 318 593 363 424 620 
12 11 342 340 640 54 375 658 522 484 377 386 478 
13 11 320 660 537 524 278 415 461 30 390 176 290 
14 11 73 557 203 480 60 53 33 492 638 316 621 
15 11 308 372 212 24 411 572 607 144 610 460 392 
16 11 452 172 566 139 615 26 215 179 186 104 135 
17 11 403 37 561 417 330 271 333 291 648 161 631 
18 11 591 326 550 109 311 436 67 388 317 416 202 
19 11 293 71 231 166 174 651 209 58 432 189 261 
20 11 458 307 520 343 262 204 143 508 253 3 494 
21 11 5 201 497 336 82 134 313 507 409 581 668 
22 11 181 4 384 159 437 629 575 509 455 498 586 
23 11 153 525 412 164 46 496 306 146 296 654 141 
24 11 212 572 460 168 411 308 144 15 602 607 372 
25 11 556 593 424 620 225 78 279 286 11 318 363 
26 11 186 215 491 56 119 486 452 104 351 179 16 
27 11 441 655 226 188 146 638 373 296 492 245 535 
28 11 198 418 250 634 34 151 51 463 576 299 55 
29 11 327 503 632 476 68 129 235 506 63 614 9 
30 11 415 94 515 524 90 137 320 13 390 461 176 
31 11 642 558 89 627 298 346 504 319 64 45 584 
32 11 208 393 486 553 43 117 500 246 103 56 351 
33 11 564 557 53 621 636 489 75 547 203 116 14 
34 11 51 230 198 170 28 151 418 189 576 184 219 
35 11 364 546 45 584 346 599 391 349 536 130 487 
36 11 559 582 479 459 362 565 603 158 361 569 263 
37 11 17 330 403 561 417 333 271 631 291 398 439 
38 11 80 470 656 108 601 338 357 406 551 285 91 
39 11 99 639 366 173 422 587 325 341 253 3 653 
40 11 579 328 388 87 528 109 326 550 195 591 534 
41 11 663 381 351 521 282 554 175 491 541 553 104 
42 11 527 193 154 464 145 310 335 289 413 344 309 
43 11 103 157 553 236 521 554 282 160 351 663 482 
44 11 339 123 585 468 69 293 174 619 276 538 192 
45 11 346 584 35 558 642 599 364 536 31 546 369 
46 11 412 153 296 23 141 622 654 525 146 496 164 
47 11 305 254 127 648 224 330 403 590 652 131 17 
48 11 414 552 358 597 301 408 665 6 81 310 335 
49 11 533 105 562 329 62 249 475 549 444 425 385 
50 11 142 449 446 140 612 380 438 445 442 260 180 
51 11 576 151 321 34 250 219 28 170 198 189 418 
52 11 217 419 371 487 240 435 232 349 391 611 577 
53 11 621 557 489 33 60 547 14 564 544 492 75 
54 11 522 531 342 640 12 112 490 158 598 340 429 
55 11 76 473 250 151 321 576 299 28 51 198 463 
56 11 119 393 135 486 179 26 186 491 409 215 545 
57 11 405 278 233 547 75 641 461 176 512 489 379 
58 11 432 231 189 209 261 170 71 230 651 19 34 
59 11 155 107 588 431 633 589 359 228 218 667 256 
60 11 492 53 557 14 621 544 489 73 33 441 547 
61 11 454 434 255 592 121 229 148 363 365 318 93 
62 11 533 570 425 444 249 105 314 49 627 323 89 
63 11 68 506 265 187 177 29 287 632 128 483 270 
64 11 504 298 319 613 523 89 664 31 627 115 462 
65 11 163 238 617 466 328 214 596 241 131 590 402 
66 11 161 291 271 417 631 154 333 464 644 561 17 
67 11 436 416 72 202 609 18 297 178 244 388 109 
68 11 63 506 265 29 177 632 187 287 327 503 128 
69 11 538 619 560 499 185 630 468 626 174 293 211 
70 11 633 431 559 569 513 155 213 392 467 256 59 
71 11 651 209 166 231 261 471 19 432 58 174 293 
72 11 609 202 416 178 67 436 208 297 244 388 195 
73 11 14 480 203 316 638 557 492 60 266 33 53 
74 11 97 375 658 594 387 386 356 474 355 292 484 
75 11 564 547 116 233 489 33 636 621 53 57 574 
76 11 55 473 250 299 151 321 576 28 463 51 198 
77 11 312 287 389 530 177 128 300 433 506 608 95 
78 11 279 138 25 337 286 556 167 593 132 620 526 
79 11 548 86 653 8 259 354 331 96 258 397 502 
80 11 38 470 338 656 108 601 406 345 551 357 423 
81 11 301 120 324 414 595 222 635 448 423 345 48 
82 11 313 5 134 497 336 478 21 201 545 409 594 
83 11 654 270 483 488 412 153 141 46 23 306 128 
84 11 194 481 2 6 7 439 494 552 597 398 665 
85 11 280 266 659 400 480 199 316 239 203 348 171 
86 11 8 548 79 653 331 354 258 259 341 96 662 
87 11 579 528 169 10 646 534 195 40 328 368 114 
88 11 303 332 356 292 355 387 386 168 543 144 10 
89 11 627 319 31 444 504 64 298 642 105 558 533 
90 11 415 390 30 515 94 320 524 13 660 137 537 
91 11 211 192 357 276 551 601 285 108 395 656 468 
92 11 290 472 537 220 660 456 13 320 544 382 390 
93 11 365 434 229 501 454 61 592 121 255 634 539 
94 11 137 515 30 415 524 176 90 234 461 512 641 
95 11 394 608 118 133 518 433 555 200 389 152 272 
96 11 397 354 502 258 548 79 259 8 86 353 653 
97 11 387 74 356 355 292 375 658 386 474 594 88 
98 11 637 605 191 516 469 581 122 182 113 367 615 
99 11 39 173 366 341 639 253 86 422 3 587 8 
100 11 512 110 641 606 176 137 405 461 379 57 94 
101 11 578 206 604 385 350 549 221 369 667 562 329 
102 11 493 495 447 344 413 289 580 635 309 196 448 
103 11 43 157 236 553 521 554 160 282 663 351 482 
104 11 215 175 186 491 41 381 26 351 663 452 486 
105 11 444 533 49 562 627 62 549 350 89 329 578 
106 11 401 574 116 514 636 233 564 669 75 379 348 
107 11 59 588 420 155 228 667 359 353 589 438 218 
108 11 601 656 357 285 38 276 91 80 192 470 551 
109 11 326 550 18 591 388 436 311 40 67 317 528 
110 10 606 100 379 618 571 511 512 647 641 405 
111 11 114 466 534 241 455 519 567 586 328 543 65 
112 11 531 649 598 490 522 647 54 342 429 571 640 
113 11 469 122 367 182 234 605 637 98 581 515 304 
114 11 534 111 466 543 328 579 10 87 519 169 241 
115 11 347 628 523 599 268 370 298 510 272 130 664 
116 11 574 636 514 564 75 106 401 233 33 547 348 
117 11 246 500 474 545 32 165 393 594 409 208 313 
118 11 95 394 608 518 133 433 251 152 555 272 389 
119 11 56 135 179 393 486 26 186 409 491 545 215 
120 11 324 81 301 448 635 414 595 345 222 495 102 
121 11 148 454 255 61 573 592 434 229 620 363 383 
122 11 182 367 113 469 605 234 98 637 581 304 191 
123 11 585 339 468 44 276 285 192 211 357 69 538 
124 11 269 277 252 362 623 378 459 295 283 565 479 
125 11 477 210 281 207 400 150 669 401 514 563 106 
126 11 650 535 643 245 450 373 264 188 622 382 532 
127 11 305 47 254 648 652 590 224 330 131 403 214 
128 11 187 177 306 530 265 483 270 164 300 525 287 
129 11 404 327 503 614 476 624 136 9 235 29 132 
130 11 275 268 599 364 349 35 546 435 611 370 661 
131 11 214 224 430 590 617 163 402 238 65 596 254 
132 11 526 136 624 147 614 337 9 138 404 167 279 
133 11 555 518 200 394 608 95 433 451 118 205 152 
134 11 336 82 478 5 242 313 21 497 507 668 640 
135 11 179 119 56 409 201 393 545 139 566 26 615 
136 11 624 614 526 132 9 147 404 451 235 129 476 
137 11 94 515 30 512 176 641 461 415 524 234 100 
138 11 167 279 78 147 526 132 274 337 136 657 25 
139 11 566 615 172 16 179 452 135 516 191 119 201 
140 11 142 475 645 446 260 50 453 329 612 385 445 
141 11 622 46 488 412 153 296 654 83 23 373 245 
142 11 50 140 446 449 612 260 475 380 445 442 180 
143 11 494 568 262 485 7 481 20 587 253 652 84 
144 11 572 168 607 24 212 460 332 377 15 308 484 
145 11 289 344 413 193 309 540 493 102 495 335 310 
146 11 655 496 23 525 296 164 153 46 412 638 27 
147 11 167 526 132 138 136 624 451 9 614 555 279 
148 11 573 121 383 454 657 255 61 334 620 229 434 
149 11 323 383 314 539 570 425 229 573 454 148 434 
150 10 283 378 669 623 477 295 125 124 106 252 
151 11 576 321 51 250 55 473 34 28 198 219 76 
152 11 272 205 510 583 518 628 118 251 95 394 555 
153 11 412 46 23 296 525 141 654 164 496 306 146 
154 11 464 527 42 66 161 408 291 631 644 271 310 
155 11 59 431 633 588 589 107 359 256 70 228 360 
156 11 216 273 227 302 399 600 183 223 501 190 11 
157 11 103 43 236 160 553 554 482 521 282 663 297 
158 11 479 490 36 361 603 263 531 522 54 598 559 
159 11 629 181 384 22 437 509 4 575 498 440 455 
160 11 236 157 482 103 282 554 541 407 43 521 352 
161 11 66 291 271 417 631 333 644 154 464 561 17 
162 11 457 249 425 323 314 645 539 570 294 471 49 
163 11 617 65 238 214 596 131 402 430 590 328 466 
164 11 525 496 306 23 300 153 146 412 46 530 128 
165 11 368 500 246 646 474 195 292 355 169 178 117 
166 11 651 71 209 174 293 19 630 231 471 261 294 
167 11 138 147 274 279 526 78 132 136 426 337 657 
168 11 460 24 572 144 212 602 332 411 607 88 308 
169 11 10 368 87 646 528 195 292 303 355 165 543 
170 11 189 219 34 58 51 231 432 576 321 151 230 
171 11 563 396 239 207 400 210 85 517 661 280 659 
172 11 566 16 139 452 615 179 26 135 215 516 191 
173 11 341 3 99 253 39 662 542 508 331 343 8 
174 11 293 619 166 69 651 19 560 630 538 71 44 
175 11 381 104 41 663 541 465 282 215 351 521 554 
176 11 461 641 512 278 524 57 405 137 320 13 100 
177 11 187 128 265 287 506 530 63 68 77 306 483 
178 11 609 72 208 202 67 436 416 500 195 165 246 
179 11 135 119 56 139 409 566 201 615 393 26 545 
180 11 442 445 395 612 260 453 185 142 50 428 499 
181 11 22 159 384 629 437 4 575 509 498 455 586 
182 11 122 367 113 469 605 234 581 304 98 637 322 
183 11 399 600 302 11 318 190 363 225 424 592 593 
184 11 230 634 427 418 34 432 261 198 93 28 58 
185 11 626 443 630 499 560 453 538 619 69 260 294 
186 11 491 26 215 486 351 104 41 56 119 553 663 
187 11 265 128 177 483 270 63 506 306 68 530 287 
188 11 382 226 441 456 27 220 535 126 650 373 492 
189 11 170 219 58 34 231 432 51 230 576 321 151 
190 11 11 600 183 225 302 399 593 318 363 424 25 
191 11 516 98 637 605 615 581 139 566 469 172 122 
192 11 211 276 91 285 357 468 585 123 601 69 538 
193 11 145 289 413 527 344 335 42 310 309 540 635 
194 11 2 84 481 439 7 398 6 267 597 494 485 
195 11 646 528 388 368 87 165 169 178 436 609 10 
196 11 580 540 309 447 344 102 493 289 495 145 374 
197 11 325 247 422 410 665 222 639 366 6 552 376 
198 11 28 418 634 250 34 51 151 463 576 299 223 
199 11 266 316 659 480 85 638 300 73 280 496 203 
200 11 433 133 451 555 235 608 394 9 518 95 389 
201 11 21 497 5 409 135 545 82 179 313 336 134 
202 11 416 72 67 297 609 244 436 178 208 18 43 
203 11 480 348 14 73 33 280 557 636 316 564 514 
204 11 307 20 458 262 520 567 241 586 343 652 575 
205 11 583 152 272 518 510 555 133 664 394 95 118 
206 11 101 420 385 380 667 578 604 446 549 438 329 
207 11 210 563 281 400 171 125 661 396 477 239 280 
208 11 609 178 72 202 32 416 500 246 67 43 297 
209 11 71 651 166 231 261 432 58 471 19 174 293 
210 11 400 207 125 281 477 563 171 280 85 348 396 
211 11 192 91 276 357 468 285 585 538 69 499 601 
212 11 24 411 572 460 308 168 15 144 602 372 607 
213 11 392 569 610 361 603 263 15 559 607 372 308 
214 11 131 430 617 402 163 224 238 596 590 65 315 
215 11 26 186 104 491 452 351 41 486 175 16 56 
216 11 273 156 227 223 501 302 399 600 284 183 365 
217 11 371 52 419 487 391 577 232 435 240 349 546 
218 11 667 604 577 221 369 107 391 59 371 101 217 
219 11 170 189 51 576 321 151 34 58 250 231 432 
220 11 472 382 92 456 290 188 226 537 441 660 544 
221 11 369 604 536 584 101 350 577 578 558 642 667 
222 11 595 410 376 423 81 301 197 120 414 324 247 
223 11 227 284 463 273 216 156 299 501 418 634 28 
224 11 131 430 214 590 402 254 305 617 163 127 596 
225 11 593 11 190 424 25 556 183 318 620 363 600 
226 11 441 188 27 382 456 492 60 655 220 638 544 
227 11 273 216 223 156 284 463 501 299 302 365 399 
228 11 353 588 359 502 589 438 258 397 420 107 96 
229 11 434 454 61 93 121 365 592 255 148 573 383 
230 11 184 34 634 432 418 427 58 261 198 189 28 
231 11 58 432 209 71 261 651 19 166 189 170 471 
232 11 419 565 371 52 217 582 459 277 362 252 487 
233 11 75 379 405 116 57 547 564 106 574 401 636 
234 11 367 113 515 122 137 94 182 304 469 30 415 
235 11 476 9 503 614 200 451 624 632 136 433 327 
236 11 554 282 521 160 103 157 541 663 43 553 41 
237 11 467 498 513 372 308 411 629 15 159 22 181 
238 11 65 163 617 214 466 590 241 131 328 596 402 
239 11 171 396 563 85 659 400 207 517 280 210 312 
240 11 611 435 487 349 52 217 419 252 277 371 546 
241 11 466 238 111 590 65 163 204 617 114 534 567 
242 11 507 668 336 134 429 505 640 478 5 82 21 
243 11 529 257 288 421 428 666 259 653 422 410 551 
244 11 297 416 202 67 482 72 436 157 311 609 18 
245 11 373 650 535 450 622 264 296 126 141 46 27 
246 11 500 117 474 165 178 208 32 609 368 545 594 
247 11 665 197 325 6 552 639 422 366 587 84 481 
248 11 540 309 145 289 196 344 193 42 413 580 493 
249 11 425 314 570 62 323 533 49 162 105 444 457 
250 11 151 55 28 576 51 321 198 76 473 299 418 
251 11 517 628 347 370 118 272 152 661 95 396 394 
252 11 277 269 124 362 459 565 240 419 52 232 378 
253 11 3 343 173 587 508 20 39 99 458 520 341 
254 11 305 47 127 224 648 131 590 214 430 652 330 
255 11 592 363 61 121 318 454 620 424 148 434 556 
256 11 360 431 616 155 589 633 440 513 467 359 237 
257 11 428 243 259 666 421 529 653 288 79 96 354 
258 11 354 502 397 96 548 8 359 228 331 79 86 
259 11 653 79 257 548 428 666 86 354 96 421 8 
260 11 453 645 445 140 185 443 612 180 626 142 442 
261 11 432 471 209 58 231 427 71 651 166 230 184 
262 11 307 20 652 143 204 458 568 494 520 343 485 
263 11 361 603 610 213 392 569 340 158 607 559 36 
264 11 450 532 245 650 622 373 535 643 141 126 488 
265 11 187 63 177 506 68 128 483 270 287 530 306 
266 11 199 659 316 85 480 280 73 203 638 300 14 
267 11 398 644 439 597 333 2 358 631 408 194 291 
268 11 370 275 661 130 347 115 628 599 251 281 517 
269 11 124 277 362 252 459 565 378 582 623 479 36 
270 11 483 83 654 187 128 265 306 412 153 23 177 
271 11 291 631 333 417 161 66 644 17 37 398 267 
272 11 152 205 510 583 628 518 251 118 347 95 394 
273 11 216 227 156 223 501 284 302 463 399 600 365 
274 11 426 167 657 138 334 147 583 613 462 78 279 
275 11 130 268 661 370 281 349 599 611 435 364 347 
276 11 285 357 192 211 601 91 468 585 123 108 339 
277 11 252 269 124 362 459 565 240 232 419 52 378 
278 11 461 176 524 57 641 320 13 512 405 660 537 
279 11 78 138 337 25 286 167 556 132 526 593 620 
280 11 85 400 348 203 480 266 659 316 210 199 73 
281 11 477 207 125 210 661 275 268 400 563 130 611 
282 11 554 521 663 236 541 41 381 351 103 553 160 
283 10 623 378 150 669 295 618 124 511 477 106 
284 11 463 223 299 227 273 216 28 156 198 418 250 
285 11 357 276 601 108 192 656 211 91 585 123 468 
286 11 337 78 279 593 25 225 556 132 138 424 526 
287 11 77 177 389 312 506 530 632 68 128 63 187 
288 11 529 243 421 666 410 376 257 406 423 197 428 
289 11 344 145 309 413 540 193 493 102 495 196 447 
290 11 92 537 660 456 544 13 320 472 220 278 524 
291 11 271 631 161 333 66 417 644 267 398 17 37 
292 11 355 356 387 303 97 88 368 10 169 74 332 
293 11 174 166 619 19 651 69 44 71 538 560 630 
294 11 443 471 626 645 630 453 185 651 166 260 71 
295 10 511 623 618 283 378 669 571 150 124 647 
296 11 46 622 153 412 141 146 373 23 655 245 496 
297 11 244 416 202 67 482 72 436 157 609 43 208 
298 11 64 504 319 523 31 664 613 89 115 599 510 
299 11 463 284 223 55 76 250 28 198 227 418 273 
300 11 530 164 525 496 306 199 659 266 23 128 312 
301 11 81 414 120 324 635 48 222 595 448 335 310 
302 11 600 399 183 11 190 318 363 156 225 592 216 
303 11 88 332 356 292 355 10 543 387 169 168 386 
304 11 322 505 367 429 182 234 122 668 507 100 242 
305 11 254 47 127 648 224 590 131 652 330 214 430 
306 11 164 525 23 128 496 153 412 300 530 483 654 
307 11 204 262 20 458 520 652 343 143 508 567 241 
308 11 15 372 212 411 24 572 460 607 144 168 610 
309 11 540 289 344 145 413 196 493 102 193 495 447 
310 11 335 527 193 635 413 408 414 145 48 289 344 
311 11 18 591 550 326 109 317 67 436 244 416 625 
312 11 77 530 287 389 300 239 177 659 396 128 118 
313 11 82 497 5 134 478 545 594 409 336 21 201 
314 11 323 570 425 249 62 149 533 539 162 444 457 
315 11 625 596 402 317 430 214 617 163 550 40 131 
316 11 199 266 480 73 638 659 14 85 203 280 300 
317 11 625 591 550 311 326 18 109 315 596 40 388 
318 11 363 183 424 592 255 11 399 620 600 225 302 
319 11 504 64 89 298 613 31 627 523 444 664 462 
320 11 13 660 537 524 278 415 30 461 390 176 290 
321 11 576 151 51 250 473 219 55 34 76 28 170 
322 11 304 505 429 668 507 112 242 182 367 649 640 
323 11 314 570 425 149 249 539 62 457 162 533 383 
324 11 120 448 81 301 345 635 595 495 414 102 493 
325 11 422 639 197 366 247 39 665 587 421 99 6 
326 11 550 109 591 18 388 311 436 317 67 40 625 
327 11 503 29 129 476 632 235 404 614 624 9 136 
328 11 579 534 466 65 40 87 114 163 238 617 111 
329 11 385 562 549 578 475 49 350 105 101 446 206 
330 11 37 403 17 648 568 485 561 652 7 417 333 
331 11 8 662 86 548 341 542 79 258 354 360 653 
332 11 88 303 168 543 144 460 602 356 572 24 292 
333 11 631 644 271 398 291 267 439 417 37 161 2 
334 11 426 657 462 383 573 274 148 613 121 149 167 
335 11 310 527 635 193 413 408 414 145 48 289 344 
336 11 134 5 242 82 478 507 21 668 497 313 201 
337 11 286 279 78 132 526 138 25 404 136 167 593 
338 11 345 80 406 448 38 470 423 595 376 324 374 
339 11 44 123 585 468 276 192 285 69 211 293 174 
340 11 263 377 484 610 12 607 361 603 386 213 392 
341 11 173 662 542 99 331 8 86 3 39 253 548 
342 11 640 54 522 531 12 429 112 242 478 340 505 
343 11 520 508 458 3 20 253 509 307 173 437 384 
344 11 289 413 145 309 493 540 102 495 193 447 196 
345 11 448 324 338 120 595 81 423 495 102 301 447 
346 11 45 584 558 642 536 35 31 599 364 546 369 
347 11 628 370 115 251 268 517 661 272 152 510 523 
348 11 203 514 636 280 33 574 480 564 116 85 400 
349 11 435 487 611 546 240 364 35 52 130 391 217 
350 11 578 549 562 101 221 369 385 329 105 642 558 
351 11 41 491 553 521 663 486 186 554 282 381 104 
352 11 465 407 541 282 381 160 236 663 554 175 521 
353 11 438 228 420 380 502 397 449 588 96 258 359 
354 11 96 258 397 548 502 79 8 86 653 259 331 
355 11 292 356 387 97 303 88 368 74 474 165 332 
356 11 387 355 292 97 88 303 386 74 332 474 375 
357 11 285 276 601 108 192 91 656 211 585 468 123 
358 11 597 408 267 48 552 644 398 2 194 439 84 
359 11 589 588 228 258 155 502 59 360 107 256 353 
360 11 616 256 440 542 662 589 331 359 431 258 155 
361 11 603 263 569 213 392 610 559 158 36 340 479 
362 11 459 565 269 582 36 124 277 252 479 232 559 
363 11 318 255 592 424 183 620 399 11 600 225 302 
364 11 35 546 349 45 599 391 584 346 130 487 435 
365 11 501 93 434 229 61 592 454 255 363 121 216 
366 11 639 422 39 325 99 587 197 653 247 421 666 
367 11 122 182 113 234 469 304 605 581 98 322 637 
368 11 169 646 165 195 10 528 292 355 87 303 356 
369 11 221 604 536 584 101 350 577 578 558 642 346 
370 11 347 661 268 628 251 517 115 275 130 396 272 
371 11 217 419 52 232 577 391 487 435 240 546 349 
372 11 308 15 411 237 467 212 513 24 498 572 392 
373 11 245 535 622 650 450 296 141 264 126 27 46 
374 11 580 447 102 196 495 493 448 345 338 344 324 
375 11 658 74 97 386 594 484 12 377 387 478 356 
376 11 423 410 595 222 406 288 81 197 345 338 120 
377 11 484 386 340 607 144 375 658 12 572 74 610 
378 10 623 283 150 669 295 124 252 269 277 618 
379 10 606 233 405 110 618 106 57 100 116 401 
380 11 420 438 449 353 206 446 228 50 107 397 502 
381 11 175 663 41 541 282 554 521 465 104 351 236 
382 11 188 456 226 220 441 92 27 290 472 492 535 
383 11 573 148 334 149 121 657 454 462 229 61 434 
384 11 437 181 159 509 22 575 629 4 586 567 455 
385 11 329 549 578 562 101 206 350 446 475 49 105 
386 11 484 377 387 375 356 97 658 74 88 144 332 
387 11 356 97 355 292 74 386 88 303 474 375 658 
388 11 109 528 195 436 326 550 18 40 646 67 591 
389 11 433 608 77 287 95 394 118 200 312 632 133 
390 11 90 415 660 537 13 320 30 524 515 472 94 
391 11 577 546 217 371 35 364 487 52 349 536 584 
392 11 213 569 610 361 603 263 15 372 308 607 559 
393 11 56 119 486 32 545 135 409 179 117 186 491 
394 11 95 608 118 133 518 433 555 200 389 152 205 
395 11 180 442 445 612 185 260 453 211 499 91 538 
396 11 171 563 239 517 207 661 251 400 210 370 85 
397 11 502 96 354 258 353 228 438 548 79 449 8 
398 11 439 267 644 333 2 631 194 597 7 358 271 
399 11 600 183 302 11 190 318 363 225 592 156 424 
400 11 210 280 207 85 563 171 125 348 239 396 281 
401 11 106 574 514 116 636 233 564 348 669 75 379 
402 11 430 596 214 617 315 131 163 224 65 238 625 
403 11 17 561 37 330 417 648 271 333 291 161 631 
404 11 129 136 614 624 132 526 327 9 503 476 337 
405 11 57 233 641 512 379 278 176 461 606 75 547 
406 11 423 376 551 338 595 410 288 80 222 345 38 
407 11 352 465 541 160 236 282 554 663 381 521 175 
408 11 358 597 267 644 48 310 398 631 335 464 333 
409 11 545 497 201 135 313 179 5 393 119 21 82 
410 11 376 222 423 595 197 288 406 81 247 325 529 
411 11 212 24 308 460 15 572 372 168 602 144 498 
412 11 153 46 23 296 654 141 525 164 306 496 622 
413 11 344 289 145 493 495 193 102 309 635 335 310 
414 11 301 48 81 120 635 552 324 335 310 222 358 
415 11 30 90 94 515 524 390 320 13 660 137 537 
416 11 202 67 72 297 436 244 609 178 208 18 388 
417 11 271 161 17 291 561 66 37 631 333 403 644 
418 11 198 634 28 34 184 230 250 51 223 463 151 
419 11 52 371 217 232 487 240 565 391 435 577 252 
420 11 438 380 353 206 107 228 449 588 502 667 397 
421 11 666 529 243 257 288 259 422 428 653 366 325 
422 11 325 366 639 197 39 421 666 247 99 653 529 
423 11 376 595 222 410 406 81 345 338 324 120 448 
424 11 620 556 25 318 363 225 593 255 11 183 592 
425 11 570 314 249 62 323 533 49 444 149 162 105 
426 11 274 334 657 462 613 167 573 138 664 383 148 
427 11 457 261 539 184 471 230 432 162 58 323 209 
428 11 257 243 259 666 529 421 96 653 79 354 288 
429 11 505 322 242 640 507 668 342 112 304 54 531 
430 11 402 214 131 224 596 617 163 315 238 65 590 
431 11 633 155 59 256 70 588 589 359 513 107 360 
432 11 58 231 261 209 71 230 189 471 651 170 166 
433 11 200 608 394 95 133 389 555 451 118 235 518 
434 11 229 454 61 93 365 121 592 255 148 501 573 
435 11 611 487 240 349 52 217 546 364 371 419 391 
436 11 67 416 72 202 388 18 609 109 178 326 550 
437 11 384 509 181 159 575 22 629 4 586 567 455 
438 11 353 420 380 449 228 502 397 107 588 96 206 
439 11 398 2 267 194 7 333 644 84 485 597 631 
440 11 616 360 542 629 662 159 256 181 237 384 498 
441 11 226 27 188 492 456 382 60 655 638 14 146 
442 11 180 445 612 395 260 453 50 142 185 428 243 
443 11 626 630 185 453 294 560 499 619 538 260 69 
444 11 627 533 62 105 89 319 49 570 504 425 31 
445 11 180 442 612 395 260 453 142 185 50 140 443 
446 11 475 142 385 140 50 329 380 206 449 549 562 
447 11 102 580 493 495 374 196 344 309 413 289 448 
448 11 345 324 120 81 495 102 595 635 301 338 493 
449 11 380 438 50 353 420 142 397 446 502 96 228 
450 11 264 245 650 373 535 622 126 141 532 643 296 
451 11 200 9 555 133 235 614 624 147 136 433 518 
452 11 16 172 566 26 215 139 186 615 104 179 119 
453 11 260 443 185 626 645 630 294 445 180 140 499 
454 11 61 434 229 121 255 592 148 573 93 365 383 
455 11 586 567 575 4 519 22 384 437 181 509 111 
456 11 382 226 220 188 290 441 92 544 492 60 472 
457 11 162 539 427 323 471 314 249 261 425 149 570 
458 11 520 343 20 508 307 204 3 509 262 253 437 
459 11 362 565 582 36 269 277 232 252 124 479 559 
460 11 168 24 212 602 572 411 144 308 332 15 543 
461 11 176 278 641 524 512 57 320 405 13 30 137 
462 11 334 613 426 319 504 383 64 664 274 657 573 
463 11 284 299 223 227 28 198 273 418 216 250 634 
464 11 154 527 42 66 408 161 291 631 644 271 310 
465 11 352 407 541 381 282 663 175 554 236 41 521 
466 11 111 534 328 65 114 241 238 163 579 617 87 
467 11 513 237 372 498 256 308 15 616 411 70 440 
468 11 585 123 44 339 192 276 69 211 538 285 619 
469 11 113 122 637 182 98 367 605 234 191 516 581 
470 11 38 80 656 338 108 601 345 374 406 357 551 
471 11 261 294 209 71 651 427 166 457 432 231 162 
472 11 92 220 290 537 660 390 456 13 320 382 188 
473 11 55 76 321 250 151 576 51 28 299 198 219 
474 11 97 246 594 117 74 500 165 387 355 292 356 
475 11 446 329 140 49 385 562 549 142 645 105 578 
476 11 503 235 632 327 29 614 9 129 624 136 200 
477 11 125 281 210 150 207 400 669 283 378 401 623 
478 11 134 82 336 313 5 242 594 640 658 375 497 
479 11 158 36 362 459 490 582 603 361 559 269 124 
480 11 73 203 316 14 266 280 85 199 348 638 557 
481 11 84 494 194 6 7 2 143 587 485 439 665 
482 11 160 157 297 244 103 43 236 202 416 554 282 
483 11 270 83 654 187 128 306 265 412 23 153 177 
484 11 377 386 340 607 375 144 658 12 74 387 97 
485 11 7 568 494 439 2 143 194 481 84 398 330 
486 11 491 186 351 56 393 119 26 553 32 41 215 
487 11 435 349 240 52 611 217 546 371 419 391 364 
488 11 141 654 83 46 622 412 153 264 296 270 450 
489 11 621 53 547 557 33 75 564 544 60 636 14 
490 11 598 531 649 112 158 647 479 522 54 571 124 
491 11 186 351 486 26 215 41 104 553 663 56 381 
492 11 60 14 53 557 441 73 544 621 638 489 226 
493 11 102 495 447 344 413 289 635 309 580 145 196 
494 11 143 481 7 485 568 84 194 2 587 439 6 
495 11 102 493 447 413 344 635 289 448 324 580 309 
496 11 525 164 146 23 153 306 655 300 412 46 296 
497 11 5 201 82 21 409 313 545 134 336 478 135 
498 11 237 467 22 4 629 159 181 372 411 513 308 
499 11 560 538 69 619 185 630 626 443 468 211 174 
500 11 246 117 165 474 178 208 609 32 368 72 646 
501 11 365 93 216 434 592 273 61 229 156 223 227 
502 11 397 258 96 354 228 353 438 359 548 589 79 
503 11 476 327 235 29 632 129 614 9 624 136 404 
504 11 319 64 298 89 613 31 627 523 664 444 462 
505 11 429 322 668 304 507 242 640 112 336 342 182 
506 11 68 63 265 177 287 187 632 29 128 77 503 
507 11 668 242 336 505 134 429 21 581 5 478 82 
508 11 343 3 520 509 458 253 437 384 20 173 159 
509 11 437 384 575 159 181 508 629 22 520 567 586 
510 11 583 272 152 664 205 523 628 115 613 347 518 
511 10 571 618 295 647 649 110 623 283 598 606 
512 11 641 176 461 100 405 278 137 524 57 606 94 
513 11 467 237 372 498 256 70 308 15 431 616 633 
514 11 574 636 401 116 348 106 564 33 75 203 233 
515 11 94 30 415 137 90 234 524 390 176 461 320 
516 11 191 98 637 605 615 139 581 566 172 469 122 
517 11 251 370 396 347 661 628 118 171 563 239 268 
518 11 555 133 394 95 205 608 152 118 200 272 583 
519 11 455 4 602 586 22 567 575 460 543 111 181 
520 11 458 343 508 20 509 3 307 204 437 575 253 
521 11 554 282 663 236 41 553 351 103 541 43 381 
522 11 54 531 342 112 640 12 490 158 598 340 649 
523 11 664 298 510 64 115 613 504 319 583 272 628 
524 11 461 320 13 176 278 30 660 415 537 641 512 
525 11 164 23 496 306 153 412 146 300 46 296 655 
526 11 132 136 147 624 614 9 138 167 337 404 451 
527 11 42 193 310 335 464 154 408 145 413 289 344 
528 11 195 646 388 87 368 169 40 579 10 109 165 
529 11 243 288 421 666 257 428 259 422 410 197 653 
530 11 300 128 312 77 177 306 164 287 525 187 659 
531 11 522 54 112 490 342 598 649 158 640 647 12 
532 11 264 450 643 650 126 245 488 535 622 373 141 
533 11 62 444 105 49 425 570 249 627 314 89 562 
534 11 114 328 579 466 111 87 10 543 65 169 40 
535 11 650 126 245 373 450 264 622 643 188 27 296 
536 11 369 584 221 346 45 558 642 604 35 391 577 
537 11 660 13 320 290 92 524 390 278 415 472 30 
538 11 499 69 560 619 185 630 626 468 443 211 174 
539 11 457 323 149 427 314 162 425 570 249 93 229 
540 11 309 196 289 344 145 413 493 580 102 248 447 
541 11 282 465 663 554 381 352 236 521 407 41 175 
542 11 662 440 341 616 331 360 173 8 3 86 629 
543 11 602 332 303 10 88 114 460 168 519 169 534 
544 11 489 621 53 60 547 492 290 557 456 33 75 
545 11 409 497 313 393 201 117 135 82 5 119 179 
546 11 364 35 391 349 487 584 45 577 435 217 346 
547 11 489 75 621 564 53 33 557 57 233 544 116 
548 11 79 86 8 653 354 331 258 259 96 397 502 
549 11 562 578 329 350 385 101 105 49 206 475 604 
550 11 326 109 591 18 311 317 388 436 40 67 625 
551 11 91 406 601 108 357 38 211 80 288 192 276 
552 11 665 6 48 358 597 247 84 414 194 2 481 
553 11 43 351 521 103 554 157 41 282 663 236 486 
554 11 521 282 663 236 541 41 553 103 351 381 43 
555 11 133 518 200 451 394 608 95 433 205 118 152 
556 11 25 620 424 593 225 78 318 363 279 255 11 
557 11 53 33 621 489 14 60 564 547 203 73 492 
558 11 642 346 31 584 45 536 627 350 89 369 221 
559 11 36 569 582 603 361 213 70 459 392 479 565 
560 11 499 538 619 69 185 630 626 443 174 468 293 
561 11 17 403 417 37 271 330 161 291 66 648 333 
562 11 549 329 578 350 385 105 49 101 475 533 627 
563 11 171 396 239 207 400 210 661 517 85 280 281 
564 11 33 75 636 116 547 489 621 557 53 514 574 
565 11 459 582 362 232 36 269 277 252 419 559 124 
566 11 139 172 615 16 452 179 135 516 26 119 191 
567 11 586 455 575 437 4 384 22 509 181 519 520 
568 11 485 7 143 494 652 330 262 439 2 481 194 
569 11 213 392 603 361 559 263 610 36 70 15 372 
570 11 425 314 62 323 249 533 149 444 49 105 539 
571 10 511 647 649 618 295 598 110 490 112 606 
572 11 24 144 212 168 460 607 15 411 308 602 332 
573 11 148 383 121 657 334 454 61 255 229 620 434 
574 11 401 514 106 116 636 564 348 75 233 33 547 
575 11 586 567 437 455 384 22 4 181 509 159 629 
576 11 321 151 51 250 219 34 473 55 28 170 198 
577 11 391 371 217 546 536 218 221 369 52 419 604 
578 11 549 350 101 385 562 329 604 221 369 206 105 
579 11 328 87 534 40 528 114 466 169 10 65 646 
580 11 447 196 374 102 493 495 540 309 344 289 413 
581 11 605 98 668 21 507 182 191 516 122 637 201 
582 11 565 459 36 362 559 232 479 269 277 252 419 
583 11 205 510 152 272 664 518 523 555 613 133 274 
584 11 346 45 536 558 642 35 364 369 546 221 31 
585 11 123 468 339 44 276 192 285 211 69 357 538 
586 11 567 455 575 4 437 384 22 181 509 519 159 
587 11 253 639 39 481 494 143 99 6 366 247 325 
588 11 359 228 589 107 59 155 353 420 431 502 438 
589 11 359 588 228 155 258 360 256 59 502 431 107 
590 11 131 214 238 224 241 617 163 65 430 127 305 
591 11 18 550 326 109 311 317 388 436 67 625 40 
592 11 255 363 61 318 454 121 434 183 424 229 399 
593 11 225 25 556 424 11 620 190 286 318 183 363 
594 11 74 658 375 474 97 313 478 82 387 134 117 
595 11 423 222 376 81 410 120 324 301 345 448 406 
596 11 402 315 617 430 163 214 65 625 131 238 40 
597 11 358 267 408 398 2 644 194 48 439 552 84 
598 11 490 649 112 647 531 571 522 158 511 54 479 
599 11 45 35 364 130 346 115 584 546 268 275 31 
600 11 302 399 183 11 190 318 363 225 156 592 424 
601 11 108 357 656 285 276 91 38 192 211 551 80 
602 11 460 168 543 24 212 411 519 332 572 144 88 
603 11 361 263 569 213 392 559 610 36 158 479 340 
604 11 221 369 101 667 536 218 578 350 577 206 584 
605 11 98 581 637 191 516 122 182 469 113 367 668 
606 10 110 379 100 405 618 233 512 641 511 57 
607 11 144 572 610 15 377 24 212 484 308 168 340 
608 11 394 95 118 433 133 518 555 200 389 152 451 
609 11 178 72 208 202 67 416 436 500 297 195 388 
610 11 392 213 263 607 361 569 603 340 15 308 572 
611 11 240 435 487 349 52 217 130 275 546 252 419 
612 11 442 445 180 395 50 260 142 453 428 140 449 
613 11 664 64 504 319 523 298 462 510 426 583 274 
614 11 624 9 136 235 526 132 451 476 129 503 404 
615 11 139 566 172 516 179 191 16 452 135 201 98 
616 11 440 360 542 256 662 629 159 237 467 331 513 
617 11 163 65 238 214 596 402 131 430 590 328 466 
618 10 511 295 571 379 110 606 669 647 283 623 
619 11 69 560 538 499 630 185 626 174 293 443 468 
620 11 424 556 25 318 363 255 225 593 121 592 11 
621 11 489 53 547 557 33 564 75 544 60 14 492 
622 11 141 296 373 46 245 450 412 153 488 264 650 
623 10 378 283 150 669 295 124 269 511 618 252 
624 11 614 136 9 526 132 235 451 147 129 404 476 
625 11 315 317 596 550 591 402 326 109 18 311 40 
626 11 443 630 185 560 499 453 619 538 294 69 260 
627 11 89 444 105 31 319 504 642 558 533 62 64 
628 11 347 251 370 272 115 152 510 517 268 523 661 
629 11 159 181 384 22 437 509 4 498 440 575 616 
630 11 626 443 185 560 619 499 538 69 453 294 166 
631 11 333 291 644 271 267 398 161 417 66 439 408 
632 11 476 503 29 235 327 433 506 200 287 389 9 
633 11 431 155 70 59 256 588 513 589 107 359 467 
634 11 418 198 28 184 230 34 501 223 93 365 463 
635 11 120 324 495 413 335 301 493 310 102 81 414 
636 11 116 514 564 574 33 348 75 401 106 203 547 
637 11 98 191 605 516 469 113 122 581 182 367 615 
638 11 73 316 655 14 199 480 146 492 27 266 60 
639 11 366 39 325 422 99 587 247 197 665 173 253 
640 11 342 54 12 429 242 522 478 531 134 336 505 
641 11 512 176 461 100 405 278 57 524 137 606 94 
642 11 558 346 31 584 45 536 627 89 350 369 221 
643 11 126 650 450 264 532 535 245 373 622 188 141 
644 11 267 333 631 398 291 271 439 597 408 358 2 
645 11 140 260 453 294 162 475 443 142 626 185 630 
646 11 195 528 368 169 87 165 388 10 178 579 40 
647 10 649 571 598 511 112 490 618 110 295 531 
648 11 47 127 330 403 305 254 17 37 561 652 568 
649 10 647 598 112 571 490 511 531 618 522 295 
650 11 535 126 245 450 373 264 643 622 296 188 27 
651 11 166 71 209 231 174 471 293 19 261 630 432 
652 11 262 568 307 330 485 143 127 204 20 648 7 
653 11 79 259 86 548 8 354 666 96 331 421 99 
654 11 83 412 488 153 483 270 141 46 23 306 525 
655 11 146 27 638 496 296 23 441 525 46 164 153 
656 11 108 601 38 357 285 470 80 276 91 192 551 
657 11 334 573 426 148 274 383 121 556 620 138 78 
658 11 375 74 594 97 386 484 12 387 377 478 356 
659 11 266 199 85 316 280 300 239 480 73 171 530 
660 11 13 320 537 524 390 278 290 92 415 30 461 
661 11 370 268 275 347 517 207 281 251 563 396 130 
662 11 542 331 341 360 440 616 8 173 86 548 99 
663 11 282 41 521 554 381 541 351 236 175 553 465 
664 11 523 613 510 583 64 298 504 205 319 272 152 
665 11 247 6 552 197 325 84 481 48 194 639 587 
666 11 421 529 257 243 259 288 428 422 653 366 79 
667 11 218 604 101 206 107 221 369 577 59 420 578 
668 11 507 242 336 505 429 134 581 21 5 322 82 
669 10 283 150 623 378 295 618 106 401 511 477 
DEPOT_SECTION
   1
   -1
EOF
