NAME :  X-n641-kX-w64-c9.cctp
COMMENT : 	Adapted by Maziero, Usberti and Cavellucci from the Uchoa, Pecin, Pessoa, Poggi, Subramanian, and Vidal (2013)
TYPE :  CCTP
DIMENSION :    383
EDGE_WEIGHT_TYPE : 	EUC_2D	
CAPACITY : 	1381
VERTICES_WITHIN_COVERAGE :  9
VERTICES_WITH_DEMAND : 	64
NODE_COORD_SECTION
1 0 0
2 80 386
3 521 652
4 597 936
5 836 69
6 503 987
7 618 169
8 115 662
9 312 175
10 78 83
11 364 317
12 12 454
13 980 537
14 403 383
15 144 443
16 739 464
17 886 511
18 904 106
19 794 539
20 821 608
21 781 347
22 336 490
23 101 736
24 365 68
25 618 684
26 282 286
27 311 806
28 557 793
29 54 50
30 651 264
31 619 661
32 156 994
33 950 369
34 183 707
35 673 856
36 5 651
37 867 449
38 946 914
39 75 82
40 522 8
41 573 493
42 833 699
43 881 677
44 201 77
45 536 593
46 67 895
47 99 113
48 120 133
49 428 231
50 701 845
51 190 508
52 431 218
53 626 782
54 113 914
55 569 117
56 865 639
57 708 9
58 511 977
59 104 838
60 229 467
61 956 568
62 431 929
63 615 707
64 913 42
65 854 504
66 236 176
67 377 404
68 380 468
69 590 752
70 620 146
71 616 746
72 556 640
73 99 777
74 12 194
75 920 116
76 525 23
77 757 593
78 289 765
79 246 267
80 245 876
81 648 790
82 636 653
83 555 181
84 738 446
85 130 836
86 882 942
87 102 787
88 669 905
89 490 45
90 883 547
91 971 638
92 256 227
93 489 411
94 514 866
95 7 118
96 161 160
97 27 21
98 64 937
99 121 847
100 770 896
101 20 546
102 986 803
103 379 259
104 686 273
105 133 869
106 157 499
107 649 934
108 670 615
109 978 479
110 646 823
111 193 565
112 26 411
113 114 126
114 946 326
115 695 420
116 116 701
117 940 438
118 837 507
119 542 708
120 441 235
121 68 374
122 582 768
123 220 519
124 593 651
125 71 712
126 26 569
127 918 629
128 165 731
129 227 977
130 788 366
131 33 507
132 597 983
133 799 35
134 529 178
135 118 484
136 477 280
137 591 189
138 807 670
139 163 621
140 874 932
141 245 24
142 960 27
143 139 44
144 45 584
145 684 501
146 20 905
147 57 354
148 306 107
149 862 741
150 240 516
151 782 700
152 82 208
153 951 550
154 710 44
155 537 764
156 407 191
157 629 133
158 608 911
159 727 517
160 679 836
161 73 420
162 637 903
163 55 920
164 933 456
165 326 903
166 116 175
167 344 992
168 28 667
169 439 245
170 891 450
171 224 732
172 156 734
173 390 441
174 115 896
175 655 766
176 210 731
177 42 176
178 505 517
179 923 66
180 490 844
181 342 859
182 313 79
183 876 843
184 631 889
185 634 721
186 943 776
187 533 441
188 752 907
189 617 648
190 9 749
191 494 54
192 921 869
193 30 694
194 134 209
195 594 990
196 23 693
197 509 133
198 187 933
199 910 526
200 470 949
201 522 961
202 602 499
203 655 931
204 469 942
205 320 62
206 561 574
207 948 781
208 857 586
209 465 816
210 237 237
211 918 448
212 247 860
213 434 167
214 531 937
215 668 318
216 774 375
217 104 5
218 351 968
219 371 880
220 696 912
221 754 894
222 45 61
223 724 419
224 704 881
225 325 252
226 736 6
227 156 513
228 976 765
229 324 55
230 69 89
231 782 635
232 585 289
233 800 708
234 249 15
235 984 964
236 846 680
237 324 862
238 604 499
239 341 10
240 928 90
241 82 705
242 639 197
243 368 469
244 642 479
245 598 732
246 424 158
247 825 660
248 763 320
249 399 34
250 510 68
251 74 921
252 226 284
253 220 690
254 552 210
255 337 6
256 176 182
257 385 440
258 501 475
259 779 37
260 993 28
261 873 112
262 644 148
263 322 862
264 537 103
265 861 100
266 529 695
267 675 210
268 651 310
269 461 838
270 897 59
271 322 547
272 135 711
273 297 252
274 125 723
275 150 672
276 665 129
277 849 63
278 944 384
279 905 477
280 714 36
281 601 599
282 210 25
283 946 53
284 494 646
285 214 534
286 815 93
287 78 693
288 150 697
289 326 92
290 88 487
291 167 677
292 861 91
293 897 123
294 709 256
295 161 685
296 344 459
297 958 32
298 182 410
299 236 454
300 383 370
301 543 638
302 372 21
303 822 586
304 858 405
305 342 363
306 616 158
307 486 681
308 260 277
309 222 118
310 912 123
311 266 332
312 504 663
313 311 101
314 203 441
315 363 40
316 784 472
317 885 406
318 487 673
319 928 16
320 705 463
321 102 636
322 592 743
323 187 755
324 254 453
325 902 75
326 798 382
327 551 296
328 785 320
329 602 101
330 491 528
331 762 360
332 199 695
333 537 609
334 784 464
335 792 611
336 786 74
337 311 127
338 344 152
339 96 627
340 162 623
341 429 14
342 588 689
343 641 165
344 867 100
345 967 508
346 420 424
347 254 301
348 532 657
349 498 805
350 337 176
351 987 16
352 541 973
353 904 81
354 909 104
355 338 491
356 756 316
357 346 454
358 354 322
359 608 213
360 814 327
361 953 337
362 516 661
363 309 323
364 186 520
365 328 22
366 379 303
367 69 822
368 935 103
369 416 97
370 758 423
371 354 509
372 690 234
373 903 72
374 503 89
375 479 604
376 160 694
377 276 471
378 345 206
379 106 676
380 225 747
381 586 399
382 918 94
383 476 548
DEMAND_SECTION
2 59
3 87
4 98
5 73
6 70
7 64
8 98
9 87
10 99
11 78
12 68
13 99
14 53
15 56
16 66
17 67
18 74
19 86
20 75
21 71
22 87
23 87
24 66
25 71
26 75
27 62
28 78
29 83
30 63
31 95
32 52
33 57
34 58
35 65
36 86
37 85
38 58
39 84
40 92
41 50
42 72
43 76
44 79
45 58
46 100
47 94
48 86
49 70
50 80
51 75
52 86
53 95
54 94
55 79
56 97
57 56
58 88
59 72
60 58
61 64
62 51
63 84
64 71
65 95
COVERAGE_SECTION
2 7 121 161 147 112 15 12 290 
3 9 362 348 312 301 284 72 318 266 307 
4 9 158 132 107 162 195 184 203 214 352 
5 8 277 286 292 265 344 133 336 261 
6 9 58 201 352 200 204 214 195 62 132 
7 9 306 70 343 262 137 242 157 359 276 
8 7 379 321 275 116 339 287 288 
9 9 350 338 378 337 148 313 66 92 225 
10 9 39 230 47 222 29 113 48 143 95 
11 7 358 366 305 363 300 103 225 
12 8 112 131 161 290 101 2 121 135 
13 9 153 345 61 109 199 164 279 17 90 
14 7 300 67 346 173 257 305 11 
15 9 135 298 106 314 227 290 161 51 2 
16 9 84 320 334 370 316 223 159 115 145 
17 9 199 65 90 279 118 170 37 211 164 
18 8 354 293 382 75 310 353 240 325 
19 9 118 303 77 316 65 159 335 20 334 
20 9 303 335 208 231 247 56 138 77 19 
21 8 130 331 328 216 248 326 360 356 
22 8 355 371 296 357 243 68 271 377 
23 9 274 241 116 125 73 272 287 87 172 
24 9 315 229 205 289 249 302 182 365 369 
25 9 31 63 342 82 189 185 124 245 71 
26 8 308 347 273 79 363 311 225 252 
27 5 78 237 263 181 212 
28 8 122 155 69 349 322 53 245 71 
29 9 222 39 97 10 230 217 47 95 143 
30 9 104 268 372 215 267 294 359 242 232 
31 9 189 82 25 124 342 63 185 281 72 
32 8 198 129 54 174 98 251 163 105 
33 4 278 361 114 117 
34 8 332 376 128 295 288 291 176 172 
35 9 160 50 224 110 88 184 162 220 81 
36 6 168 196 193 144 287 126 
37 7 170 304 279 317 211 65 17 
38 8 192 235 86 140 183 102 207 186 
39 9 10 230 222 29 47 113 48 143 95 
40 8 76 89 191 250 374 341 264 55 
41 8 202 238 187 244 178 258 206 330 
42 9 236 233 138 247 149 151 43 56 231 
43 9 236 56 42 247 127 149 138 233 20 
44 8 309 282 141 143 234 96 48 113 
45 9 333 206 301 72 375 3 348 281 284 
46 9 251 163 98 146 174 54 59 105 99 
47 9 113 48 10 230 39 166 222 29 96 
48 9 113 47 166 96 10 230 39 256 194 
49 9 52 120 169 156 103 213 136 246 366 
50 9 160 35 224 110 220 88 221 81 188 
51 9 364 123 106 227 285 150 60 111 314 
52 9 49 120 169 156 213 246 103 136 378 
53 9 81 175 71 110 122 69 322 245 185 
54 8 174 251 105 46 98 163 99 198 
55 9 264 329 70 157 197 306 83 7 374 
56 9 43 236 247 20 127 208 138 42 303 
57 6 226 280 154 259 133 336 
58 9 6 201 352 214 200 204 195 132 62 
59 7 99 85 367 105 87 174 73 
60 5 299 324 314 377 150 
61 9 153 13 345 199 91 127 90 17 109 
62 9 204 200 219 218 6 58 201 269 214 
63 9 25 185 245 342 71 322 31 69 82 
64 7 270 179 319 373 283 325 353 
65 9 118 17 90 37 279 199 170 19 316 
66 9 92 256 309 210 9 96 337 79 273 
67 7 14 300 257 173 346 305 357 
68 8 243 257 173 296 357 355 22 371 
69 9 322 122 245 71 53 63 28 155 185 
70 9 306 157 7 262 343 276 329 137 242 
71 9 245 322 69 185 53 63 122 175 81 
72 9 301 348 333 3 124 362 45 312 342 
73 6 87 23 367 274 59 85 
74 6 177 152 95 166 47 230 
75 7 310 354 18 368 382 293 240 
76 9 40 89 191 250 374 264 341 55 329 
77 8 335 231 19 303 20 159 108 138 
78 2 27 380 
79 7 308 252 210 347 26 92 273 
80 7 212 263 237 198 165 27 181 
81 9 53 175 110 71 160 69 122 185 35 
82 9 31 189 25 124 108 63 342 281 185 
83 9 134 254 137 359 7 306 55 197 70 
84 7 16 223 370 320 334 115 316 
85 4 99 59 105 87 
86 6 140 38 192 183 235 100 
87 5 73 367 23 59 85 
88 9 220 203 162 107 184 224 35 158 50 
89 8 191 250 76 374 40 341 264 197 
90 9 199 17 208 65 118 153 303 279 61 
91 9 127 61 153 43 13 56 208 90 228 
92 9 210 79 273 308 66 26 252 225 347 
93 8 187 258 346 14 381 173 178 257 
94 9 180 269 349 209 214 28 204 200 201 
95 9 177 230 222 74 39 10 29 47 97 
96 8 256 166 48 194 113 309 66 47 
97 9 29 222 39 217 10 230 95 143 47 
98 9 163 251 46 54 146 174 105 59 99 
99 7 85 59 105 174 367 87 54 
100 6 221 188 224 220 50 88 
101 5 126 131 144 290 12 
102 9 228 207 186 192 183 38 149 235 43 
103 9 366 225 49 11 169 378 52 120 358 
104 6 294 30 372 215 268 267 
105 6 99 174 85 59 54 46 
106 7 227 51 364 135 15 123 285 
107 9 203 162 88 158 184 4 220 132 224 
108 6 82 189 31 281 124 25 
109 8 345 164 117 13 211 279 153 199 
110 9 81 160 35 53 175 50 184 162 224 
111 5 285 364 123 51 139 
112 9 12 161 121 2 147 131 290 135 15 
113 9 48 47 166 10 96 230 39 256 194 
114 2 361 33 
115 4 223 320 84 16 
116 8 272 274 379 241 288 23 8 287 
117 8 164 211 170 279 278 109 317 33 
118 9 65 17 19 90 316 37 334 279 199 
119 7 266 342 348 362 155 312 3 
120 9 169 49 52 156 136 103 213 246 366 
121 7 2 147 161 112 12 15 290 
122 8 69 322 28 245 71 155 53 63 
123 9 285 150 51 364 60 111 227 106 299 
124 9 189 31 342 72 25 82 301 281 63 
125 6 241 287 23 193 116 379 
126 5 101 144 131 36 339 
127 9 56 91 43 61 208 153 236 90 247 
128 6 172 34 323 272 288 376 
129 8 198 32 80 167 212 165 218 54 
130 6 216 326 21 331 328 360 
131 5 101 12 290 126 144 
132 9 195 4 352 107 158 201 203 214 58 
133 9 259 336 5 277 286 226 292 280 154 
134 8 83 254 197 137 55 264 359 7 
135 6 290 106 227 15 51 364 
136 9 169 120 49 327 52 103 366 254 232 
137 9 359 7 83 306 254 242 70 343 134 
138 9 247 42 151 233 236 231 335 20 56 
139 4 340 275 291 8 
140 6 86 38 192 183 100 235 
141 6 234 282 44 365 205 229 
142 7 297 351 283 260 319 64 179 
143 9 217 44 10 282 39 47 230 29 113 
144 5 126 101 339 321 36 
145 6 320 159 244 16 84 238 
146 9 163 46 98 251 54 174 367 59 99 
147 5 121 2 112 161 12 
148 8 313 337 289 182 205 229 338 9 
149 9 42 236 43 233 186 247 138 151 207 
150 8 123 285 60 51 364 377 299 324 
151 9 233 138 42 247 231 236 149 335 20 
152 5 166 177 194 74 48 
153 9 61 13 345 199 90 17 109 127 279 
154 6 280 57 226 259 336 133 
155 7 28 122 69 119 349 322 245 
156 9 52 213 246 49 120 169 378 350 103 
157 7 70 262 306 343 276 7 329 
158 9 4 162 184 107 203 88 132 195 214 
159 6 145 16 320 19 84 316 
160 9 35 50 110 224 81 88 184 175 53 
161 9 2 121 112 147 290 12 15 135 131 
162 9 184 158 88 107 203 4 35 220 224 
163 9 98 251 46 146 54 174 105 59 99 
164 8 211 117 279 170 109 345 37 317 
165 9 237 263 181 219 218 80 212 167 27 
166 8 194 48 96 152 113 256 47 177 
167 9 218 165 62 219 129 237 263 181 200 
168 6 196 193 36 287 125 241 
169 9 120 49 52 136 103 156 213 366 246 
170 8 37 211 279 164 317 117 304 17 
171 6 176 380 253 323 332 34 
172 6 128 272 274 288 323 34 
173 8 257 68 346 243 67 357 296 14 
174 8 54 105 46 251 99 59 85 98 
175 9 81 53 71 185 110 69 245 322 63 
176 7 171 380 323 34 332 253 128 
177 7 74 152 95 166 47 113 48 
178 7 330 258 383 41 206 187 45 
179 8 373 325 353 240 64 283 270 382 
180 8 269 94 209 349 28 155 204 214 
181 7 237 263 219 165 27 212 80 
182 7 205 289 313 229 148 337 24 
183 8 192 140 186 207 86 38 149 102 
184 9 162 158 88 107 203 35 4 110 220 
185 9 63 71 245 25 322 175 69 342 31 
186 9 207 228 102 149 183 192 43 42 236 
187 8 258 93 41 381 178 202 238 330 
188 6 221 100 224 220 50 88 
189 9 31 82 124 25 342 281 63 72 108 
190 7 196 193 125 168 241 287 23 
191 8 89 250 374 76 40 264 341 197 
192 8 38 183 140 86 207 102 186 235 
193 6 196 168 125 287 36 241 
194 6 166 256 152 96 48 113 
195 9 132 4 352 107 201 158 214 58 203 
196 6 193 168 36 125 287 190 
197 8 264 374 134 55 250 83 191 213 
198 8 129 32 54 80 174 105 212 99 
199 9 17 90 153 279 65 345 61 13 164 
200 9 204 62 6 58 201 214 352 94 180 
201 9 58 352 214 6 200 204 132 195 4 
202 6 238 41 244 145 206 187 
203 9 107 88 162 220 184 158 4 224 35 
204 9 200 62 58 6 201 214 352 94 180 
205 6 229 182 289 313 365 24 
206 9 45 333 281 72 301 178 41 124 330 
207 9 186 228 102 192 149 183 43 38 42 
208 9 303 20 90 56 335 127 19 17 199 
209 6 269 349 180 94 155 28 
210 8 92 79 308 252 66 273 347 26 
211 7 164 117 170 279 37 317 109 
212 6 80 263 237 27 165 198 
213 8 246 156 52 49 120 369 169 197 
214 9 201 352 58 6 200 204 4 94 132 
215 4 268 104 30 294 
216 7 130 331 326 21 370 248 328 
217 9 143 29 97 222 10 39 230 47 282 
218 9 167 165 62 219 181 237 263 200 204 
219 8 181 237 165 263 62 218 27 269 
220 9 88 224 203 107 188 162 35 221 50 
221 7 188 100 224 220 50 88 35 
222 9 29 39 230 10 97 95 47 217 113 
223 5 115 84 370 16 320 
224 9 220 50 35 88 160 221 188 100 203 
225 9 273 378 103 26 308 92 363 366 11 
226 7 57 280 154 259 133 336 5 
227 6 106 364 51 135 285 111 
228 9 207 186 102 149 192 91 183 43 127 
229 6 205 182 365 289 315 24 
230 9 39 10 222 47 29 113 48 95 97 
231 9 335 138 20 77 247 303 151 233 236 
232 8 327 268 30 359 254 215 137 104 
233 9 151 42 138 236 247 149 231 43 56 
234 6 141 282 44 365 205 229 
235 8 38 86 192 140 102 183 207 186 
236 9 42 247 43 138 56 233 149 151 20 
237 8 263 181 165 219 27 212 80 78 
238 6 202 41 244 145 206 187 
239 7 255 365 302 315 229 205 24 
240 7 382 368 354 179 353 75 18 
241 6 125 287 116 23 379 274 
242 9 343 7 359 267 306 137 262 70 372 
243 8 68 296 357 257 173 355 22 371 
244 6 238 202 145 320 41 115 
245 9 322 69 71 63 185 122 342 25 53 
246 8 213 156 52 369 49 120 338 169 
247 9 138 236 42 56 231 20 233 43 151 
248 5 356 328 21 331 360 
249 9 302 315 341 24 239 369 255 365 229 
250 8 191 374 89 264 76 40 197 55 
251 9 98 163 46 54 174 146 105 59 99 
252 5 79 347 308 210 26 
253 4 332 34 171 176 
254 9 83 134 137 359 7 306 232 327 197 
255 7 239 365 302 315 229 205 24 
256 7 96 194 66 166 48 309 210 
257 8 173 68 243 67 346 357 296 14 
258 7 178 187 330 93 41 383 346 
259 9 133 336 226 5 280 286 154 277 57 
260 7 351 142 297 283 319 179 64 
261 7 344 265 292 293 18 354 310 
262 7 343 157 70 276 306 7 242 
263 8 237 181 165 219 27 212 80 78 
264 8 55 374 197 250 191 329 89 134 
265 7 344 292 261 277 5 18 293 
266 7 119 362 348 312 3 307 318 
267 6 372 242 343 294 30 104 
268 5 215 30 104 232 294 
269 6 209 180 349 94 62 219 
270 8 373 325 64 353 179 382 240 354 
271 3 371 355 22 
272 8 274 116 288 376 172 128 295 23 
273 9 225 26 308 92 79 210 347 378 363 
274 8 272 116 23 172 288 128 376 241 
275 7 295 291 376 288 8 272 379 
276 6 262 157 343 70 306 7 
277 9 5 292 265 344 286 270 325 261 373 
278 5 33 361 117 114 317 
279 8 170 211 164 17 37 199 117 65 
280 6 154 57 226 259 336 133 
281 9 206 189 124 72 82 31 45 333 301 
282 6 141 234 44 143 309 217 
283 6 297 179 142 64 240 319 
284 5 312 362 3 318 307 
285 8 123 364 150 51 111 227 106 60 
286 6 5 336 277 292 265 344 
287 6 241 125 379 116 8 193 
288 8 376 295 272 275 291 34 116 274 
289 8 313 182 148 205 229 337 24 338 
290 6 135 131 161 106 15 227 
291 7 295 275 376 288 34 332 272 
292 7 265 344 261 277 5 325 353 
293 7 310 18 354 75 261 382 344 
294 4 104 372 267 30 
295 7 376 291 288 275 34 272 332 
296 8 357 243 22 355 68 257 173 371 
297 7 142 283 351 319 260 64 179 
298 5 314 15 299 60 324 
299 4 60 324 314 377 
300 7 14 67 305 11 358 346 366 
301 9 72 348 3 333 362 45 312 284 124 
302 8 315 249 239 255 365 24 341 229 
303 9 20 208 335 19 231 77 56 90 247 
304 2 317 37 
305 4 300 358 11 363 
306 9 7 70 343 157 262 137 242 359 276 
307 5 318 312 284 362 3 
308 7 79 26 347 252 273 210 92 
309 8 44 66 96 256 148 337 313 282 
310 8 75 293 18 354 368 382 240 261 
311 5 347 363 26 308 252 
312 6 362 3 284 318 307 348 
313 8 148 289 182 337 205 229 338 24 
314 5 299 60 298 324 15 
315 8 302 24 249 239 365 229 255 205 
316 8 334 16 84 370 118 19 159 65 
317 4 304 170 37 211 
318 5 307 312 284 362 3 
319 8 64 142 297 283 179 270 351 373 
320 8 16 84 145 115 223 159 244 370 
321 7 339 8 379 275 340 287 139 
322 9 69 245 71 122 63 185 53 342 155 
323 6 128 176 172 380 171 34 
324 3 299 377 60 
325 8 373 353 270 179 382 240 354 18 
326 5 130 216 21 331 360 
327 8 232 136 254 268 359 30 381 137 
328 4 248 21 356 360 
329 8 55 157 70 306 262 264 276 7 
330 6 178 383 258 375 45 206 
331 7 216 21 130 248 326 356 328 
332 8 34 253 291 176 295 376 171 288 
333 9 45 301 72 206 3 348 362 284 375 
334 8 316 16 84 370 118 223 19 159 
335 9 231 20 77 303 247 138 208 19 56 
336 5 286 259 133 5 277 
337 8 148 313 289 338 9 182 350 205 
338 9 350 9 337 378 148 313 289 156 182 
339 6 321 8 379 340 139 144 
340 5 139 275 291 8 321 
341 9 249 302 89 315 191 24 369 239 255 
342 9 25 63 124 31 245 119 189 322 185 
343 9 262 7 306 70 242 157 276 137 267 
344 7 265 292 261 18 293 277 353 
345 9 109 13 153 199 61 164 279 117 211 
346 8 173 257 14 67 68 300 243 93 
347 7 308 26 252 311 79 363 273 
348 9 3 362 301 72 312 266 284 318 333 
349 7 209 180 269 155 28 94 122 
350 9 9 338 378 337 156 148 225 313 289 
351 7 260 142 297 283 319 64 179 
352 9 201 58 214 6 195 132 4 200 204 
353 8 325 373 382 270 179 354 18 240 
354 8 18 382 75 310 293 240 353 368 
355 7 22 371 296 243 357 68 271 
356 4 248 328 21 331 
357 7 296 243 22 68 355 257 173 
358 7 11 366 305 363 300 103 225 
359 9 137 242 7 254 306 343 83 30 267 
360 2 328 21 
361 3 114 33 278 
362 8 3 312 348 284 318 301 266 307 
363 6 311 358 26 305 11 347 
364 8 51 227 285 123 106 111 150 60 
365 7 239 255 229 315 205 302 24 
366 9 11 358 103 300 305 363 225 169 14 
367 8 59 87 73 99 85 46 105 174 
368 7 240 382 75 354 310 18 353 
369 8 24 246 249 213 315 341 374 302 
370 8 84 223 16 334 216 316 326 115 
371 7 355 22 243 68 271 296 357 
372 5 267 294 104 30 242 
373 8 325 353 270 179 382 240 64 354 
374 8 250 191 264 197 89 76 55 40 
375 3 284 383 45 
376 7 295 288 291 275 34 272 128 
377 3 324 299 60 
378 9 350 9 225 338 103 156 273 337 49 
379 8 8 116 287 241 321 275 272 288 
380 6 171 176 323 253 34 332 
381 4 187 41 93 244 
382 7 240 354 18 353 368 75 325 
383 4 330 178 375 45 
DEPOT_SECTION
   1
   -1
EOF
