NAME :  X-n685-kX-w136-c11.cctp
COMMENT : 	Adapted by Maziero, Usberti and Cavellucci from the Uchoa, Pecin, Pessoa, Poggi, Subramanian, and Vidal (2013)
TYPE :  CCTP
DIMENSION :    578
EDGE_WEIGHT_TYPE : 	EUC_2D	
CAPACITY : 	408
VERTICES_WITHIN_COVERAGE :  11
VERTICES_WITH_DEMAND : 	136
NODE_COORD_SECTION
1 500 500
2 112 700
3 363 779
4 245 896
5 238 19
6 184 351
7 305 763
8 366 814
9 137 857
10 564 31
11 303 157
12 523 830
13 134 231
14 851 445
15 740 311
16 163 95
17 275 499
18 470 814
19 453 217
20 818 525
21 311 911
22 177 374
23 230 4
24 590 302
25 196 103
26 553 879
27 316 446
28 665 375
29 587 609
30 510 95
31 907 455
32 805 956
33 342 345
34 785 309
35 649 584
36 850 24
37 26 126
38 447 817
39 145 527
40 218 825
41 405 151
42 389 436
43 452 619
44 407 367
45 948 514
46 836 996
47 578 334
48 491 929
49 325 696
50 838 842
51 983 788
52 623 549
53 915 72
54 774 336
55 81 238
56 534 537
57 295 406
58 853 358
59 742 581
60 32 964
61 747 352
62 610 799
63 786 853
64 506 168
65 755 957
66 408 67
67 485 734
68 419 256
69 508 155
70 941 589
71 68 42
72 817 595
73 397 274
74 727 302
75 216 237
76 821 320
77 516 531
78 614 163
79 561 920
80 128 834
81 162 534
82 279 644
83 188 329
84 520 301
85 336 782
86 728 230
87 139 848
88 350 154
89 242 162
90 791 925
91 907 497
92 52 593
93 786 457
94 629 745
95 935 439
96 641 78
97 78 835
98 232 226
99 123 479
100 205 840
101 932 357
102 917 917
103 325 559
104 413 373
105 362 477
106 827 881
107 845 263
108 11 938
109 88 535
110 436 200
111 940 319
112 325 59
113 34 264
114 47 470
115 322 89
116 757 29
117 825 289
118 287 304
119 657 82
120 288 406
121 287 623
122 616 828
123 60 445
124 978 511
125 956 171
126 818 184
127 605 464
128 462 934
129 563 229
130 506 33
131 814 68
132 457 26
133 547 983
134 623 49
135 164 326
136 256 410
137 551 8
138 940 421
139 587 947
140 231 470
141 917 773
142 553 355
143 964 782
144 193 135
145 632 320
146 585 987
147 631 844
148 704 809
149 881 194
150 598 542
151 682 37
152 579 317
153 454 676
154 54 971
155 504 747
156 424 367
157 45 177
158 458 390
159 480 741
160 806 752
161 424 65
162 606 280
163 311 237
164 837 594
165 596 957
166 213 118
167 315 173
168 693 538
169 249 497
170 213 878
171 884 558
172 397 475
173 888 399
174 557 197
175 368 270
176 254 421
177 3 697
178 63 432
179 531 811
180 675 657
181 930 645
182 336 439
183 536 219
184 684 432
185 701 543
186 507 829
187 156 483
188 14 568
189 350 781
190 357 207
191 356 501
192 592 613
193 683 261
194 599 58
195 203 387
196 414 285
197 756 280
198 337 957
199 668 18
200 949 898
201 773 165
202 369 303
203 801 597
204 782 190
205 14 583
206 194 98
207 106 109
208 454 45
209 335 464
210 516 730
211 918 58
212 958 984
213 670 508
214 743 477
215 238 669
216 530 678
217 482 11
218 528 853
219 696 404
220 506 702
221 49 895
222 633 782
223 681 633
224 768 575
225 959 76
226 855 313
227 999 440
228 560 58
229 430 401
230 165 27
231 409 50
232 708 176
233 887 99
234 368 21
235 122 330
236 115 722
237 452 297
238 592 406
239 303 284
240 261 751
241 457 506
242 794 809
243 569 561
244 932 133
245 259 874
246 491 948
247 589 818
248 111 973
249 102 759
250 92 873
251 121 799
252 935 711
253 766 638
254 352 905
255 98 147
256 542 425
257 518 201
258 698 252
259 393 751
260 958 155
261 515 267
262 453 759
263 512 720
264 639 940
265 807 88
266 27 543
267 935 133
268 860 400
269 560 922
270 746 237
271 808 146
272 419 421
273 898 206
274 500 650
275 42 529
276 513 915
277 582 155
278 151 700
279 792 436
280 452 748
281 262 200
282 880 549
283 857 677
284 928 229
285 599 351
286 444 301
287 762 972
288 504 609
289 294 651
290 517 798
291 257 162
292 28 367
293 480 944
294 583 268
295 339 933
296 170 87
297 481 226
298 633 172
299 209 321
300 759 813
301 492 115
302 699 276
303 494 177
304 557 821
305 760 939
306 853 444
307 602 517
308 42 343
309 749 800
310 282 613
311 225 766
312 444 199
313 503 69
314 379 107
315 884 863
316 440 849
317 143 882
318 237 146
319 424 765
320 664 891
321 154 338
322 524 941
323 963 505
324 130 180
325 188 880
326 96 258
327 273 915
328 837 987
329 822 285
330 184 529
331 825 387
332 854 308
333 345 503
334 128 660
335 825 977
336 205 897
337 811 299
338 288 488
339 167 434
340 512 612
341 340 895
342 751 32
343 190 391
344 856 988
345 878 929
346 198 480
347 936 255
348 228 916
349 586 852
350 797 290
351 813 941
352 138 787
353 264 482
354 786 959
355 156 554
356 381 778
357 315 370
358 261 635
359 839 874
360 903 37
361 863 385
362 169 450
363 241 911
364 185 809
365 295 900
366 277 404
367 262 911
368 249 921
369 252 887
370 847 375
371 837 937
372 308 645
373 946 162
374 820 95
375 363 917
376 395 485
377 741 220
378 721 248
379 810 241
380 278 420
381 937 191
382 845 993
383 827 859
384 361 517
385 263 616
386 675 855
387 219 927
388 823 980
389 840 868
390 124 627
391 306 690
392 700 251
393 188 772
394 64 633
395 723 320
396 747 321
397 240 382
398 181 742
399 811 977
400 358 544
401 772 392
402 483 560
403 788 903
404 263 601
405 807 47
406 287 642
407 188 843
408 803 661
409 442 876
410 68 1000
411 824 38
412 332 592
413 245 799
414 685 263
415 413 463
416 387 439
417 353 910
418 740 294
419 278 634
420 342 556
421 266 662
422 729 35
423 620 52
424 316 598
425 634 209
426 311 662
427 844 135
428 404 633
429 374 838
430 295 539
431 415 801
432 670 38
433 697 421
434 869 423
435 986 838
436 835 34
437 764 176
438 262 908
439 775 275
440 266 522
441 703 239
442 591 199
443 814 34
444 776 274
445 797 997
446 860 167
447 733 971
448 314 547
449 167 491
450 184 887
451 960 984
452 762 878
453 664 132
454 671 69
455 689 296
456 779 54
457 829 220
458 369 946
459 280 739
460 930 977
461 87 600
462 822 1000
463 779 40
464 734 329
465 70 952
466 845 210
467 710 202
468 784 87
469 835 735
470 961 844
471 801 980
472 315 467
473 499 911
474 291 915
475 643 190
476 41 868
477 802 69
478 593 339
479 653 82
480 138 580
481 300 641
482 427 451
483 860 376
484 734 50
485 688 26
486 788 276
487 294 897
488 103 513
489 758 55
490 771 328
491 754 25
492 943 828
493 223 654
494 268 242
495 211 414
496 833 937
497 844 92
498 465 621
499 700 879
500 725 297
501 399 635
502 340 536
503 183 524
504 918 954
505 518 488
506 182 831
507 424 586
508 445 943
509 787 940
510 779 24
511 437 355
512 530 783
513 445 763
514 288 920
515 288 497
516 837 960
517 795 278
518 509 815
519 182 265
520 803 160
521 246 405
522 306 521
523 124 883
524 244 637
525 296 879
526 318 880
527 789 89
528 407 239
529 468 291
530 290 615
531 254 877
532 347 563
533 802 826
534 325 620
535 361 923
536 835 304
537 467 574
538 333 669
539 784 209
540 327 923
541 99 484
542 270 602
543 331 793
544 756 28
545 336 448
546 323 834
547 585 724
548 804 283
549 319 517
550 604 298
551 685 972
552 304 652
553 264 508
554 336 899
555 256 885
556 128 449
557 674 90
558 312 500
559 298 554
560 631 790
561 183 877
562 820 968
563 488 589
564 768 176
565 880 307
566 327 842
567 482 587
568 220 822
569 335 579
570 284 735
571 861 917
572 281 701
573 74 628
574 286 610
575 848 166
576 349 734
577 130 755
578 792 823
DEMAND_SECTION
2 8
3 25
4 36
5 83
6 63
7 3
8 15
9 47
10 21
11 54
12 87
13 94
14 22
15 31
16 78
17 71
18 32
19 60
20 87
21 31
22 53
23 76
24 23
25 93
26 56
27 72
28 44
29 92
30 23
31 48
32 87
33 70
34 27
35 72
36 9
37 64
38 6
39 40
40 19
41 68
42 52
43 41
44 57
45 94
46 73
47 10
48 6
49 31
50 87
51 70
52 71
53 32
54 3
55 94
56 67
57 98
58 3
59 97
60 31
61 25
62 94
63 87
64 9
65 66
66 56
67 13
68 65
69 1
70 93
71 56
72 92
73 64
74 10
75 83
76 43
77 64
78 14
79 81
80 27
81 46
82 1
83 96
84 19
85 7
86 17
87 26
88 71
89 56
90 51
91 43
92 50
93 49
94 64
95 1
96 14
97 42
98 97
99 97
100 22
101 1
102 61
103 30
104 77
105 61
106 62
107 33
108 24
109 5
110 87
111 1
112 91
113 76
114 55
115 62
116 5
117 5
118 96
119 48
120 73
121 46
122 59
123 82
124 69
125 14
126 7
127 7
128 44
129 5
130 1
131 37
132 98
133 52
134 11
135 58
136 72
137 4
COVERAGE_SECTION
2 9 236 278 334 577 249 390 398 573 394 
3 11 189 356 85 8 543 259 576 431 7 429 319 
4 11 369 363 555 438 531 367 368 245 348 327 170 
5 11 23 230 206 25 112 296 166 16 115 144 318 
6 11 83 22 135 321 299 343 195 397 235 495 521 
7 10 459 570 85 543 240 189 576 3 572 49 
8 9 429 3 189 356 543 85 546 566 431 
9 11 87 80 317 523 250 561 506 407 325 450 251 
10 11 137 228 194 130 423 134 313 30 217 96 479 
11 11 167 291 88 281 89 318 115 190 163 314 494 
12 11 186 179 518 218 290 304 512 18 26 247 349 
13 11 326 324 55 519 75 255 98 135 235 157 113 
14 11 306 434 268 31 173 279 361 331 93 370 483 
15 11 396 74 418 395 464 500 197 490 54 61 34 
16 11 296 206 25 144 166 207 230 255 318 324 89 
17 11 515 553 338 353 440 169 558 522 430 549 472 
18 11 38 518 186 316 290 12 431 513 262 179 319 
19 11 312 110 297 528 68 303 257 64 529 196 73 
20 11 282 72 224 164 171 203 93 14 306 214 91 
21 11 365 474 540 487 514 554 526 341 525 295 327 
22 11 343 6 195 321 83 135 495 339 299 397 235 
23 11 5 230 206 296 25 112 16 166 115 144 234 
24 10 550 152 162 47 294 478 145 285 142 84 
25 11 206 166 296 144 16 318 89 230 291 207 5 
26 11 218 79 349 269 276 12 304 473 186 322 179 
27 11 545 182 472 209 57 380 120 338 558 105 366 
28 11 219 433 184 145 285 238 395 478 455 464 61 
29 11 192 243 35 150 52 340 288 56 216 307 274 
30 11 301 313 69 130 228 64 208 10 303 132 217 
31 11 95 91 138 434 306 14 173 45 268 323 361 
32 11 351 354 562 399 471 509 335 388 516 90 496 
33 11 357 202 44 118 239 104 57 175 120 156 366 
34 11 350 490 337 54 548 486 517 439 444 76 396 
35 11 52 223 168 192 150 185 29 180 213 307 243 
36 11 436 411 443 405 360 131 477 497 510 463 211 
37 11 157 255 207 71 324 55 113 16 296 326 13 
38 11 18 316 431 513 319 262 409 186 518 280 290 
39 11 81 355 503 330 449 488 187 99 480 109 541 
40 10 568 100 407 506 364 413 170 311 393 325 
41 11 314 88 110 312 190 19 66 161 528 167 303 
42 11 416 272 415 172 482 105 376 182 229 545 209 
43 10 498 507 567 537 563 428 288 501 153 274 
44 11 104 156 511 229 272 158 33 42 202 416 286 
45 11 323 124 91 31 70 95 282 171 227 138 306 
46 11 328 382 462 388 335 344 399 562 516 471 445 
47 11 478 152 285 142 24 550 145 162 294 84 238 
48 11 246 293 473 276 128 322 508 269 79 409 133 
49 10 391 538 426 572 576 552 372 289 570 481 
50 11 383 389 359 533 106 578 315 63 242 571 403 
51 11 143 435 492 470 141 252 200 315 102 181 50 
52 11 150 307 35 243 213 29 168 192 185 127 56 
53 11 211 360 233 225 244 267 497 36 436 260 373 
54 11 490 34 61 396 464 15 76 350 337 395 418 
55 11 326 13 113 157 324 255 235 519 308 135 321 
56 11 77 243 505 402 150 563 307 567 537 288 340 
57 11 120 366 380 136 357 176 27 521 182 545 397 
58 11 370 483 361 331 268 226 76 332 173 536 565 
59 11 224 185 203 253 168 72 223 35 20 164 180 
60 11 154 108 465 410 221 248 476 250 523 97 317 
61 11 464 54 396 490 395 15 401 74 34 418 500 
62 11 560 247 222 122 147 94 304 349 547 179 512 
63 11 533 578 452 383 242 300 106 403 50 389 359 
64 11 69 303 257 301 174 183 297 312 19 30 110 
65 11 287 305 447 354 509 90 32 471 445 399 351 
66 11 161 231 314 208 234 132 112 41 115 217 313 
67 11 159 155 263 210 280 220 262 513 153 512 319 
68 11 528 73 196 286 19 175 237 110 529 312 202 
69 11 64 303 301 257 30 174 183 277 297 312 19 
70 11 181 171 282 45 124 323 91 164 252 283 72 
71 11 207 37 230 16 255 296 157 206 25 324 144 
72 11 203 164 224 253 408 20 59 171 282 283 70 
73 11 196 68 175 528 202 286 237 529 190 19 110 
74 11 500 418 15 395 396 464 197 302 455 490 61 
75 11 98 519 494 281 89 13 299 291 318 163 83 
76 11 536 337 117 226 329 332 34 350 548 517 54 
77 11 56 505 402 243 241 563 537 567 288 340 150 
78 10 298 277 475 442 425 453 174 129 96 479 
79 11 269 139 26 322 276 165 473 133 48 146 349 
80 11 87 9 251 352 523 97 317 250 506 407 364 
81 9 39 355 330 503 449 187 480 488 346 
82 11 406 419 289 358 481 121 421 552 372 310 530 
83 11 6 299 135 321 22 195 343 519 235 397 495 
84 11 261 529 152 142 47 237 24 294 286 478 129 
85 11 543 189 3 7 8 356 576 546 566 259 429 
86 9 377 270 378 441 467 392 258 302 414 
87 11 9 80 317 523 506 407 251 250 561 325 364 
88 11 167 11 190 41 314 115 163 291 110 112 281 
89 11 291 318 281 166 144 11 98 167 25 75 206 
90 11 509 403 351 32 305 354 496 65 371 562 287 
91 11 31 45 323 282 95 171 124 14 306 138 434 
92 10 461 205 573 394 188 266 275 109 390 480 
93 11 279 214 14 401 306 20 331 434 268 433 370 
94 11 222 560 547 62 247 122 147 148 180 304 512 
95 11 138 31 173 91 227 434 323 45 101 306 14 
96 10 479 119 454 423 134 557 194 432 151 453 
97 11 250 80 476 251 87 9 523 221 352 249 317 
98 11 75 494 281 519 89 291 163 318 239 118 13 
99 11 541 556 187 488 449 39 362 339 109 81 123 
100 11 407 40 568 506 364 170 325 561 450 336 413 
101 11 111 173 138 565 361 483 58 95 268 370 226 
102 6 200 504 345 571 460 315 
103 11 448 420 532 569 502 559 412 400 430 424 522 
104 11 44 156 511 229 158 272 42 416 33 286 482 
105 10 191 209 333 376 172 545 384 416 182 472 
106 11 359 389 383 50 403 63 571 496 90 371 315 
107 11 329 117 379 536 332 457 548 337 226 517 466 
108 11 60 154 221 465 476 410 250 248 97 523 317 
109 11 488 275 541 39 266 461 99 480 92 355 81 
110 11 312 19 528 297 41 68 303 64 190 257 73 
111 11 101 565 347 226 332 284 58 173 483 361 138 
112 11 115 234 314 66 231 5 88 161 11 23 167 
113 11 55 326 308 157 292 13 235 324 255 37 321 
114 11 123 178 541 275 488 266 99 109 556 188 292 
115 11 112 314 11 88 234 167 66 231 291 318 41 
116 9 544 491 342 510 463 489 422 484 456 
117 11 329 337 536 548 350 76 517 107 332 226 486 
118 11 239 494 33 163 357 299 202 175 397 98 75 
119 9 479 96 454 557 432 134 423 453 151 
120 11 57 366 380 136 176 521 357 27 397 182 545 
121 11 530 310 574 419 406 82 481 385 542 289 358 
122 11 147 247 62 349 560 222 304 386 320 26 94 
123 11 178 114 541 556 99 488 292 275 109 187 266 
124 11 323 45 91 227 95 70 31 138 171 282 434 
125 11 373 260 381 267 244 284 273 149 347 225 446 
126 11 520 575 204 466 457 271 539 446 201 564 427 
127 11 307 238 256 150 213 184 52 505 56 433 243 
128 11 508 293 48 246 473 276 409 322 316 458 133 
129 10 183 174 442 294 257 261 162 425 277 24 
130 11 217 313 132 137 208 10 228 30 301 161 194 
131 10 477 265 405 374 411 527 443 468 456 497 
132 11 208 217 130 161 231 313 66 30 234 137 301 
133 11 146 322 139 165 269 79 246 276 48 293 473 
134 11 423 194 96 479 119 432 454 199 151 10 228 
135 11 321 83 6 235 299 22 519 343 195 397 326 
136 10 176 521 366 380 120 397 57 495 195 140 
137 11 10 130 228 194 217 313 423 134 30 132 208 
138 11 95 31 173 227 101 434 91 268 361 323 306 
139 11 165 79 269 146 264 133 322 26 276 320 349 
140 9 169 346 353 553 17 176 495 338 440 
141 11 143 492 252 51 470 469 435 315 50 160 283 
142 11 47 478 152 285 84 238 24 256 550 145 162 
143 11 51 141 492 435 470 252 315 200 469 50 181 
144 11 166 25 206 318 16 296 89 291 324 207 281 
145 10 550 478 285 24 162 152 47 455 28 294 
146 11 165 133 139 269 79 264 322 551 246 276 48 
147 11 122 386 349 247 62 560 320 222 304 499 148 
148 11 309 386 300 499 560 222 147 578 122 242 452 
149 11 273 446 466 575 381 457 284 126 427 373 107 
150 11 307 52 243 56 35 29 192 127 213 77 168 
151 9 432 485 199 454 422 119 479 484 557 
152 11 47 24 478 550 285 142 162 294 145 84 261 
153 11 274 498 43 220 67 428 501 159 280 263 216 
154 10 60 465 410 108 248 221 476 250 523 317 
155 11 210 67 159 263 512 220 262 280 290 513 518 
156 11 104 44 511 229 158 272 286 237 42 416 196 
157 11 37 255 55 324 113 207 326 13 71 16 144 
158 11 229 156 511 104 272 44 482 42 415 416 286 
159 11 67 155 280 262 210 263 513 220 319 512 290 
160 11 469 242 578 533 309 300 283 408 50 63 383 
161 11 66 231 208 132 314 234 217 313 301 41 130 
162 8 550 294 24 152 145 478 47 129 
163 11 494 239 190 281 167 175 118 11 98 202 88 
164 11 72 203 171 282 20 224 408 253 283 59 70 
165 11 139 146 264 269 79 133 322 26 551 276 320 
166 11 25 144 206 318 89 296 16 291 281 11 5 
167 11 11 88 190 281 291 163 89 318 494 115 314 
168 11 185 213 35 59 52 214 224 307 150 223 184 
169 8 553 353 17 440 140 515 338 346 
170 11 336 325 450 561 4 100 369 348 531 363 407 
171 11 282 164 70 91 20 72 45 203 323 181 124 
172 7 376 415 105 416 482 42 191 
173 11 268 361 434 483 370 58 138 306 14 31 101 
174 11 183 129 442 257 277 64 69 78 303 294 425 
175 11 73 202 196 528 68 190 163 239 33 286 118 
176 10 136 521 380 366 120 397 57 495 140 195 
177 11 394 573 2 92 205 236 249 461 188 334 390 
178 11 123 114 541 556 292 99 488 308 275 339 109 
179 11 290 12 518 304 512 186 218 247 18 155 349 
180 11 223 35 253 192 94 29 59 547 185 52 168 
181 11 70 252 283 171 164 282 72 408 141 469 45 
182 11 545 27 209 472 105 416 42 57 120 380 191 
183 11 257 129 174 261 297 64 303 442 294 69 277 
184 11 433 219 28 214 213 127 238 401 61 93 168 
185 11 168 213 59 35 224 52 214 223 307 150 184 
186 11 518 12 179 218 290 18 304 512 38 26 316 
187 10 449 99 362 346 556 39 503 339 81 330 
188 11 205 266 92 275 461 109 394 573 114 488 541 
189 11 3 85 543 356 8 576 7 259 546 429 566 
190 11 88 167 163 528 175 11 41 73 68 110 312 
191 9 333 384 105 502 549 376 209 400 558 
192 11 29 243 35 52 150 340 288 216 223 180 56 
193 8 414 258 392 302 441 455 378 86 
194 11 423 134 228 10 96 479 119 137 454 432 199 
195 10 343 495 22 397 6 521 136 339 83 176 
196 11 73 68 286 237 528 175 202 529 511 19 44 
197 9 439 418 444 486 15 500 74 517 34 
198 9 295 458 540 535 375 417 21 254 554 
199 9 432 485 151 454 134 423 422 119 96 
200 8 102 470 504 435 492 315 345 460 
201 8 564 437 204 520 271 539 126 377 
202 11 175 73 196 33 68 239 44 528 286 118 104 
203 11 72 164 224 253 59 408 20 171 282 283 185 
204 9 539 564 437 201 126 520 271 377 457 
205 11 188 92 266 275 394 461 573 109 488 177 114 
206 11 25 296 166 16 144 318 230 89 207 5 291 
207 11 255 16 296 324 71 37 206 25 144 157 230 
208 11 132 161 217 231 66 130 313 30 301 234 314 
209 11 545 472 182 27 105 333 191 558 338 549 515 
210 11 263 155 220 67 159 216 512 280 290 262 547 
211 11 53 360 225 233 36 244 267 497 436 411 131 
212 5 451 460 504 102 200 
213 11 168 185 52 307 184 127 35 214 150 433 59 
214 11 93 279 433 184 185 168 213 219 20 401 224 
215 6 493 421 524 358 82 419 
216 11 220 274 263 210 340 67 547 155 288 153 159 
217 11 132 130 208 313 137 161 231 10 30 228 66 
218 11 12 186 26 179 518 304 290 349 276 473 18 
219 11 433 184 28 61 401 464 214 395 396 279 15 
220 11 263 210 216 67 155 159 274 153 280 262 547 
221 11 476 250 108 465 97 60 154 523 317 9 80 
222 11 560 62 94 122 247 147 547 148 349 386 304 
223 11 180 35 59 253 192 185 168 29 52 224 94 
224 11 59 203 72 253 20 164 185 168 408 214 223 
225 11 53 211 267 244 360 233 260 373 125 497 381 
226 11 332 536 565 76 117 329 58 337 107 548 350 
227 11 138 95 124 323 45 31 101 91 173 434 111 
228 11 10 194 137 313 130 423 30 134 96 301 217 
229 11 272 158 104 156 44 511 482 42 416 415 172 
230 11 296 16 23 5 206 25 71 207 166 144 255 
231 11 66 161 208 234 132 314 217 112 115 313 130 
232 8 467 377 437 86 564 453 441 201 
233 11 53 497 211 244 427 267 360 374 446 225 575 
234 11 231 112 66 161 115 314 132 208 217 5 88 
235 11 321 135 6 83 22 326 308 299 519 343 195 
236 10 2 577 249 278 334 352 398 251 393 390 
237 11 286 529 196 68 73 511 84 261 528 156 297 
238 11 256 285 127 142 478 47 28 152 145 184 24 
239 11 118 163 494 175 202 33 357 98 281 190 73 
240 8 459 570 311 7 413 572 391 393 
241 4 402 415 482 77 
242 11 578 533 300 63 309 50 160 383 389 452 106 
243 11 150 56 29 52 307 192 77 340 288 35 402 
244 11 267 373 260 125 233 381 53 225 211 149 446 
245 9 531 555 369 4 438 367 525 363 487 
246 11 293 48 128 322 473 276 508 133 269 79 409 
247 11 62 122 304 349 147 560 222 179 12 512 218 
248 8 465 410 154 60 523 317 221 250 
249 11 577 236 251 352 2 278 80 97 398 393 87 
250 11 523 97 9 221 476 317 80 87 251 465 561 
251 11 352 80 249 577 87 97 9 364 506 393 236 
252 11 141 181 143 283 51 469 492 70 160 470 435 
253 11 408 203 59 224 72 164 223 180 283 185 469 
254 10 417 341 375 554 535 295 540 21 526 458 
255 11 207 324 157 37 16 13 55 296 144 25 206 
256 11 238 505 142 127 158 285 47 478 77 307 56 
257 11 183 303 64 174 297 69 129 261 19 442 312 
258 9 392 441 193 414 378 302 86 455 270 
259 11 356 319 3 576 189 513 431 280 262 85 8 
260 11 373 125 267 244 381 225 273 284 149 233 53 
261 11 84 183 297 529 129 257 294 237 286 19 152 
262 11 513 280 319 159 67 155 431 18 38 259 210 
263 11 210 220 155 67 159 216 280 512 262 274 153 
264 11 165 139 320 551 146 79 269 499 386 147 447 
265 8 374 527 477 131 468 497 405 456 
266 11 275 188 205 92 109 114 488 461 541 394 573 
267 11 244 373 260 125 381 233 225 53 211 149 273 
268 11 361 483 434 173 370 331 58 306 14 31 279 
269 11 79 139 322 26 276 165 133 473 48 146 246 
270 8 377 86 378 441 197 539 392 439 
271 10 520 427 126 201 575 564 204 374 437 446 
272 11 229 482 42 416 415 104 158 156 44 172 376 
273 11 149 284 381 466 446 347 575 373 125 457 107 
274 11 340 216 288 498 220 153 43 563 567 263 210 
275 11 266 109 188 114 205 488 92 541 461 123 99 
276 11 473 48 322 246 293 79 269 26 128 218 508 
277 11 78 442 174 298 475 69 425 129 64 183 257 
278 8 2 236 334 398 577 249 390 393 
279 11 93 401 331 14 306 214 268 434 370 361 483 
280 11 262 513 159 319 67 155 259 431 210 263 18 
281 11 291 98 494 89 11 75 167 318 163 239 144 
282 11 171 91 164 20 70 45 72 203 323 31 124 
283 11 408 469 181 164 252 72 160 203 253 141 70 
284 11 347 273 381 149 125 373 260 466 107 111 446 
285 11 478 47 152 145 142 24 550 238 28 162 294 
286 11 237 529 196 68 73 511 156 528 202 44 84 
287 11 65 354 447 305 471 509 445 32 399 90 562 
288 11 340 563 567 274 498 537 43 402 216 56 77 
289 11 552 406 481 372 82 426 419 121 421 530 358 
290 11 179 518 512 12 186 304 18 155 218 159 210 
291 11 89 318 281 11 167 166 98 144 494 25 75 
292 11 308 178 123 235 113 114 326 321 556 541 55 
293 11 246 48 128 508 473 276 322 133 409 269 79 
294 10 162 24 550 129 152 47 183 261 442 84 
295 11 540 198 535 417 375 254 458 554 21 341 474 
296 11 16 206 25 144 166 230 207 318 255 5 324 
297 11 19 257 312 303 110 261 183 64 529 68 528 
298 9 78 475 425 442 453 277 232 174 467 
299 11 83 6 135 321 22 519 195 397 343 118 75 
300 11 309 578 242 533 63 148 452 160 383 50 499 
301 11 30 69 313 64 303 208 130 161 228 257 41 
302 9 414 193 455 258 392 500 378 441 74 
303 11 64 69 257 297 312 19 183 110 301 174 30 
304 11 179 247 12 349 218 290 512 518 186 62 26 
305 11 65 509 287 354 90 447 403 32 351 471 452 
306 11 14 434 268 31 173 361 279 331 93 483 370 
307 11 150 52 127 243 213 56 35 77 505 29 168 
308 11 292 113 235 178 326 123 55 321 135 114 556 
309 11 300 148 242 578 533 63 160 452 386 499 50 
310 11 574 530 121 542 385 419 404 406 358 82 481 
311 8 393 240 413 398 568 40 364 459 
312 11 110 19 297 528 303 41 68 64 257 69 190 
313 11 30 130 301 208 228 217 132 10 137 161 69 
314 11 66 41 88 115 161 231 112 234 11 167 208 
315 11 389 359 50 383 571 106 102 345 492 200 470 
316 11 409 38 18 431 429 186 518 8 12 319 473 
317 9 523 9 87 561 450 325 80 250 407 
318 11 89 291 166 144 25 281 206 11 98 167 296 
319 11 513 262 280 259 431 356 38 159 3 18 67 
320 11 386 499 264 147 122 551 349 148 139 165 452 
321 11 135 6 235 83 22 299 343 195 519 495 339 
322 11 276 246 48 473 269 79 293 133 128 139 26 
323 11 124 45 91 95 227 31 70 138 282 171 434 
324 11 255 13 207 55 144 157 326 16 519 25 296 
325 9 561 450 336 170 407 100 317 506 348 
326 11 55 13 113 235 324 519 135 157 321 308 255 
327 9 367 438 514 474 368 365 487 363 4 
328 10 46 382 335 388 344 462 562 516 399 471 
329 11 117 337 548 536 350 517 107 76 486 332 226 
330 7 503 81 355 39 449 346 187 
331 11 370 268 483 361 58 401 434 279 14 173 306 
332 11 226 536 565 76 117 329 337 107 58 548 350 
333 10 191 384 549 105 502 558 209 400 522 472 
334 8 390 2 278 236 573 394 461 480 
335 11 388 562 399 328 516 46 462 471 382 32 344 
336 9 170 450 325 348 561 387 363 4 369 
337 11 117 350 548 329 76 536 517 34 486 439 444 
338 11 515 17 353 558 553 472 522 169 440 549 27 
339 9 362 556 495 343 187 346 449 195 22 
340 11 288 563 567 274 498 537 43 402 216 29 243 
341 9 554 254 417 526 540 375 21 535 295 
342 9 544 116 491 422 489 484 463 510 456 
343 10 195 22 495 6 339 397 521 83 362 321 
344 7 382 328 46 335 388 516 462 
345 4 571 102 371 496 
346 9 449 140 187 362 503 330 169 339 81 
347 11 284 273 111 381 565 149 125 107 373 332 226 
348 8 363 387 368 4 336 367 438 369 
349 11 247 122 304 26 147 62 218 12 179 79 269 
350 10 548 517 337 486 34 329 444 439 117 76 
351 11 32 496 371 509 90 562 516 354 399 335 388 
352 11 251 577 249 80 364 393 87 398 506 236 9 
353 11 17 169 338 553 515 140 440 558 472 522 176 
354 11 32 509 471 287 65 399 351 305 90 562 445 
355 7 81 39 480 330 503 449 488 
356 11 3 259 189 8 431 85 319 543 576 429 513 
357 11 33 57 120 366 380 136 118 182 27 397 521 
358 10 419 524 385 82 406 421 121 310 404 542 
359 11 389 106 383 50 315 571 63 403 533 371 496 
360 11 211 53 36 233 225 436 411 497 443 131 405 
361 11 483 268 370 58 173 331 434 306 14 226 101 
362 9 339 187 449 556 346 99 495 343 140 
363 9 368 348 4 367 438 369 387 555 327 
364 11 506 407 40 100 393 568 352 311 87 413 80 
365 11 487 474 21 514 525 327 526 438 367 540 554 
366 11 120 380 57 136 176 521 397 357 27 495 182 
367 9 438 327 368 363 4 369 555 514 474 
368 7 363 367 438 348 4 327 387 
369 11 555 531 4 245 438 363 367 368 327 348 170 
370 11 483 58 361 331 268 173 434 76 226 332 306 
371 8 496 516 351 571 562 32 335 345 
372 10 552 481 289 426 406 82 121 534 419 530 
373 11 125 260 381 267 244 273 284 149 233 446 225 
374 9 265 497 131 477 527 468 427 405 271 
375 10 535 417 254 295 458 341 554 540 198 21 
376 6 172 415 105 191 384 416 
377 9 86 270 378 467 441 539 437 204 392 
378 11 86 441 392 258 270 377 302 414 193 197 467 
379 8 457 517 107 486 539 548 329 444 
380 11 366 120 57 136 176 521 27 397 472 182 357 
381 11 125 373 284 260 273 149 244 267 347 446 575 
382 9 46 328 344 462 335 388 516 562 399 
383 11 389 359 50 106 63 533 578 315 403 242 571 
384 7 191 333 400 502 105 549 420 
385 10 404 542 310 358 419 574 121 530 524 82 
386 11 499 320 147 148 122 560 222 62 349 452 264 
387 5 348 363 368 336 4 
388 11 335 399 562 328 462 46 471 516 382 32 445 
389 11 359 383 106 50 315 571 63 533 403 578 371 
390 7 334 461 480 573 394 2 278 
391 11 49 572 426 538 552 289 372 421 481 570 406 
392 9 258 441 414 193 378 302 86 455 270 
393 9 398 311 364 352 506 568 577 40 413 
394 10 573 461 92 390 334 205 2 188 177 480 
395 11 464 74 15 500 396 418 61 455 490 302 197 
396 11 15 464 395 490 74 418 54 61 500 34 197 
397 11 521 136 195 176 366 495 343 120 380 57 6 
398 8 393 311 278 577 352 364 236 2 
399 11 471 388 562 335 32 445 462 328 46 354 516 
400 5 420 502 532 384 103 
401 11 61 279 331 54 490 93 464 396 219 370 433 
402 10 537 567 563 77 288 56 241 340 498 507 
403 11 90 452 509 106 351 305 63 32 354 496 359 
404 7 542 385 310 574 530 121 358 
405 9 443 411 131 477 456 463 436 510 265 
406 11 82 289 419 481 121 552 372 358 530 310 421 
407 11 506 100 364 561 40 325 568 170 450 87 9 
408 11 253 283 203 72 164 469 160 224 59 223 180 
409 11 316 38 128 473 508 18 48 293 429 186 431 
410 9 154 465 60 248 108 221 250 523 476 
411 11 443 436 405 36 131 477 463 510 456 265 374 
412 6 569 424 534 532 103 420 
413 8 568 40 311 240 100 364 393 459 
414 9 193 258 302 392 441 455 378 500 86 
415 7 482 172 376 416 42 272 105 
416 11 42 415 172 272 482 105 376 182 545 229 209 
417 10 254 375 535 341 554 295 540 458 21 526 
418 10 74 500 15 197 396 395 464 439 444 302 
419 11 82 406 121 358 310 530 289 385 481 574 421 
420 7 532 103 400 502 569 448 412 
421 11 82 358 215 406 289 419 524 552 481 572 121 
422 6 484 342 491 544 116 489 
423 11 134 194 96 479 119 432 454 199 10 228 151 
424 8 412 534 569 530 574 310 121 103 
425 8 475 298 442 78 193 129 414 277 
426 10 552 372 289 538 481 391 406 49 82 419 
427 11 575 446 271 497 374 520 126 233 265 149 527 
428 2 501 43 
429 9 8 566 546 431 3 356 189 543 341 
430 10 559 448 522 549 440 103 515 558 553 17 
431 11 38 319 356 513 8 316 259 429 3 18 262 
432 9 151 199 485 454 119 479 134 96 423 
433 11 184 219 28 214 401 61 213 93 279 464 127 
434 11 268 306 14 173 361 483 31 370 331 58 95 
435 11 470 492 51 143 200 141 102 315 504 252 345 
436 11 411 36 443 405 131 477 463 510 456 497 265 
437 9 564 201 204 539 520 377 271 126 232 
438 10 367 327 368 4 363 369 555 514 474 531 
439 8 444 486 197 517 350 548 34 418 
440 8 553 17 169 515 430 338 353 522 
441 10 392 258 378 86 193 414 302 467 377 270 
442 10 174 129 78 425 277 298 475 183 294 257 
443 11 411 405 436 131 463 510 36 477 456 265 116 
444 8 439 486 517 197 350 548 34 418 
445 11 471 399 462 388 335 562 46 354 328 32 287 
446 11 575 149 427 126 466 273 271 520 457 233 497 
447 11 65 287 305 551 354 509 445 471 32 90 399 
448 10 103 559 430 522 502 420 549 532 569 400 
449 9 187 346 503 362 39 330 81 99 339 
450 9 325 561 336 170 317 407 100 348 387 
451 5 212 460 504 102 200 
452 11 63 403 90 305 499 578 106 300 533 509 383 
453 7 557 119 298 479 78 96 232 
454 8 119 557 479 96 432 151 485 199 
455 9 302 414 193 500 74 395 258 392 418 
456 7 463 489 477 405 510 116 468 
457 10 466 379 126 107 539 204 575 149 446 329 
458 10 535 375 295 198 417 254 540 554 341 21 
459 9 570 240 7 572 391 311 49 413 576 
460 4 504 212 451 102 
461 10 573 92 394 390 480 109 334 205 188 266 
462 11 46 328 388 335 382 399 445 471 562 344 516 
463 9 456 510 116 489 544 342 405 491 443 
464 11 395 396 15 61 74 500 418 490 54 197 34 
465 11 154 60 248 410 108 221 250 523 476 317 9 
466 11 457 126 149 575 446 379 107 273 539 520 204 
467 10 232 86 377 441 378 270 392 258 437 564 
468 5 527 265 477 456 131 
469 11 160 283 408 242 141 533 578 252 50 309 300 
470 11 492 435 200 51 143 315 141 102 504 345 50 
471 11 399 445 388 562 32 335 354 462 328 46 287 
472 11 209 27 545 558 338 182 515 333 105 549 17 
473 11 276 48 246 293 322 128 269 26 79 508 218 
474 9 514 365 327 487 21 367 438 525 540 
475 8 298 425 78 442 453 232 467 277 
476 11 221 97 250 108 523 465 80 60 9 87 317 
477 9 131 265 405 527 468 456 374 443 463 
478 11 285 47 152 24 550 142 145 162 238 294 28 
479 9 119 96 454 557 134 423 432 453 151 
480 6 355 390 81 39 461 109 
481 10 372 289 552 406 82 121 419 426 530 310 
482 8 415 272 172 42 416 376 229 241 
483 11 361 370 58 268 173 331 434 226 76 306 332 
484 6 422 342 489 116 544 491 
485 8 151 199 432 422 454 484 342 119 
486 9 517 444 439 350 548 197 34 337 329 
487 10 365 474 525 21 514 327 526 438 367 555 
488 11 109 541 99 39 187 81 275 355 449 556 114 
489 5 456 342 484 116 463 
490 11 54 34 396 61 15 464 350 418 337 395 197 
491 9 544 116 342 510 422 463 489 484 456 
492 11 470 435 143 51 141 315 200 102 50 389 359 
493 6 215 524 358 421 385 82 
494 11 98 281 163 75 239 118 291 167 89 519 11 
495 9 195 343 521 397 176 136 339 22 362 
496 9 371 351 516 32 562 571 335 90 388 
497 11 374 265 131 427 233 477 527 405 411 436 468 
498 11 43 567 563 288 274 537 340 507 153 428 402 
499 11 386 320 452 148 147 305 264 300 63 403 309 
500 11 74 418 15 395 302 396 464 197 455 378 258 
501 2 428 43 
502 10 400 420 103 384 448 532 549 333 522 191 
503 7 330 81 449 39 355 346 187 
504 5 460 102 345 212 451 
505 10 77 56 241 256 402 243 307 127 150 482 
506 11 407 364 100 40 568 87 561 325 9 80 170 
507 3 43 537 428 
508 11 128 293 246 48 473 409 276 458 322 375 535 
509 11 90 354 32 351 305 65 403 287 471 562 399 
510 10 463 116 544 491 342 456 405 443 489 411 
511 11 156 104 44 158 229 286 237 272 529 196 202 
512 11 290 179 518 155 304 12 186 210 159 263 67 
513 11 262 280 319 159 431 67 259 38 18 155 356 
514 8 474 327 365 487 21 367 438 368 
515 11 338 17 558 553 353 522 440 549 169 472 430 
516 9 562 335 371 496 388 328 351 399 32 
517 9 486 548 350 444 439 337 329 117 34 
518 11 186 290 12 179 512 18 218 304 38 155 316 
519 11 75 13 299 98 83 135 321 6 326 235 494 
520 10 271 126 201 204 564 437 575 427 539 446 
521 10 136 176 397 366 380 495 120 195 57 343 
522 11 549 430 558 448 515 559 502 17 338 440 103 
523 10 317 9 250 87 80 561 450 325 97 407 
524 8 358 493 385 215 421 419 82 404 
525 7 487 365 526 21 474 245 555 
526 7 525 554 341 487 365 21 566 
527 6 468 265 477 374 131 456 
528 11 68 73 196 110 175 19 312 190 286 237 202 
529 11 237 286 84 261 196 68 297 511 73 19 528 
530 11 574 310 121 419 542 385 406 481 404 82 424 
531 10 245 555 369 4 438 367 363 170 327 525 
532 6 420 569 103 400 502 412 
533 11 578 242 63 50 383 300 389 309 106 359 452 
534 8 424 412 372 481 530 121 552 574 
535 10 375 417 254 295 458 540 341 554 198 21 
536 11 117 332 76 226 329 337 548 350 107 565 517 
537 9 567 402 563 507 43 498 288 340 77 
538 7 426 49 391 552 372 289 481 
539 10 204 564 437 379 126 377 201 457 270 520 
540 11 295 21 554 417 254 341 535 198 375 474 365 
541 11 99 488 556 109 114 123 187 39 178 449 275 
542 8 404 310 385 574 530 121 419 358 
543 10 85 189 3 7 8 546 566 356 429 576 
544 9 116 491 342 510 463 489 422 484 456 
545 11 182 209 27 472 105 416 42 333 191 558 57 
546 6 566 543 526 8 429 525 
547 11 94 210 216 263 222 62 560 512 220 155 247 
548 10 350 517 337 486 329 117 444 439 34 536 
549 10 522 558 502 333 448 430 515 191 103 338 
550 8 24 162 152 145 294 478 47 285 
551 11 447 264 65 287 305 320 165 499 139 146 354 
552 10 372 289 426 481 406 82 419 121 538 391 
553 10 17 440 169 353 515 338 430 522 558 140 
554 10 341 254 417 526 540 21 375 295 535 365 
555 11 369 531 245 4 438 367 363 327 368 487 525 
556 9 99 362 339 187 541 449 178 123 488 
557 6 119 454 479 96 453 432 
558 10 549 522 515 338 333 472 17 209 430 191 
559 10 430 448 103 522 549 420 440 569 502 424 
560 11 222 62 122 94 247 147 148 349 386 304 547 
561 9 325 450 170 336 407 317 100 506 9 
562 11 335 388 399 32 516 471 328 351 46 462 496 
563 10 567 288 537 402 340 498 43 274 77 507 
564 9 437 201 204 539 520 271 126 377 232 
565 11 226 332 536 107 58 117 76 111 329 337 101 
566 5 546 526 429 8 525 
567 10 563 537 402 288 498 340 43 507 77 274 
568 10 40 100 413 364 407 506 170 311 393 245 
569 6 412 532 103 420 424 448 
570 9 459 240 572 7 391 49 576 311 85 
571 7 345 371 496 359 516 106 389 
572 10 391 570 459 421 49 426 289 215 240 552 
573 10 394 461 92 390 334 205 480 2 188 109 
574 11 310 530 121 542 385 404 419 406 424 481 82 
575 11 446 427 126 149 466 271 520 457 273 204 497 
576 11 49 3 189 259 85 7 356 391 543 570 538 
577 10 249 352 236 251 398 2 278 393 364 80 
578 11 533 242 63 300 309 50 383 452 389 106 359 
DEPOT_SECTION
   1
   -1
EOF
