NAME :  X-n685-kX-w273-c7.cctp
COMMENT : 	Adapted by Maziero, Usberti and Cavellucci from the Uchoa, Pecin, Pessoa, Poggi, Subramanian, and Vidal (2013)
TYPE :  CCTP
DIMENSION :    620
EDGE_WEIGHT_TYPE : 	EUC_2D	
CAPACITY : 	408
VERTICES_WITHIN_COVERAGE :  7
VERTICES_WITH_DEMAND : 	273
NODE_COORD_SECTION
1 500 500
2 112 700
3 363 779
4 245 896
5 238 19
6 184 351
7 305 763
8 366 814
9 137 857
10 564 31
11 303 157
12 523 830
13 134 231
14 851 445
15 740 311
16 163 95
17 275 499
18 470 814
19 453 217
20 818 525
21 311 911
22 177 374
23 230 4
24 590 302
25 196 103
26 553 879
27 316 446
28 665 375
29 587 609
30 510 95
31 907 455
32 805 956
33 342 345
34 785 309
35 649 584
36 850 24
37 26 126
38 447 817
39 145 527
40 218 825
41 405 151
42 389 436
43 452 619
44 407 367
45 948 514
46 836 996
47 578 334
48 491 929
49 325 696
50 838 842
51 983 788
52 623 549
53 915 72
54 774 336
55 81 238
56 534 537
57 295 406
58 853 358
59 742 581
60 32 964
61 747 352
62 610 799
63 786 853
64 506 168
65 755 957
66 408 67
67 485 734
68 419 256
69 508 155
70 941 589
71 68 42
72 817 595
73 397 274
74 727 302
75 216 237
76 821 320
77 516 531
78 614 163
79 561 920
80 128 834
81 162 534
82 279 644
83 188 329
84 520 301
85 336 782
86 728 230
87 139 848
88 350 154
89 242 162
90 791 925
91 907 497
92 52 593
93 786 457
94 629 745
95 935 439
96 641 78
97 78 835
98 232 226
99 123 479
100 205 840
101 932 357
102 917 917
103 325 559
104 413 373
105 362 477
106 827 881
107 845 263
108 11 938
109 88 535
110 436 200
111 940 319
112 325 59
113 34 264
114 47 470
115 322 89
116 757 29
117 825 289
118 287 304
119 657 82
120 288 406
121 287 623
122 616 828
123 60 445
124 978 511
125 956 171
126 818 184
127 605 464
128 462 934
129 563 229
130 506 33
131 814 68
132 457 26
133 547 983
134 623 49
135 164 326
136 256 410
137 551 8
138 940 421
139 587 947
140 231 470
141 917 773
142 553 355
143 964 782
144 331 857
145 193 135
146 389 572
147 632 320
148 585 987
149 631 844
150 704 809
151 881 194
152 598 542
153 682 37
154 579 317
155 454 676
156 54 971
157 504 747
158 424 367
159 45 177
160 216 986
161 458 390
162 480 741
163 806 752
164 424 65
165 606 280
166 311 237
167 837 594
168 596 957
169 213 118
170 315 173
171 693 538
172 729 167
173 249 497
174 213 878
175 884 558
176 397 475
177 888 399
178 557 197
179 368 270
180 254 421
181 3 697
182 227 994
183 63 432
184 531 811
185 675 657
186 930 645
187 336 439
188 536 219
189 684 432
190 701 543
191 507 829
192 156 483
193 14 568
194 404 597
195 350 781
196 357 207
197 356 501
198 231 732
199 592 613
200 683 261
201 599 58
202 203 387
203 414 285
204 756 280
205 337 957
206 668 18
207 949 898
208 773 165
209 369 303
210 801 597
211 782 190
212 14 583
213 194 98
214 106 109
215 454 45
216 335 464
217 516 730
218 918 58
219 958 984
220 670 508
221 743 477
222 896 962
223 238 669
224 530 678
225 482 11
226 528 853
227 696 404
228 506 702
229 49 895
230 633 782
231 681 633
232 768 575
233 959 76
234 855 313
235 999 440
236 560 58
237 430 401
238 165 27
239 409 50
240 708 176
241 887 99
242 368 21
243 122 330
244 115 722
245 452 297
246 592 406
247 303 284
248 261 751
249 457 506
250 794 809
251 569 561
252 707 87
253 932 133
254 259 874
255 491 948
256 589 818
257 111 973
258 102 759
259 92 873
260 121 799
261 935 711
262 766 638
263 352 905
264 98 147
265 542 425
266 518 201
267 698 252
268 393 751
269 778 80
270 958 155
271 515 267
272 453 759
273 690 37
274 512 720
275 639 940
276 807 88
277 27 543
278 935 133
279 860 400
280 560 922
281 746 237
282 808 146
283 419 421
284 898 206
285 500 650
286 42 529
287 513 915
288 582 155
289 151 700
290 377 563
291 792 436
292 452 748
293 262 200
294 880 549
295 857 677
296 928 229
297 599 351
298 444 301
299 762 972
300 504 609
301 630 246
302 294 651
303 517 798
304 257 162
305 28 367
306 480 944
307 583 268
308 339 933
309 170 87
310 383 541
311 481 226
312 633 172
313 209 321
314 759 813
315 492 115
316 699 276
317 494 177
318 557 821
319 760 939
320 853 444
321 602 517
322 42 343
323 749 800
324 282 613
325 225 766
326 444 199
327 503 69
328 379 107
329 884 863
330 440 849
331 143 882
332 237 146
333 424 765
334 664 891
335 154 338
336 524 941
337 963 505
338 130 180
339 188 880
340 96 258
341 369 562
342 837 987
343 778 263
344 822 285
345 184 529
346 825 387
347 854 308
348 345 503
349 371 598
350 404 507
351 128 660
352 825 977
353 205 897
354 811 299
355 288 488
356 167 434
357 512 612
358 340 895
359 751 32
360 190 391
361 856 988
362 878 929
363 198 480
364 936 255
365 228 916
366 586 852
367 797 290
368 813 941
369 138 787
370 660 256
371 762 77
372 264 482
373 786 959
374 156 554
375 381 778
376 315 370
377 261 635
378 839 874
379 903 37
380 764 69
381 863 385
382 169 450
383 241 911
384 185 809
385 662 253
386 295 900
387 441 491
388 277 404
389 262 911
390 713 61
391 252 887
392 847 375
393 308 645
394 946 162
395 820 95
396 363 917
397 395 485
398 741 220
399 390 612
400 721 248
401 810 241
402 278 420
403 937 191
404 845 993
405 827 859
406 265 989
407 361 517
408 263 616
409 675 855
410 823 980
411 437 562
412 840 868
413 216 635
414 213 699
415 306 690
416 700 251
417 188 772
418 64 633
419 723 320
420 747 321
421 240 382
422 181 742
423 811 977
424 772 392
425 483 560
426 788 903
427 770 261
428 807 47
429 287 642
430 188 843
431 803 661
432 442 876
433 68 1000
434 824 38
435 332 592
436 245 799
437 685 263
438 413 463
439 387 439
440 353 910
441 740 294
442 278 634
443 342 556
444 266 662
445 729 35
446 258 715
447 196 455
448 620 52
449 634 209
450 721 113
451 844 135
452 404 633
453 374 838
454 295 539
455 415 801
456 670 38
457 697 421
458 869 423
459 986 838
460 835 34
461 764 176
462 262 908
463 775 275
464 266 522
465 703 239
466 591 199
467 814 34
468 776 274
469 797 997
470 715 109
471 860 167
472 755 90
473 733 971
474 201 448
475 769 73
476 314 547
477 167 491
478 184 887
479 960 984
480 762 878
481 664 132
482 671 69
483 689 296
484 779 54
485 829 220
486 198 706
487 369 946
488 280 739
489 279 833
490 930 977
491 87 600
492 822 1000
493 352 522
494 779 40
495 891 995
496 734 329
497 354 880
498 70 952
499 845 210
500 710 202
501 784 87
502 835 735
503 961 844
504 740 123
505 870 974
506 801 980
507 315 467
508 499 911
509 291 915
510 643 190
511 41 868
512 802 69
513 593 339
514 653 82
515 138 580
516 300 641
517 427 451
518 860 376
519 688 26
520 294 897
521 103 513
522 374 576
523 771 328
524 754 25
525 303 849
526 943 828
527 223 654
528 268 242
529 211 414
530 833 937
531 844 92
532 283 839
533 465 621
534 700 879
535 393 595
536 725 297
537 394 585
538 399 635
539 340 536
540 183 524
541 918 954
542 518 488
543 182 831
544 424 586
545 445 943
546 787 940
547 716 101
548 779 24
549 437 355
550 530 783
551 445 763
552 288 920
553 288 497
554 509 815
555 182 265
556 803 160
557 246 405
558 124 883
559 244 637
560 296 879
561 318 880
562 789 89
563 407 239
564 468 291
565 290 615
566 249 986
567 254 877
568 347 563
569 802 826
570 361 923
571 835 304
572 188 991
573 467 574
574 333 669
575 784 209
576 327 923
577 99 484
578 270 602
579 331 793
580 379 553
581 756 28
582 336 448
583 323 834
584 585 724
585 323 986
586 804 283
587 604 298
588 685 972
589 304 652
590 264 508
591 336 899
592 256 885
593 128 449
594 877 962
595 674 90
596 312 500
597 298 554
598 631 790
599 183 877
600 820 968
601 488 589
602 768 176
603 880 307
604 327 842
605 482 587
606 220 822
607 335 579
608 284 735
609 281 701
610 901 963
611 74 628
612 879 981
613 286 610
614 848 166
615 349 734
616 229 963
617 130 755
618 792 823
619 289 856
620 879 945
DEMAND_SECTION
2 8
3 25
4 36
5 83
6 63
7 3
8 15
9 47
10 21
11 54
12 87
13 94
14 22
15 31
16 78
17 71
18 32
19 60
20 87
21 31
22 53
23 76
24 23
25 93
26 56
27 72
28 44
29 92
30 23
31 48
32 87
33 70
34 27
35 72
36 9
37 64
38 6
39 40
40 19
41 68
42 52
43 41
44 57
45 94
46 73
47 10
48 6
49 31
50 87
51 70
52 71
53 32
54 3
55 94
56 67
57 98
58 3
59 97
60 31
61 25
62 94
63 87
64 9
65 66
66 56
67 13
68 65
69 1
70 93
71 56
72 92
73 64
74 10
75 83
76 43
77 64
78 14
79 81
80 27
81 46
82 1
83 96
84 19
85 7
86 17
87 26
88 71
89 56
90 51
91 43
92 50
93 49
94 64
95 1
96 14
97 42
98 97
99 97
100 22
101 1
102 61
103 30
104 77
105 61
106 62
107 33
108 24
109 5
110 87
111 1
112 91
113 76
114 55
115 62
116 5
117 5
118 96
119 48
120 73
121 46
122 59
123 82
124 69
125 14
126 7
127 7
128 44
129 5
130 1
131 37
132 98
133 52
134 11
135 58
136 72
137 4
138 47
139 97
140 79
141 90
142 17
143 69
144 46
145 78
146 1
147 25
148 96
149 91
150 87
151 3
152 100
153 46
154 32
155 22
156 38
157 55
158 51
159 83
160 17
161 91
162 15
163 75
164 66
165 12
166 56
167 95
168 92
169 79
170 71
171 95
172 37
173 61
174 50
175 74
176 51
177 14
178 30
179 92
180 70
181 46
182 7
183 77
184 83
185 55
186 82
187 60
188 12
189 35
190 93
191 89
192 59
193 46
194 21
195 22
196 99
197 15
198 38
199 88
200 48
201 48
202 68
203 62
204 20
205 26
206 36
207 65
208 19
209 79
210 82
211 36
212 28
213 92
214 51
215 95
216 83
217 52
218 47
219 78
220 63
221 5
222 66
223 20
224 78
225 96
226 74
227 27
228 68
229 16
230 57
231 54
232 64
233 19
234 3
235 16
236 49
237 64
238 100
239 55
240 33
241 11
242 55
243 84
244 45
245 58
246 42
247 71
248 32
249 5
250 83
251 77
252 28
253 22
254 11
255 49
256 84
257 17
258 10
259 43
260 8
261 75
262 52
263 27
264 66
265 46
266 18
267 39
268 49
269 45
270 45
271 49
272 2
273 46
274 72
COVERAGE_SECTION
2 5 244 289 351 617 258 
3 7 195 375 85 8 579 268 615 
4 6 391 383 592 462 567 389 
5 7 23 238 213 25 112 309 169 
6 7 83 22 135 335 313 360 202 
7 7 488 608 85 579 248 195 615 
8 7 453 3 195 375 579 85 583 
9 7 87 80 331 558 259 599 543 
10 7 137 236 201 130 448 134 327 
11 7 170 304 88 293 89 332 115 
12 7 191 184 554 226 303 318 550 
13 7 340 338 55 555 75 264 98 
14 7 320 458 279 31 177 291 381 
15 7 420 74 441 419 496 536 204 
16 7 309 213 25 145 169 214 238 
17 7 553 590 355 372 464 173 596 
18 7 38 554 191 330 303 12 455 
19 7 326 110 311 563 68 317 266 
20 7 294 72 232 167 175 210 93 
21 7 386 509 576 520 552 591 561 
22 7 360 6 202 335 83 135 529 
23 7 5 238 213 309 25 112 16 
24 7 587 154 165 47 307 513 147 
25 7 213 169 309 145 16 332 89 
26 7 226 79 366 280 287 12 318 
27 7 582 187 507 216 57 402 120 
28 7 227 457 189 147 297 246 419 
29 7 199 251 35 152 52 357 300 
30 7 315 327 69 130 236 64 215 
31 7 95 91 138 458 320 14 177 
32 7 368 373 600 423 506 546 352 
33 7 376 209 44 118 247 104 57 
34 5 367 523 354 54 586 
35 7 52 231 171 199 152 190 29 
36 7 460 434 467 428 379 131 512 
37 7 159 264 214 71 338 55 113 
38 7 18 330 455 551 333 272 432 
39 7 81 374 540 345 477 521 192 
40 7 606 100 430 543 384 436 174 
41 7 328 88 110 326 196 19 66 
42 7 439 283 438 176 517 105 397 
43 7 533 544 605 573 601 452 194 
44 7 104 158 549 237 283 161 33 
45 7 337 124 91 31 70 95 294 
46 7 342 404 492 410 352 361 423 
47 7 513 154 297 142 24 587 147 
48 7 255 306 508 287 128 336 545 
49 6 415 574 609 615 589 393 
50 7 405 412 378 569 106 618 329 
51 7 143 459 526 503 141 261 207 
52 7 152 321 35 251 220 29 171 
53 7 218 379 241 233 253 278 531 
54 7 523 34 61 420 496 15 76 
55 7 340 13 113 159 338 264 243 
56 7 77 251 542 425 152 601 321 
57 7 120 388 402 136 376 180 27 
58 7 392 518 381 346 279 234 76 
59 7 232 190 210 262 171 72 231 
60 7 156 108 498 433 229 257 511 
61 7 496 54 420 523 419 15 424 
62 7 598 256 230 122 149 94 318 
63 7 569 618 480 405 250 314 106 
64 7 69 317 266 315 178 188 311 
65 7 299 319 473 373 546 90 32 
66 7 164 239 328 215 242 132 112 
67 7 162 157 274 217 292 228 272 
68 7 563 73 203 298 19 179 245 
69 7 64 317 315 266 30 178 188 
70 7 186 175 294 45 124 337 91 
71 7 214 37 238 16 264 309 159 
72 7 210 167 232 262 431 20 59 
73 7 203 68 179 563 209 298 245 
74 7 536 441 15 419 420 496 204 
75 7 98 555 528 293 89 13 313 
76 7 571 354 117 234 344 347 34 
77 7 56 542 425 251 249 601 573 
78 7 312 288 510 466 449 481 178 
79 7 280 139 26 336 287 168 508 
80 7 87 9 260 369 558 97 331 
81 7 39 374 345 540 477 192 515 
82 7 429 442 302 377 516 121 444 
83 7 6 313 135 335 22 202 360 
84 7 271 564 154 142 47 245 24 
85 7 579 195 3 7 8 375 615 
86 7 398 281 400 465 500 416 267 
87 7 9 80 331 558 543 430 260 
88 7 170 11 196 41 328 115 166 
89 7 304 332 293 169 145 11 98 
90 7 546 426 368 32 319 373 530 
91 7 31 45 337 294 95 175 124 
92 7 491 212 611 418 193 277 286 
93 7 291 221 14 424 320 20 346 
94 7 230 598 584 62 256 122 149 
95 7 138 31 177 91 235 458 337 
96 7 514 119 482 448 134 595 201 
97 7 259 80 511 260 87 9 558 
98 7 75 528 293 555 89 304 166 
99 7 577 593 192 521 477 39 382 
100 7 430 40 606 543 384 174 339 
101 7 111 177 138 603 381 518 58 
102 6 207 541 362 620 610 222 
103 7 476 443 568 607 539 597 435 
104 7 44 158 549 237 161 283 42 
105 7 197 216 348 397 176 582 407 
106 6 378 412 405 50 426 63 
107 7 344 117 401 571 347 485 586 
108 7 60 156 229 498 511 433 259 
109 7 521 286 577 39 277 491 99 
110 7 326 19 563 311 41 68 317 
111 7 101 603 364 234 347 296 58 
112 7 115 242 328 66 239 5 88 
113 7 55 340 322 159 305 13 243 
114 7 123 183 577 286 521 277 99 
115 7 112 328 11 88 242 170 66 
116 6 581 524 359 548 494 445 
117 6 344 354 571 586 367 76 
118 7 247 528 33 166 376 313 209 
119 7 514 96 482 595 456 134 448 
120 7 57 388 402 136 180 557 376 
121 7 565 324 613 442 429 82 516 
122 7 149 256 62 366 598 230 318 
123 7 183 114 577 593 99 521 305 
124 7 337 45 91 235 95 70 31 
125 7 394 270 403 278 253 296 284 
126 7 556 614 211 499 485 282 575 
127 7 321 246 265 152 220 189 52 
128 7 545 306 48 255 508 287 432 
129 7 188 178 466 307 266 271 165 
130 7 225 327 132 137 215 10 236 
131 7 512 276 428 395 434 562 467 
132 7 215 225 130 164 239 327 66 
133 7 148 336 139 168 280 79 255 
134 7 448 201 96 514 119 456 482 
135 7 335 83 6 243 313 22 555 
136 7 180 557 388 402 120 421 57 
137 7 10 130 236 201 225 327 448 
138 7 95 31 177 235 101 458 91 
139 7 168 79 280 148 275 133 336 
140 7 173 363 372 474 447 590 17 
141 7 143 526 261 51 503 502 459 
142 7 47 513 154 297 84 246 24 
143 7 51 141 526 459 503 261 329 
144 7 604 583 561 525 497 358 560 
145 7 169 25 213 332 16 309 89 
146 7 537 290 522 580 341 535 194 
147 7 587 513 297 24 165 154 47 
148 7 168 133 139 280 79 275 336 
149 7 122 409 366 256 62 598 334 
150 7 323 409 314 534 598 230 149 
151 7 284 471 499 614 403 485 296 
152 7 321 52 251 56 35 29 199 
153 7 273 456 519 206 482 390 445 
154 7 47 24 513 587 297 142 165 
155 7 285 533 43 228 67 452 538 
156 7 60 498 433 108 257 229 511 
157 7 217 67 162 274 550 228 272 
158 7 104 44 549 237 161 283 298 
159 7 37 264 55 338 113 214 340 
160 5 182 616 572 566 406 
161 7 237 158 549 104 283 44 517 
162 7 67 157 292 272 217 274 551 
163 7 502 250 618 569 323 314 295 
164 7 66 239 215 132 328 242 225 
165 7 587 307 24 301 154 147 370 
166 7 528 247 196 293 170 179 118 
167 7 72 210 175 294 20 232 431 
168 7 139 148 275 280 79 133 336 
169 7 25 145 213 332 89 309 16 
170 7 11 88 196 293 304 166 89 
171 7 190 220 35 59 52 221 232 
172 6 240 461 500 602 208 504 
173 7 590 372 17 464 140 553 355 
174 7 353 339 478 599 4 100 391 
175 7 294 167 70 91 20 72 45 
176 6 397 438 350 105 439 517 
177 7 279 381 458 518 392 58 138 
178 7 188 129 466 266 288 64 69 
179 7 73 209 203 563 68 196 166 
180 7 136 557 402 388 120 421 57 
181 7 418 611 2 92 212 244 258 
182 5 160 566 616 406 572 
183 7 123 114 577 593 305 99 521 
184 7 303 12 554 318 550 191 226 
185 7 231 35 262 199 94 29 59 
186 7 70 261 295 175 167 294 72 
187 7 582 27 216 507 105 439 42 
188 7 266 129 178 271 311 64 317 
189 7 457 227 28 221 220 127 246 
190 7 171 220 59 35 232 52 221 
191 7 554 12 184 226 303 18 318 
192 7 477 99 382 363 593 39 447 
193 7 212 277 92 286 491 109 418 
194 7 535 537 399 544 146 349 452 
195 7 3 85 579 375 8 615 7 
196 7 88 170 166 563 179 11 41 
197 6 348 407 493 105 539 397 
198 7 446 325 248 414 486 488 422 
199 7 29 251 35 52 152 357 300 
200 7 437 267 416 316 385 370 465 
201 7 448 134 236 10 96 514 119 
202 7 360 529 22 421 6 557 136 
203 7 73 68 298 245 563 179 209 
204 6 463 441 468 427 343 15 
205 7 308 585 487 576 570 396 440 
206 7 456 519 153 273 482 134 448 
207 7 102 503 541 459 526 329 362 
208 7 602 461 211 556 282 172 575 
209 7 179 73 203 33 68 247 44 
210 7 72 167 232 262 59 431 20 
211 6 575 602 461 208 126 556 
212 7 193 92 277 286 418 491 611 
213 7 25 309 169 16 145 332 238 
214 7 264 16 309 338 71 37 213 
215 7 132 164 225 239 66 130 327 
216 7 582 507 187 27 105 348 197 
217 7 274 157 228 67 162 224 550 
218 7 53 379 233 241 36 253 278 
219 7 479 490 541 610 222 495 102 
220 7 171 190 52 321 189 127 35 
221 7 93 291 457 189 190 171 220 
222 7 610 594 541 620 612 505 495 
223 7 527 444 559 414 413 377 82 
224 7 228 285 274 217 357 67 584 
225 7 132 130 215 327 137 164 239 
226 7 12 191 26 184 554 318 303 
227 7 457 189 28 61 424 496 221 
228 7 274 217 224 67 157 162 285 
229 7 511 259 108 498 97 60 156 
230 7 598 62 94 122 256 149 584 
231 7 185 35 59 262 199 190 171 
232 7 59 210 72 262 20 167 190 
233 7 53 218 278 253 379 241 270 
234 7 347 571 603 76 117 344 58 
235 7 138 95 124 337 45 31 101 
236 7 10 201 137 327 130 448 30 
237 7 283 161 104 158 44 549 517 
238 7 309 16 23 5 213 25 71 
239 7 66 164 215 242 132 328 225 
240 7 172 500 398 461 86 602 481 
241 7 53 531 218 253 451 278 379 
242 7 239 112 66 164 115 328 132 
243 7 335 135 6 83 22 340 322 
244 7 2 617 258 289 351 369 422 
245 7 298 564 203 68 73 549 84 
246 7 265 297 127 142 513 47 28 
247 7 118 166 528 179 209 33 376 
248 7 488 608 198 446 325 7 436 
249 4 387 350 411 425 
250 7 618 569 314 63 323 50 163 
251 7 152 56 29 52 321 199 77 
252 5 547 470 390 450 595 
253 7 278 394 270 125 241 403 53 
254 7 567 592 391 4 462 619 389 
255 7 306 48 128 336 508 287 545 
256 7 62 122 318 366 149 598 230 
257 6 498 433 156 572 60 558 
258 7 617 244 260 369 2 289 80 
259 7 558 97 9 229 511 331 80 
260 7 369 80 258 617 87 97 9 
261 7 141 186 143 295 51 502 526 
262 7 431 210 59 232 72 167 231 
263 7 440 358 396 591 570 497 308 
264 7 214 338 159 37 16 13 55 
265 7 246 542 142 127 161 297 47 
266 7 188 317 64 178 311 69 129 
267 7 416 465 200 437 400 316 385 
268 7 375 333 3 615 195 551 455 
269 6 501 475 562 371 380 472 
270 7 394 125 278 253 403 233 284 
271 7 84 188 311 564 129 266 307 
272 7 551 292 333 162 67 157 455 
273 7 153 519 456 206 390 482 445 
274 7 217 228 157 67 162 224 292 
275 7 168 139 334 588 148 79 280 
276 7 395 562 512 131 501 269 531 
277 7 286 193 212 92 109 114 521 
278 7 253 394 270 125 403 241 233 
279 7 381 518 458 177 392 346 58 
280 7 79 139 336 26 287 168 133 
281 6 398 86 400 427 343 465 
282 7 556 451 126 208 614 602 211 
283 7 237 517 42 439 438 104 161 
284 7 151 296 403 499 471 364 614 
285 7 357 224 300 533 228 155 43 
286 7 277 109 193 114 212 521 92 
287 7 508 48 336 255 306 79 280 
288 7 78 466 178 312 510 69 449 
289 7 2 244 351 486 422 617 414 
290 6 341 580 522 146 310 537 
291 7 93 424 346 14 320 221 279 
292 7 272 551 162 333 67 157 268 
293 7 304 98 528 89 11 75 170 
294 7 175 91 167 20 70 45 72 
295 7 431 502 186 167 261 72 163 
296 7 364 284 403 151 125 394 270 
297 7 513 47 154 147 142 24 587 
298 7 245 564 203 68 73 549 158 
299 7 65 373 473 319 506 546 469 
300 7 357 601 605 285 533 573 43 
301 7 370 385 449 165 307 200 510 
302 6 589 429 516 393 82 442 
303 7 184 554 550 12 191 318 18 
304 7 89 332 293 11 170 169 98 
305 7 322 183 123 243 113 114 340 
306 7 255 48 128 545 508 287 336 
307 7 165 24 587 129 154 301 47 
308 7 576 205 570 440 396 263 487 
309 7 16 213 25 145 169 238 214 
310 4 580 290 341 146 
311 7 19 266 326 317 110 271 188 
312 7 78 510 449 466 481 288 301 
313 7 83 6 135 335 22 555 202 
314 7 323 618 250 569 63 150 480 
315 7 30 69 327 64 317 215 130 
316 7 437 200 483 267 416 536 400 
317 7 64 69 266 311 326 19 188 
318 7 184 256 12 366 226 303 550 
319 7 65 546 299 373 90 473 426 
320 7 14 458 279 31 177 381 291 
321 7 152 52 127 251 220 56 35 
322 7 305 113 243 183 340 123 55 
323 7 314 150 250 618 569 63 163 
324 6 613 565 121 578 408 442 
325 7 198 417 248 436 422 606 40 
326 7 110 19 311 563 317 41 68 
327 7 30 130 315 215 236 225 132 
328 7 66 41 88 115 164 239 112 
329 6 412 378 50 405 106 102 
330 7 432 38 18 455 453 191 554 
331 7 558 9 87 599 478 339 80 
332 7 89 304 169 145 25 293 213 
333 7 551 272 292 268 455 375 38 
334 7 409 534 275 149 122 588 366 
335 7 135 6 243 83 22 313 360 
336 7 287 255 48 508 280 79 306 
337 7 124 45 91 95 235 31 70 
338 7 264 13 214 55 145 159 340 
339 6 599 478 353 174 430 100 
340 7 55 13 113 243 338 555 135 
341 6 290 580 522 146 568 310 
342 7 46 404 352 410 361 492 600 
343 4 427 468 463 204 
344 6 117 354 586 571 367 107 
345 5 540 81 374 39 477 
346 7 392 279 518 381 58 424 458 
347 7 234 571 603 76 117 344 354 
348 6 197 493 407 105 539 596 
349 5 522 535 399 537 146 
350 2 397 176 
351 5 2 289 244 611 418 
352 6 410 600 423 342 46 492 
353 5 174 478 339 365 599 
354 6 117 367 586 344 76 571 
355 6 553 17 372 596 590 507 
356 7 382 447 474 593 529 360 192 
357 7 300 601 605 285 533 573 43 
358 7 591 263 440 497 561 576 396 
359 4 581 116 524 445 
360 7 202 22 529 6 356 421 474 
361 6 404 342 505 46 612 352 
362 4 620 594 222 102 
363 7 447 474 477 140 192 382 540 
364 7 296 284 111 403 603 151 125 
365 4 383 4 353 389 
366 7 256 122 318 26 149 62 226 
367 5 586 354 34 344 468 
368 5 32 530 546 90 600 
369 7 260 617 258 80 384 417 87 
370 7 385 200 437 301 267 416 316 
371 4 380 475 472 269 
372 7 17 173 355 590 553 140 464 
373 7 32 546 506 299 65 423 368 
374 5 81 39 515 345 540 
375 7 3 268 195 8 455 85 333 
376 7 33 57 120 388 402 136 118 
377 7 442 559 408 82 429 444 121 
378 6 412 106 405 50 329 63 
379 7 218 53 36 241 233 460 434 
380 5 475 371 269 484 472 
381 7 518 279 392 58 177 346 458 
382 7 356 447 474 192 477 593 363 
383 5 365 4 389 462 391 
384 7 543 430 40 100 417 606 369 
385 7 370 200 437 301 267 416 465 
386 6 520 509 21 552 560 561 
387 5 249 350 438 517 397 
388 7 120 402 57 136 180 557 421 
389 4 462 383 4 391 
390 3 252 445 273 
391 7 592 567 4 254 462 383 389 
392 7 518 58 381 346 279 177 458 
393 5 589 516 302 429 82 
394 7 125 270 403 278 253 284 296 
395 7 276 531 131 512 562 501 269 
396 7 570 440 263 308 487 358 591 
397 5 176 350 438 105 197 
398 6 86 281 400 500 465 575 
399 6 535 194 349 452 538 537 
400 7 86 465 416 267 281 398 316 
401 4 485 343 107 575 
402 7 388 120 57 136 180 557 27 
403 7 125 394 296 270 284 151 253 
404 7 46 342 361 492 352 410 505 
405 7 412 378 50 106 63 569 618 
406 2 566 182 
407 5 493 197 348 539 310 
408 6 578 324 377 442 613 121 
409 7 534 334 149 150 122 598 230 
410 7 352 423 600 342 492 46 506 
411 5 544 573 425 194 146 
412 6 378 405 106 50 329 63 
413 3 527 559 223 
414 7 486 198 223 527 446 422 289 
415 6 49 609 574 589 302 393 
416 7 267 465 437 200 400 316 86 
417 7 422 325 384 369 198 543 606 
418 5 611 491 92 351 212 
419 7 496 74 15 536 420 441 61 
420 7 15 496 419 523 74 441 54 
421 7 557 136 202 180 388 529 360 
422 7 417 486 325 198 289 617 414 
423 7 506 410 600 352 32 469 492 
424 7 61 291 346 54 523 93 496 
425 7 573 605 601 77 411 300 56 
426 7 90 480 546 106 368 319 63 
427 4 343 468 463 204 
428 7 467 434 131 512 484 494 460 
429 7 82 302 442 516 121 589 393 
430 7 543 100 384 599 40 339 606 
431 7 262 295 210 72 167 502 163 
432 7 330 38 128 508 545 18 48 
433 7 156 498 60 257 108 229 572 
434 7 467 460 428 36 131 512 494 
435 3 607 568 103 
436 7 606 40 325 489 248 532 100 
437 7 200 267 316 416 385 370 465 
438 7 517 176 397 439 42 387 283 
439 7 42 438 176 283 517 105 397 
440 7 263 396 570 358 591 308 576 
441 7 74 536 15 204 420 419 496 
442 7 82 429 121 377 324 565 302 
443 6 568 103 539 607 341 476 
444 7 82 377 223 429 302 442 559 
445 4 359 524 581 116 
446 7 609 198 488 608 248 414 223 
447 7 474 363 382 356 140 529 477 
448 7 134 201 96 514 119 456 482 
449 7 510 301 312 466 78 385 370 
450 5 470 547 504 252 472 
451 7 614 471 282 531 395 556 126 
452 4 538 399 194 535 
453 7 8 144 497 604 583 455 3 
454 4 597 476 464 103 
455 7 38 333 375 551 8 330 268 
456 7 153 206 273 519 482 119 514 
457 7 189 227 28 221 424 61 220 
458 7 279 320 14 177 381 518 31 
459 7 503 526 51 143 207 141 102 
460 7 434 36 467 428 131 512 494 
461 7 602 208 211 172 575 556 398 
462 5 389 4 383 391 592 
463 5 468 343 427 204 367 
464 6 590 17 173 553 454 355 
465 7 416 267 400 86 200 437 316 
466 7 178 129 78 449 288 312 510 
467 7 434 428 460 131 494 548 36 
468 5 463 343 427 204 367 
469 7 506 423 492 410 352 600 46 
470 4 450 547 252 504 
471 7 614 151 451 126 499 284 282 
472 4 371 475 380 269 
473 7 65 299 319 588 373 546 469 
474 7 447 363 382 529 140 356 477 
475 5 380 371 269 484 501 
476 5 103 597 454 539 443 
477 7 192 363 540 382 39 345 81 
478 5 339 599 353 174 331 
479 7 219 490 541 610 222 495 102 
480 7 63 426 90 319 534 618 106 
481 7 595 119 312 514 470 78 96 
482 7 119 595 514 96 456 153 273 
483 7 316 437 200 536 74 419 267 
484 6 494 380 475 269 512 371 
485 6 499 401 126 107 575 211 
486 7 414 422 198 289 223 527 446 
487 7 570 396 308 205 440 263 576 
488 7 608 248 446 7 609 198 415 
489 7 532 619 525 583 254 436 560 
490 7 541 219 479 610 222 495 612 
491 5 611 92 418 515 109 
492 7 46 342 410 352 404 423 469 
493 5 407 539 348 197 443 
494 6 484 548 116 581 359 428 
495 7 612 505 222 610 361 594 490 
496 7 419 420 15 61 74 536 441 
497 7 358 263 591 440 144 561 396 
498 7 156 60 257 433 108 229 259 
499 7 485 126 151 614 471 401 107 
500 7 240 86 398 465 172 400 281 
501 7 562 269 475 276 371 512 380 
502 7 163 295 431 250 141 569 618 
503 7 526 459 207 51 143 329 141 
504 5 450 470 547 472 172 
505 5 612 594 361 222 495 
506 7 423 469 410 600 32 352 373 
507 7 216 27 582 596 355 187 553 
508 7 287 48 255 306 336 128 280 
509 6 552 386 520 21 389 462 
510 7 312 449 78 466 301 481 240 
511 7 229 97 259 108 558 498 80 
512 7 131 276 428 562 501 269 484 
513 7 297 47 154 24 587 142 147 
514 7 119 96 482 595 134 448 456 
515 4 374 81 39 491 
516 7 393 302 589 429 82 121 442 
517 7 438 283 176 42 387 439 397 
518 7 381 392 58 279 177 346 458 
519 7 273 153 206 456 445 390 482 
520 6 386 509 560 21 552 561 
521 7 109 577 99 39 192 81 286 
522 6 290 341 146 349 537 580 
523 7 54 34 420 61 15 496 367 
524 6 581 116 359 548 445 494 
525 7 619 532 583 604 144 489 560 
526 7 503 459 143 51 141 329 207 
527 6 413 223 559 377 444 414 
528 7 98 293 166 75 247 118 304 
529 7 202 360 474 557 421 180 447 
530 3 368 32 600 
531 7 395 276 131 451 241 512 562 
532 7 489 619 525 583 254 560 604 
533 7 43 605 601 300 285 573 357 
534 7 409 334 480 150 149 319 275 
535 7 537 194 399 349 146 522 544 
536 7 74 441 15 419 316 420 496 
537 7 535 146 194 522 349 399 290 
538 3 452 399 194 
539 6 493 443 103 407 476 568 
540 6 345 81 477 39 374 363 
541 7 610 222 490 102 620 594 362 
542 7 77 56 249 265 387 425 251 
543 7 430 384 100 40 606 87 599 
544 7 194 411 537 535 146 43 399 
545 7 128 306 255 48 508 432 287 
546 7 90 373 32 368 319 65 426 
547 5 470 450 252 504 390 
548 7 494 116 581 524 359 484 428 
549 7 158 104 44 161 237 298 245 
550 7 303 184 554 157 318 12 191 
551 7 272 292 333 162 455 67 268 
552 6 509 386 520 21 389 462 
553 6 355 17 596 590 372 464 
554 7 191 303 12 184 550 18 226 
555 7 75 13 313 98 83 135 335 
556 7 282 126 208 211 602 461 614 
557 7 136 180 421 388 402 529 120 
558 7 331 9 259 87 80 599 478 
559 6 377 527 408 413 223 444 
560 7 520 386 561 619 525 21 509 
561 7 560 144 591 358 520 386 21 
562 7 501 269 276 512 475 371 380 
563 7 68 73 203 110 179 19 326 
564 7 245 298 84 271 203 68 311 
565 7 613 324 121 442 578 408 429 
566 4 406 182 616 160 
567 7 254 592 391 4 462 389 383 
568 6 443 607 103 341 539 290 
569 7 618 250 63 50 405 314 412 
570 7 396 440 263 308 487 576 358 
571 7 117 347 76 234 344 354 586 
572 4 160 182 616 566 
573 7 605 425 601 411 544 43 533 
574 4 49 415 589 393 
575 6 211 602 461 401 126 398 
576 7 308 21 591 440 263 358 570 
577 7 99 521 593 109 114 123 192 
578 5 324 408 613 565 121 
579 7 85 195 3 7 8 583 604 
580 5 290 310 341 146 522 
581 6 116 524 359 548 494 445 
582 7 187 216 27 507 105 439 42 
583 7 604 144 525 532 619 579 489 
584 7 94 217 224 274 230 62 598 
585 5 205 308 406 487 576 
586 5 367 354 344 117 468 
587 7 24 165 154 147 307 513 47 
588 7 473 275 65 299 319 334 168 
589 6 393 302 516 429 82 442 
590 6 17 464 173 372 553 355 
591 7 358 263 440 497 561 576 21 
592 7 391 567 254 4 462 389 383 
593 7 99 382 356 192 577 477 183 
594 5 505 620 222 612 610 
595 7 119 482 514 252 96 481 547 
596 5 553 355 348 507 17 
597 4 454 476 103 443 
598 7 230 62 122 94 256 149 150 
599 6 339 478 174 353 430 331 
600 6 352 410 423 32 506 342 
601 7 605 300 573 425 357 533 43 
602 7 461 208 211 575 556 172 282 
603 7 234 347 571 107 58 117 76 
604 7 583 144 525 561 619 532 453 
605 7 601 573 425 300 533 357 43 
606 7 40 100 436 384 430 543 174 
607 4 435 568 103 443 
608 7 488 248 446 609 7 415 198 
609 6 415 446 608 488 444 49 
610 7 222 541 594 612 620 490 505 
611 5 418 491 92 351 212 
612 6 505 495 594 361 222 610 
613 6 324 565 121 578 408 442 
614 7 471 451 126 151 499 282 556 
615 7 49 3 195 268 85 7 375 
616 3 160 566 182 
617 7 258 369 244 260 422 2 289 
618 7 569 250 63 314 323 50 405 
619 7 525 532 560 489 254 561 583 
620 5 362 594 222 610 505 
DEPOT_SECTION
   1
   -1
EOF
