NAME :  X-n641-kX-w64-c11.cctp
COMMENT : 	Adapted by Maziero, Usberti and Cavellucci from the Uchoa, Pecin, Pessoa, Poggi, Subramanian, and Vidal (2013)
TYPE :  CCTP
DIMENSION :    411
EDGE_WEIGHT_TYPE : 	EUC_2D	
CAPACITY : 	1381
VERTICES_WITHIN_COVERAGE :  11
VERTICES_WITH_DEMAND : 	64
NODE_COORD_SECTION
1 0 0
2 80 386
3 521 652
4 597 936
5 836 69
6 503 987
7 618 169
8 115 662
9 312 175
10 78 83
11 364 317
12 12 454
13 980 537
14 403 383
15 144 443
16 739 464
17 886 511
18 904 106
19 794 539
20 821 608
21 781 347
22 336 490
23 101 736
24 365 68
25 618 684
26 282 286
27 311 806
28 557 793
29 54 50
30 651 264
31 619 661
32 156 994
33 950 369
34 183 707
35 673 856
36 5 651
37 867 449
38 946 914
39 75 82
40 522 8
41 573 493
42 833 699
43 881 677
44 201 77
45 536 593
46 67 895
47 99 113
48 120 133
49 428 231
50 701 845
51 190 508
52 431 218
53 626 782
54 113 914
55 569 117
56 865 639
57 708 9
58 511 977
59 104 838
60 229 467
61 956 568
62 431 929
63 615 707
64 913 42
65 854 504
66 236 176
67 377 404
68 380 468
69 590 752
70 620 146
71 616 746
72 556 640
73 99 777
74 12 194
75 920 116
76 525 23
77 813 875
78 757 593
79 289 765
80 246 267
81 245 876
82 648 790
83 636 653
84 555 181
85 738 446
86 130 836
87 882 942
88 102 787
89 669 905
90 490 45
91 883 547
92 971 638
93 256 227
94 489 411
95 514 866
96 7 118
97 161 160
98 27 21
99 64 937
100 121 847
101 770 896
102 174 871
103 20 546
104 986 803
105 379 259
106 686 273
107 133 869
108 157 499
109 649 934
110 670 615
111 978 479
112 646 823
113 193 565
114 26 411
115 114 126
116 946 326
117 695 420
118 116 701
119 940 438
120 837 507
121 542 708
122 441 235
123 808 413
124 68 374
125 582 768
126 220 519
127 593 651
128 71 712
129 26 569
130 918 629
131 165 731
132 227 977
133 788 366
134 33 507
135 597 983
136 799 35
137 529 178
138 235 743
139 118 484
140 477 280
141 591 189
142 807 670
143 163 621
144 874 932
145 245 24
146 960 27
147 139 44
148 45 584
149 684 501
150 20 905
151 57 354
152 306 107
153 952 66
154 862 741
155 240 516
156 782 700
157 82 208
158 951 550
159 710 44
160 537 764
161 407 191
162 629 133
163 608 911
164 727 517
165 679 836
166 73 420
167 637 903
168 55 920
169 933 456
170 326 903
171 116 175
172 344 992
173 28 667
174 439 245
175 891 450
176 224 732
177 156 734
178 390 441
179 115 896
180 655 766
181 210 731
182 42 176
183 505 517
184 923 66
185 490 844
186 342 859
187 313 79
188 876 843
189 631 889
190 634 721
191 943 776
192 533 441
193 752 907
194 617 648
195 9 749
196 494 54
197 921 869
198 30 694
199 134 209
200 594 990
201 23 693
202 163 660
203 509 133
204 187 933
205 910 526
206 470 949
207 522 961
208 602 499
209 655 931
210 469 942
211 320 62
212 561 574
213 948 781
214 857 586
215 465 816
216 237 237
217 918 448
218 247 860
219 434 167
220 531 937
221 668 318
222 774 375
223 104 5
224 351 968
225 227 311
226 371 880
227 696 912
228 754 894
229 45 61
230 40 711
231 817 333
232 724 419
233 704 881
234 325 252
235 128 217
236 736 6
237 156 513
238 976 765
239 324 55
240 69 89
241 782 635
242 585 289
243 819 986
244 159 806
245 800 708
246 249 15
247 984 964
248 846 680
249 324 862
250 604 499
251 146 700
252 341 10
253 928 90
254 476 660
255 82 705
256 256 442
257 639 197
258 368 469
259 642 479
260 598 732
261 424 158
262 825 660
263 763 320
264 399 34
265 52 693
266 510 68
267 74 921
268 407 511
269 226 284
270 220 690
271 552 210
272 337 6
273 176 182
274 385 440
275 501 475
276 779 37
277 993 28
278 873 112
279 644 148
280 322 862
281 315 24
282 537 103
283 861 100
284 529 695
285 675 210
286 651 310
287 156 759
288 461 838
289 897 59
290 322 547
291 135 711
292 297 252
293 125 723
294 150 672
295 665 129
296 849 63
297 944 384
298 905 477
299 139 781
300 714 36
301 601 599
302 210 25
303 946 53
304 494 646
305 214 534
306 815 93
307 78 693
308 150 697
309 326 92
310 88 487
311 167 677
312 861 91
313 897 123
314 709 256
315 161 685
316 344 459
317 925 425
318 958 32
319 182 410
320 236 454
321 383 370
322 543 638
323 372 21
324 822 586
325 858 405
326 342 363
327 616 158
328 486 681
329 158 353
330 260 277
331 222 118
332 912 123
333 266 332
334 504 663
335 311 101
336 203 441
337 363 40
338 784 472
339 885 406
340 487 673
341 928 16
342 705 463
343 944 90
344 102 636
345 592 743
346 714 307
347 187 755
348 254 453
349 902 75
350 798 382
351 551 296
352 785 320
353 602 101
354 491 528
355 762 360
356 199 695
357 537 609
358 784 464
359 476 651
360 792 611
361 786 74
362 311 127
363 344 152
364 96 627
365 162 623
366 927 85
367 429 14
368 588 689
369 641 165
370 867 100
371 967 508
372 420 424
373 254 301
374 532 657
375 498 805
376 337 176
377 987 16
378 541 973
379 904 81
380 909 104
381 338 491
382 756 316
383 346 454
384 354 322
385 608 213
386 814 327
387 953 337
388 516 661
389 309 323
390 186 520
391 328 22
392 379 303
393 69 822
394 935 103
395 416 97
396 23 550
397 758 423
398 354 509
399 690 234
400 903 72
401 503 89
402 479 604
403 160 694
404 276 471
405 526 710
406 345 206
407 106 676
408 225 747
409 586 399
410 918 94
411 476 548
DEMAND_SECTION
2 59
3 87
4 98
5 73
6 70
7 64
8 98
9 87
10 99
11 78
12 68
13 99
14 53
15 56
16 66
17 67
18 74
19 86
20 75
21 71
22 87
23 87
24 66
25 71
26 75
27 62
28 78
29 83
30 63
31 95
32 52
33 57
34 58
35 65
36 86
37 85
38 58
39 84
40 92
41 50
42 72
43 76
44 79
45 58
46 100
47 94
48 86
49 70
50 80
51 75
52 86
53 95
54 94
55 79
56 97
57 56
58 88
59 72
60 58
61 64
62 51
63 84
64 71
65 95
COVERAGE_SECTION
2 10 124 166 151 114 329 15 12 310 139 319 
3 11 388 374 334 322 304 72 340 284 328 359 254 
4 11 163 135 109 167 200 189 209 220 378 89 207 
5 9 296 306 312 283 370 136 361 278 289 
6 11 58 207 378 206 210 220 200 62 135 4 95 
7 11 327 70 369 279 141 257 162 385 295 84 285 
8 11 407 344 294 118 364 202 307 251 308 315 291 
9 11 376 363 406 362 152 335 66 93 234 292 309 
10 11 39 240 47 229 29 115 48 147 96 98 223 
11 9 384 392 326 389 321 105 234 14 26 
12 11 114 134 166 310 103 2 396 124 139 151 129 
13 11 158 371 61 111 205 169 298 17 91 92 119 
14 9 321 67 372 178 274 326 11 384 392 
15 11 139 319 108 336 237 310 166 51 2 60 390 
16 9 85 342 358 397 338 232 164 117 149 
17 11 205 65 91 298 120 175 37 217 169 158 214 
18 11 380 313 410 75 332 379 253 349 366 394 278 
19 11 120 324 78 338 65 164 360 20 358 214 91 
20 11 324 360 214 241 262 56 142 78 19 248 91 
21 9 133 355 352 222 263 231 350 386 382 
22 8 381 398 316 383 258 68 290 404 
23 11 293 255 118 128 73 291 307 88 177 251 299 
24 11 337 239 211 309 264 323 187 391 395 252 335 
25 11 31 63 368 83 194 190 127 260 71 345 69 
26 11 330 373 292 80 389 333 234 269 225 93 216 
27 5 79 249 280 186 218 
28 10 125 160 69 375 345 53 260 71 185 95 
29 11 229 39 98 10 240 223 47 96 147 115 48 
30 10 106 286 399 221 285 314 385 257 242 346 
31 11 194 83 25 127 368 63 190 301 72 110 260 
32 11 204 132 54 179 99 267 102 168 107 46 81 
33 5 297 387 116 317 119 
34 11 356 403 131 315 308 311 181 177 251 270 176 
35 11 165 50 233 112 89 189 167 227 82 209 109 
36 10 173 201 198 265 230 148 307 129 128 255 
37 10 175 325 298 339 217 65 317 17 120 169 
38 11 197 247 87 144 188 104 213 191 77 243 238 
39 11 10 240 229 29 47 115 48 147 96 98 223 
40 10 76 90 196 266 401 367 282 55 353 203 
41 10 208 250 192 259 183 275 212 354 409 45 
42 11 248 245 142 262 154 156 43 56 241 20 360 
43 11 248 56 42 262 130 154 142 245 20 214 92 
44 10 331 302 145 147 246 97 48 115 66 47 
45 11 357 212 322 72 402 3 374 301 304 388 411 
46 11 267 168 99 150 179 54 59 107 100 393 86 
47 11 115 48 10 240 39 171 229 29 97 147 182 
48 11 115 47 171 97 10 240 39 273 199 157 235 
49 11 52 122 174 161 105 219 140 261 392 406 234 
50 11 165 35 233 112 227 89 228 82 193 189 101 
51 10 390 126 108 237 305 155 60 113 336 320 
52 11 49 122 174 161 219 261 105 140 406 392 376 
53 11 82 180 71 112 125 69 345 260 190 28 63 
54 11 179 267 107 46 99 168 100 102 204 59 86 
55 11 282 353 70 162 203 327 84 7 401 137 141 
56 11 43 248 262 20 130 214 142 42 324 360 241 
57 7 236 300 159 276 136 361 295 
58 11 6 207 378 220 206 210 200 135 62 4 95 
59 11 100 86 393 107 88 179 73 244 299 46 54 
60 7 320 348 256 336 404 155 126 
61 11 158 13 371 205 92 130 91 17 111 214 298 
62 11 210 206 226 224 6 58 207 288 220 185 95 
63 11 25 190 260 368 71 345 31 69 83 194 127 
64 11 289 184 341 400 303 349 379 366 153 318 146 
65 11 120 17 91 37 298 205 175 19 338 358 214 
66 11 93 273 331 216 9 97 362 80 292 152 376 
67 8 14 321 274 178 372 326 383 68 
68 10 258 274 178 316 383 381 22 398 268 372 
69 11 345 125 260 71 53 63 28 160 190 368 121 
70 10 327 162 7 279 369 295 353 141 257 55 
71 11 260 345 69 190 53 63 125 180 82 25 368 
72 11 322 374 357 3 127 388 45 334 368 284 301 
73 10 88 299 23 393 287 293 59 86 244 128 
74 9 182 157 96 171 235 47 240 115 199 
75 11 332 380 18 394 410 313 253 366 343 379 349 
76 10 40 90 196 266 401 282 367 55 353 203 
77 10 101 228 193 188 144 87 197 233 243 50 
78 9 360 241 19 324 20 164 110 142 262 
79 4 27 138 408 176 
80 9 330 269 216 373 26 93 225 292 333 
81 9 218 102 280 249 204 170 27 186 132 
82 11 53 180 112 71 165 69 125 190 35 345 50 
83 10 31 194 25 127 110 63 368 301 190 72 
84 11 137 271 141 385 7 327 55 203 70 282 257 
85 9 16 232 397 342 358 117 338 164 123 
86 9 100 59 107 244 88 102 299 179 393 
87 10 144 38 243 197 77 188 247 101 193 228 
88 10 73 299 393 23 59 86 244 287 100 293 
89 11 227 209 167 109 189 233 35 163 50 165 4 
90 10 196 266 76 401 40 367 282 203 395 264 
91 11 205 17 214 65 120 158 324 298 61 20 19 
92 11 130 61 158 43 13 56 214 91 238 205 371 
93 10 216 80 292 330 66 26 269 234 373 9 
94 10 192 275 372 14 409 178 183 274 67 321 
95 11 185 288 375 215 220 28 210 206 207 62 163 
96 11 182 240 229 74 39 10 29 47 98 115 48 
97 11 273 171 48 199 115 235 331 66 47 44 157 
98 11 29 229 39 223 10 240 96 147 47 115 48 
99 11 168 267 46 54 150 179 107 59 100 32 393 
100 11 86 59 107 179 244 102 393 88 54 299 46 
101 9 228 193 77 233 227 50 89 243 35 
102 9 107 86 100 204 179 244 81 218 54 
103 7 396 129 134 148 310 12 36 
104 11 238 213 191 197 188 38 154 247 43 92 144 
105 11 392 234 49 11 174 406 52 122 384 161 292 
106 7 314 30 399 346 221 286 285 
107 10 100 179 86 102 59 54 244 46 267 393 
108 8 237 51 390 139 15 126 305 310 
109 11 209 167 89 163 189 4 227 135 233 200 35 
110 7 83 194 31 301 127 25 78 
111 11 371 169 119 13 217 298 158 317 205 61 175 
112 11 82 165 35 53 180 50 189 167 233 71 125 
113 7 305 390 126 51 143 237 365 
114 10 12 166 124 2 151 134 310 139 15 103 
115 11 48 47 171 10 97 240 39 273 199 147 157 
116 2 387 33 
117 5 232 342 85 16 397 
118 11 291 293 407 251 255 308 23 8 307 294 403 
119 10 169 317 217 175 298 297 111 339 33 37 
120 11 65 17 19 91 338 37 358 298 205 175 324 
121 10 405 284 368 374 388 160 334 3 260 345 
122 11 174 49 52 161 140 105 219 261 392 406 137 
123 9 350 133 222 325 397 358 338 37 355 
124 8 2 151 166 114 329 12 15 310 
125 10 69 345 28 260 71 160 53 63 82 190 
126 11 305 155 51 390 60 113 237 108 320 348 404 
127 11 194 31 368 72 25 83 322 301 63 374 357 
128 10 255 307 265 230 23 198 118 407 201 293 
129 7 396 103 148 134 36 364 173 
130 11 56 92 43 61 214 158 248 91 262 20 205 
131 10 177 287 34 347 251 291 308 403 293 181 
132 11 204 32 81 172 102 218 170 224 54 179 107 
133 9 222 350 21 355 231 352 386 123 263 
134 8 103 396 12 310 129 148 139 114 
135 11 200 4 378 109 163 207 209 220 58 167 6 
136 11 276 361 5 296 306 236 312 300 159 283 370 
137 10 84 271 203 141 55 282 385 7 327 401 
138 8 408 176 181 347 270 79 356 34 
139 7 310 108 237 15 51 390 166 
140 11 174 122 49 351 52 105 392 271 242 161 137 
141 11 385 7 84 327 271 257 70 369 137 279 162 
142 11 262 42 156 245 248 241 360 20 56 43 324 
143 7 365 202 294 311 8 344 113 
144 10 87 38 243 197 77 188 101 247 193 228 
145 9 246 302 44 281 391 211 239 187 272 
146 11 318 377 303 277 341 153 64 184 343 366 253 
147 11 223 44 10 302 39 47 240 29 115 48 229 
148 7 129 396 103 364 344 36 134 
149 8 342 164 259 16 85 250 117 208 
150 11 168 46 99 267 54 179 393 59 100 107 86 
151 6 124 2 114 166 329 12 
152 10 335 362 309 187 211 239 363 9 24 376 
153 11 303 343 184 366 253 318 146 394 410 64 400 
154 11 42 248 43 245 191 262 142 156 213 56 188 
155 9 126 305 60 51 390 404 320 348 113 
156 11 245 142 42 262 241 248 154 360 20 43 56 
157 8 171 235 182 199 74 48 115 97 
158 11 61 13 371 205 91 17 111 130 298 92 169 
159 7 300 57 236 276 361 136 295 
160 10 28 125 69 405 121 375 345 260 284 71 
161 11 52 219 261 49 122 174 406 376 105 363 395 
162 9 70 279 327 369 295 7 353 55 257 
163 11 4 167 189 109 209 89 135 200 220 35 227 
164 8 149 16 342 19 85 338 358 78 
165 11 35 50 112 233 82 89 189 180 53 227 167 
166 10 2 124 114 151 310 12 15 139 134 329 
167 11 189 163 89 109 209 4 35 227 233 165 112 
168 11 99 267 46 150 54 179 107 59 100 393 86 
169 11 217 119 317 298 175 111 371 37 339 17 297 
170 10 249 280 186 226 224 81 218 172 27 62 
171 9 199 48 235 97 157 115 273 47 182 
172 11 224 170 62 226 132 249 280 186 206 210 81 
173 10 201 198 36 265 230 307 128 255 364 407 
174 11 122 49 52 140 105 161 219 392 261 406 11 
175 10 37 217 298 169 317 339 119 325 17 65 
176 8 181 408 138 270 347 356 34 131 
177 10 131 287 291 293 251 308 347 34 403 315 
178 10 274 68 372 258 67 383 316 14 321 268 
179 11 54 107 46 267 100 59 86 102 99 168 204 
180 11 82 53 71 190 112 69 260 345 63 125 165 
181 9 176 408 138 347 34 356 270 131 177 
182 9 74 157 96 171 47 115 48 240 235 
183 9 354 275 411 41 212 192 45 402 357 
184 11 366 400 349 379 253 64 303 289 410 153 343 
185 10 288 95 215 375 28 160 210 220 62 206 
186 9 249 280 226 170 27 218 81 79 224 
187 9 211 309 335 239 152 362 24 281 391 
188 11 197 77 144 191 213 87 38 154 104 101 238 
189 11 167 163 89 109 209 35 4 112 227 165 233 
190 11 63 71 260 25 345 180 69 368 31 53 83 
191 11 213 238 104 154 188 197 43 42 248 38 92 
192 8 275 94 41 409 183 208 250 354 
193 9 228 101 233 227 77 50 89 35 209 
194 11 31 83 127 25 368 301 63 72 110 190 322 
195 11 230 201 198 265 128 173 255 307 23 73 393 
196 10 90 266 401 76 40 282 367 203 395 264 
197 11 38 188 144 87 213 104 191 77 247 238 154 
198 10 201 230 265 173 128 307 36 255 195 407 
199 7 235 171 273 157 97 48 115 
200 11 135 4 378 109 207 163 220 58 209 6 167 
201 10 198 230 173 265 36 128 307 195 255 407 
202 9 311 294 315 403 365 143 308 251 8 
203 10 282 401 137 55 266 84 196 219 271 261 
204 11 132 102 32 54 81 179 107 218 100 86 267 
205 11 17 91 158 298 65 371 61 13 169 120 175 
206 11 210 62 6 58 207 220 378 95 185 288 224 
207 11 58 378 220 6 206 210 135 200 4 95 62 
208 8 250 41 259 149 212 192 183 301 
209 11 109 89 167 227 189 163 4 233 35 135 200 
210 11 206 62 58 6 207 220 378 95 185 288 226 
211 9 239 187 309 281 335 391 24 152 337 
212 11 45 357 301 72 322 183 41 127 354 208 250 
213 11 191 238 104 197 154 188 43 38 42 248 92 
214 11 324 20 91 56 360 130 19 17 205 120 262 
215 6 288 375 185 95 160 28 
216 9 93 80 330 269 66 292 373 26 225 
217 10 169 119 317 175 298 37 339 111 297 17 
218 9 81 102 280 249 27 170 204 186 244 
219 10 261 161 52 49 122 395 174 203 363 137 
220 11 207 378 58 6 206 210 4 95 135 163 200 
221 5 286 346 106 30 314 
222 10 133 355 350 21 123 397 263 352 231 382 
223 11 147 29 98 229 10 39 240 47 302 44 115 
224 11 172 170 62 226 186 249 280 206 210 132 81 
225 6 269 373 333 330 80 26 
226 9 186 249 170 280 62 224 27 288 215 
227 11 89 233 209 109 193 167 35 228 50 189 101 
228 9 193 101 233 227 77 50 89 35 165 
229 11 29 39 240 10 98 96 47 223 115 147 48 
230 10 198 265 201 128 255 307 173 195 23 36 
231 3 386 352 21 
232 6 117 85 397 16 342 222 
233 11 227 50 35 89 165 228 193 101 209 167 189 
234 11 292 406 105 26 330 93 389 392 11 384 376 
235 6 199 171 157 273 97 48 
236 8 57 300 159 276 136 361 5 306 
237 7 108 390 51 139 305 113 126 
238 11 213 191 104 154 197 92 188 43 130 38 248 
239 9 211 187 281 391 309 337 24 252 335 
240 11 39 10 229 47 29 115 48 96 98 147 182 
241 11 360 142 20 78 262 324 156 245 248 42 56 
242 9 351 286 30 385 271 221 141 106 257 
243 9 87 144 101 193 77 228 227 38 188 
244 8 299 86 287 100 347 88 59 73 
245 11 156 42 142 248 262 154 241 43 56 360 20 
246 9 145 302 281 44 391 211 239 272 187 
247 11 38 87 197 144 104 188 243 213 191 77 238 
248 11 42 262 43 142 56 245 154 156 20 241 130 
249 9 280 186 170 226 27 218 81 79 224 
250 8 208 41 259 149 212 192 301 183 
251 11 308 403 291 315 294 118 293 311 177 131 34 
252 10 272 391 281 323 337 239 211 24 264 187 
253 11 366 410 394 343 380 184 379 75 18 349 400 
254 7 359 340 304 328 334 388 3 
255 10 128 307 265 118 23 407 230 293 198 291 
256 4 348 320 404 60 
257 11 369 7 385 285 327 141 279 70 399 162 30 
258 10 68 316 383 274 178 381 22 398 268 67 
259 6 250 208 149 342 41 117 
260 11 345 69 71 63 190 125 368 25 53 121 180 
261 10 219 161 52 395 49 122 363 174 203 376 
262 11 142 248 42 56 241 20 245 43 156 360 324 
263 7 382 352 21 355 346 386 133 
264 11 323 337 367 24 252 395 272 391 239 211 281 
265 10 198 230 307 128 201 255 173 407 36 118 
266 10 196 401 90 282 76 40 203 55 367 353 
267 11 99 168 46 54 179 150 107 59 100 393 86 
268 6 68 398 258 178 381 22 
269 7 80 225 373 330 216 26 333 
270 6 356 34 176 181 138 311 
271 11 84 137 141 385 7 327 242 351 203 257 70 
272 10 252 391 281 323 337 239 211 24 264 187 
273 10 97 199 235 66 171 48 331 216 115 93 
274 10 178 68 258 67 372 383 316 14 381 22 
275 9 183 192 354 94 41 411 372 268 208 
276 9 136 361 236 5 300 306 159 296 57 
277 11 377 146 318 303 153 341 343 184 64 366 253 
278 9 370 283 312 313 18 380 332 379 75 
279 8 369 162 70 295 327 7 257 353 
280 9 249 186 170 226 27 218 81 79 224 
281 9 391 272 252 239 211 337 187 323 24 
282 10 55 401 203 266 196 353 90 137 84 76 
283 9 370 312 278 296 5 18 313 306 379 
284 9 405 121 388 374 334 3 328 340 322 
285 7 399 257 369 314 30 106 385 
286 7 221 30 106 346 242 314 399 
287 9 177 299 131 347 244 293 291 34 23 
288 8 215 185 375 95 62 226 210 28 
289 11 400 349 64 379 184 366 410 253 380 18 296 
290 3 398 381 22 
291 11 251 293 118 308 403 177 131 315 23 294 407 
292 11 234 26 330 93 80 216 373 406 389 9 269 
293 11 291 118 23 251 177 308 131 403 255 287 407 
294 11 315 202 311 403 308 251 8 291 407 118 34 
295 7 279 162 369 70 327 7 353 
296 11 5 312 283 370 306 289 349 278 400 136 379 
297 7 33 317 387 119 116 339 217 
298 11 175 217 169 17 37 205 119 317 65 371 91 
299 9 287 244 88 73 177 347 86 131 23 
300 7 159 57 236 276 361 136 295 
301 10 212 194 127 72 83 31 45 357 322 110 
302 9 145 246 44 147 331 281 223 187 211 
303 11 153 318 184 146 64 343 366 253 341 400 289 
304 9 359 334 254 388 3 340 328 374 402 
305 8 126 390 155 51 113 237 108 60 
306 8 5 361 296 312 283 370 136 278 
307 10 255 128 265 407 118 230 8 198 23 201 
308 11 251 403 315 291 294 311 34 118 293 131 177 
309 10 335 187 152 211 239 362 24 363 337 281 
310 7 139 134 166 108 15 237 12 
311 10 315 202 294 403 308 251 34 356 291 8 
312 9 283 370 278 296 5 349 379 18 306 
313 9 332 18 380 75 278 410 370 283 379 
314 5 106 399 346 285 30 
315 11 403 311 308 294 251 202 34 291 356 131 118 
316 8 383 258 22 381 68 274 178 398 
317 9 119 217 169 175 339 297 298 33 37 
318 11 146 303 377 341 153 277 64 184 343 366 253 
319 7 336 15 329 320 60 256 348 
320 5 60 348 256 336 404 
321 9 14 67 326 11 384 372 392 274 178 
322 11 72 374 3 357 388 45 334 304 127 284 212 
323 10 337 264 252 272 391 24 281 367 239 211 
324 11 20 214 360 19 241 78 56 91 262 120 142 
325 4 339 37 123 175 
326 5 321 384 11 389 67 
327 11 7 70 369 162 279 141 257 385 295 353 55 
328 8 340 254 334 359 304 388 3 284 
329 4 319 225 2 15 
330 10 80 26 373 269 292 216 225 93 333 389 
331 10 44 66 97 273 152 362 335 302 145 187 
332 9 75 313 18 380 394 410 253 278 366 
333 6 373 225 389 26 330 269 
334 9 388 3 304 340 328 254 374 359 284 
335 10 152 309 187 362 211 239 363 24 9 281 
336 7 320 60 319 348 256 15 51 
337 11 323 24 264 252 391 239 272 211 281 187 309 
338 11 358 16 85 397 120 123 19 164 65 232 342 
339 5 325 175 317 37 217 
340 9 328 254 334 359 304 388 3 284 374 
341 11 64 146 318 303 184 289 153 377 400 349 277 
342 8 16 85 149 117 232 164 259 397 
343 11 253 394 366 153 410 184 75 303 380 379 18 
344 9 364 8 407 294 365 307 143 118 202 
345 11 69 260 71 125 63 190 53 368 160 28 121 
346 9 382 106 221 263 314 286 352 355 30 
347 9 287 131 181 177 408 176 34 138 299 
348 4 256 320 404 60 
349 11 400 379 289 184 410 366 253 380 18 64 370 
350 8 133 222 123 21 355 231 386 397 
351 9 242 140 271 286 385 30 409 141 84 
352 5 263 21 382 386 231 
353 9 55 162 70 327 279 282 295 7 369 
354 8 183 411 275 402 45 212 268 41 
355 9 222 21 133 263 350 382 352 231 386 
356 10 34 270 311 181 315 403 176 308 131 202 
357 11 45 322 72 212 3 374 388 304 402 334 301 
358 11 338 16 85 397 123 120 232 19 164 342 65 
359 7 254 304 340 334 328 388 3 
360 11 241 20 78 324 262 142 214 19 56 248 156 
361 7 306 276 136 5 296 312 283 
362 10 152 335 309 363 9 187 376 211 239 24 
363 11 376 9 362 406 152 335 309 161 187 261 24 
364 7 344 8 407 365 143 148 307 
365 7 143 202 294 311 8 344 315 
366 11 253 410 343 184 394 379 380 349 400 18 153 
367 11 264 323 90 337 196 24 395 252 272 40 76 
368 11 25 63 127 31 260 121 194 345 190 72 284 
369 10 279 7 327 70 257 162 295 141 285 385 
370 9 283 312 278 18 313 296 379 380 349 
371 11 111 13 158 205 61 169 298 119 217 17 91 
372 10 178 274 14 67 68 321 258 94 383 316 
373 9 330 225 26 269 333 80 389 292 216 
374 11 3 388 322 72 334 284 304 340 357 121 328 
375 8 215 185 288 160 28 95 125 405 
376 11 9 363 406 362 161 152 234 335 309 292 261 
377 11 277 146 318 303 341 153 64 184 343 366 253 
378 11 207 58 220 6 200 135 4 206 210 163 95 
379 11 349 400 410 289 366 184 380 18 253 75 394 
380 11 18 410 75 332 313 253 379 366 394 349 400 
381 8 22 398 316 258 383 68 290 404 
382 6 263 352 21 346 355 133 
383 8 316 258 22 68 381 274 178 398 
384 9 11 392 326 389 321 105 234 14 26 
385 11 141 257 7 271 327 369 84 30 285 70 279 
386 3 231 352 21 
387 3 116 33 297 
388 10 3 334 374 304 340 322 284 328 254 359 
389 6 333 384 26 326 11 373 
390 9 51 237 305 126 108 113 155 60 139 
391 9 281 252 272 239 337 211 323 24 187 
392 10 11 384 105 321 326 389 234 174 14 49 
393 11 59 88 73 100 86 46 107 299 179 244 23 
394 11 253 343 410 75 366 380 332 18 379 184 153 
395 10 24 261 264 219 337 367 401 323 196 90 
396 7 103 129 148 134 310 12 36 
397 11 85 232 16 358 123 222 338 350 117 355 133 
398 8 381 22 258 68 290 316 268 383 
399 5 285 314 106 30 257 
400 11 349 379 289 184 366 410 253 64 380 18 343 
401 10 266 196 282 203 90 76 55 40 395 137 
402 7 304 359 254 411 45 357 3 
403 11 315 308 251 311 294 34 291 202 131 356 177 
404 4 348 256 320 60 
405 9 284 121 328 388 334 374 340 160 3 
406 11 376 9 234 363 105 161 292 362 49 52 93 
407 10 8 118 307 255 344 294 291 251 308 128 
408 9 138 176 181 347 270 34 356 131 79 
409 5 192 41 94 259 208 
410 11 253 366 380 18 379 394 75 349 343 400 184 
411 6 354 183 402 45 275 268 
DEPOT_SECTION
   1
   -1
EOF
