NAME :  X-n641-kX-w128-c7.cctp
COMMENT : 	Adapted by Maziero, Usberti and Cavellucci from the Uchoa, Pecin, Pessoa, Poggi, Subramanian, and Vidal (2013)
TYPE :  CCTP
DIMENSION :    454
EDGE_WEIGHT_TYPE : 	EUC_2D	
CAPACITY : 	1381
VERTICES_WITHIN_COVERAGE :  7
VERTICES_WITH_DEMAND : 	128
NODE_COORD_SECTION
1 0 0
2 80 386
3 521 652
4 597 936
5 836 69
6 503 987
7 618 169
8 115 662
9 312 175
10 78 83
11 364 317
12 12 454
13 980 537
14 403 383
15 144 443
16 739 464
17 886 511
18 904 106
19 794 539
20 821 608
21 781 347
22 336 490
23 101 736
24 365 68
25 618 684
26 282 286
27 311 806
28 557 793
29 54 50
30 651 264
31 619 661
32 156 994
33 950 369
34 183 707
35 673 856
36 5 651
37 867 449
38 946 914
39 75 82
40 522 8
41 573 493
42 833 699
43 881 677
44 201 77
45 536 593
46 67 895
47 99 113
48 120 133
49 428 231
50 701 845
51 190 508
52 431 218
53 626 782
54 113 914
55 569 117
56 865 639
57 708 9
58 511 977
59 104 838
60 229 467
61 956 568
62 431 929
63 615 707
64 913 42
65 854 504
66 236 176
67 377 404
68 380 468
69 590 752
70 620 146
71 616 746
72 675 114
73 556 640
74 99 777
75 12 194
76 920 116
77 846 384
78 525 23
79 199 348
80 813 875
81 757 593
82 573 358
83 264 448
84 132 556
85 289 765
86 246 267
87 245 876
88 235 592
89 648 790
90 378 754
91 636 653
92 555 181
93 738 446
94 130 836
95 882 942
96 102 787
97 669 905
98 490 45
99 883 547
100 971 638
101 256 227
102 775 935
103 489 411
104 826 228
105 514 866
106 129 566
107 7 118
108 415 820
109 161 160
110 27 21
111 695 395
112 64 937
113 121 847
114 770 896
115 264 607
116 174 871
117 20 546
118 986 803
119 379 259
120 728 180
121 686 273
122 133 869
123 157 499
124 784 186
125 649 934
126 999 236
127 670 615
128 978 479
129 646 823
130 193 565
131 26 411
132 114 126
133 946 326
134 223 602
135 695 420
136 172 317
137 116 701
138 940 438
139 732 172
140 837 507
141 125 570
142 441 235
143 808 413
144 68 374
145 582 768
146 220 519
147 593 651
148 71 712
149 26 569
150 918 629
151 165 731
152 227 977
153 788 366
154 33 507
155 597 983
156 299 617
157 799 35
158 529 178
159 118 484
160 477 280
161 591 189
162 807 670
163 874 932
164 245 24
165 960 27
166 139 44
167 45 584
168 281 434
169 684 501
170 20 905
171 57 354
172 862 741
173 240 516
174 782 700
175 82 208
176 951 550
177 710 44
178 537 764
179 407 191
180 629 133
181 608 911
182 727 517
183 679 836
184 73 420
185 637 903
186 297 723
187 55 920
188 676 550
189 933 456
190 812 155
191 326 903
192 116 175
193 344 992
194 28 667
195 439 245
196 891 450
197 390 441
198 663 560
199 115 896
200 655 766
201 210 731
202 42 176
203 505 517
204 923 66
205 490 844
206 342 859
207 399 775
208 79 559
209 876 843
210 631 889
211 634 721
212 666 397
213 943 776
214 533 441
215 752 907
216 617 648
217 494 54
218 921 869
219 824 250
220 134 209
221 732 105
222 594 990
223 23 693
224 509 133
225 187 933
226 910 526
227 470 949
228 522 961
229 602 499
230 655 931
231 469 942
232 697 600
233 561 574
234 948 781
235 857 586
236 465 816
237 237 237
238 383 701
239 918 448
240 247 860
241 434 167
242 531 937
243 668 318
244 774 375
245 104 5
246 974 242
247 351 968
248 227 311
249 622 385
250 163 308
251 371 880
252 696 912
253 754 894
254 45 61
255 724 419
256 668 100
257 704 881
258 325 252
259 128 217
260 736 6
261 156 513
262 964 237
263 976 765
264 69 89
265 782 635
266 728 176
267 585 289
268 819 986
269 159 806
270 800 708
271 249 15
272 984 964
273 305 628
274 58 257
275 846 680
276 753 995
277 324 862
278 604 499
279 829 244
280 82 705
281 256 442
282 639 197
283 269 436
284 368 469
285 642 479
286 598 732
287 424 158
288 825 660
289 763 320
290 399 34
291 293 447
292 510 68
293 74 921
294 407 511
295 226 284
296 220 690
297 552 210
298 773 211
299 107 524
300 176 182
301 634 388
302 385 440
303 815 247
304 501 475
305 779 37
306 882 390
307 873 112
308 176 798
309 827 224
310 644 148
311 322 862
312 537 103
313 861 100
314 529 695
315 675 210
316 651 310
317 258 426
318 461 838
319 897 59
320 793 157
321 297 252
322 999 191
323 125 723
324 150 672
325 350 425
326 665 129
327 849 63
328 944 384
329 905 477
330 139 781
331 714 36
332 601 599
333 210 25
334 946 53
335 494 646
336 214 534
337 815 93
338 787 203
339 150 697
340 326 92
341 88 487
342 167 677
343 861 91
344 897 123
345 343 723
346 709 256
347 161 685
348 344 459
349 765 159
350 968 213
351 958 32
352 182 410
353 236 454
354 383 370
355 543 638
356 372 21
357 822 586
358 858 405
359 342 363
360 616 158
361 158 353
362 260 277
363 222 118
364 912 123
365 266 332
366 504 663
367 213 291
368 745 198
369 203 441
370 363 40
371 784 472
372 885 406
373 700 166
374 111 581
375 809 201
376 928 16
377 705 463
378 944 90
379 97 553
380 102 636
381 825 382
382 592 743
383 714 307
384 254 453
385 798 382
386 551 296
387 785 320
388 602 101
389 491 528
390 762 360
391 199 695
392 537 609
393 784 464
394 792 611
395 786 74
396 311 127
397 344 152
398 96 627
399 849 350
400 691 398
401 429 14
402 588 689
403 893 374
404 641 165
405 713 335
406 867 100
407 967 508
408 420 424
409 254 301
410 532 657
411 498 805
412 337 176
413 987 16
414 541 973
415 909 104
416 288 561
417 338 491
418 338 376
419 424 749
420 867 374
421 756 316
422 346 454
423 749 172
424 354 322
425 608 213
426 953 337
427 516 661
428 309 323
429 186 520
430 379 303
431 69 822
432 976 260
433 935 103
434 416 97
435 23 550
436 805 226
437 758 423
438 354 509
439 972 238
440 188 816
441 690 234
442 822 239
443 503 89
444 160 694
445 276 471
446 266 428
447 345 206
448 106 676
449 684 391
450 665 384
451 586 399
452 807 230
453 918 94
454 259 751
DEMAND_SECTION
2 59
3 87
4 98
5 73
6 70
7 64
8 98
9 87
10 99
11 78
12 68
13 99
14 53
15 56
16 66
17 67
18 74
19 86
20 75
21 71
22 87
23 87
24 66
25 71
26 75
27 62
28 78
29 83
30 63
31 95
32 52
33 57
34 58
35 65
36 86
37 85
38 58
39 84
40 92
41 50
42 72
43 76
44 79
45 58
46 100
47 94
48 86
49 70
50 80
51 75
52 86
53 95
54 94
55 79
56 97
57 56
58 88
59 72
60 58
61 64
62 51
63 84
64 71
65 95
66 68
67 75
68 95
69 95
70 63
71 63
72 65
73 88
74 84
75 68
76 67
77 98
78 72
79 61
80 73
81 84
82 65
83 87
84 94
85 90
86 50
87 87
88 96
89 51
90 84
91 93
92 68
93 71
94 74
95 84
96 70
97 52
98 77
99 98
100 77
101 99
102 100
103 62
104 96
105 69
106 74
107 88
108 85
109 59
110 86
111 69
112 53
113 79
114 70
115 53
116 51
117 50
118 70
119 66
120 88
121 76
122 52
123 57
124 57
125 100
126 95
127 51
128 76
129 51
COVERAGE_SECTION
2 6 144 184 171 131 361 15 
3 6 427 410 366 355 335 73 
4 7 181 155 125 185 222 210 230 
5 7 327 337 343 313 406 157 395 
6 7 58 228 414 227 231 242 222 
7 7 360 70 404 310 161 282 180 
8 5 448 380 324 137 398 
9 5 412 397 447 396 66 
10 7 39 264 47 254 29 132 48 
11 7 424 430 359 428 354 119 418 
12 7 131 154 184 341 117 2 435 
13 7 176 407 61 128 226 189 329 
14 7 354 67 408 197 302 359 418 
15 7 159 352 123 369 261 341 184 
16 7 93 377 393 437 371 255 182 
17 7 226 65 99 329 140 196 37 
18 5 415 344 453 76 364 
19 7 140 357 81 371 65 182 394 
20 7 357 394 235 265 288 56 162 
21 6 153 390 387 244 289 385 
22 6 417 438 348 422 284 68 
23 5 323 280 137 148 74 
24 4 370 340 290 356 
25 7 31 63 402 91 216 211 147 
26 7 362 409 321 86 428 365 258 
27 7 85 277 311 206 454 186 240 
28 7 145 178 69 411 382 53 286 
29 7 254 39 110 10 264 245 47 
30 7 121 316 441 243 315 346 425 
31 7 216 91 25 147 402 63 211 
32 7 225 152 54 199 112 293 116 
33 4 328 426 133 403 
34 7 391 444 151 347 339 342 201 
35 7 183 50 257 129 97 210 185 
36 3 194 223 167 
37 7 196 358 329 372 239 65 306 
38 7 218 272 95 163 209 118 234 
39 7 10 264 254 29 47 132 48 
40 7 78 98 217 292 443 401 312 
41 7 229 278 214 285 203 304 233 
42 7 275 270 162 288 172 174 43 
43 7 275 56 42 288 150 172 162 
44 6 363 333 164 166 271 109 
45 6 392 233 355 73 3 410 
46 7 293 187 112 170 199 54 59 
47 7 132 48 10 264 39 192 254 
48 7 132 47 192 109 10 264 39 
49 7 52 142 195 179 119 241 160 
50 7 183 35 257 129 252 97 253 
51 7 429 146 123 261 336 173 60 
52 7 49 142 195 179 241 287 119 
53 7 89 200 71 129 145 69 382 
54 7 199 293 122 46 112 187 113 
55 7 312 388 70 180 224 360 92 
56 7 43 275 288 20 150 235 162 
57 7 260 331 177 305 157 221 256 
58 7 6 228 414 242 227 231 222 
59 7 113 94 431 122 96 199 74 
60 7 353 384 281 369 83 445 173 
61 7 176 13 407 226 100 150 99 
62 7 231 227 251 247 6 58 228 
63 7 25 211 286 402 71 382 31 
64 4 319 204 376 334 
65 7 140 17 99 37 329 226 196 
66 7 101 300 363 237 9 109 396 
67 7 14 325 354 302 197 408 418 
68 7 284 302 197 348 422 417 22 
69 7 382 145 286 71 53 63 28 
70 7 360 180 7 310 404 326 388 
71 7 286 382 69 211 53 63 145 
72 7 256 326 310 180 221 373 404 
73 7 355 410 392 3 147 427 45 
74 6 96 330 23 431 323 59 
75 6 202 175 107 274 192 259 
76 6 364 415 18 433 453 344 
77 5 381 420 358 399 306 
78 7 40 98 217 292 443 312 401 
79 6 136 361 248 250 367 352 
80 7 114 253 215 102 209 163 95 
81 7 394 265 232 19 357 20 182 
82 7 451 249 386 301 267 214 316 
83 7 281 384 283 446 168 317 445 
84 7 106 141 374 379 299 261 208 
85 3 454 186 27 
86 7 362 295 237 409 26 101 367 
87 7 240 116 311 277 225 440 191 
88 5 134 115 130 416 336 
89 7 53 200 129 71 183 69 145 
90 4 207 419 345 238 
91 7 31 216 25 147 127 63 402 
92 7 158 297 161 425 7 360 55 
93 7 16 255 437 377 393 135 371 
94 7 113 59 122 269 96 116 330 
95 7 163 38 268 218 80 209 272 
96 6 74 330 431 23 59 94 
97 7 252 230 185 125 210 257 35 
98 7 217 292 78 443 40 401 312 
99 7 226 17 235 65 140 176 357 
100 7 150 61 176 43 13 56 235 
101 7 237 86 321 362 66 26 295 
102 7 215 114 253 276 268 80 252 
103 7 214 304 408 14 451 82 197 
104 7 309 442 279 452 436 219 303 
105 7 205 318 411 236 242 28 231 
106 7 141 84 374 379 299 208 261 
107 7 202 264 254 75 39 10 29 
108 7 207 318 236 419 251 90 205 
109 7 300 192 48 220 132 259 363 
110 7 29 254 39 245 10 264 107 
111 7 400 449 135 212 450 255 301 
112 7 187 293 46 54 170 199 122 
113 7 94 59 122 199 269 116 431 
114 7 253 215 102 80 257 252 50 
115 5 88 156 134 273 416 
116 7 122 94 440 113 225 199 269 
117 7 435 149 154 167 208 379 299 
118 7 263 234 213 218 209 38 172 
119 7 430 258 49 11 195 447 52 
120 6 266 139 423 368 373 349 
121 7 346 30 441 383 243 316 315 
122 7 113 199 94 116 59 54 269 
123 7 261 51 429 159 299 15 84 
124 6 338 298 375 320 349 423 
125 7 230 185 97 181 210 4 252 
126 6 246 439 432 262 350 322 
127 7 232 91 198 216 188 31 332 
128 7 407 189 138 13 239 329 176 
129 7 89 183 35 53 200 50 210 
130 7 336 429 134 88 146 51 84 
131 7 12 184 144 2 171 154 341 
132 7 48 47 192 10 109 264 39 
133 2 426 33 
134 3 88 115 130 
135 7 400 111 255 449 212 377 450 
136 4 250 361 79 367 
137 5 323 448 280 339 23 
138 6 189 239 196 329 328 128 
139 6 266 120 423 368 373 349 
140 7 65 17 19 99 371 37 393 
141 6 106 84 374 379 208 299 
142 7 195 49 52 179 160 119 241 
143 7 385 381 77 153 244 358 437 
144 6 2 171 184 131 361 12 
145 7 69 382 28 286 71 178 53 
146 7 336 173 51 429 60 130 261 
147 7 216 31 402 73 25 91 355 
148 3 280 23 137 
149 7 435 117 167 208 154 379 36 
150 7 56 100 43 61 235 176 275 
151 2 34 339 
152 7 225 32 87 193 116 240 191 
153 6 244 385 21 390 381 387 
154 7 117 435 12 341 149 208 299 
155 7 222 4 414 125 181 228 230 
156 3 273 115 416 
157 7 305 395 5 327 337 260 343 
158 6 92 297 224 161 55 312 
159 7 341 299 123 261 15 379 84 
160 7 195 142 49 386 52 119 430 
161 7 425 7 92 360 297 282 70 
162 7 288 42 174 270 275 265 394 
163 7 95 38 268 218 80 209 102 
164 3 271 333 44 
165 5 351 413 334 376 64 
166 7 245 44 10 333 39 47 264 
167 7 149 435 208 117 379 374 398 
168 5 283 446 291 83 317 
169 6 377 182 285 188 198 16 
170 7 187 46 112 293 54 199 431 
171 5 144 2 131 184 274 
172 7 42 275 43 270 213 288 162 
173 7 146 336 60 51 429 445 353 
174 7 270 162 42 288 265 275 172 
175 6 192 259 202 220 274 75 
176 7 61 13 407 226 99 17 128 
177 7 331 57 260 221 305 256 72 
178 4 28 145 69 411 
179 7 52 241 287 49 142 195 447 
180 7 70 310 360 404 326 7 388 
181 7 4 185 210 125 230 97 155 
182 6 169 16 377 188 19 93 
183 7 35 50 129 257 89 97 210 
184 7 2 144 131 171 341 12 15 
185 7 210 181 97 125 230 4 35 
186 1 85 
187 7 112 293 46 170 54 199 122 
188 6 198 169 232 182 127 285 
189 6 239 138 329 196 128 407 
190 2 320 124 
191 7 277 311 206 251 247 87 240 
192 7 220 48 259 109 175 132 300 
193 7 247 191 62 251 152 277 311 
194 2 223 36 
195 7 142 49 52 160 119 179 241 
196 6 37 239 329 189 372 138 
197 7 302 68 408 284 67 325 422 
198 6 188 232 127 169 332 182 
199 7 54 122 46 293 113 59 94 
200 7 89 53 71 211 129 69 286 
201 3 34 391 296 
202 7 75 175 107 192 274 47 132 
203 4 389 304 41 233 
204 2 64 334 
205 7 318 105 236 411 108 28 178 
206 7 277 311 251 191 27 108 240 
207 6 90 419 108 238 345 236 
208 7 379 374 167 299 141 106 84 
209 7 218 80 163 213 234 95 38 
210 7 185 181 97 125 230 35 4 
211 7 63 71 286 25 382 200 69 
212 7 450 449 400 111 301 135 249 
213 7 234 263 118 172 209 218 43 
214 7 304 103 41 451 203 229 82 
215 7 253 114 102 257 252 80 50 
216 7 31 91 147 25 402 332 63 
217 6 98 292 443 78 40 312 
218 7 38 209 163 95 234 118 213 
219 4 279 303 442 104 
220 5 259 192 300 175 109 
221 6 72 395 349 256 177 139 
222 7 155 4 414 125 228 181 242 
223 3 194 36 148 
224 6 312 443 158 55 292 92 
225 7 152 116 32 54 87 199 122 
226 7 17 99 176 329 65 407 61 
227 7 231 62 6 58 228 242 414 
228 7 58 414 242 6 227 231 155 
229 6 278 41 285 169 233 198 
230 7 125 97 185 252 210 181 4 
231 7 227 62 58 6 228 242 414 
232 6 127 198 188 81 91 182 
233 7 45 392 332 73 355 203 41 
234 7 213 263 118 218 172 209 43 
235 7 357 20 99 56 394 150 19 
236 7 318 411 205 108 105 207 419 
237 7 101 86 362 295 367 66 321 
238 2 345 90 
239 6 189 138 196 329 37 372 
240 7 87 116 440 311 277 27 191 
241 6 287 179 52 49 142 434 
242 7 228 414 58 6 227 231 4 
243 7 316 383 121 405 30 450 346 
244 7 153 390 385 21 143 381 437 
245 7 166 29 110 254 10 39 264 
246 5 439 262 432 126 350 
247 7 193 191 62 251 206 277 311 
248 7 367 295 409 365 79 362 86 
249 7 301 451 450 212 82 449 400 
250 4 136 361 367 79 
251 7 206 277 191 311 108 62 247 
252 7 97 257 230 125 215 185 35 
253 7 215 114 102 257 252 80 50 
254 7 29 39 264 10 110 107 47 
255 7 135 93 437 111 400 16 377 
256 7 72 326 180 310 221 70 388 
257 7 252 50 35 97 183 253 215 
258 7 321 447 119 26 362 101 428 
259 5 220 192 175 300 109 
260 7 57 331 177 305 157 395 221 
261 7 123 429 51 159 84 299 106 
262 5 439 246 350 432 126 
263 7 234 213 118 172 218 100 209 
264 7 39 10 254 47 29 132 48 
265 7 394 162 20 81 288 357 174 
266 6 120 139 423 368 373 349 
267 7 386 316 82 30 425 297 243 
268 7 102 276 95 163 114 215 80 
269 5 308 440 330 94 113 
270 7 174 42 162 275 288 172 265 
271 3 164 333 44 
272 7 38 95 218 163 118 209 268 
273 2 156 115 
274 4 175 75 259 202 
275 7 42 288 43 162 56 270 172 
276 7 102 268 215 114 252 253 230 
277 7 311 206 191 251 27 240 87 
278 6 229 41 285 169 198 233 
279 4 219 442 303 104 
280 4 148 137 23 448 
281 7 83 384 283 317 446 353 168 
282 7 404 7 425 315 360 161 310 
283 6 446 168 83 281 317 384 
284 7 68 348 422 302 197 417 22 
285 6 278 229 169 377 41 135 
286 7 382 69 71 63 211 145 402 
287 6 241 179 52 434 49 142 
288 7 162 275 42 56 265 20 270 
289 4 421 387 21 390 
290 5 356 370 401 24 434 
291 6 168 283 83 445 446 281 
292 6 217 443 98 312 78 40 
293 7 112 187 46 54 199 170 122 
294 3 68 438 284 
295 6 367 86 248 409 362 237 
296 3 391 34 201 
297 7 92 158 161 425 7 360 267 
298 3 338 124 368 
299 7 379 84 159 341 208 106 141 
300 6 109 220 259 66 192 48 
301 7 249 450 212 451 449 400 111 
302 7 197 68 284 67 325 408 422 
303 5 219 442 279 452 104 
304 5 203 214 389 103 41 
305 7 157 395 260 5 331 337 177 
306 5 372 403 420 358 77 
307 6 406 313 343 344 18 415 
308 4 269 440 330 94 
309 6 104 442 279 452 436 219 
310 7 404 180 70 326 360 7 72 
311 7 277 206 191 251 27 240 87 
312 6 55 443 224 292 217 388 
313 5 406 343 307 327 5 
314 4 427 410 366 3 
315 7 441 282 373 404 346 30 120 
316 7 243 30 121 383 405 267 450 
317 6 446 283 281 83 168 384 
318 7 236 205 108 411 105 207 62 
319 3 64 204 453 
320 4 190 349 124 338 
321 7 258 26 362 101 86 237 409 
322 4 350 126 439 246 
323 4 137 23 339 151 
324 5 347 342 444 339 8 
325 6 422 67 348 302 197 284 
326 7 72 310 256 180 404 70 373 
327 6 5 343 313 406 337 319 
328 6 33 426 403 138 133 306 
329 7 196 239 189 17 37 226 138 
330 4 269 96 74 308 
331 7 177 57 260 305 221 256 395 
332 7 233 216 147 73 91 31 45 
333 5 164 271 44 166 363 
334 5 351 204 165 64 378 
335 3 366 427 3 
336 7 146 429 173 51 130 88 261 
337 5 5 395 327 343 313 
338 4 298 124 375 436 
339 5 444 347 324 342 34 
340 2 396 24 
341 7 159 299 154 379 184 123 15 
342 5 347 324 444 339 34 
343 5 313 406 307 327 5 
344 6 364 18 415 76 307 453 
345 3 186 238 90 
346 3 121 441 383 
347 5 444 342 339 324 34 
348 7 422 284 22 417 325 68 302 
349 6 423 320 124 139 266 120 
350 5 262 439 246 322 126 
351 5 165 334 413 376 64 
352 7 369 15 361 79 353 60 317 
353 7 60 384 281 83 369 317 283 
354 7 14 67 359 418 11 424 325 
355 7 73 410 3 392 427 45 366 
356 3 370 290 24 
357 7 20 235 394 19 265 81 56 
358 7 77 372 306 420 381 37 403 
359 4 418 354 424 11 
360 7 7 70 404 180 310 161 282 
361 4 136 79 250 352 
362 7 86 26 409 295 321 237 248 
363 5 44 66 109 300 396 
364 6 76 344 18 415 433 453 
365 5 409 248 428 26 362 
366 4 427 3 335 410 
367 5 295 248 86 409 136 
368 5 120 423 266 139 298 
369 7 353 60 352 384 281 317 15 
370 3 356 24 290 
371 7 393 16 93 437 140 143 19 
372 6 306 358 403 420 196 77 
373 7 266 120 139 423 315 326 368 
374 7 141 106 379 84 208 398 380 
375 5 338 436 124 309 452 
376 6 64 165 351 334 204 319 
377 7 16 93 169 135 255 182 285 
378 4 433 453 204 76 
379 7 208 299 374 141 84 106 167 
380 5 398 8 448 374 324 
381 7 77 385 143 153 358 399 420 
382 7 69 286 71 145 63 211 53 
383 6 405 421 121 243 289 346 
384 7 83 281 353 283 317 445 446 
385 7 153 244 381 143 21 390 77 
386 7 267 82 160 297 316 425 30 
387 3 289 21 421 
388 7 55 180 70 360 310 312 256 
389 3 203 304 45 
390 7 244 21 153 289 385 421 387 
391 6 34 296 342 201 347 444 
392 7 45 355 73 233 3 410 427 
393 7 371 16 93 437 143 140 255 
394 7 265 20 81 357 288 162 235 
395 6 337 305 157 5 221 327 
396 4 340 397 9 412 
397 5 412 9 396 447 340 
398 5 380 8 374 448 141 
399 2 420 77 
400 7 111 449 135 212 450 255 301 
401 7 290 356 98 370 217 24 434 
402 6 25 63 147 31 286 216 
403 5 306 420 372 358 77 
404 7 310 7 360 70 282 180 326 
405 6 383 421 243 289 390 111 
406 6 313 343 307 18 344 327 
407 7 128 13 176 226 61 189 329 
408 7 197 302 14 67 68 354 284 
409 7 362 248 26 295 365 86 367 
410 7 3 427 355 73 366 314 335 
411 7 236 205 318 178 28 105 108 
412 6 9 397 447 396 179 258 
413 5 165 351 334 376 64 
414 7 228 58 242 6 222 155 4 
415 5 18 453 76 364 344 
416 3 115 156 88 
417 6 22 438 348 284 422 68 
418 3 359 354 67 
419 2 207 90 
420 5 306 77 403 399 358 
421 5 289 387 21 383 390 
422 7 348 284 325 22 68 417 302 
423 7 139 266 349 120 368 124 298 
424 6 11 430 359 428 354 418 
425 7 161 282 7 297 360 404 92 
426 3 133 33 328 
427 6 3 366 410 335 355 314 
428 6 365 424 26 359 11 409 
429 7 51 261 336 146 123 130 173 
430 7 11 424 119 354 359 428 258 
431 7 59 96 74 113 94 46 122 
432 4 246 439 262 126 
433 5 378 453 76 415 364 
434 6 24 287 290 241 370 401 
435 7 117 149 167 154 208 379 299 
436 5 452 104 442 309 303 
437 7 93 255 16 393 143 244 371 
438 5 417 22 284 68 348 
439 5 246 262 432 350 126 
440 5 308 269 116 330 94 
441 5 315 346 121 30 282 
442 6 279 219 303 104 309 452 
443 6 292 217 312 224 98 78 
444 5 347 339 342 324 34 
445 7 83 384 291 281 283 168 353 
446 5 317 283 168 281 83 
447 7 412 9 258 397 119 179 321 
448 5 8 137 280 380 324 
449 7 400 111 212 450 135 255 301 
450 7 212 449 400 301 111 249 135 
451 7 249 82 301 214 212 450 41 
452 5 436 442 104 303 309 
453 4 415 18 433 76 
454 2 85 186 
DEPOT_SECTION
   1
   -1
EOF
