NAME :  X-n641-kX-w256-c9.cctp
COMMENT : 	Adapted by Maziero, Usberti and Cavellucci from the Uchoa, Pecin, Pessoa, Poggi, Subramanian, and Vidal (2013)
TYPE :  CCTP
DIMENSION :    602
EDGE_WEIGHT_TYPE : 	EUC_2D	
CAPACITY : 	1381
VERTICES_WITHIN_COVERAGE :  9
VERTICES_WITH_DEMAND : 	256
NODE_COORD_SECTION
1 0 0
2 80 386
3 521 652
4 597 936
5 836 69
6 503 987
7 618 169
8 115 662
9 312 175
10 78 83
11 364 317
12 12 454
13 980 537
14 403 383
15 144 443
16 739 464
17 886 511
18 904 106
19 794 539
20 821 608
21 781 347
22 336 490
23 101 736
24 365 68
25 618 684
26 282 286
27 311 806
28 557 793
29 54 50
30 651 264
31 619 661
32 156 994
33 950 369
34 183 707
35 673 856
36 5 651
37 867 449
38 946 914
39 75 82
40 522 8
41 573 493
42 833 699
43 881 677
44 201 77
45 536 593
46 67 895
47 99 113
48 120 133
49 428 231
50 701 845
51 190 508
52 431 218
53 626 782
54 113 914
55 569 117
56 865 639
57 708 9
58 511 977
59 104 838
60 229 467
61 956 568
62 431 929
63 615 707
64 913 42
65 854 504
66 236 176
67 377 404
68 380 468
69 590 752
70 620 146
71 616 746
72 675 114
73 556 640
74 99 777
75 12 194
76 920 116
77 846 384
78 525 23
79 199 348
80 813 875
81 757 593
82 573 358
83 264 448
84 132 556
85 289 765
86 246 267
87 245 876
88 235 592
89 648 790
90 378 754
91 636 653
92 555 181
93 738 446
94 130 836
95 882 942
96 102 787
97 669 905
98 490 45
99 883 547
100 971 638
101 256 227
102 775 935
103 489 411
104 826 228
105 514 866
106 129 566
107 7 118
108 415 820
109 161 160
110 27 21
111 695 395
112 64 937
113 121 847
114 770 896
115 264 607
116 174 871
117 20 546
118 986 803
119 379 259
120 728 180
121 686 273
122 133 869
123 157 499
124 784 186
125 649 934
126 999 236
127 670 615
128 978 479
129 646 823
130 193 565
131 440 534
132 26 411
133 114 126
134 661 528
135 946 326
136 223 602
137 695 420
138 172 317
139 116 701
140 940 438
141 732 172
142 824 136
143 837 507
144 125 570
145 773 241
146 542 708
147 441 235
148 808 413
149 68 374
150 582 768
151 220 519
152 593 651
153 71 712
154 26 569
155 918 629
156 165 731
157 941 282
158 285 379
159 227 977
160 788 366
161 33 507
162 597 983
163 299 617
164 799 35
165 414 697
166 529 178
167 235 743
168 118 484
169 349 554
170 477 280
171 591 189
172 743 221
173 807 670
174 163 621
175 874 932
176 245 24
177 960 27
178 139 44
179 45 584
180 281 434
181 684 501
182 284 414
183 20 905
184 80 256
185 57 354
186 306 107
187 167 289
188 952 66
189 862 741
190 240 516
191 806 277
192 782 700
193 82 208
194 951 550
195 710 44
196 537 764
197 407 191
198 629 133
199 608 911
200 760 125
201 727 517
202 295 706
203 679 836
204 73 420
205 637 903
206 297 723
207 55 920
208 676 550
209 933 456
210 812 155
211 326 903
212 846 181
213 116 175
214 344 992
215 28 667
216 439 245
217 891 450
218 224 732
219 156 734
220 390 441
221 663 560
222 115 896
223 655 766
224 210 731
225 42 176
226 505 517
227 923 66
228 490 844
229 342 859
230 210 644
231 313 79
232 399 775
233 79 559
234 876 843
235 631 889
236 182 284
237 471 120
238 475 693
239 634 721
240 666 397
241 943 776
242 810 290
243 533 441
244 752 907
245 617 648
246 9 749
247 494 54
248 921 869
249 824 250
250 30 694
251 134 209
252 732 105
253 594 990
254 159 769
255 23 693
256 323 707
257 163 660
258 509 133
259 187 933
260 910 526
261 470 949
262 522 961
263 602 499
264 285 683
265 655 931
266 469 942
267 697 600
268 320 62
269 561 574
270 948 781
271 857 586
272 465 816
273 237 237
274 383 701
275 918 448
276 247 860
277 434 167
278 531 937
279 668 318
280 774 375
281 104 5
282 974 242
283 351 968
284 227 311
285 905 279
286 622 385
287 163 308
288 371 880
289 696 912
290 213 649
291 754 894
292 45 61
293 40 711
294 724 419
295 668 100
296 704 881
297 325 252
298 128 217
299 736 6
300 156 513
301 964 237
302 976 765
303 324 55
304 69 89
305 782 635
306 728 176
307 585 289
308 819 986
309 159 806
310 800 708
311 249 15
312 984 964
313 305 628
314 58 257
315 126 305
316 846 680
317 753 995
318 324 862
319 604 499
320 146 700
321 302 396
322 341 10
323 928 90
324 798 276
325 476 660
326 829 244
327 82 705
328 256 442
329 991 305
330 822 278
331 422 596
332 639 197
333 269 436
334 865 183
335 368 469
336 311 688
337 642 479
338 598 732
339 424 158
340 825 660
341 763 320
342 322 598
343 399 34
344 293 447
345 909 324
346 52 693
347 510 68
348 74 921
349 407 511
350 226 284
351 779 228
352 220 690
353 552 210
354 773 211
355 107 524
356 838 205
357 434 690
358 337 6
359 176 182
360 634 388
361 385 440
362 821 317
363 396 558
364 815 247
365 501 475
366 779 37
367 334 614
368 882 390
369 993 28
370 843 194
371 436 695
372 873 112
373 176 798
374 533 719
375 827 224
376 644 148
377 322 862
378 404 634
379 315 24
380 537 103
381 861 100
382 529 695
383 299 21
384 675 210
385 651 310
386 156 759
387 258 426
388 461 838
389 447 704
390 897 59
391 793 157
392 322 547
393 135 711
394 297 252
395 999 191
396 969 151
397 125 723
398 150 672
399 795 214
400 762 246
401 350 425
402 665 129
403 849 63
404 764 250
405 944 384
406 905 477
407 139 781
408 831 152
409 714 36
410 601 599
411 210 25
412 946 53
413 494 646
414 214 534
415 815 93
416 787 203
417 78 693
418 274 414
419 835 254
420 790 285
421 150 697
422 326 92
423 861 177
424 88 487
425 167 677
426 861 91
427 897 123
428 316 406
429 343 723
430 925 281
431 709 256
432 161 685
433 344 459
434 765 159
435 825 305
436 357 567
437 925 425
438 274 687
439 835 260
440 968 213
441 958 32
442 182 410
443 58 665
444 236 454
445 383 370
446 543 638
447 865 349
448 372 21
449 285 385
450 822 586
451 858 405
452 283 74
453 342 363
454 616 158
455 486 681
456 158 353
457 297 721
458 260 277
459 222 118
460 950 162
461 912 123
462 266 332
463 995 300
464 504 663
465 213 291
466 311 101
467 839 250
468 745 198
469 203 441
470 363 40
471 784 472
472 885 406
473 852 185
474 700 166
475 951 282
476 111 581
477 812 307
478 342 570
479 487 673
480 809 201
481 928 16
482 705 463
483 944 90
484 760 297
485 97 553
486 835 126
487 102 636
488 825 382
489 853 193
490 592 743
491 436 714
492 714 307
493 187 755
494 254 453
495 902 75
496 798 382
497 551 296
498 434 531
499 785 320
500 602 101
501 265 711
502 491 528
503 762 360
504 199 695
505 537 609
506 853 163
507 784 464
508 411 680
509 302 386
510 476 651
511 792 611
512 786 74
513 311 127
514 344 152
515 396 677
516 870 351
517 96 627
518 308 365
519 849 350
520 162 623
521 927 85
522 691 398
523 429 14
524 588 689
525 893 374
526 641 165
527 713 335
528 867 100
529 851 184
530 268 664
531 927 256
532 967 508
533 420 424
534 254 301
535 532 657
536 498 805
537 337 176
538 473 672
539 987 16
540 541 973
541 904 81
542 909 104
543 288 561
544 338 491
545 338 376
546 424 749
547 867 374
548 756 316
549 346 454
550 749 172
551 143 251
552 354 322
553 848 346
554 608 213
555 814 327
556 851 125
557 953 337
558 516 661
559 309 323
560 186 520
561 328 22
562 379 303
563 69 822
564 976 260
565 923 303
566 935 103
567 942 295
568 416 97
569 796 236
570 410 550
571 23 550
572 351 602
573 805 226
574 186 633
575 758 423
576 354 509
577 835 303
578 972 238
579 188 816
580 749 230
581 690 234
582 903 72
583 822 239
584 503 89
585 479 604
586 913 323
587 160 694
588 276 471
589 826 274
590 266 428
591 526 710
592 345 206
593 106 676
594 684 391
595 665 384
596 225 747
597 795 250
598 586 399
599 807 230
600 918 94
601 259 751
602 476 548
DEMAND_SECTION
2 59
3 87
4 98
5 73
6 70
7 64
8 98
9 87
10 99
11 78
12 68
13 99
14 53
15 56
16 66
17 67
18 74
19 86
20 75
21 71
22 87
23 87
24 66
25 71
26 75
27 62
28 78
29 83
30 63
31 95
32 52
33 57
34 58
35 65
36 86
37 85
38 58
39 84
40 92
41 50
42 72
43 76
44 79
45 58
46 100
47 94
48 86
49 70
50 80
51 75
52 86
53 95
54 94
55 79
56 97
57 56
58 88
59 72
60 58
61 64
62 51
63 84
64 71
65 95
66 68
67 75
68 95
69 95
70 63
71 63
72 65
73 88
74 84
75 68
76 67
77 98
78 72
79 61
80 73
81 84
82 65
83 87
84 94
85 90
86 50
87 87
88 96
89 51
90 84
91 93
92 68
93 71
94 74
95 84
96 70
97 52
98 77
99 98
100 77
101 99
102 100
103 62
104 96
105 69
106 74
107 88
108 85
109 59
110 86
111 69
112 53
113 79
114 70
115 53
116 51
117 50
118 70
119 66
120 88
121 76
122 52
123 57
124 57
125 100
126 95
127 51
128 76
129 51
130 75
131 66
132 84
133 91
134 81
135 88
136 57
137 66
138 82
139 68
140 85
141 91
142 54
143 75
144 54
145 75
146 84
147 57
148 58
149 74
150 67
151 77
152 51
153 50
154 84
155 100
156 79
157 96
158 78
159 97
160 66
161 62
162 50
163 63
164 67
165 68
166 72
167 98
168 79
169 100
170 96
171 92
172 66
173 87
174 92
175 86
176 52
177 93
178 95
179 81
180 67
181 54
182 55
183 76
184 62
185 96
186 65
187 50
188 84
189 53
190 87
191 75
192 66
193 55
194 94
195 72
196 78
197 75
198 87
199 50
200 86
201 87
202 55
203 92
204 82
205 93
206 62
207 59
208 74
209 52
210 92
211 58
212 80
213 87
214 100
215 71
216 97
217 82
218 88
219 95
220 74
221 68
222 85
223 95
224 53
225 100
226 93
227 75
228 67
229 56
230 89
231 52
232 54
233 51
234 100
235 50
236 84
237 53
238 81
239 53
240 96
241 75
242 64
243 71
244 97
245 66
246 62
247 70
248 82
249 79
250 89
251 63
252 50
253 86
254 89
255 65
256 53
257 67
COVERAGE_SECTION
2 9 149 204 185 132 456 15 315 12 424 
3 9 558 535 464 446 413 73 479 382 455 
4 9 199 162 125 205 253 235 265 278 540 
5 9 403 415 426 381 528 164 512 372 486 
6 9 58 262 540 261 266 278 253 62 162 
7 9 454 70 526 376 171 332 198 554 402 
8 9 593 487 398 139 517 257 417 320 421 
9 9 537 514 592 513 186 466 66 101 297 
10 9 39 304 47 292 29 133 48 178 107 
11 9 552 562 453 559 445 119 545 518 297 
12 9 132 161 204 424 117 2 571 149 168 
13 9 194 532 61 128 260 209 406 17 99 
14 9 445 67 533 220 361 453 545 401 11 
15 9 168 442 123 469 300 424 204 51 2 
16 9 93 482 507 575 471 294 201 137 181 
17 9 260 65 99 406 143 217 37 275 209 
18 9 542 427 600 76 461 541 323 495 521 
19 9 143 450 81 471 65 201 511 20 507 
20 9 450 511 271 305 340 56 173 81 19 
21 8 160 503 499 280 341 496 555 548 
22 9 544 576 433 549 335 68 392 344 588 
23 9 397 327 139 153 74 393 417 96 219 
24 9 470 303 268 422 343 448 231 561 568 
25 9 31 63 524 91 245 239 152 338 71 
26 9 458 534 394 86 559 462 297 350 284 
27 9 85 318 377 229 601 206 276 90 457 
28 9 150 196 69 536 490 53 338 71 374 
29 9 292 39 110 10 304 281 47 107 178 
30 9 121 385 581 279 384 431 554 332 307 
31 9 245 91 25 152 524 63 239 410 73 
32 9 259 159 54 222 112 348 116 207 122 
33 9 405 557 135 525 586 345 437 140 368 
34 9 504 587 156 432 421 425 224 219 320 
35 9 203 50 296 129 97 235 205 289 89 
36 9 215 255 250 443 346 293 179 417 154 
37 9 217 451 406 472 275 65 368 437 17 
38 9 248 312 95 175 234 118 270 241 80 
39 9 10 304 292 29 47 133 48 178 107 
40 9 78 98 247 347 584 523 380 55 237 
41 9 263 319 243 337 226 365 269 502 134 
42 9 316 310 173 340 189 192 43 56 305 
43 9 316 56 42 340 155 189 173 310 20 
44 9 459 411 176 178 311 452 109 48 133 
45 9 505 269 446 73 585 3 535 410 413 
46 9 348 207 112 183 222 54 59 122 113 
47 9 133 48 10 304 39 213 292 29 109 
48 9 133 47 213 109 10 304 39 359 251 
49 9 52 147 216 197 119 277 170 339 562 
50 9 203 35 296 129 289 97 291 89 244 
51 9 560 151 123 300 414 190 60 130 469 
52 9 49 147 216 197 277 339 119 170 592 
53 9 89 223 71 129 150 69 490 338 239 
54 9 222 348 122 46 112 207 113 116 259 
55 9 380 500 70 198 258 454 92 7 584 
56 9 43 316 340 20 155 271 173 42 450 
57 9 299 409 195 366 164 252 295 512 72 
58 9 6 262 540 278 261 266 253 162 62 
59 9 113 94 563 122 96 222 74 309 407 
60 9 444 494 328 469 83 588 190 387 333 
61 9 194 13 532 260 100 155 99 17 128 
62 9 266 261 288 283 6 58 262 388 278 
63 9 25 239 338 524 71 490 31 69 91 
64 9 390 227 481 582 412 495 541 521 188 
65 9 143 17 99 37 406 260 217 19 471 
66 9 101 359 459 273 9 109 513 86 394 
67 9 14 401 445 361 220 533 545 453 549 
68 9 335 361 220 433 549 544 22 576 349 
69 9 490 150 338 71 53 63 28 196 239 
70 9 454 198 7 376 526 402 500 171 332 
71 9 338 490 69 239 53 63 150 223 89 
72 9 295 402 376 198 252 474 526 70 454 
73 9 446 535 505 3 152 558 45 464 524 
74 9 96 407 23 563 386 397 59 254 94 
75 9 225 193 107 314 184 213 298 47 304 
76 9 461 542 18 566 600 427 323 521 483 
77 9 488 547 451 519 368 553 447 516 472 
78 9 40 98 247 347 584 380 523 55 500 
79 9 138 456 284 287 465 442 236 187 350 
80 9 114 291 244 102 234 175 95 248 296 
81 9 511 305 267 19 450 20 201 127 173 
82 9 598 286 497 360 307 243 385 595 103 
83 9 328 494 333 590 180 387 588 344 444 
84 9 106 144 476 485 355 300 233 123 130 
85 9 601 206 457 27 167 202 501 596 256 
86 9 458 350 273 534 26 101 465 284 394 
87 9 276 116 377 318 259 579 211 27 229 
88 9 136 115 130 230 290 543 414 574 163 
89 9 53 223 129 71 203 69 150 239 35 
90 9 232 546 429 274 165 491 256 108 515 
91 9 31 245 25 152 127 63 524 410 239 
92 9 166 353 171 554 7 454 55 258 70 
93 9 16 294 575 482 507 137 471 111 522 
94 9 113 59 122 309 96 116 407 373 579 
95 9 175 38 308 248 80 234 312 102 114 
96 9 74 407 563 23 59 94 254 309 386 
97 9 289 265 205 125 235 296 35 199 50 
98 9 247 347 78 584 40 523 380 237 258 
99 9 260 17 271 65 143 194 450 406 61 
100 9 155 61 194 43 13 56 271 99 302 
101 9 273 86 394 458 66 26 350 297 534 
102 9 244 114 291 317 308 80 289 296 175 
103 9 243 365 533 14 598 82 220 226 361 
104 9 375 583 326 599 573 249 364 356 467 
105 9 228 388 536 272 278 28 266 261 262 
106 9 144 84 476 485 355 233 300 130 174 
107 9 225 304 292 75 39 10 29 47 110 
108 9 232 388 272 546 288 90 228 229 536 
109 9 359 213 48 251 133 298 459 66 47 
110 9 29 292 39 281 10 304 107 178 47 
111 9 522 594 137 240 595 294 360 527 93 
112 9 207 348 46 54 183 222 122 59 113 
113 9 94 59 122 222 309 116 563 96 54 
114 9 291 244 102 80 296 289 50 317 97 
115 9 88 163 136 313 543 530 342 230 290 
116 9 122 94 579 113 259 222 309 87 373 
117 9 571 154 161 179 233 485 355 424 12 
118 9 302 270 241 248 234 38 189 312 43 
119 9 562 297 49 11 216 592 52 147 552 
120 9 306 141 550 468 474 434 172 580 354 
121 9 431 30 581 492 279 385 384 527 580 
122 9 113 222 94 116 59 54 309 46 579 
123 9 300 51 560 168 355 15 84 151 414 
124 9 416 354 480 391 399 434 550 468 210 
125 9 265 205 97 199 235 4 289 162 296 
126 8 282 578 564 301 440 395 463 475 
127 9 267 91 221 245 208 31 410 152 25 
128 9 532 209 140 13 275 406 194 437 260 
129 9 89 203 35 53 223 50 235 205 296 
130 9 414 560 136 88 151 51 84 106 174 
131 8 498 570 602 349 363 502 331 226 
132 9 12 204 149 2 185 161 424 168 15 
133 9 48 47 213 10 109 304 39 359 251 
134 9 208 221 181 337 319 263 201 482 267 
135 9 557 567 565 586 345 33 157 475 329 
136 9 88 115 230 130 290 574 174 520 414 
137 9 522 111 294 594 240 482 595 93 16 
138 9 287 187 236 456 79 315 465 284 350 
139 9 393 397 593 320 327 421 23 8 417 
140 9 209 437 275 217 406 405 128 472 33 
141 9 306 120 550 468 474 434 172 124 200 
142 9 486 408 210 556 391 506 415 212 381 
143 9 65 17 19 99 471 37 507 406 260 
144 9 106 84 476 485 233 355 174 517 300 
145 9 400 404 351 569 597 580 354 399 573 
146 9 374 591 382 524 535 558 196 464 3 
147 9 216 49 52 197 170 119 277 339 562 
148 9 496 488 77 160 280 451 575 507 471 
149 9 2 185 204 132 315 456 12 15 424 
150 9 69 490 28 338 71 196 53 63 374 
151 9 414 190 51 560 60 130 300 123 444 
152 9 245 31 524 73 25 91 446 410 63 
153 9 327 417 346 293 23 250 139 443 593 
154 9 571 117 179 233 161 485 36 476 517 
155 9 56 100 43 61 271 194 316 99 340 
156 9 219 386 34 493 320 393 421 587 254 
157 9 475 567 430 565 531 285 564 135 586 
158 9 449 509 321 518 182 418 428 462 545 
159 9 259 32 87 214 116 276 211 283 54 
160 8 280 496 21 503 488 499 555 148 
161 9 117 571 12 424 154 233 355 179 485 
162 9 253 4 540 125 199 262 265 278 58 
163 9 313 342 367 115 572 530 543 478 264 
164 9 366 512 5 403 415 299 426 409 195 
165 9 508 357 371 515 491 274 389 546 238 
166 9 92 353 258 171 55 380 237 554 7 
167 9 596 218 601 224 501 493 352 85 504 
168 9 424 355 123 300 15 485 84 51 560 
169 9 436 478 392 576 363 572 342 543 570 
170 9 216 147 49 497 52 119 562 353 307 
171 9 554 7 92 454 353 332 70 526 166 
172 9 580 468 400 354 145 404 351 120 306 
173 9 340 42 192 310 316 305 511 20 56 
174 9 520 574 257 230 398 425 290 8 136 
175 9 95 38 308 248 80 234 102 114 312 
176 9 311 411 383 452 44 379 561 268 303 
177 9 441 539 412 369 481 188 64 227 483 
178 9 281 44 10 411 39 47 304 29 133 
179 9 154 571 233 117 485 476 517 487 36 
180 9 333 590 344 182 418 83 387 328 494 
181 9 134 482 201 337 208 221 16 93 319 
182 9 418 180 590 321 333 387 449 428 509 
183 9 207 46 112 348 54 222 563 59 113 
184 9 314 193 298 551 315 251 213 225 75 
185 9 149 2 132 204 315 314 184 456 12 
186 9 466 513 422 231 452 268 303 514 9 
187 9 236 287 138 315 551 465 350 284 456 
188 9 412 483 227 521 323 441 177 566 600 
189 9 42 316 43 310 241 340 173 192 270 
190 9 151 414 60 51 560 588 444 494 543 
191 9 324 242 330 420 589 597 364 477 249 
192 9 310 173 42 340 305 316 189 511 20 
193 9 213 298 184 225 251 314 75 551 48 
194 9 61 13 532 260 99 17 128 155 406 
195 9 409 57 299 252 366 295 72 512 164 
196 9 28 150 374 69 591 146 536 490 338 
197 9 52 277 339 49 147 216 592 537 119 
198 9 70 376 454 526 402 7 500 72 295 
199 9 4 205 235 125 265 97 162 253 278 
200 9 252 434 391 550 141 512 210 306 120 
201 9 181 16 482 208 134 19 93 471 221 
202 9 457 206 336 264 256 438 501 530 429 
203 9 35 50 129 296 89 97 235 223 53 
204 9 2 149 132 185 424 12 15 168 161 
205 9 235 199 97 125 265 4 35 289 296 
206 9 457 202 256 501 336 264 85 438 429 
207 9 112 348 46 183 54 222 122 59 113 
208 9 221 134 181 267 201 127 337 319 263 
209 9 275 140 437 406 217 128 532 37 472 
210 9 391 408 142 486 124 506 212 480 434 
211 9 318 377 229 288 283 87 276 214 27 
212 8 529 473 370 489 423 334 506 356 
213 9 251 48 298 109 193 133 359 47 225 
214 9 283 211 62 288 159 318 377 229 261 
215 9 255 250 36 443 346 293 417 153 327 
216 9 147 49 52 170 119 197 277 562 339 
217 9 37 275 406 209 437 472 140 451 17 
218 9 224 596 167 601 352 493 504 501 34 
219 9 156 386 393 397 254 320 421 493 34 
220 9 361 68 533 335 67 401 549 433 14 
221 9 208 134 267 127 181 410 201 337 319 
222 9 54 122 46 348 113 59 94 116 112 
223 9 89 53 71 239 129 69 338 490 63 
224 9 218 596 167 493 34 504 352 156 601 
225 9 75 193 107 213 314 47 133 48 184 
226 9 502 365 602 131 41 498 269 243 45 
227 9 521 582 495 541 323 64 412 390 600 
228 9 388 105 272 536 108 28 196 266 278 
229 9 318 377 288 211 27 108 276 87 232 
230 9 290 574 136 352 257 174 504 520 425 
231 9 268 422 466 303 186 452 513 24 379 
232 9 90 546 108 491 274 429 272 165 389 
233 9 485 476 179 355 144 106 84 154 571 
234 9 248 80 175 241 270 95 38 189 118 
235 9 205 199 97 125 265 35 4 129 289 
236 9 187 287 465 138 350 551 284 315 79 
237 9 258 584 277 339 568 347 380 247 98 
238 9 455 538 479 389 325 371 357 464 510 
239 9 63 71 338 25 490 223 69 524 31 
240 9 595 594 522 111 360 137 286 294 482 
241 9 270 302 118 189 234 248 43 42 316 
242 9 191 330 477 324 420 435 589 577 362 
243 9 365 103 41 598 226 263 82 319 502 
244 9 291 114 102 296 289 80 50 97 317 
245 9 31 91 152 25 524 410 63 73 127 
246 9 293 255 250 346 153 215 327 417 23 
247 9 98 347 584 78 40 380 237 523 258 
248 9 38 234 175 95 270 118 241 80 312 
249 8 326 364 583 419 439 467 104 589 
250 9 255 293 346 215 443 153 417 36 327 
251 9 298 213 551 359 193 109 184 48 133 
252 9 200 72 512 434 295 195 141 474 550 
253 9 162 4 540 125 262 199 278 58 265 
254 9 386 407 493 373 219 309 156 579 397 
255 9 250 293 215 346 443 36 153 417 246 
256 9 336 429 202 457 206 264 438 501 274 
257 9 425 398 432 587 574 520 174 421 320 
258 9 237 380 584 166 55 347 92 247 277 
259 9 159 116 32 54 87 222 122 276 113 
260 9 17 99 194 406 65 532 61 13 209 
261 9 266 62 6 58 262 278 540 105 228 
262 9 58 540 278 6 261 266 162 253 4 
263 9 319 41 337 134 181 269 221 208 243 
264 9 438 202 530 336 501 457 206 256 313 
265 9 125 97 205 289 235 199 4 296 35 
266 9 261 62 58 6 262 278 540 105 228 
267 9 127 221 208 81 134 91 201 305 245 
268 9 303 231 422 379 452 466 561 24 383 
269 9 45 505 410 73 446 226 41 152 502 
270 9 241 302 118 248 189 234 43 38 42 
271 9 450 20 99 56 511 155 19 17 260 
272 9 388 536 228 108 105 232 546 196 28 
273 9 101 86 458 350 465 66 394 534 26 
274 9 515 165 508 429 357 90 371 491 256 
275 9 209 140 437 217 406 37 472 128 368 
276 9 87 116 579 377 318 27 211 259 373 
277 9 339 197 52 237 49 147 568 216 258 
278 9 262 540 58 6 261 266 4 105 162 
279 9 385 492 121 527 30 595 431 594 360 
280 9 160 503 496 21 148 488 575 341 499 
281 9 178 29 110 292 10 39 304 47 411 
282 7 578 301 564 126 440 475 531 
283 9 214 211 62 288 229 318 377 261 266 
284 9 465 350 534 462 79 458 86 236 138 
285 6 430 565 531 157 567 345 
286 9 360 598 595 240 82 594 522 111 385 
287 9 138 187 236 315 456 465 79 551 284 
288 9 229 318 211 377 108 62 283 27 388 
289 9 97 296 265 125 244 205 35 291 50 
290 9 230 574 352 136 504 257 425 174 520 
291 9 244 114 102 296 289 80 50 97 35 
292 9 29 39 304 10 110 107 47 281 133 
293 9 250 346 255 153 327 417 215 246 443 
294 9 137 93 575 111 522 16 482 594 240 
295 9 72 402 198 376 252 70 500 195 526 
296 9 289 50 35 97 203 291 244 114 265 
297 9 394 592 119 26 458 101 559 562 11 
298 9 251 551 213 193 359 184 109 314 187 
299 9 57 409 195 366 164 512 252 295 5 
300 9 123 560 51 168 84 355 106 414 130 
301 7 578 282 440 564 126 531 475 
302 9 270 241 118 189 248 100 234 43 155 
303 9 268 231 379 561 422 383 470 24 452 
304 9 39 10 292 47 29 133 48 107 110 
305 9 511 173 20 81 340 450 192 310 316 
306 9 120 141 550 468 474 434 172 124 354 
307 9 497 385 82 30 554 353 279 171 121 
308 9 102 317 95 175 114 244 80 291 289 
309 9 373 579 407 254 94 386 113 493 96 
310 9 192 42 173 316 340 189 305 43 56 
311 9 176 411 383 379 452 44 561 268 303 
312 9 38 95 248 175 118 234 308 270 241 
313 9 163 367 342 115 530 572 264 336 438 
314 9 184 193 75 298 225 315 551 251 185 
315 9 287 187 138 551 456 236 184 314 79 
316 9 42 340 43 173 56 310 189 192 20 
317 9 102 308 244 114 289 291 265 125 97 
318 9 377 229 211 288 27 276 87 108 85 
319 9 263 41 337 134 181 221 269 208 243 
320 9 421 587 393 432 398 139 397 425 219 
321 9 509 428 449 158 182 518 418 545 180 
322 9 358 561 379 448 470 383 303 268 24 
323 9 521 600 566 483 542 227 541 76 18 
324 9 191 420 242 330 597 589 364 477 249 
325 8 510 538 479 413 455 464 238 558 
326 8 249 583 419 467 364 104 439 375 
327 9 153 417 346 139 23 593 293 397 443 
328 9 83 494 333 387 590 444 180 418 588 
329 9 463 475 564 135 557 567 157 282 565 
330 7 589 191 242 439 324 419 435 
331 5 378 363 570 585 131 
332 9 526 7 554 384 454 171 376 70 581 
333 9 590 180 83 328 387 418 494 344 182 
334 6 423 473 529 489 212 506 
335 9 68 433 549 361 220 544 22 576 401 
336 9 256 202 264 457 438 206 429 530 501 
337 9 319 263 181 134 482 41 137 208 221 
338 9 490 69 71 63 239 150 524 25 53 
339 9 277 197 52 237 568 49 147 514 216 
340 9 173 316 42 56 305 20 310 43 192 
341 9 548 499 484 21 503 420 477 492 555 
342 9 367 572 163 313 478 436 543 392 169 
343 9 448 470 523 24 322 568 358 561 303 
344 9 180 333 83 588 590 182 328 418 494 
345 7 586 565 135 567 285 430 557 
346 9 250 293 417 153 255 443 327 215 593 
347 9 247 584 98 380 78 40 237 258 55 
348 9 112 207 46 54 222 183 122 59 113 
349 9 498 570 131 363 68 576 335 169 220 
350 9 465 86 284 534 458 236 273 26 187 
351 9 145 354 569 399 400 416 573 404 597 
352 9 504 34 218 224 290 230 501 438 167 
353 9 92 166 171 554 7 454 307 497 258 
354 9 416 351 399 124 145 468 580 172 569 
355 9 485 84 168 424 233 106 144 300 123 
356 7 370 489 375 473 212 529 104 
357 9 371 389 165 491 508 515 238 538 274 
358 9 322 561 379 448 383 470 303 268 24 
359 9 109 251 298 66 213 48 551 459 273 
360 9 286 595 240 598 594 522 111 82 137 
361 9 220 68 335 67 401 533 549 433 14 
362 6 555 435 477 577 242 499 
363 8 570 436 331 169 498 349 131 478 
364 9 249 583 326 599 597 419 104 569 573 
365 9 226 243 502 103 41 602 131 498 533 
366 9 164 512 299 5 409 415 195 403 57 
367 8 342 572 313 163 478 436 169 392 
368 9 472 525 547 451 77 516 447 519 437 
369 9 539 177 441 412 188 481 483 227 64 
370 7 489 356 212 473 529 334 423 
371 9 357 389 491 165 508 238 515 538 455 
372 9 528 381 426 427 556 18 542 486 461 
373 9 309 579 254 407 386 493 94 219 156 
374 9 591 146 382 196 455 558 535 464 524 
375 8 104 583 326 599 356 573 249 364 
376 9 526 198 70 402 454 7 72 332 295 
377 9 318 229 211 288 27 276 87 85 108 
378 5 331 515 508 572 165 
379 9 561 383 358 322 303 268 470 231 448 
380 9 55 584 258 347 247 500 237 98 166 
381 9 528 426 372 556 486 403 5 18 427 
382 9 591 146 374 558 535 464 3 455 479 
383 9 379 561 358 303 322 268 311 176 452 
384 9 581 332 474 526 431 30 120 306 121 
385 9 279 30 121 492 527 307 595 431 286 
386 9 254 219 407 156 493 373 309 397 393 
387 9 590 333 328 418 83 180 494 182 444 
388 9 272 228 108 536 105 232 62 546 288 
389 9 371 491 357 238 165 538 508 455 479 
390 9 582 495 64 541 227 521 600 323 542 
391 9 210 434 124 142 408 200 416 550 480 
392 9 169 478 543 436 576 342 544 22 572 
393 9 320 397 139 421 587 219 156 432 23 
394 9 297 26 458 101 86 273 534 592 559 
395 7 440 126 396 578 282 460 301 
396 5 460 395 566 76 440 
397 9 393 139 23 320 219 421 156 587 327 
398 9 432 257 425 587 421 320 8 393 593 
399 9 416 573 480 599 351 354 569 124 104 
400 9 404 145 580 351 172 597 569 354 399 
401 9 549 67 433 361 428 220 335 545 68 
402 9 72 376 295 198 526 70 474 454 7 
403 9 5 426 381 528 415 390 495 372 582 
404 9 400 145 580 351 597 569 172 354 324 
405 9 33 437 557 525 140 135 368 472 586 
406 9 217 275 209 17 37 260 140 437 65 
407 9 254 386 309 96 74 373 219 493 94 
408 9 142 210 506 486 212 556 391 529 423 
409 9 195 57 299 366 252 295 512 164 72 
410 9 269 245 152 73 91 31 45 505 446 
411 9 176 311 44 178 452 383 459 379 281 
412 9 188 441 227 177 64 483 521 323 481 
413 8 510 464 325 558 3 479 538 455 
414 9 151 560 190 51 130 88 300 123 60 
415 9 5 512 486 142 403 426 381 556 528 
416 9 399 354 124 480 351 573 569 599 145 
417 9 327 153 346 593 443 139 293 8 250 
418 9 182 590 387 180 333 449 321 328 83 
419 7 439 467 249 326 583 364 589 
420 9 324 191 242 477 484 330 499 597 589 
421 9 320 587 432 393 398 425 34 139 397 
422 9 466 231 186 268 303 513 24 452 514 
423 6 334 473 529 212 506 489 
424 9 168 355 161 485 204 123 15 233 300 
425 9 432 257 398 587 421 320 34 504 393 
426 9 381 528 372 403 5 556 486 495 541 
427 7 461 18 542 76 372 600 528 
428 9 321 509 182 449 545 401 158 518 418 
429 9 256 206 274 457 90 336 202 85 264 
430 8 157 285 565 567 531 475 586 345 
431 9 121 581 580 172 492 400 404 384 30 
432 9 587 425 421 398 320 257 34 393 504 
433 9 549 335 22 544 401 68 361 220 576 
434 9 550 391 124 200 141 306 120 468 210 
435 6 577 362 477 242 555 330 
436 8 169 478 572 363 392 342 367 570 
437 9 140 275 209 217 472 405 368 406 525 
438 9 264 530 501 202 336 457 206 256 352 
439 6 419 467 249 326 589 330 
440 6 301 578 282 395 126 564 
441 9 177 412 539 481 188 369 64 227 483 
442 9 469 15 456 79 444 60 387 328 494 
443 9 346 215 417 250 255 327 153 293 593 
444 9 60 494 328 83 469 387 333 590 588 
445 9 14 67 453 545 11 552 401 533 562 
446 9 73 535 3 505 558 45 464 413 152 
447 6 516 519 553 547 525 77 
448 9 470 343 322 358 561 24 379 523 303 
449 9 158 509 321 182 518 418 428 590 180 
450 9 20 271 511 19 305 81 56 99 340 
451 9 77 472 368 547 488 37 525 148 516 
452 9 231 268 466 186 303 422 383 379 513 
453 9 545 518 445 552 509 428 11 321 559 
454 9 7 70 526 198 376 171 332 554 402 
455 9 479 238 538 325 464 510 413 558 3 
456 9 138 79 287 315 442 187 236 284 465 
457 9 206 202 256 501 336 264 438 85 429 
458 9 86 26 534 350 394 273 284 465 101 
459 9 44 66 109 452 359 186 513 466 411 
460 4 396 440 461 76 
461 8 76 427 18 542 566 600 323 372 
462 9 534 284 559 26 158 518 458 449 350 
463 9 329 564 475 567 135 557 157 282 126 
464 9 558 3 413 479 455 325 535 510 538 
465 9 350 284 236 86 534 187 138 458 287 
466 9 186 422 231 513 452 268 303 514 24 
467 6 419 439 326 249 583 364 
468 9 172 120 550 306 141 354 580 124 416 
469 9 444 60 442 494 328 387 15 83 590 
470 9 448 24 343 322 561 303 358 268 379 
471 9 507 16 93 575 143 148 19 201 65 
472 9 368 451 525 547 217 437 77 37 275 
473 8 529 212 489 423 334 370 506 356 
474 9 306 120 141 550 384 402 468 72 376 
475 9 157 567 430 564 531 565 135 282 285 
476 9 144 106 485 84 233 517 487 355 174 
477 8 362 435 242 555 577 499 191 330 
478 8 436 169 392 572 342 367 363 543 
479 9 455 538 325 464 238 510 413 558 3 
480 9 399 416 573 124 356 375 599 104 370 
481 9 64 177 441 412 227 390 188 539 582 
482 9 16 93 181 137 294 201 337 522 575 
483 9 323 566 521 188 600 227 76 412 542 
484 9 548 341 420 499 324 404 492 191 242 
485 9 233 355 476 144 84 106 179 424 300 
486 9 142 556 408 210 381 415 372 506 528 
487 9 517 8 593 443 476 398 520 417 174 
488 8 77 496 148 160 451 519 547 553 
489 7 473 529 370 212 334 423 356 
490 9 69 338 71 150 63 239 53 524 196 
491 9 389 371 357 165 546 508 238 515 274 
492 9 527 548 121 279 484 341 431 385 499 
493 9 254 386 156 224 219 596 218 373 34 
494 9 83 328 444 333 387 588 590 60 180 
495 9 582 541 390 227 600 521 323 542 18 
496 8 160 280 488 148 21 503 77 555 
497 9 307 82 170 353 385 554 30 598 171 
498 8 131 570 349 602 363 502 331 226 
499 8 341 21 548 477 555 484 420 362 
500 9 55 198 70 454 376 380 295 402 7 
501 9 438 202 206 264 457 601 167 218 530 
502 9 226 602 131 365 498 585 45 269 570 
503 8 280 21 160 341 496 548 499 527 
504 9 34 352 425 224 432 587 218 290 421 
505 9 45 446 73 269 3 535 558 413 585 
506 6 423 212 529 473 334 408 
507 9 471 16 93 575 148 143 294 19 201 
508 8 515 165 357 371 274 491 389 378 
509 9 321 449 158 518 428 182 545 418 453 
510 8 325 413 538 479 464 455 558 238 
511 9 305 20 81 450 340 173 271 19 56 
512 9 415 366 164 5 200 252 403 486 142 
513 9 186 466 422 514 9 231 537 452 268 
514 9 537 9 513 592 186 466 422 197 231 
515 8 508 165 274 357 371 378 491 389 
516 6 447 519 547 553 525 77 
517 9 487 8 476 593 443 144 520 174 179 
518 9 509 158 449 321 545 453 428 559 462 
519 5 553 447 516 547 77 
520 9 174 574 257 398 230 425 290 8 487 
521 9 323 600 483 227 566 541 542 495 582 
522 9 111 594 137 240 595 294 360 482 93 
523 9 343 448 98 470 247 24 568 322 358 
524 9 25 63 152 31 338 146 245 490 239 
525 9 368 547 472 516 447 451 77 519 345 
526 9 376 7 454 70 332 198 402 171 384 
527 9 492 548 279 341 503 484 111 594 385 
528 9 381 426 372 556 18 427 403 486 541 
529 8 473 212 489 423 370 334 506 356 
530 9 438 264 501 336 202 313 352 163 115 
531 6 430 157 285 475 301 567 
532 9 128 13 194 260 61 209 406 140 275 
533 9 220 361 14 67 68 445 335 103 401 
534 9 458 284 26 350 462 86 465 559 394 
535 9 3 558 446 73 464 382 413 479 505 
536 9 272 228 388 196 28 105 108 150 374 
537 9 9 514 592 513 197 186 297 466 422 
538 9 325 479 455 238 510 464 413 389 357 
539 9 369 177 441 412 481 188 64 227 483 
540 9 262 58 278 6 253 162 4 261 266 
541 9 495 582 600 390 521 227 542 18 323 
542 9 18 600 76 461 427 323 541 521 566 
543 9 392 342 115 478 163 88 169 190 313 
544 9 22 576 433 335 549 68 392 344 169 
545 9 453 518 428 509 321 445 67 401 158 
546 9 232 491 90 389 165 371 357 274 508 
547 9 368 77 516 447 525 519 451 553 472 
548 9 341 484 499 21 492 503 420 527 477 
549 9 433 335 401 22 68 544 361 220 344 
550 9 141 306 434 120 468 124 354 391 200 
551 9 298 251 187 236 315 287 184 138 193 
552 9 11 562 453 559 445 545 518 119 297 
553 5 519 447 516 547 77 
554 9 171 332 7 353 454 526 92 30 384 
555 7 362 477 435 499 577 242 21 
556 8 486 372 381 142 528 408 426 506 
557 9 135 33 586 567 565 345 405 329 475 
558 9 3 464 535 413 479 446 382 455 325 
559 9 518 462 552 26 453 11 534 545 158 
560 9 51 300 414 151 123 130 190 84 60 
561 9 379 322 358 383 303 470 268 448 24 
562 9 11 552 119 445 453 559 297 216 14 
563 9 59 96 74 113 94 46 122 407 222 
564 9 282 578 301 126 475 157 463 329 440 
565 8 567 430 586 345 157 285 135 475 
566 9 323 483 600 76 521 542 461 18 541 
567 9 157 475 565 430 135 285 586 531 557 
568 9 24 237 339 343 277 470 523 584 448 
569 9 573 599 597 351 364 399 145 583 104 
570 8 363 498 131 349 331 436 169 602 
571 9 117 154 179 161 233 485 355 424 476 
572 8 367 342 478 436 169 313 163 378 
573 9 599 569 399 104 583 375 364 480 351 
574 9 174 230 520 290 257 136 425 398 432 
575 9 93 294 16 507 148 280 471 496 137 
576 9 544 22 335 169 68 392 433 349 549 
577 4 435 362 477 242 
578 7 282 301 564 440 126 531 475 
579 9 373 309 254 116 407 94 493 386 113 
580 9 172 400 404 145 351 354 468 416 569 
581 9 384 431 121 30 172 580 332 120 468 
582 9 495 541 390 227 521 600 323 64 542 
583 9 326 249 364 104 375 599 419 467 573 
584 9 347 247 380 258 237 98 78 55 40 
585 6 413 510 325 602 45 331 
586 7 345 565 135 567 557 430 285 
587 9 432 421 320 425 398 34 393 257 156 
588 9 83 494 344 328 333 180 444 590 60 
589 7 330 439 191 419 242 249 467 
590 9 387 333 180 418 328 83 182 494 344 
591 9 374 382 146 455 558 464 535 238 479 
592 9 537 9 297 514 119 197 394 513 49 
593 9 8 139 417 327 487 398 393 320 421 
594 9 522 111 240 595 137 294 360 286 527 
595 9 240 594 522 360 111 286 137 279 294 
596 9 167 218 224 601 493 501 352 34 504 
597 9 569 364 599 145 324 573 351 191 249 
598 9 286 82 360 243 240 595 41 103 337 
599 9 573 569 583 104 364 399 375 597 249 
600 9 323 521 542 18 541 566 76 495 483 
601 9 167 85 596 218 501 206 457 224 202 
602 8 502 131 226 498 585 570 331 45 
DEPOT_SECTION
   1
   -1
EOF
