NAME :  X-n627-kX-w62-c11.cctp
COMMENT : 	Adapted by Maziero, Usberti and Cavellucci from the Uchoa, Pecin, Pessoa, Poggi, Subramanian, and Vidal (2013)
TYPE :  CCTP
DIMENSION :    468
EDGE_WEIGHT_TYPE : 	EUC_2D	
CAPACITY : 	110
VERTICES_WITHIN_COVERAGE :  11
VERTICES_WITH_DEMAND : 	62
NODE_COORD_SECTION
1 0 0
2 816 981
3 349 338
4 22 205
5 385 344
6 913 54
7 410 410
8 108 298
9 280 512
10 335 312
11 155 336
12 64 98
13 64 184
14 874 922
15 513 345
16 516 316
17 403 276
18 407 310
19 161 312
20 931 13
21 371 380
22 460 357
23 455 345
24 796 940
25 811 111
26 360 338
27 932 60
28 803 989
29 882 959
30 2 58
31 740 917
32 939 22
33 53 202
34 360 409
35 802 863
36 326 268
37 565 473
38 828 21
39 311 537
40 868 36
41 2 246
42 243 431
43 58 191
44 756 985
45 900 104
46 281 633
47 42 237
48 771 961
49 290 453
50 289 346
51 27 123
52 16 181
53 960 960
54 457 383
55 759 856
56 10 179
57 62 165
58 297 197
59 2 151
60 491 292
61 124 102
62 536 441
63 374 246
64 778 976
65 854 959
66 740 836
67 26 238
68 935 116
69 255 411
70 313 340
71 91 159
72 369 362
73 341 352
74 366 242
75 832 961
76 443 397
77 866 933
78 644 495
79 59 233
80 890 960
81 73 84
82 467 337
83 657 858
84 394 290
85 273 161
86 354 274
87 421 275
88 476 325
89 320 282
90 768 854
91 415 250
92 941 48
93 432 303
94 834 982
95 814 93
96 930 930
97 562 465
98 25 204
99 260 351
100 441 312
101 957 1
102 837 881
103 921 27
104 781 931
105 308 258
106 354 393
107 879 40
108 272 230
109 162 158
110 19 284
111 361 273
112 392 255
113 53 201
114 330 293
115 353 383
116 318 435
117 252 364
118 603 555
119 134 280
120 865 985
121 110 159
122 355 341
123 437 439
124 26 137
125 801 157
126 369 319
127 749 958
128 298 337
129 799 21
130 430 307
131 273 556
132 246 342
133 805 824
134 906 80
135 513 397
136 350 280
137 954 4
138 926 68
139 407 307
140 5 137
141 793 990
142 26 198
143 34 187
144 134 405
145 371 329
146 44 181
147 918 112
148 916 33
149 789 126
150 391 378
151 427 333
152 760 921
153 120 308
154 86 28
155 63 146
156 897 138
157 258 514
158 677 899
159 881 94
160 724 977
161 405 288
162 852 955
163 461 318
164 311 501
165 574 343
166 943 0
167 690 419
168 309 266
169 836 977
170 22 201
171 543 274
172 348 311
173 267 320
174 53 262
175 215 420
176 648 516
177 111 262
178 366 374
179 355 614
180 890 41
181 344 440
182 393 390
183 97 418
184 125 26
185 419 399
186 348 354
187 76 237
188 239 411
189 842 116
190 496 310
191 140 371
192 502 399
193 811 953
194 374 380
195 809 959
196 285 434
197 47 224
198 858 950
199 8 298
200 380 340
201 977 994
202 400 343
203 375 245
204 882 1
205 819 990
206 2 162
207 13 130
208 44 243
209 372 329
210 65 244
211 382 359
212 407 321
213 351 381
214 27 222
215 406 421
216 122 147
217 850 64
218 31 228
219 591 348
220 252 334
221 306 365
222 410 335
223 103 110
224 207 95
225 838 999
226 19 168
227 75 177
228 896 18
229 996 984
230 505 582
231 924 883
232 337 321
233 828 893
234 935 73
235 343 300
236 388 223
237 829 993
238 953 97
239 498 325
240 435 300
241 485 428
242 846 988
243 322 244
244 52 206
245 841 933
246 342 397
247 826 808
248 318 307
249 302 337
250 50 202
251 536 328
252 895 57
253 360 244
254 652 883
255 49 173
256 118 114
257 399 248
258 189 460
259 313 138
260 299 252
261 998 981
262 402 396
263 895 90
264 780 109
265 476 361
266 348 349
267 35 140
268 784 14
269 71 185
270 633 953
271 124 396
272 396 304
273 32 168
274 677 971
275 529 293
276 46 150
277 351 250
278 288 195
279 897 61
280 85 90
281 272 364
282 385 398
283 909 58
284 777 868
285 515 327
286 798 946
287 290 418
288 722 954
289 863 67
290 429 362
291 347 427
292 813 906
293 963 76
294 305 467
295 136 630
296 351 404
297 823 36
298 441 411
299 445 649
300 347 348
301 323 299
302 419 416
303 398 349
304 70 197
305 96 330
306 43 363
307 392 351
308 778 723
309 26 151
310 346 321
311 848 43
312 874 98
313 213 413
314 887 131
315 385 360
316 309 171
317 865 920
318 405 304
319 766 965
320 850 830
321 952 43
322 47 217
323 270 427
324 779 916
325 331 528
326 430 373
327 487 494
328 3 275
329 344 355
330 0 105
331 884 90
332 868 958
333 389 384
334 94 142
335 46 121
336 318 448
337 403 257
338 438 261
339 6 148
340 781 928
341 768 997
342 561 419
343 280 374
344 787 222
345 353 232
346 953 32
347 895 967
348 424 409
349 499 588
350 344 276
351 700 832
352 877 107
353 782 509
354 283 201
355 766 889
356 889 134
357 810 943
358 398 280
359 834 128
360 358 396
361 815 72
362 395 280
363 784 936
364 328 253
365 787 920
366 379 331
367 53 234
368 956 44
369 195 21
370 337 167
371 227 387
372 794 979
373 884 38
374 902 49
375 893 98
376 189 50
377 878 892
378 574 221
379 344 428
380 386 307
381 29 101
382 376 335
383 361 337
384 931 30
385 792 925
386 393 357
387 256 360
388 136 317
389 326 470
390 525 338
391 883 917
392 488 237
393 712 837
394 384 238
395 926 69
396 431 283
397 378 355
398 24 200
399 387 230
400 718 776
401 685 118
402 862 957
403 812 961
404 296 416
405 50 182
406 381 217
407 748 837
408 356 228
409 272 370
410 329 300
411 491 312
412 868 921
413 415 429
414 322 188
415 28 250
416 141 6
417 95 42
418 872 967
419 339 194
420 551 270
421 432 301
422 776 954
423 291 587
424 407 322
425 396 397
426 748 95
427 299 475
428 890 96
429 376 371
430 71 182
431 387 212
432 260 316
433 416 322
434 389 357
435 363 340
436 29 117
437 820 993
438 819 22
439 402 389
440 900 36
441 11 250
442 967 69
443 69 240
444 460 406
445 944 25
446 577 500
447 900 107
448 34 159
449 944 17
450 399 309
451 88 63
452 790 931
453 859 799
454 889 46
455 946 41
456 747 992
457 898 841
458 651 874
459 317 336
460 668 404
461 354 332
462 547 464
463 909 137
464 467 326
465 22 204
466 272 446
467 691 77
468 157 302
DEMAND_SECTION
2 5
3 8
4 8
5 7
6 5
7 9
8 5
9 5
10 9
11 9
12 7
13 5
14 10
15 8
16 10
17 5
18 5
19 8
20 7
21 10
22 9
23 9
24 8
25 6
26 9
27 7
28 10
29 6
30 9
31 9
32 10
33 7
34 7
35 6
36 7
37 6
38 5
39 9
40 7
41 6
42 7
43 7
44 9
45 7
46 6
47 6
48 6
49 6
50 9
51 7
52 6
53 7
54 6
55 5
56 10
57 5
58 8
59 8
60 5
61 5
62 9
63 10
COVERAGE_SECTION
2 11 205 437 28 94 237 169 403 372 195 141 75 
3 11 122 461 300 26 266 383 435 73 186 310 329 
4 11 465 98 170 398 142 214 143 52 218 250 322 
5 11 200 307 382 397 303 366 434 202 211 386 315 
6 11 283 374 279 252 138 27 395 148 440 454 180 
7 10 302 215 185 348 262 425 413 439 182 282 
8 8 153 119 305 388 177 468 19 11 
9 10 157 164 39 427 131 294 325 49 389 466 
10 10 232 172 410 235 310 248 301 114 461 3 
11 10 19 388 468 191 153 305 8 119 271 144 
12 11 81 280 335 381 436 223 451 51 155 267 334 
13 11 269 430 43 227 304 405 57 255 113 146 33 
14 11 412 317 391 77 377 198 245 332 402 29 162 
15 11 390 285 239 16 251 190 265 411 88 82 464 
16 11 285 239 190 251 390 411 275 15 60 88 171 
17 11 358 362 161 84 87 337 112 257 318 91 272 
18 11 139 318 450 212 424 272 433 380 161 130 84 
19 9 468 11 388 153 119 8 191 305 177 
20 11 32 449 103 384 166 445 137 148 101 346 455 
21 9 194 178 429 72 115 333 150 213 106 
22 10 23 265 82 54 290 464 326 88 163 151 
23 11 22 82 464 265 163 88 151 290 100 54 326 
24 11 286 452 363 357 385 104 340 193 365 195 422 
25 7 95 149 359 189 264 361 125 
26 10 383 435 122 461 3 145 209 266 300 382 
27 11 138 395 234 92 6 283 455 321 368 384 148 
28 11 141 372 2 205 437 237 64 403 195 94 169 
29 11 80 418 332 347 402 198 65 162 77 120 14 
30 11 330 381 436 51 207 12 81 335 140 124 451 
31 11 152 355 324 288 127 340 104 365 363 422 452 
32 11 445 449 384 20 346 103 455 166 137 148 321 
33 11 113 250 244 43 322 304 405 13 146 197 143 
34 11 296 360 106 246 291 379 115 282 213 21 194 
35 11 284 90 102 133 233 55 292 355 320 324 365 
36 10 89 364 168 350 105 243 114 136 86 260 
37 11 97 462 446 62 342 327 78 118 135 241 176 
38 11 438 297 129 311 40 268 217 361 107 204 289 
39 9 325 164 9 131 423 157 427 389 294 
40 11 107 373 311 180 454 289 440 217 228 252 374 
41 10 441 67 415 328 218 214 47 110 208 4 
42 11 188 69 323 175 466 313 196 371 287 49 404 
43 11 13 113 33 405 304 250 269 244 430 146 255 
44 11 456 341 319 64 48 127 160 141 422 372 288 
45 11 447 375 428 263 147 159 331 352 134 312 314 
46 11 423 179 131 39 325 9 157 164 295 427 299 
47 11 208 367 197 218 67 79 415 214 322 210 174 
48 11 319 422 64 127 44 363 372 286 104 24 340 
49 9 466 196 294 427 336 116 323 287 404 
50 9 128 249 70 221 281 99 343 409 459 
51 11 436 124 207 267 335 381 140 309 330 276 339 
52 11 56 226 143 142 170 273 398 206 465 4 98 
53 11 201 96 229 261 347 80 29 231 391 418 332 
54 9 76 444 22 265 326 298 290 23 185 
55 11 90 284 407 66 355 35 393 133 324 31 351 
56 11 52 226 206 142 143 170 273 398 465 4 59 
57 11 255 227 13 155 430 405 269 276 146 43 448 
58 9 278 354 414 316 108 419 85 370 243 
59 11 339 206 140 207 226 309 124 56 52 448 273 
60 10 190 411 239 16 88 275 163 285 464 82 
61 11 256 223 280 216 334 451 81 121 12 71 417 
62 10 462 342 97 37 135 241 192 327 446 444 
63 10 203 74 394 253 112 399 277 257 345 408 
64 11 319 372 48 141 422 341 44 28 127 195 456 
65 10 162 402 198 332 418 75 169 29 120 77 
66 11 407 55 393 90 351 284 355 400 133 35 31 
67 11 218 415 47 214 208 441 41 197 367 322 4 
68 8 147 238 463 447 45 234 156 134 
69 10 188 323 42 287 371 196 466 175 404 313 
70 8 459 249 128 50 221 73 232 248 
71 11 334 121 227 57 430 155 216 269 13 304 255 
72 7 397 429 178 211 315 21 194 
73 6 329 186 300 266 3 122 
74 11 253 63 203 345 277 408 394 399 112 236 406 
75 10 169 403 94 162 65 193 195 2 198 357 
76 8 298 444 54 348 185 326 302 7 
77 11 412 317 14 198 391 402 245 332 162 65 29 
78 11 176 446 118 37 97 167 460 462 342 62 353 
79 8 367 443 210 197 47 187 208 322 
80 11 29 347 418 332 402 198 120 65 77 162 14 
81 11 280 12 451 223 335 381 417 61 256 436 154 
82 11 464 23 88 163 22 265 239 411 100 151 190 
83 11 458 254 158 351 393 66 407 270 31 55 400 
84 9 362 161 358 272 17 318 380 450 139 
85 8 278 316 354 58 259 414 370 108 
86 9 111 136 350 277 235 36 114 253 364 
87 10 396 17 161 338 358 337 91 362 421 240 
88 11 464 82 163 411 239 190 23 22 60 265 100 
89 7 36 114 301 168 410 248 350 
90 11 55 284 407 66 35 355 133 393 324 152 31 
91 6 337 257 112 338 87 17 
92 10 455 321 27 368 346 384 445 138 32 234 
93 10 421 130 240 100 396 139 433 18 318 87 
94 10 169 237 242 205 225 2 437 75 65 403 
95 9 25 361 189 264 359 149 217 289 297 
96 11 53 231 391 80 347 29 14 412 77 377 317 
97 11 37 462 62 446 342 327 135 241 78 192 118 
98 11 4 465 170 398 142 214 143 52 218 250 322 
99 10 387 117 132 281 220 409 50 343 173 432 
100 10 130 93 240 421 163 151 433 464 396 18 
101 10 137 166 449 445 32 20 346 384 455 321 
102 10 233 292 35 377 317 412 245 320 14 391 
103 11 148 384 20 32 440 445 449 228 6 92 374 
104 11 340 363 452 365 385 324 24 152 286 422 357 
105 6 168 260 243 36 364 89 
106 9 360 115 296 213 246 34 21 178 194 
107 11 373 180 40 454 440 252 374 228 279 289 311 
108 7 354 260 278 58 105 168 243 
109 4 216 121 256 61 
110 7 199 328 415 441 174 41 67 
111 9 86 136 350 277 253 63 74 203 235 
112 10 257 337 394 63 203 17 91 362 399 358 
113 11 33 250 244 43 304 322 405 13 146 143 197 
114 10 410 301 89 235 248 10 350 136 36 172 
115 7 213 106 360 178 21 246 194 
116 7 336 181 379 404 291 49 196 
117 9 387 99 281 409 132 220 343 371 50 
118 11 176 446 78 37 97 230 462 349 327 62 342 
119 8 177 153 8 468 388 19 11 305 
120 10 242 418 332 65 402 169 225 29 94 162 
121 10 216 71 334 227 430 256 269 57 155 223 
122 10 26 3 383 435 461 266 300 186 73 329 
123 7 413 298 302 348 215 7 444 
124 11 267 51 309 207 436 140 339 448 276 335 59 
125 7 149 359 25 264 189 95 344 
126 8 145 209 366 382 383 461 26 380 
127 11 319 48 288 422 44 160 64 456 152 363 31 
128 7 249 50 70 459 221 173 248 
129 11 268 438 297 38 361 311 217 40 95 289 107 
130 10 93 421 240 100 433 18 139 396 318 151 
131 11 423 39 9 157 325 164 46 427 294 179 389 
132 9 220 99 387 117 173 432 281 409 50 
133 10 247 35 320 90 284 55 407 453 102 66 
134 11 263 279 283 375 138 395 428 331 45 252 6 
135 11 192 241 62 15 265 342 444 54 390 22 76 
136 10 86 350 111 235 114 36 410 89 277 172 
137 10 101 166 449 32 445 20 346 384 455 321 
138 11 395 27 234 6 283 134 92 279 374 252 455 
139 11 18 318 450 272 212 424 433 161 84 380 130 
140 11 207 339 59 124 206 309 51 267 436 330 226 
141 11 28 372 64 2 205 341 437 195 403 48 237 
142 11 398 170 98 465 4 143 52 214 250 56 146 
143 11 146 142 398 405 170 52 98 273 255 465 4 
144 10 271 191 183 11 258 313 175 305 388 371 
145 10 209 366 382 126 383 26 200 435 461 122 
146 11 405 255 143 43 273 13 113 250 33 57 448 
147 10 68 447 45 463 375 263 428 156 134 314 
148 11 103 384 440 6 374 20 32 228 283 180 92 
149 8 264 25 125 95 359 426 189 361 
150 8 333 182 439 194 429 315 21 425 
151 10 433 222 212 424 100 130 202 290 18 23 
152 11 31 324 340 104 365 363 385 452 355 422 127 
153 9 8 388 119 305 468 19 11 177 191 
154 11 417 451 184 81 416 280 12 61 223 30 256 
155 11 276 57 267 255 335 71 334 448 227 309 430 
156 7 356 314 463 447 147 45 352 
157 11 9 131 164 427 39 294 49 466 325 423 389 
158 11 254 458 83 31 270 288 351 393 274 152 66 
159 9 331 312 428 375 352 263 45 447 134 
160 11 288 456 127 44 319 274 341 48 64 422 31 
161 10 84 358 17 362 318 272 139 87 18 450 
162 10 65 198 402 332 75 418 245 77 169 29 
163 10 464 88 82 100 23 411 240 93 130 421 
164 9 427 9 325 389 294 39 49 336 157 
165 11 219 251 390 15 285 16 275 171 342 420 239 
166 11 137 101 449 20 32 445 384 346 103 455 148 
167 9 460 78 176 219 342 353 37 97 165 
168 6 105 36 260 89 364 243 
169 10 94 242 75 237 2 205 225 437 65 162 
170 11 398 465 4 98 142 143 52 214 56 218 250 
171 11 420 275 16 251 60 190 285 378 411 390 392 
172 10 310 235 10 232 126 410 461 114 3 301 
173 6 432 220 132 99 50 128 
174 5 208 210 47 443 367 
175 10 313 188 42 371 69 258 323 466 117 196 
176 11 78 118 446 37 97 167 460 462 342 353 62 
177 5 119 8 187 153 443 
178 6 21 194 429 72 115 213 
179 8 423 46 39 325 299 131 164 9 
180 11 454 373 107 440 374 252 279 40 228 283 6 
181 6 379 291 116 336 34 389 
182 9 333 425 439 262 282 150 194 21 429 
183 8 271 144 191 306 305 11 258 388 
184 11 416 417 154 451 376 369 280 61 81 223 256 
185 8 348 7 262 302 439 425 76 298 
186 6 329 266 300 73 122 3 
187 7 443 210 79 367 197 208 47 
188 11 69 42 175 313 371 323 466 117 196 287 409 
189 5 359 25 95 352 312 
190 11 411 239 60 16 88 285 464 163 275 15 82 
191 11 271 144 11 388 305 19 183 153 468 8 313 
192 11 135 241 444 265 54 62 15 22 76 298 342 
193 10 195 403 357 286 24 75 2 452 372 363 
194 11 21 429 178 333 150 72 115 182 282 211 213 
195 10 403 193 357 286 2 24 75 372 28 169 
196 9 287 323 466 49 404 116 336 69 294 
197 11 322 367 47 79 218 208 244 214 250 33 113 
198 10 162 402 65 332 77 418 245 29 75 317 
199 7 110 328 441 41 415 174 67 
200 10 5 382 366 145 209 397 307 435 211 383 
201 10 229 261 53 96 347 80 29 418 120 332 
202 10 303 307 222 5 386 434 200 424 212 315 
203 10 63 74 394 253 399 112 257 277 408 236 
204 11 228 373 40 107 440 180 454 103 148 20 374 
205 11 437 2 237 28 94 169 225 141 242 372 403 
206 11 59 339 226 56 52 140 309 273 448 207 124 
207 11 140 124 51 339 436 59 267 309 330 381 206 
208 11 47 367 415 79 67 197 218 174 210 443 322 
209 10 145 366 382 126 200 383 435 26 461 5 
210 7 443 79 187 367 208 174 47 
211 11 315 397 434 386 72 307 429 5 200 303 150 
212 11 424 433 18 139 222 450 318 272 151 202 380 
213 6 115 106 178 360 246 21 
214 11 218 67 4 98 465 197 47 322 170 398 142 
215 11 7 413 302 348 262 185 425 282 439 182 123 
216 9 121 334 71 256 109 223 61 227 155 
217 9 289 311 40 361 107 297 312 159 331 
218 11 214 67 47 197 322 208 415 367 4 98 465 
219 10 165 251 390 342 15 285 16 275 171 420 
220 8 132 99 432 173 387 117 281 50 
221 4 50 70 249 343 
222 10 202 424 212 433 151 303 307 18 5 139 
223 11 256 61 280 334 81 12 216 121 451 71 155 
224 7 376 369 109 61 256 85 216 
225 10 237 242 94 437 205 169 2 120 28 75 
226 11 52 273 56 448 206 309 59 143 339 146 255 
227 11 430 269 13 57 304 43 71 405 255 146 33 
228 11 440 204 373 180 148 103 107 454 374 40 20 
229 11 261 201 53 96 347 80 29 231 418 120 332 
230 6 349 299 327 118 446 37 
231 10 96 377 457 391 14 412 317 77 80 53 
232 11 10 310 172 461 3 235 410 248 459 301 122 
233 11 102 292 35 245 317 385 365 412 377 357 14 
234 11 138 395 27 92 293 6 134 238 283 442 321 
235 10 172 10 410 114 301 136 310 232 350 248 
236 8 399 406 431 394 203 63 257 74 
237 10 437 205 225 94 169 2 242 28 75 141 
238 8 293 68 234 442 147 395 138 27 
239 11 190 411 285 16 88 15 390 464 82 60 163 
240 10 421 93 130 100 396 87 139 433 18 318 
241 8 444 192 135 298 123 76 54 62 
242 10 94 225 169 237 120 437 205 65 75 2 
243 11 364 105 36 260 168 277 345 89 253 408 350 
244 11 33 250 113 322 43 197 304 405 13 143 146 
245 10 198 77 162 317 65 75 412 402 357 14 
246 6 296 106 360 115 213 34 
247 10 133 320 453 35 90 102 284 457 55 407 
248 7 301 410 10 114 232 89 235 
249 6 128 70 459 50 221 248 
250 11 33 113 244 43 322 405 304 143 146 197 13 
251 11 390 285 16 15 275 239 165 190 411 171 60 
252 11 279 374 454 283 180 6 373 440 107 134 148 
253 11 74 277 63 345 203 408 394 111 399 86 364 
254 11 458 83 158 351 270 393 274 31 66 288 407 
255 11 146 405 57 273 13 43 143 448 276 430 269 
256 11 61 223 216 334 280 121 71 81 12 451 109 
257 7 112 337 91 394 399 203 63 
258 11 175 313 42 188 144 69 371 466 323 157 271 
259 7 316 370 85 414 58 278 419 
260 6 105 168 243 364 36 108 
261 11 229 201 53 96 347 80 29 231 418 332 391 
262 9 425 439 182 7 185 282 333 150 215 
263 11 375 428 331 45 134 159 447 312 352 279 147 
264 9 149 25 426 95 361 125 359 189 217 
265 11 22 23 82 54 88 464 15 239 163 192 290 
266 8 300 186 329 73 3 122 26 435 
267 11 124 309 276 51 448 335 207 436 273 155 140 
268 11 129 438 38 297 361 311 217 95 40 426 264 
269 11 430 13 227 304 43 405 57 113 33 255 146 
270 11 274 158 254 458 288 160 83 31 127 456 44 
271 10 144 191 183 11 305 388 306 153 258 313 
272 9 450 318 380 139 18 84 161 212 424 
273 11 448 226 146 255 309 143 52 276 405 56 267 
274 11 160 270 288 158 127 456 44 31 319 254 48 
275 11 171 16 420 251 190 285 60 411 239 390 15 
276 11 267 448 155 309 57 255 273 124 335 146 226 
277 11 253 74 345 63 364 408 86 111 203 350 136 
278 9 354 58 316 414 85 108 419 370 260 
279 11 252 283 374 6 454 134 180 440 373 107 263 
280 11 81 12 223 451 61 256 417 335 334 381 155 
281 10 409 343 387 99 117 50 132 221 220 128 
282 11 182 425 333 262 439 150 194 21 34 360 7 
283 11 6 374 279 252 138 395 134 27 454 440 180 
284 11 90 55 355 35 407 324 66 133 292 365 152 
285 11 16 390 239 15 251 190 411 275 88 60 464 
286 11 24 357 193 195 363 452 403 385 104 422 340 
287 6 404 196 323 116 466 49 
288 11 160 127 31 319 456 44 274 48 152 422 64 
289 10 217 311 40 107 331 159 312 454 252 279 
290 5 326 151 22 23 222 
291 6 379 181 34 296 116 246 
292 11 233 385 365 452 102 324 357 24 245 340 104 
293 7 442 238 234 368 27 321 92 
294 8 427 49 389 336 116 164 196 466 
295 9 46 131 423 157 258 9 39 183 164 
296 9 34 106 246 360 115 213 291 379 21 
297 11 438 38 311 129 361 217 40 268 289 107 95 
298 10 76 348 444 302 185 123 7 54 413 215 
299 7 349 230 179 327 46 325 423 
300 8 266 186 73 329 3 122 26 461 
301 8 410 114 248 89 10 235 232 172 
302 11 348 7 215 413 185 298 262 123 425 76 439 
303 9 202 307 386 434 5 315 222 211 200 
304 11 269 43 13 430 113 33 244 227 250 405 322 
305 8 153 8 388 11 191 306 119 19 
306 6 305 199 183 110 271 8 
307 10 303 386 434 5 202 315 211 397 200 382 
308 11 400 247 133 453 407 66 320 90 393 55 351 
309 11 448 124 267 226 273 276 339 59 140 207 206 
310 11 232 172 10 461 3 235 26 122 383 126 435 
311 11 40 217 297 289 38 107 373 438 454 180 361 
312 8 159 352 331 428 375 263 45 447 
313 10 175 188 371 42 69 258 323 117 387 466 
314 7 356 156 463 352 447 45 375 
315 11 211 434 386 397 307 429 5 72 303 150 200 
316 8 414 370 58 278 259 85 419 354 
317 11 412 14 77 391 245 198 377 162 402 332 65 
318 10 139 18 450 272 161 212 84 424 380 433 
319 11 48 422 64 127 44 372 341 456 363 104 141 
320 9 453 247 133 457 102 35 233 377 284 
321 9 368 455 346 92 445 32 384 27 449 
322 11 197 244 250 33 113 367 218 79 47 214 98 
323 9 196 466 69 287 42 404 49 188 116 
324 11 365 340 104 385 452 152 363 24 355 292 286 
325 9 39 164 9 389 427 131 294 423 157 
326 5 290 76 185 54 439 
327 4 241 462 62 123 
328 7 110 199 441 41 415 67 174 
329 5 73 186 266 300 3 
330 11 207 381 436 51 140 124 339 59 30 267 335 
331 9 159 428 263 375 312 352 45 447 134 
332 10 402 418 198 29 65 162 80 77 120 347 
333 9 150 182 439 282 425 194 21 262 429 
334 11 71 121 216 155 223 256 57 227 430 269 276 
335 11 436 51 267 124 381 12 276 155 207 309 448 
336 7 116 294 389 181 49 379 427 
337 8 257 112 91 17 358 362 87 394 
338 5 87 396 91 337 17 
339 11 59 140 206 207 309 124 226 267 448 56 51 
340 11 104 363 452 365 385 324 24 152 286 422 357 
341 11 44 456 64 141 319 372 28 48 127 422 160 
342 11 62 97 462 135 37 192 165 219 241 446 15 
343 7 409 281 221 387 50 99 117 
344 6 125 149 359 264 25 189 
345 9 408 253 74 277 63 203 394 406 243 
346 9 321 445 455 368 32 449 92 384 137 
347 10 80 29 418 332 402 120 198 65 77 162 
348 10 302 185 7 298 76 215 413 262 425 439 
349 6 230 299 327 118 446 37 
350 10 136 86 111 36 114 235 89 277 364 410 
351 11 393 66 407 83 400 55 458 254 90 158 284 
352 7 312 159 428 331 375 45 447 
353 9 167 176 78 460 118 446 308 37 97 
354 9 278 58 108 316 85 414 260 419 243 
355 11 284 324 152 55 90 365 31 340 35 385 104 
356 7 314 156 463 447 352 45 147 
357 10 193 286 24 195 403 452 385 363 75 104 
358 10 362 17 84 161 87 272 337 318 112 139 
359 5 189 25 95 125 149 
360 10 106 296 34 115 246 213 21 178 194 282 
361 9 95 217 297 25 311 289 438 264 189 
362 9 358 17 84 161 272 337 112 87 318 
363 11 104 452 340 24 385 365 286 422 324 357 48 
364 11 243 36 105 168 277 350 260 89 86 253 345 
365 11 385 324 340 452 104 363 24 152 286 292 357 
366 9 382 209 145 200 5 126 435 383 26 
367 9 79 47 197 208 210 443 322 187 218 
368 9 321 455 346 92 445 442 32 27 384 
369 9 376 416 184 224 417 61 154 451 256 
370 5 414 419 316 259 58 
371 10 188 313 117 175 69 387 42 409 99 132 
372 11 141 28 64 2 195 403 205 48 437 193 319 
373 11 107 180 454 40 440 374 252 228 279 148 283 
374 11 252 283 6 279 440 454 180 148 373 107 103 
375 10 428 263 45 447 331 159 352 312 134 147 
376 10 369 224 416 184 61 417 256 451 154 223 
377 10 391 14 317 412 102 77 231 233 245 457 
378 6 420 171 275 392 60 16 
379 6 291 181 34 296 116 246 
380 7 272 450 84 318 18 126 139 
381 11 436 51 335 330 207 12 124 267 140 81 309 
382 10 366 200 209 145 5 435 383 26 126 397 
383 10 26 435 122 461 3 145 209 382 266 300 
384 11 103 32 445 148 20 449 455 92 346 321 368 
385 11 452 365 340 104 363 24 324 286 357 292 152 
386 10 434 307 303 315 211 5 397 202 150 200 
387 10 117 99 281 409 132 220 343 50 371 173 
388 10 153 19 468 11 8 119 305 191 177 271 
389 7 294 336 427 164 181 116 49 
390 11 15 251 285 16 239 190 411 275 165 88 265 
391 11 14 412 317 77 377 198 29 80 332 245 402 
392 3 60 338 171 
393 11 351 66 407 55 83 90 400 158 458 284 355 
394 9 399 203 63 236 74 257 112 406 253 
395 11 138 234 27 6 283 134 92 279 374 252 455 
396 10 87 240 421 93 338 130 161 17 100 318 
397 10 211 315 72 434 5 200 307 386 429 382 
398 11 170 142 98 465 4 143 52 214 56 250 146 
399 9 236 394 406 431 203 63 257 74 112 
400 11 351 393 66 407 308 55 90 133 83 284 247 
401 7 467 426 264 149 125 25 95 
402 10 332 65 198 162 418 29 77 80 120 75 
403 10 195 193 357 2 75 286 372 24 28 169 
404 6 287 196 323 116 49 466 
405 11 146 255 43 13 143 113 33 250 57 269 430 
406 8 431 236 399 394 408 74 203 63 
407 11 66 55 90 393 284 351 355 133 35 400 31 
408 9 345 253 74 277 63 203 406 394 399 
409 8 281 343 387 117 99 50 221 132 
410 9 301 114 10 248 235 89 172 232 310 
411 11 190 239 60 88 16 285 464 163 82 15 275 
412 11 317 14 77 391 245 198 377 402 332 162 29 
413 9 215 302 7 348 123 185 298 262 425 
414 6 419 316 370 58 278 354 
415 10 67 208 441 47 218 41 174 214 367 197 
416 11 184 369 417 154 376 451 61 280 81 256 223 
417 11 154 451 184 81 280 416 12 61 223 256 381 
418 10 332 29 402 80 120 65 198 162 347 242 
419 6 414 370 316 408 345 58 
420 10 171 275 378 16 251 60 285 190 392 390 
421 10 93 240 130 100 396 139 433 18 318 87 
422 11 48 319 363 64 286 24 104 340 127 452 372 
423 11 131 46 39 179 325 9 157 164 427 294 389 
424 11 212 433 18 222 139 450 318 272 202 151 380 
425 9 262 182 439 282 333 7 150 185 215 
426 11 264 149 467 25 95 401 361 125 268 129 359 
427 9 294 49 389 164 336 466 9 196 116 
428 10 375 263 331 159 45 447 312 352 134 147 
429 10 194 21 178 72 211 315 397 150 333 434 
430 11 269 227 13 304 43 57 405 255 113 33 146 
431 7 406 236 399 394 203 408 63 
432 5 173 220 132 99 50 
433 11 212 424 222 18 151 139 130 318 450 93 202 
434 10 386 315 211 307 397 303 5 202 200 429 
435 10 26 383 122 461 3 145 209 382 200 266 
436 11 51 381 335 124 207 267 140 330 309 276 339 
437 11 205 237 2 28 94 225 169 242 141 372 403 
438 11 38 297 129 268 311 361 40 217 107 289 204 
439 8 262 182 425 333 150 282 185 7 
440 11 180 374 454 148 373 228 107 6 252 103 283 
441 10 41 415 67 328 218 214 47 208 110 174 
442 8 293 368 321 238 234 92 455 27 
443 7 210 187 79 367 208 47 174 
444 10 76 298 54 241 348 123 185 302 192 326 
445 11 32 449 346 384 455 20 321 368 92 103 137 
446 11 37 97 462 118 78 62 176 342 327 230 241 
447 11 45 375 428 263 147 159 331 352 314 134 312 
448 11 273 309 276 226 267 255 124 146 52 143 405 
449 11 32 445 20 137 166 346 384 101 455 103 321 
450 10 272 18 139 318 380 212 424 84 433 161 
451 11 417 81 280 154 12 223 184 61 256 381 335 
452 11 385 363 104 340 24 365 286 324 357 422 193 
453 9 320 247 457 133 102 35 377 233 90 
454 11 180 373 107 252 374 440 279 40 283 6 228 
455 10 321 92 368 346 445 384 32 27 449 103 
456 11 44 341 160 319 127 64 48 288 141 422 372 
457 9 231 320 377 453 102 391 247 14 412 
458 11 254 83 158 351 393 270 66 31 274 407 288 
459 10 70 249 128 232 73 248 10 50 221 3 
460 9 167 78 219 342 165 176 97 37 446 
461 11 3 26 122 383 435 310 145 300 209 266 126 
462 9 97 37 62 342 446 327 241 135 192 
463 7 156 356 314 147 447 68 45 
464 10 88 163 82 23 411 100 239 22 190 265 
465 11 4 98 170 398 142 214 143 52 218 56 250 
466 11 196 49 323 42 287 404 69 294 427 336 116 
467 10 401 426 264 149 268 129 95 361 25 125 
468 9 19 388 119 11 153 8 177 305 191 
DEPOT_SECTION
   1
   -1
EOF
