NAME :  X-n627-kX-w125-c9.cctp
COMMENT : 	Adapted by Maziero, Usberti and Cavellucci from the Uchoa, Pecin, Pessoa, Poggi, Subramanian, and Vidal (2013)
TYPE :  CCTP
DIMENSION :    562
EDGE_WEIGHT_TYPE : 	EUC_2D	
CAPACITY : 	110
VERTICES_WITHIN_COVERAGE :  9
VERTICES_WITH_DEMAND : 	125
NODE_COORD_SECTION
1 0 0
2 816 981
3 349 338
4 22 205
5 385 344
6 913 54
7 410 410
8 108 298
9 280 512
10 335 312
11 155 336
12 64 98
13 64 184
14 874 922
15 513 345
16 516 316
17 403 276
18 407 310
19 161 312
20 931 13
21 371 380
22 460 357
23 455 345
24 796 940
25 811 111
26 360 338
27 932 60
28 803 989
29 882 959
30 2 58
31 740 917
32 939 22
33 53 202
34 360 409
35 802 863
36 326 268
37 565 473
38 828 21
39 311 537
40 868 36
41 2 246
42 243 431
43 58 191
44 756 985
45 900 104
46 281 633
47 42 237
48 771 961
49 290 453
50 289 346
51 27 123
52 16 181
53 960 960
54 457 383
55 759 856
56 10 179
57 62 165
58 297 197
59 2 151
60 491 292
61 124 102
62 536 441
63 374 246
64 778 976
65 854 959
66 740 836
67 26 238
68 875 125
69 935 116
70 255 411
71 313 340
72 91 159
73 369 362
74 341 352
75 363 286
76 366 242
77 832 961
78 443 397
79 863 999
80 944 188
81 866 933
82 644 495
83 59 233
84 890 960
85 373 308
86 73 84
87 467 337
88 291 307
89 657 858
90 394 290
91 273 161
92 288 89
93 354 274
94 456 206
95 421 275
96 476 325
97 447 183
98 320 282
99 768 854
100 355 447
101 415 250
102 941 48
103 432 303
104 834 982
105 814 93
106 930 930
107 562 465
108 430 495
109 450 472
110 417 234
111 25 204
112 260 351
113 441 312
114 957 1
115 837 881
116 921 27
117 452 219
118 781 931
119 308 258
120 354 393
121 879 40
122 272 230
123 162 158
124 19 284
125 361 273
126 392 255
127 53 201
128 468 176
129 330 293
130 353 383
131 252 364
132 603 555
133 134 280
134 865 985
135 110 159
136 355 341
137 437 439
138 26 137
139 801 157
140 547 92
141 369 319
142 749 958
143 298 337
144 799 21
145 430 307
146 273 556
147 246 342
148 805 824
149 324 354
150 906 80
151 513 397
152 321 107
153 350 280
154 957 194
155 954 4
156 36 314
157 926 68
158 407 307
159 5 137
160 793 990
161 26 198
162 34 187
163 134 405
164 371 329
165 44 181
166 869 855
167 918 112
168 916 33
169 789 126
170 391 378
171 427 333
172 760 921
173 384 472
174 229 348
175 120 308
176 86 28
177 933 368
178 63 146
179 897 138
180 258 514
181 677 899
182 881 94
183 724 977
184 405 288
185 852 955
186 461 318
187 311 501
188 574 343
189 911 215
190 943 0
191 690 419
192 328 441
193 448 250
194 309 266
195 907 187
196 336 466
197 836 977
198 22 201
199 543 274
200 336 367
201 348 311
202 378 494
203 267 320
204 53 262
205 215 420
206 648 516
207 111 262
208 366 374
209 355 614
210 890 41
211 344 440
212 97 418
213 125 26
214 419 399
215 348 354
216 446 504
217 76 237
218 239 411
219 842 116
220 496 310
221 866 137
222 140 371
223 502 399
224 381 451
225 811 953
226 374 380
227 809 959
228 285 434
229 47 224
230 858 950
231 8 298
232 380 340
233 931 185
234 977 994
235 400 343
236 375 245
237 882 1
238 819 990
239 443 296
240 2 162
241 13 130
242 44 243
243 869 131
244 150 210
245 937 139
246 372 329
247 408 231
248 65 244
249 440 468
250 382 359
251 937 219
252 407 321
253 351 381
254 27 222
255 406 421
256 122 147
257 850 64
258 31 228
259 591 348
260 356 366
261 252 334
262 306 365
263 410 335
264 103 110
265 303 286
266 207 95
267 838 999
268 421 235
269 348 366
270 19 168
271 75 177
272 377 321
273 352 210
274 896 18
275 996 984
276 505 582
277 924 883
278 337 321
279 382 299
280 828 893
281 399 477
282 935 73
283 360 355
284 343 300
285 388 223
286 829 993
287 953 97
288 498 325
289 435 300
290 485 428
291 846 988
292 322 244
293 52 206
294 841 933
295 342 397
296 826 808
297 318 307
298 278 284
299 302 337
300 50 202
301 536 328
302 895 57
303 360 244
304 652 883
305 49 173
306 118 114
307 399 248
308 189 460
309 409 509
310 446 249
311 313 138
312 299 252
313 998 981
314 856 102
315 402 396
316 895 90
317 780 109
318 476 361
319 348 349
320 916 243
321 35 140
322 784 14
323 71 185
324 633 953
325 124 396
326 396 304
327 32 168
328 677 971
329 304 292
330 529 293
331 46 150
332 351 250
333 288 195
334 897 61
335 85 90
336 272 364
337 941 143
338 67 257
339 385 398
340 909 58
341 777 868
342 243 125
343 515 327
344 798 946
345 722 954
346 289 296
347 863 67
348 429 362
349 347 427
350 813 906
351 963 76
352 305 467
353 136 630
354 351 404
355 823 36
356 441 411
357 445 649
358 347 348
359 323 299
360 834 952
361 419 416
362 398 349
363 70 197
364 96 330
365 43 363
366 875 131
367 392 351
368 778 723
369 26 151
370 485 222
371 346 321
372 848 43
373 874 98
374 213 413
375 887 131
376 385 360
377 309 171
378 49 285
379 220 333
380 865 920
381 405 304
382 766 965
383 850 830
384 952 43
385 256 299
386 47 217
387 270 427
388 779 916
389 355 366
390 331 528
391 430 373
392 487 494
393 3 275
394 344 355
395 0 105
396 170 217
397 884 90
398 868 958
399 389 384
400 94 142
401 46 121
402 318 448
403 403 257
404 438 261
405 6 148
406 781 928
407 457 450
408 149 200
409 768 997
410 561 419
411 280 374
412 69 250
413 787 222
414 353 232
415 953 32
416 895 967
417 424 409
418 499 588
419 344 276
420 700 832
421 877 107
422 782 509
423 283 201
424 766 889
425 889 134
426 810 943
427 398 280
428 834 128
429 358 396
430 294 288
431 264 261
432 346 378
433 815 72
434 205 175
435 395 280
436 784 936
437 328 253
438 787 920
439 379 331
440 53 234
441 956 44
442 195 21
443 227 387
444 400 74
445 208 210
446 794 979
447 884 38
448 902 49
449 893 98
450 189 50
451 878 892
452 344 428
453 386 307
454 29 101
455 376 335
456 361 337
457 931 30
458 792 925
459 950 153
460 436 505
461 393 357
462 256 360
463 427 189
464 136 317
465 980 141
466 525 338
467 883 917
468 966 45
469 32 278
470 488 237
471 712 837
472 384 238
473 926 69
474 431 283
475 378 355
476 24 200
477 387 230
478 718 776
479 51 285
480 685 118
481 862 957
482 812 961
483 398 241
484 73 228
485 448 182
486 50 182
487 376 299
488 381 217
489 748 837
490 356 228
491 272 370
492 443 185
493 329 300
494 19 390
495 491 312
496 868 921
497 415 429
498 134 208
499 322 188
500 28 250
501 435 250
502 395 457
503 141 6
504 95 42
505 872 967
506 551 270
507 432 301
508 776 954
509 291 587
510 407 322
511 396 397
512 748 95
513 299 475
514 890 96
515 376 371
516 350 359
517 71 182
518 211 225
519 260 316
520 416 322
521 389 357
522 363 340
523 29 117
524 820 993
525 819 22
526 900 36
527 11 250
528 967 69
529 431 139
530 69 240
531 460 406
532 944 25
533 577 500
534 900 107
535 34 159
536 308 302
537 944 17
538 399 309
539 88 63
540 790 931
541 859 799
542 216 170
543 273 257
544 425 192
545 889 46
546 946 41
547 747 992
548 898 841
549 651 874
550 317 336
551 668 404
552 297 284
553 354 332
554 547 464
555 909 137
556 467 326
557 82 238
558 22 204
559 382 468
560 272 446
561 691 77
562 157 302
DEMAND_SECTION
2 5
3 8
4 8
5 7
6 5
7 9
8 5
9 5
10 9
11 9
12 7
13 5
14 10
15 8
16 10
17 5
18 5
19 8
20 7
21 10
22 9
23 9
24 8
25 6
26 9
27 7
28 10
29 6
30 9
31 9
32 10
33 7
34 7
35 6
36 7
37 6
38 5
39 9
40 7
41 6
42 7
43 7
44 9
45 7
46 6
47 6
48 6
49 6
50 9
51 7
52 6
53 7
54 6
55 5
56 10
57 5
58 8
59 8
60 5
61 5
62 9
63 10
64 6
65 7
66 6
67 8
68 10
69 7
70 6
71 7
72 6
73 8
74 8
75 9
76 10
77 10
78 10
79 6
80 9
81 10
82 5
83 6
84 10
85 9
86 8
87 8
88 7
89 5
90 8
91 7
92 7
93 10
94 10
95 8
96 7
97 5
98 5
99 7
100 6
101 10
102 7
103 5
104 8
105 8
106 8
107 10
108 7
109 6
110 10
111 10
112 8
113 8
114 7
115 5
116 10
117 5
118 6
119 9
120 9
121 7
122 5
123 10
124 8
125 9
126 6
COVERAGE_SECTION
2 9 238 524 28 104 286 197 482 446 227 
3 9 136 553 358 26 319 456 522 74 215 
4 9 558 111 198 476 161 254 162 52 258 
5 9 232 367 455 475 362 439 521 235 250 
6 9 340 448 334 302 157 27 473 168 526 
7 7 361 255 214 417 315 511 497 
8 8 175 133 364 464 207 562 19 338 
9 8 180 187 39 513 146 352 390 49 
10 9 278 201 493 284 371 297 359 129 553 
11 9 19 464 562 222 175 364 8 133 379 
12 9 86 335 401 454 523 264 539 51 178 
13 9 323 517 43 271 363 486 57 305 127 
14 9 496 380 467 81 451 230 294 398 481 
15 9 466 343 288 16 301 220 318 495 96 
16 9 343 288 220 301 466 495 330 15 60 
17 9 427 435 184 90 95 403 126 307 381 
18 9 158 381 538 252 510 326 520 453 184 
19 8 562 11 464 175 133 8 222 379 
20 9 32 537 116 457 190 532 155 168 114 
21 9 226 208 515 73 130 399 170 253 120 
22 9 23 318 87 54 348 556 391 96 186 
23 9 22 87 556 318 186 96 171 348 113 
24 9 344 540 436 426 458 118 406 225 438 
25 8 105 169 428 219 317 433 314 139 
26 9 456 522 136 553 3 164 246 319 358 
27 9 157 473 282 102 6 340 546 384 441 
28 9 160 446 2 238 524 286 64 482 227 
29 9 84 505 398 416 481 230 65 185 81 
30 9 395 454 523 51 241 12 86 401 159 
31 9 172 424 388 345 142 406 118 438 436 
32 9 532 537 457 20 415 116 546 190 155 
33 9 127 300 293 43 386 363 486 13 165 
34 9 354 429 120 295 349 452 130 339 253 
35 9 341 99 115 148 280 55 350 424 383 
36 9 98 437 194 419 119 292 129 153 93 
37 9 107 554 533 62 410 392 82 132 151 
38 9 525 355 144 372 40 322 257 433 121 
39 8 390 187 9 146 509 180 513 352 
40 9 121 447 372 210 545 347 526 257 274 
41 9 527 67 500 393 258 254 47 124 242 
42 8 218 70 387 205 560 374 228 443 
43 9 13 127 33 486 363 300 323 293 517 
44 9 547 409 382 64 48 142 183 160 508 
45 9 534 449 514 316 167 182 397 421 150 
46 9 509 209 146 39 390 9 180 187 353 
47 9 242 440 229 258 67 83 500 254 386 
48 9 382 508 64 142 44 436 446 344 118 
49 6 560 228 352 513 402 387 
50 9 143 299 71 262 336 112 411 491 550 
51 9 523 138 241 321 401 454 159 369 395 
52 9 56 270 162 161 198 327 476 240 558 
53 9 234 106 275 313 416 84 29 277 467 
54 7 78 531 22 318 391 356 348 
55 9 99 341 489 66 424 35 471 148 388 
56 9 52 270 240 161 162 198 327 476 558 
57 9 305 271 13 178 517 486 323 331 165 
58 6 333 423 499 377 122 91 
59 9 405 240 159 241 270 369 138 56 52 
60 9 220 495 288 16 96 330 186 343 556 
61 9 306 264 335 256 400 539 86 135 12 
62 9 554 410 107 37 151 290 223 392 533 
63 9 236 76 472 303 126 477 332 307 414 
64 9 382 446 48 160 508 409 44 28 142 
65 9 185 481 230 398 505 360 77 197 29 
66 9 489 55 471 99 420 341 424 478 148 
67 9 258 500 47 254 242 527 41 229 440 
68 9 366 243 375 221 425 421 179 373 314 
69 9 167 245 287 337 555 534 45 459 282 
70 7 218 387 42 443 228 560 205 
71 7 550 299 143 149 50 262 74 
72 9 400 135 271 57 517 178 256 323 13 
73 9 283 475 515 208 250 260 389 376 21 
74 9 394 215 358 319 516 3 200 269 149 
75 9 125 153 93 487 419 279 85 284 201 
76 9 303 63 236 414 332 490 472 477 126 
77 9 360 197 482 104 185 65 225 227 2 
78 7 356 531 54 417 214 391 361 
79 9 134 291 267 505 104 197 286 65 398 
80 9 233 154 251 459 195 189 337 245 465 
81 9 496 380 14 230 467 481 294 398 185 
82 9 206 533 132 37 107 191 551 554 410 
83 9 440 530 248 229 484 47 217 242 386 
84 9 29 416 505 398 481 230 134 65 81 
85 9 487 141 279 453 272 164 246 326 75 
86 9 335 12 539 264 401 454 504 61 306 
87 9 556 23 96 186 22 318 288 495 113 
88 9 346 536 430 329 265 552 298 203 297 
89 9 549 304 181 420 471 66 489 324 31 
90 9 435 184 427 326 279 17 381 453 487 
91 8 333 377 423 58 311 342 499 542 
92 7 152 311 342 91 266 377 499 
93 9 125 153 419 75 332 284 36 129 303 
94 9 117 97 485 492 128 370 463 544 310 
95 9 474 17 184 404 427 403 101 435 507 
96 9 556 87 186 495 288 220 23 22 60 
97 9 485 492 463 128 544 94 117 529 370 
98 9 36 129 265 359 194 329 493 536 552 
99 9 55 341 489 66 35 424 148 471 388 
100 7 211 349 452 224 196 192 559 
101 9 403 110 268 307 483 247 501 126 404 
102 9 546 384 27 441 415 457 532 157 468 
103 9 507 145 289 113 239 474 158 520 18 
104 9 197 286 291 238 267 2 524 77 65 
105 8 25 433 219 317 428 169 314 257 
106 9 53 277 467 84 416 29 14 496 81 
107 9 37 554 62 533 410 392 151 290 82 
108 8 460 216 309 249 109 281 173 202 
109 8 249 407 108 216 137 460 392 281 
110 9 268 247 101 483 307 501 403 477 285 
111 9 4 558 198 476 161 254 162 52 258 
112 9 462 131 147 336 261 491 50 411 174 
113 9 145 103 289 507 239 186 171 520 556 
114 8 155 190 537 532 32 20 415 457 
115 9 280 350 35 166 451 380 496 294 383 
116 9 168 457 20 32 526 532 537 274 6 
117 9 94 193 310 370 268 492 501 97 485 
118 9 406 436 540 438 458 388 24 172 344 
119 8 194 312 292 36 437 98 265 552 
120 9 429 130 354 253 295 34 432 21 208 
121 9 447 210 40 545 526 302 448 274 334 
122 8 543 423 431 312 333 58 119 194 
123 8 256 408 434 135 244 542 498 396 
124 9 469 231 393 378 479 156 500 527 204 
125 9 93 75 153 419 332 303 63 487 76 
126 9 307 403 483 472 63 236 17 101 435 
127 9 33 300 293 43 363 386 486 13 165 
128 9 485 97 492 94 463 117 544 370 529 
129 9 493 359 98 284 297 10 419 153 536 
130 9 253 432 120 429 208 260 389 21 269 
131 9 462 112 336 491 147 174 261 411 443 
132 9 206 533 82 37 107 276 554 418 392 
133 7 207 175 8 562 464 19 11 
134 9 79 291 505 398 65 481 197 267 29 
135 8 256 72 400 271 517 306 323 57 
136 9 26 3 456 522 553 319 358 215 283 
137 8 407 497 356 249 361 417 109 255 
138 9 321 51 369 241 523 159 405 535 331 
139 9 169 428 25 317 219 105 413 221 243 
140 4 128 529 485 97 
141 9 272 164 246 85 439 455 456 553 26 
142 9 382 48 345 508 44 183 64 547 172 
143 8 299 50 71 550 262 88 149 203 
144 9 322 525 355 38 433 372 257 40 105 
145 9 103 507 289 113 239 520 18 158 474 
146 9 509 39 9 180 390 187 46 513 352 
147 9 261 112 174 462 131 379 203 519 336 
148 9 296 35 383 99 341 55 489 541 115 
149 6 74 71 200 550 394 262 
150 9 316 334 340 449 157 473 514 397 45 
151 9 223 290 62 15 318 410 531 54 466 
152 6 311 92 377 91 342 499 
153 9 93 419 125 75 284 129 36 493 98 
154 9 80 233 251 459 195 189 337 465 245 
155 8 114 190 537 32 532 20 415 457 
156 8 231 378 479 124 469 365 393 204 
157 9 473 27 282 6 340 150 102 334 448 
158 9 18 381 538 326 252 510 520 184 90 
159 9 241 405 59 138 240 369 51 321 523 
160 9 28 446 64 2 238 409 524 227 482 
161 9 476 198 111 558 4 162 52 254 300 
162 9 165 161 476 486 198 52 111 327 305 
163 8 325 222 212 11 308 374 205 364 
164 9 246 439 455 141 272 456 26 232 522 
165 9 486 305 162 43 327 13 127 300 33 
166 9 383 548 451 115 280 541 277 296 467 
167 9 69 534 45 555 449 316 514 179 245 
168 9 116 457 526 6 448 20 32 274 340 
169 9 317 25 139 105 428 512 219 433 314 
170 5 399 226 515 376 21 
171 8 520 263 252 510 113 145 235 348 
172 9 31 388 406 118 438 436 458 540 424 
173 8 559 281 502 224 202 100 309 196 
174 9 379 147 261 131 462 112 443 519 336 
175 8 8 464 133 364 562 19 11 207 
176 9 504 539 213 86 503 335 12 61 264 
177 8 320 251 189 154 80 195 233 413 
178 9 331 57 321 305 401 72 400 535 271 
179 9 425 375 555 366 68 243 221 534 167 
180 9 9 146 187 513 39 352 49 560 390 
181 9 304 549 89 31 324 345 420 471 328 
182 9 397 373 514 449 421 316 45 534 314 
183 9 345 547 142 44 382 328 409 48 64 
184 9 90 427 17 435 381 326 158 95 18 
185 9 65 230 481 398 360 77 505 294 81 
186 9 556 96 87 113 23 239 495 289 103 
187 8 513 9 390 352 39 196 49 402 
188 9 259 301 466 15 343 16 330 199 410 
189 9 251 195 320 233 80 154 459 179 337 
190 9 155 114 537 20 32 532 457 415 116 
191 8 551 82 206 259 410 422 37 107 
192 6 402 211 452 349 196 100 
193 9 310 501 404 117 268 101 110 95 474 
194 9 119 36 312 98 265 552 437 292 329 
195 9 233 189 80 251 154 179 555 459 337 
196 6 402 192 100 211 352 513 
197 9 104 291 77 286 2 238 267 524 65 
198 9 476 558 4 111 161 162 52 254 56 
199 8 506 330 16 301 60 220 343 495 
200 7 269 394 432 74 516 149 215 
201 9 371 284 10 278 141 493 553 85 129 
202 8 173 559 281 309 502 224 196 100 
203 9 519 261 385 88 147 112 346 50 143 
204 8 338 412 242 248 378 479 469 47 
205 9 374 218 42 443 70 308 387 560 131 
206 9 82 132 533 37 107 191 551 554 410 
207 6 133 8 557 217 338 412 
208 9 21 226 515 73 260 389 130 253 269 
209 9 509 46 39 390 357 146 309 187 202 
210 9 545 447 121 526 448 302 334 40 274 
211 6 452 100 349 192 196 402 
212 8 325 163 222 365 494 364 11 308 
213 9 503 504 176 539 450 442 335 61 86 
214 5 417 7 315 361 511 
215 9 394 319 516 358 74 269 283 260 389 
216 8 460 108 109 249 309 392 281 407 
217 9 557 530 484 248 412 83 338 440 229 
218 9 70 42 205 374 443 387 560 131 228 
219 8 428 314 25 243 221 68 105 366 
220 9 495 288 60 16 96 343 556 186 330 
221 9 243 366 68 375 425 179 219 421 428 
222 9 325 163 11 464 364 19 212 175 562 
223 9 151 290 531 318 54 62 15 22 78 
224 8 502 559 173 100 281 211 255 497 
225 9 227 482 426 344 24 77 360 2 540 
226 8 21 515 208 399 170 73 130 339 
227 9 482 225 426 344 2 24 77 446 360 
228 5 387 560 49 402 70 
229 9 386 440 47 83 258 242 293 254 300 
230 9 185 481 65 398 81 505 294 360 29 
231 9 124 393 469 156 378 479 527 41 500 
232 9 5 455 439 164 246 475 367 522 250 
233 9 80 195 154 251 189 459 337 245 555 
234 9 275 313 53 106 416 84 29 505 134 
235 9 362 367 263 5 461 521 232 510 252 
236 9 63 76 472 303 477 126 483 307 332 
237 9 274 447 40 121 526 210 545 116 168 
238 9 524 2 286 28 104 197 267 160 291 
239 9 289 507 103 113 145 474 186 95 404 
240 9 59 405 270 56 52 159 369 327 535 
241 9 159 138 51 405 523 59 321 369 395 
242 9 47 440 500 83 67 229 258 204 248 
243 9 366 221 68 375 425 421 179 219 314 
244 5 408 498 396 123 445 
245 9 337 459 69 555 167 179 465 287 233 
246 9 164 439 455 272 141 232 456 522 26 
247 9 110 268 483 307 101 477 285 472 403 
248 9 530 412 83 217 338 440 484 557 242 
249 8 109 407 108 137 216 460 281 497 
250 9 376 475 521 461 73 367 515 5 232 
251 9 189 80 154 320 233 195 459 337 245 
252 9 510 520 18 158 263 538 381 326 171 
253 9 130 432 120 269 260 389 208 429 295 
254 9 258 67 4 111 558 229 47 386 198 
255 8 7 497 361 417 315 214 511 339 
256 9 135 400 72 306 123 264 61 271 178 
257 8 347 372 40 433 121 314 355 373 
258 9 254 67 47 229 386 242 500 440 4 
259 8 188 301 466 410 15 343 16 330 
260 9 389 269 516 283 208 73 215 253 394 
261 9 147 112 519 203 462 174 131 379 385 
262 3 149 50 71 
263 8 235 510 252 520 171 362 367 18 
264 9 306 61 335 400 86 12 256 135 539 
265 8 329 552 430 98 346 536 194 88 
266 9 342 450 442 542 123 434 92 61 306 
267 9 286 291 104 524 238 197 79 2 134 
268 9 110 247 101 501 483 307 403 310 193 
269 9 389 516 260 200 215 394 432 253 74 
270 9 52 327 56 535 240 369 59 162 405 
271 9 517 323 13 57 363 43 72 486 305 
272 9 141 246 164 439 85 455 453 232 487 
273 4 490 414 488 76 
274 9 526 237 447 210 168 116 121 545 448 
275 9 313 234 53 106 416 84 29 277 505 
276 9 418 357 392 216 132 460 533 108 309 
277 9 106 451 548 467 166 14 496 380 81 
278 9 10 371 201 553 3 284 493 297 550 
279 9 487 453 85 90 326 538 75 272 435 
280 9 115 350 35 294 380 458 438 496 451 
281 8 173 559 502 202 224 309 108 249 
282 9 157 473 27 102 351 6 150 287 340 
283 9 73 516 215 260 389 319 136 358 522 
284 9 201 10 493 129 359 153 371 278 75 
285 8 477 488 472 483 247 236 63 307 
286 9 524 238 267 104 197 2 291 28 77 
287 8 351 69 282 528 167 473 157 27 
288 9 220 495 343 16 96 15 466 556 87 
289 9 507 103 145 239 113 474 95 158 520 
290 9 531 223 407 151 356 137 78 54 62 
291 9 104 267 197 286 134 79 524 238 65 
292 9 437 119 36 312 194 332 414 98 303 
293 9 33 300 127 386 43 229 363 486 13 
294 9 360 230 81 185 380 65 77 496 481 
295 7 354 120 429 130 253 432 34 
296 9 148 383 541 35 166 99 115 341 548 
297 9 359 536 493 10 129 329 278 98 265 
298 7 346 430 552 265 88 329 385 
299 8 143 71 550 50 149 262 88 297 
300 9 33 127 293 43 386 486 363 162 165 
301 9 466 343 16 15 330 288 188 220 495 
302 9 334 448 545 340 210 6 447 526 121 
303 9 76 332 63 414 236 490 472 125 477 
304 9 549 89 181 420 324 471 328 31 66 
305 9 165 486 57 327 13 43 162 535 331 
306 9 61 264 256 400 335 135 72 86 12 
307 9 483 126 403 101 472 247 477 110 236 
308 9 205 374 42 218 163 70 443 560 387 
309 8 108 460 202 281 216 173 559 249 
310 9 193 501 404 268 101 117 110 95 474 
311 7 152 377 91 499 92 58 333 
312 8 119 194 292 543 437 36 552 265 
313 9 275 234 53 106 416 84 29 277 505 
314 8 373 219 421 182 68 397 243 428 
315 5 511 7 214 339 399 
316 9 449 514 397 45 150 182 534 373 421 
317 9 169 25 512 105 433 139 428 219 314 
318 9 22 23 87 54 96 556 15 288 186 
319 9 358 215 394 74 516 3 136 283 26 
320 9 189 251 195 233 80 154 459 337 245 
321 9 138 369 331 51 535 401 241 523 327 
322 9 144 525 38 355 433 372 257 105 40 
323 9 517 13 271 363 43 486 57 127 33 
324 9 328 181 304 549 345 183 89 31 142 
325 8 163 222 212 11 364 464 365 175 
326 9 538 381 453 158 18 90 279 184 252 
327 9 535 270 165 305 369 162 52 331 486 
328 9 183 324 345 181 142 547 44 31 382 
329 9 265 430 536 552 346 98 88 359 297 
330 9 199 16 506 301 220 343 60 495 288 
331 9 321 535 178 369 57 305 327 138 401 
332 9 303 76 414 63 437 490 93 125 236 
333 6 423 58 377 499 91 122 
334 9 302 340 448 6 545 150 210 526 447 
335 9 86 12 264 539 61 306 504 401 400 
336 9 491 411 462 112 131 50 147 262 261 
337 9 245 459 69 555 167 465 233 179 80 
338 8 412 248 204 530 217 557 83 242 
339 7 511 399 315 170 226 21 34 
340 9 6 448 334 302 157 473 150 27 545 
341 9 99 55 424 35 489 388 66 148 350 
342 9 91 266 542 92 434 311 152 377 333 
343 9 16 466 288 15 301 220 495 330 96 
344 9 24 426 225 227 436 540 482 458 118 
345 9 183 142 31 382 547 44 328 48 172 
346 7 430 88 552 298 329 265 536 
347 8 257 372 40 121 397 182 373 545 
348 3 391 171 22 
349 7 452 211 34 100 354 192 295 
350 9 280 458 438 540 115 388 426 24 294 
351 8 528 287 282 468 441 27 384 102 
352 6 513 49 402 196 187 192 
353 7 46 146 509 180 308 9 39 
354 9 34 120 295 429 130 253 349 452 432 
355 9 525 38 372 144 433 257 40 322 347 
356 9 78 417 531 361 214 137 7 54 497 
357 9 418 276 209 460 216 309 108 392 46 
358 9 319 215 74 394 3 136 516 283 26 
359 9 493 129 297 536 98 10 284 329 265 
360 9 77 185 294 65 225 230 482 197 227 
361 9 417 7 255 497 214 356 315 137 511 
362 8 235 367 461 521 5 376 263 250 
363 9 323 43 13 517 127 33 293 271 300 
364 9 175 8 464 11 222 156 365 133 479 
365 9 494 156 364 231 212 378 479 124 469 
366 9 68 243 221 375 425 179 421 373 314 
367 9 362 461 521 5 235 376 250 475 232 
368 9 478 296 148 541 489 66 383 99 471 
369 9 535 138 321 270 327 331 405 59 159 
370 9 470 94 117 193 310 128 97 485 492 
371 9 278 201 10 553 3 284 26 136 456 
372 9 40 257 355 347 38 121 447 525 545 
373 8 182 421 397 514 314 449 316 45 
374 9 205 218 443 42 70 308 387 131 174 
375 9 425 179 366 68 243 221 555 421 534 
376 9 250 521 461 475 367 515 5 73 362 
377 6 499 58 333 311 91 423 
378 8 479 469 204 124 156 338 412 500 
379 8 174 147 261 519 112 131 462 203 
380 9 496 14 81 467 294 230 451 185 481 
381 9 158 18 538 326 184 252 90 510 453 
382 9 48 508 64 142 44 446 409 547 436 
383 9 166 541 296 148 548 115 35 280 451 
384 9 441 546 415 102 468 532 32 457 27 
385 6 519 203 298 346 261 88 
386 9 229 293 300 33 127 440 258 83 47 
387 6 228 560 70 42 49 218 
388 9 438 406 118 458 540 172 436 24 424 
389 9 260 269 516 283 208 215 73 432 253 
390 8 39 187 9 202 196 513 146 352 
391 3 348 78 214 
392 9 216 109 460 407 249 108 290 554 62 
393 9 124 231 527 41 469 500 67 378 479 
394 9 74 215 319 516 358 269 200 260 283 
395 9 241 454 523 51 159 138 405 59 30 
396 7 244 408 498 445 518 434 123 
397 9 182 514 316 449 373 421 45 534 150 
398 9 481 505 230 29 65 185 84 81 134 
399 6 170 339 511 226 21 315 
400 9 72 135 256 178 264 306 57 271 517 
401 9 523 51 321 138 454 12 331 178 241 
402 5 192 352 196 211 49 
403 9 307 126 101 483 17 427 435 95 247 
404 9 501 310 193 95 474 101 268 110 239 
405 9 59 159 240 241 369 138 270 321 535 
406 9 118 436 540 438 458 388 24 172 344 
407 9 109 137 249 290 356 531 497 361 108 
408 5 244 498 396 123 135 
409 9 44 547 64 160 382 446 28 48 142 
410 9 62 107 554 151 37 223 188 259 290 
411 7 491 336 262 462 50 112 131 
412 8 248 338 530 217 557 83 204 484 
413 8 139 169 428 317 25 221 219 243 
414 8 490 303 76 332 273 63 236 472 
415 9 384 532 546 441 32 537 468 102 457 
416 9 84 29 505 398 481 134 230 65 79 
417 8 361 214 7 356 78 255 497 315 
418 9 276 357 392 216 460 132 108 533 309 
419 9 153 93 125 36 75 129 284 98 332 
420 9 471 66 489 89 478 55 549 304 99 
421 9 373 182 514 68 397 449 314 45 534 
422 8 191 206 82 551 132 533 177 368 
423 8 333 58 122 377 91 499 312 543 
424 9 341 388 172 55 99 438 31 406 35 
425 9 375 179 366 68 243 555 221 534 421 
426 9 225 344 24 227 482 540 458 360 436 
427 9 435 17 90 184 95 326 403 279 381 
428 9 219 25 221 314 243 105 68 366 139 
429 9 120 354 34 130 295 253 21 432 208 
430 8 552 265 346 329 298 88 536 98 
431 5 543 298 122 312 385 
432 7 253 130 269 200 389 260 120 
433 8 105 257 355 25 372 347 525 314 
434 9 542 445 123 518 396 408 342 244 91 
435 9 427 17 90 184 279 326 403 126 95 
436 9 118 540 406 24 458 438 344 508 388 
437 9 292 36 119 194 332 419 312 98 93 
438 9 458 388 406 540 118 436 24 172 344 
439 9 455 246 164 232 272 5 141 522 456 
440 9 83 47 229 242 248 530 386 484 217 
441 8 384 468 546 415 102 532 528 32 
442 9 450 503 213 266 504 61 176 92 342 
443 9 218 374 131 205 70 174 462 42 491 
444 5 529 152 311 92 463 
445 7 518 434 396 542 244 408 122 
446 9 160 28 64 2 227 482 238 48 524 
447 9 121 210 545 40 526 448 302 274 334 
448 9 302 340 6 334 526 545 210 168 447 
449 9 514 316 45 534 397 182 421 373 150 
450 9 442 266 503 213 61 342 504 306 539 
451 9 467 14 380 496 166 115 81 277 280 
452 6 349 211 192 100 34 354 
453 9 279 326 85 487 538 272 90 381 18 
454 9 523 51 401 395 241 12 138 321 159 
455 9 439 232 246 164 5 272 522 456 26 
456 9 26 522 136 553 3 164 246 455 283 
457 9 116 32 532 168 20 537 546 102 415 
458 9 540 438 406 118 436 24 388 344 426 
459 9 337 245 465 80 233 69 154 555 167 
460 8 216 108 309 109 249 281 392 202 
461 8 521 367 362 376 250 5 475 235 
462 9 131 112 336 491 147 261 411 174 50 
463 9 544 492 97 485 94 117 128 110 247 
464 9 175 19 562 11 8 133 364 222 207 
465 7 459 337 245 69 287 154 80 
466 9 15 301 343 16 288 220 495 330 188 
467 9 14 496 380 81 451 230 29 84 398 
468 6 441 384 415 546 528 102 
469 9 124 378 479 204 500 393 231 527 156 
470 9 370 117 193 310 94 60 404 501 128 
471 9 420 66 489 55 89 99 478 181 549 
472 9 477 236 63 483 285 76 307 126 488 
473 9 157 282 27 6 340 150 102 334 448 
474 9 95 289 239 507 103 404 145 184 17 
475 9 250 376 73 521 5 232 367 461 515 
476 9 198 161 111 558 4 162 52 254 56 
477 8 285 472 488 483 236 63 247 307 
478 9 420 471 66 489 368 55 99 148 89 
479 8 378 469 204 124 338 156 412 500 
480 6 561 512 317 169 139 25 
481 9 398 65 230 185 505 29 81 84 134 
482 9 227 225 426 2 77 344 360 446 24 
483 9 307 247 472 126 477 403 101 110 285 
484 9 217 530 557 83 248 440 412 229 386 
485 9 97 492 128 463 94 544 117 529 370 
486 9 165 305 43 13 162 127 33 300 57 
487 9 279 85 453 75 90 141 326 272 538 
488 7 285 477 472 490 76 236 483 
489 9 66 55 99 471 341 420 424 148 35 
490 8 414 303 76 273 332 63 236 488 
491 7 336 411 462 131 112 50 262 
492 9 97 485 463 544 94 128 117 529 110 
493 9 359 129 10 297 284 98 536 201 278 
494 8 365 156 212 231 364 325 124 378 
495 9 220 288 60 96 16 343 556 186 87 
496 9 380 14 81 467 294 230 451 481 398 
497 8 255 361 7 417 137 214 356 502 
498 5 244 408 396 135 123 
499 5 377 58 333 273 423 
500 9 67 242 527 47 258 41 204 254 469 
501 9 310 404 193 101 268 110 95 247 403 
502 8 224 559 173 281 497 255 100 202 
503 9 213 442 504 176 450 539 61 335 86 
504 9 176 539 213 86 335 503 12 61 264 
505 9 398 29 481 84 134 65 230 185 416 
506 8 199 330 16 301 60 343 220 470 
507 9 103 289 145 239 113 474 158 520 18 
508 9 48 382 436 64 344 24 118 406 142 
509 9 146 46 39 209 390 9 180 187 513 
510 9 252 520 18 263 158 538 381 326 235 
511 5 315 339 399 7 170 
512 9 317 169 561 25 105 480 433 139 322 
513 7 352 49 187 402 196 560 9 
514 9 449 316 397 182 45 534 373 421 150 
515 9 226 21 208 73 250 376 475 170 399 
516 9 215 269 394 260 389 319 74 283 358 
517 9 323 271 13 363 43 57 486 305 127 
518 6 445 396 434 542 122 244 
519 8 203 385 261 147 88 112 346 298 
520 9 252 510 263 18 171 158 145 381 538 
521 9 461 376 250 367 475 362 5 235 232 
522 9 26 456 136 553 3 164 246 455 283 
523 9 51 454 401 138 241 321 159 395 369 
524 9 238 286 2 28 104 267 197 291 160 
525 9 38 355 144 322 372 433 40 257 121 
526 9 210 448 545 168 447 274 121 6 302 
527 9 41 500 67 393 258 254 47 242 124 
528 7 351 468 441 384 287 282 102 
529 7 485 97 492 463 128 544 94 
530 9 248 217 412 83 484 557 338 440 242 
531 9 78 356 54 290 417 137 214 361 223 
532 9 32 537 415 457 546 20 384 441 102 
533 9 37 107 554 132 82 62 206 410 392 
534 9 45 449 514 316 167 182 397 421 375 
535 9 327 369 331 270 321 305 138 165 52 
536 9 297 329 359 265 88 346 430 493 552 
537 9 32 532 20 155 190 415 457 114 546 
538 9 326 18 158 381 453 252 510 90 279 
539 9 504 86 335 176 12 264 213 61 306 
540 9 458 436 118 406 24 438 344 388 426 
541 8 383 296 166 548 148 115 35 451 
542 9 434 445 342 123 518 91 396 408 423 
543 7 431 312 122 298 119 552 194 
544 9 463 492 97 485 94 117 110 247 268 
545 9 210 447 121 302 448 526 334 40 340 
546 9 384 102 441 415 532 457 32 468 27 
547 9 44 409 183 382 142 64 48 345 160 
548 8 166 277 383 451 541 115 467 296 
549 9 304 89 181 420 471 324 66 31 328 
550 9 71 299 143 149 278 74 297 10 50 
551 8 191 82 259 410 188 206 107 37 
552 8 430 265 329 346 298 536 194 98 
553 9 3 26 136 456 522 371 164 358 246 
554 9 107 37 62 410 533 392 290 151 223 
555 9 179 425 375 167 245 534 69 337 45 
556 9 96 186 87 23 495 113 288 22 220 
557 8 217 484 530 248 412 83 338 440 
558 9 4 111 198 476 161 254 162 52 258 
559 8 173 224 502 281 202 100 196 211 
560 7 228 49 387 42 70 352 513 
561 8 480 512 317 169 322 144 105 433 
562 8 19 464 133 11 175 8 207 364 
DEPOT_SECTION
   1
   -1
EOF
