NAME :  X-n627-kX-w125-c11.cctp
COMMENT : 	Adapted by Maziero, Usberti and Cavellucci from the Uchoa, Pecin, Pessoa, Poggi, Subramanian, and Vidal (2013)
TYPE :  CCTP
DIMENSION :    583
EDGE_WEIGHT_TYPE : 	EUC_2D	
CAPACITY : 	110
VERTICES_WITHIN_COVERAGE :  11
VERTICES_WITH_DEMAND : 	125
NODE_COORD_SECTION
1 0 0
2 816 981
3 349 338
4 22 205
5 385 344
6 913 54
7 410 410
8 108 298
9 280 512
10 335 312
11 155 336
12 64 98
13 64 184
14 874 922
15 513 345
16 516 316
17 403 276
18 407 310
19 161 312
20 931 13
21 371 380
22 460 357
23 455 345
24 796 940
25 811 111
26 360 338
27 932 60
28 803 989
29 882 959
30 2 58
31 740 917
32 939 22
33 53 202
34 360 409
35 802 863
36 326 268
37 565 473
38 828 21
39 311 537
40 868 36
41 2 246
42 243 431
43 58 191
44 756 985
45 900 104
46 281 633
47 42 237
48 771 961
49 290 453
50 289 346
51 27 123
52 16 181
53 960 960
54 457 383
55 759 856
56 10 179
57 62 165
58 297 197
59 2 151
60 491 292
61 124 102
62 536 441
63 374 246
64 778 976
65 854 959
66 740 836
67 26 238
68 875 125
69 935 116
70 255 411
71 313 340
72 91 159
73 369 362
74 341 352
75 363 286
76 366 242
77 832 961
78 443 397
79 863 999
80 944 188
81 866 933
82 644 495
83 59 233
84 890 960
85 373 308
86 73 84
87 467 337
88 291 307
89 657 858
90 394 290
91 273 161
92 288 89
93 354 274
94 456 206
95 421 275
96 476 325
97 447 183
98 320 282
99 768 854
100 355 447
101 415 250
102 941 48
103 432 303
104 834 982
105 814 93
106 930 930
107 562 465
108 430 495
109 450 472
110 417 234
111 25 204
112 260 351
113 441 312
114 957 1
115 837 881
116 921 27
117 452 219
118 781 931
119 308 258
120 354 393
121 879 40
122 272 230
123 162 158
124 19 284
125 361 273
126 392 255
127 53 201
128 395 97
129 468 176
130 330 293
131 353 383
132 318 435
133 252 364
134 603 555
135 134 280
136 865 985
137 110 159
138 355 341
139 437 439
140 26 137
141 801 157
142 547 92
143 369 319
144 749 958
145 298 337
146 799 21
147 430 307
148 273 556
149 246 342
150 805 824
151 324 354
152 906 80
153 513 397
154 321 107
155 350 280
156 957 194
157 954 4
158 36 314
159 926 68
160 407 307
161 5 137
162 793 990
163 26 198
164 34 187
165 134 405
166 371 329
167 44 181
168 869 855
169 918 112
170 916 33
171 789 126
172 391 378
173 427 333
174 760 921
175 384 472
176 229 348
177 120 308
178 86 28
179 933 368
180 63 146
181 897 138
182 258 514
183 677 899
184 881 94
185 724 977
186 405 288
187 852 955
188 461 318
189 311 501
190 574 343
191 911 215
192 943 0
193 690 419
194 328 441
195 448 250
196 309 266
197 907 187
198 336 466
199 836 977
200 22 201
201 543 274
202 336 367
203 348 311
204 378 494
205 267 320
206 53 262
207 215 420
208 648 516
209 111 262
210 366 374
211 355 614
212 890 41
213 344 440
214 393 390
215 97 418
216 125 26
217 419 399
218 348 354
219 446 504
220 76 237
221 239 411
222 842 116
223 496 310
224 866 137
225 140 371
226 502 399
227 381 451
228 811 953
229 374 380
230 809 959
231 285 434
232 47 224
233 858 950
234 8 298
235 380 340
236 931 185
237 977 994
238 400 343
239 375 245
240 882 1
241 819 990
242 443 296
243 2 162
244 13 130
245 44 243
246 869 131
247 150 210
248 937 139
249 372 329
250 408 231
251 65 244
252 440 468
253 382 359
254 937 219
255 407 321
256 351 381
257 27 222
258 406 421
259 122 147
260 850 64
261 31 228
262 591 348
263 356 366
264 252 334
265 306 365
266 410 335
267 103 110
268 303 286
269 207 95
270 838 999
271 421 235
272 348 366
273 19 168
274 75 177
275 377 321
276 352 210
277 896 18
278 996 984
279 505 582
280 924 883
281 337 321
282 382 299
283 828 893
284 399 477
285 935 73
286 360 355
287 343 300
288 388 223
289 829 993
290 953 97
291 498 325
292 435 300
293 485 428
294 846 988
295 322 244
296 52 206
297 841 933
298 342 397
299 826 808
300 318 307
301 278 284
302 302 337
303 50 202
304 536 328
305 895 57
306 360 244
307 652 883
308 49 173
309 118 114
310 399 248
311 189 460
312 409 509
313 446 249
314 313 138
315 299 252
316 998 981
317 856 102
318 402 396
319 895 90
320 780 109
321 476 361
322 348 349
323 916 243
324 35 140
325 784 14
326 71 185
327 633 953
328 124 396
329 396 304
330 32 168
331 677 971
332 304 292
333 529 293
334 46 150
335 351 250
336 288 195
337 897 61
338 85 90
339 272 364
340 941 143
341 67 257
342 854 89
343 385 398
344 909 58
345 777 868
346 243 125
347 515 327
348 798 946
349 290 418
350 722 954
351 289 296
352 863 67
353 429 362
354 347 427
355 813 906
356 963 76
357 305 467
358 136 630
359 920 788
360 351 404
361 823 36
362 441 411
363 445 649
364 347 348
365 323 299
366 423 376
367 834 952
368 419 416
369 398 349
370 70 197
371 96 330
372 43 363
373 875 131
374 392 351
375 778 723
376 26 151
377 485 222
378 346 321
379 848 43
380 874 98
381 213 413
382 887 131
383 385 360
384 309 171
385 49 285
386 220 333
387 865 920
388 405 304
389 766 965
390 850 830
391 952 43
392 256 299
393 47 217
394 270 427
395 779 916
396 355 366
397 331 528
398 430 373
399 487 494
400 3 275
401 344 355
402 0 105
403 170 217
404 884 90
405 868 958
406 389 384
407 94 142
408 46 121
409 318 448
410 403 257
411 438 261
412 6 148
413 781 928
414 457 450
415 311 368
416 149 200
417 768 997
418 561 419
419 280 374
420 69 250
421 787 222
422 353 232
423 425 377
424 953 32
425 895 967
426 424 409
427 499 588
428 344 276
429 700 832
430 877 107
431 782 509
432 149 217
433 283 201
434 766 889
435 889 134
436 810 943
437 398 280
438 834 128
439 358 396
440 294 288
441 264 261
442 346 378
443 815 72
444 205 175
445 395 280
446 784 936
447 328 253
448 787 920
449 379 331
450 53 234
451 956 44
452 195 21
453 337 167
454 227 387
455 400 74
456 208 210
457 794 979
458 884 38
459 902 49
460 893 98
461 189 50
462 878 892
463 574 221
464 344 428
465 386 307
466 29 101
467 325 448
468 376 335
469 361 337
470 931 30
471 792 925
472 950 153
473 436 505
474 393 357
475 256 360
476 427 189
477 136 317
478 980 141
479 326 470
480 525 338
481 883 917
482 966 45
483 32 278
484 488 237
485 712 837
486 384 238
487 926 69
488 235 266
489 431 283
490 378 355
491 24 200
492 387 230
493 718 776
494 51 285
495 685 118
496 862 957
497 812 961
498 398 241
499 73 228
500 296 416
501 448 182
502 50 182
503 376 299
504 381 217
505 748 837
506 356 228
507 272 370
508 443 185
509 329 300
510 19 390
511 491 312
512 868 921
513 415 429
514 134 208
515 322 188
516 28 250
517 435 250
518 395 457
519 141 6
520 95 42
521 872 967
522 339 194
523 551 270
524 432 301
525 776 954
526 291 587
527 407 322
528 396 397
529 748 95
530 299 475
531 890 96
532 376 371
533 976 29
534 350 359
535 71 182
536 387 212
537 211 225
538 260 316
539 416 322
540 389 357
541 363 340
542 29 117
543 820 993
544 819 22
545 402 389
546 900 36
547 11 250
548 967 69
549 431 139
550 69 240
551 460 406
552 944 25
553 577 500
554 900 107
555 34 159
556 308 302
557 944 17
558 399 309
559 88 63
560 790 931
561 859 799
562 216 170
563 273 257
564 425 192
565 889 46
566 946 41
567 747 992
568 898 841
569 651 874
570 317 336
571 668 404
572 297 284
573 985 734
574 354 332
575 547 464
576 909 137
577 467 326
578 82 238
579 22 204
580 382 468
581 272 446
582 691 77
583 157 302
DEMAND_SECTION
2 5
3 8
4 8
5 7
6 5
7 9
8 5
9 5
10 9
11 9
12 7
13 5
14 10
15 8
16 10
17 5
18 5
19 8
20 7
21 10
22 9
23 9
24 8
25 6
26 9
27 7
28 10
29 6
30 9
31 9
32 10
33 7
34 7
35 6
36 7
37 6
38 5
39 9
40 7
41 6
42 7
43 7
44 9
45 7
46 6
47 6
48 6
49 6
50 9
51 7
52 6
53 7
54 6
55 5
56 10
57 5
58 8
59 8
60 5
61 5
62 9
63 10
64 6
65 7
66 6
67 8
68 10
69 7
70 6
71 7
72 6
73 8
74 8
75 9
76 10
77 10
78 10
79 6
80 9
81 10
82 5
83 6
84 10
85 9
86 8
87 8
88 7
89 5
90 8
91 7
92 7
93 10
94 10
95 8
96 7
97 5
98 5
99 7
100 6
101 10
102 7
103 5
104 8
105 8
106 8
107 10
108 7
109 6
110 10
111 10
112 8
113 8
114 7
115 5
116 10
117 5
118 6
119 9
120 9
121 7
122 5
123 10
124 8
125 9
126 6
COVERAGE_SECTION
2 11 241 543 28 104 289 199 497 457 230 162 77 
3 11 138 574 364 26 322 469 541 74 218 378 401 
4 11 579 111 200 491 163 257 164 52 261 303 393 
5 11 235 374 468 490 369 449 540 238 253 474 383 
6 11 344 459 337 305 159 27 487 170 546 565 212 
7 10 368 258 217 426 318 528 513 545 214 343 
8 10 177 135 371 477 209 583 19 341 494 11 
9 11 182 189 39 530 148 357 397 49 479 581 198 
10 11 281 203 509 287 378 300 365 130 574 556 3 
11 11 19 477 583 225 177 371 8 135 386 328 165 
12 11 86 338 408 466 542 267 559 51 180 324 407 
13 11 326 535 43 274 370 502 57 308 127 167 33 
14 11 512 387 481 81 462 233 297 405 496 29 187 
15 11 480 347 291 16 304 223 321 511 96 87 577 
16 11 347 291 223 304 480 511 333 15 60 96 201 
17 11 437 445 186 90 95 410 126 310 388 101 329 
18 11 160 388 558 255 527 329 539 465 186 147 90 
19 10 583 11 477 177 135 8 225 386 371 209 
20 11 32 557 116 470 192 552 157 170 114 424 566 
21 11 229 210 532 73 131 406 172 256 120 263 396 
22 11 23 321 87 54 353 577 398 96 188 423 173 
23 11 22 87 577 321 188 96 173 353 113 54 398 
24 11 348 560 446 436 471 118 413 228 448 230 525 
25 11 105 171 438 222 320 443 317 141 342 224 246 
26 11 469 541 138 574 3 166 249 322 364 468 286 
27 11 159 487 285 102 6 344 566 391 451 470 170 
28 11 162 457 2 241 543 289 64 497 230 104 199 
29 11 84 521 405 425 496 233 65 187 81 136 14 
30 11 402 466 542 51 244 12 86 408 161 140 559 
31 11 174 434 395 350 144 413 118 448 446 525 560 
32 11 552 557 470 20 424 116 566 192 157 170 391 
33 11 127 303 296 43 393 370 502 13 167 232 164 
34 11 360 439 120 298 354 464 131 343 256 21 229 
35 11 345 99 115 150 283 55 355 434 390 395 448 
36 11 98 447 196 428 119 295 130 155 93 268 315 
37 11 107 575 553 62 418 399 82 134 153 293 208 
38 11 544 361 146 379 40 325 260 443 121 240 352 
39 11 397 189 9 148 526 182 530 479 357 198 204 
40 11 121 458 379 212 565 352 546 260 277 305 459 
41 11 547 67 516 400 261 257 47 124 245 483 4 
42 11 221 70 394 207 581 381 231 454 349 49 500 
43 11 13 127 33 502 370 303 326 296 535 167 308 
44 11 567 417 389 64 48 144 185 162 525 457 350 
45 11 554 460 531 319 169 184 404 430 152 380 382 
46 11 526 211 148 39 397 9 182 189 358 530 363 
47 11 245 450 232 261 67 83 516 257 393 251 206 
48 11 389 525 64 144 44 446 457 348 118 24 413 
49 10 581 231 357 530 409 132 394 349 467 500 
50 10 145 302 71 265 339 112 419 507 570 415 
51 11 542 140 244 324 408 466 161 376 402 334 412 
52 11 56 273 164 163 200 330 491 243 579 4 111 
53 11 237 106 278 316 425 84 29 280 481 521 405 
54 11 78 551 22 321 398 362 423 353 366 23 217 
55 11 99 345 505 66 434 35 485 150 395 31 429 
56 11 52 273 243 163 164 200 330 491 579 4 59 
57 11 308 274 13 180 535 502 326 334 167 43 555 
58 9 336 433 515 384 122 522 91 453 295 
59 11 412 243 161 244 273 376 140 56 52 555 330 
60 11 223 511 291 16 96 333 188 347 577 242 87 
61 11 309 267 338 259 407 559 86 137 12 72 520 
62 11 575 418 107 37 153 293 226 399 553 414 551 
63 11 239 76 486 306 126 492 335 310 422 498 506 
64 11 389 457 48 162 525 417 44 28 144 230 567 
65 11 187 496 233 405 521 367 77 199 29 136 81 
66 11 505 55 485 99 429 345 434 493 150 35 31 
67 11 261 516 47 257 245 547 41 232 450 393 4 
68 11 373 246 382 224 435 430 181 380 317 554 184 
69 11 169 248 290 340 576 554 45 472 285 181 152 
70 10 221 394 42 349 454 231 581 207 500 381 
71 10 570 302 145 151 50 265 415 74 281 300 
72 11 407 137 274 57 535 180 259 326 13 370 308 
73 11 286 490 532 210 253 263 396 383 21 229 534 
74 11 401 218 364 322 534 3 202 272 151 138 286 
75 11 125 155 93 503 428 282 85 287 203 90 465 
76 11 306 63 239 422 335 506 486 492 126 288 504 
77 11 367 199 497 104 187 65 228 230 2 233 436 
78 10 362 551 54 426 217 398 423 366 368 7 
79 11 136 294 270 521 104 199 289 65 405 496 543 
80 11 236 156 254 472 197 191 340 248 478 323 576 
81 11 512 387 14 233 481 496 297 405 187 65 29 
82 11 208 553 134 37 107 193 571 575 418 62 431 
83 11 450 550 251 232 499 47 220 245 393 420 578 
84 11 29 425 521 405 496 233 136 65 81 187 14 
85 11 503 143 282 465 275 166 249 329 75 449 203 
86 11 338 12 559 267 408 466 520 61 309 542 178 
87 11 577 23 96 188 22 321 291 511 113 173 223 
88 11 351 556 440 332 268 572 301 205 300 145 302 
89 11 569 307 183 429 485 66 505 327 31 55 493 
90 11 445 186 437 329 282 17 388 465 503 558 160 
91 11 336 384 433 58 314 346 515 562 453 122 444 
92 10 154 314 346 91 269 384 453 515 336 461 
93 11 125 155 428 75 335 287 36 130 306 447 503 
94 11 117 97 501 508 129 377 476 564 313 195 271 
95 11 489 17 186 411 437 410 101 445 524 292 517 
96 11 577 87 188 511 291 223 23 22 60 321 113 
97 11 501 508 476 129 564 94 117 549 377 271 110 
98 11 36 130 268 365 196 332 509 556 572 300 428 
99 11 55 345 505 66 35 434 150 485 395 174 31 
100 10 213 354 464 227 198 194 467 580 409 479 
101 11 410 110 271 310 498 250 517 126 411 95 17 
102 11 566 391 27 451 424 470 552 159 482 32 285 
103 11 524 147 292 113 242 489 160 539 18 388 95 
104 11 199 289 294 241 270 2 543 77 65 367 497 
105 11 25 443 222 320 342 438 171 317 260 352 361 
106 11 53 280 481 84 425 29 14 512 81 462 387 
107 11 37 575 62 553 418 399 153 293 82 226 134 
108 10 473 219 312 252 109 284 175 204 414 518 
109 10 252 414 108 219 139 473 399 284 312 513 
110 11 271 250 101 498 310 517 410 492 288 126 313 
111 11 4 579 200 491 163 257 164 52 261 303 393 
112 11 475 133 149 339 264 507 50 419 176 205 538 
113 11 147 103 292 524 242 188 173 539 577 489 18 
114 11 157 192 557 552 32 20 424 533 470 566 391 
115 11 283 355 35 168 462 387 512 297 390 14 481 
116 11 170 470 20 32 546 552 557 277 6 102 459 
117 11 94 195 313 377 271 508 517 97 501 110 564 
118 11 413 446 560 448 471 395 24 174 348 525 436 
119 10 196 315 295 36 447 98 268 572 440 332 
120 10 439 131 360 256 298 34 442 21 210 229 
121 11 458 212 40 565 546 305 459 277 337 352 379 
122 10 563 433 441 315 336 58 119 196 295 488 
123 11 259 416 444 137 247 562 514 403 432 309 61 
124 11 483 234 400 385 494 158 516 547 206 41 67 
125 11 93 75 155 428 335 306 63 503 76 239 287 
126 11 310 410 498 486 63 239 17 101 445 492 437 
127 11 33 303 296 43 370 393 502 13 167 164 232 
128 8 455 549 154 453 314 476 97 501 
129 11 501 97 508 94 476 117 564 377 549 484 271 
130 11 509 365 98 287 300 10 428 155 556 36 203 
131 11 256 442 120 439 210 263 396 21 272 298 229 
132 9 194 409 467 213 464 500 354 49 231 
133 11 475 112 339 507 149 176 264 419 454 50 386 
134 11 208 553 82 37 107 279 575 427 399 62 418 
135 9 209 177 8 583 477 19 11 371 432 
136 11 79 294 521 405 65 496 199 270 29 104 187 
137 10 259 72 407 274 535 309 326 57 180 267 
138 11 26 3 469 541 574 322 364 218 286 74 401 
139 10 414 513 362 252 368 426 109 258 7 551 
140 11 324 51 376 244 542 161 412 555 334 408 59 
141 11 171 438 25 320 222 105 421 224 246 317 373 
142 7 129 549 463 501 97 495 508 
143 11 275 166 249 85 449 468 469 574 26 465 503 
144 11 389 48 350 525 44 185 64 567 174 446 31 
145 10 302 50 71 570 265 88 151 415 205 300 
146 11 325 544 361 38 443 379 260 40 105 352 121 
147 11 103 524 292 113 242 539 18 160 489 388 173 
148 11 526 39 9 182 397 189 46 530 357 211 479 
149 11 264 112 176 475 133 386 205 538 339 507 50 
150 11 299 35 390 99 345 55 505 561 115 66 168 
151 9 74 71 202 415 570 401 265 218 364 
152 11 319 337 344 460 159 487 531 404 45 305 6 
153 11 226 293 62 15 321 418 551 54 480 22 78 
154 9 314 92 453 384 91 128 346 515 455 
155 11 93 428 125 75 287 130 36 509 98 335 203 
156 11 80 236 254 472 197 191 340 478 248 323 576 
157 11 114 192 557 32 552 20 424 533 470 566 391 
158 10 234 385 494 124 483 372 400 206 371 516 
159 11 487 27 285 6 344 152 102 337 459 305 566 
160 11 18 388 558 329 255 527 539 186 90 465 147 
161 11 244 412 59 140 243 376 51 324 542 402 273 
162 11 28 457 64 2 241 417 543 230 497 48 289 
163 11 491 200 111 579 4 164 52 257 303 56 167 
164 11 167 163 491 502 200 52 111 330 308 579 4 
165 10 328 225 215 11 311 381 207 371 477 454 
166 11 249 449 468 143 275 469 26 235 541 574 138 
167 11 502 308 164 43 330 13 127 303 33 57 555 
168 11 390 568 462 115 283 561 280 299 481 387 512 
169 11 69 554 45 576 460 319 531 181 248 152 382 
170 11 116 470 546 6 459 20 32 277 344 212 102 
171 11 320 25 141 105 438 529 222 443 317 342 224 
172 8 406 214 545 229 532 383 21 528 
173 10 539 266 255 527 113 147 238 353 18 23 
174 11 31 395 413 118 448 446 471 560 434 525 144 
175 10 580 284 518 227 204 100 312 198 108 213 
176 11 386 149 264 133 475 112 454 538 339 205 507 
177 10 8 477 135 371 583 19 11 209 225 494 
178 11 520 559 216 86 519 338 12 61 267 30 309 
179 10 323 254 191 156 80 197 236 421 431 472 
180 11 334 57 324 308 408 72 407 555 274 376 535 
181 11 435 382 576 373 68 246 224 554 169 45 430 
182 11 9 148 189 530 39 357 49 581 397 526 479 
183 11 307 569 89 31 327 350 429 485 331 174 66 
184 11 404 380 531 460 430 319 45 554 317 342 152 
185 11 350 567 144 44 389 331 417 48 64 525 31 
186 11 90 437 17 445 388 329 160 95 18 558 282 
187 11 65 233 496 405 367 77 521 297 81 199 29 
188 11 577 96 87 113 23 242 511 292 103 147 524 
189 11 530 9 397 479 357 39 198 49 409 182 467 
190 11 262 304 480 15 347 16 333 201 418 523 291 
191 11 254 197 323 236 80 156 472 181 340 576 248 
192 11 157 114 557 20 32 552 470 424 116 566 170 
193 9 571 82 208 262 418 431 37 107 190 
194 9 467 132 409 213 464 354 198 100 479 
195 11 313 517 411 117 271 101 110 95 489 484 250 
196 10 119 36 315 98 268 572 447 295 332 440 
197 11 236 191 80 254 156 181 576 472 340 435 248 
198 10 479 467 409 194 100 213 357 132 530 464 
199 11 104 294 77 289 2 241 270 543 65 367 187 
200 11 491 579 4 111 163 164 52 257 56 261 303 
201 11 523 333 16 304 60 223 347 463 511 480 484 
202 8 272 401 442 74 534 151 218 396 
203 11 378 287 10 281 143 509 574 85 130 3 365 
204 10 175 580 284 312 518 227 198 100 108 479 
205 10 538 264 392 88 149 112 351 50 145 301 
206 10 341 420 245 251 385 494 483 47 550 450 
207 11 381 221 42 454 70 311 394 581 133 231 176 
208 11 82 134 553 37 107 193 571 575 418 431 62 
209 8 135 8 578 220 341 420 177 550 
210 11 21 229 532 73 263 396 131 256 272 286 442 
211 11 526 46 39 397 363 148 312 189 204 9 473 
212 11 565 458 121 546 459 305 337 40 277 344 6 
213 10 464 100 354 194 467 132 198 409 34 479 
214 9 406 528 545 318 343 172 229 21 532 
215 9 328 165 225 372 510 371 11 311 477 
216 11 519 520 178 559 461 452 338 61 86 267 309 
217 10 426 7 318 368 545 366 423 528 78 362 
218 11 401 322 534 364 74 272 286 263 396 138 3 
219 10 473 108 109 252 312 399 284 414 139 204 
220 11 578 550 499 251 420 83 341 450 232 245 47 
221 11 70 42 207 381 454 394 581 133 231 349 507 
222 11 438 317 342 25 246 224 68 105 373 430 380 
223 11 511 291 60 16 96 347 577 188 333 15 87 
224 11 246 373 68 382 435 181 222 430 438 317 380 
225 11 328 165 11 477 371 19 215 177 583 8 381 
226 11 153 293 551 321 54 62 15 22 78 362 418 
227 10 518 580 175 100 284 213 258 513 354 204 
228 11 230 497 436 348 24 77 367 2 560 457 446 
229 11 21 532 210 406 172 73 131 214 343 253 256 
230 11 497 228 436 348 2 24 77 457 367 28 199 
231 9 349 394 581 49 500 132 409 70 357 
232 11 393 450 47 83 261 245 296 257 303 33 127 
233 11 187 496 65 405 81 521 297 367 29 77 387 
234 11 124 400 483 158 385 494 547 41 516 206 67 
235 11 5 468 449 166 249 490 374 541 253 275 469 
236 11 80 197 156 254 191 472 340 248 576 181 323 
237 11 278 316 53 106 425 84 29 521 136 79 405 
238 10 369 374 266 5 474 540 235 527 255 383 
239 11 63 76 486 306 492 126 498 310 335 506 288 
240 11 277 458 40 121 546 212 565 116 170 20 459 
241 11 543 2 289 28 104 199 270 162 294 457 497 
242 11 292 524 103 113 147 489 188 95 411 539 160 
243 11 59 412 273 56 52 161 376 330 555 244 140 
244 11 161 140 51 412 542 59 324 376 402 466 243 
245 11 47 450 516 83 67 232 261 206 251 550 393 
246 11 373 224 68 382 435 430 181 222 317 380 438 
247 8 432 416 514 403 123 456 537 137 
248 11 340 472 69 576 169 181 478 290 236 435 80 
249 11 166 449 468 275 143 235 469 541 26 574 5 
250 11 110 271 498 310 101 492 288 486 410 536 126 
251 11 550 420 83 220 341 450 499 578 245 206 47 
252 10 109 414 108 139 219 473 284 513 518 312 
253 11 383 490 540 474 73 374 532 5 235 369 172 
254 11 191 80 156 323 236 197 472 340 248 576 478 
255 11 527 539 18 160 266 558 388 329 173 238 465 
256 11 131 442 120 272 263 396 210 439 298 21 202 
257 11 261 67 4 111 579 232 47 393 200 491 163 
258 11 7 513 368 426 318 217 528 343 545 214 139 
259 10 137 407 72 309 123 267 61 274 180 416 
260 11 352 379 342 40 443 121 317 361 380 184 404 
261 11 257 67 47 232 393 245 516 450 4 111 579 
262 10 190 304 480 418 15 347 16 333 201 523 
263 11 396 272 534 286 210 73 218 256 401 442 131 
264 11 149 112 538 205 475 176 133 386 392 339 50 
265 6 415 151 50 71 302 419 
266 10 238 527 255 539 173 369 374 18 5 160 
267 11 309 61 338 407 86 12 259 137 559 72 180 
268 10 332 572 440 98 351 556 196 88 365 301 
269 11 346 461 452 562 123 444 92 61 309 91 259 
270 11 289 294 104 543 241 199 79 2 136 28 77 
271 11 110 250 101 517 498 310 410 313 195 411 492 
272 11 396 534 263 202 218 401 442 256 74 286 322 
273 11 52 330 56 555 243 376 59 164 412 167 308 
274 11 535 326 13 57 370 43 72 502 308 167 33 
275 11 143 249 166 449 85 468 465 235 503 282 469 
276 7 506 522 422 504 76 306 536 
277 11 546 240 458 212 170 116 121 565 459 40 20 
278 11 316 237 53 106 425 84 29 280 521 136 405 
279 11 427 363 399 219 134 473 553 108 312 109 37 
280 11 106 462 568 481 168 14 512 387 81 84 53 
281 11 10 378 203 574 3 287 509 300 570 365 138 
282 11 503 465 85 90 329 558 75 275 445 143 388 
283 11 115 355 35 297 387 471 448 512 462 436 14 
284 10 175 580 518 204 227 312 108 252 473 109 
285 11 159 487 27 102 356 6 152 290 344 548 391 
286 11 73 534 218 263 396 322 138 364 541 272 401 
287 11 203 10 509 130 365 155 378 281 75 428 300 
288 11 492 504 536 486 498 250 239 63 310 76 110 
289 11 543 241 270 104 199 2 294 28 77 79 162 
290 9 356 69 285 548 169 487 159 27 248 
291 11 223 511 347 16 96 15 480 577 87 60 188 
292 11 524 103 147 242 113 489 95 160 539 18 388 
293 11 551 226 414 153 362 139 78 54 62 109 252 
294 11 104 270 199 289 136 79 543 241 65 77 2 
295 11 447 119 36 315 196 335 422 98 306 506 428 
296 11 33 303 127 393 43 232 370 502 13 164 167 
297 11 367 233 81 187 387 65 77 512 496 436 14 
298 7 360 120 439 131 256 442 34 
299 11 150 390 561 35 168 99 115 345 568 55 505 
300 11 365 556 509 10 130 332 281 98 268 287 88 
301 9 351 440 572 268 88 332 392 441 563 
302 10 145 71 570 50 151 265 88 415 300 556 
303 11 33 127 296 43 393 502 370 164 167 232 13 
304 11 480 347 16 15 333 291 190 223 511 201 60 
305 11 337 459 565 344 212 6 458 546 121 152 170 
306 11 76 335 63 422 239 506 486 125 492 93 447 
307 11 569 89 183 429 327 485 331 31 66 350 505 
308 11 167 502 57 330 13 43 164 555 334 535 326 
309 11 61 267 259 407 338 137 72 86 12 559 123 
310 11 498 126 410 101 486 250 492 110 239 63 271 
311 11 207 381 42 221 165 70 454 581 394 182 328 
312 10 108 473 204 284 219 175 580 252 518 109 
313 11 195 517 411 271 101 117 110 95 489 250 94 
314 9 154 384 453 91 515 92 58 336 522 
315 10 119 196 295 563 447 36 572 268 122 440 
316 11 278 237 53 106 425 84 29 280 521 405 481 
317 11 342 380 222 430 184 68 404 246 438 373 531 
318 9 528 545 214 7 217 343 406 172 258 
319 11 460 531 404 45 152 184 554 380 430 337 169 
320 11 171 25 529 105 443 141 438 222 317 342 260 
321 11 22 23 87 54 96 577 15 291 188 226 353 
322 11 364 218 401 74 534 3 138 286 26 272 541 
323 11 191 254 197 236 80 156 472 340 248 576 181 
324 11 140 376 334 51 555 408 244 542 330 180 161 
325 11 146 544 38 361 443 379 260 105 40 529 320 
326 11 535 13 274 370 43 502 57 127 33 308 167 
327 11 331 183 307 569 350 185 89 31 144 567 44 
328 10 165 225 215 11 371 477 372 177 311 381 
329 11 558 388 465 160 18 90 282 186 255 503 527 
330 11 555 273 167 308 376 164 52 334 502 56 324 
331 11 185 327 350 183 144 567 44 31 389 307 48 
332 10 268 440 556 572 351 98 88 365 300 130 
333 11 201 16 523 304 223 347 60 511 291 480 15 
334 11 324 555 180 376 57 308 330 140 408 167 273 
335 11 306 76 422 63 447 506 93 125 239 428 155 
336 9 433 58 384 515 91 122 522 453 315 
337 11 305 344 459 6 565 152 212 546 458 121 319 
338 11 86 12 267 559 61 309 520 408 407 466 180 
339 10 507 419 475 112 133 50 149 265 264 145 
340 11 248 472 69 576 169 478 236 181 80 290 156 
341 10 420 251 206 550 220 578 83 245 450 499 
342 11 317 380 352 260 184 430 222 404 531 105 460 
343 11 214 528 406 318 545 172 229 21 34 439 7 
344 11 6 459 337 305 159 487 152 27 565 546 212 
345 11 99 55 434 35 505 395 66 150 355 448 174 
346 11 91 269 562 92 444 314 154 384 336 433 123 
347 11 16 480 291 15 304 223 511 333 96 60 577 
348 11 24 436 228 230 446 560 497 471 118 525 413 
349 6 500 231 394 132 581 49 
350 11 185 144 31 389 567 44 331 48 174 525 64 
351 9 440 88 572 301 332 268 556 300 205 
352 11 260 342 379 40 121 404 184 380 565 305 337 
353 7 398 366 423 173 22 23 266 
354 9 464 213 34 100 360 194 132 298 467 
355 11 283 471 448 560 115 395 436 24 297 413 118 
356 8 548 290 285 482 451 27 391 102 
357 11 530 49 479 409 467 198 132 189 194 231 581 
358 9 46 148 526 182 311 9 39 215 189 
359 11 568 561 390 168 573 280 299 462 150 115 481 
360 10 34 120 298 439 131 256 354 464 442 21 
361 11 544 38 379 146 443 260 40 325 352 121 105 
362 11 78 426 551 368 217 139 7 54 513 258 423 
363 11 427 279 211 473 219 312 108 399 46 397 526 
364 11 322 218 74 401 3 138 534 286 26 574 272 
365 11 509 130 300 556 98 10 287 332 268 281 203 
366 7 423 398 353 217 545 78 318 
367 11 77 187 297 65 228 233 497 199 230 436 496 
368 11 426 7 258 513 217 362 318 139 528 78 545 
369 9 238 374 474 540 5 383 266 253 235 
370 11 326 43 13 535 127 33 296 274 303 502 393 
371 11 177 8 477 11 225 158 372 135 494 385 19 
372 11 510 158 371 234 215 385 494 124 483 328 8 
373 11 68 246 224 382 435 181 430 380 317 554 576 
374 10 369 474 540 5 238 383 253 490 235 468 
375 11 493 299 150 561 505 66 390 99 485 55 429 
376 11 555 140 324 273 330 334 412 59 161 244 243 
377 11 484 94 117 195 313 129 97 501 508 517 411 
378 11 281 203 10 574 3 287 26 138 469 143 541 
379 11 40 260 361 352 38 121 458 544 565 212 443 
380 11 184 430 404 531 317 460 319 342 45 68 554 
381 11 207 221 454 42 70 311 394 133 176 475 581 
382 11 435 181 373 68 246 224 576 430 554 45 460 
383 11 253 540 474 490 374 532 5 73 369 172 235 
384 8 515 453 58 336 314 91 522 433 
385 10 494 483 206 124 158 341 420 516 245 234 
386 9 176 149 264 538 112 133 475 205 392 
387 11 512 14 81 481 297 233 462 187 496 405 65 
388 11 160 18 558 329 186 255 90 527 465 539 282 
389 11 48 525 64 144 44 457 417 567 446 118 162 
390 11 168 561 299 150 568 115 35 283 462 345 359 
391 11 451 566 424 102 482 552 32 470 27 557 533 
392 6 538 205 301 351 264 88 
393 11 232 296 303 33 127 450 261 83 47 257 111 
394 9 231 581 70 349 42 500 49 221 132 
395 11 448 413 118 471 560 174 446 24 434 355 348 
396 11 263 272 534 286 210 218 73 442 256 401 131 
397 11 39 189 9 204 479 198 530 148 357 526 182 
398 7 423 366 353 78 217 54 545 
399 11 219 109 473 414 252 108 293 575 62 139 312 
400 11 124 234 547 41 483 516 67 385 494 158 206 
401 11 74 218 322 534 364 272 202 263 286 396 3 
402 11 244 466 542 51 161 140 412 59 30 324 408 
403 8 247 432 416 514 456 537 444 123 
404 11 184 531 319 460 380 430 45 554 152 317 342 
405 11 496 521 233 29 65 187 84 81 136 425 367 
406 9 172 214 545 343 528 229 21 318 532 
407 11 72 137 259 180 267 309 57 274 535 326 334 
408 11 542 51 324 140 466 12 334 180 244 376 555 
409 10 467 194 132 357 479 198 213 49 464 530 
410 11 310 126 101 498 17 437 445 95 250 110 486 
411 11 517 313 195 95 489 101 271 110 242 410 17 
412 11 59 161 243 244 376 140 273 324 555 56 51 
413 11 118 446 560 448 471 395 24 174 348 525 436 
414 11 109 139 252 293 362 551 513 368 108 399 426 
415 4 265 151 202 71 
416 8 247 432 514 403 123 137 259 456 
417 11 44 567 64 162 389 457 28 48 144 525 185 
418 11 62 107 575 153 37 226 190 262 293 553 15 
419 7 507 339 265 475 50 112 133 
420 10 251 341 550 220 578 83 206 499 450 245 
421 10 141 171 438 320 25 224 222 246 191 197 
422 10 506 306 76 335 276 63 239 486 504 295 
423 7 366 398 353 217 545 78 318 
424 11 391 552 566 451 32 557 482 102 470 533 157 
425 11 84 29 521 405 496 136 233 65 79 81 187 
426 10 368 217 7 362 78 258 513 318 528 545 
427 11 279 363 399 219 473 134 108 553 312 109 37 
428 11 155 93 125 36 75 130 287 98 335 447 509 
429 11 485 66 505 89 493 55 569 307 99 183 345 
430 11 380 184 531 68 404 460 317 45 554 373 246 
431 10 193 208 82 571 134 553 179 375 37 107 
432 8 247 416 514 403 209 456 123 537 
433 10 336 58 122 384 91 515 315 522 563 295 
434 11 345 395 174 55 99 448 31 413 35 471 118 
435 11 382 181 373 68 246 576 224 554 430 45 169 
436 11 228 348 24 230 497 560 471 367 446 77 118 
437 11 445 17 90 186 95 329 410 282 388 126 160 
438 11 222 25 224 317 246 105 68 373 141 342 171 
439 11 120 360 34 131 298 256 21 442 210 229 343 
440 10 572 268 351 332 301 88 556 98 196 300 
441 8 563 301 488 122 315 392 440 572 
442 8 256 131 272 202 396 263 120 298 
443 11 105 260 361 25 342 379 352 544 317 320 222 
444 11 562 456 123 537 403 416 346 247 91 432 514 
445 11 437 17 90 186 282 329 410 126 95 388 503 
446 11 118 560 413 24 471 448 348 525 395 436 48 
447 11 295 36 119 196 335 428 315 98 93 306 422 
448 11 471 395 413 560 118 446 24 174 348 355 436 
449 11 468 249 166 235 275 5 143 541 469 26 85 
450 11 83 47 232 245 251 550 393 499 220 261 420 
451 11 391 482 566 424 102 552 533 548 32 27 470 
452 11 461 519 216 269 520 61 178 92 346 559 309 
453 6 515 522 384 314 276 58 
454 11 221 381 133 207 70 176 475 42 507 112 149 
455 9 128 549 154 314 453 92 476 501 97 
456 10 537 444 403 562 247 432 416 488 122 123 
457 11 162 28 64 2 230 497 241 48 543 228 389 
458 11 121 212 565 40 546 459 305 277 337 170 344 
459 11 305 344 6 337 546 565 212 170 458 121 116 
460 11 531 319 45 554 404 184 430 380 152 169 68 
461 11 452 269 519 216 61 346 520 309 559 178 267 
462 11 481 14 387 512 168 115 81 280 283 297 568 
463 7 523 201 333 484 377 60 16 
464 9 354 213 194 100 34 360 132 467 298 
465 11 282 329 85 503 558 275 90 388 18 143 160 
466 11 542 51 408 402 244 12 140 324 161 86 376 
467 10 409 194 132 198 213 479 357 464 100 354 
468 11 449 235 249 166 5 275 541 469 26 143 490 
469 11 26 541 138 574 3 166 249 468 286 322 364 
470 11 116 32 552 170 20 557 566 102 424 391 451 
471 11 560 448 413 118 446 24 395 348 436 355 174 
472 11 340 248 478 80 236 69 156 576 169 181 197 
473 10 219 108 312 109 252 284 399 204 414 175 
474 10 540 374 369 383 253 5 490 238 172 235 
475 11 133 112 339 507 149 264 419 176 50 454 205 
476 11 564 508 97 501 94 117 129 110 250 271 536 
477 10 177 19 583 11 8 135 371 225 209 328 
478 9 472 340 248 69 290 156 80 236 356 
479 11 198 357 467 409 530 194 189 213 132 100 49 
480 11 15 304 347 16 291 223 511 333 190 96 321 
481 11 14 512 387 81 462 233 29 84 405 297 496 
482 7 451 391 424 533 566 548 102 
483 10 124 385 494 206 516 400 234 547 158 245 
484 11 377 117 195 313 94 60 411 517 129 201 271 
485 11 429 66 505 55 89 99 493 183 569 345 434 
486 11 492 239 63 498 288 76 310 126 504 250 306 
487 11 159 285 27 6 344 152 102 337 459 305 566 
488 6 441 392 563 301 537 122 
489 11 95 292 242 524 103 411 147 186 17 113 388 
490 11 253 383 73 540 5 235 374 474 532 286 468 
491 11 200 163 111 579 4 164 52 257 56 303 167 
492 11 288 486 504 498 536 239 63 250 310 76 126 
493 11 429 485 66 505 375 55 99 150 89 345 299 
494 10 385 483 206 124 341 158 420 516 245 251 
495 7 582 529 320 171 141 25 105 
496 11 405 65 233 187 521 29 81 84 136 367 77 
497 11 230 228 436 2 77 348 367 457 24 28 199 
498 11 310 250 486 126 492 410 101 110 288 239 271 
499 11 220 550 578 83 251 450 420 232 393 296 341 
500 6 349 231 394 132 49 581 
501 11 97 508 129 476 94 564 117 549 377 271 110 
502 11 167 308 43 13 164 127 33 303 57 326 535 
503 11 282 85 465 75 90 143 329 275 558 445 388 
504 10 536 288 492 486 506 76 239 498 63 250 
505 11 66 55 99 485 345 429 434 150 35 493 31 
506 10 422 306 76 276 335 63 239 504 486 492 
507 9 339 419 475 133 112 50 265 149 415 
508 11 97 501 476 564 94 129 117 549 110 271 377 
509 11 365 130 10 300 287 98 556 203 281 332 378 
510 10 372 158 215 234 371 328 124 385 494 483 
511 11 223 291 60 96 16 347 577 188 87 15 333 
512 11 387 14 81 481 297 233 462 496 405 187 29 
513 10 258 368 7 426 139 217 362 518 318 528 
514 8 247 416 432 403 137 123 209 578 
515 7 522 384 453 58 336 276 433 
516 11 67 245 547 47 261 41 206 257 483 450 232 
517 11 313 411 195 101 271 110 95 250 410 489 117 
518 10 227 580 175 284 513 258 100 204 139 252 
519 11 216 452 520 178 461 559 61 338 86 309 267 
520 11 178 559 216 86 338 519 12 61 267 309 466 
521 11 405 29 496 84 136 65 233 187 425 79 294 
522 7 515 276 453 384 506 422 58 
523 10 201 333 463 16 304 60 347 223 484 480 
524 11 103 292 147 242 113 489 160 539 18 388 95 
525 11 48 389 446 64 348 24 118 413 144 560 457 
526 11 148 46 39 211 397 9 182 189 530 357 479 
527 11 255 539 18 266 160 558 388 329 238 173 465 
528 9 318 214 545 343 406 7 172 217 258 
529 11 320 171 582 25 105 495 443 141 325 146 438 
530 11 357 49 479 189 409 467 198 581 9 231 132 
531 11 460 319 404 184 45 554 380 430 152 169 68 
532 11 229 21 210 73 253 383 490 172 406 540 263 
533 8 482 424 451 391 552 566 157 114 
534 11 218 272 401 263 396 322 74 286 364 202 73 
535 11 326 274 13 370 43 57 502 308 127 33 167 
536 10 504 288 492 486 250 498 239 276 506 63 
537 9 456 403 488 444 562 122 247 432 441 
538 9 205 392 264 149 88 112 351 301 50 
539 11 255 527 266 18 173 160 147 388 558 103 238 
540 10 474 383 253 374 490 369 5 238 235 532 
541 11 26 469 138 574 3 166 249 468 286 235 322 
542 11 51 466 408 140 244 324 161 402 376 334 412 
543 11 241 289 2 28 104 270 199 294 162 457 497 
544 11 38 361 146 325 379 443 40 260 121 352 240 
545 8 318 214 528 406 172 343 217 7 
546 11 212 459 565 170 458 277 121 6 305 116 344 
547 11 41 516 67 400 261 257 47 245 124 483 206 
548 9 356 482 451 391 290 285 102 566 27 
549 9 501 97 508 476 129 564 128 94 455 
550 11 251 220 420 83 499 578 341 450 245 47 206 
551 11 78 362 54 293 426 139 217 368 226 414 398 
552 11 32 557 424 470 566 20 391 451 102 116 157 
553 11 37 107 575 134 82 62 208 418 399 279 293 
554 11 45 460 531 319 169 184 404 430 382 152 380 
555 11 330 376 334 273 324 308 140 167 52 164 502 
556 11 300 332 365 268 88 351 440 509 572 98 130 
557 11 32 552 20 157 192 424 470 114 566 116 391 
558 11 329 18 160 388 465 255 527 90 282 539 186 
559 11 520 86 338 178 12 267 216 61 309 466 408 
560 11 471 446 118 413 24 448 348 395 436 525 228 
561 11 390 299 168 568 150 359 115 35 462 283 99 
562 11 444 456 346 123 537 91 403 416 433 269 336 
563 8 441 315 122 301 119 572 196 440 
564 11 476 508 97 501 94 117 110 250 271 536 129 
565 11 212 458 121 305 459 546 337 40 344 6 277 
566 11 391 102 451 424 552 470 32 482 27 557 116 
567 11 44 417 185 389 144 64 48 350 162 525 457 
568 11 168 280 390 462 359 561 115 481 299 14 512 
569 11 307 89 183 429 485 327 66 31 331 505 350 
570 11 71 302 145 151 281 74 300 10 50 265 3 
571 9 193 82 262 418 190 208 107 37 553 
572 10 440 268 332 351 301 556 196 98 88 119 
573 11 359 568 561 280 390 168 299 462 150 106 375 
574 11 3 26 138 469 541 378 166 364 249 322 143 
575 11 107 37 62 418 553 399 293 153 226 414 109 
576 11 181 435 382 169 248 554 69 340 45 373 68 
577 11 96 188 87 23 511 113 291 22 223 321 242 
578 9 220 499 550 251 420 83 341 450 206 
579 11 4 111 200 491 163 257 164 52 261 56 303 
580 10 175 227 518 284 204 100 198 213 312 513 
581 11 231 49 394 42 349 500 70 357 530 409 132 
582 10 495 529 320 171 325 146 105 443 25 141 
583 10 19 477 135 11 177 8 209 371 386 225 
DEPOT_SECTION
   1
   -1
EOF
