NAME :  X-n655-kX-w261-c9.cctp
COMMENT : 	Adapted by Maziero, Usberti and Cavellucci from the Uchoa, Pecin, Pessoa, Poggi, Subramanian, and Vidal (2013)
TYPE :  CCTP
DIMENSION :    649
EDGE_WEIGHT_TYPE : 	EUC_2D	
CAPACITY : 	5
VERTICES_WITHIN_COVERAGE :  9
VERTICES_WITH_DEMAND : 	261
NODE_COORD_SECTION
1 500 500
2 346 793
3 692 966
4 171 666
5 287 795
6 133 668
7 704 959
8 400 795
9 195 897
10 845 931
11 829 724
12 300 860
13 218 829
14 116 780
15 237 631
16 126 681
17 825 922
18 315 913
19 271 769
20 530 917
21 156 900
22 265 808
23 171 742
24 388 776
25 153 664
26 393 855
27 320 751
28 594 862
29 213 810
30 723 924
31 192 877
32 661 910
33 153 729
34 334 812
35 558 944
36 502 783
37 266 747
38 23 753
39 180 584
40 702 854
41 354 649
42 412 709
43 721 928
44 168 674
45 364 640
46 375 727
47 247 977
48 332 853
49 664 929
50 646 901
51 248 723
52 116 628
53 123 690
54 247 539
55 715 966
56 314 712
57 237 747
58 202 679
59 409 946
60 684 879
61 142 576
62 204 636
63 440 817
64 697 882
65 772 977
66 177 889
67 341 787
68 391 725
69 82 764
70 734 834
71 352 732
72 646 553
73 102 631
74 354 612
75 374 865
76 421 812
77 335 835
78 646 931
79 560 910
80 702 965
81 273 790
82 329 750
83 300 586
84 850 855
85 235 683
86 393 953
87 389 923
88 341 851
89 781 946
90 329 862
91 472 873
92 356 895
93 194 733
94 53 777
95 133 596
96 606 971
97 273 812
98 223 812
99 156 820
100 317 650
101 177 790
102 389 747
103 663 944
104 336 940
105 284 739
106 737 977
107 249 956
108 433 852
109 294 856
110 285 879
111 280 818
112 175 885
113 295 747
114 669 902
115 763 969
116 138 632
117 193 593
118 220 818
119 145 800
120 739 960
121 72 672
122 752 940
123 639 894
124 329 726
125 799 987
126 118 343
127 660 917
128 382 741
129 242 626
130 164 824
131 350 881
132 509 886
133 190 416
134 72 656
135 353 659
136 132 677
137 364 771
138 893 900
139 140 645
140 411 757
141 397 805
142 171 644
143 488 625
144 260 816
145 764 980
146 149 657
147 769 855
148 716 925
149 191 843
150 566 966
151 620 908
152 358 727
153 268 705
154 406 927
155 139 943
156 192 762
157 549 931
158 177 664
159 433 707
160 301 753
161 361 840
162 120 764
163 178 664
164 109 751
165 318 529
166 419 952
167 309 737
168 289 787
169 350 812
170 88 794
171 151 658
172 185 883
173 411 467
174 603 872
175 342 708
176 317 747
177 579 988
178 329 555
179 361 731
180 37 706
181 394 558
182 154 745
183 324 703
184 370 912
185 727 900
186 150 702
187 383 694
188 151 679
189 149 654
190 144 638
191 269 635
192 212 842
193 217 644
194 250 597
195 835 953
196 620 949
197 324 910
198 344 793
199 176 922
200 370 746
201 204 682
202 262 830
203 328 484
204 385 931
205 706 957
206 201 655
207 300 737
208 379 791
209 728 720
210 296 858
211 154 613
212 663 942
213 135 908
214 805 910
215 646 872
216 113 692
217 349 554
218 290 737
219 430 668
220 588 977
221 236 656
222 370 871
223 286 727
224 89 671
225 136 667
226 195 761
227 188 705
228 377 846
229 375 728
230 269 763
231 235 694
232 452 826
233 281 909
234 215 585
235 325 707
236 419 817
237 392 704
238 152 544
239 136 580
240 643 996
241 198 731
242 155 556
243 345 859
244 99 666
245 519 722
246 168 757
247 295 824
248 676 800
249 229 686
250 772 941
251 294 729
252 637 926
253 464 795
254 346 681
255 327 758
256 665 965
257 98 690
258 852 860
259 770 889
260 124 598
261 235 831
262 680 969
263 323 800
264 525 931
265 120 772
266 839 978
267 214 652
268 660 965
269 297 626
270 236 738
271 148 850
272 138 699
273 336 773
274 605 738
275 190 648
276 119 620
277 198 853
278 288 514
279 888 888
280 165 542
281 682 934
282 794 844
283 759 985
284 416 819
285 724 966
286 403 812
287 270 789
288 482 818
289 69 537
290 734 946
291 346 556
292 644 943
293 681 943
294 323 765
295 514 782
296 141 713
297 624 870
298 625 952
299 356 923
300 356 576
301 328 801
302 185 648
303 287 633
304 689 956
305 645 958
306 137 895
307 299 975
308 448 752
309 348 642
310 151 631
311 675 910
312 245 776
313 434 705
314 283 804
315 889 924
316 187 781
317 486 662
318 350 844
319 519 720
320 720 924
321 259 800
322 514 712
323 443 521
324 421 818
325 174 765
326 750 969
327 481 831
328 281 600
329 141 959
330 299 730
331 320 840
332 341 651
333 365 730
334 789 953
335 680 906
336 145 740
337 304 810
338 290 741
339 467 973
340 600 980
341 288 613
342 309 761
343 153 907
344 307 834
345 335 809
346 989 940
347 176 655
348 759 975
349 345 821
350 658 971
351 749 841
352 380 754
353 316 640
354 177 803
355 133 650
356 254 803
357 311 838
358 293 782
359 493 855
360 704 715
361 102 745
362 226 806
363 147 600
364 437 837
365 262 671
366 152 706
367 310 738
368 146 594
369 864 905
370 271 792
371 317 845
372 607 724
373 407 563
374 469 986
375 693 918
376 235 641
377 405 833
378 617 890
379 508 893
380 361 822
381 712 984
382 577 895
383 225 550
384 171 397
385 391 780
386 418 845
387 155 768
388 135 553
389 381 894
390 383 713
391 631 842
392 313 899
393 777 738
394 289 831
395 699 923
396 323 706
397 309 774
398 232 689
399 232 654
400 540 966
401 373 830
402 137 742
403 205 693
404 178 829
405 203 663
406 354 767
407 212 657
408 370 890
409 300 820
410 142 643
411 274 816
412 358 665
413 330 387
414 152 815
415 522 768
416 232 688
417 179 630
418 359 620
419 276 725
420 269 741
421 300 881
422 234 495
423 848 971
424 141 576
425 158 722
426 140 687
427 293 767
428 250 870
429 571 769
430 162 708
431 236 891
432 142 766
433 470 860
434 409 941
435 293 643
436 219 907
437 438 500
438 381 689
439 186 778
440 298 706
441 149 681
442 745 731
443 314 700
444 218 889
445 286 867
446 331 662
447 817 976
448 210 767
449 60 635
450 290 814
451 356 864
452 377 751
453 759 947
454 209 914
455 348 823
456 600 940
457 283 741
458 219 943
459 334 754
460 146 701
461 245 914
462 333 697
463 700 975
464 354 815
465 281 903
466 393 876
467 313 794
468 116 629
469 350 746
470 457 836
471 360 833
472 723 793
473 322 922
474 373 835
475 182 725
476 612 984
477 276 788
478 337 871
479 157 712
480 180 718
481 110 751
482 478 864
483 198 713
484 97 782
485 245 799
486 366 753
487 705 860
488 251 740
489 331 736
490 678 955
491 357 819
492 170 770
493 310 710
494 138 651
495 157 698
496 299 520
497 314 735
498 238 903
499 753 794
500 116 779
501 25 788
502 115 837
503 191 605
504 39 803
505 269 809
506 333 845
507 103 581
508 390 849
509 678 973
510 368 739
511 218 733
512 698 973
513 742 935
514 338 814
515 272 632
516 96 621
517 200 778
518 741 911
519 728 990
520 374 755
521 628 922
522 713 842
523 426 574
524 243 643
525 736 891
526 379 850
527 348 845
528 370 701
529 281 761
530 121 730
531 189 703
532 405 747
533 722 827
534 380 638
535 192 679
536 323 680
537 194 723
538 675 994
539 391 872
540 754 984
541 319 838
542 289 917
543 466 764
544 409 807
545 302 908
546 140 817
547 303 803
548 479 913
549 42 548
550 349 834
551 686 901
552 379 698
553 659 924
554 362 867
555 290 701
556 157 702
557 289 978
558 239 744
559 312 820
560 742 986
561 195 565
562 339 789
563 191 700
564 341 972
565 259 794
566 200 725
567 219 685
568 378 793
569 329 846
570 326 617
571 640 793
572 317 866
573 279 817
574 942 960
575 369 728
576 688 978
577 190 881
578 136 608
579 184 611
580 85 689
581 507 533
582 326 860
583 279 803
584 688 984
585 653 911
586 360 747
587 319 744
588 390 741
589 252 873
590 657 981
591 104 721
592 363 911
593 154 695
594 667 910
595 185 714
596 896 805
597 73 709
598 324 725
599 258 810
600 233 734
601 794 896
602 267 664
603 84 667
604 692 953
605 299 858
606 193 780
607 647 844
608 427 680
609 227 914
610 57 738
611 708 994
612 283 655
613 146 694
614 263 686
615 105 706
616 241 837
617 312 704
618 199 748
619 370 882
620 227 644
621 331 670
622 295 836
623 59 723
624 201 647
625 662 737
626 249 655
627 183 835
628 343 587
629 285 816
630 770 930
631 354 804
632 331 901
633 817 995
634 172 670
635 397 950
636 391 900
637 309 797
638 324 959
639 437 695
640 77 613
641 361 894
642 721 986
643 272 770
644 688 871
645 708 917
646 380 847
647 359 931
648 83 847
649 185 712
DEMAND_SECTION
2 1
3 1
4 1
5 1
6 1
7 1
8 1
9 1
10 1
11 1
12 1
13 1
14 1
15 1
16 1
17 1
18 1
19 1
20 1
21 1
22 1
23 1
24 1
25 1
26 1
27 1
28 1
29 1
30 1
31 1
32 1
33 1
34 1
35 1
36 1
37 1
38 1
39 1
40 1
41 1
42 1
43 1
44 1
45 1
46 1
47 1
48 1
49 1
50 1
51 1
52 1
53 1
54 1
55 1
56 1
57 1
58 1
59 1
60 1
61 1
62 1
63 1
64 1
65 1
66 1
67 1
68 1
69 1
70 1
71 1
72 1
73 1
74 1
75 1
76 1
77 1
78 1
79 1
80 1
81 1
82 1
83 1
84 1
85 1
86 1
87 1
88 1
89 1
90 1
91 1
92 1
93 1
94 1
95 1
96 1
97 1
98 1
99 1
100 1
101 1
102 1
103 1
104 1
105 1
106 1
107 1
108 1
109 1
110 1
111 1
112 1
113 1
114 1
115 1
116 1
117 1
118 1
119 1
120 1
121 1
122 1
123 1
124 1
125 1
126 1
127 1
128 1
129 1
130 1
131 1
132 1
133 1
134 1
135 1
136 1
137 1
138 1
139 1
140 1
141 1
142 1
143 1
144 1
145 1
146 1
147 1
148 1
149 1
150 1
151 1
152 1
153 1
154 1
155 1
156 1
157 1
158 1
159 1
160 1
161 1
162 1
163 1
164 1
165 1
166 1
167 1
168 1
169 1
170 1
171 1
172 1
173 1
174 1
175 1
176 1
177 1
178 1
179 1
180 1
181 1
182 1
183 1
184 1
185 1
186 1
187 1
188 1
189 1
190 1
191 1
192 1
193 1
194 1
195 1
196 1
197 1
198 1
199 1
200 1
201 1
202 1
203 1
204 1
205 1
206 1
207 1
208 1
209 1
210 1
211 1
212 1
213 1
214 1
215 1
216 1
217 1
218 1
219 1
220 1
221 1
222 1
223 1
224 1
225 1
226 1
227 1
228 1
229 1
230 1
231 1
232 1
233 1
234 1
235 1
236 1
237 1
238 1
239 1
240 1
241 1
242 1
243 1
244 1
245 1
246 1
247 1
248 1
249 1
250 1
251 1
252 1
253 1
254 1
255 1
256 1
257 1
258 1
259 1
260 1
261 1
262 1
COVERAGE_SECTION
2 9 198 67 562 631 169 345 301 34 273 
3 9 512 80 304 262 463 576 604 7 509 
4 9 634 158 163 44 347 25 142 171 302 
5 9 168 314 583 477 358 81 370 287 547 
6 9 225 136 16 355 494 146 25 426 171 
7 9 205 80 55 604 3 304 512 463 285 
8 9 141 544 286 385 208 24 568 76 236 
9 9 172 577 31 66 454 112 444 436 199 
10 9 17 195 369 423 214 315 266 447 138 
11 9 393 442 209 499 596 282 360 472 84 
12 9 605 210 109 445 572 421 371 110 357 
13 9 118 192 261 98 29 362 616 149 277 
14 9 500 265 162 484 164 432 481 170 119 
15 9 129 376 524 620 193 399 221 626 267 
16 9 136 53 6 426 216 225 272 441 613 
17 9 10 214 195 601 369 334 89 423 447 
18 9 197 473 392 545 632 542 104 233 421 
19 9 643 230 529 287 477 81 427 37 370 
20 9 264 157 79 379 132 35 400 548 382 
21 9 343 306 213 66 112 199 172 9 577 
22 9 505 599 97 144 321 356 411 565 583 
23 9 246 182 475 33 325 425 93 336 480 
24 9 385 208 568 8 352 137 520 452 102 
25 9 171 146 189 188 225 441 4 44 6 
26 9 508 526 646 539 228 75 466 377 386 
27 9 176 587 82 255 294 459 342 367 497 
28 9 174 297 378 382 391 151 215 123 607 
29 9 98 118 362 13 261 192 485 517 606 
30 9 320 43 148 645 513 518 185 395 290 
31 9 577 172 66 112 9 277 444 149 192 
32 9 594 127 585 114 311 553 50 49 335 
33 9 425 336 182 479 296 402 23 366 430 
34 9 345 514 301 349 169 263 455 464 198 
35 9 157 150 400 79 264 20 456 220 177 
36 9 295 415 253 288 543 327 308 245 319 
37 9 420 230 488 457 105 529 19 419 643 
38 9 501 610 94 623 180 504 69 597 170 
39 9 117 503 561 579 234 368 363 242 61 
40 9 487 522 644 64 60 533 70 351 525 
41 9 309 135 45 332 412 446 534 418 621 
42 9 159 237 313 68 390 639 187 608 552 
43 9 30 320 148 645 290 513 395 518 185 
44 9 634 4 158 163 25 188 441 347 171 
45 9 41 309 534 418 135 332 412 74 446 
46 9 229 575 333 510 179 68 128 390 152 
47 9 107 557 458 307 461 609 542 454 436 
48 9 506 569 88 90 582 243 371 77 331 
49 9 553 127 212 103 78 32 281 594 585 
50 9 123 585 32 127 114 594 553 151 252 
51 9 488 270 600 558 57 153 419 420 37 
52 9 468 276 73 516 116 355 578 139 190 
53 9 16 216 136 272 426 613 6 615 257 
54 9 383 422 278 496 234 194 561 328 83 
55 9 285 7 80 205 463 381 512 642 3 
56 9 493 617 396 235 443 183 598 440 124 
57 9 558 270 600 488 511 51 37 312 420 
58 9 201 535 403 405 567 206 407 563 531 
59 9 434 166 635 86 154 204 87 636 184 
60 9 644 64 551 114 335 487 40 311 594 
61 9 424 239 368 95 242 388 363 260 578 
62 9 624 193 275 206 267 302 407 620 417 
63 9 232 324 76 364 236 284 470 253 544 
64 9 60 644 551 487 40 335 114 185 311 
65 9 145 115 348 283 540 326 125 334 560 
66 9 112 172 577 31 9 21 343 199 306 
67 9 562 198 2 273 301 631 263 345 406 
68 9 390 46 229 588 128 237 102 575 42 
69 9 484 361 164 170 481 94 610 500 14 
70 9 533 351 522 40 487 147 472 499 525 
71 9 152 179 333 469 510 575 586 489 200 
72 9 581 360 143 372 625 209 274 317 442 
73 9 516 52 468 276 640 244 116 355 134 
74 9 418 628 570 45 309 300 41 534 332 
75 9 222 554 526 619 451 539 228 646 26 
76 9 236 324 284 544 286 63 141 377 8 
77 9 506 569 550 331 527 541 88 318 349 
78 9 252 292 553 49 127 212 521 103 585 
79 9 382 157 20 35 264 456 379 132 150 
80 9 7 205 512 3 463 55 304 604 576 
81 9 287 370 477 583 5 565 168 314 321 
82 9 459 255 27 176 587 489 294 469 497 
83 9 328 341 269 570 178 628 303 194 515 
84 9 258 279 369 282 138 596 601 214 17 
85 9 416 249 398 231 567 221 614 399 365 
86 9 635 59 434 204 166 154 87 647 184 
87 9 204 154 184 636 434 635 592 59 86 
88 9 48 243 527 506 318 569 90 77 582 
89 9 250 334 630 453 115 122 65 348 145 
90 9 582 48 478 572 88 243 569 506 371 
91 9 482 433 359 132 470 379 548 327 108 
92 9 641 131 408 592 619 184 389 632 222 
93 9 241 537 566 475 618 483 480 595 649 
94 9 501 504 69 38 170 610 484 623 361 
95 9 260 578 368 363 239 61 424 211 276 
96 9 340 476 220 196 298 177 456 150 305 
97 9 411 505 573 22 111 583 314 629 144 
98 9 118 362 29 13 261 485 616 192 356 
99 9 414 130 546 119 404 354 271 627 101 
100 9 353 446 332 621 435 269 536 309 303 
101 9 316 354 439 606 492 325 517 387 156 
102 9 588 128 352 452 532 520 200 68 510 
103 9 212 49 293 292 490 553 78 256 268 
104 9 638 473 647 299 197 564 18 632 592 
105 9 457 218 338 223 113 251 420 207 419 
106 9 560 326 519 120 285 540 642 348 283 
107 9 47 458 461 557 609 307 498 542 233 
108 9 364 386 470 232 377 63 324 284 236 
109 9 210 605 12 445 622 110 357 371 394 
110 9 445 421 12 210 465 109 605 233 392 
111 9 573 629 411 97 450 314 505 583 247 
112 9 66 172 577 31 9 21 343 199 277 
113 9 160 338 207 218 457 105 167 330 367 
114 9 594 311 32 335 127 551 585 50 553 
115 9 348 145 65 326 283 540 453 120 106 
116 9 190 410 139 310 355 494 52 276 468 
117 9 503 39 579 234 561 417 62 211 363 
118 9 98 13 29 362 261 192 616 485 356 
119 9 414 546 99 130 354 101 387 432 14 
120 9 326 290 285 106 122 453 55 348 513 
121 9 603 134 224 580 244 257 597 449 216 
122 9 453 513 290 250 630 120 326 89 115 
123 9 50 378 585 215 151 32 297 521 114 
124 9 598 489 497 235 56 396 587 175 367 
125 9 633 447 65 334 145 115 283 266 348 
126 9 384 133 422 289 238 280 388 242 413 
127 9 32 553 585 594 49 114 311 78 50 
128 9 588 102 452 200 352 510 229 46 520 
129 9 15 376 524 620 191 194 399 626 193 
130 9 99 404 414 627 354 546 119 271 149 
131 9 92 478 641 451 554 619 222 408 243 
132 9 379 359 20 482 91 548 433 264 79 
133 9 384 422 126 280 238 54 383 278 413 
134 9 121 603 224 449 244 580 73 516 257 
135 9 412 41 332 309 45 446 254 621 534 
136 9 16 6 225 426 53 441 188 613 272 
137 9 406 486 520 352 452 586 24 208 200 
138 9 279 315 369 10 258 84 17 574 195 
139 9 410 494 190 355 116 189 146 171 310 
140 9 532 102 588 24 385 352 128 452 308 
141 9 286 8 544 568 208 284 76 236 385 
142 9 347 302 417 275 158 163 4 171 189 
143 9 317 219 523 608 639 322 581 313 159 
144 9 599 22 505 97 202 356 411 321 573 
145 9 283 348 65 115 540 326 560 106 120 
146 9 171 189 25 494 139 225 410 355 6 
147 9 351 282 259 70 601 525 533 522 185 
148 9 320 43 30 645 395 375 185 290 513 
149 9 627 277 404 192 13 130 31 118 577 
150 9 35 220 177 400 340 157 96 456 476 
151 9 521 378 123 252 50 585 78 297 456 
152 9 179 71 333 575 510 46 229 586 469 
153 8 614 419 555 51 223 440 231 251 
154 9 434 87 59 204 635 166 86 636 184 
155 9 329 213 343 199 21 306 66 112 9 
156 9 226 618 439 325 517 606 448 316 492 
157 9 35 20 79 264 400 150 382 456 379 
158 9 163 4 634 347 44 302 142 275 535 
159 9 313 639 42 608 219 237 68 308 532 
160 9 113 342 207 338 427 176 367 167 27 
161 9 471 318 474 550 527 401 228 380 646 
162 9 265 14 481 500 164 432 361 402 484 
163 9 158 4 634 347 44 302 275 142 535 
164 9 481 361 162 265 530 402 500 14 69 
165 9 496 178 278 291 217 203 83 300 628 
166 9 59 434 635 86 154 204 87 339 636 
167 9 367 497 207 330 587 176 113 251 27 
168 9 358 5 477 81 314 287 370 583 427 
169 9 464 631 349 491 455 514 345 380 34 
170 9 484 14 69 500 94 265 162 164 481 
171 9 146 189 25 494 139 225 410 355 6 
172 9 577 31 66 112 9 277 21 444 454 
173 9 437 323 203 181 373 217 523 291 165 
174 9 28 297 378 382 151 391 123 215 50 
175 9 462 235 183 396 124 152 598 71 254 
176 9 587 27 367 82 497 167 255 342 160 
177 9 220 340 150 96 476 400 35 456 196 
178 9 291 217 165 300 628 83 496 278 74 
179 9 333 152 71 575 510 229 46 586 200 
180 9 623 597 610 38 121 580 134 603 224 
181 9 373 523 300 217 291 628 323 178 74 
182 9 336 33 23 402 246 387 425 432 325 
183 9 396 235 443 462 617 56 493 175 598 
184 9 592 299 641 389 87 92 408 647 204 
185 9 525 518 30 320 645 148 43 64 395 
186 9 366 460 556 495 593 613 272 479 430 
187 9 438 552 237 528 390 68 42 46 229 
188 9 441 426 25 593 613 44 136 225 495 
189 9 146 171 25 494 139 410 355 190 225 
190 9 410 116 139 310 494 355 189 146 171 
191 9 515 303 612 435 524 129 626 269 341 
192 9 13 277 149 118 261 616 627 29 98 
193 9 267 620 407 62 624 376 399 206 221 
194 9 129 328 15 234 341 515 191 376 524 
195 9 423 10 266 447 17 334 633 125 214 
196 9 298 456 292 96 305 521 252 78 476 
197 9 18 632 473 392 545 104 92 299 542 
198 9 2 562 67 631 301 345 169 34 263 
199 9 343 21 9 66 454 112 172 155 213 
200 9 510 486 452 520 586 128 352 179 333 
201 9 58 403 535 567 405 563 249 407 531 
202 9 144 411 599 97 573 22 111 505 616 
203 9 165 496 278 178 217 291 173 422 300 
204 9 87 154 635 86 184 434 647 59 299 
205 9 7 80 55 604 3 304 512 463 285 
206 9 405 624 407 267 275 302 62 193 58 
207 9 330 167 218 251 367 113 338 497 105 
208 9 568 385 24 8 141 137 631 286 2 
209 9 442 360 393 625 472 499 248 11 533 
210 9 109 605 12 445 572 622 421 110 357 
211 9 363 310 578 368 116 95 190 417 579 
212 9 103 49 293 553 292 78 490 281 256 
213 9 306 343 21 155 199 66 112 329 172 
214 9 601 17 630 259 89 10 250 334 195 
215 9 297 123 607 50 378 391 114 60 585 
216 9 53 257 615 16 136 272 426 580 244 
217 9 291 178 300 628 165 181 74 83 373 
218 9 338 105 457 251 207 113 223 330 419 
219 9 608 639 313 159 42 237 438 187 317 
220 9 340 177 96 150 476 456 196 35 298 
221 9 399 626 376 524 620 193 267 407 15 
222 9 75 554 619 451 408 539 131 526 466 
223 9 251 419 218 105 330 457 338 207 113 
224 9 603 244 121 580 257 134 216 16 615 
225 9 6 136 146 494 16 25 171 355 189 
226 9 156 618 448 517 439 606 325 316 246 
227 9 531 563 649 595 483 480 537 403 475 
228 9 646 526 474 508 401 161 26 75 471 
229 9 46 575 333 510 179 128 68 152 390 
230 9 19 643 529 37 420 427 287 457 477 
231 9 398 416 249 85 567 614 403 51 201 
232 9 470 63 364 327 288 108 324 253 76 
233 9 465 542 545 110 18 392 421 461 445 
234 9 117 561 503 39 383 194 579 129 15 
235 9 396 183 56 443 462 617 493 175 598 
236 9 324 284 76 544 286 63 377 141 364 
237 9 187 390 552 438 42 68 528 46 229 
238 9 242 280 388 61 424 239 561 39 368 
239 9 424 61 95 368 260 363 388 578 242 
240 9 590 350 538 476 268 256 305 509 96 
241 9 93 566 537 475 618 483 511 595 480 
242 9 238 280 388 61 424 239 39 368 561 
243 9 88 451 48 478 527 90 318 506 554 
244 9 224 603 257 580 121 134 216 16 6 
245 9 319 322 415 295 36 317 543 429 308 
246 9 325 492 23 387 182 156 226 432 439 
247 9 409 394 450 622 629 111 344 337 559 
248 9 571 472 533 607 522 40 391 625 70 
249 9 398 416 85 231 567 201 403 58 221 
250 9 89 630 453 122 334 115 513 65 326 
251 9 330 223 218 207 338 105 457 167 113 
252 9 78 521 292 553 585 127 151 49 50 
253 9 288 543 63 232 36 327 470 76 308 
254 9 621 412 462 135 536 446 175 332 183 
255 9 82 294 459 27 176 587 273 342 489 
256 9 268 350 509 262 490 590 103 305 212 
257 9 580 216 615 224 244 53 603 16 597 
258 9 84 279 369 138 282 17 601 214 596 
259 9 601 147 525 518 214 630 185 282 250 
260 9 95 578 239 368 276 363 507 61 424 
261 9 616 13 118 98 192 202 362 144 29 
262 9 509 3 576 490 256 304 584 512 268 
263 8 301 467 637 345 34 562 547 337 
264 9 20 157 35 400 79 379 132 548 150 
265 9 162 500 14 432 481 164 484 361 402 
266 9 423 447 195 633 125 10 334 17 89 
267 9 407 193 206 624 620 405 399 62 221 
268 9 256 350 590 305 262 509 103 490 212 
269 9 303 341 435 353 515 191 570 100 328 
270 9 600 558 57 488 51 511 37 420 566 
271 9 99 130 546 414 502 404 627 112 149 
272 9 460 613 186 426 296 366 593 53 495 
273 8 67 294 562 255 406 459 2 198 
274 9 372 429 625 571 245 319 415 248 322 
275 9 302 624 206 347 62 142 163 405 158 
276 9 52 468 73 578 116 260 516 95 190 
277 9 149 192 627 31 577 13 404 172 112 
278 9 496 165 54 203 422 178 291 83 217 
279 9 138 369 315 258 84 10 17 596 195 
280 9 238 242 388 561 61 424 39 239 368 
281 9 293 49 375 395 103 212 490 604 304 
282 9 147 351 259 601 84 258 70 499 214 
283 9 540 145 348 65 115 560 326 106 519 
284 9 236 324 76 544 286 377 63 141 386 
285 9 55 120 106 205 642 7 80 290 381 
286 9 544 141 284 8 236 76 324 377 568 
287 7 81 370 477 565 321 583 5 
288 9 327 253 232 470 359 36 63 433 482 
289 9 549 507 388 640 239 260 424 61 238 
290 9 513 120 122 43 285 30 453 320 55 
291 9 217 178 300 628 165 181 83 74 496 
292 9 78 305 252 103 212 298 49 553 196 
293 9 281 490 304 604 103 212 49 3 262 
294 8 255 27 273 342 82 459 397 176 
295 9 36 415 288 543 253 429 327 245 319 
296 9 366 460 186 272 479 425 556 33 613 
297 9 174 378 215 123 391 28 607 50 151 
298 9 196 292 305 96 456 252 78 521 476 
299 9 647 592 184 104 92 641 204 87 632 
300 9 628 291 217 178 74 181 418 570 373 
301 9 263 345 34 514 562 467 198 67 637 
302 9 275 347 142 624 163 206 158 417 62 
303 9 269 435 515 191 341 612 353 100 328 
304 9 604 3 490 7 293 80 262 205 512 
305 9 292 268 350 256 298 103 212 590 78 
306 9 213 21 343 112 66 271 199 155 172 
307 9 557 638 564 104 47 107 473 542 18 
308 9 543 140 532 253 159 313 42 639 102 
309 9 41 332 45 135 412 418 446 74 100 
310 9 190 116 410 139 211 189 142 494 146 
311 9 335 594 114 32 551 127 375 553 49 
312 6 485 565 19 230 287 321 
313 9 159 639 42 608 219 237 68 308 532 
314 9 583 5 450 629 97 111 573 411 505 
315 9 138 369 279 10 195 423 17 574 258 
316 9 439 606 101 517 156 492 325 226 354 
317 9 143 219 322 639 608 313 319 245 159 
318 9 527 550 88 161 471 243 77 506 48 
319 9 245 322 415 295 36 317 543 429 308 
320 9 30 43 148 645 395 185 513 518 290 
321 7 356 565 22 599 505 370 485 
322 9 319 245 317 415 295 543 36 308 639 
323 9 437 373 523 181 173 581 217 291 300 
324 9 236 284 76 544 63 286 377 364 141 
325 9 492 246 156 439 387 226 316 23 606 
326 9 348 115 120 106 540 145 283 560 65 
327 9 288 470 359 232 433 482 253 63 91 
328 9 341 83 194 269 515 303 191 435 129 
329 9 155 199 213 343 21 306 66 458 112 
330 9 251 207 218 167 223 338 367 497 105 
331 9 541 371 357 569 344 506 77 48 582 
332 9 309 41 135 446 621 412 100 45 353 
333 9 179 575 152 510 46 229 71 200 586 
334 9 89 250 65 630 115 453 125 447 145 
335 9 311 551 114 594 375 32 127 395 60 
336 9 402 182 33 425 23 432 530 296 246 
337 9 547 409 559 637 450 247 467 629 263 
338 9 218 105 457 113 207 251 330 223 160 
339 9 374 166 548 59 434 264 400 635 154 
340 9 96 220 476 177 150 196 298 456 240 
341 9 328 269 303 515 191 83 435 570 353 
342 9 160 397 27 294 176 427 255 113 587 
343 9 21 213 306 199 66 112 155 172 9 
344 9 357 622 541 331 371 559 247 409 394 
345 9 34 514 301 169 263 349 198 2 455 
346 9 574 315 138 279 369 10 423 195 266 
347 9 158 163 302 4 142 275 634 44 25 
348 9 115 145 283 540 326 65 560 106 120 
349 9 455 169 514 464 491 34 550 345 380 
350 9 268 256 590 305 509 262 490 103 212 
351 9 70 147 533 522 282 499 487 40 259 
352 9 452 520 102 128 200 486 588 510 586 
353 9 100 435 269 570 332 446 303 309 621 
354 9 101 316 130 404 99 439 414 606 119 
355 9 494 139 410 189 190 146 225 6 116 
356 7 321 599 485 565 22 144 505 
357 9 344 541 331 371 622 559 569 247 409 
358 9 168 5 427 397 477 81 637 467 547 
359 9 482 433 327 91 132 288 379 470 232 
360 9 209 442 625 393 472 248 499 372 571 
361 9 164 481 530 591 162 69 265 402 484 
362 7 98 118 29 485 13 261 356 
363 9 368 578 95 211 239 260 61 424 310 
364 9 108 232 63 470 386 324 236 284 76 
365 8 602 614 626 612 85 221 399 416 
366 9 186 556 460 479 495 430 593 296 613 
367 9 167 497 207 176 587 330 27 113 160 
368 9 363 95 239 578 61 424 211 260 39 
369 9 138 279 315 10 17 258 84 195 214 
370 9 81 287 477 565 321 583 5 22 314 
371 9 331 541 357 569 344 506 48 582 77 
372 9 274 625 429 571 245 319 322 415 360 
373 9 181 523 300 323 217 291 628 437 74 
374 9 339 166 59 400 548 434 264 635 86 
375 9 395 645 335 551 281 311 148 594 293 
376 9 524 620 15 399 221 129 193 626 267 
377 9 284 386 236 286 324 508 26 76 544 
378 9 151 297 123 174 50 215 521 28 382 
379 9 132 20 548 91 359 264 482 433 79 
380 9 491 464 471 455 401 169 349 550 161 
381 8 642 611 463 519 55 512 80 285 
382 9 79 174 28 378 151 157 456 20 35 
383 9 54 561 234 194 117 39 422 280 503 
384 9 133 126 422 280 238 413 242 388 54 
385 9 24 208 8 568 141 137 352 140 520 
386 9 108 377 364 284 26 324 236 508 76 
387 9 432 492 246 325 182 336 23 101 402 
388 9 238 242 61 424 239 280 368 95 507 
389 9 408 636 619 641 184 466 539 92 222 
390 9 237 68 46 552 229 528 187 575 438 
391 9 607 297 215 174 28 378 571 123 50 
392 9 18 545 197 632 421 473 542 465 572 
393 9 442 209 11 499 360 472 70 533 282 
394 9 622 247 111 409 629 450 573 344 411 
395 9 375 645 148 281 320 43 30 335 551 
396 9 235 183 56 443 617 462 493 175 598 
397 8 342 294 427 358 467 160 637 168 
398 9 416 249 231 85 567 403 201 614 58 
399 9 221 620 376 524 626 193 267 407 15 
400 9 150 35 157 264 177 220 20 79 340 
401 9 474 471 380 161 228 646 491 526 464 
402 9 336 182 530 33 432 162 481 164 296 
403 9 201 58 563 567 531 535 227 483 249 
404 9 627 130 149 99 354 414 277 192 271 
405 9 206 407 58 267 624 201 535 275 302 
406 9 137 486 273 469 586 520 67 459 200 
407 9 267 206 405 193 624 399 620 62 58 
408 9 619 641 389 92 222 131 184 592 636 
409 9 247 337 450 559 344 394 629 547 622 
410 9 139 190 494 355 116 189 310 146 171 
411 9 97 573 111 505 629 22 144 583 314 
412 9 135 41 254 332 309 45 446 621 438 
413 9 203 173 278 496 133 165 422 437 384 
414 9 99 546 130 119 354 404 101 271 627 
415 9 295 36 245 319 429 543 322 253 288 
416 9 398 249 85 231 567 403 201 58 614 
417 9 142 302 579 275 347 62 310 503 624 
418 9 74 45 309 534 41 570 332 628 135 
419 9 223 105 420 457 218 251 338 153 37 
420 9 37 457 105 419 488 218 338 223 230 
421 9 110 445 12 392 210 572 605 109 545 
422 9 54 383 278 496 561 280 133 165 234 
423 9 266 195 447 633 10 125 17 315 334 
424 9 61 239 368 95 242 388 363 260 578 
425 9 33 479 430 366 296 556 186 336 480 
426 9 613 441 272 136 188 16 460 593 53 
427 9 529 358 160 342 397 113 168 643 19 
428 9 589 431 616 498 110 445 444 202 261 
429 9 274 415 295 372 36 245 319 571 322 
430 9 479 556 366 495 186 425 593 460 480 
431 9 498 444 436 589 428 461 609 454 9 
432 9 387 162 265 182 402 336 246 492 500 
433 9 482 91 359 470 327 108 232 364 288 
434 9 59 154 166 635 86 204 87 636 184 
435 9 303 612 269 353 515 100 191 341 602 
436 9 609 454 444 498 431 9 461 458 577 
437 9 323 173 373 181 523 581 217 291 203 
438 9 187 552 528 237 390 412 254 42 68 
439 9 316 606 517 101 156 325 492 226 448 
440 9 555 493 617 56 443 251 223 330 396 
441 9 188 426 613 593 25 136 225 495 44 
442 9 209 393 360 499 472 625 11 248 533 
443 9 617 183 396 493 56 235 440 462 536 
444 9 431 436 9 498 454 609 31 577 172 
445 9 110 210 109 12 605 421 572 622 589 
446 9 621 332 100 536 135 254 41 309 353 
447 9 633 125 266 195 423 334 65 89 10 
448 9 517 226 156 606 618 439 316 57 511 
449 9 134 640 121 516 603 73 224 244 52 
450 9 629 111 247 573 314 409 337 411 583 
451 9 554 243 222 75 131 88 478 318 527 
452 9 352 520 200 128 486 102 510 588 586 
453 9 122 250 630 513 89 115 120 326 290 
454 9 436 609 9 444 458 498 199 431 461 
455 9 349 464 491 169 550 380 514 471 34 
456 9 196 298 96 521 151 220 252 340 35 
457 9 105 338 218 113 223 420 251 207 419 
458 9 609 454 107 436 461 47 498 199 9 
459 9 82 255 27 294 176 469 489 587 273 
460 9 186 613 272 366 593 495 556 296 426 
461 9 498 609 431 436 233 454 444 465 458 
462 9 183 235 396 175 443 536 254 617 56 
463 9 512 80 3 576 381 584 7 55 205 
464 9 169 491 380 455 349 631 514 471 34 
465 9 233 542 545 110 421 392 18 445 461 
466 9 539 26 75 389 222 619 636 408 508 
467 8 637 263 547 301 337 397 358 168 
468 9 52 276 73 116 516 355 139 190 578 
469 9 586 71 486 459 179 510 200 82 152 
470 9 232 364 63 327 433 108 288 482 91 
471 9 161 380 550 401 474 491 318 455 527 
472 9 499 533 70 248 522 351 40 442 487 
473 9 18 197 104 632 545 392 542 299 638 
474 9 401 228 161 471 646 526 380 508 491 
475 9 480 595 537 649 93 241 566 23 483 
476 9 340 96 220 177 240 298 196 305 590 
477 9 81 287 370 5 168 583 314 358 565 
478 9 90 243 131 582 48 88 451 572 554 
479 9 430 366 425 556 186 495 296 460 33 
480 9 595 475 649 227 537 531 483 93 430 
481 9 164 361 162 265 530 402 500 14 69 
482 9 433 91 359 327 470 132 379 232 288 
483 9 537 566 227 531 595 649 563 241 480 
484 9 170 14 500 69 265 162 164 481 361 
485 6 356 321 565 599 362 22 
486 9 200 520 586 452 352 510 469 137 406 
487 9 40 522 644 64 60 533 70 525 551 
488 9 558 270 57 37 51 420 600 230 419 
489 9 124 598 82 587 497 176 459 27 71 
490 9 304 293 262 604 256 3 509 103 212 
491 9 380 464 169 455 349 471 631 550 401 
492 9 325 246 387 439 316 101 156 606 226 
493 9 56 617 443 440 396 235 183 598 555 
494 9 355 139 410 189 146 190 171 225 6 
495 9 556 593 186 366 430 460 613 479 272 
496 9 278 165 178 203 54 291 217 83 422 
497 9 167 367 587 176 207 598 330 27 124 
498 9 431 461 609 436 444 454 589 428 9 
499 9 472 70 533 351 393 522 147 442 282 
500 9 14 265 162 484 164 432 481 170 119 
501 9 504 94 38 610 69 170 484 623 180 
502 9 546 648 271 414 99 119 130 170 14 
503 9 579 117 39 417 234 62 211 561 275 
504 9 501 94 170 38 69 484 648 610 14 
505 9 22 97 411 144 599 583 321 573 111 
506 9 569 48 77 88 331 527 371 541 90 
507 9 260 239 95 424 61 516 640 276 388 
508 9 26 646 526 228 377 474 75 539 401 
509 9 262 576 256 584 3 490 268 304 350 
510 9 200 333 179 575 586 229 46 128 486 
511 9 600 270 241 566 57 93 558 618 537 
512 9 463 3 80 576 7 584 55 205 262 
513 9 122 290 453 30 43 518 120 320 148 
514 9 34 345 349 169 455 301 464 631 491 
515 9 191 303 435 341 612 269 129 524 602 
516 9 73 52 640 468 276 260 449 507 134 
517 9 606 316 439 448 156 226 101 325 618 
518 9 185 525 30 513 320 43 148 122 645 
519 8 642 560 106 381 611 285 55 540 
520 9 452 352 486 200 128 586 102 510 137 
521 9 252 151 78 292 585 50 196 123 298 
522 9 40 533 487 70 351 644 64 60 472 
523 9 373 181 323 300 437 534 143 217 74 
524 9 376 15 626 221 399 620 129 193 191 
525 9 185 518 259 30 320 645 148 43 64 
526 9 646 228 508 26 75 474 161 401 222 
527 9 318 88 550 161 243 506 77 471 48 
528 9 552 187 438 390 237 46 229 575 152 
529 9 230 19 427 643 113 457 37 105 160 
530 9 591 402 164 361 481 296 336 615 33 
531 9 227 563 649 595 483 480 403 537 475 
532 9 140 102 588 128 68 352 452 520 24 
533 9 70 522 351 40 472 487 499 248 147 
534 9 45 41 418 309 135 412 74 332 438 
535 9 58 201 403 405 158 163 563 634 531 
536 9 621 446 462 443 183 254 396 617 235 
537 9 566 241 93 483 475 595 649 480 227 
538 8 584 509 576 590 262 350 256 463 
539 9 466 26 75 222 508 619 389 526 646 
540 9 283 348 145 560 326 115 106 65 519 
541 9 331 371 357 344 569 77 506 559 48 
542 9 233 465 545 18 392 473 197 110 421 
543 9 308 253 36 295 140 288 415 63 532 
544 9 286 141 76 236 284 8 324 377 385 
545 9 18 392 542 233 197 465 473 421 632 
546 9 414 99 119 130 502 271 354 404 14 
547 9 337 637 467 409 450 5 559 263 314 
548 9 379 132 91 264 482 20 433 359 339 
549 9 289 507 640 449 516 388 260 239 73 
550 9 318 455 471 527 161 77 349 380 491 
551 9 335 311 114 375 594 60 64 395 32 
552 9 187 438 528 237 390 46 68 229 575 
553 9 49 127 32 585 78 594 212 103 311 
554 9 451 222 75 619 131 243 408 526 478 
555 8 440 153 493 617 443 56 223 251 
556 9 495 366 186 430 593 479 460 613 272 
557 9 307 638 47 107 564 104 542 473 233 
558 9 57 270 600 488 51 511 37 420 312 
559 9 409 337 344 247 357 541 547 331 34 
560 9 106 540 519 283 326 348 642 145 120 
561 9 39 117 234 383 280 503 242 579 238 
562 8 67 198 2 273 301 263 345 631 
563 9 531 227 649 483 595 403 480 535 201 
564 9 638 104 307 647 299 557 473 86 204 
565 6 321 356 287 370 22 81 
566 9 241 537 93 483 475 595 511 649 480 
567 9 249 416 398 201 85 403 58 231 405 
568 9 208 385 24 8 141 137 631 286 2 
569 9 506 48 331 371 77 88 541 582 90 
570 9 353 74 269 309 418 100 628 332 341 
571 9 248 391 607 625 274 429 372 215 297 
572 9 582 90 12 48 605 371 478 210 421 
573 9 111 411 629 97 450 505 314 583 22 
574 9 346 315 138 279 369 423 10 266 195 
575 9 333 46 229 179 152 510 71 128 200 
576 9 584 509 512 262 463 3 80 538 304 
577 9 31 172 66 112 9 277 444 149 454 
578 9 95 363 260 368 211 276 116 310 52 
579 9 503 117 417 39 211 62 142 275 302 
580 9 257 224 121 603 597 615 244 216 134 
581 9 323 437 523 143 373 173 181 317 72 
582 9 90 48 572 569 478 88 371 506 243 
583 9 314 5 97 505 81 370 411 573 629 
584 8 576 463 509 512 538 262 3 611 
585 9 32 127 50 553 594 114 49 78 123 
586 9 486 200 469 510 179 520 71 452 333 
587 9 176 27 497 367 82 167 489 255 459 
588 9 102 128 68 352 452 532 229 46 200 
589 9 428 431 498 110 445 444 616 461 465 
590 9 350 268 256 240 509 538 262 305 576 
591 9 615 530 361 164 216 481 257 597 53 
592 9 184 299 92 641 647 408 389 87 204 
593 9 495 186 556 613 460 366 430 441 188 
594 9 32 114 311 127 335 585 553 49 551 
595 9 649 480 227 475 531 483 537 563 566 
596 9 84 258 279 138 11 369 282 315 10 
597 9 623 580 257 615 591 610 180 121 224 
598 9 124 489 497 56 235 167 367 396 587 
599 9 144 22 356 321 505 97 565 411 485 
600 9 270 558 57 511 51 488 566 37 241 
601 9 214 259 17 630 147 250 89 282 518 
602 8 365 612 626 614 191 221 515 524 
603 9 224 121 244 134 580 257 216 73 449 
604 9 304 3 7 490 205 293 80 262 281 
605 9 12 210 109 445 572 371 622 357 421 
606 9 316 439 517 156 101 226 448 325 492 
607 9 391 215 297 644 60 123 571 174 248 
608 9 219 639 313 159 42 237 187 438 552 
609 9 436 498 454 461 431 444 458 9 107 
610 9 623 597 69 38 180 94 361 591 164 
611 8 381 642 519 463 584 512 576 55 
612 8 435 602 303 191 515 365 269 100 
613 9 460 593 186 272 426 495 366 441 556 
614 8 365 153 602 85 231 398 416 555 
615 9 591 216 257 53 580 530 597 16 272 
616 9 261 202 13 118 144 192 98 599 362 
617 9 443 493 56 396 183 235 440 462 555 
618 9 226 93 156 241 448 566 511 537 23 
619 9 408 222 641 389 75 554 92 131 451 
620 9 376 193 399 221 267 15 524 407 129 
621 9 446 536 254 332 100 135 412 462 41 
622 9 394 247 344 357 409 109 210 605 629 
623 9 610 597 180 580 591 38 69 361 615 
624 9 206 62 275 267 407 193 302 405 347 
625 9 360 274 372 571 248 209 442 472 429 
626 9 221 524 399 376 602 365 620 15 191 
627 9 404 149 130 277 192 99 354 13 414 
628 9 300 74 291 217 570 178 418 83 309 
629 9 111 450 573 411 314 97 247 583 394 
630 9 250 89 453 122 513 334 518 290 115 
631 9 169 464 2 198 491 349 380 514 345 
632 9 197 392 18 473 92 131 545 478 641 
633 9 447 125 266 423 195 65 334 145 283 
634 9 4 44 158 163 347 25 535 188 171 
635 9 86 59 434 166 204 154 87 647 184 
636 9 389 87 408 184 466 539 619 592 154 
637 8 467 547 263 337 301 5 168 358 
638 9 564 104 307 473 557 647 18 299 197 
639 9 313 159 608 219 42 237 187 68 438 
640 9 516 449 73 507 52 468 134 276 260 
641 9 92 408 619 131 592 184 389 222 554 
642 8 519 381 611 106 285 55 560 463 
643 9 19 230 529 477 287 81 427 370 37 
644 9 60 64 487 40 551 114 335 522 311 
645 9 148 395 320 375 30 43 185 551 335 
646 9 228 526 508 474 26 401 75 161 471 
647 9 299 592 184 104 204 87 92 641 473 
648 9 502 170 504 546 271 484 306 14 94 
649 9 595 227 480 531 475 483 563 537 566 
DEPOT_SECTION
   1
   -1
EOF
