NAME :  X-n670-kX-w66-c11.cctp
COMMENT : 	Adapted by Maziero, Usberti and Cavellucci from the Uchoa, Pecin, Pessoa, Poggi, Subramanian, and Vidal (2013)
TYPE :  CCTP
DIMENSION :    504
EDGE_WEIGHT_TYPE : 	EUC_2D	
CAPACITY : 	129
VERTICES_WITHIN_COVERAGE :  11
VERTICES_WITH_DEMAND : 	66
NODE_COORD_SECTION
1 612 199
2 864 279
3 746 395
4 738 519
5 684 851
6 806 263
7 867 314
8 637 357
9 64 531
10 803 657
11 22 330
12 634 731
13 351 945
14 240 812
15 664 595
16 775 1000
17 971 313
18 953 717
19 317 25
20 812 410
21 677 874
22 731 504
23 89 803
24 697 604
25 53 379
26 817 947
27 164 875
28 86 108
29 9 596
30 406 956
31 304 456
32 843 846
33 285 809
34 148 84
35 349 524
36 527 626
37 947 317
38 646 27
39 718 325
40 906 651
41 889 936
42 953 118
43 908 868
44 447 13
45 335 495
46 77 834
47 992 428
48 826 196
49 337 341
50 482 288
51 123 49
52 415 572
53 274 837
54 581 738
55 33 36
56 795 906
57 353 858
58 242 80
59 532 464
60 246 853
61 109 299
62 285 353
63 5 669
64 255 457
65 909 568
66 986 234
67 920 756
68 7 655
69 569 543
70 317 94
71 897 775
72 226 802
73 320 820
74 15 31
75 60 419
76 629 333
77 662 34
78 780 143
79 689 829
80 19 801
81 836 281
82 640 347
83 850 655
84 742 663
85 290 424
86 407 997
87 286 957
88 129 245
89 435 940
90 578 334
91 705 340
92 431 858
93 913 873
94 862 977
95 326 380
96 512 437
97 589 34
98 937 700
99 826 559
100 535 764
101 822 590
102 324 789
103 788 804
104 788 907
105 115 327
106 477 11
107 962 433
108 5 534
109 314 568
110 957 527
111 47 482
112 665 826
113 756 911
114 50 508
115 439 921
116 86 447
117 731 971
118 417 273
119 52 855
120 463 281
121 832 357
122 693 636
123 131 820
124 85 486
125 130 344
126 98 41
127 78 818
128 954 175
129 555 470
130 4 246
131 925 867
132 546 678
133 717 485
134 958 891
135 980 240
136 306 252
137 925 566
138 105 781
139 337 94
140 713 619
141 815 673
142 193 37
143 750 998
144 713 377
145 383 57
146 898 976
147 388 899
148 57 697
149 869 771
150 755 921
151 504 197
152 727 494
153 30 311
154 175 156
155 836 939
156 35 719
157 183 932
158 200 42
159 6 329
160 904 97
161 850 281
162 858 708
163 732 232
164 92 113
165 99 558
166 703 888
167 914 786
168 255 781
169 838 456
170 869 804
171 300 97
172 694 598
173 606 610
174 955 545
175 835 965
176 418 558
177 458 484
178 169 8
179 29 177
180 28 353
181 195 905
182 132 282
183 180 133
184 267 75
185 459 577
186 354 814
187 499 941
188 59 558
189 931 901
190 666 528
191 909 551
192 386 600
193 869 521
194 622 830
195 953 797
196 92 906
197 803 785
198 762 251
199 957 6
200 294 309
201 68 61
202 431 633
203 760 373
204 991 448
205 88 318
206 593 372
207 621 298
208 265 137
209 852 404
210 599 648
211 17 702
212 198 753
213 893 251
214 458 655
215 15 767
216 953 259
217 434 633
218 359 900
219 60 422
220 919 921
221 0 149
222 13 415
223 81 655
224 292 936
225 952 248
226 763 701
227 380 49
228 98 852
229 945 802
230 262 472
231 3 108
232 130 746
233 794 150
234 16 297
235 757 663
236 981 443
237 82 768
238 839 433
239 670 588
240 874 141
241 981 726
242 709 822
243 258 312
244 993 615
245 199 777
246 995 677
247 56 320
248 259 438
249 353 945
250 102 17
251 248 300
252 726 266
253 944 700
254 2 569
255 880 608
256 383 363
257 940 348
258 644 381
259 738 647
260 925 264
261 871 137
262 655 838
263 24 441
264 703 67
265 462 4
266 630 680
267 688 380
268 597 758
269 774 414
270 337 487
271 277 764
272 365 569
273 872 918
274 595 345
275 864 223
276 575 418
277 585 637
278 482 633
279 61 319
280 350 533
281 98 246
282 707 298
283 816 701
284 426 554
285 658 570
286 99 899
287 689 736
288 675 682
289 390 804
290 486 361
291 905 954
292 204 948
293 168 343
294 739 482
295 403 374
296 900 705
297 367 999
298 395 526
299 611 607
300 800 873
301 566 346
302 895 268
303 26 302
304 975 574
305 981 331
306 2 508
307 368 849
308 666 120
309 888 203
310 740 867
311 695 582
312 74 819
313 810 168
314 400 966
315 924 776
316 979 276
317 105 134
318 433 571
319 704 274
320 62 350
321 276 320
322 232 190
323 578 815
324 979 553
325 569 491
326 247 101
327 125 281
328 376 586
329 915 744
330 742 479
331 885 281
332 191 889
333 509 202
334 292 387
335 491 202
336 434 328
337 504 328
338 92 533
339 787 990
340 123 301
341 775 517
342 238 923
343 794 427
344 485 623
345 716 603
346 384 901
347 208 400
348 17 138
349 952 175
350 953 960
351 863 568
352 645 528
353 473 40
354 665 5
355 281 999
356 44 4
357 390 315
358 37 567
359 667 799
360 526 664
361 230 780
362 824 302
363 969 848
364 19 766
365 675 686
366 876 329
367 836 902
368 386 574
369 18 851
370 292 841
371 516 721
372 848 931
373 233 856
374 833 332
375 121 796
376 707 857
377 690 527
378 811 783
379 79 234
380 29 570
381 259 444
382 26 660
383 618 855
384 753 424
385 747 462
386 406 880
387 635 529
388 310 765
389 444 966
390 759 555
391 784 434
392 906 911
393 575 734
394 234 493
395 377 928
396 102 786
397 54 485
398 917 138
399 866 690
400 556 739
401 300 357
402 844 603
403 107 934
404 374 477
405 334 958
406 934 938
407 672 417
408 773 618
409 282 880
410 748 850
411 367 534
412 310 838
413 625 343
414 379 388
415 949 696
416 605 114
417 812 229
418 884 888
419 914 913
420 65 369
421 268 824
422 335 460
423 545 601
424 996 311
425 367 379
426 304 808
427 479 607
428 741 978
429 784 502
430 878 347
431 587 607
432 264 329
433 691 618
434 140 350
435 326 770
436 763 494
437 108 29
438 413 515
439 870 632
440 631 919
441 501 606
442 352 487
443 476 22
444 780 505
445 772 324
446 547 428
447 580 425
448 926 505
449 960 705
450 81 301
451 30 367
452 962 592
453 866 231
454 510 737
455 309 524
456 18 304
457 580 38
458 739 598
459 581 633
460 415 820
461 665 638
462 880 775
463 629 631
464 371 600
465 501 223
466 215 451
467 49 525
468 718 972
469 932 564
470 72 355
471 286 840
472 75 872
473 51 518
474 992 644
475 303 414
476 711 483
477 933 250
478 46 598
479 562 503
480 115 157
481 304 785
482 188 816
483 727 298
484 612 777
485 398 880
486 334 458
487 912 247
488 846 703
489 972 386
490 96 937
491 329 97
492 892 400
493 639 318
494 34 810
495 147 837
496 598 9
497 689 739
498 344 952
499 665 405
500 906 931
501 212 478
502 784 249
503 456 454
504 615 858
DEMAND_SECTION
2 50
3 86
4 94
5 54
6 57
7 52
8 66
9 76
10 69
11 57
12 77
13 94
14 64
15 79
16 91
17 55
18 79
19 68
20 51
21 93
22 91
23 68
24 51
25 93
26 91
27 91
28 59
29 76
30 57
31 96
32 97
33 69
34 83
35 58
36 56
37 81
38 96
39 52
40 86
41 78
42 92
43 67
44 56
45 56
46 51
47 91
48 93
49 73
50 70
51 77
52 91
53 64
54 81
55 76
56 51
57 75
58 81
59 57
60 50
61 80
62 53
63 86
64 61
65 62
66 100
67 94
COVERAGE_SECTION
2 11 161 331 81 302 7 213 362 453 366 275 487 
3 11 203 384 269 144 391 343 267 385 20 91 39 
4 11 22 152 436 294 341 133 330 390 444 476 377 
5 11 79 21 376 112 262 242 166 359 310 410 194 
6 11 502 81 417 362 198 161 2 453 48 275 445 
7 11 366 2 430 161 331 374 81 362 302 121 213 
8 11 82 413 76 258 493 274 206 267 499 207 90 
9 11 467 473 114 188 338 165 358 397 124 111 380 
10 10 141 235 283 83 408 226 84 488 259 402 
11 11 159 153 180 456 303 234 247 451 279 320 470 
12 10 268 266 484 54 287 497 393 365 288 359 
13 11 249 498 405 395 218 314 346 30 297 147 224 
14 11 72 421 168 361 60 53 33 373 482 245 471 
15 11 239 285 172 24 311 433 461 122 463 345 299 
16 11 339 143 428 117 468 26 175 150 155 94 113 
17 11 305 37 424 316 257 216 260 225 489 135 477 
18 11 449 253 415 98 241 329 67 296 246 315 167 
19 11 227 70 184 139 145 491 171 58 326 158 208 
20 11 343 238 391 269 209 169 121 384 203 3 374 
21 11 5 166 376 262 79 112 242 383 310 440 504 
22 11 152 4 294 133 330 476 436 385 341 377 444 
23 11 127 396 312 138 46 375 237 123 228 494 119 
24 11 172 433 345 140 311 239 122 15 458 461 285 
25 11 420 451 320 470 180 75 219 222 11 247 279 
26 11 155 175 372 56 104 367 339 94 273 150 16 
27 11 332 495 181 157 123 482 286 228 373 196 403 
28 11 164 317 201 480 34 126 51 348 437 231 55 
29 11 254 380 478 358 68 108 188 382 63 467 9 
30 11 314 89 389 395 86 115 249 13 297 346 147 
31 11 486 422 85 475 230 270 381 248 64 45 442 
32 11 170 300 367 418 43 103 378 197 93 56 273 
33 11 426 421 53 471 481 370 73 412 168 102 14 
34 11 51 183 164 142 28 126 317 158 437 154 178 
35 11 280 411 45 442 270 455 298 272 404 109 368 
36 11 423 441 360 344 278 427 459 132 277 431 210 
37 11 17 257 305 424 316 260 216 477 225 302 331 
38 8 77 354 496 97 457 264 308 416 
39 11 91 483 282 144 319 445 252 267 203 3 493 
40 11 439 255 296 83 399 98 253 415 162 449 402 
41 11 500 291 273 392 220 419 146 372 406 418 94 
42 6 398 160 128 349 240 261 
43 11 93 131 418 189 392 419 220 134 273 500 363 
44 6 265 106 443 353 227 145 
45 10 270 442 35 422 486 455 280 404 31 411 
46 11 312 127 228 23 119 472 494 396 123 375 138 
47 10 236 204 107 489 257 305 448 492 110 17 
48 11 313 417 275 453 233 309 502 6 78 240 261 
49 11 401 95 425 256 62 200 357 414 334 321 295 
50 9 120 337 336 118 465 290 335 333 151 
51 11 437 126 250 34 201 178 28 142 164 158 317 
52 11 176 318 284 368 192 328 185 272 298 464 438 
53 11 471 421 370 33 60 412 14 426 409 373 73 
54 11 393 400 268 484 12 100 371 132 454 266 323 
55 11 74 356 201 126 250 437 231 28 51 164 348 
56 11 104 300 113 367 150 26 155 372 310 175 410 
57 11 307 218 186 412 73 485 346 147 386 370 289 
58 11 326 184 158 171 208 142 70 183 491 19 34 
59 9 129 96 446 325 479 447 276 177 503 
60 11 373 53 421 14 471 409 370 72 33 332 412 
61 11 340 327 205 450 105 182 125 279 281 247 88 
62 11 401 432 321 334 200 95 243 49 475 251 85 
63 10 68 382 211 156 148 29 223 478 364 215 
64 10 381 230 248 466 394 85 501 31 475 347 
65 11 137 191 469 351 255 174 452 193 110 448 304 
66 11 135 225 216 316 477 128 260 349 487 424 17 
67 11 329 315 71 167 462 18 229 149 195 296 98 
68 10 63 382 211 29 148 478 156 223 254 380 
69 10 479 325 423 431 387 129 173 299 352 59 
70 10 491 171 139 184 208 19 326 58 145 227 
71 11 462 167 315 149 67 329 170 229 195 296 162 
72 11 14 361 168 245 482 421 373 60 212 33 53 
73 11 426 412 102 186 370 33 481 471 53 57 435 
74 11 55 356 201 231 126 250 437 28 348 51 164 
75 10 219 116 25 263 222 420 451 111 470 397 
76 10 413 82 493 8 207 274 258 90 206 301 
77 8 38 354 264 496 97 457 308 416 
78 3 233 313 48 
79 10 242 5 112 376 262 359 21 166 410 310 
80 10 494 215 364 369 312 127 119 46 23 237 
81 11 161 362 2 6 7 331 374 417 453 302 502 
82 11 8 413 76 493 258 274 206 207 267 90 499 
83 11 439 399 141 10 488 402 162 40 255 283 101 
84 7 235 259 226 140 408 122 10 
85 11 475 248 31 334 381 64 230 486 95 422 401 
86 11 314 297 30 389 89 249 395 13 498 115 405 
87 10 224 355 405 498 342 13 249 409 292 297 
88 10 281 327 182 379 340 61 450 105 205 480 
89 11 115 389 30 314 395 147 86 187 346 386 485 
90 9 301 274 206 413 76 207 8 82 493 
91 11 39 144 282 267 483 203 82 319 3 445 8 
92 10 386 485 460 147 115 307 346 289 57 89 
93 11 43 131 189 418 392 419 134 220 500 273 363 
94 11 175 146 155 372 41 291 26 273 500 339 367 
95 9 334 401 49 425 475 62 414 85 256 
96 7 59 446 129 503 276 447 177 
97 6 457 496 38 77 354 416 
98 11 253 415 18 449 296 329 241 40 67 246 399 
99 11 101 351 402 193 341 390 429 444 255 408 65 
100 8 400 454 371 393 54 268 323 484 
101 11 402 99 351 408 255 439 10 83 390 141 193 
102 9 435 481 388 426 73 186 33 412 271 
103 8 197 378 410 32 300 310 170 242 
104 11 56 113 150 300 367 26 155 310 372 410 175 
105 11 125 340 205 61 434 450 327 182 470 279 293 
106 4 443 265 353 44 
107 10 236 47 204 489 492 448 257 110 305 174 
108 11 306 254 380 467 358 473 114 9 188 29 111 
109 7 455 280 272 35 411 328 464 
110 10 174 324 448 469 137 304 191 65 452 204 
111 10 397 114 473 124 467 263 9 116 306 219 
112 11 262 79 359 5 194 242 21 376 383 504 484 
113 11 150 104 56 310 166 300 410 117 428 26 468 
114 11 473 467 397 111 9 124 306 338 188 108 358 
115 11 89 389 30 386 147 485 346 314 395 187 92 
116 8 219 75 124 397 111 263 114 25 
117 9 428 468 143 16 150 339 113 104 166 
118 8 120 357 336 50 256 465 295 335 
119 11 472 46 369 312 127 228 494 80 23 286 196 
120 10 50 118 336 337 465 357 290 335 333 151 
121 11 374 430 209 366 7 362 20 445 203 492 81 
122 11 433 140 461 24 172 345 259 288 15 239 365 
123 11 495 375 23 396 228 138 127 46 312 482 27 
124 9 397 111 116 114 473 338 9 467 219 
125 9 434 105 293 340 205 61 470 182 327 
126 11 437 250 51 201 55 356 34 28 164 178 74 
127 11 312 46 23 228 396 119 494 138 375 237 123 
128 11 349 398 42 66 135 309 225 477 487 216 240 
129 8 59 325 479 446 447 96 276 69 
130 8 234 303 456 153 179 379 159 11 
131 11 93 43 189 134 418 419 363 392 220 500 229 
132 11 360 371 36 277 459 210 400 393 54 454 423 
133 10 476 152 294 22 330 385 4 436 377 341 
134 9 189 131 363 93 220 419 406 43 392 
135 11 66 225 216 316 477 260 487 128 349 424 17 
136 6 200 321 251 243 432 49 
137 11 469 65 191 174 452 110 304 324 448 255 351 
138 9 396 375 237 23 232 127 123 312 46 
139 8 491 70 171 145 227 19 184 208 
140 11 345 24 433 122 172 458 259 311 461 84 239 
141 9 10 283 83 488 399 162 226 235 408 
142 11 158 178 34 58 51 184 326 437 250 126 183 
143 9 428 16 117 339 468 150 26 113 175 
144 11 267 3 91 203 39 499 407 384 258 269 8 
145 6 227 139 491 19 70 44 
146 11 291 94 41 500 406 350 220 175 273 392 419 
147 11 346 485 386 218 395 57 307 115 249 13 92 
148 8 156 211 223 382 63 68 237 364 
149 10 462 71 170 167 67 329 315 378 162 197 
150 11 113 104 56 117 310 428 166 468 300 26 410 
151 5 333 335 465 120 50 
152 11 22 133 294 476 330 4 436 385 377 341 444 
153 11 303 456 234 11 247 159 279 180 320 450 451 
154 11 183 480 322 317 34 326 208 164 88 28 58 
155 11 372 26 175 367 273 94 41 56 104 418 500 
156 9 211 148 364 215 63 382 237 68 223 
157 9 292 181 332 342 27 403 490 286 373 
158 11 142 178 58 34 184 326 51 183 437 250 126 
159 11 11 456 153 180 234 303 451 247 279 320 25 
160 4 398 261 42 240 
161 11 2 81 362 331 7 302 6 213 453 374 366 
162 10 488 399 296 283 83 141 149 329 462 10 
163 8 252 198 319 502 483 282 6 417 
164 11 28 317 480 201 34 51 126 348 437 231 179 
165 3 338 188 9 
166 11 21 376 5 310 113 410 79 150 242 262 112 
167 11 315 71 67 229 462 195 329 149 170 18 43 
168 10 361 271 14 72 33 421 481 245 426 388 
169 11 238 20 343 209 391 429 193 444 269 492 436 
170 11 462 149 71 167 32 315 378 197 67 43 229 
171 10 70 491 139 184 208 326 58 19 145 227 
172 11 24 311 433 345 239 140 15 122 458 285 461 
173 11 299 431 463 277 459 210 15 423 461 285 239 
174 10 110 324 469 304 137 191 452 448 65 244 
175 11 26 155 94 372 339 273 41 367 146 16 56 
176 11 284 52 318 368 298 438 185 328 192 272 411 
177 7 503 438 96 298 59 284 176 
178 11 142 158 51 437 250 126 34 58 201 184 326 
179 8 221 348 130 231 379 317 480 28 
180 11 451 11 159 320 25 420 153 247 470 279 456 
181 10 332 157 27 292 342 373 60 495 482 409 
182 11 327 340 61 88 105 281 450 205 125 434 293 
183 11 154 34 480 326 317 322 58 208 164 158 28 
184 10 58 326 171 70 208 491 19 139 158 142 
185 11 318 427 284 52 176 441 344 217 278 202 368 
186 9 73 289 307 102 57 412 426 435 481 
187 5 389 115 89 30 314 
188 10 358 9 380 467 165 338 473 478 114 254 
189 11 419 220 392 134 93 131 406 500 43 418 41 
190 11 352 377 387 285 239 311 476 15 133 22 152 
191 11 65 137 469 174 351 448 193 110 255 452 304 
192 11 464 328 368 272 52 176 318 202 217 284 411 
193 11 351 191 99 448 65 137 169 469 101 402 429 
194 10 383 504 262 112 323 484 359 5 79 21 
195 11 229 315 167 67 363 71 329 131 241 462 18 
196 8 286 490 403 472 228 119 46 27 
197 8 378 103 149 170 32 462 283 410 
198 11 502 163 252 6 417 483 319 282 445 81 362 
199 2 160 42 
200 10 321 243 432 62 251 401 49 136 95 334 
201 11 126 55 28 437 51 250 164 74 356 231 317 
202 9 217 214 278 344 427 192 318 52 185 
203 11 3 269 144 445 384 20 39 91 343 391 267 
204 10 236 47 107 489 110 448 174 324 492 257 
205 11 450 279 61 105 247 340 470 320 125 327 420 
206 9 274 301 90 413 8 276 258 76 82 
207 7 493 76 413 82 274 90 8 
208 10 326 171 58 184 322 70 491 139 183 154 
209 11 238 20 492 121 169 343 430 374 391 269 366 
210 11 277 459 463 173 299 431 266 132 461 423 36 
211 9 156 63 148 382 68 364 215 223 237 
212 7 245 361 72 168 482 232 14 
213 11 302 487 331 453 260 2 275 477 309 161 225 
214 8 217 278 202 344 427 441 360 36 
215 10 364 80 494 156 211 237 312 127 23 148 
216 11 225 477 260 316 135 66 487 17 37 302 213 
217 9 202 214 278 344 427 192 185 318 52 
218 11 346 147 395 57 485 249 13 386 307 498 405 
219 10 75 116 263 25 222 420 111 397 451 470 
220 11 419 392 500 189 406 41 291 273 93 418 134 
221 8 348 179 231 28 130 164 317 201 
222 11 263 75 219 451 25 180 420 111 116 320 397 
223 6 148 382 478 68 63 156 
224 10 87 405 498 342 409 13 249 355 218 395 
225 11 216 477 135 260 66 316 487 213 302 17 37 
226 6 235 84 283 10 141 259 
227 6 145 139 19 491 44 70 
228 11 46 472 127 312 119 123 286 23 495 196 375 
229 11 195 315 167 67 363 71 329 131 462 43 170 
230 9 64 381 248 394 31 501 466 85 455 
231 9 348 221 179 55 74 201 28 164 317 
232 6 138 396 375 237 212 23 
233 5 78 313 48 261 240 
234 10 456 303 153 11 159 247 279 130 180 450 
235 7 84 259 226 10 408 141 140 
236 10 204 47 107 489 448 110 492 257 174 324 
237 9 138 396 23 375 127 312 232 364 494 
238 11 169 209 20 343 391 492 269 121 384 429 193 
239 11 15 285 172 311 24 433 345 461 122 140 463 
240 6 261 398 160 309 313 48 
241 11 18 449 415 253 98 246 67 329 195 315 474 
242 10 79 376 5 112 359 410 310 262 21 166 
243 8 251 432 321 200 62 401 136 334 
244 11 474 452 304 246 324 174 469 137 415 40 110 
245 7 212 361 72 482 14 168 232 
246 11 474 449 415 241 253 18 98 244 452 40 296 
247 11 279 153 320 450 205 11 303 470 456 180 234 
248 11 381 64 85 230 466 31 475 394 334 501 347 
249 11 13 498 405 395 218 314 30 346 297 147 224 
250 11 437 126 51 201 356 178 55 34 74 28 142 
251 8 243 432 321 200 62 136 401 293 
252 10 319 483 163 282 198 39 502 445 91 6 
253 11 415 98 449 18 296 241 329 246 67 40 474 
254 11 380 29 108 358 478 188 306 467 473 9 114 
255 11 439 402 351 65 40 83 101 137 191 469 99 
256 7 295 425 414 357 49 95 336 
257 11 37 305 17 489 430 366 424 492 7 316 260 
258 10 8 499 82 413 267 407 76 206 274 493 
259 10 84 235 140 408 122 345 458 433 24 226 
260 11 477 487 216 302 225 213 331 316 37 135 2 
261 6 240 398 160 309 313 48 
262 11 112 5 194 79 359 383 21 504 376 242 166 
263 10 222 219 75 111 397 116 25 306 114 451 
264 4 77 308 38 354 
265 6 44 106 443 353 227 145 
266 10 210 288 365 463 12 461 277 459 173 299 
267 11 144 499 407 91 258 8 82 3 39 203 413 
268 10 484 54 393 400 12 323 100 194 359 266 
269 11 391 384 343 3 20 203 385 238 144 330 294 
270 10 45 442 422 486 404 35 31 455 280 411 
271 8 168 388 481 33 435 361 426 102 
272 11 328 368 464 411 192 280 35 52 109 298 176 
273 11 41 372 418 392 500 367 155 419 220 291 94 
274 10 90 206 301 413 76 8 82 493 207 258 
275 11 453 309 213 48 417 487 302 2 161 331 81 
276 6 447 446 206 129 59 96 
277 11 459 210 431 173 299 463 423 132 36 266 360 
278 10 344 427 214 441 36 217 202 360 185 423 
279 11 247 205 450 320 153 470 303 11 456 180 234 
280 11 35 411 272 45 455 298 442 270 109 368 328 
281 10 379 88 327 182 61 450 340 205 279 105 
282 9 483 319 39 252 91 445 163 493 198 
283 8 141 488 162 10 399 226 83 235 
284 11 176 318 52 185 438 298 368 328 192 411 272 
285 11 239 15 311 190 352 172 387 24 377 433 299 
286 8 196 403 472 490 228 119 27 46 
287 5 497 365 12 288 359 
288 9 365 266 461 122 287 497 12 433 463 
289 6 460 186 307 57 92 102 
290 5 337 336 50 96 301 
291 11 146 500 41 406 220 419 392 350 94 273 189 
292 10 157 342 181 332 87 27 224 355 373 403 
293 8 434 125 105 340 347 182 61 327 
294 11 330 152 133 385 22 436 476 4 444 429 341 
295 7 256 414 425 336 357 49 95 
296 11 98 399 162 329 253 415 18 40 488 67 449 
297 11 86 314 498 405 13 249 30 395 389 355 89 
298 11 438 411 176 284 35 280 368 52 272 404 442 
299 11 173 431 463 277 459 210 15 285 239 461 423 
300 11 56 104 367 32 410 113 310 150 103 155 372 
301 7 90 274 206 413 76 337 8 
302 11 331 213 487 260 2 477 161 453 7 275 216 
303 11 456 153 234 11 159 247 279 180 450 130 320 
304 10 324 452 174 469 244 110 137 65 191 474 
305 11 17 424 37 257 316 489 216 260 225 135 477 
306 11 108 114 467 473 111 397 254 9 380 358 263 
307 11 57 186 485 386 289 218 147 346 460 73 412 
308 4 416 264 77 38 
309 11 275 453 213 487 48 240 302 477 261 349 260 
310 11 410 376 166 113 242 150 5 300 104 21 79 
311 11 172 24 239 345 15 433 285 140 458 122 377 
312 11 127 46 23 228 494 119 396 138 237 375 472 
313 7 233 48 78 417 261 240 275 
314 11 30 86 89 389 395 297 249 13 498 115 405 
315 11 167 67 71 229 329 195 462 149 170 18 296 
316 11 216 135 17 225 424 66 37 477 260 305 487 
317 11 164 480 28 34 154 183 201 51 179 348 126 
318 11 52 284 176 185 368 192 427 298 328 438 202 
319 8 252 282 483 163 39 198 91 493 
320 11 470 420 25 247 279 180 451 205 11 153 450 
321 10 432 243 200 62 251 401 49 334 136 95 
322 8 208 154 183 326 136 58 251 171 
323 8 194 484 383 504 268 100 54 400 
324 10 304 174 110 452 469 137 244 191 65 448 
325 9 479 129 59 69 446 447 276 387 96 
326 10 58 184 208 171 70 183 158 491 142 139 
327 11 182 340 61 88 281 105 450 205 125 379 434 
328 11 464 368 192 272 52 176 411 280 284 318 298 
329 11 67 315 71 167 296 18 462 98 149 253 415 
330 11 294 385 152 133 436 22 476 4 444 429 341 
331 11 302 2 213 161 7 260 487 81 366 453 477 
332 11 181 27 157 373 342 292 60 495 482 14 123 
333 5 151 335 465 50 120 
334 11 475 401 62 95 85 248 49 432 381 321 31 
335 6 151 333 465 120 50 118 
336 10 357 120 295 118 50 256 290 337 414 425 
337 6 290 50 120 301 336 90 
338 7 165 9 188 467 473 124 114 
339 11 16 143 428 26 175 117 155 468 94 150 104 
340 11 61 327 182 105 205 450 125 434 88 281 293 
341 11 444 429 436 4 390 22 294 330 152 385 99 
342 10 292 181 157 224 332 87 409 373 60 355 
343 11 391 269 20 384 238 169 3 385 209 203 330 
344 10 278 427 441 36 214 217 185 202 360 423 
345 11 140 24 172 458 433 311 122 239 259 15 408 
346 11 147 218 485 395 386 57 249 307 13 30 115 
347 7 466 248 381 293 64 501 434 
348 8 221 231 179 28 164 317 201 480 
349 11 128 398 42 66 309 135 225 477 487 216 240 
350 9 406 291 220 500 146 419 189 41 392 
351 11 99 402 255 65 101 193 191 137 439 469 83 
352 8 387 190 285 377 239 15 311 69 
353 4 443 106 44 265 
354 8 38 77 496 264 97 457 308 416 
355 10 87 224 405 498 297 342 13 249 292 157 
356 11 55 74 250 201 126 437 51 28 231 164 178 
357 9 336 256 118 49 295 425 414 120 95 
358 11 380 188 478 254 29 467 9 108 473 114 165 
359 10 112 79 262 242 5 194 484 497 287 376 
360 10 132 36 278 344 371 441 459 277 423 214 
361 8 72 168 245 14 212 271 482 421 
362 11 81 374 161 6 7 2 121 445 366 331 502 
363 11 134 131 229 195 93 43 189 167 315 419 220 
364 10 215 80 494 156 237 211 312 23 127 148 
365 7 288 266 461 287 122 497 12 
366 11 7 430 374 331 2 121 161 362 81 302 257 
367 11 372 155 273 56 300 104 26 418 32 41 175 
368 11 328 272 192 52 464 176 411 284 318 298 280 
369 9 119 494 80 46 472 312 127 228 215 
370 11 471 53 412 421 33 73 426 409 60 481 14 
371 7 454 400 100 132 360 393 54 
372 11 155 273 367 26 175 41 94 418 500 56 291 
373 11 60 14 53 421 332 72 409 471 482 370 181 
374 11 121 362 7 366 430 81 161 2 445 331 6 
375 11 396 138 123 23 127 237 495 232 312 46 228 
376 11 5 166 79 21 310 242 410 112 262 359 113 
377 11 190 352 22 4 476 133 152 285 311 387 239 
378 9 197 103 149 170 462 32 283 71 488 
379 8 281 88 327 450 61 182 130 179 
380 11 358 254 188 29 478 108 467 9 473 114 306 
381 11 248 64 230 85 466 31 475 394 501 334 347 
382 9 68 63 211 148 223 156 478 29 380 
383 10 504 194 262 112 323 21 440 5 359 79 
384 11 269 3 391 385 343 203 330 294 20 144 133 
385 11 330 294 436 133 152 384 476 22 391 429 444 
386 11 485 147 346 92 307 218 115 395 57 460 89 
387 9 352 190 285 377 69 239 15 325 479 
388 9 435 481 102 271 426 33 73 168 186 
389 11 89 30 314 115 86 187 395 297 147 346 249 
390 11 341 4 458 444 22 429 436 345 408 99 152 
391 11 343 269 384 20 385 3 238 169 330 436 203 
392 11 419 220 500 189 41 418 273 93 406 43 291 
393 10 54 400 268 100 484 12 371 132 454 266 
394 6 501 230 64 466 381 248 
395 11 346 249 13 147 218 30 498 314 405 485 386 
396 11 138 23 375 237 127 312 123 232 46 228 495 
397 10 111 114 124 473 467 9 116 263 306 338 
398 7 42 160 240 261 349 128 309 
399 10 162 488 296 83 283 141 40 439 10 98 
400 9 393 54 100 371 268 454 132 484 12 
401 11 62 334 95 49 321 432 200 475 243 85 425 
402 11 101 255 439 351 99 83 10 408 65 141 40 
403 7 490 196 286 472 157 27 228 
404 8 442 270 45 422 486 35 298 438 
405 11 498 13 249 224 87 395 297 218 314 355 30 
406 9 220 350 500 419 291 189 392 41 146 
407 8 499 267 258 144 8 3 82 476 
408 11 458 259 235 10 84 101 345 140 390 141 402 
409 11 370 471 53 60 412 373 224 421 342 33 73 
410 11 310 376 242 300 166 103 113 79 5 104 150 
411 11 280 35 298 272 368 442 45 438 328 176 270 
412 11 370 73 471 426 53 33 421 57 186 409 102 
413 10 76 82 8 493 274 258 206 207 90 301 
414 6 425 256 295 95 49 357 
415 11 253 98 449 18 241 246 296 329 40 67 474 
416 5 308 457 97 38 77 
417 11 502 6 48 275 453 198 81 313 161 2 362 
418 11 43 273 392 93 419 131 41 220 500 189 367 
419 11 392 220 500 189 406 41 418 93 273 291 43 
420 11 25 470 320 451 180 75 247 279 219 205 11 
421 11 53 33 471 370 14 60 426 412 168 72 373 
422 8 486 270 31 442 45 404 475 85 
423 11 36 431 441 459 277 173 69 344 299 360 427 
424 11 17 305 316 37 216 257 135 225 66 489 260 
425 8 414 256 295 95 49 357 401 475 
426 11 33 73 481 102 412 370 471 421 53 388 435 
427 10 344 441 278 185 36 214 217 202 318 423 
428 9 117 143 468 16 339 150 113 26 104 
429 11 444 341 436 330 4 294 22 385 152 390 391 
430 11 366 7 121 374 492 257 209 331 2 362 161 
431 11 173 299 459 277 423 210 463 36 69 15 285 
432 9 321 243 62 251 200 401 334 49 95 
433 11 24 122 172 140 345 461 15 311 239 458 259 
434 9 125 293 105 340 61 205 182 470 327 
435 9 388 102 481 426 271 73 186 33 412 
436 11 444 429 330 341 294 22 4 152 385 133 476 
437 11 250 126 51 201 178 34 356 55 28 142 164 
438 8 298 284 176 411 404 177 52 318 
439 11 255 83 402 40 399 101 351 141 10 65 488 
440 4 504 21 383 166 
441 11 427 344 36 278 423 185 360 214 217 202 318 
442 9 270 45 404 422 486 35 280 411 31 
443 4 106 353 265 44 
444 11 429 341 436 4 330 294 22 152 385 390 133 
445 11 203 483 39 362 374 121 91 6 282 198 252 
446 6 276 447 96 59 129 325 
447 7 276 446 129 206 59 325 96 
448 10 110 174 191 193 469 137 65 324 107 236 
449 11 18 415 253 98 241 246 296 329 67 474 40 
450 11 205 279 61 247 340 105 327 153 320 182 303 
451 11 180 25 420 320 11 470 159 222 247 153 279 
452 11 304 244 469 324 137 174 65 474 110 191 40 
453 11 275 213 309 302 2 487 161 48 331 417 81 
454 7 371 100 400 393 132 54 360 
455 8 45 35 280 109 270 442 411 31 
456 11 234 303 153 11 159 247 279 180 130 450 320 
457 5 97 496 38 416 77 
458 11 345 140 408 24 172 311 390 259 433 122 84 
459 11 277 210 431 173 299 423 463 36 132 360 266 
460 7 289 92 307 186 386 485 57 
461 11 122 433 463 15 288 24 172 365 239 140 266 
462 11 149 71 170 167 67 315 329 378 229 162 296 
463 11 299 173 210 461 277 431 459 266 15 239 433 
464 10 192 328 368 272 52 176 109 411 202 318 
465 7 333 335 151 50 120 118 337 
466 7 501 64 381 248 394 230 347 
467 11 473 9 114 188 397 111 338 358 108 380 306 
468 8 117 428 143 150 16 339 113 166 
469 11 137 65 191 174 452 304 110 324 448 255 351 
470 11 320 420 25 247 279 205 180 451 105 450 11 
471 11 370 53 412 421 33 426 73 409 60 14 373 
472 9 119 228 286 46 196 312 127 369 490 
473 11 467 114 9 397 111 188 338 124 108 306 358 
474 11 244 246 452 415 449 304 253 98 18 241 40 
475 11 85 334 95 31 248 381 486 422 401 62 64 
476 9 133 152 294 22 330 385 4 377 436 
477 11 260 225 487 216 213 302 135 316 66 331 309 
478 9 358 380 29 188 254 382 165 223 9 
479 10 325 129 69 59 446 387 447 96 276 352 
480 11 317 164 28 154 183 34 379 179 88 281 348 
481 9 102 388 426 435 33 271 73 168 412 
482 10 72 245 495 14 361 123 373 27 212 60 
483 11 282 39 252 319 91 445 198 163 502 144 203 
484 10 268 54 12 323 194 393 359 400 112 262 
485 11 386 147 346 92 307 218 57 395 115 460 89 
486 8 422 270 31 442 45 404 475 85 
487 11 213 260 477 302 225 216 331 453 309 275 2 
488 10 162 399 283 141 83 296 10 149 439 40 
489 11 47 107 257 305 236 204 17 37 424 492 430 
490 7 403 196 286 472 228 157 27 
491 9 139 70 171 184 145 227 19 208 326 
492 11 209 430 238 257 366 121 107 169 20 489 7 
493 9 76 207 82 413 8 274 90 258 91 
494 11 80 312 369 127 364 215 119 46 23 237 396 
495 11 123 27 482 375 228 23 332 396 46 138 127 
496 6 97 457 38 354 77 416 
497 5 287 365 12 288 359 
498 11 13 249 405 395 297 218 224 87 314 30 346 
499 8 407 258 267 8 144 82 413 91 
500 11 220 41 392 419 291 406 273 189 146 418 350 
501 6 394 466 64 230 381 248 
502 11 198 6 417 163 252 81 362 48 161 483 445 
503 4 177 96 438 59 
504 9 383 194 262 323 112 440 21 5 79 
DEPOT_SECTION
   1
   -1
EOF
